Data from 2938826__Reflection_06.txt Node
Date: Thu Mar 12 13:44:10 EDT 2015
User: robert
Spectrometer: USB4E03002
Autoset integration time: false
Trigger mode: 4
Integration Time (sec): 1.000000E-1
Scans to average: 10
Electric dark correction enabled: false
Nonlinearity correction enabled: false
Boxcar width: 5
Stray light correction enabled: false
XAxis mode: Wavelengths
Stop averaging: false
Number of Pixels in Spectrum: 3648
>>>>>Begin Spectral Data<<<<<
177.575	32.38
177.794	37.3
178.014	19.22
178.233	46.01
178.452	59.52
178.672	58.33
178.891	52.65
179.11	57.78
179.33	63.57
179.549	72.37
179.768	118.92
179.987	142.97
180.207	153.95
180.426	139.02
180.645	118.03
180.864	74.19
181.084	104.9
181.303	143.27
181.522	67.66
181.741	89.74
181.96	40.33
182.179	43.53
182.398	43.28
182.618	44.59
182.837	36.89
183.056	40.48
183.275	29.77
183.494	-9.69
183.713	8.16
183.932	25.39
184.151	18.5
184.37	38.51
184.589	1.35
184.808	-3.26
185.027	-61.05
185.246	2.56
185.465	-48.58
185.684	9.29
185.903	87.44
186.122	65.44
186.341	-4.88
186.56	-5.04
186.779	100.57
186.998	122.99
187.216	53.26
187.435	60.57
187.654	33.82
187.873	2.88
188.092	-69.54
188.311	-1310.53
188.53	1714.29
188.748	535.48
188.967	2450
189.186	-298.35
189.405	-174.14
189.623	-196.91
189.842	192.16
190.061	226.89
190.28	116.67
190.498	-1900
190.717	62.24
190.936	-1460
191.154	132.26
191.373	9.71
191.592	-16.67
191.81	166.67
192.029	-17.33
192.248	-95.49
192.466	-2.49
192.685	23.44
192.904	30.16
193.122	-17.87
193.341	26.11
193.559	23.21
193.778	22.08
193.996	11.17
194.215	-27.5
194.433	-4.22
194.652	11.62
194.87	0
195.089	-22.03
195.307	-60.28
195.526	-74.6
195.744	-47.06
195.963	-185.44
196.181	10860
196.399	-260.98
196.618	-212.89
196.836	-271.59
197.055	-4183.33
197.273	-186.61
197.491	-113.46
197.71	-111.28
197.928	-117.7
198.146	-188.13
198.365	-131.77
198.583	-51.52
198.801	-73.29
199.019	-91.27
199.238	-37.22
199.456	0.87
199.674	-21.41
199.892	-76.25
200.111	2.87
200.329	20.11
200.547	34.96
200.765	38.32
200.983	26.75
201.202	11.13
201.42	18.36
201.638	0.14
201.856	1.31
202.074	22.92
202.292	38.8
202.51	43.04
202.728	49.01
202.946	19.62
203.165	21.03
203.383	14.22
203.601	27.73
203.819	16.55
204.037	51.47
204.255	17.65
204.473	8.85
204.691	-10.24
204.909	-21.21
205.127	-13.84
205.345	-33.73
205.562	-40.68
205.78	-17.04
205.998	-17.03
206.216	7.72
206.434	23.87
206.652	27.87
206.87	24.19
207.088	33.86
207.306	28.75
207.523	15.37
207.741	20.04
207.959	19.66
208.177	13.54
208.395	12.5
208.612	10.31
208.83	-41.64
209.048	-58.61
209.266	-46.38
209.483	-51.75
209.701	-26.64
209.919	-29.12
210.136	-11.51
210.354	0.17
210.572	-5.54
210.79	13.17
211.007	1.82
211.225	15.84
211.442	31.84
211.66	22.97
211.878	15.83
212.095	1.13
212.313	-16
212.53	-38.32
212.748	-63.19
212.966	-52.01
213.183	-88.4
213.401	-100
213.618	-103.52
213.836	-101.44
214.053	-75.58
214.271	-61.43
214.488	-60.53
214.705	-31.66
214.923	-3.99
215.14	3.65
215.358	7.54
215.575	15.93
215.793	0.63
216.01	-4.31
216.227	-19.06
216.445	-37.14
216.662	-18.52
216.879	13.81
217.097	3.41
217.314	-12.57
217.531	-4.95
217.749	-28.95
217.966	-43.57
218.183	-17.54
218.4	-3.47
218.618	4.39
218.835	10.65
219.052	13.26
219.269	9
219.487	9.79
219.704	16.71
219.921	13.01
220.138	35.47
220.355	35.68
220.572	29.5
220.79	26.9
221.007	32
221.224	28
221.441	25.42
221.658	13.93
221.875	7.06
222.092	9.12
222.309	11.49
222.526	6.18
222.743	6.34
222.96	6.6
223.177	8.94
223.394	5.9
223.611	7.93
223.828	7.59
224.045	12.59
224.262	20.93
224.479	15.85
224.696	14.64
224.913	15.89
225.13	14.61
225.347	11.99
225.564	9.58
225.781	11.84
225.997	8.31
226.214	9.75
226.431	9.04
226.648	7.26
226.865	7.09
227.082	3.75
227.298	1.47
227.515	3.9
227.732	4.1
227.949	4.79
228.165	3.05
228.382	3.22
228.599	2.27
228.816	1.72
229.032	2.15
229.249	1.65
229.466	2.69
229.682	3.81
229.899	3.46
230.116	3.58
230.332	3.6
230.549	4.08
230.765	4.22
230.982	4.31
231.199	5.28
231.415	4.61
231.632	5.33
231.848	5.53
232.065	4.31
232.281	3.86
232.498	6.04
232.714	5.71
232.931	6.13
233.147	6.21
233.364	5.87
233.58	3.59
233.797	5.31
234.013	6.76
234.23	4.75
234.446	5.31
234.662	5.43
234.879	3.88
235.095	4.5
235.312	4.68
235.528	6.71
235.744	7.35
235.961	10
236.177	7.97
236.393	6.55
236.61	9.47
236.826	10.39
237.042	9.96
237.258	9.54
237.475	10.27
237.691	10.45
237.907	9.81
238.123	10.09
238.339	8.5
238.556	8.82
238.772	11.24
238.988	11.58
239.204	10.41
239.42	9.77
239.636	9.53
239.853	7.96
240.069	7.85
240.285	7.29
240.501	7.11
240.717	7.52
240.933	7.14
241.149	5.64
241.365	5
241.581	5.57
241.797	5.34
242.013	5.36
242.229	6.08
242.445	6.28
242.661	6.36
242.877	6.87
243.093	7.08
243.309	7.69
243.525	7.87
243.741	7.91
243.957	8.24
244.173	8.61
244.388	9.16
244.604	8.57
244.82	7.65
245.036	7.85
245.252	7.4
245.468	6.72
245.683	6.32
245.899	6.3
246.115	6.24
246.331	5.87
246.547	6.01
246.762	5.81
246.978	5.85
247.194	5.94
247.409	5.57
247.625	5.34
247.841	5.67
248.057	5.52
248.272	5.72
248.488	5.73
248.703	5.53
248.919	5.6
249.135	5.31
249.35	5.03
249.566	5.34
249.782	5.58
249.997	5.22
250.213	4.88
250.428	5.44
250.644	5.65
250.859	5.99
251.075	5.4
251.29	5.58
251.506	5.87
251.721	6.43
251.937	5.38
252.152	5.24
252.368	6.04
252.583	5.27
252.798	5.49
253.014	5.34
253.229	4.69
253.445	5.58
253.66	5.04
253.875	5.71
254.091	5.98
254.306	6.37
254.521	7.04
254.737	6.04
254.952	7.37
255.167	6.81
255.383	6.8
255.598	6.93
255.813	6.47
256.028	6.59
256.244	5.65
256.459	4.7
256.674	5.34
256.889	4.65
257.104	5.65
257.32	4.72
257.535	4.51
257.75	4.06
257.965	3.88
258.18	3.79
258.395	4.11
258.61	4.39
258.826	4.52
259.041	4.1
259.256	4.27
259.471	3.93
259.686	3.86
259.901	4.03
260.116	4
260.331	4.06
260.546	4.16
260.761	3.84
260.976	3.51
261.191	3.45
261.406	3.81
261.621	3.84
261.836	4.15
262.05	4.31
262.265	4.12
262.48	4.16
262.695	4.27
262.91	4.09
263.125	4.68
263.34	5.17
263.555	5.26
263.769	4.88
263.984	4.35
264.199	4.29
264.414	4.67
264.629	5.17
264.843	5.79
265.058	5.92
265.273	6.31
265.488	5.57
265.702	5.26
265.917	5.46
266.132	5.19
266.346	5.35
266.561	5.64
266.776	5.35
266.99	4.96
267.205	5.01
267.42	4.93
267.634	4.89
267.849	5.16
268.063	5.37
268.278	4.7
268.492	4.99
268.707	4.72
268.922	4.56
269.136	4.58
269.351	4.33
269.565	3.64
269.78	3.73
269.994	3.39
270.209	3.09
270.423	3.11
270.637	2.95
270.852	2.81
271.066	3.05
271.281	2.57
271.495	2.67
271.709	3.13
271.924	3.61
272.138	3.48
272.353	3.38
272.567	3.59
272.781	3.82
272.996	4.46
273.21	4.55
273.424	4.54
273.638	4.73
273.853	4.33
274.067	4.13
274.281	3.91
274.495	3.8
274.71	4.2
274.924	4.39
275.138	3.97
275.352	3.65
275.566	3.99
275.781	4.59
275.995	4.75
276.209	5.41
276.423	5.28
276.637	5.3
276.851	5.6
277.065	5.73
277.279	5.41
277.493	5.45
277.707	5.94
277.921	5.75
278.135	5.06
278.349	4.84
278.563	4.31
278.777	4.47
278.991	4.09
279.205	3.96
279.419	3.77
279.633	4.04
279.847	4.01
280.061	3.59
280.275	3.7
280.489	3.92
280.703	4.18
280.917	4.47
281.131	4.25
281.344	4.61
281.558	4.56
281.772	4.76
281.986	4.5
282.2	4.49
282.414	4.32
282.627	4.33
282.841	4.12
283.055	3.82
283.269	3.77
283.482	4.05
283.696	4.01
283.91	4.15
284.123	4.13
284.337	4.25
284.551	4.4
284.764	4.21
284.978	4.07
285.192	3.93
285.405	4.04
285.619	4.13
285.833	4.04
286.046	3.9
286.26	3.63
286.473	3.54
286.687	3.87
286.9	3.86
287.114	4.23
287.327	4.29
287.541	4.87
287.754	4.93
287.968	4.74
288.181	4.52
288.395	4.7
288.608	4.87
288.822	4.72
289.035	4.3
289.248	4.14
289.462	4.27
289.675	4.18
289.889	3.82
290.102	3.8
290.315	4.31
290.529	4.49
290.742	4.48
290.955	4.37
291.169	4.36
291.382	4.28
291.595	4.76
291.808	4.36
292.022	4.42
292.235	4.7
292.448	4.6
292.661	4.44
292.875	4.49
293.088	4.63
293.301	4.83
293.514	5.21
293.727	5.71
293.94	5.17
294.153	5.22
294.367	5.41
294.58	5.18
294.793	5.48
295.006	5.47
295.219	5.42
295.432	5.77
295.645	5.86
295.858	5.65
296.071	5.51
296.284	5.79
296.497	6
296.71	5.96
296.923	6.17
297.136	6.26
297.349	6.31
297.562	6.4
297.775	6.23
297.988	6.3
298.201	6.59
298.414	6.78
298.626	6.63
298.839	6.57
299.052	6.55
299.265	6.25
299.478	6.22
299.691	6.17
299.903	6.3
300.116	6.18
300.329	6.27
300.542	5.82
300.755	5.89
300.967	6.2
301.18	6.41
301.393	6.41
301.605	6.83
301.818	6.35
302.031	6.52
302.243	6.12
302.456	6.1
302.669	6.13
302.881	6.49
303.094	6.49
303.307	6.46
303.519	6.58
303.732	6.86
303.944	6.67
304.157	7.49
304.37	7.3
304.582	7.85
304.795	7.71
305.007	7.95
305.22	7.95
305.432	8.14
305.645	8.13
305.857	8.06
306.069	8.12
306.282	8.34
306.494	7.82
306.707	7.97
306.919	7.98
307.132	8.26
307.344	7.91
307.556	8.04
307.769	7.67
307.981	7.36
308.193	7.36
308.406	7.57
308.618	7.46
308.83	7.76
309.043	7.52
309.255	7.32
309.467	7.29
309.679	7.36
309.892	7.12
310.104	7.44
310.316	7.6
310.528	7.46
310.74	7.04
310.953	7.37
311.165	7.3
311.377	7.64
311.589	7.82
311.801	7.67
312.013	7.86
312.225	8.04
312.437	7.92
312.649	7.87
312.862	8.05
313.074	8.41
313.286	8.32
313.498	8.09
313.71	7.88
313.922	7.86
314.134	8.29
314.346	8.21
314.558	8.25
314.77	8.14
314.982	8.65
315.193	8.9
315.405	8.96
315.617	9.06
315.829	9.67
316.041	9.68
316.253	9.79
316.465	9.69
316.677	9.51
316.888	9.59
317.1	9.77
317.312	9.33
317.524	9.16
317.736	8.81
317.947	8.45
318.159	8.02
318.371	8.35
318.583	8.32
318.794	8.08
319.006	8.45
319.218	8.29
319.43	8.36
319.641	8.49
319.853	8.43
320.064	8.33
320.276	8.3
320.488	8.29
320.699	8.17
320.911	8.15
321.123	8.17
321.334	7.72
321.546	7.58
321.757	7.32
321.969	7.57
322.18	7.72
322.392	8.34
322.603	8.88
322.815	8.83
323.026	8.61
323.238	8.32
323.449	8.52
323.661	8.3
323.872	8.6
324.083	8.59
324.295	8
324.506	7.94
324.718	8.24
324.929	7.81
325.14	7.69
325.352	7.59
325.563	7.75
325.774	7.68
325.986	7.92
326.197	7.83
326.408	7.57
326.62	7.82
326.831	7.86
327.042	7.21
327.253	7.11
327.464	7.22
327.676	7.19
327.887	6.9
328.098	7.25
328.309	7.04
328.52	7.05
328.732	7.43
328.943	7.95
329.154	7.71
329.365	7.93
329.576	8.21
329.787	8.46
329.998	8.64
330.209	9.03
330.42	8.78
330.631	9.33
330.842	9.34
331.053	9.14
331.264	8.76
331.475	9.18
331.686	9.35
331.897	9.31
332.108	9.27
332.319	9.75
332.53	9.79
332.741	9.59
332.952	9.49
333.163	9.59
333.374	9.61
333.585	9.44
333.795	9.56
334.006	9.4
334.217	9.5
334.428	9.49
334.639	8.95
334.849	9.03
335.06	9.15
335.271	8.84
335.482	9.05
335.692	8.88
335.903	8.93
336.114	8.39
336.325	8.57
336.535	8.23
336.746	8.38
336.957	8.54
337.167	8.14
337.378	7.74
337.589	7.84
337.799	7.42
338.01	7.57
338.22	7.65
338.431	7.82
338.642	7.7
338.852	7.73
339.063	7.51
339.273	7.42
339.484	7.66
339.694	8.02
339.905	8.19
340.115	8.34
340.326	8.36
340.536	8.18
340.746	8.27
340.957	8.12
341.167	8.36
341.378	8.74
341.588	8.79
341.799	9.04
342.009	8.98
342.219	8.89
342.43	9.05
342.64	9.37
342.85	9.52
343.061	9.71
343.271	9.71
343.481	9.63
343.691	9.41
343.902	9.53
344.112	9.38
344.322	9.29
344.532	9.05
344.743	8.5
344.953	8.36
345.163	8.22
345.373	7.96
345.583	7.85
345.793	7.43
346.004	7.22
346.214	7.09
346.424	7.1
346.634	7
346.844	6.93
347.054	7.31
347.264	6.94
347.474	6.96
347.684	7.08
347.894	7.24
348.104	7.52
348.314	7.74
348.524	7.46
348.734	7.4
348.944	7.22
349.154	7.4
349.364	7.15
349.574	7.22
349.784	7.41
349.994	7.14
350.204	7.04
350.413	7.13
350.623	6.88
350.833	7.26
351.043	7.37
351.253	7.88
351.463	7.93
351.672	8.11
351.882	8.32
352.092	8.34
352.302	8.56
352.511	8.75
352.721	8.81
352.931	9.08
353.141	9.08
353.35	9.23
353.56	9.15
353.77	9.37
353.979	9.27
354.189	9.23
354.399	9.07
354.608	8.89
354.818	8.96
355.027	8.77
355.237	8.77
355.447	8.62
355.656	8.46
355.866	8.38
356.075	8.25
356.285	8.66
356.494	8.56
356.704	8.55
356.913	8.63
357.123	8.53
357.332	8.8
357.542	8.76
357.751	9
357.96	8.91
358.17	8.89
358.379	8.99
358.589	8.67
358.798	8.9
359.007	8.95
359.217	9.07
359.426	8.77
359.635	8.48
359.845	8.29
360.054	7.96
360.263	7.89
360.472	7.86
360.682	7.61
360.891	7.54
361.1	7.49
361.309	7.47
361.519	7.24
361.728	7.49
361.937	7.49
362.146	7.51
362.355	7.55
362.564	7.53
362.774	7.64
362.983	7.88
363.192	7.86
363.401	7.68
363.61	7.72
363.819	7.88
364.028	7.55
364.237	7.66
364.446	7.53
364.655	7.72
364.864	7.73
365.073	7.73
365.282	7.52
365.491	7.67
365.7	7.89
365.909	7.85
366.118	7.83
366.327	8
366.536	8.13
366.745	8.23
366.954	7.94
367.162	7.83
367.371	7.59
367.58	7.68
367.789	7.51
367.998	7.57
368.207	7.51
368.415	7.33
368.624	7.46
368.833	7.38
369.042	7.33
369.25	7.44
369.459	7.4
369.668	7.48
369.877	7.34
370.085	7.42
370.294	7.12
370.503	7.08
370.711	7.08
370.92	7.05
371.129	6.71
371.337	6.78
371.546	6.7
371.754	6.63
371.963	6.64
372.171	6.71
372.38	6.71
372.589	6.85
372.797	6.93
373.006	6.94
373.214	6.87
373.423	6.88
373.631	6.58
373.84	6.7
374.048	6.9
374.256	6.59
374.465	6.27
374.673	6.13
374.882	6.03
375.09	5.82
375.298	5.79
375.507	5.74
375.715	5.65
375.923	5.87
376.132	5.48
376.34	5.43
376.548	5.55
376.757	5.76
376.965	5.84
377.173	5.72
377.381	5.66
377.59	5.81
377.798	5.68
378.006	5.92
378.214	5.88
378.423	6.1
378.631	6.08
378.839	6.09
379.047	6.05
379.255	5.97
379.463	6.07
379.671	6
379.879	5.76
380.088	5.62
380.296	5.42
380.504	5.28
380.712	5.3
380.92	5.16
381.128	4.97
381.336	4.99
381.544	4.91
381.752	4.86
381.96	5.19
382.168	5.2
382.376	5.16
382.584	5.2
382.791	5.16
382.999	5.13
383.207	5.13
383.415	5.29
383.623	5.07
383.831	4.98
384.039	4.85
384.247	4.77
384.454	4.86
384.662	5.03
384.87	5.11
385.078	5.26
385.285	5.17
385.493	5.19
385.701	5.15
385.909	5.1
386.116	5.23
386.324	5.47
386.532	5.32
386.739	5.11
386.947	5.03
387.155	4.96
387.362	4.78
387.57	4.88
387.778	4.87
387.985	4.8
388.193	4.9
388.4	4.8
388.608	4.67
388.816	4.7
389.023	4.79
389.231	5.01
389.438	5.06
389.646	5.16
389.853	5.05
390.061	5.02
390.268	4.93
390.475	5.08
390.683	5.08
390.89	4.96
391.098	4.94
391.305	4.89
391.512	4.75
391.72	4.69
391.927	4.66
392.135	4.74
392.342	4.71
392.549	5
392.756	4.78
392.964	4.83
393.171	4.8
393.378	4.78
393.586	4.91
393.793	4.69
394	4.7
394.207	4.71
394.414	4.61
394.622	4.51
394.829	4.33
395.036	4.37
395.243	4.15
395.45	4.16
395.657	4.2
395.864	4.08
396.072	4.34
396.279	4.5
396.486	4.46
396.693	4.55
396.9	4.5
397.107	4.38
397.314	4.43
397.521	4.46
397.728	4.38
397.935	4.27
398.142	4.12
398.349	3.92
398.556	3.76
398.763	3.77
398.97	3.67
399.177	3.83
399.383	3.75
399.59	3.78
399.797	3.98
400.004	4.01
400.211	4.13
400.418	4.29
400.625	4.27
400.831	3.99
401.038	3.74
401.245	3.74
401.452	3.71
401.658	3.85
401.865	3.69
402.072	3.33
402.279	3.16
402.485	3.09
402.692	2.91
402.899	2.96
403.105	3.14
403.312	3.36
403.519	3.24
403.725	3.29
403.932	3.38
404.138	3.34
404.345	3.46
404.552	3.55
404.758	3.5
404.965	3.64
405.171	3.61
405.378	3.6
405.584	3.48
405.791	3.71
405.997	3.78
406.204	3.72
406.41	3.8
406.617	3.79
406.823	3.77
407.029	3.84
407.236	3.76
407.442	3.87
407.649	3.87
407.855	4
408.061	3.81
408.268	3.73
408.474	3.83
408.68	3.71
408.887	3.79
409.093	3.97
409.299	4.09
409.505	4.17
409.712	4.05
409.918	4.04
410.124	3.98
410.33	3.89
410.537	3.88
410.743	3.72
410.949	3.69
411.155	3.69
411.361	3.49
411.567	3.31
411.773	3.11
411.98	3.27
412.186	3.05
412.392	3.13
412.598	3.28
412.804	3.11
413.01	3.03
413.216	3.4
413.422	3.31
413.628	3.49
413.834	3.56
414.04	3.82
414.246	3.79
414.452	3.95
414.658	3.86
414.864	3.77
415.07	3.9
415.275	4.12
415.481	3.81
415.687	3.96
415.893	3.84
416.099	3.67
416.305	3.4
416.511	3.43
416.716	3.49
416.922	3.45
417.128	3.56
417.334	3.46
417.539	3.46
417.745	3.51
417.951	3.43
418.157	3.38
418.362	3.4
418.568	3.49
418.774	3.45
418.979	3.29
419.185	3.27
419.391	3.21
419.596	3.29
419.802	3.21
420.008	3.29
420.213	3.3
420.419	3.32
420.624	3.28
420.83	3.27
421.035	3.23
421.241	3.31
421.446	3.3
421.652	3.19
421.857	3.21
422.063	3.17
422.268	3.08
422.474	3.04
422.679	3.1
422.885	3.13
423.09	3.08
423.295	3.12
423.501	3.13
423.706	3.15
423.911	3.24
424.117	3.12
424.322	3.13
424.527	3.18
424.733	3.14
424.938	3.08
425.143	3.07
425.349	3.16
425.554	3.15
425.759	3.22
425.964	3.23
426.169	3.26
426.375	3.4
426.58	3.47
426.785	3.38
426.99	3.47
427.195	3.51
427.4	3.53
427.605	3.44
427.811	3.34
428.016	3.23
428.221	3.25
428.426	3.22
428.631	2.98
428.836	2.91
429.041	3
429.246	2.97
429.451	2.89
429.656	2.89
429.861	2.85
430.066	2.91
430.271	2.95
430.476	2.96
430.681	2.88
430.886	3.05
431.09	3.12
431.295	3.19
431.5	3.19
431.705	3.29
431.91	3.38
432.115	3.51
432.32	3.48
432.524	3.38
432.729	3.39
432.934	3.35
433.139	3.3
433.343	3.26
433.548	3.13
433.753	3.08
433.958	2.99
434.162	3
434.367	2.91
434.572	3
434.776	3.04
434.981	2.96
435.186	3.05
435.39	3.14
435.595	3.18
435.799	3.27
436.004	3.39
436.209	3.42
436.413	3.28
436.618	3.33
436.822	3.25
437.027	3.31
437.231	3.33
437.436	3.41
437.64	3.29
437.845	3.2
438.049	3.08
438.253	3.02
438.458	3.06
438.662	3.15
438.867	3.12
439.071	3.14
439.275	3.13
439.48	3.07
439.684	3.04
439.888	3.07
440.093	3.1
440.297	3.14
440.501	3.11
440.706	2.99
440.91	2.96
441.114	2.96
441.318	2.99
441.523	2.96
441.727	3.08
441.931	3.04
442.135	3.08
442.339	3.04
442.543	3.01
442.748	3.13
442.952	3.21
443.156	3.15
443.36	3.06
443.564	3.06
443.768	3.05
443.972	2.93
444.176	2.99
444.38	3.02
444.584	3.04
444.788	3.08
444.992	3.05
445.196	3.1
445.4	3.11
445.604	3.14
445.808	3.15
446.012	3.13
446.216	3.16
446.42	3.13
446.624	3.08
446.828	3.11
447.032	3.16
447.235	3.04
447.439	3.04
447.643	3.09
447.847	3.11
448.051	3.07
448.254	3.06
448.458	3.07
448.662	2.98
448.866	3.02
449.069	2.98
449.273	2.9
449.477	2.96
449.681	2.98
449.884	3.01
450.088	3.1
450.292	3.13
450.495	3.17
450.699	3.17
450.902	3.15
451.106	3.09
451.31	3.18
451.513	3.21
451.717	3.28
451.92	3.13
452.124	3.12
452.327	3.01
452.531	2.86
452.734	2.81
452.938	2.64
453.141	2.68
453.345	2.63
453.548	2.5
453.752	2.53
453.955	2.51
454.158	2.61
454.362	2.63
454.565	2.55
454.769	2.65
454.972	2.66
455.175	2.84
455.379	2.84
455.582	2.92
455.785	2.95
455.988	2.89
456.192	2.89
456.395	2.88
456.598	2.91
456.801	2.88
457.005	2.88
457.208	2.93
457.411	2.88
457.614	2.95
457.817	2.88
458.021	2.89
458.224	2.89
458.427	2.83
458.63	2.79
458.833	2.68
459.036	2.75
459.239	2.69
459.442	2.66
459.645	2.66
459.848	2.59
460.051	2.55
460.254	2.54
460.457	2.56
460.66	2.57
460.863	2.55
461.066	2.6
461.269	2.66
461.472	2.7
461.675	2.67
461.878	2.64
462.081	2.67
462.284	2.74
462.486	2.68
462.689	2.71
462.892	2.58
463.095	2.66
463.298	2.66
463.5	2.66
463.703	2.72
463.906	2.77
464.109	2.9
464.311	2.96
464.514	2.95
464.717	2.93
464.92	2.97
465.122	3.1
465.325	3.04
465.528	3.02
465.73	3.07
465.933	3.16
466.135	3.08
466.338	2.96
466.541	2.89
466.743	2.89
466.946	2.97
467.148	2.93
467.351	2.93
467.553	2.91
467.756	2.96
467.958	2.97
468.161	2.77
468.363	2.89
468.566	3.02
468.768	3.05
468.971	3.04
469.173	3.09
469.375	3.05
469.578	3.13
469.78	3.13
469.983	3.06
470.185	2.85
470.387	2.99
470.59	2.95
470.792	2.89
470.994	3.01
471.196	3.03
471.399	3.01
471.601	3.02
471.803	2.98
472.005	2.97
472.208	3.05
472.41	3.2
472.612	3.12
472.814	3.07
473.016	3.04
473.218	2.9
473.421	2.94
473.623	2.81
473.825	2.75
474.027	2.75
474.229	2.85
474.431	2.75
474.633	2.78
474.835	2.8
475.037	2.86
475.239	2.88
475.441	2.99
475.643	2.89
475.845	2.95
476.047	2.96
476.249	3.05
476.451	2.96
476.653	3.02
476.855	2.9
477.057	2.84
477.258	2.76
477.46	2.63
477.662	2.53
477.864	2.65
478.066	2.71
478.268	2.72
478.469	2.68
478.671	2.67
478.873	2.61
479.075	2.64
479.276	2.64
479.478	2.7
479.68	2.82
479.882	2.87
480.083	2.77
480.285	2.71
480.487	2.69
480.688	2.63
480.89	2.73
481.091	2.77
481.293	2.77
481.495	2.76
481.696	2.66
481.898	2.65
482.099	2.63
482.301	2.65
482.502	2.65
482.704	2.69
482.905	2.7
483.107	2.67
483.308	2.64
483.51	2.61
483.711	2.62
483.913	2.65
484.114	2.64
484.315	2.65
484.517	2.69
484.718	2.69
484.92	2.67
485.121	2.65
485.322	2.62
485.524	2.64
485.725	2.66
485.926	2.67
486.127	2.67
486.329	2.72
486.53	2.65
486.731	2.65
486.932	2.67
487.134	2.68
487.335	2.69
487.536	2.71
487.737	2.72
487.938	2.74
488.139	2.73
488.341	2.75
488.542	2.73
488.743	2.78
488.944	2.73
489.145	2.7
489.346	2.73
489.547	2.75
489.748	2.76
489.949	2.75
490.15	2.7
490.351	2.7
490.552	2.69
490.753	2.7
490.954	2.71
491.155	2.7
491.356	2.68
491.557	2.66
491.758	2.64
491.959	2.65
492.159	2.65
492.36	2.71
492.561	2.74
492.762	2.72
492.963	2.73
493.164	2.75
493.364	2.79
493.565	2.85
493.766	2.88
493.967	2.88
494.167	2.93
494.368	3
494.569	2.97
494.769	2.95
494.97	3.06
495.171	3.07
495.371	3.07
495.572	3.06
495.773	3.08
495.973	2.99
496.174	3.05
496.375	3
496.575	2.97
496.776	3.01
496.976	3.02
497.177	2.98
497.377	2.92
497.578	2.93
497.778	2.96
497.979	2.96
498.179	2.98
498.38	2.98
498.58	3.07
498.78	3.09
498.981	2.99
499.181	2.99
499.382	2.9
499.582	3.01
499.782	2.97
499.983	3.02
500.183	3.06
500.383	3.03
500.584	3.06
500.784	2.92
500.984	2.93
501.184	3.08
501.385	3.14
501.585	3.24
501.785	3.18
501.985	3.29
502.185	3.25
502.386	3.23
502.586	3.3
502.786	3.22
502.986	3.3
503.186	3.25
503.386	3.29
503.586	3.34
503.786	3.31
503.987	3.36
504.187	3.45
504.387	3.44
504.587	3.45
504.787	3.46
504.987	3.58
505.187	3.57
505.387	3.57
505.587	3.57
505.786	3.64
505.986	3.73
506.186	3.75
506.386	3.62
506.586	3.64
506.786	3.67
506.986	3.68
507.186	3.69
507.386	3.78
507.585	3.88
507.785	3.9
507.985	3.86
508.185	3.86
508.384	3.88
508.584	3.92
508.784	4.04
508.984	4.1
509.183	4.21
509.383	4.25
509.583	4.26
509.782	4.29
509.982	4.34
510.182	4.42
510.381	4.44
510.581	4.54
510.781	4.58
510.98	4.57
511.18	4.67
511.379	4.75
511.579	4.77
511.778	4.82
511.978	4.8
512.177	4.81
512.377	4.83
512.576	4.9
512.776	4.96
512.975	5.03
513.175	5.08
513.374	5.07
513.573	5.11
513.773	5.18
513.972	5.25
514.172	5.35
514.371	5.42
514.57	5.45
514.77	5.53
514.969	5.56
515.168	5.69
515.367	5.85
515.567	5.96
515.766	5.94
515.965	5.99
516.164	6.08
516.364	6.2
516.563	6.26
516.762	6.33
516.961	6.39
517.16	6.43
517.359	6.48
517.559	6.44
517.758	6.48
517.957	6.62
518.156	6.63
518.355	6.66
518.554	6.7
518.753	6.74
518.952	6.81
519.151	6.86
519.35	6.96
519.549	6.97
519.748	7.02
519.947	7.05
520.146	7.04
520.345	7.17
520.544	7.24
520.743	7.31
520.942	7.45
521.141	7.56
521.339	7.63
521.538	7.66
521.737	7.74
521.936	7.85
522.135	7.92
522.333	7.98
522.532	8.05
522.731	8.12
522.93	8.26
523.129	8.27
523.327	8.32
523.526	8.33
523.725	8.4
523.923	8.53
524.122	8.63
524.321	8.78
524.519	8.82
524.718	8.9
524.917	9
525.115	9
525.314	9.06
525.512	9.1
525.711	9.2
525.909	9.29
526.108	9.34
526.306	9.37
526.505	9.4
526.703	9.52
526.902	9.6
527.1	9.65
527.299	9.74
527.497	9.8
527.696	9.83
527.894	9.88
528.092	9.88
528.291	9.87
528.489	9.9
528.688	9.93
528.886	9.93
529.084	9.95
529.283	9.95
529.481	9.92
529.679	9.94
529.877	9.98
530.076	10
530.274	10.08
530.472	10.16
530.67	10.25
530.869	10.33
531.067	10.43
531.265	10.47
531.463	10.58
531.661	10.71
531.859	10.76
532.057	10.8
532.255	10.91
532.454	10.97
532.652	11.08
532.85	11.12
533.048	11.17
533.246	11.2
533.444	11.26
533.642	11.27
533.84	11.29
534.038	11.35
534.236	11.39
534.434	11.39
534.632	11.43
534.83	11.44
535.027	11.46
535.225	11.47
535.423	11.53
535.621	11.61
535.819	11.66
536.017	11.7
536.215	11.79
536.412	11.89
536.61	11.88
536.808	11.94
537.006	11.93
537.203	11.96
537.401	11.99
537.599	12
537.797	11.98
537.994	12.04
538.192	12.16
538.39	12.16
538.587	12.2
538.785	12.37
538.983	12.43
539.18	12.58
539.378	12.69
539.575	12.81
539.773	12.9
539.97	13
540.168	13.04
540.366	13.04
540.563	13.12
540.761	13.14
540.958	13.15
541.155	13.14
541.353	13.13
541.55	13.15
541.748	13.15
541.945	13.18
542.143	13.17
542.34	13.19
542.537	13.23
542.735	13.23
542.932	13.32
543.129	13.36
543.327	13.48
543.524	13.56
543.721	13.63
543.919	13.74
544.116	13.92
544.313	14.05
544.51	14.23
544.708	14.34
544.905	14.49
545.102	14.54
545.299	14.66
545.496	14.69
545.693	14.76
545.891	14.83
546.088	14.82
546.285	14.74
546.482	14.67
546.679	14.64
546.876	14.59
547.073	14.5
547.27	14.42
547.467	14.35
547.664	14.3
547.861	14.23
548.058	14.21
548.255	14.26
548.452	14.34
548.649	14.36
548.846	14.27
549.043	14.35
549.24	14.4
549.437	14.47
549.633	14.55
549.83	14.51
550.027	14.57
550.224	14.57
550.421	14.49
550.618	14.33
550.814	14.34
551.011	14.42
551.208	14.27
551.405	14.34
551.601	14.4
551.798	14.38
551.995	14.41
552.191	14.41
552.388	14.34
552.585	14.3
552.781	14.33
552.978	14.35
553.175	14.49
553.371	14.61
553.568	14.52
553.764	14.41
553.961	14.47
554.157	14.46
554.354	14.46
554.55	14.49
554.747	14.49
554.943	14.47
555.14	14.45
555.336	14.33
555.533	14.34
555.729	14.42
555.926	14.49
556.122	14.5
556.318	14.56
556.515	14.61
556.711	14.6
556.907	14.72
557.104	14.83
557.3	14.82
557.496	14.82
557.693	14.81
557.889	14.8
558.085	14.72
558.281	14.61
558.478	14.64
558.674	14.61
558.87	14.75
559.066	14.78
559.262	14.77
559.459	14.84
559.655	14.77
559.851	14.91
560.047	14.94
560.243	15.14
560.439	15.19
560.635	15.22
560.831	15.15
561.027	15.12
561.223	15.09
561.419	15.12
561.615	15.24
561.811	15.34
562.007	15.29
562.203	15.25
562.399	15.16
562.595	15.25
562.791	15.08
562.987	15.07
563.183	14.96
563.379	14.91
563.575	14.81
563.771	14.75
563.966	14.78
564.162	14.81
564.358	14.82
564.554	14.73
564.75	14.73
564.945	14.92
565.141	15.07
565.337	15.25
565.533	15.23
565.728	15.28
565.924	15.21
566.12	15.25
566.315	15.29
566.511	15.34
566.707	15.41
566.902	15.37
567.098	15.26
567.293	15.17
567.489	15.07
567.684	15.02
567.88	15.08
568.076	15.23
568.271	15.11
568.467	15.08
568.662	15.07
568.858	14.98
569.053	14.93
569.248	14.94
569.444	15.08
569.639	15.08
569.835	15.24
570.03	15.23
570.225	15.17
570.421	15.21
570.616	15.19
570.812	15.21
571.007	15.31
571.202	15.39
571.397	15.46
571.593	15.41
571.788	15.42
571.983	15.35
572.178	15.4
572.374	15.36
572.569	15.42
572.764	15.38
572.959	15.38
573.154	15.4
573.35	15.43
573.545	15.41
573.74	15.37
573.935	15.47
574.13	15.49
574.325	15.45
574.52	15.58
574.715	15.52
574.91	15.48
575.105	15.54
575.3	15.54
575.495	15.51
575.69	15.48
575.885	15.58
576.08	15.51
576.275	15.59
576.47	15.6
576.665	15.5
576.86	15.63
577.055	15.76
577.25	15.77
577.444	15.78
577.639	15.93
577.834	15.99
578.029	15.98
578.224	16.04
578.418	16.11
578.613	16.1
578.808	16.08
579.003	16.15
579.197	16.22
579.392	16.16
579.587	16.23
579.781	16.25
579.976	16.32
580.171	16.47
580.365	16.49
580.56	16.41
580.755	16.38
580.949	16.48
581.144	16.56
581.338	16.54
581.533	16.62
581.727	16.55
581.922	16.47
582.116	16.52
582.311	16.33
582.505	16.44
582.7	16.42
582.894	16.58
583.089	16.69
583.283	16.53
583.478	16.5
583.672	16.49
583.866	16.7
584.061	16.74
584.255	16.72
584.449	16.92
584.644	16.85
584.838	16.8
585.032	16.81
585.226	16.81
585.421	16.88
585.615	16.92
585.809	17.04
586.003	17
586.198	17.14
586.392	17.2
586.586	17.13
586.78	17.17
586.974	17.43
587.168	17.42
587.363	17.41
587.557	17.36
587.751	17.42
587.945	17.23
588.139	17.25
588.333	17.09
588.527	17.03
588.721	16.96
588.915	16.94
589.109	16.7
589.303	16.71
589.497	16.61
589.691	16.53
589.885	16.41
590.079	16.58
590.273	16.47
590.466	16.61
590.66	16.73
590.854	16.93
591.048	16.88
591.242	17.04
591.436	17.02
591.629	17.1
591.823	17.28
592.017	17.41
592.211	17.44
592.404	17.5
592.598	17.46
592.792	17.44
592.986	17.5
593.179	17.55
593.373	17.59
593.567	17.58
593.76	17.6
593.954	17.55
594.147	17.58
594.341	17.44
594.535	17.47
594.728	17.45
594.922	17.42
595.115	17.28
595.309	17.31
595.502	17.25
595.696	17.18
595.889	17.21
596.083	17.11
596.276	17.13
596.47	17.15
596.663	17.11
596.856	17.2
597.05	17.17
597.243	17.18
597.437	17.19
597.63	17.2
597.823	17.28
598.017	17.26
598.21	17.32
598.403	17.19
598.596	17.21
598.79	17.18
598.983	17.01
599.176	17.03
599.369	16.99
599.563	17.03
599.756	17.19
599.949	17.31
600.142	17.44
600.335	17.5
600.528	17.61
600.722	17.85
600.915	17.96
601.108	18.13
601.301	18.24
601.494	18.3
601.687	18.23
601.88	18.07
602.073	18.01
602.266	17.74
602.459	17.68
602.652	17.66
602.845	17.56
603.038	17.5
603.231	17.37
603.424	17.19
603.617	17.21
603.809	17.17
604.002	17.24
604.195	17.19
604.388	17.27
604.581	17.31
604.774	17.37
604.966	17.29
605.159	17.36
605.352	17.32
605.545	17.44
605.737	17.39
605.93	17.44
606.123	17.39
606.316	17.35
606.508	17.45
606.701	17.4
606.894	17.47
607.086	17.56
607.279	17.46
607.471	17.6
607.664	17.77
607.857	17.93
608.049	18.18
608.242	18.41
608.434	18.83
608.627	19.25
608.819	19.92
609.012	20.29
609.204	20.8
609.397	21.65
609.589	22.33
609.782	22.98
609.974	23.85
610.166	24.55
610.359	25.24
610.551	25.88
610.743	26.39
610.936	26.75
611.128	27.14
611.32	27.36
611.513	27.46
611.705	27.41
611.897	27.23
612.09	26.92
612.282	26.6
612.474	26.51
612.666	26.28
612.858	25.89
613.051	25.55
613.243	25.31
613.435	24.96
613.627	24.52
613.819	24.35
614.011	24.22
614.203	23.96
614.395	23.69
614.588	23.33
614.78	22.95
614.972	22.74
615.164	22.26
615.356	21.86
615.548	21.56
615.74	21.27
615.932	20.98
616.124	20.77
616.315	20.45
616.507	20.26
616.699	20.1
616.891	19.96
617.083	19.77
617.275	19.63
617.467	19.53
617.659	19.69
617.85	19.52
618.042	19.4
618.234	19.29
618.426	19.09
618.618	19.03
618.809	18.88
619.001	18.88
619.193	18.84
619.384	18.83
619.576	18.97
619.768	18.82
619.959	18.99
620.151	19.02
620.343	18.82
620.534	18.95
620.726	18.92
620.917	18.73
621.109	18.61
621.301	18.77
621.492	18.84
621.684	18.66
621.875	18.71
622.067	18.6
622.258	18.72
622.45	18.91
622.641	19.02
622.832	19.2
623.024	19.39
623.215	19.4
623.407	19.34
623.598	19.32
623.789	19.33
623.981	19.26
624.172	19.39
624.363	19.37
624.555	19.38
624.746	19.31
624.937	19.09
625.129	19.06
625.32	19.04
625.511	18.95
625.702	19.09
625.893	19.22
626.085	19.19
626.276	18.97
626.467	18.81
626.658	18.79
626.849	18.82
627.04	18.96
627.231	18.96
627.422	18.93
627.614	18.88
627.805	18.84
627.996	18.65
628.187	18.84
628.378	18.91
628.569	19.08
628.76	19.19
628.951	19.18
629.142	19.15
629.332	19.39
629.523	19.58
629.714	19.73
629.905	19.87
630.096	20.1
630.287	20.04
630.478	20.33
630.669	20.18
630.859	20.24
631.05	20.3
631.241	20.16
631.432	19.95
631.623	19.78
631.813	19.59
632.004	19.45
632.195	19.43
632.385	19.21
632.576	18.95
632.767	19.18
632.957	19.07
633.148	18.9
633.339	18.83
633.529	18.88
633.72	18.84
633.91	18.82
634.101	18.6
634.292	18.53
634.482	18.74
634.673	18.68
634.863	18.58
635.054	18.44
635.244	18.34
635.435	18.45
635.625	18.43
635.815	18.38
636.006	18.43
636.196	18.62
636.387	18.54
636.577	18.57
636.767	18.57
636.958	18.26
637.148	18.31
637.338	18.48
637.529	18.55
637.719	18.31
637.909	18.3
638.099	18.24
638.29	18.04
638.48	18.19
638.67	18.02
638.86	18.06
639.05	18.33
639.241	18.25
639.431	18.27
639.621	18.12
639.811	18.27
640.001	18.3
640.191	18.42
640.381	18.65
640.571	18.46
640.761	18.35
640.951	18.44
641.141	18.38
641.331	18.72
641.521	18.65
641.711	18.74
641.901	18.65
642.091	18.64
642.281	18.83
642.471	18.76
642.661	18.68
642.851	18.92
643.041	18.89
643.231	18.81
643.42	18.64
643.61	18.45
643.8	18.55
643.99	18.64
644.18	18.79
644.369	18.61
644.559	18.69
644.749	18.71
644.939	18.54
645.128	18.36
645.318	18.22
645.508	18.23
645.697	18.41
645.887	18.4
646.076	18.45
646.266	18.28
646.456	18.29
646.645	18.14
646.835	18.23
647.024	18.36
647.214	18.41
647.403	18.59
647.593	18.64
647.782	18.56
647.972	18.38
648.161	18.44
648.351	18.49
648.54	18.59
648.73	18.71
648.919	18.82
649.108	18.96
649.298	19.17
649.487	19.29
649.677	19.21
649.866	19.42
650.055	19.62
650.244	19.63
650.434	19.85
650.623	19.82
650.812	19.84
651.002	19.92
651.191	19.72
651.38	19.44
651.569	19.54
651.758	19.44
651.947	19.4
652.137	19.41
652.326	19.25
652.515	18.99
652.704	18.74
652.893	18.62
653.082	18.54
653.271	18.66
653.46	18.78
653.649	18.82
653.838	18.96
654.027	18.71
654.216	18.56
654.405	18.7
654.594	18.6
654.783	18.64
654.972	18.8
655.161	18.82
655.35	18.75
655.539	19.04
655.728	18.77
655.916	18.86
656.105	19.08
656.294	19.14
656.483	19.15
656.672	19.35
656.86	19.44
657.049	19.51
657.238	19.58
657.427	19.5
657.615	19.32
657.804	19.16
657.993	19.18
658.181	19.19
658.37	19.26
658.559	19.14
658.747	19.05
658.936	19.01
659.125	18.83
659.313	18.58
659.502	18.45
659.69	18.32
659.879	18.58
660.067	18.42
660.256	18.43
660.444	18.23
660.633	18.36
660.821	18.64
661.01	18.82
661.198	18.73
661.387	18.96
661.575	19.08
661.763	19.3
661.952	18.92
662.14	19.19
662.328	19.07
662.517	19.26
662.705	19.23
662.893	19.2
663.082	19
663.27	19.13
663.458	18.93
663.646	19.05
663.834	19.15
664.023	19.48
664.211	18.91
664.399	18.96
664.587	18.93
664.775	19.11
664.963	18.75
665.152	19.11
665.34	19.21
665.528	19.73
665.716	19.62
665.904	19.56
666.092	19.49
666.28	19.79
666.468	19.74
666.656	19.66
666.844	19.45
667.032	19.63
667.22	19.63
667.408	19.78
667.596	19.32
667.784	19.55
667.971	19.61
668.159	19.97
668.347	20.26
668.535	20.31
668.723	20.52
668.911	20.39
669.098	20.39
669.286	20.05
669.474	19.79
669.662	19.93
669.849	19.88
670.037	19.69
670.225	19.34
670.413	18.93
670.6	18.85
670.788	18.84
670.976	18.82
671.163	18.79
671.351	19.06
671.538	19.12
671.726	18.98
671.913	18.98
672.101	19.01
672.289	19.36
672.476	19.37
672.664	19.48
672.851	19.58
673.039	19.65
673.226	19.65
673.413	19.26
673.601	19.46
673.788	19.59
673.976	19.46
674.163	19.33
674.35	19.46
674.538	19.78
674.725	19.71
674.912	19.4
675.1	19.46
675.287	19.46
675.474	19.59
675.662	19.44
675.849	19
676.036	19.12
676.223	19.45
676.411	19.09
676.598	18.82
676.785	19.18
676.972	19.21
677.159	19.12
677.346	19.05
677.533	19.04
677.721	18.88
677.908	19.15
678.095	19.15
678.282	19.2
678.469	19.07
678.656	19.19
678.843	18.95
679.03	19.26
679.217	19.29
679.404	19.43
679.591	19.7
679.778	19.9
679.964	20.1
680.151	20.01
680.338	19.77
680.525	19.77
680.712	19.55
680.899	19.45
681.086	19.4
681.272	19.42
681.459	19.47
681.646	19.35
681.833	19.4
682.02	19.28
682.206	19.29
682.393	19.53
682.58	20.06
682.766	20.42
682.953	20.61
683.14	20.67
683.326	20.57
683.513	20.43
683.7	20.32
683.886	20.09
684.073	19.91
684.259	19.94
684.446	19.65
684.632	19.12
684.819	18.74
685.005	18.77
685.192	18.71
685.378	18.81
685.565	18.94
685.751	18.8
685.938	19.11
686.124	19.41
686.31	19.33
686.497	19.46
686.683	19.43
686.87	19.68
687.056	19.81
687.242	19.75
687.429	19.89
687.615	19.8
687.801	20.04
687.987	19.81
688.174	19.89
688.36	19.98
688.546	20.24
688.732	20.8
688.918	20.77
689.105	20.56
689.291	20.38
689.477	20.48
689.663	20.75
689.849	20.78
690.035	20.87
690.221	21.27
690.407	21.16
690.593	21.06
690.779	20.83
690.965	20.99
691.151	21.1
691.337	21.43
691.523	21.44
691.709	20.9
691.895	20.59
692.081	20.88
692.267	20.3
692.453	20.59
692.639	20.63
692.825	20.13
693.011	20.38
693.196	20.35
693.382	19.89
693.568	19.86
693.754	20.26
693.94	20.83
694.125	20.55
694.311	20.73
694.497	20.38
694.682	20.12
694.868	20.18
695.054	19.49
695.239	19.52
695.425	19.8
695.611	19.5
695.796	19.35
695.982	19.03
696.168	19.24
696.353	19.19
696.539	19.29
696.724	19.32
696.91	19.51
697.095	19.7
697.281	19.73
697.466	19.7
697.652	19.87
697.837	19.89
698.023	19.77
698.208	19.83
698.393	19.69
698.579	19.74
698.764	19.67
698.949	19.57
699.135	19.7
699.32	19.63
699.505	19.48
699.691	19.37
699.876	19.26
700.061	19.53
700.246	19.23
700.432	19.45
700.617	19.47
700.802	19.4
700.987	19.44
701.172	19.46
701.358	19.47
701.543	19.55
701.728	19.93
701.913	20.25
702.098	20.23
702.283	20.29
702.468	20.05
702.653	20.02
702.838	20.73
703.023	20.71
703.208	20.56
703.393	20.62
703.578	20.84
703.763	20.5
703.948	20.58
704.133	20.88
704.318	21.21
704.503	21.56
704.688	22.02
704.873	21.87
705.057	22.48
705.242	22.62
705.427	22.91
705.612	22.71
705.797	23.07
705.981	23.12
706.166	22.82
706.351	22.82
706.536	22.9
706.72	22.73
706.905	22.97
707.09	22.9
707.274	23.3
707.459	23.08
707.644	23.36
707.828	23.47
708.013	23.47
708.197	23.74
708.382	23.75
708.567	23.8
708.751	24.02
708.936	23.76
709.12	24.16
709.305	24.03
709.489	24.26
709.673	24.25
709.858	24.09
710.042	24.1
710.227	23.73
710.411	23.66
710.596	23.29
710.78	23.24
710.964	23.45
711.149	22.86
711.333	22.92
711.517	23.04
711.702	23.16
711.886	22.57
712.07	22.64
712.254	22.73
712.438	22.57
712.623	22.75
712.807	22.43
712.991	22.12
713.175	22.11
713.359	21.82
713.544	21.17
713.728	21.07
713.912	21.55
714.096	21.1
714.28	21.07
714.464	21.14
714.648	20.99
714.832	21.11
715.016	20.95
715.2	20.86
715.384	20.75
715.568	21.03
715.752	20.94
715.936	21.01
716.12	21.16
716.304	21.18
716.488	21.02
716.671	21.09
716.855	20.98
717.039	20.79
717.223	21.01
717.407	21.2
717.59	21.31
717.774	21.36
717.958	21.32
718.142	21.16
718.325	20.83
718.509	21.01
718.693	21.01
718.877	21.02
719.06	21.33
719.244	20.91
719.428	20.65
719.611	20.65
719.795	20.72
719.978	20.51
720.162	20.81
720.345	21.1
720.529	21.06
720.713	20.98
720.896	20.62
721.08	20.93
721.263	21.19
721.446	21.59
721.63	21.5
721.813	21.04
721.997	20.65
722.18	20.19
722.364	19.86
722.547	19.8
722.73	19.75
722.914	19.56
723.097	18.86
723.28	18.99
723.464	19.02
723.647	19.31
723.83	19.72
724.013	20.83
724.197	20.71
724.38	20.75
724.563	20.43
724.746	21.02
724.929	21.56
725.112	21.84
725.296	21.27
725.479	21
725.662	20.96
725.845	20.5
726.028	20.05
726.211	20.28
726.394	20.55
726.577	20.81
726.76	20.63
726.943	20.56
727.126	20.39
727.309	21.22
727.492	21.42
727.675	21.27
727.858	21.8
728.041	21.58
728.224	21.84
728.407	21.45
728.589	21.58
728.772	21.16
728.955	21.07
729.138	21.21
729.321	20.54
729.503	20.42
729.686	20.53
729.869	20.45
730.052	20.37
730.234	20.66
730.417	21.11
730.6	20.92
730.782	21.15
730.965	20.88
731.148	20.74
731.33	21.04
731.513	21.35
731.695	20.93
731.878	20.93
732.061	21.19
732.243	20.96
732.426	21.12
732.608	21.04
732.791	20.58
732.973	21.04
733.156	21.48
733.338	21.3
733.52	20.98
733.703	20.9
733.885	20.73
734.068	20.71
734.25	20.57
734.432	20.62
734.615	20.75
734.797	21.36
734.979	21.32
735.162	20.86
735.344	21.15
735.526	21.14
735.708	21.22
735.891	21.23
736.073	21.4
736.255	21.82
736.437	21.74
736.619	21.97
736.802	21.88
736.984	21.57
737.166	21.79
737.348	21.38
737.53	21.73
737.712	21.68
737.894	21.5
738.076	21.37
738.258	20.96
738.44	20.72
738.622	20.68
738.804	20.57
738.986	21.36
739.168	21.61
739.35	22
739.532	21.19
739.714	21.62
739.896	21.58
740.078	21.1
740.259	21.54
740.441	21.24
740.623	21.49
740.805	21.24
740.987	20.54
741.168	20.43
741.35	20.26
741.532	20.8
741.714	21.07
741.895	21.77
742.077	22.79
742.259	22.77
742.44	23.23
742.622	22.74
742.804	23.21
742.985	23.44
743.167	23.19
743.348	23.04
743.53	23
743.711	22.65
743.893	22.31
744.075	21.69
744.256	21.28
744.438	21.17
744.619	21.47
744.8	21.83
744.982	21.77
745.163	22.41
745.345	22.39
745.526	22.67
745.707	22.42
745.889	22.73
746.07	22.74
746.252	23.21
746.433	23.21
746.614	23.14
746.795	22.1
746.977	22.42
747.158	21.97
747.339	22.49
747.52	22.02
747.702	22.32
747.883	22.26
748.064	22.46
748.245	21.51
748.426	22.29
748.607	22.67
748.788	23.02
748.97	22.49
749.151	23.02
749.332	22.61
749.513	22.57
749.694	22.21
749.875	22.09
750.056	22.44
750.237	23.24
750.418	22.93
750.599	22.07
750.78	22.11
750.96	22.56
751.141	22.05
751.322	22.16
751.503	22.78
751.684	22.79
751.865	23.2
752.046	22.57
752.226	22.31
752.407	21.32
752.588	22
752.769	22.19
752.949	22.07
753.13	22.3
753.311	22.16
753.492	21.84
753.672	22.09
753.853	21.07
754.034	21.08
754.214	21.21
754.395	21.77
754.575	21.82
754.756	21.63
754.937	21.48
755.117	20.77
755.298	21.47
755.478	20.72
755.659	20.76
755.839	21.59
756.02	21.68
756.2	22.42
756.381	22.77
756.561	22.18
756.741	22.46
756.922	22.16
757.102	22.68
757.283	22.51
757.463	22.65
757.643	22.4
757.823	21.97
758.004	22.13
758.184	21.61
758.364	21.07
758.545	21.54
758.725	21.31
758.905	21.79
759.085	21.9
759.265	21.38
759.446	21.77
759.626	21.35
759.806	21.17
759.986	20.94
760.166	20.66
760.346	20.99
760.526	20.81
760.706	20.07
760.886	19.75
761.066	19.08
761.246	18.95
761.426	18.82
761.606	19.54
761.786	19.63
761.966	18.98
762.146	19.21
762.326	19.26
762.506	18.9
762.686	19.58
762.866	19.58
763.046	20.1
763.225	20.32
763.405	20.53
763.585	20.67
763.765	20.54
763.945	20.81
764.124	20.66
764.304	20.71
764.484	20.95
764.664	20.57
764.843	20.28
765.023	20.37
765.203	20.33
765.382	20.04
765.562	20.06
765.741	20.27
765.921	20.67
766.101	20.65
766.28	20.42
766.46	20.57
766.639	21.08
766.819	22.28
766.998	22.03
767.178	22.22
767.357	22.71
767.537	22.16
767.716	22.22
767.896	22.04
768.075	22.34
768.254	22.56
768.434	22.57
768.613	21.88
768.792	21.56
768.972	21.73
769.151	21.84
769.33	22.16
769.51	21.74
769.689	22.2
769.868	22.22
770.047	22.44
770.226	22.72
770.406	22.35
770.585	23.39
770.764	23.55
770.943	23.9
771.122	23.74
771.301	23.35
771.48	23.5
771.66	23.3
771.839	23.68
772.018	23.39
772.197	22.56
772.376	23.64
772.555	23.33
772.734	23.45
772.913	22.66
773.092	23.23
773.271	22.54
773.449	24.08
773.628	24.06
773.807	23.92
773.986	23.97
774.165	24.47
774.344	23.98
774.523	24.16
774.701	23.79
774.88	23.38
775.059	23.71
775.238	24.25
775.417	23.3
775.595	23.73
775.774	23.1
775.953	22.45
776.131	21.67
776.31	21.34
776.489	20.77
776.667	20.45
776.846	20.91
777.025	20.61
777.203	20.58
777.382	20.6
777.56	20.32
777.739	21.22
777.917	21.75
778.096	21.99
778.274	22.25
778.453	22.85
778.631	22.88
778.81	22.56
778.988	22.7
779.166	22.76
779.345	22.8
779.523	22.77
779.702	22.75
779.88	22.9
780.058	22.95
780.237	22.88
780.415	22.28
780.593	22.46
780.771	23.06
780.95	21.81
781.128	22.39
781.306	22.26
781.484	22.24
781.662	21.86
781.841	22.01
782.019	22.61
782.197	23.09
782.375	23.87
782.553	24.12
782.731	25.15
782.909	26.05
783.087	25.68
783.265	25.92
783.443	25.42
783.621	25.65
783.799	25.18
783.977	24.17
784.155	23.95
784.333	24.49
784.511	24.19
784.689	23.39
784.867	22.95
785.045	23.64
785.223	22.79
785.4	23.43
785.578	23.64
785.756	24.04
785.934	25.05
786.112	24.39
786.289	23.19
786.467	23.54
786.645	23.54
786.823	23.56
787	22.21
787.178	23.69
787.356	23.79
787.533	23.21
787.711	22.99
787.889	22.73
788.066	22.69
788.244	23
788.421	22.21
788.599	22.03
788.776	21.94
788.954	22.09
789.131	20.97
789.309	20.46
789.486	20.73
789.664	20.5
789.841	20.84
790.019	21.08
790.196	21.49
790.373	22.81
790.551	23.32
790.728	23.8
790.906	24.06
791.083	24.26
791.26	24.81
791.437	24.78
791.615	25.29
791.792	24.8
791.969	25.84
792.146	25.95
792.324	25.42
792.501	25
792.678	25.26
792.855	25.5
793.032	25.75
793.209	25.69
793.387	25.65
793.564	25.48
793.741	26.27
793.918	24.7
794.095	24.84
794.272	24.86
794.449	24.46
794.626	24.32
794.803	24.88
794.98	25.29
795.157	25.63
795.334	25.75
795.511	26.25
795.688	26.47
795.864	27.08
796.041	25.99
796.218	25.56
796.395	26.61
796.572	26.44
796.749	25.53
796.925	25.14
797.102	25.24
797.279	25.42
797.456	24.3
797.632	22.6
797.809	22.18
797.986	22.08
798.162	22.63
798.339	22.48
798.516	22.81
798.692	23.14
798.869	23.25
799.046	22.82
799.222	22.94
799.399	23.61
799.575	25.03
799.752	25.58
799.928	25.79
800.105	25.39
800.281	24.63
800.458	24.91
800.634	24.76
800.811	25.57
800.987	25.67
801.163	25.28
801.34	25.49
801.516	25.82
801.692	26.15
801.869	26.47
802.045	26.59
802.221	26.35
802.398	25.55
802.574	24.92
802.75	23.53
802.926	23.16
803.103	22.99
803.279	22.86
803.455	22.09
803.631	21.85
803.807	20.89
803.983	20.94
804.16	21.05
804.336	21.3
804.512	22.03
804.688	21.94
804.864	20.93
805.04	21.46
805.216	21.19
805.392	20.4
805.568	20.7
805.744	21.06
805.92	20.95
806.096	21.9
806.272	23.5
806.448	24.27
806.623	24.41
806.799	25.82
806.975	25.06
807.151	25.17
807.327	26.41
807.503	26.13
807.678	27.25
807.854	27.28
808.03	26.4
808.206	24.86
808.381	25.09
808.557	25.53
808.733	25.21
808.908	26.29
809.084	26.5
809.26	25.72
809.435	25.76
809.611	25.64
809.787	24.7
809.962	26.8
810.138	27.99
810.313	28.91
810.489	28.99
810.664	28.67
810.84	29.14
811.015	29.64
811.191	29.29
811.366	29.53
811.542	28.38
811.717	28.78
811.892	27.04
812.068	25.69
812.243	23.75
812.419	25.51
812.594	24.93
812.769	23.56
812.944	22.38
813.12	21.12
813.295	20.76
813.47	22.84
813.645	22.55
813.821	22.88
813.996	22.83
814.171	23.04
814.346	20.1
814.521	21.3
814.697	21.51
814.872	20.14
815.047	21.78
815.222	21.13
815.397	19.55
815.572	19.25
815.747	18.84
815.922	18.68
816.097	19.12
816.272	21.34
816.447	20.93
816.622	20.8
816.797	22.9
816.972	22.44
817.147	21.89
817.322	24.36
817.496	24.66
817.671	25.11
817.846	25.46
818.021	24.57
818.196	24.31
818.371	23.91
818.545	24.18
818.72	24.42
818.895	24.97
819.069	24.69
819.244	22.4
819.419	23.15
819.594	22.47
819.768	21.68
819.943	22.36
820.117	21.9
820.292	22.64
820.467	21.91
820.641	21.37
820.816	21.19
820.99	21.27
821.165	20.65
821.339	20.01
821.514	20.04
821.688	20.14
821.863	19.7
822.037	19.37
822.212	18.99
822.386	19.04
822.56	18.58
822.735	18.47
822.909	18.41
823.084	18.8
823.258	18.79
823.432	18.61
823.606	18.61
823.781	18.5
823.955	18.8
824.129	18.67
824.303	18.54
824.478	18.59
824.652	18.48
824.826	18.52
825	18.4
825.174	18.39
825.348	18.52
825.523	18.31
825.697	19
825.871	18.9
826.045	19.22
826.219	19.48
826.393	19.59
826.567	19.57
826.741	19.03
826.915	19.57
827.089	19.74
827.263	20.16
827.437	19.9
827.611	19.09
827.784	18.85
827.958	18.99
828.132	19.1
828.306	19.31
828.48	19.51
828.654	20.07
828.827	19.43
829.001	19.78
829.175	19.56
829.349	20.22
829.522	20.76
829.696	20.15
829.87	20.12
830.044	19.86
830.217	20.65
830.391	20.98
830.565	21.44
830.738	20.65
830.912	20.12
831.085	19.89
831.259	19.2
831.432	19.32
831.606	20.82
831.779	21.35
831.953	21.54
832.126	21.62
832.3	21.75
832.473	20.94
832.647	20.69
832.82	20.72
832.994	20.36
833.167	20.02
833.34	19.93
833.514	20.12
833.687	20.45
833.86	20.36
834.034	20.19
834.207	20.6
834.38	21.02
834.553	22.22
834.727	21.81
834.9	22.6
835.073	23.3
835.246	23.9
835.419	23.7
835.593	22.89
835.766	23.39
835.939	23.46
836.112	21.84
836.285	21.65
836.458	19.09
836.631	19.38
836.804	19.76
836.977	18.35
837.15	17.51
837.323	16.57
837.496	16.67
837.669	14.6
837.842	15.28
838.015	17.5
838.188	18.63
838.361	20.48
838.533	20.93
838.706	19.5
838.879	21.34
839.052	20.09
839.225	20.45
839.398	20.49
839.57	21.62
839.743	20.89
839.916	19.56
840.088	20.07
840.261	20.71
840.434	21.63
840.607	20.88
840.779	21.3
840.952	22.23
841.124	23.14
841.297	23.54
841.47	23.6
841.642	24.14
841.815	24.62
841.987	25.53
842.16	27.27
842.332	26.52
842.505	27.86
842.677	28.5
842.85	29.1
843.022	28.26
843.194	29.26
843.367	28.38
843.539	29.81
843.712	31.42
843.884	29.38
844.056	28.94
844.229	30.11
844.401	29.3
844.573	27.67
844.745	27.28
844.918	29.48
845.09	29.45
845.262	29.16
845.434	26.86
845.606	25.14
845.779	24.41
845.951	20.75
846.123	18.83
846.295	17.79
846.467	19.48
846.639	21.77
846.811	22.38
846.983	22.04
847.155	23.14
847.327	25.08
847.499	26.15
847.671	27.79
847.843	30.55
848.015	31.66
848.187	31.15
848.359	30.16
848.531	30.4
848.703	33.59
848.875	32.24
849.047	31.47
849.218	28.27
849.39	29.37
849.562	28.61
849.734	28.47
849.905	27.06
850.077	29.41
850.249	28.21
850.421	26.88
850.592	21.6
850.764	22.38
850.936	25.5
851.107	23.77
851.279	24.99
851.451	21.94
851.622	21.09
851.794	19.92
851.965	16.14
852.137	19.25
852.308	20.62
852.48	20.92
852.651	21.56
852.823	19.41
852.994	21.4
853.166	15.1
853.337	16.97
853.509	15.16
853.68	17.64
853.851	18.93
854.023	16.08
854.194	12.47
854.365	15.89
854.537	10.89
854.708	15.03
854.879	17.35
855.05	18.87
855.222	18.97
855.393	24.9
855.564	25.08
855.735	26.92
855.906	29.1
856.078	30.83
856.249	27.12
856.42	30.48
856.591	25.95
856.762	29.91
856.933	32.14
857.104	31.61
857.275	28.98
857.446	31.29
857.617	32.54
857.788	31.49
857.959	29.64
858.13	30.23
858.301	27.98
858.472	28.1
858.643	26.33
858.814	27.81
858.985	27.99
859.155	27.54
859.326	25.9
859.497	24.38
859.668	22.25
859.839	21.05
860.009	16.49
860.18	20.36
860.351	22.2
860.522	17.76
860.692	12.72
860.863	13.65
861.034	11.74
861.204	11.55
861.375	15.17
861.546	17.49
861.716	17.04
861.887	23.28
862.057	20.33
862.228	20.51
862.398	21.49
862.569	28.23
862.739	28.12
862.91	27.58
863.08	24.9
863.251	21.47
863.421	19.88
863.592	26.67
863.762	20.5
863.932	20.8
864.103	19.53
864.273	19.88
864.443	17.65
864.614	18.32
864.784	24.92
864.954	24.23
865.125	26.16
865.295	31.19
865.465	24.92
865.635	28.44
865.805	30.26
865.976	29.02
866.146	29.36
866.316	29.05
866.486	27.09
866.656	22.89
866.826	28.03
866.996	28.7
867.166	26
867.336	30.18
867.506	30.63
867.676	30.93
867.846	32.15
868.016	32.22
868.186	32.5
868.356	37.14
868.526	39.11
868.696	34.22
868.866	30.45
869.036	25.16
869.206	19.93
869.376	19.29
869.545	16.4
869.715	19.2
869.885	21.43
870.055	18.54
870.224	17.19
870.394	17.35
870.564	20.08
870.734	22.34
870.903	28.24
871.073	31.21
871.243	32.99
871.412	37.08
871.582	35.87
871.751	32
871.921	32.92
872.091	32.93
872.26	28.82
872.43	26.14
872.599	24.22
872.769	20.61
872.938	22.12
873.108	19.38
873.277	17
873.446	18.34
873.616	20.15
873.785	20.08
873.955	18.03
874.124	23.48
874.293	26.45
874.463	27.23
874.632	28.3
874.801	23.81
874.971	23.66
875.14	23.77
875.309	24.13
875.478	24.25
875.647	22.61
875.817	25.05
875.986	24.58
876.155	23.71
876.324	24.93
876.493	26.92
876.662	28.45
876.831	27
877	27.35
877.17	24.53
877.339	24.93
877.508	23.9
877.677	22.88
877.846	20.64
878.015	18.35
878.184	21.02
878.352	16.09
878.521	15.29
878.69	21.73
878.859	24.83
879.028	23.76
879.197	23.26
879.366	27.23
879.534	26.71
879.703	25.31
879.872	24.88
880.041	21.43
880.21	23.31
880.378	25.13
880.547	21.35
880.716	19.38
880.884	20.84
881.053	20.57
881.222	19.16
881.39	19.42
881.559	19.88
881.727	19.62
881.896	19.04
882.065	18.4
882.233	17.67
882.402	18.68
882.57	19.12
882.739	18.93
882.907	18.64
883.076	18.66
883.244	18.1
883.412	17.75
883.581	18.74
883.749	19.83
883.918	20.34
884.086	20.26
884.254	19.93
884.423	20.1
884.591	19.64
884.759	19.46
884.927	19.44
885.096	19.89
885.264	20.18
885.432	19.68
885.6	18.73
885.769	19.22
885.937	20.26
886.105	18.6
886.273	17.85
886.441	15.53
886.609	15.28
886.777	17.21
886.945	18.05
887.113	19.68
887.281	15.91
887.449	15.97
887.617	13.88
887.785	12.49
887.953	15.06
888.121	15.56
888.289	18.21
888.457	18.83
888.625	16.38
888.793	12.48
888.961	10.86
889.129	13.22
889.296	14.14
889.464	14.66
889.632	15.87
889.8	14.76
889.967	12.6
890.135	12.69
