Data from 2938740__Reflection_01.txt Node
Date: Sun Mar 15 12:23:48 EDT 2015
User: robert
Spectrometer: USB4E03002
Autoset integration time: false
Trigger mode: 4
Integration Time (sec): 1.000000E-1
Scans to average: 10
Electric dark correction enabled: false
Nonlinearity correction enabled: false
Boxcar width: 5
Stray light correction enabled: false
XAxis mode: Wavelengths
Stop averaging: false
Number of Pixels in Spectrum: 3648
>>>>>Begin Spectral Data<<<<<
177.575	-149.16
177.794	-442.45
178.014	-712.5
178.233	-1404.17
178.452	1200
178.672	527.13
178.891	290.09
179.11	165
179.33	150.56
179.549	127.07
179.768	114.11
179.987	106.26
180.207	100.38
180.426	114.65
180.645	108.19
180.864	102.57
181.084	91.46
181.303	87.22
181.522	85.93
181.741	43.66
181.96	36.95
182.179	39.23
182.398	39.14
182.618	48.81
182.837	53.01
183.056	63.58
183.275	57.57
183.494	76.34
183.713	81.11
183.932	83.25
184.151	109.03
184.37	112.16
184.589	109.88
184.808	120.85
185.027	103.84
185.246	100.39
185.465	89.43
185.684	85.34
185.903	84.69
186.122	85.96
186.341	83.75
186.56	66.63
186.779	62.34
186.998	71.56
187.216	76.8
187.435	82.87
187.654	79.57
187.873	93.26
188.092	110.79
188.311	103.34
188.53	93.15
188.748	90.64
188.967	91.8
189.186	98.3
189.405	88.76
189.623	72.28
189.842	72.5
190.061	72.63
190.28	79.03
190.498	80.8
190.717	75.88
190.936	74.94
191.154	72.66
191.373	76.61
191.592	65.04
191.81	62.28
192.029	75.97
192.248	74.86
192.466	85.35
192.685	66.49
192.904	56.55
193.122	58.32
193.341	55.54
193.559	67.19
193.778	69.95
193.996	82.43
194.215	95.23
194.433	81.47
194.652	92.35
194.87	77.7
195.089	78.81
195.307	80.83
195.526	79.29
195.744	83.22
195.963	74.12
196.181	77.03
196.399	73.81
196.618	78.03
196.836	82.31
197.055	71.17
197.273	71.49
197.491	71.54
197.71	76.47
197.928	85.33
198.146	82.44
198.365	76.88
198.583	73.08
198.801	61.33
199.019	58.2
199.238	59.83
199.456	75.05
199.674	74.06
199.892	71.46
200.111	67.49
200.329	67.39
200.547	71.48
200.765	76.99
200.983	83.16
201.202	101.75
201.42	95.76
201.638	85.56
201.856	83.4
202.074	92.29
202.292	92.42
202.51	89.93
202.728	92.8
202.946	86.04
203.165	88.62
203.383	74.73
203.601	68.55
203.819	66.97
204.037	72.85
204.255	72.73
204.473	81.55
204.691	84.8
204.909	88.08
205.127	85.49
205.345	91.51
205.562	91.98
205.78	93.03
205.998	88.86
206.216	87.97
206.434	88.87
206.652	92.45
206.87	81.54
207.088	84.76
207.306	90.68
207.523	83.65
207.741	73.9
207.959	70.75
208.177	72.92
208.395	84.54
208.612	87.17
208.83	81.25
209.048	84.33
209.266	81.59
209.483	82.5
209.701	81.23
209.919	89.98
210.136	98.29
210.354	90.43
210.572	79.08
210.79	71.84
211.007	69.37
211.225	75.61
211.442	68.65
211.66	67.64
211.878	67.55
212.095	60.72
212.313	54.02
212.53	46.78
212.748	53.04
212.966	58.29
213.183	50
213.401	47.77
213.618	46.48
213.836	48.92
214.053	48.07
214.271	52.42
214.488	52.92
214.705	57.25
214.923	66.08
215.14	55.06
215.358	52.82
215.575	63.43
215.793	73.74
216.01	68.77
216.227	72.15
216.445	73.69
216.662	62.4
216.879	65.08
217.097	66.09
217.314	65.44
217.531	74.96
217.749	76.31
217.966	74.53
218.183	60.38
218.4	64.44
218.618	59.12
218.835	52.52
219.052	64.31
219.269	60.59
219.487	59.57
219.704	59.1
219.921	57.18
220.138	57.87
220.355	52.78
220.572	53.17
220.79	50.86
221.007	48.05
221.224	54.53
221.441	47.6
221.658	44.25
221.875	42.97
222.092	37.55
222.309	32.53
222.526	30.18
222.743	27.24
222.96	21.97
223.177	20.48
223.394	27.2
223.611	23.01
223.828	22.03
224.045	21.61
224.262	17.93
224.479	14.74
224.696	14.23
224.913	11.22
225.13	12.08
225.347	16
225.564	16.76
225.781	11.23
225.997	9.21
226.214	8.52
226.431	6.08
226.648	6.46
226.865	9.35
227.082	12.05
227.298	11.07
227.515	11.46
227.732	9.53
227.949	7.21
228.165	7.07
228.382	7.72
228.599	7.18
228.816	7.76
229.032	7.84
229.249	7.19
229.466	6.03
229.682	6.79
229.899	6.11
230.116	7.29
230.332	8.14
230.549	8.68
230.765	8.85
230.982	9.08
231.199	8.82
231.415	8.61
231.632	7.82
231.848	8.2
232.065	8.59
232.281	9.1
232.498	6.78
232.714	6.49
232.931	5.66
233.147	5.2
233.364	5.09
233.58	6.58
233.797	6.77
234.013	7.52
234.23	7.96
234.446	6.46
234.662	5.35
234.879	4.58
235.095	4.68
235.312	6.21
235.528	6.23
235.744	6.78
235.961	7.17
236.177	8.34
236.393	8.61
236.61	7.62
236.826	8.55
237.042	10.19
237.258	12.66
237.475	12.78
237.691	11.14
237.907	10.89
238.123	10.09
238.339	9.86
238.556	9.25
238.772	9.1
238.988	8.36
239.204	8.17
239.42	8.37
239.636	6.5
239.853	5.84
240.069	6.72
240.285	6.1
240.501	5.88
240.717	5.06
240.933	4.93
241.149	5.45
241.365	6.07
241.581	5.42
241.797	4.43
242.013	4.58
242.229	4.9
242.445	4.44
242.661	4.33
242.877	5.1
243.093	4.84
243.309	4.23
243.525	3.95
243.741	4.39
243.957	4.57
244.173	4.64
244.388	4.54
244.604	4.73
244.82	5.92
245.036	6
245.252	4.59
245.468	4.97
245.683	5.5
245.899	4.91
246.115	4.27
246.331	4.44
246.547	4.7
246.762	4.55
246.978	4.21
247.194	3.73
247.409	3.51
247.625	3.8
247.841	3.78
248.057	3.77
248.272	3.87
248.488	3.46
248.703	3.29
248.919	3.17
249.135	3.57
249.35	3.82
249.566	4.18
249.782	5.03
249.997	5.03
250.213	5.23
250.428	4.8
250.644	4.92
250.859	6.16
251.075	5.98
251.29	5.93
251.506	5.66
251.721	5.67
251.937	5.77
252.152	5.19
252.368	5.66
252.583	5.26
252.798	5.44
253.014	5.22
253.229	4.92
253.445	5.16
253.66	5.2
253.875	5.21
254.091	4.98
254.306	4.13
254.521	4.6
254.737	3.74
254.952	4.9
255.167	5.42
255.383	5.27
255.598	4.95
255.813	5.3
256.028	5.56
256.244	5.36
256.459	6.16
256.674	6.75
256.889	5.75
257.104	5.58
257.32	4.58
257.535	3.99
257.75	3.76
257.965	4.29
258.18	4.32
258.395	4.08
258.61	4.18
258.826	3.73
259.041	3.12
259.256	3.24
259.471	3.2
259.686	3.1
259.901	3.08
260.116	3.42
260.331	3.2
260.546	2.96
260.761	3
260.976	2.77
261.191	2.62
261.406	2.96
261.621	3
261.836	2.64
262.05	2.9
262.265	3.47
262.48	3.28
262.695	3.27
262.91	3
263.125	3.33
263.34	3.41
263.555	4.14
263.769	4.34
263.984	4.4
264.199	5.15
264.414	5.28
264.629	5.24
264.843	4.87
265.058	5.48
265.273	6.4
265.488	5.52
265.702	5.88
265.917	4.71
266.132	4.32
266.346	4.23
266.561	3.89
266.776	3.29
266.99	2.98
267.205	3.51
267.42	2.75
267.634	2.62
267.849	2.34
268.063	2.22
268.278	2.92
268.492	2.94
268.707	2.89
268.922	3.23
269.136	3.68
269.351	3.63
269.565	3.04
269.78	2.93
269.994	2.6
270.209	2.78
270.423	2.61
270.637	2.59
270.852	2.65
271.066	2.62
271.281	2.59
271.495	2.43
271.709	2.39
271.924	2.45
272.138	2.28
272.353	1.99
272.567	2.38
272.781	2.63
272.996	2.61
273.21	2.73
273.424	2.56
273.638	2.26
273.853	2.35
274.067	2.23
274.281	2.21
274.495	2.86
274.71	3.03
274.924	2.72
275.138	2.52
275.352	2.29
275.566	1.87
275.781	2.24
275.995	2.9
276.209	2.91
276.423	2.71
276.637	2.76
276.851	2.72
277.065	2.73
277.279	3.33
277.493	3.52
277.707	3.61
277.921	3.72
278.135	4.17
278.349	3.29
278.563	3.25
278.777	3.48
278.991	3.72
279.205	3.99
279.419	4.23
279.633	3.76
279.847	3.51
280.061	3.32
280.275	3.54
280.489	3.2
280.703	3.98
280.917	3.97
281.131	3.86
281.344	3.83
281.558	3.57
281.772	3.69
281.986	3.91
282.2	3.71
282.414	3.55
282.627	3.57
282.841	2.97
283.055	2.77
283.269	2.91
283.482	2.83
283.696	2.87
283.91	2.64
284.123	1.95
284.337	1.54
284.551	1.7
284.764	2.25
284.978	2.34
285.192	2.42
285.405	2.36
285.619	2.19
285.833	2.42
286.046	2.15
286.26	2.14
286.473	2.61
286.687	2.72
286.9	2.74
287.114	2.01
287.327	1.76
287.541	1.92
287.754	2.24
287.968	2.3
288.181	2
288.395	2.09
288.608	2.3
288.822	2.34
289.035	2.4
289.248	2.4
289.462	2.98
289.675	2.8
289.889	3.2
290.102	2.89
290.315	3.08
290.529	3.33
290.742	3.54
290.955	3.61
291.169	3.5
291.382	3.66
291.595	3.59
291.808	3.66
292.022	4.01
292.235	3.73
292.448	3.53
292.661	3.33
292.875	3.11
293.088	3.06
293.301	2.48
293.514	2.58
293.727	2.75
293.94	2.75
294.153	3.01
294.367	2.96
294.58	3.13
294.793	3.25
295.006	3.32
295.219	3.16
295.432	2.97
295.645	3.4
295.858	3.48
296.071	3.15
296.284	3.14
296.497	2.69
296.71	2.56
296.923	2.56
297.136	2.97
297.349	2.86
297.562	3.36
297.775	3.6
297.988	3.8
298.201	3.72
298.414	3.89
298.626	4.12
298.839	4.21
299.052	4.29
299.265	4.39
299.478	4.02
299.691	3.88
299.903	3.67
300.116	3.55
300.329	3
300.542	2.89
300.755	2.86
300.967	2.58
301.18	2.76
301.393	3.13
301.605	2.95
301.818	2.99
302.031	3.18
302.243	3
302.456	3.13
302.669	3.36
302.881	3.48
303.094	3.51
303.307	3.67
303.519	3.99
303.732	3.55
303.944	3.77
304.157	4.29
304.37	4.33
304.582	4.44
304.795	4.46
305.007	4.75
305.22	5.11
305.432	5.55
305.645	5.67
305.857	5.49
306.069	6.04
306.282	5.97
306.494	5.97
306.707	5.66
306.919	5.79
307.132	5.58
307.344	5.65
307.556	5.28
307.769	4.85
307.981	4.78
308.193	4.73
308.406	4.51
308.618	4.65
308.83	4.53
309.043	5.09
309.255	4.93
309.467	5.06
309.679	4.73
309.892	5.1
310.104	5.22
310.316	5.59
310.528	5.64
310.74	5.61
310.953	5.46
311.165	5.02
311.377	5.11
311.589	5.43
311.801	5.56
312.013	5.82
312.225	5.52
312.437	5.55
312.649	5.29
312.862	5.36
313.074	5.45
313.286	5.79
313.498	6.14
313.71	6.17
313.922	5.93
314.134	5.88
314.346	6.39
314.558	6.64
314.77	6.21
314.982	6.3
315.193	5.83
315.405	5.96
315.617	5.87
315.829	6.14
316.041	5.87
316.253	5.98
316.465	6.02
316.677	5.66
316.888	5.71
317.1	5.96
317.312	5.98
317.524	6.74
317.736	6.86
317.947	7.03
318.159	6.59
318.371	7.03
318.583	7.24
318.794	7.5
319.006	6.89
319.218	7.04
319.43	7.04
319.641	6.99
319.853	7.16
320.064	7.56
320.276	7.45
320.488	8.46
320.699	8.54
320.911	8.5
321.123	7.59
321.334	8.48
321.546	8.46
321.757	8.97
321.969	8.96
322.18	8.62
322.392	8.16
322.603	8.43
322.815	8.04
323.026	7.8
323.238	7.91
323.449	8.76
323.661	8.71
323.872	8.97
324.083	8.99
324.295	9.26
324.506	9.24
324.718	9.33
324.929	8.93
325.14	8.89
325.352	9.18
325.563	8.55
325.774	8.44
325.986	7.97
326.197	7.51
326.408	7.4
326.62	7.14
326.831	7.41
327.042	7.43
327.253	7.72
327.464	8.15
327.676	8.16
327.887	8.54
328.098	8.76
328.309	9.52
328.52	9.39
328.732	9.48
328.943	9.83
329.154	9.89
329.365	10.06
329.576	10.22
329.787	9.75
329.998	9.87
330.209	9.88
330.42	9.95
330.631	9.71
330.842	9.92
331.053	9.85
331.264	9.69
331.475	9.47
331.686	9.15
331.897	8.93
332.108	9.3
332.319	9.2
332.53	9.68
332.741	9.17
332.952	8.87
333.163	9.38
333.374	9.47
333.585	9.48
333.795	9.63
334.006	10.02
334.217	10.17
334.428	9.75
334.639	9.12
334.849	8.9
335.06	9.61
335.271	9.95
335.482	10
335.692	10.47
335.903	10.73
336.114	10.64
336.325	10.4
336.535	10.65
336.746	10.66
336.957	11.11
337.167	11.4
337.378	10.96
337.589	10.94
337.799	10.73
338.01	10.29
338.22	10.15
338.431	10.13
338.642	10.31
338.852	9.96
339.063	10.15
339.273	10.21
339.484	10.07
339.694	10
339.905	10
340.115	9.73
340.326	9.9
340.536	10.42
340.746	10.58
340.957	10.14
341.167	9.99
341.378	10.06
341.588	10.35
341.799	10.34
342.009	10.39
342.219	10.18
342.43	10.38
342.64	10.23
342.85	9.69
343.061	9.72
343.271	10.14
343.481	10.52
343.691	10.4
343.902	10.23
344.112	9.99
344.322	9.95
344.532	9.79
344.743	9.41
344.953	9.59
345.163	9.34
345.373	8.91
345.583	8.47
345.793	8.06
346.004	8.09
346.214	7.93
346.424	8.13
346.634	8.17
346.844	8.41
347.054	8.48
347.264	8.31
347.474	8.65
347.684	9.03
347.894	9.38
348.104	10.03
348.314	9.88
348.524	10.15
348.734	9.78
348.944	9.89
349.154	9.66
349.364	9.77
349.574	9.89
349.784	9.72
349.994	9.67
350.204	9.47
350.413	9.06
350.623	9.42
350.833	9.2
351.043	9.37
351.253	9.43
351.463	9.39
351.672	9.61
351.882	9.2
352.092	9.03
352.302	8.64
352.511	9.08
352.721	8.74
352.931	8.41
353.141	8.15
353.35	8.24
353.56	7.94
353.77	8.51
353.979	8.32
354.189	8.6
354.399	8.76
354.608	9.02
354.818	8.88
355.027	9.2
355.237	9.13
355.447	9.28
355.656	9.13
355.866	9.17
356.075	8.76
356.285	8.7
356.494	8.87
356.704	9.1
356.913	9.17
357.123	8.93
357.332	8.73
357.542	8.78
357.751	8.73
357.96	8.98
358.17	8.86
358.379	8.91
358.589	8.75
358.798	8.4
359.007	8.35
359.217	8.33
359.426	8.33
359.635	8.56
359.845	8.33
360.054	8.54
360.263	8.16
360.472	8.21
360.682	8.41
360.891	8.41
361.1	8.5
361.309	8.33
361.519	8.19
361.728	8
361.937	7.92
362.146	8.06
362.355	7.9
362.564	8.08
362.774	8.33
362.983	8.19
363.192	8.44
363.401	8.57
363.61	8.53
363.819	8.71
364.028	8.91
364.237	9.07
364.446	9.07
364.655	9.08
364.864	9.07
365.073	8.8
365.282	8.83
365.491	8.97
365.7	8.84
365.909	8.98
366.118	9.01
366.327	9.01
366.536	8.67
366.745	8.73
366.954	8.75
367.162	8.74
367.371	8.91
367.58	8.88
367.789	8.57
367.998	8.63
368.207	8.57
368.415	8.55
368.624	8.52
368.833	8.94
369.042	9.04
369.25	8.97
369.459	9.28
369.668	9.12
369.877	9.1
370.085	9.07
370.294	9.05
370.503	8.88
370.711	8.65
370.92	8.83
371.129	8.71
371.337	8.59
371.546	8.51
371.754	8.32
371.963	8.4
372.171	8.54
372.38	8.6
372.589	8.66
372.797	8.67
373.006	8.54
373.214	8.28
373.423	8.15
373.631	8.24
373.84	8.3
374.048	8.41
374.256	8.31
374.465	8.41
374.673	8.38
374.882	8.18
375.09	8.3
375.298	8.37
375.507	8.43
375.715	8.29
375.923	8.24
376.132	8.31
376.34	8.13
376.548	8.24
376.757	8.01
376.965	7.9
377.173	7.99
377.381	8.07
377.59	8.17
377.798	8.34
378.006	8.56
378.214	8.5
378.423	8.51
378.631	8.61
378.839	8.49
379.047	8.3
379.255	8.4
379.463	8.23
379.671	8.19
379.879	8.37
380.088	8.34
380.296	8.2
380.504	8.34
380.712	8.25
380.92	8.05
381.128	8.07
381.336	8.13
381.544	8.12
381.752	8.43
381.96	8.2
382.168	7.99
382.376	7.76
382.584	7.89
382.791	7.81
382.999	7.81
383.207	7.97
383.415	7.83
383.623	7.94
383.831	8.03
384.039	7.8
384.247	7.98
384.454	8.19
384.662	8.29
384.87	8.22
385.078	8.11
385.285	8.13
385.493	8.05
385.701	8.24
385.909	8.26
386.116	8.11
386.324	8.21
386.532	8.22
386.739	7.71
386.947	7.63
387.155	7.62
387.362	7.72
387.57	7.58
387.778	7.5
387.985	7.49
388.193	7.36
388.4	7.54
388.608	7.56
388.816	7.35
389.023	7.98
389.231	8.07
389.438	7.88
389.646	7.97
389.853	8.14
390.061	8.31
390.268	8.32
390.475	8.34
390.683	8.29
390.89	8.27
391.098	8.21
391.305	7.72
391.512	7.65
391.72	7.65
391.927	7.69
392.135	7.71
392.342	7.6
392.549	7.65
392.756	7.66
392.964	7.46
393.171	7.46
393.378	7.54
393.586	7.73
393.793	7.8
394	7.86
394.207	7.66
394.414	7.6
394.622	7.42
394.829	7.29
395.036	7.26
395.243	7.4
395.45	7.46
395.657	7.53
395.864	7.69
396.072	7.5
396.279	7.53
396.486	7.61
396.693	7.64
396.9	7.77
397.107	7.76
397.314	7.72
397.521	7.63
397.728	7.45
397.935	7.41
398.142	6.99
398.349	7.18
398.556	7.2
398.763	7.05
398.97	7.03
399.177	7.03
399.383	7.08
399.59	7.23
399.797	7.45
400.004	7.45
400.211	7.53
400.418	7.92
400.625	7.87
400.831	7.81
401.038	7.92
401.245	7.78
401.452	7.92
401.658	7.77
401.865	7.68
402.072	7.77
402.279	7.79
402.485	7.75
402.692	7.51
402.899	7.73
403.105	7.79
403.312	7.86
403.519	8.03
403.725	7.87
403.932	8.12
404.138	8.27
404.345	8.01
404.552	8.08
404.758	7.98
404.965	8.11
405.171	8.05
405.378	7.89
405.584	7.68
405.791	7.6
405.997	7.85
406.204	7.73
406.41	7.6
406.617	7.45
406.823	7.54
407.029	7.7
407.236	7.8
407.442	7.62
407.649	7.82
407.855	7.93
408.061	7.77
408.268	7.71
408.474	7.61
408.68	7.59
408.887	7.71
409.093	7.57
409.299	7.38
409.505	7.35
409.712	7.43
409.918	7.22
410.124	7.38
410.33	7.75
410.537	7.68
410.743	7.86
410.949	7.94
411.155	8.14
411.361	8.01
411.567	8.19
411.773	8
411.98	7.88
412.186	8.13
412.392	8.08
412.598	8.11
412.804	8.21
413.01	8.06
413.216	7.93
413.422	7.91
413.628	8.24
413.834	8.26
414.04	8.52
414.246	8.63
414.452	8.59
414.658	8.67
414.864	8.56
415.07	8.28
415.275	8.38
415.481	8.35
415.687	8.25
415.893	8.01
416.099	8.09
416.305	7.97
416.511	8.11
416.716	8.08
416.922	7.97
417.128	7.87
417.334	7.92
417.539	7.73
417.745	7.92
417.951	7.89
418.157	7.95
418.362	7.74
418.568	7.76
418.774	7.65
418.979	7.57
419.185	7.54
419.391	7.56
419.596	7.63
419.802	7.67
420.008	7.58
420.213	7.7
420.419	7.64
420.624	7.74
420.83	7.66
421.035	7.57
421.241	7.72
421.446	7.68
421.652	7.59
421.857	7.55
422.063	7.58
422.268	7.6
422.474	7.51
422.679	7.59
422.885	7.5
423.09	7.57
423.295	7.66
423.501	7.52
423.706	7.54
423.911	7.65
424.117	7.67
424.322	7.62
424.527	7.64
424.733	7.71
424.938	7.68
425.143	7.8
425.349	7.76
425.554	7.76
425.759	7.79
425.964	7.85
426.169	7.82
426.375	7.8
426.58	7.86
426.785	7.88
426.99	7.69
427.195	7.63
427.4	7.55
427.605	7.59
427.811	7.61
428.016	7.62
428.221	7.6
428.426	7.66
428.631	7.66
428.836	7.7
429.041	7.64
429.246	7.82
429.451	7.94
429.656	8.02
429.861	8.12
430.066	8.23
430.271	8.35
430.476	8.38
430.681	8.32
430.886	8.34
431.09	8.37
431.295	8.42
431.5	8.35
431.705	8.35
431.91	8.33
432.115	8.29
432.32	8.28
432.524	8.19
432.729	8.26
432.934	8.3
433.139	8.33
433.343	8.3
433.548	8.4
433.753	8.49
433.958	8.49
434.162	8.57
434.367	8.6
434.572	8.72
434.776	8.86
434.981	8.95
435.186	9.04
435.39	9.14
435.595	9.23
435.799	9.25
436.004	9.19
436.209	9.2
436.413	9.14
436.618	9.17
436.822	9.04
437.027	8.83
437.231	8.66
437.436	8.61
437.64	8.61
437.845	8.6
438.049	8.4
438.253	8.43
438.458	8.34
438.662	8.34
438.867	8.26
439.071	8.21
439.275	8.32
439.48	8.36
439.684	8.35
439.888	8.29
440.093	8.19
440.297	8.28
440.501	8.28
440.706	8.31
440.91	8.35
441.114	8.35
441.318	8.4
441.523	8.35
441.727	8.36
441.931	8.42
442.135	8.44
442.339	8.57
442.543	8.46
442.748	8.49
442.952	8.45
443.156	8.37
443.36	8.37
443.564	8.39
443.768	8.39
443.972	8.47
444.176	8.41
444.38	8.38
444.584	8.31
444.788	8.46
444.992	8.48
445.196	8.46
445.4	8.44
445.604	8.37
445.808	8.32
446.012	8.35
446.216	8.31
446.42	8.3
446.624	8.27
446.828	8.32
447.032	8.26
447.235	8.24
447.439	8.32
447.643	8.34
447.847	8.44
448.051	8.39
448.254	8.35
448.458	8.32
448.662	8.29
448.866	8.32
449.069	8.22
449.273	8.25
449.477	8.24
449.681	8.14
449.884	8.11
450.088	8.09
450.292	8.33
450.495	8.3
450.699	8.24
450.902	8.34
451.106	8.36
451.31	8.37
451.513	8.32
451.717	8.29
451.92	8.48
452.124	8.52
452.327	8.59
452.531	8.49
452.734	8.58
452.938	8.59
453.141	8.53
453.345	8.55
453.548	8.54
453.752	8.63
453.955	8.71
454.158	8.72
454.362	8.68
454.565	8.63
454.769	8.64
454.972	8.73
455.175	8.75
455.379	8.77
455.582	8.73
455.785	8.68
455.988	8.53
456.192	8.47
456.395	8.3
456.598	8.33
456.801	8.39
457.005	8.3
457.208	8.1
457.411	8.14
457.614	8.16
457.817	8.13
458.021	8.22
458.224	8.26
458.427	8.23
458.63	8.34
458.833	8.29
459.036	8.17
459.239	8.17
459.442	8.24
459.645	8.18
459.848	8.19
460.051	8.17
460.254	8.15
460.457	8.18
460.66	8.23
460.863	8.16
461.066	8.2
461.269	8.25
461.472	8.26
461.675	8.28
461.878	8.29
462.081	8.28
462.284	8.38
462.486	8.5
462.689	8.48
462.892	8.52
463.095	8.64
463.298	8.68
463.5	8.61
463.703	8.67
463.906	8.6
464.109	8.63
464.311	8.68
464.514	8.56
464.717	8.53
464.92	8.48
465.122	8.42
465.325	8.39
465.528	8.46
465.73	8.63
465.933	8.58
466.135	8.62
466.338	8.63
466.541	8.53
466.743	8.62
466.946	8.66
467.148	8.69
467.351	8.8
467.553	8.78
467.756	8.71
467.958	8.61
468.161	8.64
468.363	8.69
468.566	8.75
468.768	8.81
468.971	8.8
469.173	8.65
469.375	8.61
469.578	8.52
469.78	8.38
469.983	8.49
470.185	8.6
470.387	8.55
470.59	8.41
470.792	8.36
470.994	8.38
471.196	8.48
471.399	8.64
471.601	8.7
471.803	8.78
472.005	8.82
472.208	8.81
472.41	8.78
472.612	8.88
472.814	8.99
473.016	9.1
473.218	8.98
473.421	8.93
473.623	8.81
473.825	8.87
474.027	8.85
474.229	8.89
474.431	8.83
474.633	8.75
474.835	8.68
475.037	8.61
475.239	8.5
475.441	8.58
475.643	8.61
475.845	8.63
476.047	8.6
476.249	8.59
476.451	8.58
476.653	8.58
476.855	8.62
477.057	8.6
477.258	8.65
477.46	8.68
477.662	8.68
477.864	8.62
478.066	8.63
478.268	8.62
478.469	8.52
478.671	8.52
478.873	8.6
479.075	8.56
479.276	8.63
479.478	8.62
479.68	8.62
479.882	8.71
480.083	8.71
480.285	8.71
480.487	8.65
480.688	8.7
480.89	8.84
481.091	8.73
481.293	8.74
481.495	8.68
481.696	8.66
481.898	8.6
482.099	8.49
482.301	8.46
482.502	8.48
482.704	8.52
482.905	8.48
483.107	8.39
483.308	8.39
483.51	8.36
483.711	8.35
483.913	8.34
484.114	8.38
484.315	8.43
484.517	8.42
484.718	8.4
484.92	8.42
485.121	8.44
485.322	8.45
485.524	8.48
485.725	8.49
485.926	8.52
486.127	8.56
486.329	8.51
486.53	8.47
486.731	8.51
486.932	8.48
487.134	8.45
487.335	8.45
487.536	8.48
487.737	8.49
487.938	8.5
488.139	8.51
488.341	8.5
488.542	8.49
488.743	8.52
488.944	8.54
489.145	8.65
489.346	8.64
489.547	8.69
489.748	8.67
489.949	8.63
490.15	8.67
490.351	8.68
490.552	8.71
490.753	8.76
490.954	8.74
491.155	8.68
491.356	8.57
491.557	8.58
491.758	8.58
491.959	8.59
492.159	8.64
492.36	8.66
492.561	8.66
492.762	8.6
492.963	8.59
493.164	8.63
493.364	8.72
493.565	8.8
493.766	8.83
493.967	8.79
494.167	8.78
494.368	8.77
494.569	8.77
494.769	8.8
494.97	8.92
495.171	8.93
495.371	9
495.572	9.02
495.773	9
495.973	8.99
496.174	9.05
496.375	9.12
496.575	9.07
496.776	9.05
496.976	9.02
497.177	9.02
497.377	9.04
497.578	8.99
497.778	8.97
497.979	8.95
498.179	9.06
498.38	9.03
498.58	9.02
498.78	9.09
498.981	9.06
499.181	9.08
499.382	9.11
499.582	9.23
499.782	9.24
499.983	9.36
500.183	9.44
500.383	9.42
500.584	9.51
500.784	9.59
500.984	9.63
501.184	9.68
501.385	9.72
501.585	9.69
501.785	9.53
501.985	9.55
502.185	9.38
502.386	9.4
502.586	9.33
502.786	9.3
502.986	9.24
503.186	9.19
503.386	9.2
503.586	9.19
503.786	9.34
503.987	9.4
504.187	9.45
504.387	9.52
504.587	9.5
504.787	9.59
504.987	9.59
505.187	9.59
505.387	9.73
505.587	9.78
505.786	9.72
505.986	9.68
506.186	9.77
506.386	9.86
506.586	9.91
506.786	9.98
506.986	10.06
507.186	10.08
507.386	10.07
507.585	10.04
507.785	10
507.985	10.15
508.185	10.09
508.384	10.1
508.584	10.01
508.784	10.11
508.984	10.1
509.183	10.12
509.383	10.13
509.583	10.22
509.782	10.15
509.982	10.2
510.182	10.21
510.381	10.28
510.581	10.28
510.781	10.26
510.98	10.17
511.18	10.13
511.379	10.11
511.579	10.12
511.778	10.18
511.978	10.16
512.177	10.17
512.377	10.12
512.576	10.11
512.776	10.12
512.975	10.23
513.175	10.21
513.374	10.27
513.573	10.28
513.773	10.37
513.972	10.35
514.172	10.49
514.371	10.64
514.57	10.8
514.77	10.8
514.969	10.85
515.168	10.86
515.367	10.96
515.567	10.94
515.766	10.97
515.965	11.04
516.164	11.06
516.364	11.03
516.563	10.99
516.762	10.96
516.961	10.99
517.16	11
517.359	10.99
517.559	10.99
517.758	11.05
517.957	11.08
518.156	11.06
518.355	11.07
518.554	11.16
518.753	11.23
518.952	11.18
519.151	11.26
519.35	11.28
519.549	11.35
519.748	11.42
519.947	11.49
520.146	11.5
520.345	11.58
520.544	11.66
520.743	11.68
520.942	11.63
521.141	11.69
521.339	11.64
521.538	11.71
521.737	11.67
521.936	11.71
522.135	11.74
522.333	11.84
522.532	11.72
522.731	11.67
522.93	11.8
523.129	11.78
523.327	11.87
523.526	12.02
523.725	11.95
523.923	11.99
524.122	12
524.321	11.98
524.519	11.91
524.718	11.96
524.917	11.88
525.115	11.83
525.314	11.83
525.512	11.86
525.711	11.82
525.909	11.87
526.108	11.89
526.306	11.81
526.505	11.87
526.703	11.88
526.902	11.86
527.1	11.93
527.299	11.9
527.497	11.94
527.696	11.89
527.894	11.89
528.092	11.87
528.291	11.9
528.489	11.93
528.688	11.93
528.886	11.96
529.084	12.01
529.283	12.04
529.481	12.06
529.679	12.13
529.877	12.16
530.076	12.21
530.274	12.29
530.472	12.36
530.67	12.45
530.869	12.43
531.067	12.51
531.265	12.58
531.463	12.64
531.661	12.72
531.859	12.71
532.057	12.8
532.255	12.87
532.454	12.88
532.652	12.83
532.85	12.86
533.048	12.92
533.246	12.92
533.444	12.94
533.642	12.92
533.84	12.87
534.038	12.92
534.236	12.96
534.434	12.92
534.632	12.98
534.83	13.04
535.027	13.09
535.225	13.17
535.423	13.2
535.621	13.21
535.819	13.35
536.017	13.48
536.215	13.55
536.412	13.59
536.61	13.69
536.808	13.74
537.006	13.84
537.203	13.88
537.401	14
537.599	14.14
537.797	14.23
537.994	14.34
538.192	14.4
538.39	14.53
538.587	14.67
538.785	14.83
538.983	15.02
539.18	15.26
539.378	15.42
539.575	15.56
539.773	15.71
539.97	15.88
540.168	15.98
540.366	16.17
540.563	16.19
540.761	16.22
540.958	16.27
541.155	16.3
541.353	16.28
541.55	16.34
541.748	16.41
541.945	16.5
542.143	16.56
542.34	16.63
542.537	16.67
542.735	16.85
542.932	17.05
543.129	17.16
543.327	17.46
543.524	17.85
543.721	18.28
543.919	18.67
544.116	19.16
544.313	19.58
544.51	20.1
544.708	20.72
544.905	21.13
545.102	21.64
545.299	22.22
545.496	22.51
545.693	22.58
545.891	22.47
546.088	22.23
546.285	21.97
546.482	21.77
546.679	21.47
546.876	21.07
547.073	20.75
547.27	20.34
547.467	19.92
547.664	19.58
547.861	19.34
548.058	19.11
548.255	19.1
548.452	19.05
548.649	18.9
548.846	18.82
549.043	18.71
549.24	18.65
549.437	18.58
549.633	18.49
549.83	18.35
550.027	18.29
550.224	18.24
550.421	18.13
550.618	17.94
550.814	17.92
551.011	17.72
551.208	17.63
551.405	17.5
551.601	17.37
551.798	17.18
551.995	17
552.191	16.76
552.388	16.69
552.585	16.63
552.781	16.51
552.978	16.46
553.175	16.55
553.371	16.46
553.568	16.36
553.764	16.36
553.961	16.31
554.157	16.28
554.354	16.32
554.55	16.31
554.747	16.24
554.943	16.32
555.14	16.27
555.336	16.16
555.533	16.16
555.729	16.23
555.926	16.18
556.122	16.37
556.318	16.44
556.515	16.59
556.711	16.55
556.907	16.41
557.104	16.41
557.3	16.44
557.496	16.42
557.693	16.34
557.889	16.32
558.085	16.3
558.281	16.19
558.478	16.19
558.674	16.1
558.87	16.13
559.066	16.34
559.262	16.21
559.459	16.12
559.655	16.15
559.851	16.15
560.047	16.27
560.243	16.35
560.439	16.42
560.635	16.51
560.831	16.48
561.027	16.45
561.223	16.41
561.419	16.46
561.615	16.56
561.811	16.48
562.007	16.52
562.203	16.37
562.399	16.29
562.595	16.26
562.791	16.29
562.987	16.43
563.183	16.4
563.379	16.39
563.575	16.47
563.771	16.33
563.966	16.44
564.162	16.44
564.358	16.45
564.554	16.65
564.75	16.71
564.945	16.43
565.141	16.31
565.337	16.34
565.533	16.26
565.728	16.3
565.924	16.35
566.12	16.26
566.315	16.31
566.511	16.38
566.707	16.17
566.902	16.12
567.098	16.17
567.293	16.16
567.489	16.23
567.684	16.27
567.88	16.26
568.076	16.27
568.271	16.41
568.467	16.53
568.662	16.52
568.858	16.56
569.053	16.67
569.248	16.69
569.444	16.84
569.639	16.81
569.835	16.78
570.03	16.67
570.225	16.71
570.421	16.56
570.616	16.28
570.812	16.39
571.007	16.44
571.202	16.35
571.397	16.41
571.593	16.34
571.788	16.31
571.983	16.39
572.178	16.58
572.374	16.62
572.569	16.65
572.764	16.82
572.959	16.77
573.154	16.75
573.35	16.83
573.545	16.85
573.74	16.8
573.935	16.83
574.13	16.88
574.325	16.83
574.52	16.98
574.715	17.16
574.91	17.42
575.105	17.57
575.3	17.68
575.495	17.81
575.69	18.04
575.885	18.28
576.08	18.52
576.275	18.82
576.47	19.02
576.665	19.21
576.86	19.41
577.055	19.48
577.25	19.61
577.444	19.82
577.639	19.95
577.834	20.13
578.029	20.31
578.224	20.45
578.418	20.47
578.613	20.44
578.808	20.51
579.003	20.56
579.197	20.47
579.392	20.56
579.587	20.5
579.781	20.38
579.976	20.27
580.171	20.21
580.365	20.1
580.56	19.97
580.755	20.09
580.949	19.97
581.144	19.85
581.338	19.95
581.533	19.98
581.727	20.04
581.922	20.12
582.116	20.19
582.311	20.36
582.505	20.5
582.7	20.46
582.894	20.44
583.089	20.53
583.283	20.59
583.478	20.7
583.672	20.64
583.866	20.66
584.061	20.75
584.255	20.72
584.449	20.59
584.644	20.7
584.838	20.92
585.032	21.01
585.226	20.8
585.421	20.89
585.615	21.02
585.809	21.16
586.003	21.22
586.198	21.44
586.392	21.58
586.586	21.64
586.78	21.58
586.974	21.75
587.168	21.55
587.363	21.76
587.557	21.78
587.751	21.69
587.945	21.31
588.139	21.36
588.333	21.03
588.527	20.93
588.721	20.7
588.915	20.44
589.109	20.08
589.303	20.11
589.497	19.95
589.691	19.89
589.885	19.63
590.079	19.79
590.273	19.77
590.466	19.74
590.66	19.79
590.854	19.98
591.048	20.14
591.242	20.47
591.436	20.62
591.629	20.91
591.823	20.99
592.017	21.24
592.211	21.42
592.404	21.45
592.598	21.59
592.792	21.54
592.986	21.48
593.179	21.34
593.373	21.07
593.567	20.92
593.76	20.75
593.954	20.64
594.147	20.58
594.341	20.28
594.535	20.19
594.728	20.05
594.922	20.07
595.115	19.87
595.309	19.86
595.502	19.75
595.696	19.84
595.889	19.68
596.083	19.53
596.276	19.38
596.47	19.26
596.663	19.17
596.856	19.23
597.05	19.09
597.243	19.32
597.437	19.56
597.63	19.81
597.823	19.76
598.017	19.94
598.21	20.15
598.403	20.32
598.596	20.65
598.79	20.8
598.983	21.01
599.176	21.19
599.369	21.16
599.563	21.06
599.756	21
599.949	21.07
600.142	21.08
600.335	21.02
600.528	21.03
600.722	21.11
600.915	21.06
601.108	20.79
601.301	20.76
601.494	20.66
601.687	20.48
601.88	20.44
602.073	20.32
602.266	20.05
602.459	20.04
602.652	19.77
602.845	19.67
603.038	19.55
603.231	19.49
603.424	19.44
603.617	19.42
603.809	19.37
604.002	19.31
604.195	19.35
604.388	19.34
604.581	19.39
604.774	19.52
604.966	19.46
605.159	19.47
605.352	19.61
605.545	19.69
605.737	19.8
605.93	19.93
606.123	20.06
606.316	20.23
606.508	20.59
606.701	20.63
606.894	20.88
607.086	21.24
607.279	21.7
607.471	21.9
607.664	22.36
607.857	22.83
608.049	23.54
608.242	24.15
608.434	25.02
608.627	26.23
608.819	27.82
609.012	29.42
609.204	31.29
609.397	33.41
609.589	35.85
609.782	38.21
609.974	40.67
610.166	43.31
610.359	45.85
610.551	48.23
610.743	50.13
610.936	51.85
611.128	52.94
611.32	53.85
611.513	54.21
611.705	54.17
611.897	53.66
612.09	52.91
612.282	51.69
612.474	50.39
612.666	48.86
612.858	47.48
613.051	45.78
613.243	44.73
613.435	43.35
613.627	42.27
613.819	41.09
614.011	40.14
614.203	39
614.395	37.96
614.588	37.02
614.78	35.96
614.972	35.05
615.164	34.34
615.356	33.29
615.548	32.3
615.74	31.2
615.932	30.4
616.124	29.61
616.315	29.01
616.507	28.38
616.699	27.79
616.891	27.42
617.083	27.01
617.275	26.18
617.467	25.74
617.659	25.59
617.85	25.08
618.042	24.51
618.234	24.14
618.426	23.96
618.618	23.94
618.809	23.92
619.001	23.85
619.193	23.64
619.384	23.85
619.576	23.89
619.768	23.71
619.959	23.98
620.151	24.25
620.343	24.27
620.534	24.4
620.726	24.11
620.917	23.96
621.109	23.95
621.301	24.06
621.492	24.09
621.684	24.27
621.875	24.2
622.067	24.25
622.258	24.07
622.45	24.06
622.641	23.98
622.832	24.15
623.024	24.14
623.215	23.98
623.407	24.02
623.598	24.02
623.789	24.07
623.981	24.41
624.172	24.56
624.363	24.71
624.555	24.77
624.746	24.79
624.937	24.72
625.129	24.56
625.32	24.66
625.511	24.52
625.702	24.38
625.893	24.07
626.085	23.64
626.276	23.5
626.467	23.53
626.658	23.33
626.849	23.28
627.04	23.34
627.231	23.53
627.422	23.5
627.614	23.41
627.805	23.65
627.996	23.79
628.187	24.19
628.378	24.27
628.569	24.58
628.76	24.89
628.951	25.17
629.142	25.45
629.332	25.74
629.523	25.94
629.714	26.38
629.905	26.57
630.096	26.8
630.287	26.97
630.478	27.11
630.669	26.81
630.859	26.63
631.05	26.51
631.241	26.37
631.432	26.08
631.623	25.81
631.813	25.49
632.004	25.02
632.195	24.86
632.385	24.29
632.576	23.67
632.767	23.5
632.957	23.37
633.148	23.03
633.339	22.63
633.529	22.31
633.72	22.17
633.91	21.79
634.101	21.61
634.292	21.36
634.482	21.44
634.673	21.73
634.863	21.7
635.054	21.66
635.244	21.5
635.435	21.51
635.625	21.53
635.815	21.47
636.006	21.72
636.196	21.76
636.387	21.68
636.577	21.5
636.767	21.47
636.958	21.43
637.148	21.29
637.338	21.39
637.529	21.26
637.719	21.22
637.909	21.47
638.099	21.25
638.29	21.12
638.48	21.06
638.67	21.12
638.86	21.19
639.05	21.05
639.241	21.2
639.431	21.23
639.621	21.4
639.811	21.4
640.001	21.21
640.191	21.09
640.381	21.24
640.571	21.49
640.761	21.54
640.951	21.51
641.141	21.82
641.331	21.77
641.521	21.79
641.711	21.91
641.901	21.98
642.091	22.11
642.281	22.27
642.471	22.07
642.661	22.04
642.851	21.87
643.041	21.65
643.231	21.49
643.42	21.57
643.61	21.54
643.8	21.29
643.99	21.08
644.18	21.03
644.369	21.1
644.559	21.6
644.749	21.6
644.939	21.84
645.128	21.82
645.318	21.72
645.508	21.87
645.697	22.05
645.887	22.23
646.076	22.43
646.266	22.28
646.456	22.37
646.645	22.03
646.835	21.99
647.024	21.99
647.214	21.89
647.403	22.02
647.593	21.79
647.782	21.72
647.972	21.76
648.161	22.07
648.351	22.27
648.54	22.29
648.73	22.56
648.919	22.76
649.108	23.24
649.298	23.58
649.487	23.88
649.677	24.18
649.866	24.22
650.055	24.25
650.244	24.08
650.434	24.16
650.623	24.27
650.812	24.26
651.002	23.98
651.191	23.56
651.38	23.58
651.569	23.46
651.758	23.1
651.947	23.15
652.137	23.13
652.326	23.05
652.515	23.12
652.704	23.02
652.893	22.81
653.082	22.94
653.271	23.09
653.46	22.99
653.649	23.07
653.838	23.49
654.027	23.52
654.216	23.42
654.405	23.39
654.594	23.4
654.783	23.43
654.972	23.49
655.161	23.33
655.35	23.13
655.539	23.07
655.728	22.85
655.916	22.41
656.105	22.21
656.294	22.34
656.483	22.22
656.672	22.14
656.86	22.06
657.049	21.95
657.238	22.12
657.427	22.13
657.615	22.11
657.804	22.01
657.993	22.04
658.181	21.99
658.37	21.71
658.559	21.88
658.747	21.77
658.936	21.66
659.125	21.26
659.313	20.93
659.502	20.9
659.69	20.87
659.879	20.91
660.067	21.1
660.256	21.32
660.444	21.46
660.633	21.28
660.821	21.42
661.01	21.71
661.198	22.5
661.387	22.86
661.575	23.01
661.763	23.42
661.952	23.54
662.14	23.48
662.328	23.17
662.517	23.52
662.705	23.65
662.893	23.66
663.082	23.53
663.27	23.45
663.458	23.44
663.646	23.57
663.834	23.34
664.023	23.05
664.211	23.12
664.399	23.27
664.587	23.1
664.775	23.38
664.963	23.24
665.152	23.29
665.34	23.17
665.528	23.38
665.716	23.37
665.904	23.44
666.092	23.7
666.28	23.7
666.468	23.6
666.656	23.65
666.844	23.57
667.032	23.59
667.22	23.65
667.408	23.62
667.596	23.36
667.784	23.19
667.971	23.1
668.159	23.13
668.347	23.08
668.535	23.1
668.723	22.81
668.911	22.97
669.098	22.62
669.286	22.82
669.474	22.9
669.662	23.33
669.849	23.47
670.037	23.33
670.225	23.29
670.413	23.15
670.6	23.32
670.788	23.84
670.976	23.62
671.163	23.94
671.351	23.84
671.538	23.85
671.726	23.2
671.913	23.07
672.101	22.99
672.289	23.1
672.476	22.9
672.664	23.08
672.851	22.78
673.039	22.61
673.226	22.54
673.413	22.28
673.601	21.93
673.788	22.17
673.976	22.21
674.163	22.3
674.35	22.3
674.538	22.72
674.725	22.61
674.912	22.86
675.1	23.01
675.287	23.37
675.474	23.41
675.662	23.62
675.849	23.73
676.036	23.28
676.223	23.26
676.411	23.28
676.598	23.31
676.785	23.16
676.972	22.95
677.159	23.1
677.346	22.92
677.533	22.92
677.721	22.96
677.908	22.91
678.095	23.16
678.282	23.1
678.469	22.91
678.656	22.94
678.843	22.99
679.03	22.77
679.217	22.75
679.404	22.66
679.591	22.81
679.778	22.94
679.964	22.87
680.151	23.06
680.338	23.05
680.525	22.99
680.712	22.82
680.899	23
681.086	23.37
681.272	23.2
681.459	23.22
681.646	23.15
681.833	23.31
682.02	23.61
682.206	23.51
682.393	23.55
682.58	23.63
682.766	23.77
682.953	23.75
683.14	23.55
683.326	23.65
683.513	23.77
683.7	23.91
683.886	23.8
684.073	23.59
684.259	23.56
684.446	23.72
684.632	24.19
684.819	24.27
685.005	24.11
685.192	24.41
685.378	24.64
685.565	24.73
685.751	24.69
685.938	24.76
686.124	24.89
686.31	24.89
686.497	25.12
686.683	25.16
686.87	25.13
687.056	25.25
687.242	24.9
687.429	25.03
687.615	24.91
687.801	25.06
687.987	24.91
688.174	24.83
688.36	24.83
688.546	24.59
688.732	24.22
688.918	24.12
689.105	24.52
689.291	24.79
689.477	24.53
689.663	24.46
689.849	24.25
690.035	24.46
690.221	24.51
690.407	25
690.593	25
690.779	25.09
690.965	24.87
691.151	24.41
691.337	24.61
691.523	25.06
691.709	25.31
691.895	25.29
692.081	25.39
692.267	25.22
692.453	25.08
692.639	25.07
692.825	25.14
693.011	25.39
693.196	25.46
693.382	25.21
693.568	24.86
693.754	25.07
693.94	25.36
694.125	25.01
694.311	25.2
694.497	25.26
694.682	25.59
694.868	25.7
695.054	25.79
695.239	25.84
695.425	25.58
695.611	25.63
695.796	25.28
695.982	25.16
696.168	25.27
696.353	25.25
696.539	25.18
696.724	24.89
696.91	24.45
697.095	24.49
697.281	24.18
697.466	24.03
697.652	23.68
697.837	23.45
698.023	23.14
698.208	23.02
698.393	22.98
698.579	22.78
698.764	22.75
698.949	22.66
699.135	22.68
699.32	22.72
699.505	23
699.691	23.04
699.876	23.41
700.061	23.49
700.246	23.57
700.432	23.6
700.617	23.81
700.802	23.83
700.987	24.24
701.172	24.8
701.358	25.05
701.543	24.99
701.728	25.54
701.913	25.43
702.098	25.39
702.283	25.72
702.468	25.79
702.653	25.86
702.838	26.55
703.023	26.68
703.208	26.24
703.393	26.45
703.578	26.57
703.763	26.68
703.948	27.2
704.133	27.97
704.318	28.03
704.503	28.66
704.688	29.12
704.873	29.04
705.057	29.27
705.242	29.71
705.427	30.13
705.612	30.63
705.797	30.98
705.981	31.6
706.166	31.99
706.351	32.59
706.536	32.86
706.72	33.15
706.905	33.73
707.09	34.12
707.274	34.55
707.459	34.89
707.644	35.35
707.828	35.22
708.013	35
708.197	35.24
708.382	34.88
708.567	34.52
708.751	34.37
708.936	33.58
709.12	33.68
709.305	33.3
709.489	32.94
709.673	32.49
709.858	32.47
710.042	32.67
710.227	32.2
710.411	32.32
710.596	32.52
710.78	32.52
710.964	32.75
711.149	32.28
711.333	32.42
711.517	32.42
711.702	32.3
711.886	32.05
712.07	31.39
712.254	31.06
712.438	30.65
712.623	30.24
712.807	29.59
712.991	29.25
713.175	29.13
713.359	28.66
713.544	28.6
713.728	28.21
713.912	27.77
714.096	27.5
714.28	27.22
714.464	27.13
714.648	26.83
714.832	26.79
715.016	26.54
715.2	26.47
715.384	26.14
715.568	25.34
715.752	25.36
715.936	25.52
716.12	25.28
716.304	25.54
716.488	25.16
716.671	25.27
716.855	25.09
717.039	25.1
717.223	24.8
717.407	24.37
717.59	24.59
717.774	24.97
717.958	25.05
718.142	24.98
718.325	24.69
718.509	24.9
718.693	24.98
718.877	25.2
719.06	25.22
719.244	24.84
719.428	25.43
719.611	25.39
719.795	25.04
719.978	25.32
720.162	25.3
720.345	25.34
720.529	25.5
720.713	25.55
720.896	25.71
721.08	25.81
721.263	26.66
721.446	26.65
721.63	27.05
721.813	26.86
721.997	26.46
722.18	26.94
722.364	27.57
722.547	27.31
722.73	27.18
722.914	27.02
723.097	27.37
723.28	26.8
723.464	26.91
723.647	26.9
723.83	26.8
724.013	26.73
724.197	26.66
724.38	26.5
724.563	26.78
724.746	26.69
724.929	26.98
725.112	26.66
725.296	26.8
725.479	26.55
725.662	26.73
725.845	27.08
726.028	26.89
726.211	26.6
726.394	26.62
726.577	25.98
726.76	26.19
726.943	25.92
727.126	26.21
727.309	26.68
727.492	26.59
727.675	26.42
727.858	26.06
728.041	26.05
728.224	26.22
728.407	25.62
728.589	26.09
728.772	25.59
728.955	25.87
729.138	25.6
729.321	25.21
729.503	25.65
729.686	25.06
729.869	25.58
730.052	25.84
730.234	25.83
730.417	26.14
730.6	25.74
730.782	25.92
730.965	25.47
731.148	25.41
731.33	25.82
731.513	25.63
731.695	25.77
731.878	25.73
732.061	25.69
732.243	25.87
732.426	25.79
732.608	26.19
732.791	26.18
732.973	26.6
733.156	26.54
733.338	26.02
733.52	25.88
733.703	26.2
733.885	26.1
734.068	26.75
734.25	26.45
734.432	26.99
734.615	26.97
734.797	27.86
734.979	27.26
735.162	27.13
735.344	27.88
735.526	28.21
735.708	27.91
735.891	27.53
736.073	27.58
736.255	27.67
736.437	27.16
736.619	27.62
736.802	27.24
736.984	27.59
737.166	28.19
737.348	28.09
737.53	28.12
737.712	28.97
737.894	29.25
738.076	28.52
738.258	28.55
738.44	28.7
738.622	28.68
738.804	28.83
738.986	28.73
739.168	28
739.35	27.39
739.532	27.36
739.714	26.96
739.896	26.7
740.078	26.75
740.259	27.09
740.441	27.71
740.623	28.2
740.805	27.51
740.987	28.08
741.168	28.86
741.35	29.33
741.532	29.05
741.714	29.27
741.895	29.75
742.077	29.62
742.259	29.49
742.44	29.44
742.622	28.95
742.804	28.89
742.985	29.23
743.167	29.31
743.348	29.39
743.53	29.65
743.711	29.51
743.893	29.94
744.075	30.54
744.256	31.25
744.438	30.51
744.619	30.3
744.8	30.25
744.982	29.74
745.163	29.56
745.345	30.3
745.526	30.95
745.707	31.06
745.889	30.76
746.07	30.34
746.252	29.7
746.433	29.84
746.614	29.78
746.795	30.29
746.977	29.56
747.158	29.99
747.339	29.52
747.52	29.09
747.702	28.42
747.883	28.46
748.064	28.83
748.245	28.67
748.426	28.49
748.607	28.1
748.788	28.82
748.97	29.73
749.151	29.26
749.332	28.77
749.513	28.89
749.694	29.32
749.875	29.5
750.056	29.1
750.237	29.45
750.418	29.76
750.599	30.16
750.78	29.66
750.96	29.4
751.141	29.07
751.322	29.46
751.503	29.48
751.684	28.97
751.865	28.53
752.046	28.63
752.226	28.77
752.407	28.35
752.588	28.12
752.769	28.4
752.949	27.86
753.13	28.3
753.311	28.25
753.492	28.36
753.672	29.18
753.853	29.32
754.034	28.87
754.214	28.76
754.395	29.32
754.575	29.46
754.756	29.92
754.937	30.59
755.117	30.7
755.298	30.52
755.478	29.84
755.659	29.57
755.839	28.58
756.02	28.53
756.2	28.87
756.381	28.94
756.561	29.07
756.741	27.76
756.922	27.61
757.102	27.73
757.283	27.82
757.463	27.47
757.643	28.14
757.823	28.39
758.004	28.79
758.184	28.24
758.364	27.83
758.545	27.97
758.725	27.96
758.905	27.54
759.085	26.88
759.265	26.09
759.446	26.07
759.626	24.97
759.806	25.38
759.986	25.22
760.166	24.77
760.346	24.53
760.526	23.61
760.706	23.5
760.886	23.38
761.066	23.68
761.246	24.76
761.426	25.07
761.606	25.24
761.786	25.17
761.966	25.08
762.146	25.22
762.326	25.44
762.506	25.59
762.686	25.35
762.866	25.25
763.046	25.02
763.225	24.43
763.405	24.37
763.585	24.13
763.765	24.3
763.945	24.37
764.124	24.43
764.304	24.51
764.484	24.87
764.664	25.43
764.843	25.73
765.023	26.23
765.203	26.15
765.382	26.47
765.562	26.81
765.741	26.94
765.921	27.07
766.101	27.86
766.28	28.21
766.46	28.24
766.639	28.34
766.819	29.12
766.998	29.33
767.178	29.52
767.357	29.86
767.537	30.56
767.716	30.82
767.896	31.57
768.075	31.42
768.254	31.06
768.434	31.57
768.613	32.64
768.792	33.11
768.972	32.56
769.151	33.46
769.33	33.24
769.51	34.03
769.689	34.44
769.868	34.68
770.047	35.07
770.226	34.64
770.406	34.88
770.585	33.48
770.764	32.99
770.943	33.22
771.122	33.15
771.301	33.44
771.48	32.32
771.66	31.89
771.839	31.13
772.018	31.52
772.197	32.35
772.376	31.62
772.555	31.22
772.734	31.25
772.913	31.59
773.092	31.64
773.271	31.77
773.449	31.43
773.628	31.53
773.807	31.91
773.986	30.64
774.165	30.81
774.344	31.84
774.523	32.8
774.701	32.58
774.88	33
775.059	32.85
775.238	33.99
775.417	35.2
775.595	35.74
775.774	36.09
775.953	36.79
776.131	37.09
776.31	36.72
776.489	36.28
776.667	37.03
776.846	36.64
777.025	37.14
777.203	35.71
777.382	35.75
777.56	34.81
777.739	33.78
777.917	33.96
778.096	34.26
778.274	33.54
778.453	34.4
778.631	34.07
778.81	34.21
778.988	33.38
779.166	33.82
779.345	33.76
779.523	33.91
779.702	34.95
779.88	35.35
780.058	34.56
780.237	35.71
780.415	35.61
780.593	35.74
780.771	35
780.95	35.69
781.128	34.83
781.306	34.41
781.484	34.83
781.662	34.83
781.841	34.51
782.019	34.98
782.197	34.4
782.375	33.43
782.553	32.68
782.731	33.56
782.909	33.46
783.087	33.28
783.265	33.18
783.443	33.5
783.621	33.04
783.799	32.37
783.977	32.62
784.155	31.29
784.333	32.43
784.511	32.18
784.689	31.76
784.867	31.51
785.045	31.55
785.223	32.17
785.4	31.54
785.578	32.11
785.756	31.59
785.934	30.76
786.112	32.29
786.289	31.99
786.467	32.89
786.645	32.64
786.823	32.99
787	34.11
787.178	33.49
787.356	32.31
787.533	32.26
787.711	32.6
787.889	32.73
788.066	31.34
788.244	31.18
788.421	31.82
788.599	32
788.776	32.22
788.954	32.77
789.131	33.34
789.309	35.13
789.486	34.86
789.664	34.85
789.841	35.14
790.019	36.01
790.196	35.55
790.373	33.91
790.551	33.22
790.728	33.24
790.906	33.39
791.083	32.22
791.26	32.74
791.437	31.63
791.615	31.72
791.792	30.59
791.969	31.63
792.146	31.28
792.324	32.41
792.501	33.57
792.678	32.94
792.855	32.48
793.032	33.44
793.209	32.14
793.387	33.49
793.564	33.43
793.741	33.91
793.918	33.25
794.095	34.41
794.272	33.67
794.449	33.11
794.626	32.52
794.803	32.41
794.98	32.63
795.157	32.88
795.334	32
795.511	32.33
795.688	32.84
795.864	32.56
796.041	32.18
796.218	32.32
796.395	33.1
796.572	33.42
796.749	33.61
796.925	33.09
797.102	32.97
797.279	33.13
797.456	32.67
797.632	31.38
797.809	31.73
797.986	31.12
798.162	30.05
798.339	28.89
798.516	28.95
798.692	28.76
798.869	28.2
799.046	27.39
799.222	27.68
799.399	28.48
799.575	29.61
799.752	29.05
799.928	30.65
800.105	31.42
800.281	32.48
800.458	31.85
800.634	31.63
800.811	32.35
800.987	33.27
801.163	32.69
801.34	32.05
801.516	32.78
801.692	32.62
801.869	31.43
802.045	31.72
802.221	31.58
802.398	32.43
802.574	31.63
802.75	31.23
802.926	30.85
803.103	31.3
803.279	31.11
803.455	30.13
803.631	31.62
803.807	32
803.983	32.08
804.16	32.91
804.336	32.62
804.512	32.6
804.688	32.36
804.864	32.08
805.04	31.96
805.216	31.99
805.392	31.49
805.568	31.17
805.744	30.18
805.92	30.06
806.096	28.16
806.272	28.77
806.448	29.58
806.623	29.81
806.799	30.78
806.975	32.42
807.151	31.75
807.327	31.71
807.503	30.55
807.678	30.06
807.854	31.08
808.03	31.1
808.206	30.2
808.381	29.38
808.557	29.75
808.733	29.05
808.908	28.17
809.084	29.32
809.26	30.72
809.435	31.37
809.611	32.14
809.787	30.64
809.962	32.9
810.138	33.86
810.313	34.36
810.489	32.84
810.664	33.42
810.84	32.02
811.015	32.89
811.191	32.55
811.366	33.91
811.542	33.43
811.717	34.51
811.892	32.49
812.068	30.75
812.243	31.43
812.419	32.77
812.594	33.27
812.769	33.51
812.944	33.53
813.12	33.02
813.295	30.65
813.47	32.12
813.645	31.83
813.821	31.35
813.996	32.19
814.171	31.48
814.346	31.36
814.521	31.03
814.697	32.4
814.872	30.69
815.047	32.21
815.222	32.56
815.397	30.99
815.572	31.27
815.747	31.48
815.922	31.04
816.097	29.98
816.272	30.2
816.447	29.25
816.622	27.99
816.797	29.8
816.972	27.7
817.147	27.19
817.322	29.02
817.496	26.82
817.671	27.07
817.846	27.45
818.021	27.01
818.196	27.11
818.371	26.74
818.545	26.54
818.72	25.05
818.895	26.18
819.069	26.43
819.244	24.76
819.419	24.87
819.594	24.36
819.768	24.22
819.943	24.41
820.117	23.09
820.292	23.41
820.467	22.95
820.641	22.3
820.816	21.22
820.99	20.9
821.165	20.69
821.339	20.79
821.514	20.32
821.688	20.34
821.863	20.28
822.037	20.31
822.212	19.75
822.386	19.5
822.56	19.19
822.735	19.04
822.909	19.32
823.084	19.45
823.258	19.45
823.432	19.38
823.606	19.14
823.781	19.12
823.955	18.98
824.129	19.28
824.303	19.59
824.478	19.75
824.652	20.03
824.826	19.51
825	19.04
825.174	19.67
825.348	20.76
825.523	20.86
825.697	20.99
825.871	22.18
826.045	22.06
826.219	22.13
826.393	22.91
826.567	23.01
826.741	23.62
826.915	23.59
827.089	22.85
827.263	22.02
827.437	22.44
827.611	22.38
827.784	21.59
827.958	21.89
828.132	22.2
828.306	21.46
828.48	21.77
828.654	22.06
828.827	22.56
829.001	23.46
829.175	24.34
829.349	24.23
829.522	24.24
829.696	24.71
829.87	25.82
830.044	25.42
830.217	26.28
830.391	26.22
830.565	25.29
830.738	26.76
830.912	25.54
831.085	24.85
831.259	25.07
831.432	24.75
831.606	25.48
831.779	24.76
831.953	25.55
832.126	25.27
832.3	24.5
832.473	25
832.647	24.97
832.82	25.35
832.994	25.26
833.167	24.61
833.34	25.21
833.514	25.13
833.687	23.78
833.86	22.83
834.034	22.56
834.207	23.86
834.38	23.35
834.553	23.46
834.727	23.66
834.9	23.56
835.073	22.76
835.246	22.35
835.419	22.12
835.593	23.3
835.766	23.87
835.939	26.32
836.112	25.7
836.285	25.34
836.458	23.62
836.631	22.17
836.804	22.58
836.977	24.97
837.15	25.98
837.323	25.32
837.496	24.12
837.669	26.42
837.842	24.55
838.015	24.82
838.188	26.08
838.361	29.55
838.533	31.29
838.706	30.37
838.879	31.09
839.052	30.5
839.225	30.1
839.398	31.71
839.57	29.96
839.743	29.92
839.916	30.12
840.088	30.27
840.261	28.76
840.434	28.69
840.607	29.63
840.779	30
840.952	30.58
841.124	31.47
841.297	32.31
841.47	32.55
841.642	32.47
841.815	31.19
841.987	32.75
842.16	33.72
842.332	32.76
842.505	32.06
842.677	32.13
842.85	31.67
843.022	32.25
843.194	33.43
843.367	36.65
843.539	38.97
843.712	39.88
843.884	40.85
844.056	40.51
844.229	42.13
844.401	43.89
844.573	42.45
844.745	43.4
844.918	44.13
845.09	41.69
845.262	39.55
845.434	37.39
845.606	41.72
845.779	43.49
845.951	43.54
846.123	44.12
846.295	45.46
846.467	47.48
846.639	50.08
846.811	50.17
846.983	54.5
847.155	53.44
847.327	51.95
847.499	53.61
847.671	50.56
847.843	52.9
848.015	50.37
848.187	49.43
848.359	51.72
848.531	53.58
848.703	54.25
848.875	51.75
849.047	53.89
849.218	57.59
849.39	55.06
849.562	54.46
849.734	51.96
849.905	53.48
850.077	57.76
850.249	54.85
850.421	49.54
850.592	49.66
850.764	51.28
850.936	48.23
851.107	47.78
851.279	43.02
851.451	42.75
851.622	47.04
851.794	46.28
851.965	45.35
852.137	45.06
852.308	45.27
852.48	44.06
852.651	40.12
852.823	45.28
852.994	45.05
853.166	46.96
853.337	51.55
853.509	46.23
853.68	45.63
853.851	45.38
854.023	44.72
854.194	43.68
854.365	45.95
854.537	47.18
854.708	43.26
854.879	44.87
855.05	45.68
855.222	40.21
855.393	39.5
855.564	42.96
855.735	40.38
855.906	39.69
856.078	42.37
856.249	42.18
856.42	40.58
856.591	39.61
856.762	38.87
856.933	39.13
857.104	39.74
857.275	38.49
857.446	37.78
857.617	40.96
857.788	40.77
857.959	42.11
858.13	44.72
858.301	46.91
858.472	46.7
858.643	44.24
858.814	43.48
858.985	47.44
859.155	51.43
859.326	51.12
859.497	49.78
859.668	49.64
859.839	46.43
860.009	41.35
860.18	42.97
860.351	45.81
860.522	47.77
860.692	51.22
860.863	49.89
861.034	51.22
861.204	48.95
861.375	45.84
861.546	45.13
861.716	43.83
861.887	47.06
862.057	44.41
862.228	44.7
862.398	43.29
862.569	43.44
862.739	43.05
862.91	40.64
863.08	46.22
863.251	49.76
863.421	52.92
863.592	52.95
863.762	50.95
863.932	47.87
864.103	45.35
864.273	47.45
864.443	48.09
864.614	45.53
864.784	46.85
864.954	43.07
865.125	40.01
865.295	39.26
865.465	38.43
865.635	37.92
865.805	42.95
865.976	42.72
866.146	42.37
866.316	35.84
866.486	39.39
866.656	37.54
866.826	39.71
866.996	39.98
867.166	39.49
867.336	42.88
867.506	41.71
867.676	38.71
867.846	38.5
868.016	36.16
868.186	38.81
868.356	37.03
868.526	36.76
868.696	34.95
868.866	37.52
869.036	37.95
869.206	37.87
869.376	39.99
869.545	42.48
869.715	42.09
869.885	42.39
870.055	44.25
870.224	47.93
870.394	47.41
870.564	47.66
870.734	42.81
870.903	38.41
871.073	39.4
871.243	41.59
871.412	40.16
871.582	43.58
871.751	48.88
871.921	48.58
872.091	45.22
872.26	42.75
872.43	38.32
872.599	41.69
872.769	43.72
872.938	43.41
873.108	42.59
873.277	44.65
873.446	44.93
873.616	41.04
873.785	39.58
873.955	37.54
874.124	39.84
874.293	41.66
874.463	44.39
874.632	46.46
874.801	45.25
874.971	44.98
875.14	45.98
875.309	41.26
875.478	41.22
875.647	41.05
875.817	41.79
875.986	40.5
876.155	41.7
876.324	41.6
876.493	40.81
876.662	40.19
876.831	38.08
877	35.65
877.17	41.11
877.339	42.46
877.508	42.45
877.677	41.33
877.846	43.65
878.015	44.77
878.184	42.58
878.352	44.48
878.521	44.02
878.69	45.48
878.859	44.01
879.028	38.77
879.197	37.02
879.366	34.71
879.534	36.53
879.703	32.9
879.872	29.7
880.041	27.85
880.21	25.86
880.378	23.45
880.547	22.91
880.716	22.24
880.884	21.98
881.053	20.95
881.222	20.55
881.39	18.55
881.559	18.75
881.727	19.21
881.896	19.66
882.065	19.99
882.233	21.41
882.402	20.65
882.57	20.1
882.739	20.41
882.907	20.94
883.076	21.3
883.244	22.44
883.412	22.67
883.581	23.07
883.749	22.89
883.918	22.96
884.086	23.06
884.254	23.46
884.423	24.44
884.591	24.67
884.759	24.53
884.927	23.94
885.096	23.23
885.264	24.19
885.432	24.52
885.6	25.26
885.769	25.6
885.937	24.54
886.105	24.78
886.273	23.98
886.441	25.54
886.609	28.13
886.777	31.95
886.945	32.72
887.113	32.71
887.281	32.46
887.449	32.87
887.617	32.26
887.785	33.33
887.953	33.13
888.121	36.36
888.289	40.43
888.457	38.1
888.625	34.5
888.793	36.61
888.961	39.29
889.129	42.06
889.296	45.45
889.464	47.23
889.632	48.64
889.8	53.43
889.967	54.83
890.135	49.25
