Data from 2938846__Reflection_02.txt Node
Date: Wed Mar 11 14:02:22 EDT 2015
User: robert
Spectrometer: USB4E03002
Autoset integration time: false
Trigger mode: 4
Integration Time (sec): 1.000000E-1
Scans to average: 10
Electric dark correction enabled: false
Nonlinearity correction enabled: false
Boxcar width: 5
Stray light correction enabled: false
XAxis mode: Wavelengths
Stop averaging: false
Number of Pixels in Spectrum: 3648
>>>>>Begin Spectral Data<<<<<
177.575	1488.89
177.794	-941.67
178.014	-304.11
178.233	-641.18
178.452	-423.36
178.672	-137.2
178.891	-104.42
179.11	-47.71
179.33	-47.49
179.549	-52.81
179.768	-144.23
179.987	-182.65
180.207	-120.47
180.426	-173.99
180.645	-197.88
180.864	-103.48
181.084	-353.72
181.303	-1292.86
181.522	-610.62
181.741	-463.31
181.96	-635.46
182.179	-1243.1
182.398	-876.47
182.618	1003.3
182.837	1438.46
183.056	1691.49
183.275	305.71
183.494	241.87
183.713	424.85
183.932	172.93
184.151	171.39
184.37	143.88
184.589	341.72
184.808	340.88
185.027	-747.62
185.246	-151.11
185.465	-77.86
185.684	-7.57
185.903	9.97
186.122	8.9
186.341	-9.83
186.56	0
186.779	-23.04
186.998	3.11
187.216	19.01
187.435	22.54
187.654	26.63
187.873	24.76
188.092	2.57
188.311	-4.81
188.53	9.83
188.748	7.42
188.967	17.56
189.186	26.29
189.405	15.71
189.623	16.77
189.842	22.65
190.061	11.28
190.28	16.36
190.498	14.71
190.717	6.01
190.936	-5.63
191.154	-1.54
191.373	-13.1
191.592	-25.99
191.81	-28.1
192.029	-44.46
192.248	-152.51
192.466	-158.84
192.685	-171.67
192.904	-171.53
193.122	-112.03
193.341	-311.89
193.559	-328
193.778	-619.75
193.996	-272.39
194.215	-184.76
194.433	-128.8
194.652	-78.7
194.87	-109.82
195.089	-97.24
195.307	-86.81
195.526	-188.27
195.744	-66.27
195.963	-41.52
196.181	-34.24
196.399	-46.82
196.618	-64.79
196.836	-57.01
197.055	-25.11
197.273	11.05
197.491	-16.72
197.71	-49.91
197.928	-1.97
198.146	-26.43
198.365	-43.53
198.583	-27.66
198.801	-12.12
199.019	-4.79
199.238	-0.47
199.456	-12.21
199.674	-52.26
199.892	-8.04
200.111	20.64
200.329	5.18
200.547	0.93
200.765	-8.95
200.983	-52.21
201.202	-61.01
201.42	-42.36
201.638	-48.66
201.856	-66.67
202.074	-84.94
202.292	-116.84
202.51	-175.15
202.728	-214.56
202.946	-134.12
203.165	-146.08
203.383	-101.14
203.601	-157
203.819	-211.85
204.037	-220.14
204.255	-125.54
204.473	-133.19
204.691	-122.38
204.909	-133.94
205.127	-112.31
205.345	-178.57
205.562	-140.77
205.78	-149.31
205.998	-224.54
206.216	-225.37
206.434	-123.65
206.652	-102.2
206.87	-82.26
207.088	-54.6
207.306	-67.17
207.523	-62.94
207.741	-73.76
207.959	-103.77
208.177	-110.38
208.395	-94.18
208.612	-118.14
208.83	-160.54
209.048	-205.6
209.266	-156.15
209.483	-209.83
209.701	-191.28
209.919	-166.1
210.136	-182.24
210.354	-115.96
210.572	-110.95
210.79	-105.12
211.007	-81.01
211.225	-75.61
211.442	-61.2
211.66	-107.02
211.878	-83.39
212.095	-42.68
212.313	-66.57
212.53	-38.42
212.748	-19.7
212.966	-3.78
213.183	-0.1
213.401	-5.41
213.618	-4.18
213.836	-0.36
214.053	-1.96
214.271	-4.06
214.488	-14.01
214.705	-21.83
214.923	-32.12
215.14	-58.47
215.358	-59.58
215.575	-45.75
215.793	-56.07
216.01	-82.5
216.227	-70.86
216.445	-37.58
216.662	-39.09
216.879	-41.11
217.097	-20.36
217.314	-18.6
217.531	-11.19
217.749	-7.63
217.966	-3.8
218.183	13.69
218.4	13.55
218.618	7.41
218.835	3.63
219.052	4.3
219.269	11.12
219.487	-3.95
219.704	2.76
219.921	3.71
220.138	3.13
220.355	-8.09
220.572	-14.57
220.79	-7.53
221.007	-9.13
221.224	-15.34
221.441	-15.13
221.658	-10.63
221.875	-10.3
222.092	-14.62
222.309	-16.4
222.526	-19.59
222.743	-12.47
222.96	-19.68
223.177	-21.77
223.394	-21.32
223.611	-19.7
223.828	-15.16
224.045	-18.34
224.262	-15.05
224.479	-12.42
224.696	-10.71
224.913	-8.55
225.13	-6.59
225.347	-4.69
225.564	-3.87
225.781	-1.76
225.997	-1.73
226.214	-1.86
226.431	0.41
226.648	0.92
226.865	1.07
227.082	1.24
227.298	1.22
227.515	1.1
227.732	1.89
227.949	1.81
228.165	1.11
228.382	1.36
228.599	1.74
228.816	1.92
229.032	2.31
229.249	2.19
229.466	1.66
229.682	1.89
229.899	1.74
230.116	1.09
230.332	1.29
230.549	1.48
230.765	1.42
230.982	1.09
231.199	0.65
231.415	-0.39
231.632	-0.14
231.848	0.33
232.065	0.64
232.281	0.35
232.498	0.8
232.714	-1.16
232.931	-1.41
233.147	-1.05
233.364	-1.4
233.58	-1.85
233.797	-0.3
234.013	-0.33
234.23	0.49
234.446	0.65
234.662	1.36
234.879	0.9
235.095	3.07
235.312	4.08
235.528	2.45
235.744	2.54
235.961	1.87
236.177	0.63
236.393	0.49
236.61	1.57
236.826	2.79
237.042	1.63
237.258	0.5
237.475	-0.49
237.691	-1.31
237.907	0.81
238.123	0.61
238.339	2.47
238.556	2.81
238.772	2.67
238.988	1.09
239.204	-0.07
239.42	0.88
239.636	2.93
239.853	3.82
240.069	2.98
240.285	2.69
240.501	3.41
240.717	2.74
240.933	2.35
241.149	2.23
241.365	2.48
241.581	2.19
241.797	1.67
242.013	1.78
242.229	1.75
242.445	2.49
242.661	2.63
242.877	2.61
243.093	2.68
243.309	2.82
243.525	3.15
243.741	3.13
243.957	3.25
244.173	3.46
244.388	3.31
244.604	3.63
244.82	2.65
245.036	2.91
245.252	1.96
245.468	2.45
245.683	3.36
245.899	3.33
246.115	3.79
246.331	4.11
246.547	4.28
246.762	4.36
246.978	4.35
247.194	4.66
247.409	4.67
247.625	5.32
247.841	4.82
248.057	4.68
248.272	4.54
248.488	3.97
248.703	4.13
248.919	4.06
249.135	3.78
249.35	3.33
249.566	3.09
249.782	2.92
249.997	1.92
250.213	2.05
250.428	1.73
250.644	1.88
250.859	2.7
251.075	2.18
251.29	2.33
251.506	2.55
251.721	2.85
251.937	3.17
252.152	3.05
252.368	3.74
252.583	4.21
252.798	3.79
253.014	3.89
253.229	3.83
253.445	3.53
253.66	3.03
253.875	3.28
254.091	2.75
254.306	2.42
254.521	1.96
254.737	1.51
254.952	1.41
255.167	1.89
255.383	1.1
255.598	0.78
255.813	1.04
256.028	1.98
256.244	1.69
256.459	2.48
256.674	2.17
256.889	2.7
257.104	2.43
257.32	2.27
257.535	2.07
257.75	2.74
257.965	2.84
258.18	2.57
258.395	2.96
258.61	2.97
258.826	2.57
259.041	2.89
259.256	2.9
259.471	2.84
259.686	3.02
259.901	3.03
260.116	2.79
260.331	2.68
260.546	2.96
260.761	2.65
260.976	2.52
261.191	2.73
261.406	2.43
261.621	2.42
261.836	2.58
262.05	2.14
262.265	2.05
262.48	2.12
262.695	2.07
262.91	1.74
263.125	1.77
263.34	1.88
263.555	1.46
263.769	1.32
263.984	0.64
264.199	0.49
264.414	0.64
264.629	0.81
264.843	1.16
265.058	2.03
265.273	1.61
265.488	1.27
265.702	1.35
265.917	2.31
266.132	2.25
266.346	2.66
266.561	2.61
266.776	2.88
266.99	2.82
267.205	2.12
267.42	1.79
267.634	1.96
267.849	2.1
268.063	1.98
268.278	1.5
268.492	2.25
268.707	1.99
268.922	1.76
269.136	1.45
269.351	1.38
269.565	1.98
269.78	1.81
269.994	1.61
270.209	1.43
270.423	1.39
270.637	1.62
270.852	1.19
271.066	1.35
271.281	1.51
271.495	1.79
271.709	1.61
271.924	1.79
272.138	1.72
272.353	1.89
272.567	1.99
272.781	2.1
272.996	1.48
273.21	1.65
273.424	1.87
273.638	1.92
273.853	1.77
274.067	2.3
274.281	2.36
274.495	2.53
274.71	2.49
274.924	2.68
275.138	3.05
275.352	3.85
275.566	3.82
275.781	3.82
275.995	3.48
276.209	3
276.423	2.7
276.637	2.34
276.851	2.44
277.065	2.52
277.279	2.31
277.493	2.07
277.707	1.82
277.921	1.79
278.135	1.31
278.349	1.61
278.563	1.89
278.777	1.99
278.991	2.12
279.205	1.6
279.419	1.9
279.633	1.9
279.847	1.88
280.061	1.84
280.275	1.73
280.489	1.57
280.703	1.65
280.917	2
281.131	2.02
281.344	1.97
281.558	2.33
281.772	2.09
281.986	2.44
282.2	2.22
282.414	2.19
282.627	2.46
282.841	2.93
283.055	2.79
283.269	2.64
283.482	2.69
283.696	2.8
283.91	2.47
284.123	2.53
284.337	2.19
284.551	2.46
284.764	2.34
284.978	2.2
285.192	2.18
285.405	2.23
285.619	2.19
285.833	2
286.046	2.03
286.26	2.33
286.473	2.36
286.687	2.36
286.9	2.67
287.114	2.92
287.327	2.98
287.541	2.93
287.754	2.93
287.968	2.82
288.181	3.12
288.395	2.87
288.608	2.59
288.822	2.59
289.035	2.65
289.248	2.24
289.462	2.45
289.675	2.67
289.889	2.84
290.102	3.1
290.315	3.3
290.529	3.3
290.742	3.39
290.955	3.56
291.169	3.76
291.382	4.06
291.595	4.11
291.808	4.24
292.022	3.86
292.235	3.39
292.448	3.27
292.661	3.28
292.875	3.03
293.088	3.35
293.301	3.13
293.514	3.22
293.727	3.12
293.94	3.25
294.153	2.59
294.367	3.01
294.58	3.39
294.793	3.35
295.006	3.32
295.219	3.51
295.432	3.3
295.645	3.61
295.858	3.6
296.071	3.57
296.284	3.62
296.497	3.72
296.71	3.55
296.923	3.64
297.136	3.78
297.349	3.76
297.562	3.8
297.775	4
297.988	4.16
298.201	4.05
298.414	4.19
298.626	4.2
298.839	4.37
299.052	4.5
299.265	4.43
299.478	4.61
299.691	4.72
299.903	4.7
300.116	4.48
300.329	4.18
300.542	4.13
300.755	4.29
300.967	4.43
301.18	4.67
301.393	4.77
301.605	5
301.818	4.79
302.031	5.21
302.243	5.24
302.456	5.41
302.669	5.36
302.881	5.55
303.094	5.39
303.307	5.43
303.519	5.25
303.732	5.32
303.944	5.23
304.157	5.26
304.37	5.04
304.582	5.07
304.795	5.13
305.007	5.25
305.22	5.41
305.432	5.39
305.645	5.22
305.857	5.24
306.069	5.23
306.282	5.52
306.494	5.64
306.707	5.63
306.919	5.73
307.132	5.64
307.344	6.03
307.556	5.8
307.769	5.75
307.981	6.13
308.193	6.23
308.406	6.11
308.618	6.13
308.83	6.15
309.043	6.23
309.255	6.36
309.467	6.24
309.679	6.05
309.892	6.13
310.104	6.32
310.316	6.23
310.528	6.42
310.74	6.59
310.953	6.54
311.165	6.42
311.377	6.55
311.589	6.63
311.801	6.72
312.013	6.84
312.225	6.77
312.437	6.71
312.649	6.67
312.862	6.39
313.074	6.54
313.286	6.22
313.498	6.62
313.71	6.87
313.922	6.61
314.134	6.82
314.346	6.77
314.558	7.01
314.77	6.87
314.982	7.05
315.193	7.04
315.405	6.57
315.617	6.44
315.829	6.11
316.041	5.79
316.253	5.78
316.465	5.77
316.677	5.74
316.888	5.75
317.1	6.19
317.312	5.97
317.524	6.46
317.736	6.2
317.947	7.1
318.159	7.13
318.371	6.86
318.583	7.42
318.794	7.65
319.006	7.72
319.218	7.59
319.43	7.32
319.641	7.15
319.853	6.8
320.064	7.31
320.276	7.18
320.488	7.51
320.699	7.92
320.911	7.76
321.123	7.4
321.334	7.37
321.546	7.49
321.757	7.4
321.969	7.95
322.18	7.98
322.392	8.14
322.603	7.62
322.815	7.61
323.026	7.51
323.238	7.07
323.449	7.46
323.661	7.49
323.872	7.81
324.083	8.06
324.295	7.81
324.506	7.74
324.718	7.86
324.929	8.23
325.14	8.17
325.352	8.29
325.563	8.85
325.774	8.79
325.986	8.97
326.197	8.6
326.408	8.56
326.62	8.76
326.831	9.08
327.042	9.18
327.253	9.23
327.464	9.28
327.676	9.15
327.887	8.98
328.098	9.13
328.309	9.3
328.52	9.3
328.732	9.37
328.943	9.32
329.154	9.51
329.365	9.15
329.576	9.09
329.787	9.19
329.998	9.38
330.209	9.77
330.42	9.83
330.631	9.73
330.842	9.85
331.053	9.72
331.264	9.79
331.475	9.85
331.686	9.97
331.897	9.93
332.108	9.67
332.319	9.74
332.53	9.46
332.741	9.08
332.952	9.05
333.163	9.3
333.374	9.54
333.585	9.4
333.795	9.61
334.006	9.84
334.217	9.98
334.428	10.28
334.639	10.18
334.849	10.39
335.06	10.84
335.271	10.78
335.482	10.88
335.692	10.97
335.903	11.16
336.114	11.18
336.325	10.91
336.535	10.77
336.746	10.79
336.957	10.73
337.167	10.63
337.378	10.26
337.589	10.4
337.799	10.12
338.01	9.94
338.22	9.87
338.431	9.68
338.642	9.7
338.852	10.04
339.063	9.86
339.273	10.1
339.484	9.86
339.694	10.02
339.905	9.95
340.115	10.13
340.326	10.11
340.536	9.98
340.746	9.8
340.957	10.06
341.167	10.04
341.378	10.06
341.588	9.96
341.799	10.3
342.009	10.28
342.219	10.15
342.43	10.29
342.64	10.21
342.85	10.1
343.061	10.23
343.271	10.04
343.481	9.65
343.691	9.63
343.902	9.71
344.112	9.53
344.322	9.63
344.532	9.9
344.743	9.65
344.953	9.42
345.163	9.5
345.373	9.46
345.583	9.63
345.793	10.03
346.004	10.15
346.214	9.87
346.424	9.96
346.634	9.97
346.844	10.03
347.054	9.97
347.264	10.29
347.474	10.31
347.684	10.26
347.894	10.16
348.104	9.83
348.314	9.59
348.524	9.81
348.734	9.77
348.944	9.91
349.154	9.78
349.364	9.79
349.574	9.93
349.784	9.95
349.994	9.94
350.204	9.88
350.413	9.89
350.623	9.74
350.833	9.79
351.043	9.51
351.253	9.22
351.463	9.41
351.672	9.59
351.882	9.5
352.092	9.5
352.302	9.5
352.511	9.63
352.721	9.56
352.931	10.03
353.141	9.82
353.35	9.78
353.56	9.87
353.77	9.96
353.979	9.88
354.189	10.16
354.399	9.98
354.608	10.08
354.818	10
355.027	10.29
355.237	9.99
355.447	9.97
355.656	10.09
355.866	9.83
356.075	9.52
356.285	9.6
356.494	9.67
356.704	9.89
356.913	9.91
357.123	9.85
357.332	9.74
357.542	9.69
357.751	9.81
357.96	9.77
358.17	9.94
358.379	9.95
358.589	9.81
358.798	9.42
359.007	9.55
359.217	9.45
359.426	9.67
359.635	9.62
359.845	9.53
360.054	9.58
360.263	9.85
360.472	10.01
360.682	10.03
360.891	10.14
361.1	10.29
361.309	10.16
361.519	10.19
361.728	10.08
361.937	10.1
362.146	10.29
362.355	10.24
362.564	10.1
362.774	10.07
362.983	9.99
363.192	9.95
363.401	10
363.61	10.04
363.819	9.93
364.028	9.99
364.237	9.89
364.446	9.96
364.655	9.97
364.864	10
365.073	9.87
365.282	9.88
365.491	9.82
365.7	9.57
365.909	9.37
366.118	9.23
366.327	9.18
366.536	9.28
366.745	8.99
366.954	9.06
367.162	9.03
367.371	8.89
367.58	8.85
367.789	8.9
367.998	8.91
368.207	8.73
368.415	8.63
368.624	8.53
368.833	8.37
369.042	8.57
369.25	8.19
369.459	8.12
369.668	8.29
369.877	8.29
370.085	8.23
370.294	8.14
370.503	8.31
370.711	8.41
370.92	8.27
371.129	8.28
371.337	8.16
371.546	8.34
371.754	8.18
371.963	8.1
372.171	7.94
372.38	7.82
372.589	7.82
372.797	7.85
373.006	7.87
373.214	8.03
373.423	8.15
373.631	8.17
373.84	8.03
374.048	8.24
374.256	8.35
374.465	8.37
374.673	8.28
374.882	8.15
375.09	8.12
375.298	8.12
375.507	7.92
375.715	7.72
375.923	7.49
376.132	7.58
376.34	7.46
376.548	7.1
376.757	7.12
376.965	7.09
377.173	7.35
377.381	7.32
377.59	7.15
377.798	7.24
378.006	7.19
378.214	7.41
378.423	7.35
378.631	7.28
378.839	7.39
379.047	7.36
379.255	7.43
379.463	7.15
379.671	6.99
379.879	7.15
380.088	7.06
380.296	7.21
380.504	7.39
380.712	7.19
380.92	7.03
381.128	6.76
381.336	6.83
381.544	6.83
381.752	6.88
381.96	7.24
382.168	7.27
382.376	7.11
382.584	7.01
382.791	6.68
382.999	6.66
383.207	6.86
383.415	6.88
383.623	6.63
383.831	6.61
384.039	6.67
384.247	6.29
384.454	6.31
384.662	6.47
384.87	6.28
385.078	6.33
385.285	6.49
385.493	6.33
385.701	6.37
385.909	6.54
386.116	6.63
386.324	6.57
386.532	6.65
386.739	6.43
386.947	6.34
387.155	6.42
387.362	6.39
387.57	6.22
387.778	6.18
387.985	6.1
388.193	6.04
388.4	5.57
388.608	5.35
388.816	5.39
389.023	5.29
389.231	5.13
389.438	5.06
389.646	4.94
389.853	4.82
390.061	4.9
390.268	4.98
390.475	4.9
390.683	5.21
390.89	5.34
391.098	5.21
391.305	5.26
391.512	5.31
391.72	5.4
391.927	5.32
392.135	5.48
392.342	5.46
392.549	5.58
392.756	5.6
392.964	5.54
393.171	5.61
393.378	5.64
393.586	5.69
393.793	5.6
394	5.43
394.207	5.55
394.414	5.59
394.622	5.4
394.829	5.26
395.036	5.08
395.243	5.14
395.45	5.13
395.657	5.16
395.864	5.04
396.072	5.04
396.279	5.11
396.486	4.89
396.693	4.74
396.9	4.67
397.107	4.66
397.314	4.93
397.521	4.63
397.728	4.53
397.935	4.54
398.142	4.6
398.349	4.68
398.556	4.57
398.763	4.52
398.97	4.46
399.177	4.59
399.383	4.59
399.59	4.48
399.797	4.61
400.004	4.54
400.211	4.38
400.418	4.36
400.625	4.5
400.831	4.44
401.038	4.53
401.245	4.63
401.452	4.68
401.658	4.72
401.865	4.6
402.072	4.61
402.279	4.55
402.485	4.48
402.692	4.42
402.899	4.26
403.105	4.51
403.312	4.57
403.519	4.53
403.725	4.44
403.932	4.41
404.138	4.43
404.345	4.33
404.552	4.3
404.758	4.24
404.965	4.28
405.171	4.25
405.378	4.2
405.584	4.13
405.791	4.27
405.997	4.28
406.204	4.18
406.41	4.16
406.617	4.3
406.823	4.36
407.029	4.53
407.236	4.52
407.442	4.43
407.649	4.15
407.855	3.97
408.061	3.66
408.268	3.56
408.474	3.52
408.68	3.61
408.887	3.41
409.093	3.44
409.299	3.44
409.505	3.32
409.712	3.34
409.918	3.54
410.124	3.8
410.33	3.88
410.537	3.97
410.743	4.02
410.949	4.03
411.155	4.01
411.361	3.93
411.567	3.85
411.773	3.98
411.98	4.07
412.186	3.97
412.392	3.88
412.598	4
412.804	4.01
413.01	4.07
413.216	4.08
413.422	4.24
413.628	4.12
413.834	4.01
414.04	3.77
414.246	3.65
414.452	3.69
414.658	3.64
414.864	3.5
415.07	3.39
415.275	3.37
415.481	3.31
415.687	3.37
415.893	3.5
416.099	3.47
416.305	3.6
416.511	3.61
416.716	3.48
416.922	3.55
417.128	3.56
417.334	3.72
417.539	3.77
417.745	3.74
417.951	3.73
418.157	3.66
418.362	3.8
418.568	3.73
418.774	3.75
418.979	3.79
419.185	3.76
419.391	3.89
419.596	3.85
419.802	3.81
420.008	3.79
420.213	3.79
420.419	3.76
420.624	3.71
420.83	3.72
421.035	3.74
421.241	3.83
421.446	3.82
421.652	3.73
421.857	3.71
422.063	3.65
422.268	3.66
422.474	3.67
422.679	3.74
422.885	3.71
423.09	3.77
423.295	3.73
423.501	3.64
423.706	3.6
423.911	3.57
424.117	3.57
424.322	3.66
424.527	3.66
424.733	3.69
424.938	3.71
425.143	3.68
425.349	3.65
425.554	3.74
425.759	3.79
425.964	3.85
426.169	3.88
426.375	3.79
426.58	3.71
426.785	3.69
426.99	3.61
427.195	3.57
427.4	3.67
427.605	3.56
427.811	3.51
428.016	3.48
428.221	3.49
428.426	3.43
428.631	3.6
428.836	3.56
429.041	3.58
429.246	3.57
429.451	3.55
429.656	3.54
429.861	3.6
430.066	3.48
430.271	3.43
430.476	3.47
430.681	3.31
430.886	3.24
431.09	3.15
431.295	3.07
431.5	3.05
431.705	3.11
431.91	3.04
432.115	3.11
432.32	3.17
432.524	3.19
432.729	3.15
432.934	3.26
433.139	3.24
433.343	3.46
433.548	3.49
433.753	3.51
433.958	3.5
434.162	3.58
434.367	3.53
434.572	3.49
434.776	3.53
434.981	3.53
435.186	3.62
435.39	3.68
435.595	3.59
435.799	3.59
436.004	3.55
436.209	3.59
436.413	3.48
436.618	3.49
436.822	3.55
437.027	3.53
437.231	3.55
437.436	3.56
437.64	3.5
437.845	3.5
438.049	3.62
438.253	3.61
438.458	3.52
438.662	3.58
438.867	3.56
439.071	3.53
439.275	3.59
439.48	3.63
439.684	3.56
439.888	3.52
440.093	3.58
440.297	3.49
440.501	3.54
440.706	3.56
440.91	3.53
441.114	3.58
441.318	3.55
441.523	3.5
441.727	3.46
441.931	3.48
442.135	3.46
442.339	3.38
442.543	3.36
442.748	3.29
442.952	3.33
443.156	3.37
443.36	3.33
443.564	3.38
443.768	3.35
443.972	3.39
444.176	3.42
444.38	3.41
444.584	3.47
444.788	3.47
444.992	3.48
445.196	3.45
445.4	3.44
445.604	3.51
445.808	3.57
446.012	3.59
446.216	3.52
446.42	3.49
446.624	3.5
446.828	3.41
447.032	3.43
447.235	3.39
447.439	3.41
447.643	3.36
447.847	3.3
448.051	3.2
448.254	3.18
448.458	3.16
448.662	3.16
448.866	3.22
449.069	3.27
449.273	3.32
449.477	3.34
449.681	3.28
449.884	3.38
450.088	3.4
450.292	3.4
450.495	3.43
450.699	3.47
450.902	3.5
451.106	3.46
451.31	3.48
451.513	3.47
451.717	3.47
451.92	3.51
452.124	3.51
452.327	3.41
452.531	3.43
452.734	3.34
452.938	3.3
453.141	3.3
453.345	3.36
453.548	3.4
453.752	3.39
453.955	3.31
454.158	3.27
454.362	3.19
454.565	3.28
454.769	3.29
454.972	3.33
455.175	3.38
455.379	3.31
455.582	3.25
455.785	3.16
455.988	3.22
456.192	3.39
456.395	3.41
456.598	3.43
456.801	3.43
457.005	3.5
457.208	3.5
457.411	3.46
457.614	3.55
457.817	3.57
458.021	3.64
458.224	3.47
458.427	3.37
458.63	3.33
458.833	3.31
459.036	3.27
459.239	3.2
459.442	3.2
459.645	3.15
459.848	3.14
460.051	3.1
460.254	3.11
460.457	3.13
460.66	3.15
460.863	3.2
461.066	3.29
461.269	3.33
461.472	3.37
461.675	3.35
461.878	3.35
462.081	3.3
462.284	3.31
462.486	3.22
462.689	3.32
462.892	3.32
463.095	3.28
463.298	3.27
463.5	3.29
463.703	3.27
463.906	3.24
464.109	3.31
464.311	3.25
464.514	3.22
464.717	3.23
464.92	3.14
465.122	3.21
465.325	3.25
465.528	3.07
465.73	3.08
465.933	3.1
466.135	3.14
466.338	3.19
466.541	3.25
466.743	3.28
466.946	3.29
467.148	3.4
467.351	3.43
467.553	3.36
467.756	3.53
467.958	3.6
468.161	3.58
468.363	3.56
468.566	3.49
468.768	3.53
468.971	3.5
469.173	3.54
469.375	3.48
469.578	3.45
469.78	3.52
469.983	3.49
470.185	3.29
470.387	3.28
470.59	3.34
470.792	3.33
470.994	3.39
471.196	3.4
471.399	3.38
471.601	3.4
471.803	3.29
472.005	3.3
472.208	3.25
472.41	3.36
472.612	3.4
472.814	3.4
473.016	3.49
473.218	3.4
473.421	3.5
473.623	3.49
473.825	3.6
474.027	3.63
474.229	3.59
474.431	3.53
474.633	3.5
474.835	3.61
475.037	3.58
475.239	3.57
475.441	3.64
475.643	3.53
475.845	3.53
476.047	3.45
476.249	3.47
476.451	3.5
476.653	3.63
476.855	3.63
477.057	3.52
477.258	3.51
477.46	3.49
477.662	3.48
477.864	3.44
478.066	3.47
478.268	3.45
478.469	3.49
478.671	3.51
478.873	3.45
479.075	3.46
479.276	3.54
479.478	3.52
479.68	3.48
479.882	3.5
480.083	3.56
480.285	3.58
480.487	3.53
480.688	3.48
480.89	3.5
481.091	3.48
481.293	3.45
481.495	3.38
481.696	3.43
481.898	3.49
482.099	3.5
482.301	3.47
482.502	3.45
482.704	3.49
482.905	3.5
483.107	3.47
483.308	3.5
483.51	3.5
483.711	3.5
483.913	3.49
484.114	3.49
484.315	3.47
484.517	3.48
484.718	3.48
484.92	3.44
485.121	3.43
485.322	3.41
485.524	3.39
485.725	3.41
485.926	3.43
486.127	3.4
486.329	3.38
486.53	3.37
486.731	3.39
486.932	3.37
487.134	3.38
487.335	3.41
487.536	3.43
487.737	3.4
487.938	3.39
488.139	3.35
488.341	3.36
488.542	3.37
488.743	3.38
488.944	3.4
489.145	3.41
489.346	3.45
489.547	3.39
489.748	3.41
489.949	3.45
490.15	3.49
490.351	3.52
490.552	3.54
490.753	3.56
490.954	3.57
491.155	3.57
491.356	3.62
491.557	3.64
491.758	3.7
491.959	3.67
492.159	3.67
492.36	3.63
492.561	3.61
492.762	3.59
492.963	3.6
493.164	3.63
493.364	3.64
493.565	3.64
493.766	3.65
493.967	3.65
494.167	3.7
494.368	3.71
494.569	3.77
494.769	3.82
494.97	3.89
495.171	3.86
495.371	3.87
495.572	3.86
495.773	3.84
495.973	3.83
496.174	3.84
496.375	3.89
496.575	3.99
496.776	4
496.976	4.06
497.177	4.06
497.377	4.04
497.578	4.03
497.778	4.02
497.979	4.01
498.179	4.03
498.38	4.03
498.58	4.01
498.78	3.96
498.981	3.91
499.181	3.85
499.382	3.89
499.582	3.93
499.782	3.92
499.983	3.91
500.183	3.97
500.383	3.92
500.584	3.92
500.784	3.95
500.984	3.91
501.184	4.02
501.385	4.11
501.585	4.14
501.785	4.2
501.985	4.28
502.185	4.37
502.386	4.4
502.586	4.47
502.786	4.56
502.986	4.51
503.186	4.57
503.386	4.58
503.586	4.63
503.786	4.7
503.987	4.68
504.187	4.64
504.387	4.62
504.587	4.56
504.787	4.61
504.987	4.66
505.187	4.77
505.387	4.81
505.587	4.84
505.786	4.86
505.986	4.82
506.186	4.89
506.386	4.95
506.586	5.03
506.786	5.16
506.986	5.14
507.186	5.13
507.386	5.16
507.585	5.25
507.785	5.34
507.985	5.4
508.185	5.44
508.384	5.54
508.584	5.61
508.784	5.65
508.984	5.76
509.183	5.85
509.383	5.9
509.583	5.89
509.782	5.93
509.982	5.95
510.182	5.96
510.381	6.05
510.581	6.06
510.781	6.14
510.98	6.1
511.18	6.1
511.379	6.09
511.579	6.19
511.778	6.28
511.978	6.34
512.177	6.41
512.377	6.57
512.576	6.63
512.776	6.7
512.975	6.76
513.175	6.91
513.374	6.98
513.573	7.07
513.773	7.12
513.972	7.2
514.172	7.2
514.371	7.29
514.57	7.23
514.77	7.3
514.969	7.28
515.168	7.29
515.367	7.4
515.567	7.49
515.766	7.58
515.965	7.66
516.164	7.72
516.364	7.79
516.563	7.84
516.762	7.96
516.961	8.01
517.16	8.19
517.359	8.28
517.559	8.31
517.758	8.36
517.957	8.47
518.156	8.51
518.355	8.55
518.554	8.64
518.753	8.71
518.952	8.74
519.151	8.79
519.35	8.81
519.549	8.83
519.748	8.91
519.947	8.98
520.146	9.03
520.345	9.1
520.544	9.21
520.743	9.31
520.942	9.37
521.141	9.46
521.339	9.59
521.538	9.65
521.737	9.84
521.936	9.86
522.135	9.9
522.333	9.95
522.532	10.07
522.731	10.17
522.93	10.28
523.129	10.37
523.327	10.51
523.526	10.59
523.725	10.67
523.923	10.61
524.122	10.75
524.321	10.88
524.519	10.93
524.718	10.99
524.917	11.08
525.115	11.11
525.314	11.17
525.512	11.2
525.711	11.24
525.909	11.33
526.108	11.49
526.306	11.5
526.505	11.59
526.703	11.72
526.902	11.75
527.1	11.78
527.299	11.83
527.497	11.89
527.696	11.92
527.894	11.98
528.092	12.04
528.291	12.07
528.489	12.14
528.688	12.14
528.886	12.17
529.084	12.23
529.283	12.26
529.481	12.33
529.679	12.34
529.877	12.39
530.076	12.44
530.274	12.48
530.472	12.56
530.67	12.64
530.869	12.69
531.067	12.75
531.265	12.82
531.463	12.95
531.661	13.05
531.859	13.18
532.057	13.24
532.255	13.33
532.454	13.42
532.652	13.45
532.85	13.51
533.048	13.57
533.246	13.63
533.444	13.64
533.642	13.65
533.84	13.65
534.038	13.66
534.236	13.73
534.434	13.73
534.632	13.76
534.83	13.79
535.027	13.83
535.225	13.88
535.423	13.9
535.621	13.99
535.819	14.13
536.017	14.14
536.215	14.17
536.412	14.23
536.61	14.25
536.808	14.29
537.006	14.38
537.203	14.44
537.401	14.46
537.599	14.52
537.797	14.58
537.994	14.58
538.192	14.66
538.39	14.79
538.587	14.88
538.785	15.02
538.983	15.11
539.18	15.17
539.378	15.24
539.575	15.4
539.773	15.52
539.97	15.56
540.168	15.59
540.366	15.68
540.563	15.72
540.761	15.79
540.958	15.87
541.155	15.91
541.353	15.98
541.55	16.06
541.748	16.1
541.945	16.15
542.143	16.2
542.34	16.23
542.537	16.24
542.735	16.33
542.932	16.41
543.129	16.4
543.327	16.44
543.524	16.51
543.721	16.59
543.919	16.74
544.116	16.85
544.313	16.93
544.51	17.12
544.708	17.35
544.905	17.48
545.102	17.48
545.299	17.71
545.496	17.84
545.693	17.88
545.891	17.9
546.088	17.84
546.285	17.82
546.482	17.92
546.679	17.94
546.876	17.85
547.073	17.78
547.27	17.85
547.467	17.74
547.664	17.72
547.861	17.75
548.058	17.74
548.255	17.72
548.452	17.69
548.649	17.7
548.846	17.6
549.043	17.63
549.24	17.62
549.437	17.63
549.633	17.69
549.83	17.61
550.027	17.61
550.224	17.62
550.421	17.67
550.618	17.66
550.814	17.56
551.011	17.63
551.208	17.66
551.405	17.68
551.601	17.62
551.798	17.61
551.995	17.57
552.191	17.57
552.388	17.57
552.585	17.54
552.781	17.66
552.978	17.74
553.175	17.76
553.371	17.77
553.568	17.91
553.764	17.98
553.961	17.94
554.157	18.09
554.354	18.19
554.55	18.11
554.747	18.18
554.943	18.23
555.14	18.22
555.336	18.16
555.533	18.16
555.729	18.05
555.926	17.95
556.122	17.99
556.318	17.89
556.515	17.84
556.711	17.93
556.907	18.05
557.104	17.96
557.3	17.97
557.496	18.01
557.693	17.98
557.889	18.15
558.085	18.29
558.281	18.41
558.478	18.57
558.674	18.62
558.87	18.7
559.066	18.59
559.262	18.58
559.459	18.67
559.655	18.76
559.851	18.88
560.047	18.75
560.243	18.8
560.439	18.73
560.635	18.66
560.831	18.63
561.027	18.73
561.223	18.82
561.419	18.91
561.615	18.82
561.811	18.84
562.007	18.82
562.203	18.9
562.399	18.88
562.595	18.88
562.791	19.05
562.987	19.24
563.183	19.12
563.379	19.06
563.575	18.98
563.771	19.08
563.966	19
564.162	19.02
564.358	19.09
564.554	19.15
564.75	19.26
564.945	19.21
565.141	19.17
565.337	19.27
565.533	19.29
565.728	19.35
565.924	19.36
566.12	19.4
566.315	19.41
566.511	19.43
566.707	19.44
566.902	19.44
567.098	19.42
567.293	19.3
567.489	19.29
567.684	19.44
567.88	19.59
568.076	19.65
568.271	19.85
568.467	19.87
568.662	19.87
568.858	19.93
569.053	19.95
569.248	20.09
569.444	20.17
569.639	20.23
569.835	20.25
570.03	20.19
570.225	20.28
570.421	20.15
570.616	20.19
570.812	20.29
571.007	20.32
571.202	20.31
571.397	20.22
571.593	20.28
571.788	20.32
571.983	20.3
572.178	20.34
572.374	20.38
572.569	20.46
572.764	20.41
572.959	20.41
573.154	20.44
573.35	20.51
573.545	20.61
573.74	20.64
573.935	20.67
574.13	20.62
574.325	20.55
574.52	20.56
574.715	20.59
574.91	20.65
575.105	20.63
575.3	20.68
575.495	20.7
575.69	20.66
575.885	20.7
576.08	20.73
576.275	20.88
576.47	20.99
576.665	21.04
576.86	21.02
577.055	21.08
577.25	21.15
577.444	21.19
577.639	21.29
577.834	21.56
578.029	21.57
578.224	21.64
578.418	21.63
578.613	21.69
578.808	21.67
579.003	21.82
579.197	21.97
579.392	22
579.587	21.96
579.781	21.94
579.976	21.78
580.171	21.97
580.365	21.94
580.56	21.95
580.755	21.98
580.949	22.1
581.144	22.01
581.338	22
581.533	22.01
581.727	22.11
581.922	22.08
582.116	22.19
582.311	22.08
582.505	22.16
582.7	22.21
582.894	22.3
583.089	22.21
583.283	22.31
583.478	22.32
583.672	22.38
583.866	22.27
584.061	22.45
584.255	22.35
584.449	22.39
584.644	22.42
584.838	22.49
585.032	22.51
585.226	22.57
585.421	22.66
585.615	22.77
585.809	22.84
586.003	23.04
586.198	22.97
586.392	23.09
586.586	23.19
586.78	23.18
586.974	23.23
587.168	23.04
587.363	22.95
587.557	22.77
587.751	22.68
587.945	22.55
588.139	22.44
588.333	22.35
588.527	22.2
588.721	21.97
588.915	22.03
589.109	21.99
589.303	22.12
589.497	22.08
589.691	22.14
589.885	22.18
590.079	22.22
590.273	22.26
590.466	22.41
590.66	22.57
590.854	22.79
591.048	22.77
591.242	22.86
591.436	22.85
591.629	23.02
591.823	23.18
592.017	23.2
592.211	23.37
592.404	23.45
592.598	23.47
592.792	23.4
592.986	23.3
593.179	23.27
593.373	23.14
593.567	23.13
593.76	23.02
593.954	22.88
594.147	22.9
594.341	22.82
594.535	22.77
594.728	22.75
594.922	22.8
595.115	22.74
595.309	22.7
595.502	22.63
595.696	22.51
595.889	22.35
596.083	22.27
596.276	22.2
596.47	22.09
596.663	22.02
596.856	21.93
597.05	21.93
597.243	21.91
597.437	21.88
597.63	21.91
597.823	22.13
598.017	22.38
598.21	22.65
598.403	22.7
598.596	22.81
598.79	22.9
598.983	23.05
599.176	23.17
599.369	23.38
599.563	23.5
599.756	23.6
599.949	23.55
600.142	23.49
600.335	23.27
600.528	23.36
600.722	23.34
600.915	23.3
601.108	23.14
601.301	22.96
601.494	22.79
601.687	22.62
601.88	22.7
602.073	22.59
602.266	22.56
602.459	22.45
602.652	22.37
602.845	22.32
603.038	22.27
603.231	22.27
603.424	22.29
603.617	22.34
603.809	22.34
604.002	22.19
604.195	22.22
604.388	22.14
604.581	22.37
604.774	22.39
604.966	22.38
605.159	22.38
605.352	22.45
605.545	22.49
605.737	22.49
605.93	22.57
606.123	22.67
606.316	22.77
606.508	22.86
606.701	22.75
606.894	22.86
607.086	23.05
607.279	23.2
607.471	23.27
607.664	23.31
607.857	23.39
608.049	23.68
608.242	23.93
608.434	24.33
608.627	24.97
608.819	25.53
609.012	26.07
609.204	26.86
609.397	27.69
609.589	28.57
609.782	29.49
609.974	30.61
610.166	31.52
610.359	32.47
610.551	33.29
610.743	33.97
610.936	34.55
611.128	34.99
611.32	35.11
611.513	35.2
611.705	35.39
611.897	35.19
612.09	34.74
612.282	34.31
612.474	33.87
612.666	33.42
612.858	32.91
613.051	32.5
613.243	32.01
613.435	31.56
613.627	31.3
613.819	30.71
614.011	30.58
614.203	30.12
614.395	29.74
614.588	29.49
614.78	29.02
614.972	28.43
615.164	27.93
615.356	27.53
615.548	27.37
615.74	26.9
615.932	26.47
616.124	26.01
616.315	25.91
616.507	25.9
616.699	25.4
616.891	25.2
617.083	25.26
617.275	25.27
617.467	25.32
617.659	25.14
617.85	24.96
618.042	25
618.234	24.94
618.426	24.87
618.618	24.55
618.809	24.64
619.001	24.65
619.193	24.65
619.384	24.56
619.576	24.47
619.768	24.36
619.959	24.41
620.151	24.47
620.343	24.47
620.534	24.41
620.726	24.61
620.917	24.57
621.109	24.6
621.301	24.5
621.492	24.4
621.684	24.39
621.875	24.53
622.067	24.48
622.258	24.4
622.45	24.47
622.641	24.56
622.832	24.37
623.024	24.38
623.215	24.38
623.407	24.45
623.598	24.39
623.789	24.32
623.981	24.3
624.172	24.35
624.363	24.48
624.555	24.3
624.746	24.35
624.937	24.48
625.129	24.45
625.32	24.51
625.511	24.47
625.702	24.62
625.893	24.74
626.085	24.73
626.276	24.7
626.467	24.59
626.658	24.77
626.849	24.65
627.04	24.66
627.231	24.68
627.422	24.71
627.614	24.8
627.805	24.94
627.996	24.95
628.187	24.9
628.378	25.21
628.569	25.36
628.76	25.39
628.951	25.52
629.142	25.73
629.332	25.87
629.523	25.94
629.714	25.82
629.905	25.62
630.096	25.72
630.287	25.9
630.478	25.64
630.669	25.68
630.859	25.68
631.05	25.68
631.241	25.61
631.432	25.62
631.623	25.33
631.813	25.38
632.004	25.44
632.195	25.19
632.385	24.96
632.576	24.95
632.767	24.84
632.957	24.71
633.148	24.5
633.339	24.12
633.529	23.99
633.72	24.09
633.91	24.02
634.101	23.77
634.292	23.82
634.482	23.76
634.673	23.76
634.863	23.62
635.054	23.62
635.244	23.67
635.435	23.89
635.625	23.85
635.815	23.69
636.006	23.64
636.196	23.71
636.387	23.75
636.577	23.78
636.767	23.55
636.958	23.59
637.148	23.5
637.338	23.62
637.529	23.49
637.719	23.48
637.909	23.55
638.099	23.68
638.29	23.81
638.48	23.74
638.67	23.96
638.86	24.1
639.05	24.06
639.241	23.98
639.431	23.86
639.621	23.8
639.811	23.76
640.001	23.77
640.191	23.61
640.381	23.62
640.571	23.68
640.761	23.6
640.951	23.44
641.141	23.64
641.331	23.69
641.521	23.79
641.711	23.83
641.901	23.98
642.091	24.06
642.281	24.12
642.471	24.17
642.661	24.14
642.851	24.25
643.041	24.47
643.231	24.25
643.42	24.46
643.61	24.31
643.8	24.37
643.99	24.15
644.18	23.98
644.369	24.1
644.559	24.05
644.749	24.05
644.939	23.85
645.128	23.85
645.318	23.88
645.508	23.6
645.697	23.72
645.887	23.77
646.076	23.95
646.266	23.96
646.456	23.74
646.645	23.61
646.835	23.46
647.024	23.57
647.214	23.51
647.403	23.4
647.593	23.57
647.782	23.52
647.972	23.51
648.161	23.37
648.351	23.6
648.54	23.82
648.73	24.07
648.919	24.13
649.108	24.23
649.298	24.23
649.487	24.42
649.677	24.71
649.866	24.94
650.055	25.16
650.244	25.3
650.434	25.25
650.623	25.2
650.812	25.12
651.002	25.17
651.191	25.12
651.38	25.19
651.569	25.14
651.758	25
651.947	24.89
652.137	24.79
652.326	24.82
652.515	24.74
652.704	24.77
652.893	24.82
653.082	25.08
653.271	24.97
653.46	24.98
653.649	25.08
653.838	25.06
654.027	24.84
654.216	24.63
654.405	24.59
654.594	24.51
654.783	24.39
654.972	24.43
655.161	24.12
655.35	24.19
655.539	24.14
655.728	24.02
655.916	24.03
656.105	24.15
656.294	24.3
656.483	24.4
656.672	24.32
656.86	24.15
657.049	24.08
657.238	24.1
657.427	24.13
657.615	24.09
657.804	24.01
657.993	24.02
658.181	24.05
658.37	24.16
658.559	24.11
658.747	24.32
658.936	24.31
659.125	24.09
659.313	24.2
659.502	24.12
659.69	24.31
659.879	24.34
660.067	24.38
660.256	24.47
660.444	24.14
660.633	24.12
660.821	24.05
661.01	24.46
661.198	24.65
661.387	24.56
661.575	24.68
661.763	24.41
661.952	24.44
662.14	24.35
662.328	24.38
662.517	24.81
662.705	24.76
662.893	24.78
663.082	24.9
663.27	25.24
663.458	25.2
663.646	25.23
663.834	25.37
664.023	25.5
664.211	25.32
664.399	25.37
664.587	25.1
664.775	25.2
664.963	25.1
665.152	24.83
665.34	24.6
665.528	24.94
665.716	24.69
665.904	24.9
666.092	24.91
666.28	25.09
666.468	24.96
666.656	25.05
666.844	25.01
667.032	25.25
667.22	25.28
667.408	25.1
667.596	25
667.784	25.07
667.971	24.84
668.159	24.67
668.347	24.58
668.535	24.48
668.723	24.69
668.911	24.7
669.098	24.53
669.286	24.19
669.474	24.2
669.662	24.16
669.849	24.19
670.037	24.43
670.225	24.68
670.413	24.75
670.6	24.79
670.788	24.36
670.976	24.33
671.163	24.37
671.351	24.66
671.538	25.04
671.726	24.93
671.913	24.96
672.101	24.56
672.289	24.46
672.476	24.47
672.664	24.45
672.851	24.48
673.039	24.42
673.226	24.46
673.413	24.51
673.601	24.05
673.788	24.06
673.976	24.01
674.163	24.31
674.35	24.28
674.538	24.24
674.725	24.51
674.912	24.66
675.1	24.77
675.287	24.67
675.474	24.52
675.662	24.71
675.849	24.79
676.036	24.7
676.223	24.87
676.411	25.23
676.598	25.47
676.785	25.26
676.972	25.38
677.159	25.32
677.346	25.61
677.533	25.55
677.721	25.69
677.908	25.61
678.095	25.98
678.282	25.59
678.469	25.31
678.656	25.01
678.843	25
679.03	25.02
679.217	25.23
679.404	24.78
679.591	24.98
679.778	25.14
679.964	25.11
680.151	24.91
680.338	25.05
680.525	24.92
680.712	25.14
680.899	25.12
681.086	25.05
681.272	25.07
681.459	25.36
681.646	25.34
681.833	25.26
682.02	25.24
682.206	25.2
682.393	25.22
682.58	25.23
682.766	25.27
682.953	25.39
683.14	25.43
683.326	25.03
683.513	25.22
683.7	25.34
683.886	25.31
684.073	25.37
684.259	25.61
684.446	25.62
684.632	25.75
684.819	25.7
685.005	25.71
685.192	25.85
685.378	26.1
685.565	25.81
685.751	25.77
685.938	25.5
686.124	25.61
686.31	25.24
686.497	25.39
686.683	25.48
686.87	25.51
687.056	25.51
687.242	25.66
687.429	25.6
687.615	25.84
687.801	25.72
687.987	25.91
688.174	25.87
688.36	26.28
688.546	26.3
688.732	26.17
688.918	26.01
689.105	26.21
689.291	26.19
689.477	26.43
689.663	26.26
689.849	26.52
690.035	26.22
690.221	26.13
690.407	25.99
690.593	25.73
690.779	25.73
690.965	25.89
691.151	25.58
691.337	25.44
691.523	25.24
691.709	25.29
691.895	25
692.081	25.23
692.267	25.44
692.453	25.74
692.639	25.78
692.825	25.82
693.011	25.63
693.196	25.82
693.382	25.49
693.568	25.74
693.754	25.93
693.94	25.92
694.125	25.9
694.311	26.04
694.497	25.72
694.682	25.88
694.868	25.96
695.054	26.09
695.239	25.99
695.425	26.44
695.611	26.24
695.796	26.01
695.982	26.03
696.168	26.23
696.353	26.17
696.539	26.19
696.724	26.23
696.91	26.28
697.095	26.33
697.281	26.39
697.466	26.02
697.652	26.06
697.837	25.87
698.023	25.93
698.208	25.74
698.393	25.7
698.579	25.66
698.764	25.53
698.949	25.58
699.135	25.5
699.32	25.61
699.505	25.88
699.691	25.88
699.876	26.09
700.061	26.09
700.246	26.14
700.432	26.07
700.617	26.3
700.802	26.33
700.987	26.22
701.172	26.31
701.358	26.13
701.543	26.05
701.728	26.28
701.913	26.32
702.098	26.42
702.283	26.73
702.468	26.95
702.653	26.78
702.838	27.13
703.023	27.22
703.208	27.44
703.393	27.49
703.578	27.55
703.763	27.66
703.948	27.97
704.133	28.35
704.318	28.72
704.503	28.74
704.688	29.23
704.873	29.58
705.057	29.88
705.242	30.04
705.427	30.31
705.612	30.91
705.797	30.67
705.981	30.51
706.166	30.67
706.351	30.44
706.536	30.39
706.72	30.36
706.905	30.11
707.09	29.91
707.274	29.92
707.459	29.83
707.644	29.53
707.828	29.97
708.013	30.35
708.197	29.96
708.382	30.23
708.567	30.22
708.751	30.26
708.936	29.93
709.12	30.01
709.305	29.78
709.489	30.19
709.673	30.01
709.858	29.65
710.042	29.26
710.227	29.46
710.411	29.07
710.596	29.31
710.78	29.43
710.964	29.57
711.149	29.66
711.333	29.54
711.517	29.4
711.702	29.45
711.886	29.38
712.07	29.69
712.254	29.39
712.438	29.44
712.623	29.24
712.807	28.8
712.991	28.78
713.175	28.41
713.359	28.42
713.544	27.98
713.728	27.87
713.912	27.7
714.096	27.68
714.28	27.64
714.464	27.24
714.648	27.37
714.832	26.94
715.016	26.67
715.2	26.89
715.384	26.8
715.568	26.68
715.752	26.71
715.936	26.69
716.12	26.37
716.304	26.21
716.488	26.34
716.671	25.89
716.855	26.15
717.039	26.32
717.223	26.29
717.407	26.22
717.59	26.11
717.774	25.93
717.958	25.59
718.142	25.34
718.325	25.46
718.509	25.47
718.693	25.37
718.877	25.19
719.06	24.58
719.244	24.54
719.428	24.51
719.611	24.74
719.795	24.62
719.978	25.09
720.162	25.4
720.345	25.79
720.529	25.78
720.713	26.21
720.896	26.5
721.08	27.15
721.263	27.47
721.446	27.74
721.63	27.83
721.813	28.1
721.997	28.14
722.18	27.65
722.364	27.29
722.547	27.56
722.73	27.05
722.914	27.02
723.097	26.6
723.28	26.68
723.464	26.43
723.647	26.09
723.83	25.88
724.013	26.23
724.197	26.5
724.38	26.33
724.563	25.89
724.746	26.42
724.929	26.27
725.112	26.68
725.296	26.36
725.479	26.42
725.662	26.62
725.845	26.5
726.028	26.2
726.211	26.43
726.394	26.69
726.577	27.15
726.76	27.17
726.943	27.29
727.126	27.02
727.309	27.08
727.492	27.33
727.675	27.49
727.858	27.69
728.041	27.65
728.224	27.78
728.407	27.33
728.589	27.3
728.772	26.98
728.955	27.42
729.138	27.58
729.321	27.57
729.503	27.32
729.686	27.43
729.869	27.33
730.052	27.35
730.234	27.09
730.417	27.15
730.6	26.64
730.782	27.11
730.965	27.14
731.148	27.13
731.33	26.96
731.513	26.62
731.695	26.21
731.878	26.1
732.061	26.07
732.243	26.31
732.426	26.42
732.608	27
732.791	26.57
732.973	26.22
733.156	26.33
733.338	26.38
733.52	26.99
733.703	27.29
733.885	27.77
734.068	27.84
734.25	27.8
734.432	28.34
734.615	28.4
734.797	28.37
734.979	28.26
735.162	27.97
735.344	28.23
735.526	28.1
735.708	28.08
735.891	27.86
736.073	28.16
736.255	27.81
736.437	27.85
736.619	27.82
736.802	28.22
736.984	28.49
737.166	29.03
737.348	28.97
737.53	29.41
737.712	29.56
737.894	29.84
738.076	29.44
738.258	30.14
738.44	30.24
738.622	29.86
738.804	30.18
738.986	29.77
739.168	29.61
739.35	29.73
739.532	29.3
739.714	29.02
739.896	29.15
740.078	29.16
740.259	28.78
740.441	28.1
740.623	28.37
740.805	27.97
740.987	28.25
741.168	28.45
741.35	28.18
741.532	28.2
741.714	28.44
741.895	28.34
742.077	28.78
742.259	29
742.44	29.32
742.622	29.12
742.804	29.61
742.985	29.79
743.167	29.09
743.348	29.05
743.53	28.94
743.711	28.88
743.893	28.58
744.075	28.34
744.256	27.93
744.438	28.04
744.619	28.32
744.8	27.95
744.982	27.97
745.163	28.82
745.345	28.73
745.526	29.41
745.707	29.67
745.889	29.92
746.07	30.09
746.252	30.49
746.433	30.54
746.614	30.37
746.795	30.3
746.977	30.1
747.158	30
747.339	30.17
747.52	29.63
747.702	29.57
747.883	29.92
748.064	29.99
748.245	29.66
748.426	29.36
748.607	29.06
748.788	28.86
748.97	29.67
749.151	29.19
749.332	29.33
749.513	29.27
749.694	29.32
749.875	28.78
750.056	28.74
750.237	28.84
750.418	29.29
750.599	29
750.78	29.15
750.96	28.45
751.141	28.63
751.322	29.03
751.503	29.65
751.684	29.67
751.865	30.09
752.046	29.95
752.226	30.38
752.407	30.34
752.588	30.92
752.769	31.38
752.949	31.41
753.13	30.99
753.311	30.81
753.492	30.28
753.672	30.05
753.853	29.98
754.034	29.99
754.214	29.62
754.395	29.27
754.575	29.66
754.756	29.38
754.937	29.26
755.117	30.53
755.298	29.94
755.478	30.11
755.659	29.65
755.839	29.41
756.02	29.41
756.2	29.43
756.381	29.76
756.561	29.55
756.741	29.91
756.922	30.37
757.102	29.63
757.283	29.5
757.463	29.47
757.643	29.94
757.823	30.44
758.004	29.92
758.184	29.48
758.364	29.29
758.545	28.82
758.725	28.04
758.905	27.63
759.085	27.6
759.265	27.82
759.446	27.17
759.626	26.96
759.806	26.1
759.986	26.18
760.166	26.41
760.346	25.81
760.526	26.31
760.706	26.66
760.886	26.67
761.066	26.63
761.246	26.73
761.426	27.1
761.606	26.92
761.786	26.82
761.966	27.02
762.146	26.96
762.326	26.94
762.506	26.65
762.686	26.23
762.866	26.21
763.046	26.24
763.225	26.09
763.405	25.59
763.585	25.62
763.765	25.68
763.945	25.88
764.124	25.86
764.304	26.3
764.484	26.14
764.664	26.62
764.843	26.62
765.023	26.42
765.203	26.92
765.382	27.57
765.562	27.43
765.741	28.25
765.921	28.25
766.101	28.05
766.28	27.93
766.46	28.71
766.639	28.32
766.819	28.84
766.998	29.18
767.178	28.96
767.357	29.04
767.537	29.16
767.716	28.52
767.896	28.5
768.075	29.74
768.254	30
768.434	29.88
768.613	30.22
768.792	29.8
768.972	29.71
769.151	29.7
769.33	29.76
769.51	30.64
769.689	30.79
769.868	30.39
770.047	29.5
770.226	28.91
770.406	28.71
770.585	28.55
770.764	28.77
770.943	28.74
771.122	28.37
771.301	28.25
771.48	27.72
771.66	28.06
771.839	28.66
772.018	28.93
772.197	28.92
772.376	28.72
772.555	28.39
772.734	28.42
772.913	28.47
773.092	28.84
773.271	29.17
773.449	29.26
773.628	29.07
773.807	29.35
773.986	29.81
774.165	29.97
774.344	30.37
774.523	30.79
774.701	30.43
774.88	30.87
775.059	30.71
775.238	30.57
775.417	31.02
775.595	31.18
775.774	30.53
775.953	29.84
776.131	30.1
776.31	30.04
776.489	29.87
776.667	29.88
776.846	29.51
777.025	29.47
777.203	29.85
777.382	29.68
777.56	29.27
777.739	29.37
777.917	29.45
778.096	30.38
778.274	29.88
778.453	30.19
778.631	30.69
778.81	30.46
778.988	30.58
779.166	30.51
779.345	30.89
779.523	31.5
779.702	31.06
779.88	30.95
780.058	30.09
780.237	30.95
780.415	30.49
780.593	31.04
780.771	31.34
780.95	32.31
781.128	31.95
781.306	31.78
781.484	31.08
781.662	31.78
781.841	32.03
782.019	31.64
782.197	31.55
782.375	32.28
782.553	30.43
782.731	30.73
782.909	29.79
783.087	30.8
783.265	30.37
783.443	31.41
783.621	30.88
783.799	30.38
783.977	30.37
784.155	30.15
784.333	30.22
784.511	31.71
784.689	31.35
784.867	30.76
785.045	30.29
785.223	30.89
785.4	29.89
785.578	30.32
785.756	31.11
785.934	32.07
786.112	32.75
786.289	32.39
786.467	31.53
786.645	32
786.823	32.14
787	31.94
787.178	32.07
787.356	31.85
787.533	31.61
787.711	30.43
787.889	29.89
788.066	29.48
788.244	28.66
788.421	29.07
788.599	29.41
788.776	29.69
788.954	30.06
789.131	29.77
789.309	30.13
789.486	30.73
789.664	31.94
789.841	31.96
790.019	31.73
790.196	32.16
790.373	32.58
790.551	32.39
790.728	32.73
790.906	32.01
791.083	32.31
791.26	32.17
791.437	31.17
791.615	31.28
791.792	31.39
791.969	30.83
792.146	30.81
792.324	29.67
792.501	29.01
792.678	28.57
792.855	28.79
793.032	28.42
793.209	29.01
793.387	28.82
793.564	28.06
793.741	27.89
793.918	28.82
794.095	29.69
794.272	30.36
794.449	30.66
794.626	30.51
794.803	30.4
794.98	29.57
795.157	28.3
795.334	29.28
795.511	29.65
795.688	29.82
795.864	29.04
796.041	28.77
796.218	28.71
796.395	28.48
796.572	28.99
796.749	29.8
796.925	29.71
797.102	30.8
797.279	30.67
797.456	30.7
797.632	30.27
797.809	30.14
797.986	30.43
798.162	31.04
798.339	31.63
798.516	31.4
798.692	31.13
798.869	31.63
799.046	31.42
799.222	31.16
799.399	30.46
799.575	30.5
799.752	31.08
799.928	29.92
800.105	29.33
800.281	29.5
800.458	29.07
800.634	28.43
800.811	28.03
800.987	27.56
801.163	27.52
801.34	27.76
801.516	28.01
801.692	28.97
801.869	29.54
802.045	29.5
802.221	29.99
802.398	31.03
802.574	32.24
802.75	33.57
802.926	33.7
803.103	33.92
803.279	34.04
803.455	34.85
803.631	32.42
803.807	33.34
803.983	33.87
804.16	33.5
804.336	32.53
804.512	32.37
804.688	30.86
804.864	30.92
805.04	30.88
805.216	31.3
805.392	31.29
805.568	31.8
805.744	30.68
805.92	29.95
806.096	28.96
806.272	29.21
806.448	27.24
806.623	29.02
806.799	30.19
806.975	29.46
807.151	29.29
807.327	29.29
807.503	28.84
807.678	30.31
807.854	28.47
808.03	29.34
808.206	29.25
808.381	29.51
808.557	28.27
808.733	25.8
808.908	26.88
809.084	26.37
809.26	26.53
809.435	28.87
809.611	27.37
809.787	28.98
809.962	26.79
810.138	27.5
810.313	28.42
810.489	28.59
810.664	29.56
810.84	28.96
811.015	30.46
811.191	30.13
811.366	29.45
811.542	30.18
811.717	30.19
811.892	31.9
812.068	31.92
812.243	31.44
812.419	31.12
812.594	30.79
812.769	31
812.944	28.93
813.12	27.74
813.295	26.85
813.47	26.21
813.645	26.74
813.821	26.26
813.996	25.2
814.171	24.3
814.346	23.99
814.521	24.48
814.697	23.94
814.872	24.24
815.047	24.83
815.222	26.68
815.397	25.66
815.572	24.45
815.747	25.25
815.922	25.07
816.097	25.46
816.272	25.98
816.447	25.91
816.622	26.38
816.797	25.33
816.972	25.11
817.147	23.95
817.322	24.5
817.496	25.32
817.671	24.15
817.846	23.82
818.021	23.78
818.196	22.61
818.371	23.11
818.545	22.69
818.72	24.59
818.895	25.23
819.069	24.3
819.244	24.82
819.419	25.63
819.594	26.09
819.768	26.74
819.943	26.74
820.117	27.18
820.292	26.52
820.467	26.61
820.641	26.11
820.816	26.16
820.99	26.69
821.165	26.99
821.339	26.76
821.514	26.76
821.688	26.38
821.863	26.52
822.037	26.8
822.212	26.85
822.386	26.83
822.56	27.08
822.735	26.98
822.909	26.93
823.084	26.87
823.258	26.62
823.432	26.67
823.606	27.02
823.781	26.95
823.955	27.22
824.129	27.42
824.303	27.62
824.478	27.91
824.652	27.7
824.826	27.8
825	28.02
825.174	28.22
825.348	27.94
825.523	27.95
825.697	28.11
825.871	27.41
826.045	27.34
826.219	27.35
826.393	26.93
826.567	27.45
826.741	27.27
826.915	26.82
827.089	27.19
827.263	27.26
827.437	27.06
827.611	27.02
827.784	26.95
827.958	27.18
828.132	27.39
828.306	27.33
828.48	27.84
828.654	27.66
828.827	27.9
829.001	27.88
829.175	29.01
829.349	29.4
829.522	29.73
829.696	29.86
829.87	29.35
830.044	28.66
830.217	28.9
830.391	27.86
830.565	28.39
830.738	28.47
830.912	28.87
831.085	25.85
831.259	25.9
831.432	25.72
831.606	25.79
831.779	25.11
831.953	25.21
832.126	24.36
832.3	24.34
832.473	24.97
832.647	24.47
832.82	25.23
832.994	27.32
833.167	27.52
833.34	27.43
833.514	28.79
833.687	29.55
833.86	29.39
834.034	29.5
834.207	29.74
834.38	29.13
834.553	29.29
834.727	29.04
834.9	28.25
835.073	28.01
835.246	27.17
835.419	26.3
835.593	25.71
835.766	25.73
835.939	25.87
836.112	25.52
836.285	26.56
836.458	27.47
836.631	26.51
836.804	25.89
836.977	26.59
837.15	28.98
837.323	29.17
837.496	29.64
837.669	29.43
837.842	29.4
838.015	30.05
838.188	29.16
838.361	28.09
838.533	28.53
838.706	30.87
838.879	28.64
839.052	29.93
839.225	27.98
839.398	29.97
839.57	30.24
839.743	30.18
839.916	28.99
840.088	30.44
840.261	29.99
840.434	29.74
840.607	28.59
840.779	29.01
840.952	27.25
841.124	29.32
841.297	27.05
841.47	29.13
841.642	29.16
841.815	30.02
841.987	27.23
842.16	26.46
842.332	27.93
842.505	28.31
842.677	28.1
842.85	28.1
843.022	29.84
843.194	29.96
843.367	27.7
843.539	27.12
843.712	25.38
843.884	27.21
844.056	28.75
844.229	26.2
844.401	26.71
844.573	28.84
844.745	28.31
844.918	24.14
845.09	24.42
845.262	23.63
845.434	24.52
845.606	26.13
845.779	29.07
845.951	30.33
846.123	33.14
846.295	30.91
846.467	28.83
846.639	29.52
846.811	27.98
846.983	30.42
847.155	34.65
847.327	31.39
847.499	33.69
847.671	30.14
847.843	28.38
848.015	27.17
848.187	27.8
848.359	30.41
848.531	30.41
848.703	28.03
848.875	23.86
849.047	18.48
849.218	22.94
849.39	21.24
849.562	22.16
849.734	25.02
849.905	22.23
850.077	23.95
850.249	23.09
850.421	21.04
850.592	26.5
850.764	29.91
850.936	30.73
851.107	28.85
851.279	28.59
851.451	28.16
851.622	25.68
851.794	27.69
851.965	26.91
852.137	27.56
852.308	26.08
852.48	25.59
852.651	25.8
852.823	26.41
852.994	26.68
853.166	28.29
853.337	30.79
853.509	30.56
853.68	33.86
853.851	32.87
854.023	29.99
854.194	32.94
854.365	31.45
854.537	30.12
854.708	29.39
854.879	28.82
855.05	24.24
855.222	21.31
855.393	24.29
855.564	18.45
855.735	13.24
855.906	17.45
856.078	18.65
856.249	16.05
856.42	14.79
856.591	20.24
856.762	20.29
856.933	21.8
857.104	17.5
857.275	15.7
857.446	18.62
857.617	22.77
857.788	17.25
857.959	17
858.13	20.27
858.301	22.94
858.472	16.5
858.643	17.31
858.814	19.57
858.985	18.84
859.155	18.79
859.326	18.95
859.497	20.06
859.668	22.68
859.839	17.83
860.009	17.03
860.18	12.94
860.351	12.1
860.522	9.46
860.692	5.54
860.863	14.16
861.034	13.83
861.204	12.15
861.375	13.43
861.546	14.23
861.716	18.37
861.887	18.19
862.057	23.81
862.228	25.07
862.398	26.17
862.569	30.19
862.739	25.86
862.91	24.99
863.08	21.48
863.251	19.31
863.421	17.26
863.592	15.79
863.762	16.25
863.932	13.75
864.103	15.41
864.273	13.43
864.443	14.01
864.614	14.29
864.784	11.81
864.954	17.69
865.125	20.7
865.295	22.01
865.465	21.81
865.635	20.06
865.805	15.82
865.976	16.74
866.146	19.49
866.316	18.02
866.486	17.23
866.656	18.81
866.826	20.63
866.996	17.32
867.166	19.91
867.336	15.32
867.506	13.76
867.676	16.2
867.846	14.5
868.016	12.9
868.186	11.29
868.356	10.71
868.526	11.51
868.696	14.8
868.866	17.64
869.036	15.06
869.206	18.71
869.376	21.42
869.545	22.3
869.715	21.77
869.885	22.48
870.055	26.26
870.224	28.37
870.394	27.17
870.564	23.86
870.734	16.7
870.903	17.41
871.073	18.46
871.243	16.88
871.412	17.61
871.582	21.55
871.751	21.37
871.921	17.98
872.091	18.54
872.26	17.01
872.43	16.99
872.599	20.13
872.769	20.19
872.938	19.31
873.108	24.08
873.277	22.88
873.446	20.07
873.616	20.35
873.785	21.71
873.955	20.34
874.124	21.28
874.293	18.21
874.463	22.58
874.632	19.89
874.801	23.51
874.971	16.12
875.14	15.36
875.309	16.17
875.478	17.58
875.647	17.61
875.817	20.48
875.986	22.52
876.155	23.21
876.324	23.17
876.493	25.32
876.662	21.48
876.831	22.05
877	23.64
877.17	25.46
877.339	21.52
877.508	20.94
877.677	19.69
877.846	20.09
878.015	21.41
878.184	18.66
878.352	19.4
878.521	17.18
878.69	22.07
878.859	15.73
879.028	13.44
879.197	17.76
879.366	16.3
879.534	16.69
879.703	16.86
879.872	18.96
880.041	19.98
880.21	20.25
880.378	20.41
880.547	19.87
880.716	23.3
880.884	23.69
881.053	24.3
881.222	26.1
881.39	26.22
881.559	26.56
881.727	26.65
881.896	26.67
882.065	27.02
882.233	27.63
882.402	27.66
882.57	27.57
882.739	27.44
882.907	26.98
883.076	26.06
883.244	26.14
883.412	25.99
883.581	25.79
883.749	25.56
883.918	25.1
884.086	24.75
884.254	24.78
884.423	24.36
884.591	25.02
884.759	24.74
884.927	25.72
885.096	24.65
885.264	23.55
885.432	23.51
885.6	23.71
885.769	23.81
885.937	23.52
886.105	22.42
886.273	22.78
886.441	20.11
886.609	21.02
886.777	20.91
886.945	20.3
887.113	20.26
887.281	17.59
887.449	16.32
887.617	16.04
887.785	15.81
887.953	16.77
888.121	15.66
888.289	15.04
888.457	15.05
888.625	13.2
888.793	12.26
888.961	11.96
889.129	15.37
889.296	15.98
889.464	14.31
889.632	15.47
889.8	15.22
889.967	12.15
890.135	16.87
