Data from 2938792__Reflection_03.txt Node
Date: Fri Mar 13 11:05:27 EDT 2015
User: robert
Spectrometer: USB4E03002
Autoset integration time: false
Trigger mode: 4
Integration Time (sec): 1.000000E-1
Scans to average: 10
Electric dark correction enabled: false
Nonlinearity correction enabled: false
Boxcar width: 5
Stray light correction enabled: false
XAxis mode: Wavelengths
Stop averaging: false
Number of Pixels in Spectrum: 3648
>>>>>Begin Spectral Data<<<<<
177.575	-400
177.794	-4514.29
178.014	-784.35
178.233	-549.45
178.452	-355.84
178.672	-271.9
178.891	-307.64
179.11	-325.1
179.33	-321.35
179.549	-387.34
179.768	-425.81
179.987	-713.6
180.207	-436.32
180.426	-665.07
180.645	-1221.15
180.864	-4875.61
181.084	1449.25
181.303	2168.54
181.522	1026.55
181.741	2187.84
181.96	935.8
182.179	431.14
182.398	348.09
182.618	301.72
182.837	323.88
183.056	249.65
183.275	241.97
183.494	276.59
183.713	256.46
183.932	290.17
184.151	286.96
184.37	306.09
184.589	373.95
184.808	470.88
185.027	462.5
185.246	473.52
185.465	1632.48
185.684	860.59
185.903	1058.13
186.122	1243.02
186.341	3925.49
186.56	1769.83
186.779	2584.34
186.998	1232.18
187.216	-2832.81
187.435	-697.68
187.654	-775.7
187.873	-1075
188.092	-2556.52
188.311	12623.08
188.53	-1900
188.748	4950
188.967	-712.31
189.186	-775
189.405	-400.6
189.623	-1592.16
189.842	3765.96
190.061	1336.92
190.28	2103.26
190.498	-1207.06
190.717	-926.61
190.936	-705.93
191.154	-459.42
191.373	-1446.98
191.592	-1245.93
191.81	-996.19
192.029	-790
192.248	-699.2
192.466	-2598.59
192.685	-11314.29
192.904	-535.66
193.122	-2720
193.341	664.4
193.559	384.44
193.778	400.52
193.996	310.27
194.215	356.84
194.433	366.74
194.652	363.84
194.87	682.01
195.089	556.76
195.307	301.2
195.526	303.9
195.744	338.68
195.963	289.94
196.181	273.23
196.399	287.79
196.618	243.18
196.836	267.51
197.055	299.68
197.273	304.03
197.491	336.53
197.71	299.41
197.928	446.18
198.146	490.03
198.365	4212.5
198.583	-2571.7
198.801	-1130.3
199.019	-1151.56
199.238	-2966
199.456	1037.58
199.674	586.21
199.892	472.8
200.111	741.63
200.329	733.33
200.547	618.02
200.765	439.6
200.983	383.33
201.202	400
201.42	520.23
201.638	545.73
201.856	843.88
202.074	1004.46
202.292	-2477.42
202.51	9487.5
202.728	5082.76
202.946	-1914.29
203.165	-1847.5
203.383	2900
203.601	1052.59
203.819	2085.45
204.037	456.47
204.255	506.8
204.473	596.31
204.691	360.25
204.909	352.2
205.127	356.76
205.345	387.56
205.562	498.39
205.78	640.89
205.998	691.06
206.216	429.21
206.434	606.84
206.652	410.65
206.87	433.73
207.088	406.6
207.306	550.66
207.523	472.41
207.741	355.6
207.959	324.69
208.177	449.35
208.395	504
208.612	736.54
208.83	557.84
209.048	590.85
209.266	714.92
209.483	602.11
209.701	648.24
209.919	919.39
210.136	768.16
210.354	649.44
210.572	449.21
210.79	322.03
211.007	314.09
211.225	337.98
211.442	348.86
211.66	269.58
211.878	293.32
212.095	-706.15
212.313	-1896.81
212.53	-1192
212.748	-852.2
212.966	-1518.8
213.183	-1044.58
213.401	-1710.71
213.618	3725.45
213.836	-11976.47
214.053	-6767.74
214.271	8134.62
214.488	212.78
214.705	223.12
214.923	187.53
215.14	190.13
215.358	210.83
215.575	204.22
215.793	184.74
216.01	257.38
216.227	234.04
216.445	241.29
216.662	246.65
216.879	298.6
217.097	263.04
217.314	233.33
217.531	156.39
217.749	127.18
217.966	123.8
218.183	106.56
218.4	98.77
218.618	98.87
218.835	89.5
219.052	96.47
219.269	89.5
219.487	88.45
219.704	95.86
219.921	96.94
220.138	103.68
220.355	107.12
220.572	106.08
220.79	100.7
221.007	99.07
221.224	96.68
221.441	92.87
221.658	93.1
221.875	82.85
222.092	79.92
222.309	70
222.526	70.19
222.743	71.26
222.96	69.4
223.177	74.85
223.394	71.42
223.611	68.33
223.828	66.9
224.045	62.17
224.262	67.5
224.479	64.86
224.696	71.29
224.913	63.57
225.13	60.16
225.347	58.11
225.564	56.34
225.781	54.6
225.997	51.1
226.214	44.36
226.431	40.52
226.648	35.72
226.865	30.73
227.082	26.81
227.298	25.17
227.515	20.98
227.732	18.29
227.949	16.25
228.165	14.1
228.382	12.99
228.599	14.29
228.816	14.14
229.032	13.31
229.249	13.6
229.466	12.68
229.682	13.2
229.899	13.44
230.116	13.41
230.332	13.63
230.549	14.44
230.765	16.1
230.982	15.58
231.199	16.9
231.415	18.4
231.632	19.91
231.848	22.05
232.065	21.9
232.281	22.83
232.498	23.1
232.714	22.79
232.931	22.33
233.147	22.95
233.364	23.09
233.58	21.99
233.797	22.15
234.013	21.84
234.23	21.94
234.446	22.85
234.662	21.75
234.879	22.48
235.095	21.63
235.312	21.47
235.528	22.45
235.744	23.11
235.961	23.32
236.177	23.3
236.393	22.02
236.61	21.34
236.826	19.99
237.042	21.17
237.258	20.61
237.475	21.26
237.691	22.11
237.907	19.49
238.123	16.96
238.339	16.54
238.556	16.49
238.772	16.75
238.988	17.07
239.204	17.27
239.42	15.57
239.636	15.62
239.853	14.96
240.069	14.06
240.285	14.4
240.501	14.25
240.717	13.96
240.933	12.78
241.149	11.88
241.365	10.7
241.581	10.73
241.797	10.95
242.013	10.51
242.229	10.54
242.445	10.27
242.661	9.76
242.877	10.1
243.093	10.07
243.309	10.18
243.525	10.55
243.741	10.81
243.957	10.29
244.173	11.02
244.388	11.1
244.604	10.55
244.82	10.99
245.036	10.64
245.252	9.74
245.468	9.5
245.683	9.44
245.899	9
246.115	8.84
246.331	8.57
246.547	8.03
246.762	7.57
246.978	7.52
247.194	7.34
247.409	7.31
247.625	7.48
247.841	7.32
248.057	7.39
248.272	7.24
248.488	7.35
248.703	7.21
248.919	7.13
249.135	7.41
249.35	7.88
249.566	8.43
249.782	8.49
249.997	8.6
250.213	8.57
250.428	8.79
250.644	10
250.859	9.77
251.075	10.08
251.29	10.84
251.506	10.35
251.721	9.68
251.937	9.33
252.152	9.69
252.368	10.12
252.583	10.39
252.798	9.9
253.014	9.37
253.229	9.43
253.445	9.62
253.66	9.26
253.875	10.24
254.091	11.71
254.306	11.18
254.521	12.15
254.737	12.63
254.952	11.98
255.167	11.94
255.383	12.16
255.598	12.62
255.813	13.23
256.028	12.11
256.244	11.26
256.459	11.38
256.674	11.86
256.889	9.87
257.104	9.59
257.32	9.94
257.535	9.1
257.75	8.53
257.965	8.4
258.18	8.03
258.395	8
258.61	7.78
258.826	6.72
259.041	6.67
259.256	6.47
259.471	5.91
259.686	5.68
259.901	5.9
260.116	5.94
260.331	5.79
260.546	5.75
260.761	5.94
260.976	6.19
261.191	6.04
261.406	5.64
261.621	6.06
261.836	5.97
262.05	6.41
262.265	6.41
262.48	6.53
262.695	6.74
262.91	6.6
263.125	6.55
263.34	6.16
263.555	7.12
263.769	8.02
263.984	8.05
264.199	8.86
264.414	8.27
264.629	7.93
264.843	8.47
265.058	8.29
265.273	8.64
265.488	8.3
265.702	7.65
265.917	7.83
266.132	7.34
266.346	7.37
266.561	7.15
266.776	7.56
266.99	8.13
267.205	7.78
267.42	7.86
267.634	7.04
267.849	7.29
268.063	8.02
268.278	7.54
268.492	7.93
268.707	7.54
268.922	7.5
269.136	7.19
269.351	6.82
269.565	6.81
269.78	6.11
269.994	6.06
270.209	5.84
270.423	5.08
270.637	4.75
270.852	4.08
271.066	4
271.281	4.05
271.495	4.32
271.709	4.35
271.924	4.31
272.138	4.77
272.353	5.14
272.567	5.38
272.781	5.87
272.996	6
273.21	6.25
273.424	6.39
273.638	6.36
273.853	5.86
274.067	5.93
274.281	5.73
274.495	5.67
274.71	6.22
274.924	6.02
275.138	5.94
275.352	6.13
275.566	6.53
275.781	6.67
275.995	7.16
276.209	7.58
276.423	7.84
276.637	8.02
276.851	8.62
277.065	8.16
277.279	8.08
277.493	7.76
277.707	7.85
277.921	7.53
278.135	7.33
278.349	6.85
278.563	7.18
278.777	7.05
278.991	7.04
279.205	6.53
279.419	6.54
279.633	6.25
279.847	6.84
280.061	7.15
280.275	6.41
280.489	6.55
280.703	6.89
280.917	6.48
281.131	6.82
281.344	6.53
281.558	6.33
281.772	6.52
281.986	7.03
282.2	6.86
282.414	6.98
282.627	7.35
282.841	7.61
283.055	7.73
283.269	7.81
283.482	7.11
283.696	6.91
283.91	6.97
284.123	6.6
284.337	6.08
284.551	5.92
284.764	5.27
284.978	5.2
285.192	4.99
285.405	4.75
285.619	4.53
285.833	5.08
286.046	5.4
286.26	5.48
286.473	5.75
286.687	5.8
286.9	5.91
287.114	6.24
287.327	6.36
287.541	6.45
287.754	6.39
287.968	6.84
288.181	6.56
288.395	6.43
288.608	6.39
288.822	6.12
289.035	6.26
289.248	5.98
289.462	5.76
289.675	5.76
289.889	5.68
290.102	5.58
290.315	5.39
290.529	5.47
290.742	5.6
290.955	5.52
291.169	5.62
291.382	5.95
291.595	6.31
291.808	6.52
292.022	6.9
292.235	7.27
292.448	7.69
292.661	7.63
292.875	7.55
293.088	7.37
293.301	7.38
293.514	7.46
293.727	6.95
293.94	6.94
294.153	6.75
294.367	6.42
294.58	5.99
294.793	5.87
295.006	5.94
295.219	5.83
295.432	6.03
295.645	6.12
295.858	5.97
296.071	6.1
296.284	6.15
296.497	6.47
296.71	6.53
296.923	6.91
297.136	7.03
297.349	7.03
297.562	7.13
297.775	7.14
297.988	7.27
298.201	7.46
298.414	7.43
298.626	7.43
298.839	7.21
299.052	7.38
299.265	7.61
299.478	7.55
299.691	7.94
299.903	8.29
300.116	8.55
300.329	8.69
300.542	8.87
300.755	9.25
300.967	9.55
301.18	9.97
301.393	10.07
301.605	9.75
301.818	9.71
302.031	9.62
302.243	9.43
302.456	9.23
302.669	9.46
302.881	9.3
303.094	9.63
303.307	9.39
303.519	9.2
303.732	9.24
303.944	9.22
304.157	9.45
304.37	9.21
304.582	9.4
304.795	9.85
305.007	9.6
305.22	9.98
305.432	9.53
305.645	9.76
305.857	10.19
306.069	10.32
306.282	10.42
306.494	10.4
306.707	10.93
306.919	11.29
307.132	11.17
307.344	11.52
307.556	11.5
307.769	11.54
307.981	11.4
308.193	11.2
308.406	11.08
308.618	11.1
308.83	11.22
309.043	11.04
309.255	10.55
309.467	10.75
309.679	10.27
309.892	10.2
310.104	10.26
310.316	10.18
310.528	9.76
310.74	9.8
310.953	9.7
311.165	9.75
311.377	9.74
311.589	10.09
311.801	9.85
312.013	10.08
312.225	9.96
312.437	10.04
312.649	10.24
312.862	10.55
313.074	10.33
313.286	10.63
313.498	10.67
313.71	10.61
313.922	10.31
314.134	10.52
314.346	10.5
314.558	10.45
314.77	10.45
314.982	10.72
315.193	11.02
315.405	11.4
315.617	11.42
315.829	11.33
316.041	11.89
316.253	12.12
316.465	12.27
316.677	12.17
316.888	12.47
317.1	12.76
317.312	12.56
317.524	12.74
317.736	12.74
317.947	13.38
318.159	13.38
318.371	13.15
318.583	13.25
318.794	13.52
319.006	13.73
319.218	13.91
319.43	13.86
319.641	13.66
319.853	13.49
320.064	13.69
320.276	12.71
320.488	13.14
320.699	13.03
320.911	12.84
321.123	12.63
321.334	12.31
321.546	12.11
321.757	12.31
321.969	12.49
322.18	12.58
322.392	12.42
322.603	12.62
322.815	12.15
323.026	12.37
323.238	12.39
323.449	12.06
323.661	12.42
323.872	12.28
324.083	11.92
324.295	12.06
324.506	11.84
324.718	11.76
324.929	12.09
325.14	12.33
325.352	12.17
325.563	12.55
325.774	12.57
325.986	12.43
326.197	12.92
326.408	13.06
326.62	13.11
326.831	13.49
327.042	13.87
327.253	13.74
327.464	13.81
327.676	13.68
327.887	13.49
328.098	13.75
328.309	13.9
328.52	13.58
328.732	13.74
328.943	14.02
329.154	14.3
329.365	14.14
329.576	14.28
329.787	14.31
329.998	15.03
330.209	14.81
330.42	14.87
330.631	15.18
330.842	15.3
331.053	15.61
331.264	15.2
331.475	15.22
331.686	15.74
331.897	15.86
332.108	15.95
332.319	15.71
332.53	16.26
332.741	16.27
332.952	16.12
333.163	16.13
333.374	16.02
333.585	16.15
333.795	15.9
334.006	15.25
334.217	14.99
334.428	14.7
334.639	14.86
334.849	14.27
335.06	14.2
335.271	14.09
335.482	14.34
335.692	14.1
335.903	13.99
336.114	13.75
336.325	13.98
336.535	14.13
336.746	14.09
336.957	13.78
337.167	14.14
337.378	14.32
337.589	14.37
337.799	13.91
338.01	13.87
338.22	13.78
338.431	13.77
338.642	13.87
338.852	13.44
339.063	13.41
339.273	13.62
339.484	13.51
339.694	13.19
339.905	13.4
340.115	13.79
340.326	13.94
340.536	14
340.746	14.03
340.957	13.89
341.167	14.28
341.378	14.47
341.588	14.13
341.799	14.13
342.009	14.06
342.219	13.88
342.43	13.5
342.64	13.42
342.85	13.46
343.061	13.17
343.271	13.06
343.481	12.88
343.691	12.87
343.902	13.27
344.112	13.25
344.322	13.04
344.532	13.12
344.743	13.2
344.953	12.89
345.163	12.69
345.373	12.74
345.583	12.85
345.793	12.99
346.004	12.94
346.214	12.83
346.424	13.04
346.634	13.47
346.844	13.47
347.054	13.65
347.264	13.94
347.474	14.01
347.684	14.03
347.894	13.93
348.104	13.96
348.314	13.8
348.524	13.73
348.734	13.7
348.944	13.71
349.154	13.55
349.364	13.33
349.574	13.36
349.784	13.42
349.994	13.95
350.204	14.03
350.413	13.76
350.623	14.04
350.833	13.93
351.043	13.6
351.253	13.47
351.463	13.34
351.672	13.4
351.882	13.56
352.092	13.3
352.302	12.88
352.511	12.88
352.721	12.99
352.931	12.75
353.141	12.38
353.35	12.35
353.56	12.16
353.77	12.33
353.979	12.32
354.189	12.29
354.399	12.51
354.608	12.44
354.818	11.92
355.027	11.85
355.237	11.85
355.447	12.38
355.656	12.21
355.866	12.36
356.075	12.43
356.285	12.55
356.494	12.24
356.704	12.26
356.913	12.22
357.123	12.54
357.332	12.45
357.542	12.39
357.751	12
357.96	12.33
358.17	12.15
358.379	11.87
358.589	11.88
358.798	11.96
359.007	12.09
359.217	12.25
359.426	11.96
359.635	11.96
359.845	12.06
360.054	11.89
360.263	11.66
360.472	11.72
360.682	11.5
360.891	11.54
361.1	11.4
361.309	11.05
361.519	10.9
361.728	11.1
361.937	10.98
362.146	10.86
362.355	11.06
362.564	11.19
362.774	11.13
362.983	11.28
363.192	11.25
363.401	11.23
363.61	11.38
363.819	11.5
364.028	11.53
364.237	11.79
364.446	11.71
364.655	11.74
364.864	11.51
365.073	11.46
365.282	11.45
365.491	11.26
365.7	11.22
365.909	10.98
366.118	10.94
366.327	10.89
366.536	10.7
366.745	10.83
366.954	10.69
367.162	10.79
367.371	10.76
367.58	10.78
367.789	10.66
367.998	10.69
368.207	10.99
368.415	11.07
368.624	11.17
368.833	11.4
369.042	11.39
369.25	11.43
369.459	11.57
369.668	11.56
369.877	11.46
370.085	11.38
370.294	11.51
370.503	11.47
370.711	11.13
370.92	10.98
371.129	10.81
371.337	10.72
371.546	10.67
371.754	10.62
371.963	10.42
372.171	10.48
372.38	10.79
372.589	10.63
372.797	10.47
373.006	10.56
373.214	10.46
373.423	10.12
373.631	9.98
373.84	9.91
374.048	9.72
374.256	9.8
374.465	9.85
374.673	9.39
374.882	9.5
375.09	9.65
375.298	9.67
375.507	9.63
375.715	9.7
375.923	9.64
376.132	9.6
376.34	9.54
376.548	9.57
376.757	9.57
376.965	9.76
377.173	9.53
377.381	9.41
377.59	9.56
377.798	9.5
378.006	9.43
378.214	9.33
378.423	9.39
378.631	9.3
378.839	9.18
379.047	8.99
379.255	8.83
379.463	8.99
379.671	8.83
379.879	8.62
380.088	8.49
380.296	8.62
380.504	8.51
380.712	8.33
380.92	8.52
381.128	8.47
381.336	8.14
381.544	7.82
381.752	7.64
381.96	7.78
382.168	7.58
382.376	7.64
382.584	7.59
382.791	7.69
382.999	7.44
383.207	7.15
383.415	7.16
383.623	7.39
383.831	7.43
384.039	7.41
384.247	7.3
384.454	7.39
384.662	7.4
384.87	7.3
385.078	7.27
385.285	7.29
385.493	7.31
385.701	7.17
385.909	7.07
386.116	7.31
386.324	7.15
386.532	7.19
386.739	7.07
386.947	6.89
387.155	6.92
387.362	6.98
387.57	7.07
387.778	7.01
387.985	7.18
388.193	7.17
388.4	7.09
388.608	7.29
388.816	7.26
389.023	7.38
389.231	7.47
389.438	7.28
389.646	7.21
389.853	7.07
390.061	7
390.268	6.83
390.475	6.64
390.683	6.53
390.89	6.42
391.098	6.27
391.305	6.17
391.512	6.04
391.72	6.09
391.927	6.03
392.135	6.23
392.342	6.37
392.549	6.47
392.756	6.65
392.964	6.54
393.171	6.66
393.378	6.55
393.586	6.63
393.793	6.43
394	6.47
394.207	6.49
394.414	6.45
394.622	6.29
394.829	6.25
395.036	6.25
395.243	6.51
395.45	6.25
395.657	6.43
395.864	6.28
396.072	6.39
396.279	6.57
396.486	6.42
396.693	6.23
396.9	6.27
397.107	6.17
397.314	6.2
397.521	5.81
397.728	5.81
397.935	5.68
398.142	5.63
398.349	5.82
398.556	5.6
398.763	5.76
398.97	5.64
399.177	5.74
399.383	5.77
399.59	5.72
399.797	5.95
400.004	5.97
400.211	6.08
400.418	6.13
400.625	6.18
400.831	6.2
401.038	6.1
401.245	6.38
401.452	6.2
401.658	6.19
401.865	6.27
402.072	6.11
402.279	6.1
402.485	5.87
402.692	5.66
402.899	5.46
403.105	5.32
403.312	5.31
403.519	5
403.725	5.06
403.932	4.85
404.138	4.74
404.345	4.83
404.552	4.68
404.758	4.77
404.965	4.62
405.171	4.61
405.378	4.59
405.584	4.55
405.791	4.7
405.997	4.73
406.204	4.92
406.41	4.73
406.617	4.78
406.823	5.06
407.029	5.04
407.236	5.34
407.442	5.31
407.649	5.45
407.855	5.58
408.061	5.64
408.268	5.58
408.474	5.5
408.68	5.68
408.887	5.46
409.093	5.35
409.299	5.44
409.505	5.37
409.712	5.38
409.918	5.39
410.124	5.21
410.33	5.12
410.537	4.96
410.743	4.96
410.949	4.94
411.155	5.02
411.361	4.95
411.567	4.78
411.773	4.76
411.98	4.71
412.186	4.58
412.392	4.72
412.598	4.63
412.804	4.71
413.01	4.77
413.216	4.91
413.422	4.96
413.628	5.04
413.834	5.11
414.04	5.14
414.246	5.23
414.452	5.06
414.658	4.85
414.864	4.75
415.07	4.73
415.275	4.61
415.481	4.47
415.687	4.34
415.893	4.23
416.099	4.18
416.305	4.19
416.511	4.09
416.716	4.07
416.922	4.11
417.128	4.13
417.334	4.07
417.539	4.06
417.745	3.84
417.951	3.84
418.157	3.86
418.362	3.81
418.568	3.68
418.774	3.66
418.979	3.72
419.185	3.67
419.391	3.67
419.596	3.66
419.802	3.64
420.008	3.71
420.213	4.32
420.419	4.21
420.624	4.17
420.83	4.18
421.035	4.17
421.241	4.13
421.446	4.09
421.652	4.06
421.857	3.95
422.063	3.9
422.268	3.85
422.474	3.24
422.679	3.27
422.885	3.26
423.09	3.2
423.295	3.14
423.501	3.11
423.706	3.16
423.911	3.17
424.117	3.24
424.322	3.23
424.527	3.27
424.733	3.23
424.938	3.24
425.143	3.23
425.349	3.26
425.554	3.27
425.759	3.32
425.964	3.31
426.169	3.32
426.375	3.33
426.58	3.43
426.785	3.44
426.99	3.51
427.195	3.53
427.4	3.57
427.605	3.61
427.811	3.7
428.016	3.68
428.221	3.76
428.426	3.63
428.631	3.63
428.836	3.59
429.041	3.62
429.246	3.58
429.451	3.52
429.656	3.48
429.861	3.49
430.066	3.35
430.271	3.41
430.476	3.36
430.681	3.44
430.886	3.48
431.09	3.53
431.295	3.4
431.5	3.56
431.705	3.56
431.91	3.65
432.115	3.64
432.32	3.76
432.524	3.68
432.729	3.69
432.934	3.72
433.139	3.59
433.343	3.57
433.548	3.61
433.753	3.57
433.958	3.59
434.162	3.59
434.367	3.71
434.572	3.7
434.776	3.68
434.981	3.68
435.186	3.72
435.39	3.88
435.595	3.88
435.799	3.84
436.004	3.74
436.209	3.72
436.413	3.68
436.618	3.56
436.822	3.61
437.027	3.64
437.231	3.64
437.436	3.57
437.64	3.57
437.845	3.55
438.049	3.74
438.253	3.73
438.458	3.7
438.662	3.59
438.867	3.59
439.071	3.62
439.275	3.61
439.48	3.6
439.684	3.56
439.888	3.49
440.093	3.43
440.297	3.29
440.501	3.35
440.706	3.4
440.91	3.43
441.114	3.44
441.318	3.37
441.523	3.36
441.727	3.27
441.931	3.4
442.135	3.46
442.339	3.49
442.543	3.61
442.748	3.59
442.952	3.56
443.156	3.55
443.36	3.44
443.564	3.4
443.768	3.46
443.972	3.57
444.176	3.53
444.38	3.52
444.584	3.47
444.788	3.35
444.992	3.28
445.196	3.28
445.4	3.26
445.604	3.38
445.808	3.42
446.012	3.34
446.216	3.26
446.42	3.24
446.624	3.16
446.828	3.11
447.032	3.05
447.235	3.11
447.439	3.06
447.643	3.2
447.847	3.11
448.051	3.08
448.254	3.09
448.458	3.15
448.662	3.13
448.866	3.1
449.069	3.25
449.273	3.33
449.477	3.3
449.681	3.36
449.884	3.32
450.088	3.46
450.292	3.41
450.495	3.48
450.699	3.44
450.902	3.38
451.106	3.38
451.31	3.31
451.513	3.32
451.717	3.33
451.92	3.39
452.124	3.28
452.327	3.13
452.531	3.19
452.734	3.18
452.938	3.18
453.141	3.31
453.345	3.45
453.548	3.42
453.752	3.47
453.955	3.48
454.158	3.41
454.362	3.45
454.565	3.45
454.769	3.4
454.972	3.33
455.175	3.32
455.379	3.19
455.582	3.17
455.785	3.2
455.988	3.18
456.192	3.2
456.395	3.21
456.598	3.29
456.801	3.39
457.005	3.37
457.208	3.48
457.411	3.54
457.614	3.58
457.817	3.49
458.021	3.43
458.224	3.41
458.427	3.38
458.63	3.36
458.833	3.25
459.036	3.2
459.239	3.18
459.442	3.12
459.645	3.04
459.848	2.98
460.051	3.01
460.254	3.1
460.457	3.08
460.66	3.09
460.863	3.11
461.066	3.12
461.269	3.11
461.472	3.22
461.675	3.22
461.878	3.24
462.081	3.29
462.284	3.27
462.486	3.25
462.689	3.21
462.892	3.18
463.095	3.16
463.298	3.2
463.5	3.27
463.703	3.13
463.906	3.15
464.109	3.19
464.311	3.22
464.514	3.24
464.717	3.2
464.92	3.3
465.122	3.29
465.325	3.3
465.528	3.36
465.73	3.33
465.933	3.43
466.135	3.48
466.338	3.41
466.541	3.35
466.743	3.32
466.946	3.37
467.148	3.38
467.351	3.4
467.553	3.44
467.756	3.38
467.958	3.27
468.161	3.33
468.363	3.3
468.566	3.36
468.768	3.41
468.971	3.42
469.173	3.4
469.375	3.32
469.578	3.34
469.78	3.3
469.983	3.33
470.185	3.42
470.387	3.37
470.59	3.33
470.792	3.36
470.994	3.42
471.196	3.43
471.399	3.37
471.601	3.45
471.803	3.45
472.005	3.39
472.208	3.32
472.41	3.3
472.612	3.33
472.814	3.4
473.016	3.39
473.218	3.45
473.421	3.42
473.623	3.51
473.825	3.49
474.027	3.47
474.229	3.43
474.431	3.58
474.633	3.55
474.835	3.54
475.037	3.53
475.239	3.5
475.441	3.42
475.643	3.48
475.845	3.4
476.047	3.4
476.249	3.41
476.451	3.58
476.653	3.46
476.855	3.54
477.057	3.44
477.258	3.43
477.46	3.39
477.662	3.36
477.864	3.34
478.066	3.34
478.268	3.31
478.469	3.24
478.671	3.19
478.873	3.29
479.075	3.17
479.276	3.15
479.478	3.19
479.68	3.2
479.882	3.24
480.083	3.24
480.285	3.17
480.487	3.2
480.688	3.17
480.89	3.08
481.091	2.94
481.293	2.93
481.495	2.89
481.696	2.8
481.898	2.76
482.099	2.71
482.301	2.66
482.502	2.67
482.704	2.63
482.905	2.64
483.107	2.61
483.308	2.62
483.51	2.6
483.711	2.63
483.913	2.61
484.114	2.61
484.315	2.6
484.517	2.59
484.718	2.59
484.92	2.59
485.121	2.58
485.322	2.61
485.524	2.62
485.725	2.63
485.926	2.62
486.127	2.62
486.329	2.65
486.53	2.65
486.731	2.65
486.932	2.63
487.134	2.61
487.335	2.6
487.536	2.55
487.737	2.52
487.938	2.52
488.139	2.53
488.341	2.58
488.542	2.57
488.743	2.57
488.944	2.56
489.145	2.61
489.346	2.65
489.547	2.68
489.748	2.74
489.949	2.8
490.15	2.82
490.351	2.81
490.552	2.77
490.753	2.77
490.954	2.78
491.155	2.82
491.356	2.8
491.557	2.81
491.758	2.84
491.959	2.8
492.159	2.8
492.36	2.81
492.561	2.82
492.762	2.86
492.963	2.92
493.164	2.92
493.364	2.9
493.565	2.94
493.766	2.91
493.967	2.89
494.167	3.02
494.368	3.06
494.569	3.09
494.769	3.16
494.97	3.19
495.171	3.25
495.371	3.34
495.572	3.4
495.773	3.36
495.973	3.37
496.174	3.42
496.375	3.37
496.575	3.36
496.776	3.46
496.976	3.44
497.177	3.39
497.377	3.28
497.578	3.28
497.778	3.31
497.979	3.41
498.179	3.5
498.38	3.5
498.58	3.56
498.78	3.54
498.981	3.52
499.181	3.53
499.382	3.63
499.582	3.75
499.782	3.78
499.983	3.85
500.183	3.84
500.383	3.77
500.584	3.81
500.784	3.8
500.984	3.82
501.184	3.76
501.385	3.82
501.585	3.79
501.785	3.81
501.985	3.79
502.185	3.77
502.386	3.82
502.586	3.98
502.786	4.09
502.986	4.17
503.186	4.23
503.386	4.32
503.586	4.32
503.786	4.38
503.987	4.37
504.187	4.42
504.387	4.43
504.587	4.46
504.787	4.39
504.987	4.42
505.187	4.39
505.387	4.38
505.587	4.41
505.786	4.45
505.986	4.44
506.186	4.59
506.386	4.61
506.586	4.67
506.786	4.67
506.986	4.82
507.186	4.78
507.386	4.8
507.585	4.9
507.785	4.96
507.985	5.01
508.185	5.05
508.384	5.03
508.584	5.09
508.784	4.98
508.984	5.11
509.183	5.09
509.383	5.09
509.583	5.25
509.782	5.29
509.982	5.28
510.182	5.35
510.381	5.39
510.581	5.48
510.781	5.54
510.98	5.71
511.18	5.67
511.379	5.68
511.579	5.85
511.778	5.82
511.978	5.87
512.177	6.02
512.377	6.1
512.576	6.15
512.776	6.2
512.975	6.3
513.175	6.46
513.374	6.59
513.573	6.69
513.773	6.82
513.972	7.01
514.172	7.13
514.371	7.25
514.57	7.35
514.77	7.43
514.969	7.45
515.168	7.53
515.367	7.55
515.567	7.65
515.766	7.84
515.965	7.8
516.164	7.72
516.364	7.74
516.563	7.65
516.762	7.71
516.961	7.76
517.16	7.87
517.359	7.97
517.559	8.1
517.758	8.14
517.957	8.14
518.156	8.24
518.355	8.38
518.554	8.44
518.753	8.53
518.952	8.58
519.151	8.68
519.35	8.78
519.549	8.81
519.748	8.85
519.947	8.91
520.146	8.99
520.345	9.04
520.544	9.14
520.743	9.26
520.942	9.43
521.141	9.52
521.339	9.6
521.538	9.7
521.737	9.82
521.936	9.91
522.135	10.03
522.333	10.15
522.532	10.33
522.731	10.41
522.93	10.47
523.129	10.59
523.327	10.7
523.526	10.79
523.725	10.79
523.923	10.86
524.122	10.97
524.321	11.08
524.519	11.18
524.718	11.16
524.917	11.26
525.115	11.36
525.314	11.39
525.512	11.45
525.711	11.51
525.909	11.67
526.108	11.75
526.306	11.76
526.505	11.84
526.703	11.88
526.902	11.96
527.1	11.94
527.299	12
527.497	12.05
527.696	12.12
527.894	12.17
528.092	12.18
528.291	12.2
528.489	12.29
528.688	12.27
528.886	12.34
529.084	12.4
529.283	12.45
529.481	12.5
529.679	12.58
529.877	12.68
530.076	12.77
530.274	12.84
530.472	12.96
530.67	13.02
530.869	13.15
531.067	13.24
531.265	13.34
531.463	13.45
531.661	13.54
531.859	13.56
532.057	13.57
532.255	13.62
532.454	13.7
532.652	13.72
532.85	13.75
533.048	13.83
533.246	13.86
533.444	13.92
533.642	14.02
533.84	14.06
534.038	14.15
534.236	14.24
534.434	14.33
534.632	14.39
534.83	14.54
535.027	14.63
535.225	14.64
535.423	14.73
535.621	14.79
535.819	14.81
536.017	14.89
536.215	14.92
536.412	15
536.61	15
536.808	15.02
537.006	14.97
537.203	15.03
537.401	15.17
537.599	15.21
537.797	15.29
537.994	15.39
538.192	15.42
538.39	15.53
538.587	15.6
538.785	15.73
538.983	15.8
539.18	15.89
539.378	16.02
539.575	16.04
539.773	16.13
539.97	16.17
540.168	16.27
540.366	16.31
540.563	16.3
540.761	16.27
540.958	16.25
541.155	16.32
541.353	16.37
541.55	16.36
541.748	16.35
541.945	16.34
542.143	16.39
542.34	16.43
542.537	16.49
542.735	16.56
542.932	16.64
543.129	16.79
543.327	16.83
543.524	17.01
543.721	17.15
543.919	17.36
544.116	17.52
544.313	17.64
544.51	17.78
544.708	17.91
544.905	18.05
545.102	18.19
545.299	18.31
545.496	18.48
545.693	18.46
545.891	18.47
546.088	18.52
546.285	18.58
546.482	18.48
546.679	18.45
546.876	18.45
547.073	18.4
547.27	18.31
547.467	18.21
547.664	18.16
547.861	18.15
548.058	18.22
548.255	18.17
548.452	18.14
548.649	18.34
548.846	18.33
549.043	18.35
549.24	18.47
549.437	18.54
549.633	18.69
549.83	18.73
550.027	18.77
550.224	18.77
550.421	18.7
550.618	18.66
550.814	18.59
551.011	18.58
551.208	18.65
551.405	18.58
551.601	18.66
551.798	18.54
551.995	18.45
552.191	18.42
552.388	18.41
552.585	18.48
552.781	18.44
552.978	18.44
553.175	18.46
553.371	18.44
553.568	18.46
553.764	18.38
553.961	18.41
554.157	18.42
554.354	18.51
554.55	18.48
554.747	18.56
554.943	18.64
555.14	18.63
555.336	18.68
555.533	18.65
555.729	18.76
555.926	18.93
556.122	19.09
556.318	19.23
556.515	19.14
556.711	19.16
556.907	19.15
557.104	19.3
557.3	19.48
557.496	19.43
557.693	19.45
557.889	19.39
558.085	19.35
558.281	19.23
558.478	19.22
558.674	19.27
558.87	19.3
559.066	19.37
559.262	19.36
559.459	19.2
559.655	19.26
559.851	19.32
560.047	19.33
560.243	19.37
560.439	19.38
560.635	19.31
560.831	19.42
561.027	19.54
561.223	19.5
561.419	19.42
561.615	19.41
561.811	19.5
562.007	19.4
562.203	19.53
562.399	19.59
562.595	19.61
562.791	19.74
562.987	19.63
563.183	19.55
563.379	19.48
563.575	19.57
563.771	19.6
563.966	19.51
564.162	19.64
564.358	19.6
564.554	19.55
564.75	19.62
564.945	19.59
565.141	19.63
565.337	19.61
565.533	19.67
565.728	19.56
565.924	19.6
566.12	19.64
566.315	19.49
566.511	19.47
566.707	19.44
566.902	19.38
567.098	19.39
567.293	19.31
567.489	19.31
567.684	19.26
567.88	19.29
568.076	19.31
568.271	19.36
568.467	19.47
568.662	19.44
568.858	19.57
569.053	19.55
569.248	19.47
569.444	19.52
569.639	19.51
569.835	19.55
570.03	19.56
570.225	19.54
570.421	19.53
570.616	19.59
570.812	19.61
571.007	19.52
571.202	19.52
571.397	19.51
571.593	19.51
571.788	19.59
571.983	19.65
572.178	19.75
572.374	19.78
572.569	19.82
572.764	19.84
572.959	19.9
573.154	19.97
573.35	20.05
573.545	20.19
573.74	20.25
573.935	20.23
574.13	20.14
574.325	20.05
574.52	20.11
574.715	20.15
574.91	20.27
575.105	20.31
575.3	20.34
575.495	20.39
575.69	20.31
575.885	20.42
576.08	20.52
576.275	20.7
576.47	20.83
576.665	20.88
576.86	20.88
577.055	20.79
577.25	20.85
577.444	20.83
577.639	21
577.834	21.13
578.029	21.15
578.224	21.21
578.418	21.16
578.613	21.22
578.808	21.32
579.003	21.53
579.197	21.6
579.392	21.56
579.587	21.61
579.781	21.64
579.976	21.58
580.171	21.7
580.365	21.79
580.56	21.91
580.755	21.99
580.949	21.87
581.144	21.75
581.338	21.75
581.533	21.82
581.727	21.93
581.922	21.76
582.116	22.02
582.311	21.97
582.505	21.79
582.7	21.88
582.894	21.88
583.089	22.08
583.283	22.09
583.478	22.05
583.672	22.17
583.866	22.14
584.061	22.28
584.255	22.11
584.449	22.16
584.644	22.41
584.838	22.48
585.032	22.35
585.226	22.33
585.421	22.48
585.615	22.77
585.809	22.61
586.003	22.65
586.198	22.73
586.392	22.87
586.586	22.93
586.78	22.91
586.974	22.9
587.168	22.87
587.363	22.89
587.557	22.85
587.751	22.66
587.945	22.62
588.139	22.53
588.333	22.35
588.527	22.36
588.721	22.24
588.915	22.11
589.109	21.97
589.303	22.04
589.497	21.92
589.691	21.85
589.885	21.91
590.079	22.15
590.273	22.22
590.466	22.3
590.66	22.3
590.854	22.41
591.048	22.42
591.242	22.54
591.436	22.63
591.629	22.87
591.823	23.01
592.017	23.08
592.211	22.95
592.404	22.97
592.598	23.07
592.792	23.06
592.986	23.03
593.179	22.91
593.373	22.84
593.567	22.87
593.76	22.68
593.954	22.53
594.147	22.39
594.341	22.43
594.535	22.47
594.728	22.43
594.922	22.36
595.115	22.32
595.309	22.43
595.502	22.43
595.696	22.33
595.889	22.3
596.083	22.32
596.276	22.31
596.47	22.41
596.663	22.42
596.856	22.45
597.05	22.54
597.243	22.55
597.437	22.68
597.63	22.78
597.823	22.88
598.017	23.02
598.21	23.06
598.403	23.18
598.596	23.25
598.79	23.31
598.983	23.42
599.176	23.51
599.369	23.76
599.563	23.86
599.756	23.98
599.949	24.11
600.142	23.99
600.335	24.18
600.528	24.16
600.722	24.08
600.915	24.07
601.108	24.03
601.301	23.89
601.494	23.83
601.687	23.59
601.88	23.5
602.073	23.31
602.266	23.29
602.459	23.05
602.652	23.02
602.845	23.03
603.038	23
603.231	22.91
603.424	22.91
603.617	22.8
603.809	22.81
604.002	22.67
604.195	22.67
604.388	22.79
604.581	22.89
604.774	22.92
604.966	22.84
605.159	22.82
605.352	22.84
605.545	22.97
605.737	23.05
605.93	23.05
606.123	23.23
606.316	23.52
606.508	23.6
606.701	23.63
606.894	23.75
607.086	23.94
607.279	24.22
607.471	24.41
607.664	24.47
607.857	24.61
608.049	24.96
608.242	25.26
608.434	25.47
608.627	25.88
608.819	26.3
609.012	26.95
609.204	27.61
609.397	28.23
609.589	28.92
609.782	29.71
609.974	30.65
610.166	31.55
610.359	32.31
610.551	33.17
610.743	33.74
610.936	34.48
611.128	34.88
611.32	35.32
611.513	35.46
611.705	35.56
611.897	35.54
612.09	35.37
612.282	35.13
612.474	34.96
612.666	34.5
612.858	34.27
613.051	33.81
613.243	33.3
613.435	32.79
613.627	32.53
613.819	32.38
614.011	32.23
614.203	31.88
614.395	31.42
614.588	30.93
614.78	30.55
614.972	30.14
615.164	29.93
615.356	29.77
615.548	29.4
615.74	29.06
615.932	28.76
616.124	28.44
616.315	28.25
616.507	28.03
616.699	27.88
616.891	27.67
617.083	27.7
617.275	27.49
617.467	27.46
617.659	27.33
617.85	27.33
618.042	27.24
618.234	26.96
618.426	26.82
618.618	26.7
618.809	26.53
619.001	26.61
619.193	26.58
619.384	26.74
619.576	26.79
619.768	26.94
619.959	26.83
620.151	26.69
620.343	26.8
620.534	26.74
620.726	26.85
620.917	26.96
621.109	27.04
621.301	27.07
621.492	26.8
621.684	26.69
621.875	26.61
622.067	26.74
622.258	27.06
622.45	27.17
622.641	27.16
622.832	27.41
623.024	27.38
623.215	27.17
623.407	27.01
623.598	27.01
623.789	27.01
623.981	26.85
624.172	26.74
624.363	26.53
624.555	26.35
624.746	26.31
624.937	26.12
625.129	26.15
625.32	26.11
625.511	26.11
625.702	26.05
625.893	26.09
626.085	26.15
626.276	26.06
626.467	25.92
626.658	26.01
626.849	25.93
627.04	25.67
627.231	25.59
627.422	25.61
627.614	25.54
627.805	25.6
627.996	25.47
628.187	25.66
628.378	25.79
628.569	26.01
628.76	26.15
628.951	26.4
629.142	26.79
629.332	26.98
629.523	27.22
629.714	27.41
629.905	27.69
630.096	27.81
630.287	27.81
630.478	27.8
630.669	27.68
630.859	27.59
631.05	27.5
631.241	27.33
631.432	27.32
631.623	27.25
631.813	27.3
632.004	27.1
632.195	26.89
632.385	26.69
632.576	26.77
632.767	26.78
632.957	26.78
633.148	26.64
633.339	26.51
633.529	26.31
633.72	26.1
633.91	25.82
634.101	25.84
634.292	25.86
634.482	25.8
634.673	25.69
634.863	25.65
635.054	25.56
635.244	25.62
635.435	25.76
635.625	25.75
635.815	25.89
636.006	26.08
636.196	26.02
636.387	26.15
636.577	26.15
636.767	26.07
636.958	25.95
637.148	25.89
637.338	25.83
637.529	25.92
637.719	26.07
637.909	25.97
638.099	25.77
638.29	25.79
638.48	25.77
638.67	26.04
638.86	26.1
639.05	26.41
639.241	26.55
639.431	26.69
639.621	26.54
639.811	26.46
640.001	26.83
640.191	26.96
640.381	26.88
640.571	26.9
640.761	26.58
640.951	26.82
641.141	26.63
641.331	26.62
641.521	26.65
641.711	26.6
641.901	26.7
642.091	26.38
642.281	26.29
642.471	26.46
642.661	26.73
642.851	27.05
643.041	27.11
643.231	27.21
643.42	27.2
643.61	27.3
643.8	27.31
643.99	27.24
644.18	27.47
644.369	27.62
644.559	27.65
644.749	27.6
644.939	27.34
645.128	27.2
645.318	27.07
645.508	27.1
645.697	26.86
645.887	27.13
646.076	27.17
646.266	26.95
646.456	26.91
646.645	26.82
646.835	26.63
647.024	26.82
647.214	26.64
647.403	26.88
647.593	26.9
647.782	27.22
647.972	27.07
648.161	27.15
648.351	27.18
648.54	27.25
648.73	27.03
648.919	27.18
649.108	26.99
649.298	27.23
649.487	27.18
649.677	27.15
649.866	27.04
650.055	27.12
650.244	27.03
650.434	27.01
650.623	27.1
650.812	27.32
651.002	27.23
651.191	27.39
651.38	27.35
651.569	27.39
651.758	27.43
651.947	27.54
652.137	27.56
652.326	27.75
652.515	27.74
652.704	27.45
652.893	27.52
653.082	27.45
653.271	27.42
653.46	27.45
653.649	27.41
653.838	27.26
654.027	27.12
654.216	26.95
654.405	26.73
654.594	26.85
654.783	27
654.972	26.89
655.161	27.07
655.35	27.03
655.539	26.83
655.728	26.77
655.916	26.78
656.105	26.66
656.294	26.98
656.483	27.02
656.672	27.04
656.86	26.94
657.049	26.97
657.238	26.83
657.427	26.94
657.615	26.98
657.804	26.91
657.993	26.85
658.181	26.92
658.37	26.65
658.559	26.77
658.747	26.69
658.936	26.74
659.125	26.34
659.313	26.36
659.502	26.34
659.69	26.29
659.879	26.41
660.067	26.57
660.256	26.53
660.444	26.6
660.633	26.59
660.821	26.58
661.01	26.76
661.198	27.17
661.387	27.22
661.575	27.33
661.763	27.41
661.952	27.38
662.14	27.35
662.328	27.49
662.517	27.58
662.705	27.67
662.893	27.85
663.082	27.77
663.27	27.96
663.458	28.07
663.646	28.26
663.834	28.63
664.023	28.75
664.211	28.95
664.399	29.23
664.587	29.18
664.775	29.28
664.963	29.69
665.152	30.01
665.34	29.86
665.528	30.08
665.716	29.95
665.904	29.51
666.092	29.67
666.28	29.62
666.468	29.22
666.656	29.31
666.844	29.19
667.032	29
667.22	28.71
667.408	29.04
667.596	28.81
667.784	28.6
667.971	28.8
668.159	28.55
668.347	28.63
668.535	28.64
668.723	28.6
668.911	28.49
669.098	28.2
669.286	28.29
669.474	28.04
669.662	27.83
669.849	28.06
670.037	28.05
670.225	28.1
670.413	28.13
670.6	28.29
670.788	28.35
670.976	28.48
671.163	28.46
671.351	28.52
671.538	28.46
671.726	28.76
671.913	28.61
672.101	28.42
672.289	28.67
672.476	28.24
672.664	28.46
672.851	28.78
673.039	28.63
673.226	28.84
673.413	28.78
673.601	28.91
673.788	29.12
673.976	29.34
674.163	29.63
674.35	29.48
674.538	30.02
674.725	30.08
674.912	29.77
675.1	30.04
675.287	29.99
675.474	29.93
675.662	30.07
675.849	29.99
676.036	29.91
676.223	29.95
676.411	29.94
676.598	29.92
676.785	29.72
676.972	30.03
677.159	29.81
677.346	29.87
677.533	29.77
677.721	29.53
677.908	29.25
678.095	29.08
678.282	28.91
678.469	28.56
678.656	28.25
678.843	27.93
679.03	27.77
679.217	27.96
679.404	27.8
679.591	27.69
679.778	27.51
679.964	27.65
680.151	27.7
680.338	27.49
680.525	27.92
680.712	28.05
680.899	28.29
681.086	28.13
681.272	27.92
681.459	28.11
681.646	28.65
681.833	28.92
682.02	28.97
682.206	29.03
682.393	29.12
682.58	28.73
682.766	29.03
682.953	29.09
683.14	29.03
683.326	29.45
683.513	29.57
683.7	29.31
683.886	29.14
684.073	29.14
684.259	29.01
684.446	29.58
684.632	30.23
684.819	29.87
685.005	29.99
685.192	30.43
685.378	30.21
685.565	30.11
685.751	30.07
685.938	30.32
686.124	30.2
686.31	30.47
686.497	30.14
686.683	29.82
686.87	29.99
687.056	29.86
687.242	29.71
687.429	29.56
687.615	29.57
687.801	29.53
687.987	29.47
688.174	29.83
688.36	29.71
688.546	29.97
688.732	30.05
688.918	29.77
689.105	29.94
689.291	30.07
689.477	30.39
689.663	30.39
689.849	30.51
690.035	30.51
690.221	30.33
690.407	30.16
690.593	30.12
690.779	30.14
690.965	30.13
691.151	29.97
691.337	29.8
691.523	29.79
691.709	29.9
691.895	30.08
692.081	30.59
692.267	30.81
692.453	31.14
692.639	31.31
692.825	31.49
693.011	31.71
693.196	31.83
693.382	31.65
693.568	31.57
693.754	31.3
693.94	31.31
694.125	31.21
694.311	31.02
694.497	30.94
694.682	30.56
694.868	30.44
695.054	30.52
695.239	30.72
695.425	30.89
695.611	30.94
695.796	31.04
695.982	30.81
696.168	30.28
696.353	29.92
696.539	29.59
696.724	29.46
696.91	29.36
697.095	29.08
697.281	28.9
697.466	28.76
697.652	28.51
697.837	28.18
698.023	28.13
698.208	27.94
698.393	28.02
698.579	28.1
698.764	28.15
698.949	28.06
699.135	28.18
699.32	28.09
699.505	27.99
699.691	28.08
699.876	28.41
700.061	28.46
700.246	28.76
700.432	29.09
700.617	29.28
700.802	29.37
700.987	29.41
701.172	29.58
701.358	29.82
701.543	30.3
701.728	30.56
701.913	30.54
702.098	30.94
702.283	31.37
702.468	31.49
702.653	31.74
702.838	32.37
703.023	32.88
703.208	33.1
703.393	33.37
703.578	33.36
703.763	33.98
703.948	34.24
704.133	34.21
704.318	34.22
704.503	34.22
704.688	34.37
704.873	34.28
705.057	34.21
705.242	34.32
705.427	34.36
705.612	34.63
705.797	34.4
705.981	34.33
706.166	34.9
706.351	34.84
706.536	35.07
706.72	35.25
706.905	35.4
707.09	35.2
707.274	35.3
707.459	35.12
707.644	35.05
707.828	34.92
708.013	35.4
708.197	35.06
708.382	35.03
708.567	34.83
708.751	34.64
708.936	34.56
709.12	34.98
709.305	34.78
709.489	34.78
709.673	35.01
709.858	34.75
710.042	34.64
710.227	34.46
710.411	34.56
710.596	34.56
710.78	34.44
710.964	34.42
711.149	34.31
711.333	34.27
711.517	34.42
711.702	34.2
711.886	34.12
712.07	33.76
712.254	33.7
712.438	33.3
712.623	33.46
712.807	33.49
712.991	33.43
713.175	32.99
713.359	33.04
713.544	33.21
713.728	33.21
713.912	33.19
714.096	32.8
714.28	32.4
714.464	32.58
714.648	32.03
714.832	31.85
715.016	31.52
715.2	31.47
715.384	31.3
715.568	31.23
715.752	31.25
715.936	31.49
716.12	31.57
716.304	31.9
716.488	32.07
716.671	32.26
716.855	32.06
717.039	32.08
717.223	32.26
717.407	31.77
717.59	31.53
717.774	31.31
717.958	30.98
718.142	30.97
718.325	30.76
718.509	29.97
718.693	29.83
718.877	30.06
719.06	30.08
719.244	30.36
719.428	31.15
719.611	31.1
719.795	31.13
719.978	31.2
720.162	31.34
720.345	31.2
720.529	31.96
720.713	32.35
720.896	32.06
721.08	32.17
721.263	31.97
721.446	31.97
721.63	31.84
721.813	32
721.997	32.65
722.18	33.52
722.364	33.69
722.547	33.67
722.73	33.56
722.914	34.14
723.097	33.79
723.28	33.75
723.464	33.72
723.647	34.19
723.83	33.86
724.013	33.46
724.197	32.95
724.38	33.13
724.563	33.13
724.746	33.01
724.929	32.77
725.112	32.79
725.296	32.79
725.479	32.73
725.662	32.6
725.845	32.66
726.028	32.85
726.211	32.65
726.394	32.86
726.577	32.85
726.76	32.72
726.943	32.57
727.126	32.42
727.309	32.11
727.492	31.62
727.675	31.71
727.858	31.46
728.041	31.14
728.224	31.18
728.407	30.79
728.589	30.87
728.772	30.92
728.955	31.22
729.138	31.41
729.321	31.56
729.503	31.85
729.686	31.54
729.869	31.91
730.052	31.59
730.234	31.41
730.417	31.56
730.6	31.34
730.782	31.4
730.965	31.21
731.148	31.29
731.33	31.43
731.513	31.43
731.695	31.11
731.878	31.24
732.061	31.93
732.243	32.11
732.426	32.27
732.608	32.55
732.791	32.74
732.973	32.61
733.156	32.69
733.338	32.42
733.52	32.81
733.703	33.09
733.885	33.11
734.068	32.67
734.25	33.21
734.432	33.38
734.615	33.08
734.797	32.68
734.979	32.79
735.162	32.83
735.344	33.27
735.526	33.28
735.708	33.57
735.891	33.55
736.073	34.22
736.255	34.18
736.437	33.83
736.619	34.19
736.802	34.58
736.984	34.6
737.166	35.24
737.348	35.08
737.53	35.11
737.712	35.41
737.894	35.19
738.076	34.81
738.258	34.28
738.44	34.43
738.622	34.41
738.804	34.46
738.986	34.69
739.168	34.3
739.35	34.62
739.532	34.52
739.714	34.18
739.896	34.38
740.078	34.36
740.259	34.36
740.441	34.83
740.623	34.4
740.805	34.64
740.987	34.28
741.168	34.54
741.35	33.82
741.532	33.57
741.714	33.88
741.895	33.92
742.077	34.56
742.259	35.25
742.44	34.87
742.622	34.94
742.804	34.61
742.985	35.56
743.167	35.44
743.348	36.47
743.53	36.3
743.711	35.84
743.893	36.49
744.075	35.68
744.256	35.45
744.438	35.48
744.619	36.33
744.8	36.77
744.982	36.98
745.163	36.76
745.345	36.82
745.526	37.38
745.707	37.66
745.889	37.35
746.07	37.86
746.252	38.14
746.433	38.19
746.614	37.4
746.795	37
746.977	36.91
747.158	36.83
747.339	36.64
747.52	36.89
747.702	37.18
747.883	36.83
748.064	36.51
748.245	36.36
748.426	36.31
748.607	37.31
748.788	37.68
748.97	37.35
749.151	37.33
749.332	36.9
749.513	36.61
749.694	36.87
749.875	37.18
750.056	37.42
750.237	37.16
750.418	37.39
750.599	36.57
750.78	36.25
750.96	36.3
751.141	36.97
751.322	37.68
751.503	37.86
751.684	37.16
751.865	36.92
752.046	37.06
752.226	36.68
752.407	36.03
752.588	36.08
752.769	36.36
752.949	36.1
753.13	35.85
753.311	35.56
753.492	35.48
753.672	36.25
753.853	36.86
754.034	37.34
754.214	37.56
754.395	38.44
754.575	39.12
754.756	39.07
754.937	39.44
755.117	39.36
755.298	40.19
755.478	40.89
755.659	40.92
755.839	40.71
756.02	39.93
756.2	39.96
756.381	39.72
756.561	39.62
756.741	39.69
756.922	39.36
757.102	39.27
757.283	38.44
757.463	38.01
757.643	37.53
757.823	37.03
758.004	37.07
758.184	36.83
758.364	36.18
758.545	35.15
758.725	34.4
758.905	33.78
759.085	33.36
759.265	32.84
759.446	32.32
759.626	31.48
759.806	31.34
759.986	31.49
760.166	32.17
760.346	32.58
760.526	32.78
760.706	33.21
760.886	33.08
761.066	33.42
761.246	33.29
761.426	33.11
761.606	33.67
761.786	33.47
761.966	32.51
762.146	31.28
762.326	31.13
762.506	31.61
762.686	31.22
762.866	31.03
763.046	30.66
763.225	31.14
763.405	30.87
763.585	30.68
763.765	30.83
763.945	30.59
764.124	30.86
764.304	30.46
764.484	29.91
764.664	30.14
764.843	30.8
765.023	30.92
765.203	30.59
765.382	31.26
765.562	31.64
765.741	31.86
765.921	33.01
766.101	34.41
766.28	35.01
766.46	35.56
766.639	35.92
766.819	36.31
766.998	36.54
767.178	37.17
767.357	37.28
767.537	37.26
767.716	37.53
767.896	37.96
768.075	37.03
768.254	37.53
768.434	37.93
768.613	38.17
768.792	38.68
768.972	39.29
769.151	39.93
769.33	39.73
769.51	39.37
769.689	39.74
769.868	39.64
770.047	40.54
770.226	40.79
770.406	40.91
770.585	40.95
770.764	40.4
770.943	40.19
771.122	39.32
771.301	39.86
771.48	40.16
771.66	39.18
771.839	38.64
772.018	38.51
772.197	38.98
772.376	39.58
772.555	40.04
772.734	39.57
772.913	40.03
773.092	39.71
773.271	39.52
773.449	40.16
773.628	41.24
773.807	41.46
773.986	41.64
774.165	41.33
774.344	40.51
774.523	39.63
774.701	40.21
774.88	40.65
775.059	42.22
775.238	41.79
775.417	41.76
775.595	41.52
775.774	42.15
775.953	41.58
776.131	41.78
776.31	41.61
776.489	42.8
776.667	43.07
776.846	42.35
777.025	41.77
777.203	42.81
777.382	42.4
777.56	42.74
777.739	42.5
777.917	41.88
778.096	41.48
778.274	41.61
778.453	41.15
778.631	41.3
778.81	41.36
778.988	40.8
779.166	40.36
779.345	41.17
779.523	40.5
779.702	40.65
779.88	41.39
780.058	41.3
780.237	42.47
780.415	42.98
780.593	41.86
780.771	42.36
780.95	42.28
781.128	42.9
781.306	43.33
781.484	44.14
781.662	42.98
781.841	42.89
782.019	42.88
782.197	42.32
782.375	41.33
782.553	42.05
782.731	42.58
782.909	43.75
783.087	42.63
783.265	41.98
783.443	41.08
783.621	42.27
783.799	42.96
783.977	42.86
784.155	42.91
784.333	42.98
784.511	42.73
784.689	42.01
784.867	42.47
785.045	43.28
785.223	43.36
785.4	44.04
785.578	43.48
785.756	43.49
785.934	43.62
786.112	43.86
786.289	44
786.467	44.17
786.645	44.37
786.823	42.79
787	42.34
787.178	41.68
787.356	40.99
787.533	40.89
787.711	40.49
787.889	40.24
788.066	39.59
788.244	38.93
788.421	38.58
788.599	37.64
788.776	37.8
788.954	38.6
789.131	39.04
789.309	39.45
789.486	39.7
789.664	39.6
789.841	39.38
790.019	39.51
790.196	40.27
790.373	40.36
790.551	41.91
790.728	41.96
790.906	41.51
791.083	41.62
791.26	41.39
791.437	41.2
791.615	41.22
791.792	41.95
791.969	42.98
792.146	43.57
792.324	43.75
792.501	42.29
792.678	43.5
792.855	43.53
793.032	42.34
793.209	43.66
793.387	44.19
793.564	44.08
793.741	44.04
793.918	43.83
794.095	43.66
794.272	44.21
794.449	44.23
794.626	43.46
794.803	43.55
794.98	44.98
795.157	43.65
795.334	42.61
795.511	42.11
795.688	41.51
795.864	40.57
796.041	40.24
796.218	40.03
796.395	39.89
796.572	39.42
796.749	38.54
796.925	38.32
797.102	38.53
797.279	39.25
797.456	40.3
797.632	41.64
797.809	42.06
797.986	41.62
798.162	42.11
798.339	41.29
798.516	42.1
798.692	43.05
798.869	42.67
799.046	42.99
799.222	43.81
799.399	43.2
799.575	41.73
799.752	42.13
799.928	43.42
800.105	43.46
800.281	44.85
800.458	44.98
800.634	44.82
800.811	45.06
800.987	45.61
801.163	44.61
801.34	45.66
801.516	46.38
801.692	45.84
801.869	45.19
802.045	44.31
802.221	44.37
802.398	44.92
802.574	43.97
802.75	44.35
802.926	44.89
803.103	45.24
803.279	44.53
803.455	43.66
803.631	43.75
803.807	44.32
803.983	46.05
804.16	47.39
804.336	46.74
804.512	47.79
804.688	48.37
804.864	46.5
805.04	47.09
805.216	46.71
805.392	48.02
805.568	49.05
805.744	48.61
805.92	47.54
806.096	46.29
806.272	44.63
806.448	45.41
806.623	45.07
806.799	46.22
806.975	46.4
807.151	46.26
807.327	46.47
807.503	46.26
807.678	46.35
807.854	45.96
808.03	46.55
808.206	48.66
808.381	47.75
808.557	47.57
808.733	46.38
808.908	46.34
809.084	46.96
809.26	46.7
809.435	46.83
809.611	47.21
809.787	47.25
809.962	46.98
810.138	45.81
810.313	46.67
810.489	45.54
810.664	45.93
810.84	45.67
811.015	45.1
811.191	45.98
811.366	45.85
811.542	45.43
811.717	46.22
811.892	46.42
812.068	47.56
812.243	47.89
812.419	49.24
812.594	48.89
812.769	49.14
812.944	48.75
813.12	46.57
813.295	46.52
813.47	46.88
813.645	45.19
813.821	45.47
813.996	44.03
814.171	43.49
814.346	42.8
814.521	43.55
814.697	45.19
814.872	45.84
815.047	46.68
815.222	45.77
815.397	44.18
815.572	45.59
815.747	43.31
815.922	42.48
816.097	42.79
816.272	42.87
816.447	43.37
816.622	42.75
816.797	42.95
816.972	42.69
817.147	42.95
817.322	42.86
817.496	42.2
817.671	44.02
817.846	45.55
818.021	44.37
818.196	44.06
818.371	42.76
818.545	40.88
818.72	40.69
818.895	40.09
819.069	39.09
819.244	38.53
819.419	36.74
819.594	35.53
819.768	33.99
819.943	33.36
820.117	33.07
820.292	32.53
820.467	31.58
820.641	30.62
820.816	30.17
820.99	29.34
821.165	28.72
821.339	28.08
821.514	27.78
821.688	27.36
821.863	26.97
822.037	26.58
822.212	25.91
822.386	25.62
822.56	25.35
822.735	25.15
822.909	25.29
823.084	25.3
823.258	25.53
823.432	25.24
823.606	25.32
823.781	25.42
823.955	25.33
824.129	25.72
824.303	26.14
824.478	26.16
824.652	26.79
824.826	27.09
825	27.32
825.174	27.77
825.348	28.44
825.523	28.84
825.697	28.85
825.871	28.81
826.045	29.24
826.219	29.36
826.393	29.88
826.567	29.37
826.741	28.98
826.915	29.15
827.089	28.83
827.263	28.52
827.437	28.82
827.611	29.1
827.784	29.24
827.958	29.14
828.132	29.09
828.306	29.36
828.48	29.25
828.654	29.87
828.827	30.62
829.001	30.75
829.175	32.4
829.349	32.99
829.522	34.11
829.696	35.48
829.87	36.01
830.044	37
830.217	38.16
830.391	38.81
830.565	38.75
830.738	38.87
830.912	40.37
831.085	38.65
831.259	39.67
831.432	39.13
831.606	38.26
831.779	37.48
831.953	38.06
832.126	36.97
832.3	37.55
832.473	37.2
832.647	36
832.82	35.52
832.994	35.23
833.167	34.5
833.34	34.33
833.514	34.2
833.687	34.27
833.86	33.5
834.034	33.29
834.207	32.49
834.38	32.72
834.553	33.41
834.727	32.92
834.9	32.98
835.073	32.81
835.246	32.59
835.419	33.39
835.593	33.79
835.766	34.4
835.939	35.29
836.112	36.35
836.285	37.26
836.458	36.78
836.631	37.89
836.804	38.76
836.977	39.45
837.15	40.84
837.323	42.14
837.496	43.25
837.669	43.77
837.842	43.14
838.015	44.8
838.188	44.78
838.361	45.69
838.533	45.86
838.706	46.12
838.879	45.37
839.052	45.09
839.225	44.55
839.398	43.56
839.57	45.01
839.743	45.19
839.916	45.17
840.088	43.59
840.261	43.83
840.434	46.23
840.607	46.99
840.779	46.27
840.952	46.23
841.124	45.17
841.297	47.51
841.47	47.36
841.642	47.47
841.815	49.02
841.987	52.12
842.16	54.14
842.332	53.01
842.505	53.79
842.677	56.21
842.85	58.16
843.022	59.34
843.194	59.98
843.367	61.02
843.539	63.1
843.712	60.18
843.884	60.49
844.056	58.98
844.229	58.64
844.401	59.56
844.573	61.17
844.745	60.16
844.918	62.27
845.09	61.29
845.262	61.53
845.434	65.49
845.606	68.62
845.779	68.79
845.951	70.95
846.123	70.55
846.295	69.55
846.467	67.15
846.639	69.71
846.811	66.78
846.983	69.44
847.155	67.44
847.327	67.1
847.499	65.67
847.671	66.04
847.843	62.44
848.015	67.82
848.187	68.81
848.359	70.11
848.531	70.29
848.703	73.86
848.875	73.84
849.047	74.59
849.218	72.64
849.39	76.65
849.562	76.68
849.734	80.38
849.905	76.28
850.077	77.16
850.249	76.76
850.421	78.81
850.592	80.18
850.764	80.65
850.936	80.28
851.107	77.69
851.279	72.56
851.451	75.7
851.622	74.51
851.794	80.41
851.965	81.19
852.137	86.15
852.308	80.8
852.48	77.07
852.651	71.94
852.823	71.62
852.994	73.16
853.166	71.63
853.337	70.34
853.509	69.44
853.68	65.03
853.851	61.89
854.023	61.12
854.194	61.56
854.365	59.37
854.537	62.65
854.708	63.23
854.879	62.62
855.05	65.81
855.222	64.49
855.393	68.34
855.564	72.46
855.735	74.71
855.906	73.02
856.078	72.65
856.249	73.47
856.42	69.16
856.591	69.15
856.762	70.8
856.933	72.86
857.104	71.02
857.275	68.78
857.446	65.06
857.617	68.53
857.788	72.14
857.959	73.59
858.13	77.88
858.301	80.84
858.472	79.7
858.643	77.32
858.814	79.18
858.985	83.3
859.155	87.06
859.326	91.69
859.497	88.28
859.668	85.33
859.839	92.11
860.009	87.99
860.18	89.71
860.351	93.21
860.522	100.41
860.692	94.65
860.863	89.63
861.034	88.18
861.204	82.75
861.375	84.55
861.546	86.96
861.716	83.64
861.887	83.03
862.057	83.43
862.228	82.29
862.398	76.66
862.569	76.14
862.739	81.56
862.91	81.82
863.08	80.74
863.251	78.89
863.421	74.15
863.592	68.8
863.762	72.06
863.932	70.68
864.103	70.75
864.273	71.05
864.443	70.95
864.614	70.31
864.784	70.97
864.954	73.08
865.125	71.18
865.295	72.75
865.465	75.48
865.635	76.04
865.805	76.43
865.976	74.63
866.146	75.61
866.316	79.28
866.486	81.46
866.656	77.94
866.826	81.34
866.996	85.85
867.166	86.7
867.336	92.1
867.506	91.77
867.676	93.96
867.846	99.02
868.016	99.71
868.186	95.86
868.356	90.23
868.526	91.01
868.696	89.71
868.866	87.13
869.036	91.9
869.206	89.46
869.376	87.55
869.545	88.86
869.715	86.81
869.885	88.35
870.055	91.78
870.224	95.6
870.394	101.46
870.564	95.18
870.734	95.61
870.903	90.18
871.073	86.6
871.243	84.26
871.412	83.34
871.582	85.48
871.751	84.56
871.921	81.17
872.091	79.6
872.26	74.29
872.43	78.73
872.599	74
872.769	76.51
872.938	77.66
873.108	76.05
873.277	74.47
873.446	70.47
873.616	72.34
873.785	74.01
873.955	72.91
874.124	76.33
874.293	71.69
874.463	73.81
874.632	71.55
874.801	73.43
874.971	79.53
875.14	82.84
875.309	83.83
875.478	85.82
875.647	82.78
875.817	86.03
875.986	82.52
876.155	86.57
876.324	83.54
876.493	81.42
876.662	79.25
876.831	76.43
877	72.03
877.17	72.49
877.339	68.86
877.508	66.91
877.677	62.1
877.846	61.58
878.015	57.25
878.184	61.17
878.352	66.12
878.521	65.68
878.69	68.27
878.859	68.01
879.028	67.12
879.197	65.45
879.366	65.98
879.534	64.38
879.703	61.42
879.872	59.96
880.041	54.87
880.21	49.01
880.378	45.4
880.547	41.54
880.716	39.94
880.884	37.59
881.053	35.75
881.222	34.28
881.39	33.34
881.559	32.03
881.727	30.61
881.896	30.74
882.065	30.57
882.233	29.64
882.402	28.78
882.57	28.87
882.739	29.16
882.907	29.07
883.076	29.68
883.244	29.83
883.412	29.86
883.581	30.54
883.749	30.28
883.918	30.11
884.086	31.88
884.254	33.03
884.423	32.67
884.591	32.28
884.759	32.95
884.927	33.09
885.096	32.19
885.264	32.58
885.432	32.25
885.6	34.16
885.769	37.02
885.937	38.27
886.105	38.11
886.273	40.95
886.441	44.57
886.609	47.73
886.777	47.75
886.945	52.53
887.113	56.53
887.281	58.14
887.449	60.31
887.617	62.45
887.785	62.15
887.953	68.48
888.121	68.82
888.289	69.35
888.457	72.31
888.625	73.13
888.793	72.94
888.961	75.82
889.129	82.28
889.296	78.65
889.464	76.1
889.632	77.01
889.8	72.48
889.967	74.89
890.135	77.93
