Data from 2938819__Reflection_03.txt Node
Date: Thu Mar 12 14:43:14 EDT 2015
User: robert
Spectrometer: USB4E03002
Autoset integration time: false
Trigger mode: 4
Integration Time (sec): 1.000000E-1
Scans to average: 10
Electric dark correction enabled: false
Nonlinearity correction enabled: false
Boxcar width: 5
Stray light correction enabled: false
XAxis mode: Wavelengths
Stop averaging: false
Number of Pixels in Spectrum: 3648
>>>>>Begin Spectral Data<<<<<
177.575	-234.31
177.794	-265.09
178.014	-116.27
178.233	-80.75
178.452	-106.81
178.672	-120.41
178.891	-99.61
179.11	-134.95
179.33	-152.46
179.549	-171.38
179.768	-215.98
179.987	-178.15
180.207	-231.23
180.426	-395.33
180.645	-1065.41
180.864	-1231.07
181.084	-3378.05
181.303	1304.03
181.522	15927.27
181.741	-4628.95
181.96	-1099.36
182.179	-2717.39
182.398	-7208
182.618	-4953.12
182.837	4245
183.056	1523.48
183.275	676.74
183.494	824.57
183.713	778.75
183.932	525.3
184.151	516.99
184.37	447.74
184.589	496.76
184.808	542.16
185.027	609.24
185.246	564.65
185.465	780.29
185.684	914.15
185.903	501.3
186.122	472.8
186.341	642.81
186.56	551.82
186.779	614.29
186.998	490.29
187.216	357.99
187.435	367.71
187.654	475.41
187.873	399.08
188.092	417.7
188.311	573.82
188.53	463.74
188.748	355.13
188.967	482.86
189.186	293.19
189.405	413.68
189.623	570.94
189.842	593.09
190.061	624.27
190.28	669.67
190.498	546.21
190.717	460.47
190.936	704.57
191.154	751.53
191.373	360.62
191.592	468.41
191.81	341.56
192.029	389.38
192.248	407.05
192.466	366.08
192.685	405.12
192.904	421.88
193.122	625.91
193.341	669.52
193.559	706.5
193.778	1932.26
193.996	-1520.35
194.215	-988.51
194.433	-9494.12
194.652	793.45
194.87	2074.71
195.089	1247.02
195.307	1533.94
195.526	1360.34
195.744	1182.71
195.963	1577.23
196.181	867.01
196.399	726.58
196.618	1544.04
196.836	3040
197.055	-1123.7
197.273	3243.75
197.491	2700
197.71	5300
197.928	3885.37
198.146	2498.36
198.365	644.98
198.583	686
198.801	483.84
199.019	554.19
199.238	657.14
199.456	406.67
199.674	606.02
199.892	745.6
200.111	802.96
200.329	719.31
200.547	696.02
200.765	-54050
200.983	2942.11
201.202	-6055.56
201.42	7757.14
201.638	988.68
201.856	9325
202.074	-7626.67
202.292	1897.06
202.51	2979.59
202.728	818.82
202.946	1104.17
203.165	601.69
203.383	673.28
203.601	520.88
203.819	359.43
204.037	544.95
204.255	667.66
204.473	771.9
204.691	1886.32
204.909	1119.15
205.127	1540
205.345	1136.81
205.562	-19600
205.78	1278.91
205.998	680.09
206.216	587.28
206.434	336.65
206.652	272.68
206.87	261.8
207.088	220.86
207.306	213.94
207.523	218.26
207.741	199.19
207.959	191.75
208.177	183.56
208.395	216.65
208.612	246.75
208.83	279.55
209.048	339.48
209.266	234.64
209.483	253.95
209.701	272.64
209.919	253.19
210.136	264.53
210.354	274.96
210.572	288.23
210.79	264.41
211.007	250.83
211.225	240.76
211.442	224.44
211.66	254.73
211.878	225.09
212.095	109.66
212.313	111.12
212.53	106.16
212.748	107.65
212.966	114.53
213.183	115.41
213.401	104.4
213.618	115.81
213.836	114.73
214.053	129.22
214.271	125.51
214.488	281.83
214.705	298.98
214.923	287.07
215.14	290.96
215.358	304.96
215.575	290.21
215.793	435.31
216.01	331.34
216.227	440.99
216.445	355.06
216.662	320.59
216.879	256.71
217.097	278.25
217.314	290.49
217.531	259.75
217.749	301.03
217.966	262.39
218.183	237.89
218.4	247.46
218.618	195.01
218.835	175
219.052	153.05
219.269	154.94
219.487	155.98
219.704	156.05
219.921	154.76
220.138	135.88
220.355	149.18
220.572	138.7
220.79	135.79
221.007	135.61
221.224	135.1
221.441	140.3
221.658	140.35
221.875	126.66
222.092	116.12
222.309	113.66
222.526	107.56
222.743	99.64
222.96	89.48
223.177	92.73
223.394	91.61
223.611	91.67
223.828	83.66
224.045	81.61
224.262	81.88
224.479	77.37
224.696	69.07
224.913	69.26
225.13	64.5
225.347	62.4
225.564	51.37
225.781	43.87
225.997	44.71
226.214	41.26
226.431	33.86
226.648	30.76
226.865	26.81
227.082	24.52
227.298	22.23
227.515	19.27
227.732	18.73
227.949	18.95
228.165	17.89
228.382	16.81
228.599	17.07
228.816	17.31
229.032	15.8
229.249	14.87
229.466	14.77
229.682	13.99
229.899	14.33
230.116	14.35
230.332	13.76
230.549	14.98
230.765	14.96
230.982	14.98
231.199	13.9
231.415	16.37
231.632	18.24
231.848	18
232.065	18.68
232.281	21.04
232.498	22.91
232.714	25.16
232.931	26.15
233.147	24
233.364	22.91
233.58	25.18
233.797	23.82
234.013	23.72
234.23	23.79
234.446	23.16
234.662	21.82
234.879	20.46
235.095	20.02
235.312	19.55
235.528	21.99
235.744	22.81
235.961	23.15
236.177	22.34
236.393	22.33
236.61	22.63
236.826	22.81
237.042	21.85
237.258	22.05
237.475	20.88
237.691	20.71
237.907	19.21
238.123	20.22
238.339	19.56
238.556	20.45
238.772	19.84
238.988	20.47
239.204	21.06
239.42	21.53
239.636	22.31
239.853	22.08
240.069	19.41
240.285	18.78
240.501	17.17
240.717	16.08
240.933	14.93
241.149	13.99
241.365	13.12
241.581	12.3
241.797	11.99
242.013	11.01
242.229	10.47
242.445	10.62
242.661	10.34
242.877	9.99
243.093	9.87
243.309	10.78
243.525	10.74
243.741	10.75
243.957	12.1
244.173	12.26
244.388	12.34
244.604	12.56
244.82	12.82
245.036	12.77
245.252	13.1
245.468	12.5
245.683	11.53
245.899	11.3
246.115	10.36
246.331	9.54
246.547	8.77
246.762	8.61
246.978	8.49
247.194	8.46
247.409	8.23
247.625	8.15
247.841	8.38
248.057	8.25
248.272	8.41
248.488	8.91
248.703	8.38
248.919	9.12
249.135	9.08
249.35	9.23
249.566	9.39
249.782	10.16
249.997	10.23
250.213	10.36
250.428	10.59
250.644	9.81
250.859	9.64
251.075	10.35
251.29	9.76
251.506	10.15
251.721	9.72
251.937	10.05
252.152	10.23
252.368	10.23
252.583	9.25
252.798	9.35
253.014	9.7
253.229	10.46
253.445	11.61
253.66	12.54
253.875	13.18
254.091	13.87
254.306	13.92
254.521	13.83
254.737	14.47
254.952	15.74
255.167	16.53
255.383	17.11
255.598	16.92
255.813	15.6
256.028	14.92
256.244	14.21
256.459	14.37
256.674	13.78
256.889	13.51
257.104	12.78
257.32	12.4
257.535	10.51
257.75	10.15
257.965	9.55
258.18	8.87
258.395	8.09
258.61	7.38
258.826	6.61
259.041	6.31
259.256	6.04
259.471	5.75
259.686	5.63
259.901	5.72
260.116	5.58
260.331	5.35
260.546	5.46
260.761	5.53
260.976	5.66
261.191	6.13
261.406	6.49
261.621	6.65
261.836	6.81
262.05	6.8
262.265	7.4
262.48	7.5
262.695	7.64
262.91	7.85
263.125	7.92
263.34	8.34
263.555	7.96
263.769	8.05
263.984	7.69
264.199	8.05
264.414	8.17
264.629	7.63
264.843	6.88
265.058	7.4
265.273	7.28
265.488	7.26
265.702	6.88
265.917	6.63
266.132	6.33
266.346	6.81
266.561	7.1
266.776	7.32
266.99	7.22
267.205	7.56
267.42	7.52
267.634	7.61
267.849	7.5
268.063	8.05
268.278	8.49
268.492	8.48
268.707	8.59
268.922	8.67
269.136	8.58
269.351	8.98
269.565	8.92
269.78	8.49
269.994	8.4
270.209	8.37
270.423	7.76
270.637	7.56
270.852	7.38
271.066	6.78
271.281	6.14
271.495	5.88
271.709	5.64
271.924	5.82
272.138	6.17
272.353	5.98
272.567	6.29
272.781	6.29
272.996	6.47
273.21	6.42
273.424	7.01
273.638	7.41
273.853	7.14
274.067	6.73
274.281	7.13
274.495	7.1
274.71	7.39
274.924	7.47
275.138	7.38
275.352	7.14
275.566	7.33
275.781	7.14
275.995	7.04
276.209	7.82
276.423	8.65
276.637	8.18
276.851	8.27
277.065	7.96
277.279	7.82
277.493	7.86
277.707	8.21
277.921	8.05
278.135	7.75
278.349	7.45
278.563	6.89
278.777	6.75
278.991	6.57
279.205	6.61
279.419	6.58
279.633	6.72
279.847	7.08
280.061	6.85
280.275	6.91
280.489	7.09
280.703	7.41
280.917	7.84
281.131	7.49
281.344	7.41
281.558	7.06
281.772	7.01
281.986	6.71
282.2	6.17
282.414	6.29
282.627	6.13
282.841	6.2
283.055	6.27
283.269	6.46
283.482	6.77
283.696	6.93
283.91	6.88
284.123	6.72
284.337	6.67
284.551	6.77
284.764	6.65
284.978	6.95
285.192	7
285.405	6.7
285.619	6.1
285.833	5.9
286.046	5.71
286.26	5.48
286.473	5.44
286.687	5.27
286.9	5.25
287.114	5.43
287.327	5.19
287.541	4.72
287.754	5.18
287.968	5.4
288.181	5.2
288.395	5.25
288.608	5.57
288.822	5.77
289.035	6.23
289.248	6.7
289.462	6.27
289.675	6.22
289.889	6.21
290.102	5.42
290.315	5.55
290.529	5.73
290.742	5.91
290.955	5.9
291.169	6.02
291.382	5.8
291.595	5.79
291.808	5.95
292.022	6.16
292.235	6.53
292.448	6.9
292.661	6.86
292.875	6.76
293.088	6.83
293.301	7.06
293.514	7.27
293.727	7.61
293.94	7.32
294.153	7.57
294.367	7.48
294.58	7.49
294.793	7.47
295.006	7.36
295.219	7.37
295.432	7.41
295.645	7.03
295.858	6.96
296.071	6.76
296.284	6.86
296.497	6.61
296.71	6.15
296.923	6
297.136	6.07
297.349	6.26
297.562	6.56
297.775	6.41
297.988	6.43
298.201	6.32
298.414	6.47
298.626	6.23
298.839	6.15
299.052	6.71
299.265	6.68
299.478	6.71
299.691	6.86
299.903	6.74
300.116	6.97
300.329	7.32
300.542	7.23
300.755	7.14
300.967	7.7
301.18	7.61
301.393	7.5
301.605	7.6
301.818	7.81
302.031	7.79
302.243	7.49
302.456	7.47
302.669	7.4
302.881	7.6
303.094	7.51
303.307	7.09
303.519	7.39
303.732	7.54
303.944	7.61
304.157	7.33
304.37	7.24
304.582	7.41
304.795	7.28
305.007	7.26
305.22	7.06
305.432	7.23
305.645	7.4
305.857	7.43
306.069	7.77
306.282	7.94
306.494	8.16
306.707	8.15
306.919	8.39
307.132	8.51
307.344	8.76
307.556	8.79
307.769	8.51
307.981	8.72
308.193	8.59
308.406	8.38
308.618	8.41
308.83	8.62
309.043	8.41
309.255	8.26
309.467	8.46
309.679	8.19
309.892	8.2
310.104	8.42
310.316	8.5
310.528	8.61
310.74	8.45
310.953	8.29
311.165	8.07
311.377	8.23
311.589	8.31
311.801	8.22
312.013	8.17
312.225	8.44
312.437	8.52
312.649	8.6
312.862	8.62
313.074	8.41
313.286	8.41
313.498	8.78
313.71	8.87
313.922	8.77
314.134	8.62
314.346	8.41
314.558	8.45
314.77	8.46
314.982	8.12
315.193	8.48
315.405	8.9
315.617	9.1
315.829	8.74
316.041	8.77
316.253	9.36
316.465	9.17
316.677	10.01
316.888	10.01
317.1	10.29
317.312	10.04
317.524	9.47
317.736	9.87
317.947	10.34
318.159	10.7
318.371	10.77
318.583	10.37
318.794	10.82
319.006	10.48
319.218	10.47
319.43	10.33
319.641	10.75
319.853	10.77
320.064	10.5
320.276	10.12
320.488	10.07
320.699	10.07
320.911	9.9
321.123	9.91
321.334	9.95
321.546	9.95
321.757	9.57
321.969	9.56
322.18	10.03
322.392	10.02
322.603	10.2
322.815	10.02
323.026	10.18
323.238	10.29
323.449	10.02
323.661	9.92
323.872	9.7
324.083	10.03
324.295	9.91
324.506	9.73
324.718	9.58
324.929	9.47
325.14	9.35
325.352	9.09
325.563	9.28
325.774	9.52
325.986	9.44
326.197	9.73
326.408	9.78
326.62	9.8
326.831	9.84
327.042	10.04
327.253	9.73
327.464	10.13
327.676	10.53
327.887	10.38
328.098	10.25
328.309	10.51
328.52	10.43
328.732	10.33
328.943	10.26
329.154	10.26
329.365	10.43
329.576	10.59
329.787	10.38
329.998	10.21
330.209	10.42
330.42	10.6
330.631	10.86
330.842	10.84
331.053	10.82
331.264	10.88
331.475	10.99
331.686	10.91
331.897	10.86
332.108	10.79
332.319	10.7
332.53	10.37
332.741	10.15
332.952	9.8
333.163	9.69
333.374	9.8
333.585	9.71
333.795	9.85
334.006	9.61
334.217	9.85
334.428	9.8
334.639	9.39
334.849	9.41
335.06	9.52
335.271	9.49
335.482	9.42
335.692	9.24
335.903	9.62
336.114	9.33
336.325	9.45
336.535	9.27
336.746	9.28
336.957	9.73
337.167	9.83
337.378	9.83
337.589	9.81
337.799	10.24
338.01	10.24
338.22	10.17
338.431	10.61
338.642	10.56
338.852	10.74
339.063	10.82
339.273	10.8
339.484	10.92
339.694	10.79
339.905	10.57
340.115	10.15
340.326	10.21
340.536	10.09
340.746	9.52
340.957	9.31
341.167	9.13
341.378	9.31
341.588	9.15
341.799	8.97
342.009	9.11
342.219	9.35
342.43	9.19
342.64	9.11
342.85	8.78
343.061	8.69
343.271	8.61
343.481	8.56
343.691	8.1
343.902	8.27
344.112	8.25
344.322	8.02
344.532	7.89
344.743	8
344.953	7.97
345.163	7.97
345.373	7.88
345.583	8.25
345.793	8.18
346.004	8.46
346.214	8.27
346.424	8.26
346.634	8.27
346.844	8.47
347.054	8.49
347.264	8.09
347.474	8.05
347.684	8.47
347.894	8.13
348.104	7.93
348.314	7.93
348.524	7.78
348.734	8.08
348.944	7.91
349.154	8.06
349.364	8.2
349.574	8.41
349.784	8.88
349.994	8.86
350.204	8.88
350.413	9.22
350.623	9.4
350.833	9.16
351.043	8.77
351.253	9.12
351.463	8.88
351.672	8.63
351.882	8.42
352.092	8.16
352.302	7.8
352.511	7.76
352.721	7.73
352.931	7.32
353.141	7.43
353.35	7.51
353.56	7.52
353.77	7.7
353.979	7.71
354.189	8.24
354.399	8.19
354.608	8.3
354.818	8.37
355.027	8.28
355.237	8.4
355.447	8.53
355.656	8.32
355.866	8.02
356.075	7.77
356.285	7.87
356.494	7.54
356.704	7.46
356.913	7.6
357.123	7.61
357.332	7.61
357.542	7.54
357.751	7.77
357.96	7.96
358.17	7.91
358.379	8.19
358.589	8.17
358.798	8.11
359.007	8.08
359.217	8.03
359.426	8
359.635	7.9
359.845	7.68
360.054	7.43
360.263	7.26
360.472	7.36
360.682	6.92
360.891	6.93
361.1	6.83
361.309	6.64
361.519	6.53
361.728	6.46
361.937	6.47
362.146	6.54
362.355	6.48
362.564	6.41
362.774	6.45
362.983	6.66
363.192	6.54
363.401	6.58
363.61	6.68
363.819	6.64
364.028	6.66
364.237	6.68
364.446	6.58
364.655	6.46
364.864	6.64
365.073	6.65
365.282	6.44
365.491	6.48
365.7	6.58
365.909	6.86
366.118	6.89
366.327	6.99
366.536	6.94
366.745	6.95
366.954	7.35
367.162	7.39
367.371	7.56
367.58	7.74
367.789	7.7
367.998	7.64
368.207	7.67
368.415	7.78
368.624	7.78
368.833	7.75
369.042	7.88
369.25	7.75
369.459	7.59
369.668	7.34
369.877	7.35
370.085	7.22
370.294	7.3
370.503	6.82
370.711	7.05
370.92	6.65
371.129	6.77
371.337	6.55
371.546	6.45
371.754	6.53
371.963	6.34
372.171	6.04
372.38	6.19
372.589	6.21
372.797	6.41
373.006	6.03
373.214	6.37
373.423	6.26
373.631	6.71
373.84	6.66
374.048	6.62
374.256	6.73
374.465	6.72
374.673	6.67
374.882	6.68
375.09	6.44
375.298	6.54
375.507	6.52
375.715	6.55
375.923	6.18
376.132	6.36
376.34	6.32
376.548	6.25
376.757	6.37
376.965	6.35
377.173	6.17
377.381	6.49
377.59	6.34
377.798	6.28
378.006	6.15
378.214	6.33
378.423	6.11
378.631	6.08
378.839	6.06
379.047	6.18
379.255	6.16
379.463	6.31
379.671	6.09
379.879	6.19
380.088	6.17
380.296	6.22
380.504	6.34
380.712	6.51
380.92	6.57
381.128	6.66
381.336	6.47
381.544	6.33
381.752	6.2
381.96	6.14
382.168	6.3
382.376	6.32
382.584	6.31
382.791	6.06
382.999	6.11
383.207	6.12
383.415	6.27
383.623	6.26
383.831	6.23
384.039	6.33
384.247	6.41
384.454	6.25
384.662	6.15
384.87	6.06
385.078	6.04
385.285	5.73
385.493	5.56
385.701	5.45
385.909	5.4
386.116	5.34
386.324	5.23
386.532	5.14
386.739	5.32
386.947	5.14
387.155	5.15
387.362	5.26
387.57	5.21
387.778	5.12
387.985	5.12
388.193	5.05
388.4	5.22
388.608	5.3
388.816	5.42
389.023	5.1
389.231	5.15
389.438	5.01
389.646	4.9
389.853	5.11
390.061	5.1
390.268	4.98
390.475	5.16
390.683	5.11
390.89	4.9
391.098	4.83
391.305	4.8
391.512	4.89
391.72	4.96
391.927	4.98
392.135	4.84
392.342	4.91
392.549	4.9
392.756	4.73
392.964	4.85
393.171	4.97
393.378	5
393.586	5.18
393.793	5.1
394	5.23
394.207	5.13
394.414	5.08
394.622	5.11
394.829	5.18
395.036	5.2
395.243	5.11
395.45	4.98
395.657	5.21
395.864	5.13
396.072	5.06
396.279	4.93
396.486	4.8
396.693	4.92
396.9	4.8
397.107	4.57
397.314	4.77
397.521	4.91
397.728	4.97
397.935	4.68
398.142	4.71
398.349	4.77
398.556	4.77
398.763	4.91
398.97	4.85
399.177	5.09
399.383	5.19
399.59	5.04
399.797	4.88
400.004	5.06
400.211	4.99
400.418	4.98
400.625	5.06
400.831	5.06
401.038	4.94
401.245	4.93
401.452	4.71
401.658	4.48
401.865	4.59
402.072	4.51
402.279	4.38
402.485	4.55
402.692	4.56
402.899	4.58
403.105	4.55
403.312	4.68
403.519	4.59
403.725	4.57
403.932	4.75
404.138	4.74
404.345	4.69
404.552	4.55
404.758	4.52
404.965	4.41
405.171	4.2
405.378	4.29
405.584	4.34
405.791	4.39
405.997	4.35
406.204	4.3
406.41	4.16
406.617	4.43
406.823	4.51
407.029	4.61
407.236	4.62
407.442	4.85
407.649	4.79
407.855	4.69
408.061	4.57
408.268	4.53
408.474	4.42
408.68	4.45
408.887	4.24
409.093	4.21
409.299	4.02
409.505	3.91
409.712	3.9
409.918	3.88
410.124	3.81
410.33	4.05
410.537	4.27
410.743	4.21
410.949	4.35
411.155	4.53
411.361	4.54
411.567	4.57
411.773	4.59
411.98	4.52
412.186	4.55
412.392	4.57
412.598	4.43
412.804	4.3
413.01	4.6
413.216	4.33
413.422	4.07
413.628	4.2
413.834	4.18
414.04	4.29
414.246	4.29
414.452	4.33
414.658	4.31
414.864	4.18
415.07	4.28
415.275	4.27
415.481	4.42
415.687	4.44
415.893	4.26
416.099	4.2
416.305	4.27
416.511	4.17
416.716	3.97
416.922	4.02
417.128	4.07
417.334	3.95
417.539	3.77
417.745	3.63
417.951	3.51
418.157	3.52
418.362	3.53
418.568	3.49
418.774	3.51
418.979	3.46
419.185	3.37
419.391	3.31
419.596	3.33
419.802	3.37
420.008	3.32
420.213	3.42
420.419	3.41
420.624	3.32
420.83	3.17
421.035	3.14
421.241	3.27
421.446	3.26
421.652	3.25
421.857	3.22
422.063	3.22
422.268	3.32
422.474	3.27
422.679	3.27
422.885	3.33
423.09	3.36
423.295	3.25
423.501	3.21
423.706	3.2
423.911	3.17
424.117	3.14
424.322	3.15
424.527	3.13
424.733	3.11
424.938	3.14
425.143	3.07
425.349	3.13
425.554	3.22
425.759	3.27
425.964	3.34
426.169	3.38
426.375	3.36
426.58	3.41
426.785	3.41
426.99	3.45
427.195	3.45
427.4	3.6
427.605	3.61
427.811	3.61
428.016	3.56
428.221	3.56
428.426	3.62
428.631	3.74
428.836	3.71
429.041	3.68
429.246	3.76
429.451	3.72
429.656	3.69
429.861	3.68
430.066	3.81
430.271	3.85
430.476	3.93
430.681	3.88
430.886	3.83
431.09	3.85
431.295	3.81
431.5	3.74
431.705	3.6
431.91	3.54
432.115	3.5
432.32	3.38
432.524	3.34
432.729	3.23
432.934	3.25
433.139	3.3
433.343	3.27
433.548	3.26
433.753	3.26
433.958	3.35
434.162	3.45
434.367	3.47
434.572	3.46
434.776	3.49
434.981	3.5
435.186	3.46
435.39	3.36
435.595	3.4
435.799	3.41
436.004	3.38
436.209	3.34
436.413	3.25
436.618	3.23
436.822	3.22
437.027	3.11
437.231	3.16
437.436	3.2
437.64	3.29
437.845	3.16
438.049	3.16
438.253	3.09
438.458	3.12
438.662	3.1
438.867	3.08
439.071	3.08
439.275	3.08
439.48	3.09
439.684	3.06
439.888	3.01
440.093	3.06
440.297	3.09
440.501	3.13
440.706	3.15
440.91	3.12
441.114	3.05
441.318	3.06
441.523	3.08
441.727	3.09
441.931	3.17
442.135	3.18
442.339	3.15
442.543	3.1
442.748	3.1
442.952	3.06
443.156	3.16
443.36	3.24
443.564	3.33
443.768	3.25
443.972	3.12
444.176	3.11
444.38	3.14
444.584	3.12
444.788	3.21
444.992	3.24
445.196	3.25
445.4	3.14
445.604	3.13
445.808	3.11
446.012	3.15
446.216	3.17
446.42	3.14
446.624	3.02
446.828	3.03
447.032	2.95
447.235	2.92
447.439	2.88
447.643	2.88
447.847	2.85
448.051	2.82
448.254	2.79
448.458	2.79
448.662	2.77
448.866	2.85
449.069	2.88
449.273	2.93
449.477	2.91
449.681	3.02
449.884	3.04
450.088	3.09
450.292	3.13
450.495	3.16
450.699	3.3
450.902	3.22
451.106	3.18
451.31	3.14
451.513	3.27
451.717	3.25
451.92	3.23
452.124	3.22
452.327	3.29
452.531	3.34
452.734	3.41
452.938	3.31
453.141	3.44
453.345	3.5
453.548	3.59
453.752	3.57
453.955	3.65
454.158	3.65
454.362	3.81
454.565	3.82
454.769	3.8
454.972	3.74
455.175	3.78
455.379	3.82
455.582	3.85
455.785	3.81
455.988	3.71
456.192	3.57
456.395	3.48
456.598	3.34
456.801	3.31
457.005	3.19
457.208	3.17
457.411	3.15
457.614	2.94
457.817	2.96
458.021	2.96
458.224	2.98
458.427	3.01
458.63	3.04
458.833	3.12
459.036	3.07
459.239	3.14
459.442	3.23
459.645	3.16
459.848	3.21
460.051	3.21
460.254	3.12
460.457	3.14
460.66	3.11
460.863	3.11
461.066	3.1
461.269	3.12
461.472	3.18
461.675	3.16
461.878	3.14
462.081	3.24
462.284	3.26
462.486	3.33
462.689	3.29
462.892	3.37
463.095	3.38
463.298	3.33
463.5	3.46
463.703	3.35
463.906	3.39
464.109	3.51
464.311	3.53
464.514	3.55
464.717	3.6
464.92	3.63
465.122	3.69
465.325	3.73
465.528	3.71
465.73	3.67
465.933	3.6
466.135	3.46
466.338	3.35
466.541	3.31
466.743	3.27
466.946	3.11
467.148	3.14
467.351	3.18
467.553	3.22
467.756	3.22
467.958	3.15
468.161	3.24
468.363	3.25
468.566	3.33
468.768	3.23
468.971	3.18
469.173	3.28
469.375	3.23
469.578	3.13
469.78	3.12
469.983	3.2
470.185	3.32
470.387	3.34
470.59	3.39
470.792	3.32
470.994	3.37
471.196	3.39
471.399	3.36
471.601	3.47
471.803	3.44
472.005	3.51
472.208	3.44
472.41	3.21
472.612	3.21
472.814	3.06
473.016	3.01
473.218	3.02
473.421	3.13
473.623	3.13
473.825	3.02
474.027	3.16
474.229	3.1
474.431	3.09
474.633	3.21
474.835	3.14
475.037	3.2
475.239	3.33
475.441	3.3
475.643	3.25
475.845	3.25
476.047	3.25
476.249	3.1
476.451	3.06
476.653	3.07
476.855	3.1
477.057	3.03
477.258	3.02
477.46	3.03
477.662	3
477.864	3.01
478.066	3.04
478.268	3.01
478.469	3.06
478.671	3.04
478.873	3.04
479.075	2.97
479.276	3
479.478	3.02
479.68	3.02
479.882	3.12
480.083	3.08
480.285	3.07
480.487	3.04
480.688	2.99
480.89	3.01
481.091	2.95
481.293	2.95
481.495	2.93
481.696	2.95
481.898	2.85
482.099	2.76
482.301	2.68
482.502	2.61
482.704	2.61
482.905	2.59
483.107	2.52
483.308	2.51
483.51	2.46
483.711	2.44
483.913	2.4
484.114	2.38
484.315	2.39
484.517	2.41
484.718	2.46
484.92	2.44
485.121	2.45
485.322	2.47
485.524	2.47
485.725	2.55
485.926	2.55
486.127	2.57
486.329	2.6
486.53	2.6
486.731	2.61
486.932	2.6
487.134	2.62
487.335	2.6
487.536	2.62
487.737	2.59
487.938	2.58
488.139	2.61
488.341	2.66
488.542	2.66
488.743	2.65
488.944	2.61
489.145	2.55
489.346	2.54
489.547	2.58
489.748	2.59
489.949	2.65
490.15	2.63
490.351	2.63
490.552	2.62
490.753	2.59
490.954	2.63
491.155	2.64
491.356	2.67
491.557	2.67
491.758	2.7
491.959	2.67
492.159	2.65
492.36	2.66
492.561	2.64
492.762	2.65
492.963	2.69
493.164	2.68
493.364	2.74
493.565	2.79
493.766	2.84
493.967	2.76
494.167	2.79
494.368	2.83
494.569	2.87
494.769	2.9
494.97	2.89
495.171	3
495.371	3.03
495.572	3.04
495.773	3.06
495.973	3.12
496.174	3.23
496.375	3.31
496.575	3.26
496.776	3.27
496.976	3.27
497.177	3.24
497.377	3.19
497.578	3.17
497.778	3.19
497.979	3.22
498.179	3.2
498.38	3.13
498.58	3.13
498.78	3.18
498.981	3.15
499.181	3.24
499.382	3.33
499.582	3.31
499.782	3.35
499.983	3.37
500.183	3.41
500.383	3.39
500.584	3.36
500.784	3.36
500.984	3.5
501.184	3.55
501.385	3.49
501.585	3.5
501.785	3.59
501.985	3.66
502.185	3.69
502.386	3.63
502.586	3.78
502.786	3.93
502.986	3.97
503.186	3.89
503.386	3.86
503.586	3.9
503.786	3.93
503.987	3.84
504.187	3.78
504.387	3.73
504.587	3.75
504.787	3.74
504.987	3.71
505.187	3.75
505.387	3.81
505.587	3.83
505.786	3.8
505.986	3.78
506.186	3.81
506.386	3.85
506.586	3.91
506.786	3.89
506.986	3.85
507.186	3.86
507.386	3.86
507.585	3.82
507.785	3.95
507.985	3.96
508.185	3.99
508.384	4.01
508.584	4
508.784	4.02
508.984	4.01
509.183	4.04
509.383	4.09
509.583	4.1
509.782	4.12
509.982	4
510.182	4.08
510.381	4.02
510.581	4.08
510.781	4.13
510.98	4.15
511.18	4.17
511.379	4.18
511.579	4.1
511.778	4.15
511.978	4.17
512.177	4.28
512.377	4.26
512.576	4.35
512.776	4.27
512.975	4.24
513.175	4.29
513.374	4.34
513.573	4.37
513.773	4.43
513.972	4.45
514.172	4.47
514.371	4.49
514.57	4.47
514.77	4.51
514.969	4.6
515.168	4.73
515.367	4.71
515.567	4.72
515.766	4.77
515.965	4.78
516.164	4.83
516.364	4.91
516.563	4.91
516.762	4.95
516.961	4.97
517.16	4.96
517.359	4.98
517.559	4.99
517.758	5.03
517.957	5.02
518.156	5.05
518.355	5.08
518.554	5.07
518.753	5.1
518.952	5.09
519.151	5.05
519.35	5.09
519.549	5.07
519.748	5.14
519.947	5.17
520.146	5.19
520.345	5.23
520.544	5.16
520.743	5.25
520.942	5.25
521.141	5.38
521.339	5.4
521.538	5.49
521.737	5.56
521.936	5.58
522.135	5.64
522.333	5.69
522.532	5.69
522.731	5.76
522.93	5.73
523.129	5.78
523.327	5.76
523.526	5.83
523.725	5.94
523.923	5.92
524.122	6.01
524.321	5.99
524.519	6.01
524.718	6.07
524.917	6.12
525.115	6.12
525.314	6.18
525.512	6.2
525.711	6.28
525.909	6.25
526.108	6.29
526.306	6.24
526.505	6.28
526.703	6.31
526.902	6.32
527.1	6.28
527.299	6.3
527.497	6.26
527.696	6.24
527.894	6.19
528.092	6.18
528.291	6.15
528.489	6.17
528.688	6.16
528.886	6.15
529.084	6.15
529.283	6.21
529.481	6.2
529.679	6.27
529.877	6.32
530.076	6.39
530.274	6.46
530.472	6.54
530.67	6.54
530.869	6.61
531.067	6.71
531.265	6.76
531.463	6.77
531.661	6.82
531.859	6.84
532.057	6.9
532.255	6.9
532.454	6.93
532.652	6.95
532.85	7.02
533.048	7
533.246	7.08
533.444	7.12
533.642	7.18
533.84	7.24
534.038	7.32
534.236	7.34
534.434	7.44
534.632	7.44
534.83	7.5
535.027	7.55
535.225	7.66
535.423	7.59
535.621	7.64
535.819	7.65
536.017	7.67
536.215	7.66
536.412	7.72
536.61	7.75
536.808	7.82
537.006	7.9
537.203	7.97
537.401	7.99
537.599	8.12
537.797	8.18
537.994	8.25
538.192	8.33
538.39	8.41
538.587	8.51
538.785	8.56
538.983	8.64
539.18	8.68
539.378	8.74
539.575	8.83
539.773	8.93
539.97	8.95
540.168	9.02
540.366	9.08
540.563	9.12
540.761	9.16
540.958	9.22
541.155	9.21
541.353	9.23
541.55	9.3
541.748	9.35
541.945	9.36
542.143	9.44
542.34	9.47
542.537	9.54
542.735	9.63
542.932	9.68
543.129	9.76
543.327	9.93
543.524	10.09
543.721	10.19
543.919	10.33
544.116	10.51
544.313	10.66
544.51	10.76
544.708	10.93
544.905	11.13
545.102	11.4
545.299	11.52
545.496	11.63
545.693	11.68
545.891	11.79
546.088	11.9
546.285	11.91
546.482	11.93
546.679	12.03
546.876	12.05
547.073	12.05
547.27	11.93
547.467	11.93
547.664	11.96
547.861	12
548.058	12.04
548.255	12.01
548.452	12.1
548.649	12.24
548.846	12.37
549.043	12.44
549.24	12.53
549.437	12.54
549.633	12.62
549.83	12.74
550.027	12.79
550.224	12.77
550.421	12.75
550.618	12.77
550.814	12.78
551.011	12.83
551.208	12.88
551.405	12.8
551.601	12.91
551.798	12.99
551.995	13.06
552.191	13.14
552.388	13.19
552.585	13.28
552.781	13.32
552.978	13.32
553.175	13.35
553.371	13.42
553.568	13.53
553.764	13.66
553.961	13.78
554.157	13.72
554.354	13.77
554.55	14
554.747	14.18
554.943	14.28
555.14	14.38
555.336	14.37
555.533	14.42
555.729	14.5
555.926	14.63
556.122	14.6
556.318	14.71
556.515	14.72
556.711	14.68
556.907	14.64
557.104	14.71
557.3	14.77
557.496	14.92
557.693	14.91
557.889	14.87
558.085	14.94
558.281	15.15
558.478	15.26
558.674	15.46
558.87	15.49
559.066	15.64
559.262	15.78
559.459	15.81
559.655	15.78
559.851	15.85
560.047	16.01
560.243	16.01
560.439	16.01
560.635	16.03
560.831	15.93
561.027	16.08
561.223	16.12
561.419	16.07
561.615	16.18
561.811	16.26
562.007	16.33
562.203	16.45
562.399	16.49
562.595	16.6
562.791	16.71
562.987	16.91
563.183	16.91
563.379	17.02
563.575	17.23
563.771	17.26
563.966	17.35
564.162	17.55
564.358	17.48
564.554	17.48
564.75	17.47
564.945	17.48
565.141	17.5
565.337	17.56
565.533	17.48
565.728	17.32
565.924	17.45
566.12	17.5
566.315	17.44
566.511	17.49
566.707	17.6
566.902	17.75
567.098	17.84
567.293	17.81
567.489	17.93
567.684	18.06
567.88	18.2
568.076	18.31
568.271	18.27
568.467	18.27
568.662	18.47
568.858	18.67
569.053	18.72
569.248	18.78
569.444	18.86
569.639	18.94
569.835	18.91
570.03	18.93
570.225	18.97
570.421	19.14
570.616	19.25
570.812	19.24
571.007	19.05
571.202	19.05
571.397	19.01
571.593	19.07
571.788	19.12
571.983	19.19
572.178	19.33
572.374	19.25
572.569	19.26
572.764	19.3
572.959	19.25
573.154	19.46
573.35	19.44
573.545	19.51
573.74	19.59
573.935	19.64
574.13	19.66
574.325	19.72
574.52	19.84
574.715	19.87
574.91	19.95
575.105	20.09
575.3	20.13
575.495	20.25
575.69	20.41
575.885	20.57
576.08	20.53
576.275	20.86
576.47	20.95
576.665	21.04
576.86	21.23
577.055	21.35
577.25	21.52
577.444	21.62
577.639	21.84
577.834	21.96
578.029	21.98
578.224	22.21
578.418	22.11
578.613	22.1
578.808	22.19
579.003	22.33
579.197	22.46
579.392	22.51
579.587	22.55
579.781	22.45
579.976	22.4
580.171	22.45
580.365	22.43
580.56	22.49
580.755	22.52
580.949	22.51
581.144	22.54
581.338	22.53
581.533	22.52
581.727	22.52
581.922	22.62
582.116	22.66
582.311	22.84
582.505	22.9
582.7	22.93
582.894	23.06
583.089	23.14
583.283	22.94
583.478	23.06
583.672	23.28
583.866	23.29
584.061	23.27
584.255	23.49
584.449	23.51
584.644	23.54
584.838	23.76
585.032	23.79
585.226	23.77
585.421	24.08
585.615	24.03
585.809	24.13
586.003	24.19
586.198	24.37
586.392	24.23
586.586	24.08
586.78	24.11
586.974	24.07
587.168	24.04
587.363	24.17
587.557	24.05
587.751	23.99
587.945	23.61
588.139	23.53
588.333	23.43
588.527	23.39
588.721	23.42
588.915	23.44
589.109	23.36
589.303	23.48
589.497	23.43
589.691	23.41
589.885	23.46
590.079	23.68
590.273	23.7
590.466	23.79
590.66	23.93
590.854	24.05
591.048	24.08
591.242	24.1
591.436	23.98
591.629	24.1
591.823	24.14
592.017	24.26
592.211	24.18
592.404	24.32
592.598	24.3
592.792	24.2
592.986	24.16
593.179	24.07
593.373	24.04
593.567	24.09
593.76	23.93
593.954	23.97
594.147	23.86
594.341	23.9
594.535	23.83
594.728	23.82
594.922	23.85
595.115	23.78
595.309	23.78
595.502	23.71
595.696	23.62
595.889	23.64
596.083	23.58
596.276	23.56
596.47	23.59
596.663	23.5
596.856	23.44
597.05	23.4
597.243	23.48
597.437	23.57
597.63	23.68
597.823	23.83
598.017	23.92
598.21	24.02
598.403	24.25
598.596	24.35
598.79	24.53
598.983	24.56
599.176	24.61
599.369	24.68
599.563	24.64
599.756	24.64
599.949	24.62
600.142	24.61
600.335	24.71
600.528	24.55
600.722	24.35
600.915	24.32
601.108	24.38
601.301	24.52
601.494	24.41
601.687	24.42
601.88	24.46
602.073	24.37
602.266	24.26
602.459	23.98
602.652	23.96
602.845	23.96
603.038	23.91
603.231	23.8
603.424	23.73
603.617	23.57
603.809	23.54
604.002	23.48
604.195	23.53
604.388	23.62
604.581	23.69
604.774	23.61
604.966	23.6
605.159	23.71
605.352	23.78
605.545	23.87
605.737	24.11
605.93	24.22
606.123	24.34
606.316	24.56
606.508	24.63
606.701	24.94
606.894	25.19
607.086	25.45
607.279	25.54
607.471	25.83
607.664	26.01
607.857	26.31
608.049	26.54
608.242	26.84
608.434	27.2
608.627	27.79
608.819	28.23
609.012	28.91
609.204	29.59
609.397	30.4
609.589	31.26
609.782	32.12
609.974	33.07
610.166	34.17
610.359	35.24
610.551	36.13
610.743	36.93
610.936	37.66
611.128	38.25
611.32	38.63
611.513	38.85
611.705	38.78
611.897	38.69
612.09	38.29
612.282	37.85
612.474	37.2
612.666	36.51
612.858	35.96
613.051	35.44
613.243	34.93
613.435	34.57
613.627	34.25
613.819	33.99
614.011	33.77
614.203	33.4
614.395	32.94
614.588	32.51
614.78	32.02
614.972	31.52
615.164	31.11
615.356	30.7
615.548	30.25
615.74	29.77
615.932	29.23
616.124	28.74
616.315	28.55
616.507	28.17
616.699	27.97
616.891	27.92
617.083	27.71
617.275	27.58
617.467	27.48
617.659	27.42
617.85	27.35
618.042	27.54
618.234	27.66
618.426	27.53
618.618	27.64
618.809	27.63
619.001	27.73
619.193	27.67
619.384	27.6
619.576	27.43
619.768	27.4
619.959	27.63
620.151	27.63
620.343	27.45
620.534	27.62
620.726	27.52
620.917	27.54
621.109	27.44
621.301	27.52
621.492	27.54
621.684	27.55
621.875	27.6
622.067	27.37
622.258	27
622.45	27.23
622.641	27.08
622.832	27.35
623.024	27.51
623.215	27.43
623.407	27.49
623.598	27.62
623.789	27.59
623.981	27.4
624.172	27.46
624.363	27.59
624.555	27.48
624.746	27.37
624.937	27.24
625.129	27.03
625.32	27.13
625.511	27.08
625.702	26.95
625.893	26.97
626.085	27.03
626.276	26.94
626.467	26.93
626.658	26.9
626.849	27.17
627.04	27.14
627.231	27.13
627.422	27.11
627.614	27.14
627.805	27.28
627.996	27.49
628.187	27.61
628.378	27.69
628.569	27.9
628.76	27.94
628.951	27.82
629.142	27.94
629.332	28.09
629.523	28.19
629.714	28.36
629.905	28.38
630.096	28.35
630.287	28.46
630.478	28.61
630.669	28.58
630.859	28.8
631.05	28.71
631.241	28.53
631.432	28.51
631.623	28.55
631.813	28.27
632.004	28.04
632.195	27.66
632.385	27.46
632.576	27.19
632.767	27.16
632.957	26.89
633.148	26.86
633.339	26.72
633.529	26.54
633.72	26.33
633.91	26.1
634.101	26
634.292	26.14
634.482	25.89
634.673	25.92
634.863	25.79
635.054	25.9
635.244	25.97
635.435	26.14
635.625	26.16
635.815	26.26
636.006	26.48
636.196	26.63
636.387	26.51
636.577	26.72
636.767	26.72
636.958	26.94
637.148	26.85
637.338	26.9
637.529	26.98
637.719	27.11
637.909	27.2
638.099	27.08
638.29	27.11
638.48	27.18
638.67	27.37
638.86	27.36
639.05	27.12
639.241	27.26
639.431	27.04
639.621	27.07
639.811	27.08
640.001	26.84
640.191	26.98
640.381	26.9
640.571	27.05
640.761	27.06
640.951	27.16
641.141	27.19
641.331	27.01
641.521	27.08
641.711	27.08
641.901	26.9
642.091	27.1
642.281	27.22
642.471	27.2
642.661	27.27
642.851	27.19
643.041	27.01
643.231	27.09
643.42	27.35
643.61	27.48
643.8	27.34
643.99	27.51
644.18	27.52
644.369	27.52
644.559	27.68
644.749	27.55
644.939	27.56
645.128	27.77
645.318	27.82
645.508	27.48
645.697	27.21
645.887	27.38
646.076	27.6
646.266	27.39
646.456	27.42
646.645	27.38
646.835	27.34
647.024	27.31
647.214	27.21
647.403	27.21
647.593	27.4
647.782	27.59
647.972	27.49
648.161	27.41
648.351	27.56
648.54	27.63
648.73	27.47
648.919	27.74
649.108	27.91
649.298	27.98
649.487	28.07
649.677	27.95
649.866	28.18
650.055	28.15
650.244	28.06
650.434	28.08
650.623	27.88
650.812	27.89
651.002	27.7
651.191	27.41
651.38	27.67
651.569	27.46
651.758	27.44
651.947	27.19
652.137	27.34
652.326	27.33
652.515	27.27
652.704	27.34
652.893	27.56
653.082	27.47
653.271	27.79
653.46	27.47
653.649	27.59
653.838	27.88
654.027	28.1
654.216	28.01
654.405	28.13
654.594	28
654.783	28.1
654.972	28.07
655.161	28.09
655.35	27.95
655.539	27.78
655.728	27.65
655.916	27.54
656.105	27.41
656.294	27.36
656.483	27.26
656.672	27.49
656.86	27.22
657.049	27.06
657.238	27.01
657.427	26.85
657.615	26.7
657.804	26.8
657.993	26.46
658.181	26.38
658.37	26.11
658.559	26.03
658.747	25.88
658.936	25.88
659.125	25.85
659.313	25.88
659.502	25.86
659.69	25.96
659.879	25.89
660.067	26.21
660.256	26.21
660.444	26.54
660.633	26.58
660.821	26.78
661.01	27
661.198	27
661.387	27.18
661.575	27.33
661.763	27.65
661.952	27.97
662.14	28.13
662.328	28.41
662.517	28.52
662.705	28.62
662.893	28.6
663.082	28.51
663.27	28.76
663.458	28.86
663.646	28.86
663.834	28.81
664.023	28.46
664.211	28.41
664.399	28.24
664.587	28.28
664.775	28.35
664.963	28.18
665.152	28.28
665.34	28.25
665.528	28.09
665.716	28.19
665.904	28.15
666.092	28.28
666.28	28.04
666.468	28.04
666.656	28.02
666.844	28.04
667.032	28.42
667.22	28.16
667.408	28.11
667.596	28.03
667.784	28.03
667.971	27.95
668.159	28.01
668.347	28.03
668.535	27.91
668.723	27.64
668.911	27.51
669.098	27.5
669.286	27.78
669.474	28.05
669.662	28.08
669.849	28.28
670.037	28.51
670.225	28.44
670.413	28.53
670.6	28.87
670.788	28.99
670.976	29.14
671.163	28.94
671.351	28.96
671.538	28.97
671.726	29.19
671.913	28.92
672.101	28.85
672.289	28.85
672.476	28.54
672.664	28.35
672.851	28.24
673.039	28.36
673.226	28.33
673.413	28.3
673.601	28.09
673.788	27.79
673.976	27.95
674.163	27.88
674.35	28.02
674.538	28.31
674.725	28.37
674.912	28.69
675.1	28.49
675.287	28.58
675.474	28.78
675.662	28.7
675.849	28.71
676.036	28.63
676.223	28.62
676.411	28.54
676.598	28.49
676.785	28.77
676.972	28.84
677.159	28.89
677.346	29.14
677.533	28.94
677.721	29.04
677.908	29.16
678.095	29.05
678.282	28.81
678.469	28.93
678.656	28.86
678.843	28.6
679.03	28.49
679.217	28.41
679.404	28.2
679.591	28.16
679.778	28.13
679.964	28.02
680.151	28.12
680.338	28.17
680.525	28.13
680.712	28.01
680.899	28.01
681.086	27.86
681.272	27.83
681.459	27.7
681.646	27.95
681.833	27.89
682.02	28.11
682.206	28.14
682.393	28.15
682.58	27.99
682.766	28.18
682.953	28.29
683.14	28.42
683.326	28.76
683.513	28.99
683.7	28.99
683.886	29.14
684.073	28.98
684.259	29
684.446	29.1
684.632	29.25
684.819	29.47
685.005	29.3
685.192	29.45
685.378	29.27
685.565	28.97
685.751	28.78
685.938	28.91
686.124	29.05
686.31	28.96
686.497	28.98
686.683	28.89
686.87	28.72
687.056	28.74
687.242	28.58
687.429	28.78
687.615	29.28
687.801	29.4
687.987	29.13
688.174	28.99
688.36	28.86
688.546	29.1
688.732	29.21
688.918	29.16
689.105	29.29
689.291	29.36
689.477	29.22
689.663	28.78
689.849	28.53
690.035	28.61
690.221	29.15
690.407	29.47
690.593	29.58
690.779	29.4
690.965	29.36
691.151	29.44
691.337	29.62
691.523	29.55
691.709	29.86
691.895	30.01
692.081	30.44
692.267	30.2
692.453	30.05
692.639	29.85
692.825	30.03
693.011	30.28
693.196	30.2
693.382	30.18
693.568	30.07
693.754	30.05
693.94	30.41
694.125	30.39
694.311	30.26
694.497	30.57
694.682	30.52
694.868	30.75
695.054	30.8
695.239	30.75
695.425	30.56
695.611	30.68
695.796	30.45
695.982	29.78
696.168	29.62
696.353	29.68
696.539	29.21
696.724	29.29
696.91	28.85
697.095	28.44
697.281	28.23
697.466	28
697.652	27.86
697.837	27.63
698.023	27.47
698.208	27.34
698.393	27.03
698.579	26.86
698.764	26.72
698.949	26.62
699.135	27.07
699.32	26.99
699.505	26.89
699.691	26.83
699.876	26.98
700.061	27.41
700.246	27.54
700.432	27.65
700.617	28.02
700.802	28.15
700.987	28.43
701.172	28.07
701.358	28.47
701.543	29.03
701.728	29.38
701.913	29.96
702.098	30.07
702.283	30.17
702.468	30.24
702.653	30.63
702.838	30.65
703.023	31.2
703.208	31.44
703.393	31.4
703.578	31.51
703.763	31.7
703.948	31.57
704.133	31.71
704.318	31.67
704.503	32.4
704.688	32.64
704.873	33.08
705.057	33.17
705.242	33.33
705.427	33.95
705.612	34.05
705.797	34.24
705.981	34.37
706.166	34.35
706.351	34.46
706.536	34.8
706.72	34.51
706.905	34.89
707.09	34.53
707.274	34.82
707.459	34.75
707.644	34.83
707.828	34.97
708.013	34.79
708.197	34.91
708.382	34.84
708.567	34.38
708.751	34.29
708.936	33.65
709.12	33.83
709.305	33.51
709.489	33.8
709.673	33.79
709.858	34.1
710.042	34.65
710.227	34.7
710.411	34.93
710.596	34.94
710.78	35.15
710.964	35.35
711.149	35.25
711.333	35.22
711.517	34.7
711.702	34.4
711.886	33.62
712.07	33.27
712.254	33.17
712.438	33.02
712.623	32.67
712.807	32.61
712.991	32.31
713.175	32
713.359	31.87
713.544	32.15
713.728	32.19
713.912	32.19
714.096	31.77
714.28	31.54
714.464	31.17
714.648	31.13
714.832	30.93
715.016	31.05
715.2	31.02
715.384	30.82
715.568	30.3
715.752	30.08
715.936	29.77
716.12	29.54
716.304	29.52
716.488	29.47
716.671	29.06
716.855	29.1
717.039	28.99
717.223	28.82
717.407	29.02
717.59	29.11
717.774	29.13
717.958	29.53
718.142	29.97
718.325	30.07
718.509	30.42
718.693	30.75
718.877	30.58
719.06	31.03
719.244	31.45
719.428	31.24
719.611	31.26
719.795	31.07
719.978	31
720.162	31.06
720.345	31.2
720.529	31.15
720.713	31.25
720.896	30.82
721.08	30.4
721.263	30.68
721.446	31.25
721.63	31.4
721.813	31.52
721.997	31.83
722.18	31.99
722.364	31.66
722.547	31.24
722.73	31.13
722.914	31.58
723.097	31.75
723.28	30.9
723.464	30.59
723.647	30.33
723.83	30.43
724.013	30.15
724.197	30.51
724.38	30.76
724.563	31.06
724.746	31.43
724.929	31.98
725.112	32.38
725.296	33.01
725.479	32.64
725.662	32.56
725.845	32.9
726.028	32.82
726.211	32.8
726.394	32.47
726.577	32.49
726.76	32.41
726.943	31.61
727.126	30.96
727.309	30.87
727.492	30.77
727.675	30.94
727.858	30.81
728.041	31.15
728.224	30.65
728.407	30.7
728.589	30.65
728.772	30.55
728.955	31.02
729.138	30.82
729.321	30.83
729.503	31.11
729.686	31.3
729.869	31.36
730.052	31.06
730.234	31.32
730.417	31.38
730.6	31.3
730.782	31.41
730.965	31.76
731.148	32.18
731.33	32.13
731.513	32.61
731.695	32.2
731.878	31.85
732.061	31.51
732.243	31.09
732.426	30.77
732.608	31.27
732.791	31.21
732.973	30.68
733.156	30.2
733.338	30.3
733.52	29.89
733.703	29.87
733.885	30.16
734.068	30.66
734.25	30.52
734.432	30.97
734.615	30.88
734.797	31.11
734.979	31.15
735.162	31.37
735.344	31.45
735.526	31.69
735.708	32.2
735.891	32.03
736.073	32.28
736.255	32.6
736.437	32.79
736.619	32.8
736.802	32.21
736.984	32.38
737.166	33.07
737.348	33.11
737.53	33.11
737.712	32.83
737.894	33.3
738.076	33.05
738.258	33.01
738.44	33.26
738.622	33.37
738.804	33.72
738.986	33.28
739.168	33.33
739.35	33.5
739.532	33.06
739.714	33.51
739.896	33.06
740.078	33.55
740.259	33.81
740.441	33.68
740.623	33.76
740.805	33.63
740.987	34.33
741.168	34.46
741.35	34.9
741.532	35.68
741.714	35.28
741.895	35.79
742.077	35.83
742.259	35.94
742.44	36.23
742.622	35.98
742.804	36.86
742.985	37.02
743.167	36.61
743.348	36.49
743.53	36.28
743.711	36.88
743.893	36.8
744.075	36.7
744.256	36.48
744.438	35.36
744.619	35.68
744.8	35.59
744.982	35.91
745.163	35.72
745.345	35.36
745.526	35.8
745.707	35.85
745.889	35.65
746.07	35.66
746.252	36.21
746.433	36.34
746.614	36.16
746.795	35.93
746.977	35.06
747.158	35.48
747.339	35.79
747.52	35.65
747.702	35.23
747.883	35.58
748.064	35.08
748.245	34.99
748.426	35.51
748.607	35.33
748.788	35.84
748.97	36.19
749.151	36.21
749.332	35.24
749.513	34.36
749.694	34.5
749.875	34.76
750.056	34.94
750.237	35.25
750.418	35.25
750.599	35.02
750.78	33.92
750.96	33.82
751.141	33.6
751.322	34.35
751.503	34.64
751.684	34.47
751.865	34.39
752.046	34.63
752.226	34.1
752.407	34.02
752.588	34.4
752.769	35.25
752.949	35.02
753.13	35.32
753.311	35.28
753.492	35.57
753.672	36.6
753.853	36.54
754.034	36.96
754.214	37.45
754.395	37.5
754.575	37.88
754.756	37.89
754.937	37.99
755.117	37.78
755.298	37.46
755.478	37.59
755.659	36.86
755.839	36.53
756.02	36.24
756.2	36.22
756.381	36.76
756.561	36.84
756.741	36.32
756.922	36.02
757.102	36.08
757.283	36.27
757.463	35.54
757.643	34.92
757.823	34.79
758.004	34.77
758.184	33.93
758.364	33.36
758.545	32.15
758.725	32.33
758.905	32.53
759.085	32.1
759.265	31.4
759.446	31.56
759.626	31.63
759.806	31.38
759.986	30.97
760.166	30.66
760.346	30.38
760.526	30.68
760.706	30.49
760.886	29.94
761.066	29.77
761.246	29.93
761.426	30.5
761.606	30.49
761.786	30.57
761.966	30.38
762.146	30.72
762.326	30.58
762.506	29.78
762.686	29.88
762.866	30.04
763.046	30.12
763.225	30.41
763.405	30.22
763.585	29.82
763.765	29.72
763.945	29.65
764.124	29.45
764.304	29.56
764.484	30.18
764.664	30.17
764.843	29.92
765.023	29.92
765.203	29.66
765.382	29.36
765.562	29.72
765.741	29.86
765.921	30.82
766.101	31.27
766.28	31.58
766.46	31.99
766.639	32.35
766.819	33.48
766.998	34.31
767.178	35.02
767.357	35.64
767.537	36.56
767.716	37.25
767.896	36.22
768.075	36.59
768.254	36.92
768.434	37.68
768.613	37.91
768.792	38.42
768.972	38.48
769.151	38.81
769.33	38.56
769.51	38.16
769.689	37.61
769.868	38.72
770.047	38.81
770.226	39.3
770.406	38.91
770.585	38.17
770.764	37.73
770.943	36.92
771.122	35.87
771.301	36.57
771.48	37.24
771.66	37.65
771.839	37.65
772.018	37.81
772.197	37.38
772.376	38.04
772.555	38.77
772.734	39.45
772.913	40.29
773.092	41.35
773.271	41.31
773.449	41.02
773.628	40.33
773.807	39.38
773.986	39.87
774.165	40.53
774.344	40.46
774.523	40.9
774.701	41.17
774.88	41.48
775.059	40.63
775.238	40.68
775.417	40.48
775.595	42.05
775.774	42.95
775.953	42.14
776.131	41.36
776.31	41.69
776.489	40.72
776.667	39.39
776.846	38.84
777.025	39.09
777.203	39.94
777.382	40.11
777.56	39.57
777.739	39.12
777.917	39.21
778.096	39.78
778.274	39.12
778.453	38.64
778.631	39.76
778.81	39.32
778.988	39.77
779.166	38.86
779.345	39.32
779.523	40.08
779.702	40.26
779.88	40.35
780.058	40.51
780.237	40.24
780.415	42.16
780.593	42.09
780.771	43.06
780.95	44.02
781.128	43.3
781.306	41.63
781.484	41.68
781.662	41.78
781.841	41.76
782.019	41.1
782.197	40.51
782.375	39.95
782.553	39.68
782.731	39.35
782.909	38.55
783.087	39.66
783.265	40.5
783.443	40.83
783.621	40.82
783.799	41.63
783.977	41.82
784.155	42.96
784.333	43.35
784.511	43.43
784.689	43.27
784.867	43.65
785.045	43.84
785.223	44.94
785.4	44
785.578	43.47
785.756	42.8
785.934	42.48
786.112	42.48
786.289	41.43
786.467	40.93
786.645	40.85
786.823	40.5
787	39.97
787.178	38.44
787.356	38.21
787.533	38.39
787.711	38.41
787.889	39.17
788.066	39.07
788.244	38.48
788.421	38.81
788.599	39.22
788.776	39.21
788.954	38.46
789.131	39.2
789.309	39.28
789.486	39.93
789.664	39.69
789.841	38.9
790.019	38.48
790.196	39.3
790.373	38.55
790.551	38.71
790.728	37.94
790.906	39.27
791.083	39.62
791.26	40.09
791.437	40.45
791.615	40.69
791.792	41.48
791.969	41.67
792.146	42.51
792.324	42.61
792.501	41.39
792.678	42.16
792.855	41.71
793.032	41.33
793.209	41.29
793.387	42.08
793.564	41.7
793.741	41.33
793.918	42.81
794.095	42.11
794.272	42.69
794.449	42.6
794.626	42.85
794.803	43.05
794.98	42.96
795.157	42.68
795.334	40.93
795.511	41.3
795.688	40.73
795.864	38.13
796.041	38.63
796.218	38.53
796.395	39.59
796.572	39.16
796.749	38.1
796.925	38.06
797.102	38.49
797.279	37.92
797.456	38.19
797.632	38.43
797.809	39.89
797.986	40.47
798.162	40.65
798.339	39.73
798.516	40.32
798.692	40.62
798.869	40.34
799.046	40.62
799.222	41.15
799.399	40.8
799.575	41.67
799.752	41.3
799.928	38.47
800.105	38.54
800.281	39.32
800.458	38.75
800.634	39.17
800.811	40.34
800.987	38.76
801.163	39.44
801.34	39.56
801.516	38.81
801.692	39.51
801.869	40.82
802.045	41.12
802.221	41.65
802.398	41.58
802.574	41.5
802.75	40.9
802.926	41.72
803.103	41.12
803.279	41.72
803.455	41.6
803.631	41.1
803.807	42.18
803.983	40.73
804.16	39.96
804.336	40.58
804.512	40.58
804.688	41.87
804.864	41.83
805.04	42.13
805.216	41.96
805.392	43.55
805.568	43.33
805.744	43.73
805.92	45.43
806.096	45.78
806.272	47.13
806.448	47.76
806.623	47.37
806.799	47.41
806.975	46.95
807.151	47.47
807.327	46.15
807.503	46.26
807.678	44.82
807.854	43.55
808.03	43.89
808.206	42.48
808.381	41.71
808.557	41.57
808.733	42.24
808.908	43.41
809.084	42.93
809.26	43.07
809.435	43.6
809.611	43.42
809.787	44.34
809.962	42.69
810.138	42.12
810.313	42.86
810.489	42.94
810.664	41.73
810.84	43.13
811.015	42.8
811.191	42.92
811.366	43.55
811.542	44.9
811.717	44.21
811.892	46.1
812.068	46.69
812.243	47.08
812.419	45.68
812.594	46.16
812.769	43.77
812.944	44.68
813.12	44.68
813.295	43.82
813.47	42.87
813.645	44.11
813.821	43.76
813.996	43.88
814.171	42.57
814.346	44.01
814.521	44.71
814.697	45.06
814.872	43.87
815.047	44.51
815.222	43.55
815.397	43.3
815.572	42.43
815.747	40.93
815.922	41.03
816.097	41.13
816.272	41.11
816.447	40.71
816.622	41.25
816.797	41.38
816.972	40.92
817.147	41.47
817.322	41.64
817.496	41.99
817.671	42.45
817.846	41.34
818.021	41.35
818.196	40.76
818.371	41.1
818.545	40.08
818.72	38.86
818.895	37.48
819.069	36.37
819.244	35.85
819.419	35.79
819.594	35.83
819.768	35.51
819.943	34.85
820.117	33.24
820.292	32.04
820.467	30.13
820.641	29.64
820.816	29.02
820.99	28.7
821.165	27.93
821.339	27.04
821.514	25.79
821.688	25.26
821.863	24.67
822.037	24.36
822.212	23.99
822.386	24.21
822.56	23.9
822.735	24
822.909	23.56
823.084	23.62
823.258	23.45
823.432	23.71
823.606	23.67
823.781	23.9
823.955	24.03
824.129	24.16
824.303	23.97
824.478	24.08
824.652	24.14
824.826	24.76
825	24.94
825.174	25.19
825.348	25.48
825.523	26.07
825.697	26.09
825.871	26.53
826.045	26.5
826.219	26.94
826.393	27.14
826.567	27.19
826.741	26.87
826.915	26.56
827.089	27.07
827.263	26.9
827.437	26.46
827.611	26.72
827.784	26.83
827.958	27.02
828.132	27.08
828.306	27.23
828.48	27.23
828.654	28.69
828.827	28.82
829.001	28.05
829.175	28.67
829.349	29.59
829.522	29.73
829.696	30.92
829.87	31.64
830.044	33.35
830.217	34.78
830.391	35.54
830.565	34.28
830.738	36
830.912	36.93
831.085	36.39
831.259	37.26
831.432	38.5
831.606	37.38
831.779	35.69
831.953	35.25
832.126	33.74
832.3	34.2
832.473	34.41
832.647	33.11
832.82	33.05
832.994	33.64
833.167	32.63
833.34	31.31
833.514	30.7
833.687	31.23
833.86	29.36
834.034	29.82
834.207	29.12
834.38	28.9
834.553	29.29
834.727	29.12
834.9	29.01
835.073	29.58
835.246	29.68
835.419	30.34
835.593	30.58
835.766	31.76
835.939	32.02
836.112	33.11
836.285	33.1
836.458	34.58
836.631	35.18
836.804	36.17
836.977	37.1
837.15	39.28
837.323	39.93
837.496	41.55
837.669	42.88
837.842	42.92
838.015	42.51
838.188	43.52
838.361	42.26
838.533	44.43
838.706	45.06
838.879	45.77
839.052	44.47
839.225	43.79
839.398	43.48
839.57	44.31
839.743	44.82
839.916	45.51
840.088	45.9
840.261	45.79
840.434	45.23
840.607	43.1
840.779	41.06
840.952	42.43
841.124	42.16
841.297	42.74
841.47	42.46
841.642	43.66
841.815	45.41
841.987	47.17
842.16	49.62
842.332	50.5
842.505	53.31
842.677	56.71
842.85	58.71
843.022	62.2
843.194	59.59
843.367	60.84
843.539	61.58
843.712	63.85
843.884	62.94
844.056	63.92
844.229	64.85
844.401	68.78
844.573	68.01
844.745	65.06
844.918	64.27
845.09	68.28
845.262	68.18
845.434	71.14
845.606	67.81
845.779	66.77
845.951	66.66
846.123	67.54
846.295	65.2
846.467	62.96
846.639	65.9
846.811	64.52
846.983	67.64
847.155	67.63
847.327	66.01
847.499	66.45
847.671	69.45
847.843	69.49
848.015	71.44
848.187	72.68
848.359	76.56
848.531	74.41
848.703	77.63
848.875	72.71
849.047	75.62
849.218	70.96
849.39	73.37
849.562	75.57
849.734	76.9
849.905	72.75
850.077	73.47
850.249	68.65
850.421	71.84
850.592	70.83
850.764	69.9
850.936	69.24
851.107	73.28
851.279	73.92
851.451	74.8
851.622	72.04
851.794	72.84
851.965	70.32
852.137	76.39
852.308	75.74
852.48	78.17
852.651	83.72
852.823	84.12
852.994	84.35
853.166	78.51
853.337	74.7
853.509	77.12
853.68	76.12
853.851	74.97
854.023	70.87
854.194	74.74
854.365	72.23
854.537	73.26
854.708	77.34
854.879	76.63
855.05	76.06
855.222	76.2
855.393	77.98
855.564	79.38
855.735	80.01
855.906	79.77
856.078	75.27
856.249	78.16
856.42	75.05
856.591	68.57
856.762	72.16
856.933	74.09
857.104	76.91
857.275	72.77
857.446	72.58
857.617	74.63
857.788	77.49
857.959	73.14
858.13	70.04
858.301	71.3
858.472	74.24
858.643	71.98
858.814	74.47
858.985	71.39
859.155	75.21
859.326	77.03
859.497	79.17
859.668	78.08
859.839	82.64
860.009	83.94
860.18	85.09
860.351	83.36
860.522	82.41
860.692	83.06
860.863	83.4
861.034	77.81
861.204	76.31
861.375	73.58
861.546	77.02
861.716	76.3
861.887	74.71
862.057	70.67
862.228	71.67
862.398	70.47
862.569	69.44
862.739	72.63
862.91	75.63
863.08	78.55
863.251	77.99
863.421	72.53
863.592	74.84
863.762	81.56
863.932	86.25
864.103	82.73
864.273	82.74
864.443	83.72
864.614	83.36
864.784	82.93
864.954	83.23
865.125	86.64
865.295	92.77
865.465	87.42
865.635	84.82
865.805	84.39
865.976	87.04
866.146	87.66
866.316	86.02
866.486	81.15
866.656	87.78
866.826	84.63
866.996	84.23
867.166	79.64
867.336	84.78
867.506	80.24
867.676	80.29
867.846	82.75
868.016	84.07
868.186	88.23
868.356	96.76
868.526	85.45
868.696	83.14
868.866	80.58
869.036	81.02
869.206	81.94
869.376	84.14
869.545	84.34
869.715	85.75
869.885	88.26
870.055	86.71
870.224	83.08
870.394	82.9
870.564	83.44
870.734	85.23
870.903	87.71
871.073	88.19
871.243	90.36
871.412	87.32
871.582	81.18
871.751	81.87
871.921	83.76
872.091	81.77
872.26	85.74
872.43	86.98
872.599	85.2
872.769	86.07
872.938	87.72
873.108	85.62
873.277	87.99
873.446	92.96
873.616	85.7
873.785	79.55
873.955	80.76
874.124	82.51
874.293	82.07
874.463	80.58
874.632	80.71
874.801	81.8
874.971	81.04
875.14	79.61
875.309	79.41
875.478	81.2
875.647	82.6
875.817	85.1
875.986	84.17
876.155	88.63
876.324	90.44
876.493	89.48
876.662	83.18
876.831	82.66
877	86.85
877.17	83.36
877.339	83.53
877.508	83.23
877.677	76.77
877.846	72.32
878.015	71.06
878.184	69.09
878.352	67.61
878.521	69.28
878.69	70.1
878.859	64.04
879.028	63.14
879.197	58.31
879.366	57.13
879.534	55.07
879.703	53.89
879.872	49.33
880.041	46.41
880.21	44.26
880.378	39.28
880.547	37.64
880.716	37.24
880.884	34.83
881.053	34.01
881.222	33.43
881.39	32.03
881.559	31.39
881.727	30.3
881.896	29.74
882.065	29.29
882.233	29.75
882.402	29.09
882.57	28.28
882.739	28.35
882.907	28.57
883.076	27.8
883.244	28.06
883.412	28.29
883.581	28.42
883.749	28.89
883.918	28.81
884.086	28.02
884.254	29.51
884.423	30.54
884.591	31.55
884.759	32.4
884.927	33.67
885.096	34.64
885.264	35.19
885.432	37.02
885.6	39.37
885.769	41.56
885.937	45.24
886.105	43.61
886.273	46.39
886.441	47.99
886.609	48.55
886.777	49.5
886.945	50.75
887.113	51.38
887.281	55.06
887.449	55.27
887.617	57.52
887.785	57.65
887.953	60.45
888.121	59.56
888.289	62.29
888.457	65.42
888.625	68.49
888.793	68.21
888.961	68.47
889.129	65.87
889.296	65.23
889.464	64.39
889.632	65.52
889.8	64.25
889.967	62.16
890.135	61.57
