Data from 2938844__Reflection_01.txt Node
Date: Wed Mar 11 14:27:51 EDT 2015
User: robert
Spectrometer: USB4E03002
Autoset integration time: false
Trigger mode: 4
Integration Time (sec): 1.000000E-1
Scans to average: 10
Electric dark correction enabled: false
Nonlinearity correction enabled: false
Boxcar width: 5
Stray light correction enabled: false
XAxis mode: Wavelengths
Stop averaging: false
Number of Pixels in Spectrum: 3648
>>>>>Begin Spectral Data<<<<<
177.575	128.92
177.794	160
178.014	417.58
178.233	364.56
178.452	940
178.672	-328.92
178.891	-62.5
179.11	-23.1
179.33	-13.47
179.549	12.65
179.768	23.89
179.987	35.52
180.207	25.12
180.426	39.38
180.645	2.64
180.864	-22.83
181.084	-42.72
181.303	-107.26
181.522	-33.17
181.741	-5.43
181.96	-44.66
182.179	-239.09
182.398	-136.42
182.618	-23.35
182.837	-82.24
183.056	-46.27
183.275	-111.57
183.494	-62.61
183.713	-25.66
183.932	-43.12
184.151	-59.81
184.37	-45.4
184.589	-58
184.808	-106.98
185.027	-122.61
185.246	-92.56
185.465	-35.29
185.684	22.32
185.903	23.88
186.122	8.44
186.341	-5.54
186.56	-37.37
186.779	44.26
186.998	27.27
187.216	40.5
187.435	21.75
187.654	23.21
187.873	21.78
188.092	10.91
188.311	14.19
188.53	-14.25
188.748	11.66
188.967	39.66
189.186	12.18
189.405	35.54
189.623	44.54
189.842	36.97
190.061	-111.38
190.28	-123.4
190.498	315.07
190.717	-1115.38
190.936	-378.05
191.154	7120
191.373	-250.72
191.592	-85.13
191.81	-319.61
192.029	1139.13
192.248	-190.38
192.466	-53.67
192.685	-36.57
192.904	6.98
193.122	73.79
193.341	110.62
193.559	78.92
193.778	80.69
193.996	93.66
194.215	85.75
194.433	98.61
194.652	77.91
194.87	69.24
195.089	48.65
195.307	40.4
195.526	38.91
195.744	14.79
195.963	39.22
196.181	45.89
196.399	31.23
196.618	14.41
196.836	4.03
197.055	29.67
197.273	11.39
197.491	24.4
197.71	71.33
197.928	38.36
198.146	29.19
198.365	-19.57
198.583	-38.22
198.801	-26.17
199.019	5.73
199.238	19.6
199.456	19.83
199.674	43.25
199.892	54.52
200.111	49.64
200.329	36.18
200.547	65.84
200.765	65.17
200.983	68.63
201.202	68.27
201.42	55.95
201.638	23.33
201.856	28.92
202.074	6.83
202.292	9.67
202.51	-1.11
202.728	-3.43
202.946	-8.71
203.165	2.99
203.383	-0.4
203.601	0.72
203.819	1.81
204.037	20.58
204.255	19.33
204.473	23.92
204.691	13.97
204.909	13.45
205.127	3.81
205.345	-9.23
205.562	-10.9
205.78	-28.79
205.998	-38.7
206.216	-12.98
206.434	-4.02
206.652	-12.14
206.87	-18.89
207.088	-20.84
207.306	-27.63
207.523	-23.86
207.741	-42.05
207.959	-44.84
208.177	-41.7
208.395	-46.54
208.612	-76.02
208.83	-127.49
209.048	-136.9
209.266	-155.02
209.483	-103.98
209.701	-102.67
209.919	-93.74
210.136	-124.43
210.354	-110.2
210.572	-55.08
210.79	-44.03
211.007	-33.13
211.225	-33.33
211.442	-25.46
211.66	-16.16
211.878	-21.48
212.095	-8.27
212.313	-1.42
212.53	14.95
212.748	19.37
212.966	24.73
213.183	38.12
213.401	28.3
213.618	22.14
213.836	8.4
214.053	12.2
214.271	10.59
214.488	6
214.705	8.37
214.923	11.52
215.14	3.31
215.358	-2.02
215.575	0.74
215.793	-0
216.01	16.02
216.227	32.11
216.445	22.82
216.662	22.22
216.879	19.13
217.097	13.55
217.314	17.18
217.531	24.53
217.749	22.12
217.966	18.69
218.183	20.62
218.4	14.61
218.618	8.04
218.835	7.07
219.052	8.61
219.269	13.8
219.487	15.21
219.704	1.27
219.921	-1.37
220.138	-0.66
220.355	-5.74
220.572	-4.66
220.79	-4.91
221.007	-10.39
221.224	-12.67
221.441	-12.8
221.658	-8.47
221.875	-3.99
222.092	0.14
222.309	-3.1
222.526	-10.11
222.743	-6.66
222.96	-5.53
223.177	-9.12
223.394	-6.09
223.611	0.65
223.828	-5.77
224.045	-9.24
224.262	-9.84
224.479	-9.44
224.696	-9.09
224.913	-4.58
225.13	-2.07
225.347	-0.88
225.564	1.94
225.781	2.91
225.997	4.02
226.214	7.54
226.431	9.07
226.648	9.57
226.865	11.76
227.082	11.4
227.298	9.15
227.515	7.31
227.732	7.11
227.949	6.27
228.165	6.33
228.382	5.1
228.599	4.58
228.816	4.41
229.032	3.16
229.249	2.71
229.466	3.07
229.682	3.37
229.899	3.2
230.116	2.66
230.332	3.38
230.549	3.61
230.765	4.19
230.982	4.36
231.199	3.74
231.415	3.73
231.632	3.18
231.848	2.05
232.065	2.54
232.281	3.54
232.498	3.64
232.714	2.79
232.931	0.77
233.147	1.68
233.364	1.84
233.58	1.94
233.797	3.81
234.013	3.54
234.23	2.7
234.446	3.18
234.662	2.65
234.879	3.75
235.095	3.21
235.312	5.05
235.528	3.69
235.744	4.29
235.961	6.34
236.177	5.82
236.393	6.9
236.61	8.06
236.826	5.98
237.042	5.52
237.258	4.05
237.475	4.77
237.691	4.67
237.907	4.34
238.123	5.05
238.339	3.84
238.556	4.28
238.772	4.83
238.988	4.98
239.204	7.08
239.42	7.62
239.636	8.48
239.853	7.95
240.069	7.99
240.285	7.83
240.501	6.83
240.717	6.31
240.933	5.52
241.149	5.43
241.365	5.44
241.581	5.23
241.797	5.29
242.013	5
242.229	5.07
242.445	4.86
242.661	4.62
242.877	4.69
243.093	4.63
243.309	4.73
243.525	4.37
243.741	4.16
243.957	3.8
244.173	3.36
244.388	3.65
244.604	3.4
244.82	3.61
245.036	4.46
245.252	3.96
245.468	4.2
245.683	4.49
245.899	4.12
246.115	4.38
246.331	4.51
246.547	5.06
246.762	4.85
246.978	4.88
247.194	4.61
247.409	4.47
247.625	4.61
247.841	4.43
248.057	4.53
248.272	4.85
248.488	4.65
248.703	4.65
248.919	4.43
249.135	4.39
249.35	4.29
249.566	4.71
249.782	4.6
249.997	4.94
250.213	5.34
250.428	5.37
250.644	5.09
250.859	5.07
251.075	5.08
251.29	4.8
251.506	4.37
251.721	4.66
251.937	3.86
252.152	4.18
252.368	3.8
252.583	4.54
252.798	4.37
253.014	4.04
253.229	4.9
253.445	4.4
253.66	4.5
253.875	5.18
254.091	5.3
254.306	5.7
254.521	5.8
254.737	6.53
254.952	5.86
255.167	6.01
255.383	6.71
255.598	5.73
255.813	7.41
256.028	6.93
256.244	7.3
256.459	6.95
256.674	7.03
256.889	7.06
257.104	6.91
257.32	6.16
257.535	6.64
257.75	6.61
257.965	6.21
258.18	5.34
258.395	5.2
258.61	4.38
258.826	4.33
259.041	4.08
259.256	3.96
259.471	4.13
259.686	4.16
259.901	3.68
260.116	3.4
260.331	3.46
260.546	3.51
260.761	3.39
260.976	3.54
261.191	3.53
261.406	3.79
261.621	3.45
261.836	2.87
262.05	3.01
262.265	2.94
262.48	3.18
262.695	2.96
262.91	3.06
263.125	3.31
263.34	3.49
263.555	3.16
263.769	3.52
263.984	3.76
264.199	3.98
264.414	4.02
264.629	3.94
264.843	4
265.058	4.62
265.273	4.22
265.488	4.32
265.702	3.98
265.917	4.31
266.132	3.65
266.346	4.11
266.561	4.26
266.776	3.97
266.99	4.14
267.205	4.06
267.42	3.64
267.634	3.8
267.849	3.7
268.063	3.92
268.278	3.69
268.492	3.39
268.707	3
268.922	2.61
269.136	2.48
269.351	2.49
269.565	2.85
269.78	3
269.994	2.74
270.209	2.99
270.423	2.96
270.637	2.51
270.852	3.03
271.066	3.42
271.281	3.73
271.495	3.56
271.709	3.83
271.924	3.7
272.138	3.72
272.353	3.82
272.567	3.78
272.781	3.88
272.996	4.27
273.21	4.18
273.424	3.74
273.638	3.53
273.853	3.76
274.067	3.2
274.281	2.76
274.495	2.5
274.71	2.21
274.924	2.11
275.138	1.56
275.352	1.5
275.566	1.29
275.781	1.48
275.995	1.42
276.209	1.61
276.423	1.77
276.637	1.67
276.851	1.99
277.065	2.42
277.279	2.21
277.493	2.66
277.707	3
277.921	3.17
278.135	3.52
278.349	3.6
278.563	3.1
278.777	3.24
278.991	3.76
279.205	3.69
279.419	3.47
279.633	3.4
279.847	3.13
280.061	3.14
280.275	2.84
280.489	2.43
280.703	2.3
280.917	2.54
281.131	2.41
281.344	2.41
281.558	2.7
281.772	2.6
281.986	2.55
282.2	2.59
282.414	2.47
282.627	2.63
282.841	2.63
283.055	2.98
283.269	2.96
283.482	3.02
283.696	2.91
283.91	2.56
284.123	2.65
284.337	2.93
284.551	2.79
284.764	2.69
284.978	2.73
285.192	2.63
285.405	2.36
285.619	2.35
285.833	2.46
286.046	2.59
286.26	2.64
286.473	2.61
286.687	2.45
286.9	2.73
287.114	2.57
287.327	2.63
287.541	2.99
287.754	2.97
287.968	3.07
288.181	3.03
288.395	2.77
288.608	2.69
288.822	2.68
289.035	2.64
289.248	2.67
289.462	2.99
289.675	2.99
289.889	2.51
290.102	2.76
290.315	2.94
290.529	2.78
290.742	2.85
290.955	2.89
291.169	2.96
291.382	2.95
291.595	2.57
291.808	2.51
292.022	2.46
292.235	2.66
292.448	2.33
292.661	2.22
292.875	2.39
293.088	2.42
293.301	2.34
293.514	2.47
293.727	2.65
293.94	3.15
294.153	3.23
294.367	3.33
294.58	3.51
294.793	3.79
295.006	3.55
295.219	3.69
295.432	3.54
295.645	3.85
295.858	3.64
296.071	3.67
296.284	3.71
296.497	3.39
296.71	3.52
296.923	3.38
297.136	3.22
297.349	3.44
297.562	3.48
297.775	3.69
297.988	3.45
298.201	3.61
298.414	3.6
298.626	3.55
298.839	3.67
299.052	3.46
299.265	3.49
299.478	3.49
299.691	3.39
299.903	2.99
300.116	3.06
300.329	3.25
300.542	3.25
300.755	3.07
300.967	2.71
301.18	2.86
301.393	2.77
301.605	2.74
301.818	2.83
302.031	2.97
302.243	3.18
302.456	3.19
302.669	3.21
302.881	3.45
303.094	3.27
303.307	3.75
303.519	3.66
303.732	3.55
303.944	3.53
304.157	3.58
304.37	3.24
304.582	3.5
304.795	3.21
305.007	3.12
305.22	3.11
305.432	3.66
305.645	3.32
305.857	3.31
306.069	3.43
306.282	3.62
306.494	3.84
306.707	4.22
306.919	4.19
307.132	4.4
307.344	4.61
307.556	4.17
307.769	3.7
307.981	3.99
308.193	4.24
308.406	4.45
308.618	4.42
308.83	4.26
309.043	4.05
309.255	3.87
309.467	3.95
309.679	3.95
309.892	4.27
310.104	4.29
310.316	4.11
310.528	4.33
310.74	4.34
310.953	4.26
311.165	4.22
311.377	4.29
311.589	4.35
311.801	4.47
312.013	4.49
312.225	4.4
312.437	4.5
312.649	4.81
312.862	4.33
313.074	4.08
313.286	4.21
313.498	4.61
313.71	4.71
313.922	4.62
314.134	4.65
314.346	4.79
314.558	4.67
314.77	4.77
314.982	4.66
315.193	4.78
315.405	4.74
315.617	4.98
315.829	4.47
316.041	4.64
316.253	4.76
316.465	4.68
316.677	4.35
316.888	4.49
317.1	4.79
317.312	4.69
317.524	4.74
317.736	4.8
317.947	5.09
318.159	5.52
318.371	5.2
318.583	5.57
318.794	5.41
319.006	5.43
319.218	5.74
319.43	5.62
319.641	5.41
319.853	5.6
320.064	5.83
320.276	5.35
320.488	5.28
320.699	5.74
320.911	6.15
321.123	6.29
321.334	6.39
321.546	6.4
321.757	6.05
321.969	6.25
322.18	6.45
322.392	6.9
322.603	7.18
322.815	7.53
323.026	7.51
323.238	6.93
323.449	7
323.661	7
323.872	6.97
324.083	7.25
324.295	7.11
324.506	7.13
324.718	6.58
324.929	6.42
325.14	6.27
325.352	6.23
325.563	6.16
325.774	6.53
325.986	6.62
326.197	6.68
326.408	6.84
326.62	7.24
326.831	7.38
327.042	7.66
327.253	8.1
327.464	8.22
327.676	8.37
327.887	8.52
328.098	8.19
328.309	8.53
328.52	8.58
328.732	8.84
328.943	8.8
329.154	8.49
329.365	8.46
329.576	8.31
329.787	8.17
329.998	8.17
330.209	8.22
330.42	8.51
330.631	8.22
330.842	8.19
331.053	8.33
331.264	8.69
331.475	9.38
331.686	10.07
331.897	10.16
332.108	10.13
332.319	10.13
332.53	10.76
332.741	10.78
332.952	11.19
333.163	11.33
333.374	11.07
333.585	11.03
333.795	10.78
334.006	10.38
334.217	10.48
334.428	10.69
334.639	10.83
334.849	10.46
335.06	10.39
335.271	10.01
335.482	10.27
335.692	10.22
335.903	10.5
336.114	10.49
336.325	10.75
336.535	10.53
336.746	10.54
336.957	10.26
337.167	10.14
337.378	9.76
337.589	9.86
337.799	9.69
338.01	9.46
338.22	9.31
338.431	9.39
338.642	9.17
338.852	9.33
339.063	9.46
339.273	9.41
339.484	9.6
339.694	10.26
339.905	10.09
340.115	10.04
340.326	10.38
340.536	10.31
340.746	10.28
340.957	10.2
341.167	10.14
341.378	10.19
341.588	10.27
341.799	10.24
342.009	10.01
342.219	10.01
342.43	10.14
342.64	10.22
342.85	10.41
343.061	10.1
343.271	10.32
343.481	10.36
343.691	10.29
343.902	10.46
344.112	10.4
344.322	10.55
344.532	10.82
344.743	10.53
344.953	10.33
345.163	9.88
345.373	10.03
345.583	9.96
345.793	9.98
346.004	9.9
346.214	9.62
346.424	9.59
346.634	9.34
346.844	9.42
347.054	9.57
347.264	9.74
347.474	9.72
347.684	9.44
347.894	9.37
348.104	9.42
348.314	9.2
348.524	9.36
348.734	9.34
348.944	9.42
349.154	9.63
349.364	9.44
349.574	9.52
349.784	9.54
349.994	9.8
350.204	9.86
350.413	9.8
350.623	10.04
350.833	10.13
351.043	10.25
351.253	10.6
351.463	10.31
351.672	10.45
351.882	10.62
352.092	10.73
352.302	10.72
352.511	11.03
352.721	10.81
352.931	10.77
353.141	10.73
353.35	10.6
353.56	10.4
353.77	10.42
353.979	10.49
354.189	10.45
354.399	10.5
354.608	10.51
354.818	10.3
355.027	10.43
355.237	10.35
355.447	10.38
355.656	10.34
355.866	10.23
356.075	10.11
356.285	9.86
356.494	9.59
356.704	9.68
356.913	9.73
357.123	9.62
357.332	9.55
357.542	9.65
357.751	9.61
357.96	9.47
358.17	9.56
358.379	9.54
358.589	9.62
358.798	9.74
359.007	9.88
359.217	9.86
359.426	9.93
359.635	9.98
359.845	9.93
360.054	9.98
360.263	9.95
360.472	9.8
360.682	9.7
360.891	9.89
361.1	9.89
361.309	9.83
361.519	9.85
361.728	9.79
361.937	9.86
362.146	9.8
362.355	9.76
362.564	10.09
362.774	10.1
362.983	10.48
363.192	10.37
363.401	10.41
363.61	10.18
363.819	10.23
364.028	10.23
364.237	10
364.446	9.94
364.655	9.73
364.864	9.46
365.073	9.44
365.282	9.09
365.491	9.38
365.7	9.13
365.909	9.17
366.118	8.94
366.327	8.75
366.536	8.81
366.745	8.8
366.954	9.16
367.162	9.18
367.371	9.24
367.58	9.27
367.789	8.82
367.998	8.94
368.207	9.02
368.415	9.03
368.624	9.56
368.833	9.34
369.042	9.2
369.25	9.2
369.459	9.3
369.668	9.29
369.877	9.21
370.085	9.44
370.294	9.44
370.503	9.45
370.711	9.5
370.92	9.12
371.129	9.39
371.337	9.59
371.546	9.25
371.754	9.38
371.963	9.26
372.171	9.48
372.38	9.44
372.589	9.32
372.797	9.09
373.006	8.99
373.214	9.03
373.423	8.94
373.631	8.8
373.84	9
374.048	8.65
374.256	8.67
374.465	8.38
374.673	8.15
374.882	8.07
375.09	8.16
375.298	8.16
375.507	7.95
375.715	7.93
375.923	7.95
376.132	7.99
376.34	7.89
376.548	7.83
376.757	7.7
376.965	7.86
377.173	7.8
377.381	7.64
377.59	7.61
377.798	7.65
378.006	7.5
378.214	7.46
378.423	7.33
378.631	7.46
378.839	7.44
379.047	7.61
379.255	7.43
379.463	7.57
379.671	7.58
379.879	7.53
380.088	7.61
380.296	7.89
380.504	7.79
380.712	7.82
380.92	7.71
381.128	7.68
381.336	7.47
381.544	7.51
381.752	7.34
381.96	7.45
382.168	7.36
382.376	7.26
382.584	7.11
382.791	7.12
382.999	6.91
383.207	6.91
383.415	6.79
383.623	6.78
383.831	6.45
384.039	6.53
384.247	6.57
384.454	6.58
384.662	6.44
384.87	6.28
385.078	6.29
385.285	6.54
385.493	6.51
385.701	6.45
385.909	6.32
386.116	6.63
386.324	6.47
386.532	6.28
386.739	6.34
386.947	6.47
387.155	6.46
387.362	6.46
387.57	6.17
387.778	5.98
387.985	5.95
388.193	5.97
388.4	5.94
388.608	6
388.816	5.93
389.023	5.98
389.231	5.88
389.438	6.09
389.646	6
389.853	6.08
390.061	6.22
390.268	6.22
390.475	6.24
390.683	6.12
390.89	6
391.098	6.12
391.305	5.99
391.512	5.95
391.72	5.75
391.927	5.77
392.135	5.66
392.342	5.51
392.549	5.42
392.756	5.54
392.964	5.51
393.171	5.63
393.378	5.65
393.586	5.66
393.793	5.75
394	5.69
394.207	5.55
394.414	5.65
394.622	5.82
394.829	5.85
395.036	5.75
395.243	5.71
395.45	5.73
395.657	5.57
395.864	5.69
396.072	5.62
396.279	5.61
396.486	5.58
396.693	5.54
396.9	5.29
397.107	5.37
397.314	5.47
397.521	5.66
397.728	5.52
397.935	5.55
398.142	5.43
398.349	5.51
398.556	5.4
398.763	5.52
398.97	5.35
399.177	5.38
399.383	5.3
399.59	5.07
399.797	4.94
400.004	4.92
400.211	5
400.418	4.98
400.625	5.04
400.831	5.12
401.038	5.15
401.245	5.38
401.452	5.36
401.658	5.47
401.865	5.64
402.072	5.67
402.279	5.73
402.485	5.64
402.692	5.59
402.899	5.41
403.105	5.46
403.312	5.35
403.519	5.27
403.725	5.29
403.932	5.12
404.138	5.07
404.345	4.98
404.552	4.93
404.758	4.93
404.965	4.88
405.171	4.78
405.378	4.77
405.584	4.9
405.791	4.72
405.997	4.7
406.204	4.85
406.41	4.77
406.617	4.74
406.823	4.68
407.029	4.7
407.236	4.81
407.442	4.93
407.649	4.97
407.855	4.91
408.061	4.99
408.268	4.96
408.474	5
408.68	5.04
408.887	5.05
409.093	5.06
409.299	4.99
409.505	4.93
409.712	4.84
409.918	4.76
410.124	4.5
410.33	4.49
410.537	4.54
410.743	4.38
410.949	4.47
411.155	4.32
411.361	4.33
411.567	4.33
411.773	4.34
411.98	4.32
412.186	4.31
412.392	4.39
412.598	4.39
412.804	4.42
413.01	4.43
413.216	4.32
413.422	4.49
413.628	4.49
413.834	4.5
414.04	4.41
414.246	4.56
414.452	4.55
414.658	4.61
414.864	4.64
415.07	4.73
415.275	4.87
415.481	4.87
415.687	4.87
415.893	4.89
416.099	4.92
416.305	4.9
416.511	4.87
416.716	4.84
416.922	4.88
417.128	4.93
417.334	4.92
417.539	4.81
417.745	4.8
417.951	4.69
418.157	4.65
418.362	4.54
418.568	4.49
418.774	4.43
418.979	4.4
419.185	4.27
419.391	4.27
419.596	4.16
419.802	4.17
420.008	4.27
420.213	4.92
420.419	4.87
420.624	4.9
420.83	5.02
421.035	5.01
421.241	5.08
421.446	5.2
421.652	5.15
421.857	5.16
422.063	5.19
422.268	5.15
422.474	4.6
422.679	4.64
422.885	4.62
423.09	4.55
423.295	4.51
423.501	4.5
423.706	4.43
423.911	4.39
424.117	4.42
424.322	4.34
424.527	4.26
424.733	4.26
424.938	4.21
425.143	4.26
425.349	4.24
425.554	4.29
425.759	4.19
425.964	4.17
426.169	4.18
426.375	4.17
426.58	4.23
426.785	4.19
426.99	4.23
427.195	4.31
427.4	4.2
427.605	4.21
427.811	4.19
428.016	4.36
428.221	4.44
428.426	4.45
428.631	4.42
428.836	4.36
429.041	4.47
429.246	4.39
429.451	4.36
429.656	4.5
429.861	4.48
430.066	4.43
430.271	4.37
430.476	4.35
430.681	4.39
430.886	4.38
431.09	4.49
431.295	4.41
431.5	4.4
431.705	4.41
431.91	4.39
432.115	4.39
432.32	4.39
432.524	4.36
432.729	4.43
432.934	4.38
433.139	4.36
433.343	4.3
433.548	4.31
433.753	4.34
433.958	4.4
434.162	4.31
434.367	4.33
434.572	4.36
434.776	4.3
434.981	4.26
435.186	4.35
435.39	4.51
435.595	4.56
435.799	4.66
436.004	4.71
436.209	4.67
436.413	4.73
436.618	4.74
436.822	4.71
437.027	4.79
437.231	4.74
437.436	4.67
437.64	4.65
437.845	4.6
438.049	4.58
438.253	4.5
438.458	4.5
438.662	4.6
438.867	4.64
439.071	4.63
439.275	4.59
439.48	4.64
439.684	4.61
439.888	4.59
440.093	4.6
440.297	4.54
440.501	4.64
440.706	4.62
440.91	4.61
441.114	4.53
441.318	4.6
441.523	4.6
441.727	4.53
441.931	4.57
442.135	4.53
442.339	4.51
442.543	4.59
442.748	4.56
442.952	4.54
443.156	4.54
443.36	4.61
443.564	4.54
443.768	4.54
443.972	4.66
444.176	4.62
444.38	4.58
444.584	4.59
444.788	4.54
444.992	4.49
445.196	4.48
445.4	4.42
445.604	4.46
445.808	4.51
446.012	4.53
446.216	4.48
446.42	4.56
446.624	4.55
446.828	4.57
447.032	4.58
447.235	4.6
447.439	4.63
447.643	4.62
447.847	4.64
448.051	4.68
448.254	4.65
448.458	4.68
448.662	4.66
448.866	4.69
449.069	4.72
449.273	4.74
449.477	4.8
449.681	4.79
449.884	4.88
450.088	4.8
450.292	4.7
450.495	4.77
450.699	4.77
450.902	4.76
451.106	4.78
451.31	4.58
451.513	4.59
451.717	4.53
451.92	4.52
452.124	4.37
452.327	4.34
452.531	4.32
452.734	4.19
452.938	4.22
453.141	4.26
453.345	4.29
453.548	4.41
453.752	4.46
453.955	4.44
454.158	4.41
454.362	4.55
454.565	4.6
454.769	4.65
454.972	4.72
455.175	4.71
455.379	4.67
455.582	4.65
455.785	4.64
455.988	4.56
456.192	4.53
456.395	4.58
456.598	4.61
456.801	4.52
457.005	4.47
457.208	4.5
457.411	4.41
457.614	4.45
457.817	4.35
458.021	4.44
458.224	4.41
458.427	4.39
458.63	4.43
458.833	4.29
459.036	4.33
459.239	4.4
459.442	4.45
459.645	4.51
459.848	4.43
460.051	4.5
460.254	4.48
460.457	4.47
460.66	4.56
460.863	4.47
461.066	4.64
461.269	4.7
461.472	4.65
461.675	4.64
461.878	4.59
462.081	4.63
462.284	4.64
462.486	4.55
462.689	4.56
462.892	4.53
463.095	4.68
463.298	4.6
463.5	4.58
463.703	4.7
463.906	4.65
464.109	4.7
464.311	4.69
464.514	4.68
464.717	4.68
464.92	4.72
465.122	4.73
465.325	4.73
465.528	4.74
465.73	4.75
465.933	4.64
466.135	4.66
466.338	4.71
466.541	4.76
466.743	4.79
466.946	4.96
467.148	4.95
467.351	4.94
467.553	4.97
467.756	4.92
467.958	4.8
468.161	4.78
468.363	4.81
468.566	4.79
468.768	4.72
468.971	4.75
469.173	4.65
469.375	4.68
469.578	4.65
469.78	4.55
469.983	4.65
470.185	4.86
470.387	4.92
470.59	5.07
470.792	5.05
470.994	5.07
471.196	5.07
471.399	5.11
471.601	5.2
471.803	5.14
472.005	5.07
472.208	5.02
472.41	4.87
472.612	4.88
472.814	4.77
473.016	4.85
473.218	4.9
473.421	4.87
473.623	4.84
473.825	4.76
474.027	4.85
474.229	4.96
474.431	4.89
474.633	4.9
474.835	4.89
475.037	4.9
475.239	4.79
475.441	4.79
475.643	4.78
475.845	4.79
476.047	4.75
476.249	4.82
476.451	4.83
476.653	4.9
476.855	4.88
477.057	4.88
477.258	4.85
477.46	4.79
477.662	4.69
477.864	4.75
478.066	4.75
478.268	4.78
478.469	4.73
478.671	4.76
478.873	4.75
479.075	4.85
479.276	4.89
479.478	4.88
479.68	4.94
479.882	5.06
480.083	5.06
480.285	5.07
480.487	5.08
480.688	5.02
480.89	5
481.091	4.97
481.293	4.99
481.495	4.93
481.696	4.97
481.898	4.95
482.099	4.87
482.301	4.86
482.502	4.86
482.704	4.83
482.905	4.82
483.107	4.76
483.308	4.73
483.51	4.7
483.711	4.68
483.913	4.69
484.114	4.69
484.315	4.7
484.517	4.67
484.718	4.63
484.92	4.59
485.121	4.6
485.322	4.67
485.524	4.65
485.725	4.65
485.926	4.66
486.127	4.59
486.329	4.59
486.53	4.62
486.731	4.66
486.932	4.7
487.134	4.76
487.335	4.76
487.536	4.75
487.737	4.77
487.938	4.78
488.139	4.8
488.341	4.84
488.542	4.83
488.743	4.8
488.944	4.83
489.145	4.81
489.346	4.81
489.547	4.81
489.748	4.75
489.949	4.8
490.15	4.81
490.351	4.82
490.552	4.83
490.753	4.85
490.954	4.88
491.155	4.8
491.356	4.83
491.557	4.85
491.758	4.9
491.959	4.91
492.159	4.93
492.36	4.95
492.561	4.9
492.762	4.9
492.963	4.94
493.164	4.94
493.364	5.03
493.565	5.07
493.766	5.06
493.967	5.02
494.167	5.05
494.368	5.05
494.569	5.04
494.769	5.08
494.97	5.11
495.171	5.03
495.371	5.05
495.572	5.05
495.773	5.04
495.973	5.11
496.174	5.1
496.375	5.16
496.575	5.18
496.776	5.27
496.976	5.27
497.177	5.28
497.377	5.39
497.578	5.32
497.778	5.26
497.979	5.25
498.179	5.24
498.38	5.31
498.58	5.24
498.78	5.21
498.981	5.16
499.181	5.22
499.382	5.24
499.582	5.21
499.782	5.35
499.983	5.43
500.183	5.53
500.383	5.49
500.584	5.45
500.784	5.51
500.984	5.6
501.184	5.63
501.385	5.62
501.585	5.65
501.785	5.67
501.985	5.67
502.185	5.76
502.386	5.72
502.586	5.89
502.786	5.97
502.986	6.04
503.186	6.08
503.386	6.16
503.586	6.27
503.786	6.38
503.987	6.4
504.187	6.45
504.387	6.43
504.587	6.53
504.787	6.5
504.987	6.58
505.187	6.63
505.387	6.61
505.587	6.68
505.786	6.71
505.986	6.61
506.186	6.61
506.386	6.64
506.586	6.74
506.786	6.74
506.986	6.84
507.186	6.9
507.386	6.95
507.585	7.01
507.785	6.97
507.985	6.99
508.185	7.11
508.384	7.23
508.584	7.35
508.784	7.37
508.984	7.38
509.183	7.38
509.383	7.35
509.583	7.43
509.782	7.55
509.982	7.63
510.182	7.7
510.381	7.74
510.581	7.85
510.781	7.83
510.98	7.93
511.18	8.05
511.379	8.11
511.579	8.21
511.778	8.27
511.978	8.3
512.177	8.38
512.377	8.47
512.576	8.61
512.776	8.64
512.975	8.74
513.175	8.73
513.374	8.72
513.573	8.81
513.773	8.89
513.972	8.98
514.172	8.97
514.371	9.01
514.57	8.97
514.77	8.88
514.969	8.96
515.168	9.01
515.367	9.17
515.567	9.29
515.766	9.36
515.965	9.45
516.164	9.43
516.364	9.57
516.563	9.57
516.762	9.72
516.961	9.95
517.16	10
517.359	10.13
517.559	10.17
517.758	10.25
517.957	10.33
518.156	10.38
518.355	10.51
518.554	10.59
518.753	10.72
518.952	10.8
519.151	10.82
519.35	10.94
519.549	10.94
519.748	11.01
519.947	11.1
520.146	11.22
520.345	11.27
520.544	11.37
520.743	11.44
520.942	11.53
521.141	11.65
521.339	11.75
521.538	11.77
521.737	11.91
521.936	12
522.135	12.13
522.333	12.16
522.532	12.28
522.731	12.29
522.93	12.39
523.129	12.48
523.327	12.49
523.526	12.52
523.725	12.63
523.923	12.7
524.122	12.8
524.321	12.88
524.519	12.99
524.718	13.06
524.917	13.12
525.115	13.23
525.314	13.33
525.512	13.43
525.711	13.52
525.909	13.58
526.108	13.7
526.306	13.75
526.505	13.76
526.703	13.85
526.902	13.98
527.1	14.04
527.299	14.1
527.497	14.16
527.696	14.21
527.894	14.26
528.092	14.34
528.291	14.36
528.489	14.39
528.688	14.44
528.886	14.45
529.084	14.45
529.283	14.51
529.481	14.52
529.679	14.55
529.877	14.57
530.076	14.59
530.274	14.61
530.472	14.68
530.67	14.77
530.869	14.83
531.067	14.89
531.265	14.99
531.463	15.08
531.661	15.2
531.859	15.31
532.057	15.47
532.255	15.58
532.454	15.72
532.652	15.8
532.85	15.84
533.048	15.92
533.246	15.98
533.444	16.02
533.642	16.06
533.84	16.16
534.038	16.18
534.236	16.22
534.434	16.28
534.632	16.25
534.83	16.25
535.027	16.36
535.225	16.38
535.423	16.44
535.621	16.54
535.819	16.66
536.017	16.66
536.215	16.72
536.412	16.76
536.61	16.81
536.808	16.95
537.006	17.01
537.203	17.02
537.401	17.13
537.599	17.22
537.797	17.32
537.994	17.38
538.192	17.46
538.39	17.55
538.587	17.66
538.785	17.78
538.983	17.94
539.18	18.18
539.378	18.38
539.575	18.59
539.773	18.77
539.97	18.88
540.168	18.97
540.366	19.08
540.563	19.21
540.761	19.32
540.958	19.38
541.155	19.43
541.353	19.45
541.55	19.49
541.748	19.49
541.945	19.54
542.143	19.56
542.34	19.63
542.537	19.71
542.735	19.73
542.932	19.8
543.129	19.9
543.327	20.03
543.524	20.18
543.721	20.37
543.919	20.63
544.116	20.89
544.313	21.18
544.51	21.45
544.708	21.67
544.905	22.06
545.102	22.34
545.299	22.61
545.496	22.74
545.693	22.9
545.891	22.92
546.088	22.85
546.285	22.77
546.482	22.7
546.679	22.6
546.876	22.56
547.073	22.35
547.27	22.19
547.467	22.08
547.664	21.97
547.861	21.92
548.058	21.92
548.255	21.92
548.452	21.93
548.649	21.92
548.846	21.94
549.043	21.93
549.24	22
549.437	22.08
549.633	22.11
549.83	22.21
550.027	22.16
550.224	22.11
550.421	22.1
550.618	22.13
550.814	22.22
551.011	22.35
551.208	22.44
551.405	22.4
551.601	22.38
551.798	22.39
551.995	22.36
552.191	22.37
552.388	22.41
552.585	22.45
552.781	22.4
552.978	22.36
553.175	22.32
553.371	22.28
553.568	22.34
553.764	22.26
553.961	22.31
554.157	22.36
554.354	22.41
554.55	22.44
554.747	22.48
554.943	22.6
555.14	22.73
555.336	22.81
555.533	22.85
555.729	22.92
555.926	23.09
556.122	23.01
556.318	23.06
556.515	23.09
556.711	23.14
556.907	23.17
557.104	23.21
557.3	23.21
557.496	23.14
557.693	23.16
557.889	23.15
558.085	23.16
558.281	23.27
558.478	23.31
558.674	23.5
558.87	23.47
559.066	23.51
559.262	23.39
559.459	23.33
559.655	23.35
559.851	23.47
560.047	23.63
560.243	23.75
560.439	23.75
560.635	23.72
560.831	23.59
561.027	23.63
561.223	23.73
561.419	23.94
561.615	24.05
561.811	24.28
562.007	24.32
562.203	24.32
562.399	24.25
562.595	24.28
562.791	24.33
562.987	24.47
563.183	24.57
563.379	24.57
563.575	24.5
563.771	24.47
563.966	24.45
564.162	24.46
564.358	24.52
564.554	24.55
564.75	24.7
564.945	24.74
565.141	24.74
565.337	24.68
565.533	24.72
565.728	24.81
565.924	24.89
566.12	24.87
566.315	24.76
566.511	24.73
566.707	24.83
566.902	24.82
567.098	24.78
567.293	24.73
567.489	24.9
567.684	24.83
567.88	24.8
568.076	24.9
568.271	25.01
568.467	25.17
568.662	25.21
568.858	25.26
569.053	25.27
569.248	25.49
569.444	25.6
569.639	25.63
569.835	25.76
570.03	25.84
570.225	25.84
570.421	25.73
570.616	25.8
570.812	25.88
571.007	25.83
571.202	25.91
571.397	25.91
571.593	25.94
571.788	25.93
571.983	25.97
572.178	26.12
572.374	26.22
572.569	26.36
572.764	26.37
572.959	26.38
573.154	26.39
573.35	26.35
573.545	26.33
573.74	26.35
573.935	26.29
574.13	26.35
574.325	26.26
574.52	26.3
574.715	26.32
574.91	26.43
575.105	26.51
575.3	26.67
575.495	26.83
575.69	26.95
575.885	27.04
576.08	27.36
576.275	27.5
576.47	27.73
576.665	27.85
576.86	27.97
577.055	27.98
577.25	28.01
577.444	28.13
577.639	28.29
577.834	28.37
578.029	28.51
578.224	28.52
578.418	28.53
578.613	28.56
578.808	28.5
579.003	28.59
579.197	28.87
579.392	28.96
579.587	28.81
579.781	28.75
579.976	28.86
580.171	28.94
580.365	28.96
580.56	28.91
580.755	28.92
580.949	29.03
581.144	29.06
581.338	28.94
581.533	29.05
581.727	29.37
581.922	29.41
582.116	29.28
582.311	29.21
582.505	29.26
582.7	29.42
582.894	29.42
583.089	29.37
583.283	29.36
583.478	29.44
583.672	29.49
583.866	29.37
584.061	29.27
584.255	29.4
584.449	29.57
584.644	29.52
584.838	29.56
585.032	29.6
585.226	29.62
585.421	29.76
585.615	29.74
585.809	29.81
586.003	29.93
586.198	30.24
586.392	30.31
586.586	30.25
586.78	30.23
586.974	30.25
587.168	30.26
587.363	30.39
587.557	30.25
587.751	30.25
587.945	30.06
588.139	29.86
588.333	29.66
588.527	29.62
588.721	29.49
588.915	29.46
589.109	29.33
589.303	29.27
589.497	29.28
589.691	29.17
589.885	29.19
590.079	29.31
590.273	29.5
590.466	29.54
590.66	29.64
590.854	29.9
591.048	30.04
591.242	30.25
591.436	30.34
591.629	30.31
591.823	30.63
592.017	30.74
592.211	30.85
592.404	30.83
592.598	30.93
592.792	30.83
592.986	30.63
593.179	30.6
593.373	30.51
593.567	30.45
593.76	30.43
593.954	30.29
594.147	30.08
594.341	30.01
594.535	30
594.728	29.88
594.922	29.9
595.115	29.8
595.309	29.67
595.502	29.6
595.696	29.46
595.889	29.41
596.083	29.32
596.276	29.38
596.47	29.37
596.663	29.22
596.856	29.2
597.05	29.13
597.243	29.12
597.437	29.13
597.63	29.25
597.823	29.42
598.017	29.52
598.21	29.69
598.403	29.8
598.596	29.8
598.79	29.95
598.983	30.07
599.176	30.09
599.369	30.44
599.563	30.59
599.756	30.55
599.949	30.56
600.142	30.66
600.335	30.57
600.528	30.4
600.722	30.31
600.915	30.23
601.108	30.09
601.301	30.08
601.494	29.79
601.687	29.7
601.88	29.75
602.073	29.72
602.266	29.42
602.459	29.39
602.652	29.34
602.845	29.3
603.038	29.27
603.231	29.22
603.424	29.33
603.617	29.32
603.809	29.38
604.002	29.14
604.195	29.15
604.388	29.24
604.581	29.21
604.774	29.31
604.966	29.42
605.159	29.62
605.352	29.68
605.545	29.59
605.737	29.73
605.93	29.73
606.123	29.96
606.316	30.05
606.508	30.2
606.701	30.37
606.894	30.44
607.086	30.59
607.279	30.68
607.471	30.75
607.664	31.1
607.857	31.36
608.049	31.66
608.242	32.1
608.434	32.69
608.627	33.45
608.819	34.37
609.012	35.22
609.204	36.22
609.397	37.3
609.589	38.73
609.782	40.03
609.974	41.37
610.166	42.88
610.359	44.32
610.551	45.47
610.743	46.47
610.936	47.3
611.128	48.14
611.32	48.57
611.513	48.92
611.705	49.02
611.897	48.9
612.09	48.44
612.282	47.83
612.474	47.12
612.666	46.27
612.858	45.67
613.051	44.95
613.243	44.38
613.435	43.84
613.627	43.07
613.819	42.22
614.011	41.42
614.203	41
614.395	40.53
614.588	39.93
614.78	39.3
614.972	38.59
615.164	37.82
615.356	36.82
615.548	36.21
615.74	35.62
615.932	35.17
616.124	34.77
616.315	34.34
616.507	33.71
616.699	33.29
616.891	33.22
617.083	32.88
617.275	32.74
617.467	32.7
617.659	32.65
617.85	32.68
618.042	32.61
618.234	32.5
618.426	32.48
618.618	32.48
618.809	32.49
619.001	32.47
619.193	32.45
619.384	32.56
619.576	32.59
619.768	32.38
619.959	32.21
620.151	32.27
620.343	32.3
620.534	32.18
620.726	32.06
620.917	32.17
621.109	32.12
621.301	32.16
621.492	32.08
621.684	32.2
621.875	32.38
622.067	32.36
622.258	32.37
622.45	32.46
622.641	32.38
622.832	32.45
623.024	32.35
623.215	32.42
623.407	32.45
623.598	32.66
623.789	32.68
623.981	32.63
624.172	32.8
624.363	32.9
624.555	33.01
624.746	33.11
624.937	33.17
625.129	33.15
625.32	33.06
625.511	33.11
625.702	32.87
625.893	32.83
626.085	32.74
626.276	32.68
626.467	32.64
626.658	32.47
626.849	32.5
627.04	32.52
627.231	32.52
627.422	32.44
627.614	32.42
627.805	32.56
627.996	32.72
628.187	32.77
628.378	32.8
628.569	32.86
628.76	33.11
628.951	33.11
629.142	33.21
629.332	33.3
629.523	33.49
629.714	33.63
629.905	33.67
630.096	33.68
630.287	34.04
630.478	34.16
630.669	34.3
630.859	34.25
631.05	34.24
631.241	34.17
631.432	33.85
631.623	33.82
631.813	33.73
632.004	33.32
632.195	32.95
632.385	32.46
632.576	32.17
632.767	31.81
632.957	31.36
633.148	31.15
633.339	31.04
633.529	31.19
633.72	31.06
633.91	30.71
634.101	30.92
634.292	31.01
634.482	30.92
634.673	30.82
634.863	30.7
635.054	30.91
635.244	30.91
635.435	30.81
635.625	30.63
635.815	30.6
636.006	30.61
636.196	30.54
636.387	30.4
636.577	30.47
636.767	30.45
636.958	30.59
637.148	30.65
637.338	30.77
637.529	30.73
637.719	30.9
637.909	30.97
638.099	31.15
638.29	31.29
638.48	31.38
638.67	31.41
638.86	31.45
639.05	31.45
639.241	31.28
639.431	31.26
639.621	31.41
639.811	31.46
640.001	31.57
640.191	31.51
640.381	31.43
640.571	31.44
640.761	31.38
640.951	31.54
641.141	31.41
641.331	31.58
641.521	31.61
641.711	31.64
641.901	31.62
642.091	31.4
642.281	31.57
642.471	31.48
642.661	31.38
642.851	31.43
643.041	31.43
643.231	31.58
643.42	31.41
643.61	31.25
643.8	31.28
643.99	31.2
644.18	31.41
644.369	31.19
644.559	31.45
644.749	31.65
644.939	31.7
645.128	31.52
645.318	31.48
645.508	31.43
645.697	31.62
645.887	31.51
646.076	31.51
646.266	31.45
646.456	31.57
646.645	31.49
646.835	31.53
647.024	31.56
647.214	31.73
647.403	31.82
647.593	32.03
647.782	31.98
647.972	32.19
648.161	32.27
648.351	32.35
648.54	32.39
648.73	32.3
648.919	32.2
649.108	32.38
649.298	32.51
649.487	32.47
649.677	32.29
649.866	32.28
650.055	32.36
650.244	32.47
650.434	32.53
650.623	32.66
650.812	32.77
651.002	32.86
651.191	32.67
651.38	32.6
651.569	32.65
651.758	32.85
651.947	32.98
652.137	32.83
652.326	32.76
652.515	32.67
652.704	32.54
652.893	32.46
653.082	32.44
653.271	32.3
653.46	32.3
653.649	32.18
653.838	32.24
654.027	32.22
654.216	32.17
654.405	32.29
654.594	32.19
654.783	31.99
654.972	31.97
655.161	31.85
655.35	32.09
655.539	32
655.728	32.17
655.916	31.94
656.105	31.75
656.294	31.5
656.483	31.46
656.672	31.36
656.86	31.56
657.049	31.67
657.238	31.51
657.427	31.57
657.615	31.45
657.804	31.3
657.993	31.4
658.181	31.46
658.37	31.61
658.559	31.52
658.747	31.61
658.936	31.61
659.125	31.14
659.313	31.2
659.502	31.05
659.69	31.25
659.879	31.35
660.067	31.38
660.256	31.38
660.444	31.37
660.633	31.32
660.821	31.31
661.01	31.41
661.198	32.01
661.387	32.3
661.575	32.55
661.763	32.69
661.952	32.73
662.14	32.56
662.328	32.64
662.517	32.65
662.705	32.72
662.893	32.76
663.082	32.64
663.27	32.51
663.458	32.55
663.646	32.49
663.834	32.19
664.023	32.36
664.211	32.47
664.399	32.49
664.587	32.64
664.775	32.75
664.963	32.78
665.152	32.66
665.34	32.71
665.528	32.6
665.716	32.66
665.904	32.87
666.092	32.65
666.28	32.91
666.468	32.94
666.656	32.77
666.844	32.55
667.032	32.54
667.22	32.72
667.408	32.73
667.596	32.88
667.784	32.66
667.971	32.62
668.159	32.85
668.347	32.87
668.535	32.79
668.723	32.92
668.911	32.97
669.098	33.04
669.286	32.85
669.474	32.79
669.662	32.53
669.849	32.47
670.037	32.53
670.225	32.4
670.413	32.03
670.6	32.15
670.788	32.04
670.976	32.27
671.163	32.19
671.351	32.39
671.538	32.44
671.726	32.42
671.913	32.62
672.101	32.65
672.289	32.58
672.476	32.82
672.664	33.04
672.851	33.1
673.039	33.18
673.226	33.27
673.413	33.26
673.601	33.22
673.788	33.37
673.976	33.49
674.163	33.43
674.35	33.58
674.538	33.64
674.725	33.64
674.912	33.86
675.1	33.77
675.287	33.85
675.474	33.87
675.662	33.97
675.849	33.85
676.036	33.75
676.223	33.72
676.411	33.51
676.598	33.42
676.785	33.17
676.972	33.06
677.159	32.75
677.346	32.74
677.533	32.69
677.721	32.52
677.908	32.69
678.095	32.57
678.282	32.61
678.469	32.62
678.656	32.41
678.843	32.36
679.03	32.16
679.217	32.38
679.404	32.35
679.591	32.34
679.778	32.25
679.964	32.07
680.151	32.09
680.338	31.98
680.525	31.95
680.712	32.18
680.899	32.45
681.086	32.8
681.272	32.58
681.459	32.54
681.646	32.39
681.833	32.68
682.02	32.98
682.206	32.95
682.393	33.08
682.58	33.08
682.766	33.08
682.953	32.81
683.14	32.71
683.326	33.08
683.513	33.33
683.7	33.48
683.886	33.81
684.073	33.56
684.259	33.96
684.446	33.89
684.632	34.01
684.819	34.26
685.005	34.51
685.192	34.56
685.378	34.55
685.565	34.43
685.751	34.6
685.938	34.07
686.124	34.45
686.31	34.38
686.497	34.36
686.683	34.59
686.87	34.34
687.056	34.19
687.242	34.36
687.429	34.29
687.615	34.27
687.801	34.28
687.987	34.32
688.174	33.97
688.36	33.89
688.546	33.85
688.732	33.8
688.918	33.7
689.105	33.74
689.291	33.32
689.477	33.22
689.663	33.24
689.849	33.03
690.035	33.35
690.221	33.61
690.407	33.42
690.593	33.56
690.779	33.33
690.965	33.34
691.151	33.21
691.337	33.54
691.523	33.55
691.709	33.55
691.895	33.41
692.081	33.22
692.267	32.85
692.453	33
692.639	32.94
692.825	33.06
693.011	33.54
693.196	33.72
693.382	33.73
693.568	33.84
693.754	33.74
693.94	33.93
694.125	33.82
694.311	33.99
694.497	33.77
694.682	33.79
694.868	33.97
695.054	33.62
695.239	33.44
695.425	33.62
695.611	33.53
695.796	33.32
695.982	33.46
696.168	33.56
696.353	33.52
696.539	33.73
696.724	33.68
696.91	33.51
697.095	33.37
697.281	33.51
697.466	33.09
697.652	32.98
697.837	33.12
698.023	32.93
698.208	32.92
698.393	32.75
698.579	32.6
698.764	32.59
698.949	32.52
699.135	32.64
699.32	32.39
699.505	32.32
699.691	32.5
699.876	32.67
700.061	32.76
700.246	32.82
700.432	33.24
700.617	33.4
700.802	33.25
700.987	33.52
701.172	33.59
701.358	33.88
701.543	34.2
701.728	34.11
701.913	34.17
702.098	34.57
702.283	34.64
702.468	34.64
702.653	34.87
702.838	35.44
703.023	35.24
703.208	35.36
703.393	35.41
703.578	35.51
703.763	35.88
703.948	35.93
704.133	36
704.318	36.4
704.503	36.9
704.688	36.73
704.873	36.9
705.057	37.24
705.242	37.55
705.427	38.04
705.612	38.65
705.797	38.73
705.981	38.95
706.166	39.11
706.351	39.1
706.536	39.2
706.72	39.79
706.905	40.16
707.09	40.94
707.274	40.82
707.459	40.8
707.644	40.79
707.828	41.12
708.013	41.18
708.197	41.08
708.382	41.17
708.567	40.88
708.751	40.51
708.936	40.35
709.12	39.66
709.305	39.6
709.489	39.69
709.673	39.24
709.858	38.96
710.042	38.89
710.227	38.88
710.411	38.91
710.596	38.96
710.78	39.07
710.964	38.96
711.149	39.17
711.333	39.02
711.517	38.81
711.702	38.81
711.886	39.08
712.07	38.95
712.254	38.62
712.438	38.42
712.623	38.15
712.807	37.99
712.991	37.78
713.175	37.5
713.359	37.38
713.544	36.98
713.728	36.92
713.912	36.25
714.096	35.6
714.28	35.41
714.464	35.21
714.648	34.92
714.832	34.86
715.016	34.8
715.2	34.66
715.384	34.77
715.568	34.44
715.752	34.29
715.936	34.43
716.12	35.01
716.304	35.33
716.488	34.8
716.671	34.88
716.855	34.83
717.039	34.76
717.223	34.61
717.407	34.38
717.59	34.62
717.774	34.29
717.958	34.32
718.142	34.07
718.325	33.95
718.509	34.6
718.693	34.1
718.877	34.2
719.06	34.19
719.244	33.89
719.428	34.09
719.611	34.21
719.795	34.69
719.978	34.72
720.162	34.58
720.345	34.4
720.529	34.39
720.713	34.82
720.896	34.58
721.08	34.85
721.263	35.49
721.446	35.4
721.63	35.2
721.813	34.83
721.997	34.96
722.18	34.92
722.364	34.93
722.547	34.59
722.73	34.45
722.914	34.58
723.097	34.41
723.28	34.1
723.464	34.17
723.647	34.45
723.83	34.9
724.013	34.35
724.197	34.93
724.38	34.95
724.563	34.82
724.746	35.36
724.929	35.17
725.112	34.86
725.296	34.6
725.479	34.45
725.662	33.95
725.845	34.05
726.028	34.43
726.211	33.98
726.394	33.91
726.577	33.75
726.76	33.27
726.943	33.16
727.126	33.18
727.309	33.21
727.492	33.42
727.675	33.98
727.858	33.62
728.041	33.58
728.224	33.43
728.407	33.65
728.589	33.96
728.772	34.51
728.955	34.54
729.138	34.64
729.321	34.77
729.503	34.34
729.686	34.07
729.869	33.96
730.052	33.9
730.234	33.92
730.417	33.85
730.6	33.9
730.782	33.61
730.965	33.35
731.148	33.21
731.33	33.26
731.513	33.56
731.695	33.96
731.878	33.96
732.061	33.9
732.243	34.09
732.426	34.2
732.608	34.38
732.791	34.27
732.973	34.73
733.156	35.05
733.338	35.46
733.52	35.65
733.703	35.52
733.885	36.05
734.068	35.96
734.25	36.25
734.432	36.36
734.615	36.16
734.797	36.22
734.979	35.93
735.162	35.76
735.344	35.45
735.526	35.27
735.708	35.33
735.891	35.28
736.073	35.38
736.255	35.11
736.437	34.94
736.619	35.92
736.802	36.11
736.984	36.59
737.166	36.89
737.348	37.17
737.53	37.36
737.712	37.44
737.894	37.07
738.076	37.59
738.258	37.91
738.44	37.71
738.622	36.91
738.804	37.27
738.986	37.53
739.168	37.75
739.35	37.82
739.532	37.91
739.714	37.91
739.896	38.13
740.078	37.87
740.259	37.4
740.441	37.33
740.623	37.29
740.805	37.04
740.987	36.96
741.168	36.21
741.35	36.23
741.532	36.21
741.714	35.91
741.895	35.86
742.077	35.64
742.259	35.85
742.44	36.65
742.622	36.53
742.804	36.3
742.985	36.31
743.167	37.29
743.348	37.23
743.53	37.2
743.711	38.1
743.893	38.58
744.075	38.91
744.256	39.17
744.438	38.82
744.619	39.12
744.8	39.66
744.982	39.29
745.163	39.12
745.345	39.68
745.526	40.12
745.707	40.04
745.889	39.75
746.07	39.7
746.252	39.68
746.433	39.33
746.614	39.04
746.795	39.12
746.977	39.22
747.158	38.88
747.339	37.83
747.52	38.04
747.702	37.74
747.883	38.15
748.064	38.21
748.245	38.12
748.426	38.49
748.607	38.95
748.788	38.98
748.97	38.65
749.151	38.82
749.332	39.46
749.513	38.4
749.694	38.46
749.875	37.39
750.056	37.68
750.237	38.17
750.418	37.79
750.599	37.18
750.78	36.68
750.96	37.18
751.141	36.93
751.322	37.28
751.503	37.56
751.684	37.25
751.865	38.2
752.046	37.75
752.226	37.58
752.407	37.77
752.588	38.73
752.769	39.13
752.949	39.24
753.13	38.92
753.311	38.21
753.492	37.99
753.672	37.79
753.853	37.3
754.034	36.69
754.214	36.39
754.395	36.97
754.575	36.25
754.756	35.53
754.937	35.8
755.117	36.3
755.298	36.57
755.478	37.28
755.659	37.77
755.839	38.58
756.02	39.73
756.2	40.19
756.381	40.08
756.561	40.81
756.741	41.19
756.922	40.72
757.102	41.05
757.283	40.99
757.463	40.76
757.643	40.09
757.823	39.38
758.004	38.85
758.184	37.64
758.364	36.99
758.545	36.37
758.725	35.61
758.905	35.63
759.085	34.27
759.265	33.57
759.446	33.18
759.626	32.98
759.806	32.72
759.986	32.44
760.166	32.42
760.346	32.49
760.526	32.26
760.706	32.45
760.886	32.32
761.066	33.55
761.246	33.65
761.426	33.92
761.606	34.07
761.786	34
761.966	34.14
762.146	34.29
762.326	34.23
762.506	33.92
762.686	34.08
762.866	33.86
763.046	33.32
763.225	33.16
763.405	33.04
763.585	32.72
763.765	32.51
763.945	32.44
764.124	32.36
764.304	32.61
764.484	32.87
764.664	33.22
764.843	33.53
765.023	33.98
765.203	34.25
765.382	34.28
765.562	35.02
765.741	35.63
765.921	35.12
766.101	35.67
766.28	35.87
766.46	36.77
766.639	36.85
766.819	36.84
766.998	36.43
767.178	35.88
767.357	36.2
767.537	36.59
767.716	36.38
767.896	37.45
768.075	37.61
768.254	38.1
768.434	37.44
768.613	37.39
768.792	38.19
768.972	39.21
769.151	39.81
769.33	39.37
769.51	39.77
769.689	40.74
769.868	40.51
770.047	40.78
770.226	40.37
770.406	41.32
770.585	41.17
770.764	40.76
770.943	40.34
771.122	41.8
771.301	42.39
771.48	41.87
771.66	41.37
771.839	42.35
772.018	42.37
772.197	41.87
772.376	41.02
772.555	41.35
772.734	41.53
772.913	41.55
773.092	40.69
773.271	40.78
773.449	40.87
773.628	40.83
773.807	40.03
773.986	39.69
774.165	40.66
774.344	40.85
774.523	41.11
774.701	41.66
774.88	41.61
775.059	41.32
775.238	41.78
775.417	40.78
775.595	41.34
775.774	42.2
775.953	42.55
776.131	41.79
776.31	42.25
776.489	41.52
776.667	40.34
776.846	40.52
777.025	41.54
777.203	41.07
777.382	40.93
777.56	40.31
777.739	40.57
777.917	40.95
778.096	41.53
778.274	40.37
778.453	40.96
778.631	41.37
778.81	40.95
778.988	40.41
779.166	40.41
779.345	41.64
779.523	41.68
779.702	40.74
779.88	40.17
780.058	40.07
780.237	40.04
780.415	39.41
780.593	38.8
780.771	39.09
780.95	38.92
781.128	39.4
781.306	38.94
781.484	38.91
781.662	38.96
781.841	38.64
782.019	37.97
782.197	39.26
782.375	40.08
782.553	40.62
782.731	40.68
782.909	40.12
783.087	40.34
783.265	42.1
783.443	42.36
783.621	42.84
783.799	43.84
783.977	43.72
784.155	42.52
784.333	42.53
784.511	42.5
784.689	42.6
784.867	44.43
785.045	42.82
785.223	41.74
785.4	41.23
785.578	41.44
785.756	40.6
785.934	41.71
786.112	42.84
786.289	41.76
786.467	41.68
786.645	40.88
786.823	39.45
787	39.57
787.178	38.56
787.356	39.33
787.533	38.62
787.711	38.46
787.889	37.05
788.066	36.18
788.244	36.87
788.421	37.39
788.599	37.31
788.776	37.52
788.954	37.46
789.131	37.64
789.309	37.14
789.486	36.6
789.664	36.75
789.841	37.67
790.019	38.34
790.196	38.19
790.373	37.65
790.551	38.49
790.728	37.53
790.906	38.12
791.083	38.01
791.26	38.24
791.437	39.06
791.615	38.6
791.792	37.84
791.969	38.12
792.146	38.13
792.324	37.9
792.501	38.05
792.678	38.48
792.855	38.02
793.032	38.85
793.209	38.99
793.387	38.34
793.564	37.69
793.741	37.36
793.918	37.36
794.095	37.92
794.272	38.79
794.449	37.51
794.626	37.98
794.803	38.62
794.98	38.65
795.157	37.66
795.334	38.22
795.511	38.98
795.688	39.28
795.864	38.55
796.041	37.29
796.218	37.12
796.395	37.48
796.572	38.09
796.749	38.02
796.925	37.46
797.102	37.65
797.279	37.39
797.456	36.86
797.632	37.64
797.809	37.95
797.986	38.17
798.162	37.32
798.339	37.49
798.516	36.83
798.692	37.08
798.869	37.01
799.046	37.84
799.222	38.35
799.399	38.1
799.575	37.83
799.752	37.6
799.928	38.3
800.105	38.76
800.281	39.56
800.458	39.56
800.634	38.77
800.811	38.66
800.987	38.27
801.163	37.46
801.34	38.4
801.516	38.07
801.692	37.68
801.869	36.77
802.045	37.32
802.221	37.22
802.398	36.31
802.574	36.08
802.75	36.51
802.926	36.09
803.103	36.61
803.279	37.17
803.455	37.62
803.631	38.13
803.807	38.64
803.983	37.54
804.16	36.8
804.336	37
804.512	37.89
804.688	37.71
804.864	38.63
805.04	38.81
805.216	38.38
805.392	37.68
805.568	38.89
805.744	38.8
805.92	38.93
806.096	38.5
806.272	38.83
806.448	38.43
806.623	38.48
806.799	38.19
806.975	37.21
807.151	37.21
807.327	38.66
807.503	36.93
807.678	36.96
807.854	36.63
808.03	37.83
808.206	38.66
808.381	38.83
808.557	37.9
808.733	37.35
808.908	38.44
809.084	38.2
809.26	37.94
809.435	38.7
809.611	39.49
809.787	40.12
809.962	39.16
810.138	39.04
810.313	39.17
810.489	39.64
810.664	38.67
810.84	38.6
811.015	38.21
811.191	36.63
811.366	36.21
811.542	34.77
811.717	34.68
811.892	35.95
812.068	35.45
812.243	34.37
812.419	34.65
812.594	36.08
812.769	35.7
812.944	36.13
813.12	37.01
813.295	37.88
813.47	37.87
813.645	37.26
813.821	37.03
813.996	36.83
814.171	37.72
814.346	38.03
814.521	37.63
814.697	37.85
814.872	37.14
815.047	36.16
815.222	34.2
815.397	34.75
815.572	35.8
815.747	35.21
815.922	35.42
816.097	35.13
816.272	34.12
816.447	34.79
816.622	34.19
816.797	35.23
816.972	35.78
817.147	36.89
817.322	37.8
817.496	36.52
817.671	35.44
817.846	35
818.021	34.62
818.196	35.01
818.371	34.59
818.545	34.35
818.72	33.77
818.895	33.61
819.069	33.34
819.244	33.08
819.419	33.25
819.594	33.67
819.768	33.28
819.943	34.01
820.117	33.62
820.292	33.87
820.467	33.3
820.641	32.33
820.816	31.44
820.99	30.57
821.165	30.25
821.339	29.93
821.514	29.59
821.688	29.29
821.863	29.02
822.037	28.91
822.212	28.59
822.386	28.62
822.56	28.67
822.735	28.93
822.909	29.03
823.084	28.98
823.258	28.96
823.432	29.16
823.606	29.18
823.781	29.03
823.955	29.06
824.129	29.13
824.303	29.25
824.478	29.52
824.652	29.36
824.826	29.54
825	29.48
825.174	29.71
825.348	29.68
825.523	29.74
825.697	29.76
825.871	29.49
826.045	29.63
826.219	29.3
826.393	29.5
826.567	30.11
826.741	30.21
826.915	30.03
827.089	30.21
827.263	30.19
827.437	30.58
827.611	30.64
827.784	30.78
827.958	30.57
828.132	31.02
828.306	30.71
828.48	30.34
828.654	29.96
828.827	30.18
829.001	29.9
829.175	29.92
829.349	30.03
829.522	30.39
829.696	31.04
829.87	30.95
830.044	31.17
830.217	31.24
830.391	31.34
830.565	31.99
830.738	32.55
830.912	33.36
831.085	33.54
831.259	34.07
831.432	33.9
831.606	33.68
831.779	34.71
831.953	34.36
832.126	35.17
832.3	35.25
832.473	35.93
832.647	35.38
832.82	35.02
832.994	34.95
833.167	33.77
833.34	33.45
833.514	32.7
833.687	31.85
833.86	31.67
834.034	31.13
834.207	31.23
834.38	30.52
834.553	30.68
834.727	30.23
834.9	30.18
835.073	30.55
835.246	30.33
835.419	30.53
835.593	31.37
835.766	31.29
835.939	31.44
836.112	30.88
836.285	31.92
836.458	31.89
836.631	32.63
836.804	31.76
836.977	31.22
837.15	32.57
837.323	34.4
837.496	33.93
837.669	35.72
837.842	35.42
838.015	35.89
838.188	33.65
838.361	34.84
838.533	34.77
838.706	36.71
838.879	38.07
839.052	38.06
839.225	34.68
839.398	34.29
839.57	32.75
839.743	33.55
839.916	35.12
840.088	37.45
840.261	35.61
840.434	34.82
840.607	33.99
840.779	34.23
840.952	33.52
841.124	34.1
841.297	33.69
841.47	35.22
841.642	34.01
841.815	33.65
841.987	31.87
842.16	33.26
842.332	33.67
842.505	34.5
842.677	35.51
842.85	36.35
843.022	38.13
843.194	38.12
843.367	34.17
843.539	35.3
843.712	33.9
843.884	35.06
844.056	33.61
844.229	34.13
844.401	32.89
844.573	28.88
844.745	27.41
844.918	29.56
845.09	32.85
845.262	37.1
845.434	36.84
845.606	35.97
845.779	36.53
845.951	38.45
846.123	39.35
846.295	39.25
846.467	40.29
846.639	39.32
846.811	38.56
846.983	39.04
847.155	41.49
847.327	41.5
847.499	44.73
847.671	44.86
847.843	42.67
848.015	44.01
848.187	46.02
848.359	46.21
848.531	47.75
848.703	46.02
848.875	43.35
849.047	41.25
849.218	41.89
849.39	40.58
849.562	40.05
849.734	44.17
849.905	44.34
850.077	41.06
850.249	41.3
850.421	42.85
850.592	45.41
850.764	45.22
850.936	46.52
851.107	46.41
851.279	48.05
851.451	48.27
851.622	44.14
851.794	42.79
851.965	44.37
852.137	44.37
852.308	46.05
852.48	46.09
852.651	48.19
852.823	44.36
852.994	42.01
853.166	41.01
853.337	40.41
853.509	41.21
853.68	40.14
853.851	40.71
854.023	40.54
854.194	36.11
854.365	31.84
854.537	31.76
854.708	33.2
854.879	36.24
855.05	34.76
855.222	34.76
855.393	36.28
855.564	36.52
855.735	39.78
855.906	42.12
856.078	45.32
856.249	47.92
856.42	47.71
856.591	48.19
856.762	47.1
856.933	47.59
857.104	46.42
857.275	43.68
857.446	42.88
857.617	40.42
857.788	38.96
857.959	39.82
858.13	42.04
858.301	39.96
858.472	42.78
858.643	41.21
858.814	40.23
858.985	38.31
859.155	40.89
859.326	41.85
859.497	42.28
859.668	43.13
859.839	41.89
860.009	39.28
860.18	42.14
860.351	39.99
860.522	41.97
860.692	41.66
860.863	44.36
861.034	40.46
861.204	36.97
861.375	36.53
861.546	35.28
861.716	35.46
861.887	38.61
862.057	33.31
862.228	31.72
862.398	32.32
862.569	30.1
862.739	30.8
862.91	31.07
863.08	32.41
863.251	32.78
863.421	35.34
863.592	36.8
863.762	34.41
863.932	37.42
864.103	37.73
864.273	34.71
864.443	38.47
864.614	35.2
864.784	37.09
864.954	40.04
865.125	37.96
865.295	36.6
865.465	33.54
865.635	35.73
865.805	36.36
865.976	35.04
866.146	35.89
866.316	33.54
866.486	33.36
866.656	37.03
866.826	33.95
866.996	34.89
867.166	34.6
867.336	35.91
867.506	31.33
867.676	33.52
867.846	35.31
868.016	35.4
868.186	36.95
868.356	39.63
868.526	34.8
868.696	35.94
868.866	32.79
869.036	36.15
869.206	36.24
869.376	38.52
869.545	36.03
869.715	34.17
869.885	35.4
870.055	35.11
870.224	34.65
870.394	37.72
870.564	38.6
870.734	39.02
870.903	33.39
871.073	33.06
871.243	33.99
871.412	35.57
871.582	40.05
871.751	37.83
871.921	37.02
872.091	37.67
872.26	33.14
872.43	32.37
872.599	36.06
872.769	35.43
872.938	32.84
873.108	31.47
873.277	28.88
873.446	24.85
873.616	23.35
873.785	24.92
873.955	24.08
874.124	24.48
874.293	25.44
874.463	24.67
874.632	27.62
874.801	28.94
874.971	26.8
875.14	22.18
875.309	25.69
875.478	29.75
875.647	27.38
875.817	28.48
875.986	30.11
876.155	30.87
876.324	29.3
876.493	29.14
876.662	29.78
876.831	29.67
877	31.29
877.17	30.63
877.339	30.87
877.508	29.56
877.677	28.79
877.846	29.55
878.015	28.32
878.184	29.09
878.352	30.21
878.521	32.69
878.69	35.01
878.859	37.45
879.028	35.49
879.197	34.75
879.366	36.59
879.534	35.3
879.703	32.64
879.872	32.02
880.041	32.53
880.21	30.19
880.378	29.16
880.547	28.18
880.716	27.12
880.884	26.54
881.053	26.34
881.222	25.78
881.39	26.64
881.559	26.92
881.727	26.71
881.896	25.9
882.065	25.99
882.233	25.29
882.402	25.17
882.57	25.09
882.739	25.36
882.907	25.3
883.076	25.51
883.244	25.03
883.412	24.89
883.581	24.85
883.749	25.33
883.918	25
884.086	24.88
884.254	24.89
884.423	24.9
884.591	24.97
884.759	24.55
884.927	24.6
885.096	25.22
885.264	25.52
885.432	24.58
885.6	24.62
885.769	25.67
885.937	25.83
886.105	26.11
886.273	25.81
886.441	24.9
886.609	27.08
886.777	28.01
886.945	26.12
887.113	25.36
887.281	28.38
887.449	27.01
887.617	26.25
887.785	26.8
887.953	26.37
888.121	29.28
888.289	29.44
888.457	26.56
888.625	24.93
888.793	26.76
888.961	25.05
889.129	22.14
889.296	26.67
889.464	26.8
889.632	27.58
889.8	28.37
889.967	25.92
890.135	27.36
