Data from 2938730__Reflection_03.txt Node
Date: Sun Mar 15 18:58:07 EDT 2015
User: robert
Spectrometer: USB4E03002
Autoset integration time: false
Trigger mode: 4
Integration Time (sec): 1.000000E-1
Scans to average: 10
Electric dark correction enabled: false
Nonlinearity correction enabled: false
Boxcar width: 5
Stray light correction enabled: false
XAxis mode: Wavelengths
Stop averaging: false
Number of Pixels in Spectrum: 3648
>>>>>Begin Spectral Data<<<<<
177.575	40.88
177.794	56.79
178.014	68.05
178.233	71.43
178.452	55.2
178.672	60.5
178.891	111.34
179.11	158.49
179.33	286.46
179.549	1850
179.768	296
179.987	80.11
180.207	-30.99
180.426	-70.75
180.645	-234.68
180.864	-892.68
181.084	-105.35
181.303	-195.24
181.522	-181.18
181.741	-6.35
181.96	58.42
182.179	78
182.398	2250
182.618	297.83
182.837	1059.18
183.056	429.34
183.275	538.21
183.494	339.51
183.713	171.87
183.932	157.29
184.151	161.52
184.37	187
184.589	195.06
184.808	180.98
185.027	191.84
185.246	113.73
185.465	-61.9
185.684	43.58
185.903	71.08
186.122	54.55
186.341	45.68
186.56	107.45
186.779	42.62
186.998	3.86
187.216	36.04
187.435	11.61
187.654	-9.8
187.873	-36.2
188.092	-67.83
188.311	-62.65
188.53	-130.62
188.748	-126.44
188.967	2669.23
189.186	188.95
189.405	76.19
189.623	67.22
189.842	15.77
190.061	25.06
190.28	-36.39
190.498	-97.72
190.717	-108.45
190.936	-384.16
191.154	-448.39
191.373	496.15
191.592	348.61
191.81	681.82
192.029	-130.2
192.248	-96.71
192.466	-153.15
192.685	-14.64
192.904	-11.08
193.122	-56.1
193.341	-15.98
193.559	-39.94
193.778	-37.15
193.996	-21.93
194.215	-49.44
194.433	-108.11
194.652	-7.11
194.87	26.19
195.089	70.26
195.307	58.2
195.526	144.48
195.744	93.46
195.963	90.69
196.181	114.29
196.399	123.55
196.618	249.47
196.836	205.26
197.055	150.55
197.273	137.36
197.491	260.38
197.71	786.36
197.928	440.58
198.146	-646
198.365	-168.42
198.583	-205.42
198.801	-725.81
199.019	89.95
199.238	102.23
199.456	-44.44
199.674	337.93
199.892	125.61
200.111	321.3
200.329	167.59
200.547	159.09
200.765	194.27
200.983	522.73
201.202	-156.98
201.42	-222.5
201.638	-19450
201.856	399.34
202.074	449.49
202.292	181.18
202.51	115.36
202.728	89.97
202.946	104.03
203.165	133.87
203.383	80.91
203.601	151.14
203.819	366.28
204.037	152.87
204.255	210.56
204.473	441.11
204.691	-167.26
204.909	-41.2
205.127	-68.18
205.345	-59.87
205.562	-65.74
205.78	10.48
205.998	34.83
206.216	32.98
206.434	50.29
206.652	64.68
206.87	108.39
207.088	35.62
207.306	38.83
207.523	37.85
207.741	42.99
207.959	-20.33
208.177	-38.36
208.395	-110.53
208.612	54.07
208.83	85.89
209.048	77.6
209.266	20.28
209.483	124.26
209.701	14.43
209.919	39.41
210.136	35
210.354	73.25
210.572	70.39
210.79	44.58
211.007	-19.94
211.225	-54.37
211.442	-153.13
211.66	-84.48
211.878	-37.91
212.095	-10.75
212.313	-14.73
212.53	-17.52
212.748	-38.16
212.966	-46.97
213.183	-54.45
213.401	-43.5
213.618	-41.58
213.836	-24.46
214.053	-16.14
214.271	-39.49
214.488	-51.95
214.705	-42.23
214.923	-71.61
215.14	-105.36
215.358	-116.82
215.575	-116.42
215.793	-127.27
216.01	-98.4
216.227	-91.52
216.445	-106.23
216.662	-55.7
216.879	-38.02
217.097	-40.34
217.314	-12.87
217.531	-11.62
217.749	3.21
217.966	8.56
218.183	-7.18
218.4	-17.04
218.618	-12.89
218.835	1.94
219.052	-3.84
219.269	-21.37
219.487	-34.56
219.704	-34.61
219.921	-27.31
220.138	-45.45
220.355	-37.39
220.572	-31.74
220.79	-26.7
221.007	-27.68
221.224	-53.49
221.441	-66.7
221.658	-62
221.875	-48.27
222.092	-67.82
222.309	-65.81
222.526	-58.29
222.743	-83.61
222.96	-77.7
223.177	-53.58
223.394	-64.71
223.611	-56.14
223.828	-36.09
224.045	-31.58
224.262	-36.19
224.479	-24.1
224.696	-9.64
224.913	-12.39
225.13	1.86
225.347	0.74
225.564	1.04
225.781	1.79
225.997	1.49
226.214	-4
226.431	-3.38
226.648	-0.82
226.865	-0.69
227.082	-1.96
227.298	0.3
227.515	-3.14
227.732	-2.78
227.949	-5.08
228.165	-4.23
228.382	-3.98
228.599	-3.47
228.816	-2.16
229.032	-2.46
229.249	-1.68
229.466	-3.21
229.682	-4.76
229.899	-3.87
230.116	-3.82
230.332	-3.77
230.549	-4.08
230.765	-3.72
230.982	-5.01
231.199	-7.17
231.415	-8.25
231.632	-10.62
231.848	-9.84
232.065	-9.23
232.281	-8.86
232.498	-10.65
232.714	-9.33
232.931	-10.39
233.147	-9.46
233.364	-7.65
233.58	-7.09
233.797	-5.62
234.013	-3.77
234.23	-4.61
234.446	-2.5
234.662	-2.63
234.879	-2.9
235.095	-4.19
235.312	-3.31
235.528	-3.57
235.744	-6.26
235.961	-6.15
236.177	-8.41
236.393	-6.79
236.61	-9.26
236.826	-8.59
237.042	-10.89
237.258	-11.37
237.475	-11.84
237.691	-14.47
237.907	-16.95
238.123	-14.88
238.339	-11.89
238.556	-12.88
238.772	-15.57
238.988	-12.2
239.204	-13.27
239.42	-11.74
239.636	-9.56
239.853	-6.43
240.069	-6.03
240.285	-5.16
240.501	-4.88
240.717	-5.19
240.933	-3.13
241.149	-2.89
241.365	-2.44
241.581	-1.79
241.797	-2.16
242.013	-1.9
242.229	-2.16
242.445	-2.18
242.661	-2.27
242.877	-1.8
243.093	-2.72
243.309	-3.22
243.525	-3.75
243.741	-3.92
243.957	-3.89
244.173	-3.43
244.388	-3.39
244.604	-3.87
244.82	-3.64
245.036	-3.02
245.252	-3.04
245.468	-1.54
245.683	-1.2
245.899	-0.62
246.115	-1
246.331	-1.68
246.547	-1.81
246.762	-1.66
246.978	-1.51
247.194	-1.37
247.409	-1.17
247.625	-0.82
247.841	-1.28
248.057	-1.08
248.272	-1.26
248.488	-0.4
248.703	-0.1
248.919	0.45
249.135	-0.17
249.35	0.06
249.566	0.26
249.782	0.18
249.997	-0.38
250.213	0.09
250.428	-0.76
250.644	-0.03
250.859	-1.4
251.075	-1.2
251.29	-2.01
251.506	-0.7
251.721	-0.8
251.937	-0.87
252.152	-1.14
252.368	-0.79
252.583	-0.26
252.798	0.21
253.014	-0.8
253.229	-1.2
253.445	-1.16
253.66	-1.26
253.875	-1.48
254.091	-2.04
254.306	-3.14
254.521	-2.93
254.737	-3.21
254.952	-3.65
255.167	-4.13
255.383	-2.43
255.598	-0.35
255.813	-0.49
256.028	-0.48
256.244	-0.5
256.459	-0.29
256.674	0.49
256.889	-0.3
257.104	-0.76
257.32	-1.6
257.535	-1.47
257.75	-1.99
257.965	-3.03
258.18	-2.6
258.395	-2.59
258.61	-2.54
258.826	-1.79
259.041	-1.45
259.256	-0.56
259.471	-0.06
259.686	0.28
259.901	0.26
260.116	0.28
260.331	0.47
260.546	0.53
260.761	0.71
260.976	0.78
261.191	0.33
261.406	0
261.621	-0.57
261.836	-1.24
262.05	-1.75
262.265	-1.69
262.48	-2.19
262.695	-1.9
262.91	-2.01
263.125	-2.17
263.34	-2.13
263.555	-1.72
263.769	-1.14
263.984	-1.57
264.199	-1.43
264.414	-1.32
264.629	-1.58
264.843	-0.57
265.058	-1.02
265.273	-1.69
265.488	-2.2
265.702	-2.35
265.917	-2.51
266.132	-2.29
266.346	-1.63
266.561	-1.52
266.776	-1.74
266.99	-1.56
267.205	-1.26
267.42	-1.27
267.634	-1.05
267.849	-0.76
268.063	-0.61
268.278	-0.62
268.492	-0.77
268.707	-0.95
268.922	-1.49
269.136	-1.09
269.351	-1.14
269.565	-1.43
269.78	-1.79
269.994	-1.7
270.209	-1.54
270.423	-1.26
270.637	-1.32
270.852	-1.34
271.066	-1.45
271.281	-0.71
271.495	-0.99
271.709	-0.78
271.924	-1.02
272.138	-0.4
272.353	-0.58
272.567	-0.61
272.781	-0.94
272.996	-0.52
273.21	-0.83
273.424	-0.4
273.638	-0.34
273.853	0.34
274.067	0.2
274.281	0.23
274.495	-0.3
274.71	0.18
274.924	0.2
275.138	0.46
275.352	0.16
275.566	0.52
275.781	0.06
275.995	-0.13
276.209	-0.89
276.423	-0.72
276.637	-1.32
276.851	-0.38
277.065	-0.46
277.279	-0.17
277.493	-0.05
277.707	-0.21
277.921	-0.51
278.135	-0.55
278.349	-0.65
278.563	-0.14
278.777	-0.22
278.991	0.27
279.205	-0.56
279.419	-0.42
279.633	-0.43
279.847	-0.73
280.061	-0.69
280.275	0.28
280.489	0.31
280.703	-0.07
280.917	0.29
281.131	0.45
281.344	0.88
281.558	0.89
281.772	0.66
281.986	0.54
282.2	0.51
282.414	0.68
282.627	0.27
282.841	-0.14
283.055	-0.05
283.269	-0.43
283.482	-0.95
283.696	-1.35
283.91	-1.4
284.123	-1.57
284.337	-1.36
284.551	-0.91
284.764	-1.1
284.978	-1.03
285.192	-0.6
285.405	-0.3
285.619	-0.56
285.833	-0.07
286.046	0.36
286.26	0.1
286.473	0.23
286.687	-0.06
286.9	-0.32
287.114	-0
287.327	-0.31
287.541	-0.27
287.754	-0.53
287.968	-0.53
288.181	-1.21
288.395	-1.86
288.608	-1.31
288.822	-1.42
289.035	-1.35
289.248	-1.3
289.462	-1.52
289.675	-1.27
289.889	-1.36
290.102	-1.71
290.315	-1.56
290.529	-1.19
290.742	-1
290.955	-1.21
291.169	-1.17
291.382	-1.31
291.595	-1.19
291.808	-1.38
292.022	-1.16
292.235	-1
292.448	0.01
292.661	-0.18
292.875	-0.36
293.088	-0.01
293.301	0.42
293.514	0.45
293.727	0.41
293.94	-0.04
294.153	0.09
294.367	-0.22
294.58	-0.56
294.793	-1.37
295.006	-0.89
295.219	-0.8
295.432	-0.92
295.645	-1.24
295.858	-1.02
296.071	-0.75
296.284	-0.58
296.497	-0.76
296.71	-0.64
296.923	-0.33
297.136	-0.16
297.349	-0.51
297.562	-0.42
297.775	-0.4
297.988	-0.55
298.201	-0.27
298.414	-0.5
298.626	-0.3
298.839	-0.01
299.052	-0.06
299.265	-0.42
299.478	-0.24
299.691	-0.04
299.903	-0.13
300.116	-0.44
300.329	-0.33
300.542	-0.91
300.755	-0.61
300.967	-0.81
301.18	-1.12
301.393	-0.7
301.605	-0.54
301.818	-0.67
302.031	-0.6
302.243	-1.01
302.456	-0.89
302.669	-0.94
302.881	-0.85
303.094	-1.24
303.307	-1.06
303.519	-0.67
303.732	-1.33
303.944	-1.16
304.157	-0.87
304.37	-0.99
304.582	-0.69
304.795	-0.64
305.007	-0.28
305.22	-0.12
305.432	0.1
305.645	-0.28
305.857	-0.31
306.069	-0.06
306.282	-0.18
306.494	-0.63
306.707	-0.39
306.919	-0.52
307.132	-0.64
307.344	-0.32
307.556	-0.39
307.769	-0.32
307.981	-0.18
308.193	0.1
308.406	0.01
308.618	-0.08
308.83	0.5
309.043	0.43
309.255	1.01
309.467	1.48
309.679	1.26
309.892	1.04
310.104	0.72
310.316	1
310.528	0.98
310.74	1.06
310.953	1.52
311.165	0.97
311.377	1.13
311.589	0.86
311.801	0.75
312.013	0.62
312.225	0.5
312.437	0.78
312.649	0.8
312.862	0.53
313.074	0.82
313.286	-0.2
313.498	0.1
313.71	0.06
313.922	-0.02
314.134	-0.23
314.346	-0.09
314.558	0.27
314.77	0.39
314.982	-0.32
315.193	-0.09
315.405	-0.51
315.617	0.13
315.829	0.06
316.041	-0.28
316.253	0.03
316.465	0.22
316.677	-0.03
316.888	0.42
317.1	0.33
317.312	1
317.524	0.85
317.736	1.05
317.947	0.95
318.159	1
318.371	1.63
318.583	1.46
318.794	1.19
319.006	1.59
319.218	0.84
319.43	1.1
319.641	1.18
319.853	1
320.064	0.85
320.276	1.58
320.488	1.76
320.699	1.53
320.911	1.38
321.123	1.59
321.334	1.28
321.546	1.36
321.757	1.54
321.969	1.4
322.18	1.75
322.392	1.59
322.603	1.82
322.815	1.92
323.026	1.44
323.238	1.8
323.449	1.65
323.661	1.54
323.872	1.45
324.083	1.22
324.295	1.28
324.506	1.5
324.718	2.08
324.929	1.9
325.14	1.53
325.352	1.85
325.563	2.31
325.774	2.62
325.986	3
326.197	3.28
326.408	3.23
326.62	3.27
326.831	2.9
327.042	2.72
327.253	2.66
327.464	3.07
327.676	2.81
327.887	2.54
328.098	2.15
328.309	2.06
328.52	2.61
328.732	2.86
328.943	2.66
329.154	3.06
329.365	2.99
329.576	3.35
329.787	3.27
329.998	3.77
330.209	3.64
330.42	3.96
330.631	3.78
330.842	3.7
331.053	3.88
331.264	4.15
331.475	3.91
331.686	3.71
331.897	3.31
332.108	3.22
332.319	3.04
332.53	2.91
332.741	3.4
332.952	3.59
333.163	3.42
333.374	3.31
333.585	3.21
333.795	3.26
334.006	3.85
334.217	3.76
334.428	3.89
334.639	4.16
334.849	4.51
335.06	4.38
335.271	4.37
335.482	4.47
335.692	4.68
335.903	4.88
336.114	5.14
336.325	4.89
336.535	5.08
336.746	5.17
336.957	4.93
337.167	4.91
337.378	4.54
337.589	4.97
337.799	5.2
338.01	5.21
338.22	5.19
338.431	5.25
338.642	5.53
338.852	5.36
339.063	5.06
339.273	5.43
339.484	5.69
339.694	6.06
339.905	5.72
340.115	5.7
340.326	5.37
340.536	5.31
340.746	5.47
340.957	5.34
341.167	5.39
341.378	5.94
341.588	6.34
341.799	6.11
342.009	5.71
342.219	5.83
342.43	5.67
342.64	6.07
342.85	6.1
343.061	5.76
343.271	5.96
343.481	6.2
343.691	5.61
343.902	5.1
344.112	5.25
344.322	5.66
344.532	5.31
344.743	5.05
344.953	4.81
345.163	4.83
345.373	4.78
345.583	4.52
345.793	4.49
346.004	4.91
346.214	5.1
346.424	4.75
346.634	4.79
346.844	4.98
347.054	5.06
347.264	5.08
347.474	5.08
347.684	5.28
347.894	5.41
348.104	5.46
348.314	5.57
348.524	5.3
348.734	5.39
348.944	5.49
349.154	5.76
349.364	6.02
349.574	5.95
349.784	5.96
349.994	5.92
350.204	6.15
350.413	5.92
350.623	5.54
350.833	5.57
351.043	5.41
351.253	5.29
351.463	5.05
351.672	5.23
351.882	5.32
352.092	5.35
352.302	5.77
352.511	5.46
352.721	5.54
352.931	5.83
353.141	5.73
353.35	6.07
353.56	5.75
353.77	5.56
353.979	5.06
354.189	5.21
354.399	5.28
354.608	4.83
354.818	4.93
355.027	4.8
355.237	4.61
355.447	4.82
355.656	4.52
355.866	4.88
356.075	5.06
356.285	5.18
356.494	4.95
356.704	4.69
356.913	4.61
357.123	4.67
357.332	4.92
357.542	4.83
357.751	4.54
357.96	4.56
358.17	4.28
358.379	4.34
358.589	4.61
358.798	4.97
359.007	5.2
359.217	5.3
359.426	5.4
359.635	5.26
359.845	5.4
360.054	5.66
360.263	5.82
360.472	5.96
360.682	5.93
360.891	5.82
361.1	5.49
361.309	5.4
361.519	5.34
361.728	5.2
361.937	5.31
362.146	5.46
362.355	5.29
362.564	5.27
362.774	5.41
362.983	5.36
363.192	5.39
363.401	5.59
363.61	5.6
363.819	5.48
364.028	5.55
364.237	5.45
364.446	5.17
364.655	5.23
364.864	5.28
365.073	5.04
365.282	5.32
365.491	5.13
365.7	4.95
365.909	5.09
366.118	5.44
366.327	5.28
366.536	5.42
366.745	5.37
366.954	5.5
367.162	5.58
367.371	5.51
367.58	5.13
367.789	5.41
367.998	5.43
368.207	5.22
368.415	5.07
368.624	5.32
368.833	5.17
369.042	5.28
369.25	5.44
369.459	5.21
369.668	5.3
369.877	5.13
370.085	5.03
370.294	4.82
370.503	4.93
370.711	4.78
370.92	4.47
371.129	4.15
371.337	4.18
371.546	3.87
371.754	3.69
371.963	3.42
372.171	3.58
372.38	3.6
372.589	3.79
372.797	3.82
373.006	4.07
373.214	3.88
373.423	4.33
373.631	4.23
373.84	4.27
374.048	4.1
374.256	4.27
374.465	4.22
374.673	4.26
374.882	4.13
375.09	3.99
375.298	3.95
375.507	4.15
375.715	4.19
375.923	4.33
376.132	4.4
376.34	4.8
376.548	4.66
376.757	4.99
376.965	5.02
377.173	5.14
377.381	5.11
377.59	4.97
377.798	5.09
378.006	5.05
378.214	4.97
378.423	5.03
378.631	5.17
378.839	5.35
379.047	5.43
379.255	5.39
379.463	5.34
379.671	5.59
379.879	5.76
380.088	6.03
380.296	5.99
380.504	5.92
380.712	5.87
380.92	5.5
381.128	5.47
381.336	5.25
381.544	4.9
381.752	4.78
381.96	4.56
382.168	4.4
382.376	4.18
382.584	4.32
382.791	4
382.999	4.06
383.207	4.22
383.415	4.1
383.623	4.14
383.831	4.07
384.039	4.42
384.247	4.43
384.454	4.62
384.662	4.75
384.87	4.77
385.078	5.33
385.285	5.17
385.493	5.26
385.701	5.25
385.909	5.25
386.116	5.37
386.324	5.44
386.532	5.52
386.739	5.44
386.947	5.28
387.155	5.07
387.362	4.89
387.57	5.13
387.778	5.21
387.985	5.3
388.193	5.38
388.4	5.62
388.608	5.52
388.816	5.56
389.023	5.58
389.231	5.63
389.438	5.76
389.646	6.02
389.853	5.93
390.061	5.79
390.268	5.83
390.475	5.51
390.683	5.39
390.89	5.16
391.098	5.07
391.305	4.93
391.512	4.91
391.72	4.83
391.927	4.56
392.135	4.63
392.342	4.71
392.549	4.63
392.756	4.81
392.964	4.85
393.171	5.3
393.378	5.39
393.586	5.49
393.793	5.52
394	5.56
394.207	5.65
394.414	5.55
394.622	5.63
394.829	5.9
395.036	5.99
395.243	6.05
395.45	5.76
395.657	5.74
395.864	5.88
396.072	5.76
396.279	5.92
396.486	5.9
396.693	5.98
396.9	5.94
397.107	5.82
397.314	5.88
397.521	5.82
397.728	5.9
397.935	6
398.142	5.9
398.349	5.85
398.556	5.86
398.763	5.92
398.97	5.91
399.177	5.84
399.383	5.83
399.59	5.62
399.797	5.71
400.004	5.57
400.211	5.63
400.418	5.48
400.625	5.72
400.831	5.48
401.038	5.7
401.245	5.85
401.452	6.05
401.658	5.86
401.865	6.01
402.072	6.02
402.279	6.16
402.485	6.08
402.692	6.45
402.899	6.32
403.105	6.39
403.312	6.4
403.519	6.49
403.725	6.46
403.932	6.63
404.138	6.81
404.345	6.73
404.552	6.57
404.758	6.75
404.965	6.49
405.171	6.58
405.378	6.75
405.584	6.41
405.791	6.37
405.997	6.31
406.204	6.55
406.41	6.41
406.617	6.33
406.823	6.47
407.029	6.29
407.236	6.47
407.442	6.47
407.649	6.31
407.855	6.58
408.061	6.37
408.268	6.27
408.474	5.95
408.68	6.22
408.887	6.43
409.093	6.57
409.299	6.6
409.505	6.61
409.712	6.65
409.918	6.82
410.124	6.73
410.33	6.74
410.537	6.78
410.743	6.94
410.949	6.68
411.155	6.71
411.361	6.65
411.567	6.58
411.773	6.36
411.98	6.3
412.186	6.24
412.392	6.39
412.598	6.28
412.804	6.32
413.01	6.27
413.216	6.23
413.422	6.1
413.628	5.97
413.834	5.92
414.04	6.07
414.246	6.21
414.452	6.28
414.658	6.14
414.864	6.5
415.07	6.44
415.275	6.3
415.481	6.33
415.687	6.45
415.893	6.73
416.099	6.76
416.305	6.69
416.511	6.58
416.716	6.49
416.922	6.44
417.128	6.31
417.334	6.3
417.539	6.32
417.745	6.27
417.951	6.1
418.157	6.02
418.362	6.04
418.568	6.05
418.774	5.89
418.979	5.92
419.185	5.77
419.391	5.86
419.596	5.85
419.802	5.87
420.008	5.84
420.213	5.81
420.419	5.75
420.624	5.67
420.83	5.64
421.035	5.76
421.241	5.65
421.446	5.84
421.652	5.79
421.857	5.81
422.063	5.77
422.268	5.81
422.474	5.92
422.679	5.83
422.885	5.81
423.09	5.81
423.295	5.82
423.501	5.86
423.706	5.78
423.911	5.75
424.117	5.69
424.322	5.82
424.527	5.81
424.733	5.69
424.938	5.68
425.143	5.75
425.349	5.9
425.554	5.85
425.759	5.87
425.964	5.83
426.169	5.79
426.375	5.95
426.58	5.95
426.785	6.02
426.99	6.13
427.195	6.26
427.4	6.35
427.605	6.29
427.811	6.38
428.016	6.32
428.221	6.42
428.426	6.48
428.631	6.49
428.836	6.4
429.041	6.3
429.246	6.34
429.451	6.28
429.656	6.31
429.861	6.34
430.066	6.32
430.271	6.64
430.476	6.62
430.681	6.61
430.886	6.6
431.09	6.56
431.295	6.66
431.5	6.76
431.705	6.74
431.91	6.68
432.115	6.73
432.32	6.73
432.524	6.54
432.729	6.66
432.934	6.75
433.139	6.75
433.343	6.91
433.548	7.03
433.753	7.21
433.958	7.38
434.162	7.52
434.367	7.67
434.572	7.92
434.776	8.18
434.981	8.35
435.186	8.58
435.39	8.72
435.595	8.78
435.799	8.83
436.004	8.62
436.209	8.62
436.413	8.6
436.618	8.32
436.822	8.01
437.027	7.67
437.231	7.44
437.436	7.14
437.64	6.98
437.845	6.81
438.049	6.67
438.253	6.66
438.458	6.47
438.662	6.35
438.867	6.43
439.071	6.52
439.275	6.54
439.48	6.52
439.684	6.44
439.888	6.38
440.093	6.29
440.297	6.23
440.501	6.12
440.706	6.21
440.91	6.12
441.114	6.04
441.318	5.96
441.523	6.05
441.727	6.04
441.931	6.08
442.135	6.06
442.339	6.13
442.543	6.16
442.748	6.29
442.952	6.19
443.156	6.35
443.36	6.33
443.564	6.35
443.768	6.25
443.972	6.33
444.176	6.3
444.38	6.25
444.584	6.18
444.788	6.14
444.992	6.07
445.196	6.05
445.4	5.97
445.604	5.96
445.808	5.94
446.012	5.99
446.216	5.89
446.42	5.9
446.624	5.97
446.828	5.98
447.032	5.94
447.235	5.9
447.439	5.93
447.643	5.89
447.847	5.92
448.051	5.94
448.254	5.9
448.458	6.02
448.662	6.1
448.866	6.18
449.069	6.33
449.273	6.37
449.477	6.52
449.681	6.57
449.884	6.67
450.088	6.86
450.292	6.94
450.495	7.04
450.699	7.05
450.902	7.03
451.106	6.86
451.31	6.77
451.513	6.87
451.717	6.76
451.92	6.78
452.124	6.72
452.327	6.5
452.531	6.48
452.734	6.37
452.938	6.33
453.141	6.23
453.345	6.25
453.548	6.4
453.752	6.3
453.955	6.41
454.158	6.34
454.362	6.33
454.565	6.45
454.769	6.48
454.972	6.55
455.175	6.64
455.379	6.73
455.582	6.83
455.785	6.7
455.988	6.74
456.192	6.56
456.395	6.71
456.598	6.73
456.801	6.64
457.005	6.54
457.208	6.55
457.411	6.46
457.614	6.49
457.817	6.45
458.021	6.39
458.224	6.33
458.427	6.41
458.63	6.26
458.833	6.3
459.036	6.38
459.239	6.39
459.442	6.34
459.645	6.32
459.848	6.22
460.051	6.25
460.254	6.2
460.457	6.18
460.66	6.16
460.863	6.23
461.066	6.16
461.269	6.12
461.472	6.08
461.675	6.05
461.878	6.02
462.081	6.05
462.284	5.93
462.486	6.05
462.689	6.2
462.892	6.21
463.095	6.3
463.298	6.43
463.5	6.48
463.703	6.5
463.906	6.53
464.109	6.62
464.311	6.7
464.514	6.73
464.717	6.68
464.92	6.71
465.122	6.78
465.325	6.73
465.528	6.69
465.73	6.63
465.933	6.56
466.135	6.63
466.338	6.62
466.541	6.63
466.743	6.84
466.946	6.78
467.148	6.81
467.351	6.79
467.553	6.76
467.756	6.7
467.958	6.7
468.161	6.76
468.363	6.77
468.566	6.84
468.768	6.9
468.971	6.78
469.173	6.83
469.375	6.76
469.578	6.79
469.78	6.85
469.983	6.93
470.185	6.98
470.387	6.99
470.59	6.94
470.792	6.9
470.994	6.78
471.196	6.65
471.399	6.66
471.601	6.54
471.803	6.44
472.005	6.38
472.208	6.34
472.41	6.18
472.612	6.22
472.814	6.31
473.016	6.2
473.218	6.29
473.421	6.31
473.623	6.31
473.825	6.42
474.027	6.49
474.229	6.6
474.431	6.7
474.633	6.84
474.835	6.92
475.037	6.87
475.239	6.96
475.441	6.99
475.643	6.99
475.845	6.97
476.047	6.99
476.249	6.91
476.451	6.73
476.653	6.6
476.855	6.57
477.057	6.54
477.258	6.36
477.46	6.32
477.662	6.24
477.864	6.33
478.066	6.43
478.268	6.38
478.469	6.35
478.671	6.37
478.873	6.39
479.075	6.35
479.276	6.28
479.478	6.45
479.68	6.52
479.882	6.52
480.083	6.48
480.285	6.35
480.487	6.41
480.688	6.44
480.89	6.51
481.091	6.46
481.293	6.53
481.495	6.47
481.696	6.39
481.898	6.23
482.099	6.15
482.301	6.04
482.502	6
482.704	5.87
482.905	5.79
483.107	5.69
483.308	5.67
483.51	5.59
483.711	5.59
483.913	5.57
484.114	5.59
484.315	5.59
484.517	5.62
484.718	5.64
484.92	5.7
485.121	5.74
485.322	5.84
485.524	5.89
485.725	5.94
485.926	5.99
486.127	6.03
486.329	6.05
486.53	6.06
486.731	6.05
486.932	6.09
487.134	6.06
487.335	6.08
487.536	6.02
487.737	6.02
487.938	6.02
488.139	6.01
488.341	6.04
488.542	6.07
488.743	6.12
488.944	6.23
489.145	6.25
489.346	6.31
489.547	6.32
489.748	6.39
489.949	6.38
490.15	6.38
490.351	6.4
490.552	6.37
490.753	6.32
490.954	6.29
491.155	6.21
491.356	6.16
491.557	6.17
491.758	6.11
491.959	6.09
492.159	6.12
492.36	6.1
492.561	6.1
492.762	6.12
492.963	6.17
493.164	6.2
493.364	6.32
493.565	6.38
493.766	6.45
493.967	6.6
494.167	6.65
494.368	6.69
494.569	6.76
494.769	6.79
494.97	6.8
495.171	6.72
495.371	6.81
495.572	6.7
495.773	6.66
495.973	6.66
496.174	6.63
496.375	6.72
496.575	6.67
496.776	6.61
496.976	6.57
497.177	6.66
497.377	6.77
497.578	6.72
497.778	6.74
497.979	6.73
498.179	6.65
498.38	6.62
498.58	6.52
498.78	6.59
498.981	6.72
499.181	6.77
499.382	6.76
499.582	6.66
499.782	6.72
499.983	6.71
500.183	6.74
500.383	6.74
500.584	6.8
500.784	6.88
500.984	6.84
501.184	6.85
501.385	6.84
501.585	6.86
501.785	6.97
501.985	6.92
502.185	6.99
502.386	6.97
502.586	7.07
502.786	7.11
502.986	7.1
503.186	7.12
503.386	7.1
503.586	7.05
503.786	7
503.987	6.96
504.187	6.95
504.387	6.91
504.587	7.03
504.787	6.92
504.987	6.87
505.187	6.88
505.387	6.77
505.587	6.78
505.786	6.83
505.986	6.87
506.186	6.85
506.386	6.87
506.586	6.89
506.786	6.78
506.986	6.84
507.186	6.82
507.386	6.77
507.585	6.83
507.785	6.8
507.985	6.86
508.185	6.81
508.384	6.84
508.584	6.81
508.784	6.74
508.984	6.71
509.183	6.68
509.383	6.74
509.583	6.75
509.782	6.82
509.982	6.83
510.182	6.73
510.381	6.77
510.581	6.83
510.781	6.84
510.98	6.87
511.18	6.91
511.379	6.93
511.579	6.89
511.778	6.91
511.978	6.86
512.177	6.93
512.377	6.98
512.576	7
512.776	6.99
512.975	7.04
513.175	7.06
513.374	7.18
513.573	7.27
513.773	7.26
513.972	7.37
514.172	7.27
514.371	7.2
514.57	7.21
514.77	7.22
514.969	7.19
515.168	7.14
515.367	7.08
515.567	6.86
515.766	6.75
515.965	6.68
516.164	6.62
516.364	6.71
516.563	6.76
516.762	6.67
516.961	6.6
517.16	6.6
517.359	6.64
517.559	6.71
517.758	6.77
517.957	6.8
518.156	6.84
518.355	6.78
518.554	6.86
518.753	6.84
518.952	6.85
519.151	6.81
519.35	6.87
519.549	6.8
519.748	6.79
519.947	6.81
520.146	6.86
520.345	6.88
520.544	6.97
520.743	6.95
520.942	6.91
521.141	7
521.339	7.07
521.538	7.03
521.737	7.19
521.936	7.25
522.135	7.29
522.333	7.24
522.532	7.23
522.731	7.15
522.93	7.12
523.129	7.1
523.327	7.1
523.526	7.09
523.725	7.07
523.923	6.91
524.122	6.82
524.321	6.74
524.519	6.78
524.718	6.77
524.917	6.85
525.115	6.81
525.314	6.8
525.512	6.71
525.711	6.67
525.909	6.66
526.108	6.66
526.306	6.62
526.505	6.63
526.703	6.48
526.902	6.43
527.1	6.29
527.299	6.22
527.497	6.2
527.696	6.16
527.894	6.06
528.092	5.98
528.291	5.94
528.489	5.94
528.688	5.89
528.886	5.9
529.084	5.86
529.283	5.89
529.481	5.88
529.679	5.9
529.877	5.9
530.076	5.98
530.274	6.05
530.472	6.13
530.67	6.15
530.869	6.24
531.067	6.35
531.265	6.44
531.463	6.52
531.661	6.54
531.859	6.54
532.057	6.58
532.255	6.6
532.454	6.63
532.652	6.55
532.85	6.53
533.048	6.46
533.246	6.5
533.444	6.58
533.642	6.54
533.84	6.57
534.038	6.63
534.236	6.68
534.434	6.73
534.632	6.72
534.83	6.79
535.027	6.84
535.225	6.89
535.423	6.82
535.621	6.83
535.819	6.9
536.017	7.03
536.215	7.06
536.412	7.12
536.61	7.27
536.808	7.35
537.006	7.51
537.203	7.66
537.401	7.82
537.599	8.11
537.797	8.28
537.994	8.5
538.192	8.7
538.39	8.98
538.587	9.25
538.785	9.48
538.983	9.82
539.18	10.02
539.378	10.33
539.575	10.61
539.773	10.74
539.97	10.86
540.168	11.02
540.366	11.21
540.563	11.27
540.761	11.38
540.958	11.44
541.155	11.5
541.353	11.61
541.55	11.68
541.748	11.74
541.945	11.83
542.143	11.98
542.34	12.09
542.537	12.16
542.735	12.36
542.932	12.45
543.129	12.7
543.327	13.1
543.524	13.62
543.721	14.28
543.919	15.07
544.116	16.03
544.313	16.94
544.51	17.92
544.708	18.92
544.905	19.89
545.102	20.96
545.299	21.75
545.496	22.27
545.693	22.56
545.891	22.54
546.088	22.34
546.285	21.8
546.482	21.29
546.679	20.65
546.876	19.98
547.073	19.19
547.27	18.47
547.467	17.76
547.664	17.11
547.861	16.53
548.058	15.95
548.255	15.54
548.452	15.27
548.649	14.93
548.846	14.7
549.043	14.56
549.24	14.36
549.437	14
549.633	13.77
549.83	13.55
550.027	13.3
550.224	13.17
550.421	12.9
550.618	12.55
550.814	12.26
551.011	11.88
551.208	11.57
551.405	11.36
551.601	11.13
551.798	10.99
551.995	10.75
552.191	10.5
552.388	10.32
552.585	10.13
552.781	10.06
552.978	9.99
553.175	9.96
553.371	9.8
553.568	9.67
553.764	9.63
553.961	9.55
554.157	9.53
554.354	9.57
554.55	9.41
554.747	9.36
554.943	9.22
555.14	9.18
555.336	9.05
555.533	9.04
555.729	9.09
555.926	9.11
556.122	9.1
556.318	9.06
556.515	8.96
556.711	9.04
556.907	8.84
557.104	8.83
557.3	8.82
557.496	8.96
557.693	9.03
557.889	8.98
558.085	9
558.281	8.92
558.478	8.91
558.674	8.83
558.87	8.85
559.066	9.02
559.262	9.1
559.459	9.03
559.655	8.96
559.851	8.97
560.047	9.01
560.243	8.94
560.439	8.98
560.635	8.93
560.831	8.98
561.027	8.84
561.223	8.88
561.419	8.76
561.615	8.77
561.811	8.79
562.007	8.75
562.203	8.58
562.399	8.66
562.595	8.63
562.791	8.57
562.987	8.63
563.183	8.68
563.379	8.63
563.575	8.8
563.771	8.76
563.966	8.62
564.162	8.48
564.358	8.51
564.554	8.33
564.75	8.31
564.945	8.33
565.141	8.24
565.337	8.17
565.533	8.21
565.728	8.05
565.924	8.24
566.12	8.26
566.315	8.28
566.511	8.36
566.707	8.47
566.902	8.44
567.098	8.42
567.293	8.46
567.489	8.49
567.684	8.42
567.88	8.51
568.076	8.4
568.271	8.52
568.467	8.59
568.662	8.48
568.858	8.46
569.053	8.43
569.248	8.6
569.444	8.51
569.639	8.55
569.835	8.51
570.03	8.47
570.225	8.38
570.421	8.2
570.616	8.15
570.812	8.2
571.007	8.23
571.202	8.26
571.397	8.16
571.593	8.19
571.788	8.06
571.983	8.09
572.178	8.12
572.374	8.05
572.569	8.06
572.764	8.12
572.959	8.13
573.154	8.02
573.35	8.08
573.545	7.98
573.74	8.04
573.935	8.21
574.13	8.37
574.325	8.45
574.52	8.67
574.715	8.91
574.91	9.06
575.105	9.22
575.3	9.39
575.495	9.72
575.69	9.94
575.885	10.24
576.08	10.5
576.275	10.76
576.47	10.92
576.665	11.15
576.86	11.32
577.055	11.45
577.25	11.74
577.444	12.01
577.639	12.13
577.834	12.47
578.029	12.75
578.224	12.8
578.418	12.97
578.613	13.24
578.808	13.36
579.003	13.5
579.197	13.63
579.392	13.58
579.587	13.75
579.781	13.56
579.976	13.43
580.171	13.13
580.365	13.17
580.56	13.02
580.755	13.05
580.949	12.88
581.144	12.86
581.338	12.79
581.533	12.95
581.727	12.88
581.922	12.95
582.116	13.18
582.311	13.38
582.505	13.45
582.7	13.53
582.894	13.6
583.089	13.76
583.283	13.71
583.478	13.86
583.672	13.7
583.866	13.66
584.061	13.59
584.255	13.55
584.449	13.53
584.644	13.49
584.838	13.68
585.032	13.71
585.226	13.95
585.421	14.2
585.615	14.39
585.809	14.74
586.003	14.95
586.198	15.26
586.392	15.39
586.586	15.69
586.78	15.95
586.974	15.92
587.168	15.78
587.363	15.5
587.557	15.22
587.751	14.96
587.945	14.62
588.139	14.27
588.333	13.84
588.527	13.54
588.721	13.09
588.915	12.88
589.109	12.66
589.303	12.54
589.497	12.45
589.691	12.29
589.885	12.16
590.079	12.18
590.273	12.29
590.466	12.61
590.66	12.78
590.854	13.03
591.048	13.16
591.242	13.2
591.436	13.46
591.629	13.73
591.823	14.16
592.017	14.5
592.211	14.7
592.404	14.84
592.598	14.74
592.792	14.7
592.986	14.5
593.179	14.19
593.373	14.17
593.567	13.84
593.76	13.6
593.954	13.3
594.147	12.94
594.341	12.58
594.535	12.29
594.728	12.1
594.922	11.86
595.115	11.8
595.309	11.71
595.502	11.42
595.696	11.2
595.889	11.05
596.083	11.04
596.276	10.89
596.47	10.93
596.663	10.92
596.856	10.97
597.05	10.95
597.243	11.02
597.437	11.13
597.63	11.27
597.823	11.68
598.017	11.8
598.21	11.89
598.403	12.2
598.596	12.36
598.79	12.5
598.983	12.78
599.176	13.06
599.369	13.05
599.563	12.94
599.756	12.99
599.949	12.77
600.142	12.7
600.335	12.6
600.528	12.36
600.722	12.38
600.915	12.28
601.108	12.03
601.301	11.79
601.494	11.78
601.687	11.75
601.88	11.68
602.073	11.36
602.266	11.24
602.459	11.15
602.652	11.13
602.845	10.94
603.038	10.93
603.231	10.74
603.424	10.55
603.617	10.48
603.809	10.4
604.002	10.45
604.195	10.54
604.388	10.61
604.581	10.63
604.774	10.69
604.966	10.62
605.159	10.62
605.352	10.8
605.545	10.99
605.737	11.02
605.93	11.27
606.123	11.29
606.316	11.59
606.508	11.76
606.701	12.13
606.894	12.28
607.086	12.81
607.279	13.18
607.471	13.79
607.664	14.37
607.857	15.2
608.049	16.18
608.242	17.57
608.434	19.27
608.627	21.44
608.819	24.04
609.012	27.09
609.204	30.4
609.397	34.08
609.589	38.07
609.782	42.5
609.974	46.78
610.166	51.42
610.359	55.77
610.551	59.73
610.743	63.15
610.936	66.08
611.128	68.22
611.32	69.71
611.513	70.5
611.705	70.04
611.897	69
612.09	67.78
612.282	65.65
612.474	63.2
612.666	60.89
612.858	58.37
613.051	55.9
613.243	53.57
613.435	51.27
613.627	49.07
613.819	47.37
614.011	45.58
614.203	43.28
614.395	41.39
614.588	39.7
614.78	37.53
614.972	35.53
615.164	33.57
615.356	31.88
615.548	30.44
615.74	28.94
615.932	27.44
616.124	26.08
616.315	25.14
616.507	24
616.699	22.89
616.891	21.95
617.083	21.11
617.275	20.36
617.467	19.5
617.659	18.58
617.85	17.94
618.042	17.54
618.234	17.12
618.426	16.68
618.618	16.21
618.809	15.86
619.001	15.71
619.193	15.54
619.384	15.56
619.576	15.54
619.768	15.63
619.959	15.65
620.151	15.68
620.343	15.46
620.534	15.48
620.726	15.73
620.917	15.85
621.109	15.98
621.301	16.13
621.492	16.05
621.684	16.16
621.875	16.05
622.067	16.24
622.258	16.52
622.45	16.83
622.641	17.08
622.832	17.14
623.024	17.17
623.215	17.21
623.407	17.38
623.598	17.26
623.789	17.36
623.981	17.55
624.172	17.48
624.363	17.31
624.555	17.19
624.746	17.01
624.937	16.75
625.129	16.73
625.32	16.59
625.511	16.18
625.702	15.99
625.893	15.85
626.085	15.69
626.276	15.47
626.467	15.34
626.658	15.18
626.849	15.08
627.04	15.25
627.231	15.17
627.422	15.24
627.614	15.65
627.805	15.73
627.996	16.02
628.187	16.24
628.378	16.72
628.569	17.02
628.76	17.37
628.951	18.05
629.142	18.48
629.332	19.06
629.523	19.59
629.714	19.97
629.905	20.64
630.096	20.96
630.287	21.25
630.478	21.18
630.669	21.22
630.859	21.17
631.05	20.6
631.241	20.12
631.432	19.36
631.623	18.66
631.813	18.15
632.004	17.4
632.195	16.75
632.385	16.12
632.576	15.52
632.767	15
632.957	14.47
633.148	14.28
633.339	14.2
633.529	14.1
633.72	13.94
633.91	13.46
634.101	13.5
634.292	13.36
634.482	13.06
634.673	12.92
634.863	12.79
635.054	12.9
635.244	12.81
635.435	12.64
635.625	12.62
635.815	12.47
636.006	12.53
636.196	12.25
636.387	12.1
636.577	12.37
636.767	12.19
636.958	12.2
637.148	12.02
637.338	11.9
637.529	11.83
637.719	11.7
637.909	11.69
638.099	11.8
638.29	11.68
638.48	11.76
638.67	11.33
638.86	11.55
639.05	11.54
639.241	11.78
639.431	11.73
639.621	11.66
639.811	11.64
640.001	11.64
640.191	11.5
640.381	11.61
640.571	11.35
640.761	11.88
640.951	11.79
641.141	11.67
641.331	11.58
641.521	11.59
641.711	11.34
641.901	11.35
642.091	11.23
642.281	11.34
642.471	11.43
642.661	11.4
642.851	11.24
643.041	11.62
643.231	11.81
643.42	11.75
643.61	11.84
643.8	12.02
643.99	12.12
644.18	12.33
644.369	12.06
644.559	12.02
644.749	12.22
644.939	12.07
645.128	11.77
645.318	11.69
645.508	11.7
645.697	11.62
645.887	11.53
646.076	11.3
646.266	11.43
646.456	11.76
646.645	11.82
646.835	11.53
647.024	11.57
647.214	11.63
647.403	11.57
647.593	11.62
647.782	11.47
647.972	12.07
648.161	12.57
648.351	12.68
648.54	12.55
648.73	12.8
648.919	13.06
649.108	13.14
649.298	13.1
649.487	13.44
649.677	13.63
649.866	14.1
650.055	13.97
650.244	13.98
650.434	13.9
650.623	14.08
650.812	13.83
651.002	13.97
651.191	13.8
651.38	14.02
651.569	14.03
651.758	13.68
651.947	13.37
652.137	13.16
652.326	12.92
652.515	12.8
652.704	12.96
652.893	12.92
653.082	12.64
653.271	12.86
653.46	12.56
653.649	12.45
653.838	12.38
654.027	12.24
654.216	12.12
654.405	12.12
654.594	12.02
654.783	11.68
654.972	11.56
655.161	11.75
655.35	11.71
655.539	11.89
655.728	11.53
655.916	11.86
656.105	12.23
656.294	12.18
656.483	11.79
656.672	11.83
656.86	11.78
657.049	11.87
657.238	11.91
657.427	11.76
657.615	11.61
657.804	11.53
657.993	11.24
658.181	10.92
658.37	10.85
658.559	10.94
658.747	10.89
658.936	10.83
659.125	10.67
659.313	10.44
659.502	10.52
659.69	10.67
659.879	11.07
660.067	10.99
660.256	10.95
660.444	11.28
660.633	11.75
660.821	11.97
661.01	12.22
661.198	12.68
661.387	13.06
661.575	13.16
661.763	13.26
661.952	13.05
662.14	13.47
662.328	13.82
662.517	13.84
662.705	13.59
662.893	13.82
663.082	13.54
663.27	13.37
663.458	13.38
663.646	13.47
663.834	13.31
664.023	13.44
664.211	13.31
664.399	12.81
664.587	12.51
664.775	12.43
664.963	11.79
665.152	12.01
665.34	11.97
665.528	11.77
665.716	11.92
665.904	12.12
666.092	11.7
666.28	12.08
666.468	12.46
666.656	12.52
666.844	12.63
667.032	12.89
667.22	13.4
667.408	13.31
667.596	13.55
667.784	13.34
667.971	13.24
668.159	13.55
668.347	13.13
668.535	12.88
668.723	12.72
668.911	12.52
669.098	12.59
669.286	11.96
669.474	11.86
669.662	11.49
669.849	11.58
670.037	11.26
670.225	11.13
670.413	11.12
670.6	11.29
670.788	11.48
670.976	11.63
671.163	11.36
671.351	11.58
671.538	11.91
671.726	12.13
671.913	11.91
672.101	12.41
672.289	12.53
672.476	12.92
672.664	13.06
672.851	13.14
673.039	13.13
673.226	13.42
673.413	13.62
673.601	13.38
673.788	13.47
673.976	13.48
674.163	13.5
674.35	13.41
674.538	13.07
674.725	13.34
674.912	13.11
675.1	13.24
675.287	12.92
675.474	12.84
675.662	12.92
675.849	12.83
676.036	12.81
676.223	12.49
676.411	12.69
676.598	12.86
676.785	12.49
676.972	12.64
677.159	12.47
677.346	12.6
677.533	12.22
677.721	12.25
677.908	12.24
678.095	12.5
678.282	12.37
678.469	12.08
678.656	11.79
678.843	11.67
679.03	11.6
679.217	11.55
679.404	11.61
679.591	11.91
679.778	11.86
679.964	11.95
680.151	11.7
680.338	11.98
680.525	12.23
680.712	12.3
680.899	12.14
681.086	12.22
681.272	12.62
681.459	12.34
681.646	12.24
681.833	12.55
682.02	12.58
682.206	12.74
682.393	12.56
682.58	12.28
682.766	12.68
682.953	13.31
683.14	13.35
683.326	13.09
683.513	13.47
683.7	13.31
683.886	12.92
684.073	12.78
684.259	12.66
684.446	12.87
684.632	13.21
684.819	12.74
685.005	12.36
685.192	12.49
685.378	12.57
685.565	12.8
685.751	13.09
685.938	13.4
686.124	13.99
686.31	14.22
686.497	14.33
686.683	14.16
686.87	14.68
687.056	15.01
687.242	15.2
687.429	15.59
687.615	15.26
687.801	15.36
687.987	15.31
688.174	14.96
688.36	15.19
688.546	14.95
688.732	15.2
688.918	15.14
689.105	15.28
689.291	15.24
689.477	14.61
689.663	14.72
689.849	14.65
690.035	14.37
690.221	14.12
690.407	13.65
690.593	13.54
690.779	13.2
690.965	12.96
691.151	12.56
691.337	12.47
691.523	12.77
691.709	12.79
691.895	12.95
692.081	13
692.267	13.52
692.453	13.82
692.639	14.45
692.825	14.91
693.011	14.94
693.196	14.93
693.382	14.85
693.568	14.87
693.754	15.11
693.94	14.91
694.125	15.11
694.311	14.6
694.497	14.1
694.682	14.03
694.868	13.81
695.054	13.86
695.239	14.14
695.425	13.75
695.611	13.62
695.796	13.57
695.982	13.34
696.168	13.33
696.353	13.3
696.539	13.23
696.724	12.7
696.91	12.5
697.095	12.26
697.281	11.99
697.466	12.36
697.652	12.14
697.837	11.78
698.023	11.69
698.208	11.53
698.393	11.7
698.579	11.93
698.764	12.16
698.949	12.08
699.135	12.03
699.32	12.04
699.505	11.76
699.691	11.9
699.876	12.33
700.061	12.39
700.246	12.49
700.432	12.48
700.617	12.58
700.802	12.56
700.987	12.94
701.172	12.88
701.358	12.9
701.543	13.09
701.728	13
701.913	12.66
702.098	13.45
702.283	13.34
702.468	13.47
702.653	13.87
702.838	13.96
703.023	13.7
703.208	14.32
703.393	14.72
703.578	15.31
703.763	15.46
703.948	16.1
704.133	16.05
704.318	16.9
704.503	17.34
704.688	17.6
704.873	17.78
705.057	18.6
705.242	19.06
705.427	20.12
705.612	20.24
705.797	21.35
705.981	22
706.166	22.58
706.351	23.14
706.536	23.65
706.72	23.87
706.905	24.59
707.09	24.98
707.274	25.13
707.459	24.88
707.644	25.22
707.828	25.36
708.013	25.23
708.197	25.3
708.382	24.89
708.567	24.76
708.751	24.66
708.936	23.76
709.12	22.87
709.305	22.84
709.489	22.23
709.673	21.82
709.858	21.42
710.042	20.99
710.227	20.78
710.411	20.69
710.596	20.25
710.78	20.42
710.964	20.81
711.149	21.27
711.333	21.22
711.517	21.43
711.702	21.43
711.886	21.12
712.07	20.98
712.254	20.49
712.438	20.27
712.623	20.12
712.807	19.21
712.991	19.25
713.175	18.76
713.359	18.69
713.544	17.72
713.728	17.17
713.912	17.25
714.096	17.03
714.28	16.62
714.464	16.39
714.648	15.86
714.832	15.15
715.016	14.56
715.2	14.1
715.384	13.28
715.568	13.71
715.752	14.21
715.936	13.38
716.12	12.98
716.304	12.75
716.488	12.74
716.671	12.77
716.855	13.68
717.039	13.78
717.223	14
717.407	14.05
717.59	13.72
717.774	13.58
717.958	14.44
718.142	14.7
718.325	14.26
718.509	14.08
718.693	13.87
718.877	13.32
719.06	12.97
719.244	12.72
719.428	12.76
719.611	12.94
719.795	12.37
719.978	11.81
720.162	11.35
720.345	11.97
720.529	11.84
720.713	12.24
720.896	12.08
721.08	12.08
721.263	12.57
721.446	12.68
721.63	12.4
721.813	12.35
721.997	12.69
722.18	13.72
722.364	13.34
722.547	13.41
722.73	13.19
722.914	13.45
723.097	13.44
723.28	13.1
723.464	13.19
723.647	13.45
723.83	13.75
724.013	13.02
724.197	12.24
724.38	12.85
724.563	12.61
724.746	12.97
724.929	13.28
725.112	13.21
725.296	13.9
725.479	13.67
725.662	14.41
725.845	14.08
726.028	14.71
726.211	14.98
726.394	14.52
726.577	15.19
726.76	14.4
726.943	14.39
727.126	14.83
727.309	14.64
727.492	15.04
727.675	14.16
727.858	14.61
728.041	14
728.224	13.69
728.407	13.91
728.589	13.89
728.772	14.49
728.955	14.42
729.138	14.13
729.321	14.02
729.503	14.08
729.686	14.19
729.869	14.25
730.052	14.81
730.234	14.67
730.417	15.2
730.6	14.71
730.782	14.9
730.965	14.87
731.148	14.9
731.33	14.68
731.513	14.46
731.695	14.91
731.878	14.44
732.061	14.4
732.243	14.97
732.426	14.44
732.608	14.81
732.791	14.37
732.973	14.55
733.156	14.19
733.338	14.27
733.52	14.33
733.703	13.31
733.885	13.5
734.068	13.49
734.25	13.19
734.432	13.11
734.615	13.13
734.797	12.72
734.979	12.51
735.162	13.04
735.344	13.2
735.526	13.06
735.708	13.76
735.891	13.6
736.073	13.61
736.255	13.53
736.437	14.11
736.619	13.82
736.802	15.09
736.984	15.03
737.166	14.67
737.348	14.24
737.53	14.65
737.712	14.78
737.894	15.32
738.076	15.1
738.258	15.34
738.44	15.5
738.622	15.73
738.804	15.2
738.986	15.18
739.168	15.42
739.35	15.88
739.532	15.77
739.714	15.79
739.896	15.24
740.078	15.41
740.259	15.37
740.441	15.51
740.623	15.32
740.805	14.83
740.987	14.96
741.168	15
741.35	14.93
741.532	15.09
741.714	14.91
741.895	15.71
742.077	15.78
742.259	15.88
742.44	14.96
742.622	15.4
742.804	16.24
742.985	16.96
743.167	17.67
743.348	17.97
743.53	17.6
743.711	17.75
743.893	17.29
744.075	17.51
744.256	17.54
744.438	17.92
744.619	17.24
744.8	16.48
744.982	15.88
745.163	14.97
745.345	14.15
745.526	14.07
745.707	14.82
745.889	14.47
746.07	14.61
746.252	14.44
746.433	14.68
746.614	14.61
746.795	14.26
746.977	14.72
747.158	14.78
747.339	15.12
747.52	15.76
747.702	14.89
747.883	15.26
748.064	15.23
748.245	15.88
748.426	15.23
748.607	15.55
748.788	16.24
748.97	16.2
749.151	16.12
749.332	16.88
749.513	16.99
749.694	17.91
749.875	17.34
750.056	16.95
750.237	16.07
750.418	16.87
750.599	15.99
750.78	16.19
750.96	15.65
751.141	15.58
751.322	14.96
751.503	14.22
751.684	13.87
751.865	14.33
752.046	14.57
752.226	15.11
752.407	15.22
752.588	16.65
752.769	16.39
752.949	17.03
753.13	18
753.311	18.64
753.492	19.24
753.672	19.24
753.853	18.74
754.034	18.76
754.214	18.85
754.395	17.78
754.575	17.12
754.756	17.02
754.937	16.61
755.117	15.35
755.298	14.68
755.478	14.09
755.659	14.05
755.839	14.48
756.02	14.29
756.2	13.51
756.381	13.98
756.561	14.2
756.741	14.14
756.922	13.85
757.102	14.4
757.283	14.1
757.463	14.37
757.643	13.75
757.823	13.7
758.004	13.57
758.184	13.84
758.364	14.09
758.545	13.92
758.725	13.72
758.905	13.79
759.085	12.75
759.265	13.24
759.446	13.25
759.626	12.89
759.806	12.38
759.986	12.96
760.166	12.63
760.346	12.1
760.526	11.98
760.706	13.08
760.886	12.69
761.066	13.23
761.246	13.04
761.426	12.9
761.606	12.75
761.786	13.31
761.966	13.18
762.146	13.58
762.326	13.27
762.506	13.71
762.686	12.92
762.866	13.1
763.046	13.45
763.225	13.94
763.405	13.7
763.585	13.91
763.765	13.56
763.945	13.36
764.124	13.28
764.304	13.3
764.484	13.28
764.664	13.37
764.843	13.61
765.023	13.92
765.203	13.37
765.382	13.62
765.562	13.66
765.741	13.93
765.921	14.08
766.101	14.37
766.28	15.27
766.46	14.95
766.639	15.41
766.819	15.16
766.998	15.11
767.178	15.43
767.357	15.56
767.537	15.75
767.716	15.57
767.896	15.64
768.075	16.61
768.254	16.71
768.434	17.58
768.613	17.62
768.792	18.26
768.972	18.07
769.151	18.86
769.33	18.52
769.51	18.33
769.689	18.41
769.868	18.78
770.047	17.3
770.226	17.37
770.406	17.52
770.585	17.31
770.764	17
770.943	16.03
771.122	15.75
771.301	16.14
771.48	16.48
771.66	17.43
771.839	17.17
772.018	18.04
772.197	17.16
772.376	16.72
772.555	17.27
772.734	16.7
772.913	17.66
773.092	17.48
773.271	17.36
773.449	17.4
773.628	16.91
773.807	16.58
773.986	15.59
774.165	15.68
774.344	15.62
774.523	16.57
774.701	17.07
774.88	16.74
775.059	16.19
775.238	15.89
775.417	16.52
775.595	16.77
775.774	17.07
775.953	17.78
776.131	19.1
776.31	19.21
776.489	17.45
776.667	16.39
776.846	17.36
777.025	17.42
777.203	16.22
777.382	16.25
777.56	16.01
777.739	15.47
777.917	14.56
778.096	13.36
778.274	13.02
778.453	13.16
778.631	13.34
778.81	12.45
778.988	13.03
779.166	15.28
779.345	14.65
779.523	13.91
779.702	14.87
779.88	15.39
780.058	15.81
780.237	14.69
780.415	16.17
780.593	17.71
780.771	18.55
780.95	18.17
781.128	17.37
781.306	17.66
781.484	17.37
781.662	16.87
781.841	17.68
782.019	17.6
782.197	19.2
782.375	17.37
782.553	16.61
782.731	15.92
782.909	15.01
783.087	15.37
783.265	15.03
783.443	16.81
783.621	16.03
783.799	16.61
783.977	16.65
784.155	15.68
784.333	16.78
784.511	17.21
784.689	16.84
784.867	17.55
785.045	17.96
785.223	17.44
785.4	16.28
785.578	17.26
785.756	15.66
785.934	15.22
786.112	15.69
786.289	13.68
786.467	13.54
786.645	14.15
786.823	13.54
787	13.95
787.178	15.01
787.356	15.71
787.533	14.59
787.711	15.08
787.889	17.03
788.066	16.34
788.244	17.02
788.421	16.01
788.599	15.65
788.776	15.78
788.954	15.88
789.131	14.86
789.309	14.69
789.486	16.64
789.664	16.91
789.841	15.29
790.019	15.37
790.196	15.58
790.373	16.78
790.551	17.43
790.728	17.53
790.906	16.71
791.083	17.72
791.26	17.46
791.437	15.57
791.615	14.32
791.792	13.44
791.969	12.59
792.146	14.71
792.324	14.68
792.501	14.42
792.678	14.82
792.855	14.63
793.032	13.58
793.209	13.18
793.387	12.02
793.564	11.67
793.741	14.52
793.918	14.04
794.095	12.71
794.272	11.91
794.449	11.9
794.626	12.03
794.803	12.61
794.98	11.88
795.157	12.86
795.334	13.39
795.511	14.54
795.688	12.08
795.864	13.29
796.041	14.33
796.218	14.39
796.395	14.84
796.572	14.6
796.749	13.28
796.925	14.21
797.102	15.64
797.279	15.5
797.456	15.52
797.632	14.87
797.809	14.96
797.986	13.96
798.162	14.5
798.339	12
798.516	12.09
798.692	12.06
798.869	13.39
799.046	12.16
799.222	13.17
799.399	12.74
799.575	15.43
799.752	16.03
799.928	16.7
800.105	16.38
800.281	18.82
800.458	17.77
800.634	19.82
800.811	18.58
800.987	19.06
801.163	19.35
801.34	19.09
801.516	18.05
801.692	17.7
801.869	16.52
802.045	15.26
802.221	15.04
802.398	16.42
802.574	15.57
802.75	16.88
802.926	15.44
803.103	14.91
803.279	15.11
803.455	14.23
803.631	13.18
803.807	13.54
803.983	16.23
804.16	16.11
804.336	16.1
804.512	15.78
804.688	14.65
804.864	15.06
805.04	14.8
805.216	14.88
805.392	15.52
805.568	17.66
805.744	18.18
805.92	17.11
806.096	15.72
806.272	15.35
806.448	13.51
806.623	13.66
806.799	12.95
806.975	13.7
807.151	13.51
807.327	13.66
807.503	12.11
807.678	12.59
807.854	13.42
808.03	14.19
808.206	14.6
808.381	15.13
808.557	15.19
808.733	15.02
808.908	15.04
809.084	16.99
809.26	17.56
809.435	17.56
809.611	16.91
809.787	16.17
809.962	16.24
810.138	16.71
810.313	17.55
810.489	17.55
810.664	17.66
810.84	18.75
811.015	16.57
811.191	15.44
811.366	15.65
811.542	14.8
811.717	14.25
811.892	14.32
812.068	12.38
812.243	11.59
812.419	11.27
812.594	12.42
812.769	11.39
812.944	11.48
813.12	12.52
813.295	12.39
813.47	13.35
813.645	13.63
813.821	12.32
813.996	13.83
814.171	14.94
814.346	14.71
814.521	15.32
814.697	14.31
814.872	16.25
815.047	15.91
815.222	13.67
815.397	11.76
815.572	12.73
815.747	12.96
815.922	12.06
816.097	11.04
816.272	9.11
816.447	7.49
816.622	9.25
816.797	8.03
816.972	6.46
817.147	9.76
817.322	10.77
817.496	9.98
817.671	11.18
817.846	12.5
818.021	12.12
818.196	13.83
818.371	15.81
818.545	14.34
818.72	13.64
818.895	14.74
819.069	14.18
819.244	14.08
819.419	14.26
819.594	14.12
819.768	13.48
819.943	14.12
820.117	13.63
820.292	13.1
820.467	13.34
820.641	13.49
820.816	13.69
820.99	13.8
821.165	13.69
821.339	13.3
821.514	12.61
821.688	13.24
821.863	12.9
822.037	13.03
822.212	12.97
822.386	12.9
822.56	13.1
822.735	13.08
822.909	12.72
823.084	12.54
823.258	12.49
823.432	12.84
823.606	12.54
823.781	12.4
823.955	12.49
824.129	12.2
824.303	12.55
824.478	12.49
824.652	12.69
824.826	13.41
825	14.27
825.174	14.82
825.348	15.16
825.523	14.96
825.697	15.52
825.871	15.4
826.045	15.28
826.219	14.58
826.393	14.52
826.567	14.19
826.741	13.57
826.915	12.41
827.089	12.57
827.263	12.49
827.437	12.34
827.611	13.05
827.784	12.83
827.958	13.4
828.132	13.68
828.306	13.81
828.48	13.27
828.654	13.67
828.827	15
829.001	14.27
829.175	13.76
829.349	13.65
829.522	12.63
829.696	13.71
829.87	13.56
830.044	13.45
830.217	12.28
830.391	11.93
830.565	10.99
830.738	10.4
830.912	11.21
831.085	11.74
831.259	14.59
831.432	14.36
831.606	12.75
831.779	12.67
831.953	12.79
832.126	14.22
832.3	15.42
832.473	16.6
832.647	15.55
832.82	14.92
832.994	15.61
833.167	14.2
833.34	14.12
833.514	13.88
833.687	13.54
833.86	14.22
834.034	14.03
834.207	14.1
834.38	13.7
834.553	13.21
834.727	14.47
834.9	13.79
835.073	13.15
835.246	13.8
835.419	14.74
835.593	14.3
835.766	13.78
835.939	12.94
836.112	12.88
836.285	13.09
836.458	12.72
836.631	11.91
836.804	11.28
836.977	11.77
837.15	11.97
837.323	11.94
837.496	11.81
837.669	11.35
837.842	11.39
838.015	11.12
838.188	8.6
838.361	9.82
838.533	6.7
838.706	8.25
838.879	8.43
839.052	5.76
839.225	4.03
839.398	6.83
839.57	4.62
839.743	5.63
839.916	5.55
840.088	5.2
840.261	5.9
840.434	9.2
840.607	10.03
840.779	9.83
840.952	10.03
841.124	9.88
841.297	8.74
841.47	8.71
841.642	8.55
841.815	7.36
841.987	10.47
842.16	11.39
842.332	9.69
842.505	10.9
842.677	12.11
842.85	12.59
843.022	13.5
843.194	13.12
843.367	13.11
843.539	14.36
843.712	13.65
843.884	12.3
844.056	10.7
844.229	11.69
844.401	5.9
844.573	3.69
844.745	7.03
844.918	7.67
845.09	9.08
845.262	12.24
845.434	10.4
845.606	7.97
845.779	7.52
845.951	5.17
846.123	4.02
846.295	8.01
846.467	8.11
846.639	3.74
846.811	2.26
846.983	-1.92
847.155	-2.67
847.327	-1.27
847.499	3.87
847.671	1.11
847.843	4.96
848.015	4.18
848.187	-1.43
848.359	3.8
848.531	7.62
848.703	10.51
848.875	15.92
849.047	12.3
849.218	10.41
849.39	12.55
849.562	20.73
849.734	19.03
849.905	18.46
850.077	19.05
850.249	14.05
850.421	15.87
850.592	11.38
850.764	11.3
850.936	14.52
851.107	14.74
851.279	16.46
851.451	14.41
851.622	12.62
851.794	9.61
851.965	10.47
852.137	8.7
852.308	6.54
852.48	5.92
852.651	0.71
852.823	1.02
852.994	-0.63
853.166	-5.18
853.337	-8.54
853.509	-10.65
853.68	-9.45
853.851	-7.27
854.023	-3.82
854.194	-9.01
854.365	-5.77
854.537	1.75
854.708	-1.03
854.879	5.06
855.05	6.45
855.222	-1.39
855.393	0.19
855.564	3.52
855.735	4.64
855.906	-3.12
856.078	5.69
856.249	4.22
856.42	0.93
856.591	4.34
856.762	-5.93
856.933	-6.61
857.104	1.56
857.275	2.36
857.446	4.9
857.617	-4.44
857.788	0.14
857.959	-2.58
858.13	-2.38
858.301	-2.98
858.472	-0.35
858.643	7.72
858.814	4.6
858.985	-1.31
859.155	-2.11
859.326	-2.88
859.497	1.65
859.668	2.64
859.839	3.71
860.009	-3
860.18	1.88
860.351	-3.87
860.522	-2.92
860.692	6.6
860.863	12.25
861.034	12.96
861.204	11.01
861.375	14.48
861.546	14.07
861.716	11.47
861.887	15.39
862.057	12.84
862.228	14.67
862.398	7.41
862.569	10.71
862.739	12.86
862.91	10.23
863.08	12.82
863.251	5.41
863.421	13.67
863.592	10.78
863.762	13.8
863.932	14.75
864.103	11
864.273	13.46
864.443	4.94
864.614	2
864.784	10.22
864.954	6.57
865.125	3.33
865.295	-4.79
865.465	5.93
865.635	-2.39
865.805	-6.96
865.976	-2.25
866.146	-3.43
866.316	-5.14
866.486	-1.43
866.656	-6.23
866.826	-5.53
866.996	11.09
867.166	16.37
867.336	9.89
867.506	15.77
867.676	23.85
867.846	21.7
868.016	21.91
868.186	24.21
868.356	27.01
868.526	28.67
868.696	24.76
868.866	17.92
869.036	11.98
869.206	11.7
869.376	12.93
869.545	2.63
869.715	1.1
869.885	1.27
870.055	-6.76
870.224	-0.5
870.394	-5.65
870.564	2.67
870.734	3.79
870.903	5.91
871.073	3.49
871.243	7.86
871.412	11.76
871.582	10.87
871.751	8.04
871.921	12
872.091	2.96
872.26	4.58
872.43	-0.67
872.599	3.46
872.769	6.93
872.938	12.59
873.108	9.51
873.277	13.03
873.446	11.66
873.616	12.81
873.785	14.76
873.955	10.35
874.124	10.54
874.293	10.56
874.463	6.87
874.632	6.6
874.801	6.74
874.971	4.51
875.14	-3.11
875.309	-6.2
875.478	-6.24
875.647	-8.18
875.817	-2.88
875.986	-4.18
876.155	-5.92
876.324	-1.71
876.493	-4.13
876.662	-3.18
876.831	-0.98
877	0.63
877.17	3.57
877.339	9.02
877.508	10.72
877.677	11.3
877.846	14.41
878.015	13.84
878.184	12.27
878.352	9.49
878.521	9.83
878.69	11.45
878.859	10.55
879.028	11.65
879.197	9.43
879.366	7.27
879.534	6.24
879.703	7.8
879.872	9.99
880.041	10.93
880.21	12.54
880.378	13.41
880.547	12.18
880.716	12.77
880.884	13.47
881.053	14.37
881.222	15.2
881.39	15.82
881.559	14.95
881.727	14.87
881.896	14.71
882.065	14.13
882.233	12.69
882.402	12.04
882.57	12.15
882.739	12.25
882.907	11.46
883.076	11.04
883.244	11.43
883.412	12.14
883.581	12.33
883.749	11.58
883.918	12.02
884.086	12.44
884.254	13.54
884.423	12.89
884.591	12.53
884.759	13.02
884.927	13.85
885.096	13.96
885.264	11.15
885.432	9.13
885.6	8.85
885.769	9.27
885.937	12.2
886.105	9.6
886.273	11.49
886.441	13.8
886.609	12.85
886.777	13.82
886.945	11.58
887.113	13.35
887.281	13.69
887.449	15.62
887.617	15.61
887.785	11.15
887.953	13.91
888.121	15.3
888.289	11.55
888.457	15.44
888.625	7.38
888.793	5.88
888.961	6.49
889.129	9.69
889.296	13.6
889.464	11.35
889.632	14.32
889.8	13.88
889.967	10.4
890.135	13.33
