Data from 2938729__Reflection_03.txt Node
Date: Sun Mar 15 19:07:06 EDT 2015
User: robert
Spectrometer: USB4E03002
Autoset integration time: false
Trigger mode: 4
Integration Time (sec): 1.000000E-1
Scans to average: 10
Electric dark correction enabled: false
Nonlinearity correction enabled: false
Boxcar width: 5
Stray light correction enabled: false
XAxis mode: Wavelengths
Stop averaging: false
Number of Pixels in Spectrum: 3648
>>>>>Begin Spectral Data<<<<<
177.575	-45.81
177.794	-4.74
178.014	-56.12
178.233	-75.49
178.452	-76.08
178.672	-34.87
178.891	-36.18
179.11	-53.63
179.33	-310.14
179.549	-1478.57
179.768	-467.74
179.987	-9.27
180.207	346.58
180.426	800
180.645	-50.62
180.864	5.17
181.084	41.09
181.303	64.5
181.522	60.98
181.741	66
181.96	25.81
182.179	59.11
182.398	53.87
182.618	34.07
182.837	52.75
183.056	91.41
183.275	72.57
183.494	90.89
183.713	79.64
183.932	107.26
184.151	95.55
184.37	86.36
184.589	66.32
184.808	62.6
185.027	77.59
185.246	99.66
185.465	65.45
185.684	83.01
185.903	30.83
186.122	-11.54
186.341	26.59
186.56	40
186.779	156.67
186.998	-136
187.216	1828.57
187.435	-151.11
187.654	-8200
187.873	20.6
188.092	15.47
188.311	-458.82
188.53	-455.56
188.748	757.69
188.967	429.82
189.186	330.33
189.405	374.07
189.623	260.71
189.842	301.82
190.061	680.95
190.28	200
190.498	170.42
190.717	72
190.936	123.96
191.154	130.45
191.373	-38.78
191.592	-33.33
191.81	33.46
192.029	31.43
192.248	56.29
192.466	42.38
192.685	30.25
192.904	43.73
193.122	10
193.341	-3.72
193.559	-17.47
193.778	60.86
193.996	56.96
194.215	110.13
194.433	119.4
194.652	16.22
194.87	800
195.089	-179.84
195.307	-470.77
195.526	-430.88
195.744	-103.43
195.963	-92.54
196.181	-109.85
196.399	-114.97
196.618	-217.19
196.836	1880
197.055	364.81
197.273	8.41
197.491	-11.85
197.71	-21.71
197.928	22.31
198.146	33.92
198.365	68.22
198.583	119.75
198.801	85.34
199.019	110.89
199.238	97.3
199.456	155.14
199.674	242.2
199.892	147.17
200.111	180.7
200.329	144.4
200.547	131.49
200.765	231.86
200.983	184.91
201.202	469.57
201.42	206.69
201.638	366.92
201.856	154.44
202.074	133.33
202.292	495.08
202.51	219.8
202.728	250
202.946	157.8
203.165	71.7
203.383	4.02
203.601	-8.16
203.819	-58.87
204.037	-42.37
204.255	-134.85
204.473	-281.13
204.691	-154.46
204.909	-60.77
205.127	-167.57
205.345	-221.01
205.562	-391.67
205.78	-93.38
205.998	1138.1
206.216	-170.68
206.434	-71.19
206.652	-3.31
206.87	-1.17
207.088	25.6
207.306	30.64
207.523	50.67
207.741	55.57
207.959	58.48
208.177	63.67
208.395	79.7
208.612	85.92
208.83	89.44
209.048	89.73
209.266	85.19
209.483	81.77
209.701	72.53
209.919	73.76
210.136	80
210.354	62.22
210.572	45.59
210.79	28.74
211.007	47.56
211.225	31.87
211.442	32.55
211.66	29.86
211.878	23.8
212.095	32
212.313	35.77
212.53	29.2
212.748	29.12
212.966	27.65
213.183	23.6
213.401	10.95
213.618	17.28
213.836	17.52
214.053	20.42
214.271	17.61
214.488	1.99
214.705	-0.6
214.923	-1.86
215.14	10.75
215.358	10.37
215.575	27.79
215.793	34.42
216.01	5
216.227	-67.76
216.445	-28.15
216.662	-13.16
216.879	8.27
217.097	4.35
217.314	8.7
217.531	11.34
217.749	-17.65
217.966	-31.23
218.183	-6.92
218.4	3.32
218.618	24.82
218.835	9.56
219.052	-19.27
219.269	27.72
219.487	29.37
219.704	72.08
219.921	83.01
220.138	96.36
220.355	100.74
220.572	81.54
220.79	77.68
221.007	69.37
221.224	79.35
221.441	78.88
221.658	71.47
221.875	61.94
222.092	47.37
222.309	45.85
222.526	39.67
222.743	34.54
222.96	40.29
223.177	35.94
223.394	30.61
223.611	36.97
223.828	34.82
224.045	26.92
224.262	30.82
224.479	26.29
224.696	24.21
224.913	20.07
225.13	19.37
225.347	11.06
225.564	10.19
225.781	14.09
225.997	8.97
226.214	10.17
226.431	10.89
226.648	9.58
226.865	12.42
227.082	12.19
227.298	11.88
227.515	12.51
227.732	11.78
227.949	11.76
228.165	9.18
228.382	8.48
228.599	8.42
228.816	6.7
229.032	7.09
229.249	6.01
229.466	6.35
229.682	5.62
229.899	4.6
230.116	6.01
230.332	4.97
230.549	4.41
230.765	3.36
230.982	2.87
231.199	4.34
231.415	2.87
231.632	2.67
231.848	0.44
232.065	0.6
232.281	1.5
232.498	-0.55
232.714	-0.86
232.931	1.84
233.147	3.01
233.364	3.64
233.58	4.59
233.797	5.84
234.013	5.89
234.23	7.24
234.446	9.74
234.662	9.89
234.879	10.44
235.095	12.17
235.312	11.92
235.528	13.11
235.744	12.1
235.961	10.65
236.177	9.52
236.393	10.61
236.61	7.33
236.826	5.2
237.042	3.95
237.258	3.47
237.475	2.88
237.691	0.48
237.907	0.95
238.123	0.55
238.339	2.01
238.556	2.45
238.772	1.41
238.988	3.6
239.204	4.77
239.42	4.14
239.636	4.35
239.853	2.86
240.069	3.45
240.285	2.27
240.501	2.45
240.717	1.23
240.933	2.67
241.149	2.14
241.365	1.51
241.581	1.59
241.797	2.13
242.013	1.71
242.229	2.45
242.445	2.97
242.661	3.48
242.877	3.06
243.093	3.32
243.309	2.84
243.525	3
243.741	3.17
243.957	2.66
244.173	2.37
244.388	2.72
244.604	2.22
244.82	1.73
245.036	1.47
245.252	2.06
245.468	2.37
245.683	2.05
245.899	2.75
246.115	3.05
246.331	2.88
246.547	2.76
246.762	2.57
246.978	2.46
247.194	2.48
247.409	2.59
247.625	2.59
247.841	2.9
248.057	2.92
248.272	2.76
248.488	2.71
248.703	2.86
248.919	3.35
249.135	3.31
249.35	4.02
249.566	3.92
249.782	4.18
249.997	3.9
250.213	3.17
250.428	3.34
250.644	3.5
250.859	2.9
251.075	3.69
251.29	3.33
251.506	3.41
251.721	2.43
251.937	3.02
252.152	2.86
252.368	3.17
252.583	2.88
252.798	3.29
253.014	1.71
253.229	2.52
253.445	2.99
253.66	3.73
253.875	5.19
254.091	6.02
254.306	4.92
254.521	4.36
254.737	4.44
254.952	3.75
255.167	2.39
255.383	5.19
255.598	4.93
255.813	2.5
256.028	1.83
256.244	0.16
256.459	0.01
256.674	1.46
256.889	1.44
257.104	0.9
257.32	1.33
257.535	1.81
257.75	1.86
257.965	2.33
258.18	2.29
258.395	1.84
258.61	1.86
258.826	2.18
259.041	2.06
259.256	2.24
259.471	2.49
259.686	2.81
259.901	2.68
260.116	2.35
260.331	2.11
260.546	2.4
260.761	2.5
260.976	2.44
261.191	2.23
261.406	2.48
261.621	2.48
261.836	2.71
262.05	2.53
262.265	2.62
262.48	2.93
262.695	3.05
262.91	2.89
263.125	3.18
263.34	3.51
263.555	3.87
263.769	3.02
263.984	3.41
264.199	2.4
264.414	1.92
264.629	2.36
264.843	2.18
265.058	1.44
265.273	1.51
265.488	1.98
265.702	1.67
265.917	1.26
266.132	1.55
266.346	1.16
266.561	1.63
266.776	2.12
266.99	1.68
267.205	1.52
267.42	1.92
267.634	1.81
267.849	1.58
268.063	1.64
268.278	1.85
268.492	0.98
268.707	0.77
268.922	1.14
269.136	0.98
269.351	0.93
269.565	0.55
269.78	0.01
269.994	0.21
270.209	-0.19
270.423	0.07
270.637	0.57
270.852	1.34
271.066	1.41
271.281	1.24
271.495	1.41
271.709	1.58
271.924	2.02
272.138	2.65
272.353	2.38
272.567	2.39
272.781	2.58
272.996	1.96
273.21	1.83
273.424	1.82
273.638	1.9
273.853	1.85
274.067	1.92
274.281	2.08
274.495	2.16
274.71	1.84
274.924	2.1
275.138	1.94
275.352	1.93
275.566	2.01
275.781	2.13
275.995	2.35
276.209	1.68
276.423	1.55
276.637	1.32
276.851	0.92
277.065	1.7
277.279	1.49
277.493	1.25
277.707	1.7
277.921	1.46
278.135	1.4
278.349	1.55
278.563	1.84
278.777	2.43
278.991	1.99
279.205	2.25
279.419	1.97
279.633	1.99
279.847	1.92
280.061	1.21
280.275	1.74
280.489	1.46
280.703	1.37
280.917	1.4
281.131	1.16
281.344	1.5
281.558	1.5
281.772	1.37
281.986	1.42
282.2	1.51
282.414	1.93
282.627	1.64
282.841	1.92
283.055	1.7
283.269	2.29
283.482	2.27
283.696	2.14
283.91	1.85
284.123	2.28
284.337	2.2
284.551	2.68
284.764	2.94
284.978	2.75
285.192	2.58
285.405	2.43
285.619	1.67
285.833	1.22
286.046	1.6
286.26	1.58
286.473	1.25
286.687	1.45
286.9	1.1
287.114	0.68
287.327	1.08
287.541	0.61
287.754	0.58
287.968	0.93
288.181	1.55
288.395	1.33
288.608	1.74
288.822	1.98
289.035	1.71
289.248	1.77
289.462	1.51
289.675	1.73
289.889	2.15
290.102	2.2
290.315	1.93
290.529	1.89
290.742	1.9
290.955	1.59
291.169	1.75
291.382	1.78
291.595	1.6
291.808	2.24
292.022	1.85
292.235	2.14
292.448	1.85
292.661	2.34
292.875	2.26
293.088	2.04
293.301	2.27
293.514	2.09
293.727	2.24
293.94	2.69
294.153	2.38
294.367	2.12
294.58	2.15
294.793	2.28
295.006	2.6
295.219	2.31
295.432	2.54
295.645	2.29
295.858	2.11
296.071	2.07
296.284	1.62
296.497	1.79
296.71	1.93
296.923	1.82
297.136	1.89
297.349	1.78
297.562	2.08
297.775	2.03
297.988	2.02
298.201	2
298.414	1.67
298.626	1.85
298.839	1.8
299.052	1.91
299.265	2.16
299.478	2.42
299.691	2.36
299.903	2.31
300.116	2.3
300.329	2.56
300.542	2.94
300.755	3.12
300.967	3.14
301.18	2.96
301.393	2.65
301.605	2.37
301.818	2.08
302.031	2.01
302.243	2.13
302.456	2.12
302.669	1.82
302.881	1.78
303.094	1.89
303.307	1.88
303.519	2.14
303.732	2.66
303.944	2.72
304.157	2.98
304.37	3.38
304.582	3.36
304.795	3.02
305.007	3.36
305.22	2.88
305.432	3.06
305.645	3.25
305.857	3.14
306.069	2.6
306.282	2.41
306.494	2.22
306.707	1.72
306.919	1.26
307.132	1.58
307.344	1.25
307.556	1.75
307.769	2.08
307.981	2.22
308.193	2.19
308.406	2.74
308.618	2.43
308.83	2.22
309.043	2.41
309.255	2.74
309.467	3.03
309.679	3.14
309.892	3
310.104	2.71
310.316	2.6
310.528	2.48
310.74	2.45
310.953	2.72
311.165	2.71
311.377	2.4
311.589	1.9
311.801	1.57
312.013	1.97
312.225	2.05
312.437	2.18
312.649	2.12
312.862	2.18
313.074	1.99
313.286	2.29
313.498	2.18
313.71	2.4
313.922	3.03
314.134	2.99
314.346	2.43
314.558	2.33
314.77	2.25
314.982	1.92
315.193	2.09
315.405	1.66
315.617	1.3
315.829	1.69
316.041	1.65
316.253	1.31
316.465	1.79
316.677	2.36
316.888	2.83
317.1	3.08
317.312	3.22
317.524	3.53
317.736	4.35
317.947	4.55
318.159	4.94
318.371	4.65
318.583	4.88
318.794	4.91
319.006	4.66
319.218	4.19
319.43	4.15
319.641	4.02
319.853	3.78
320.064	3.7
320.276	3.88
320.488	3.55
320.699	4.13
320.911	3.83
321.123	3.45
321.334	3.58
321.546	3.5
321.757	2.93
321.969	3.08
322.18	3.11
322.392	3.29
322.603	3.4
322.815	2.83
323.026	3.09
323.238	3.87
323.449	4.36
323.661	4.28
323.872	4.87
324.083	5.31
324.295	5.84
324.506	6.25
324.718	6.18
324.929	6.44
325.14	7.38
325.352	7.78
325.563	8.18
325.774	8.75
325.986	9.26
326.197	9.25
326.408	9.73
326.62	9.88
326.831	9.86
327.042	10.19
327.253	10.91
327.464	11
327.676	10.86
327.887	11.02
328.098	10.87
328.309	11.29
328.52	11.93
328.732	12.52
328.943	12.87
329.154	13.86
329.365	14.33
329.576	14.18
329.787	14.55
329.998	15.48
330.209	15.36
330.42	16.01
330.631	16.41
330.842	16.66
331.053	16.69
331.264	16.95
331.475	16.87
331.686	17.37
331.897	18
332.108	18.27
332.319	18.05
332.53	19.08
332.741	19.09
332.952	19.12
333.163	19.98
333.374	20.05
333.585	20.14
333.795	20.33
334.006	20.65
334.217	20.97
334.428	21.07
334.639	21.48
334.849	21.17
335.06	21.53
335.271	21.71
335.482	21.25
335.692	21.33
335.903	21.52
336.114	21.67
336.325	21.52
336.535	21.46
336.746	21.77
336.957	21.86
337.167	22.38
337.378	22.79
337.589	23.06
337.799	22.91
338.01	23.41
338.22	23.91
338.431	24.22
338.642	24.22
338.852	24.33
339.063	24.24
339.273	23.82
339.484	23.64
339.694	23.33
339.905	23.62
340.115	24.38
340.326	24.46
340.536	24.37
340.746	24.19
340.957	24.84
341.167	24.49
341.378	24.82
341.588	25.29
341.799	25.36
342.009	25.61
342.219	25.64
342.43	24.96
342.64	24.87
342.85	24.71
343.061	25.19
343.271	24.63
343.481	25.17
343.691	25.37
343.902	25.35
344.112	25.35
344.322	25.1
344.532	24.9
344.743	25.36
344.953	25.4
345.163	25.77
345.373	25.59
345.583	26.03
345.793	25.73
346.004	25.55
346.214	25.55
346.424	25.68
346.634	25.83
346.844	26.1
347.054	25.97
347.264	26.26
347.474	26.15
347.684	25.86
347.894	25.86
348.104	25.83
348.314	25.69
348.524	25.76
348.734	25.48
348.944	25.35
349.154	24.65
349.364	24.8
349.574	24.3
349.784	24.06
349.994	24.62
350.204	24.51
350.413	24.58
350.623	24.69
350.833	24.58
351.043	24.74
351.253	24.83
351.463	25.32
351.672	25.12
351.882	25.2
352.092	25.62
352.302	25.21
352.511	25.08
352.721	25.13
352.931	25.06
353.141	25.11
353.35	25.11
353.56	25.14
353.77	25.07
353.979	25.01
354.189	25.16
354.399	25.42
354.608	25.35
354.818	25.2
355.027	25.39
355.237	25.28
355.447	25.42
355.656	25.24
355.866	25.14
356.075	25.12
356.285	25.17
356.494	25.13
356.704	24.61
356.913	24.57
357.123	24.57
357.332	24.25
357.542	24.3
357.751	24.28
357.96	24.38
358.17	24.47
358.379	24.42
358.589	24.25
358.798	23.97
359.007	24.12
359.217	24.11
359.426	24.4
359.635	24.36
359.845	24.55
360.054	24.49
360.263	24.69
360.472	24.61
360.682	24.57
360.891	24.91
361.1	24.83
361.309	24.87
361.519	24.99
361.728	25.13
361.937	25.14
362.146	25.17
362.355	25.24
362.564	25.07
362.774	25.03
362.983	25.07
363.192	24.92
363.401	25.15
363.61	25.03
363.819	25.18
364.028	24.92
364.237	25.16
364.446	25.23
364.655	25.27
364.864	25.11
365.073	25.08
365.282	25.27
365.491	25.36
365.7	25.33
365.909	25.51
366.118	25.47
366.327	25.5
366.536	25.45
366.745	25.13
366.954	24.84
367.162	25.13
367.371	25.19
367.58	24.83
367.789	24.51
367.998	24.57
368.207	24.34
368.415	23.94
368.624	23.99
368.833	24.02
369.042	24.17
369.25	24.4
369.459	24.26
369.668	24.26
369.877	24.4
370.085	24.3
370.294	24.72
370.503	24.93
370.711	25.02
370.92	24.83
371.129	24.8
371.337	24.74
371.546	24.6
371.754	24.67
371.963	24.71
372.171	24.52
372.38	24.58
372.589	24.22
372.797	24.01
373.006	24.29
373.214	24.15
373.423	24.15
373.631	24.05
373.84	24.15
374.048	24.14
374.256	24.02
374.465	24.25
374.673	24.17
374.882	23.95
375.09	23.84
375.298	23.62
375.507	23.72
375.715	23.51
375.923	23.66
376.132	23.47
376.34	23.48
376.548	23.68
376.757	23.64
376.965	23.83
377.173	23.97
377.381	24.1
377.59	23.93
377.798	23.96
378.006	23.94
378.214	23.78
378.423	23.99
378.631	23.81
378.839	23.49
379.047	23.52
379.255	23.45
379.463	23.46
379.671	23.36
379.879	23.39
380.088	23.33
380.296	23.41
380.504	23.58
380.712	23.55
380.92	23.48
381.128	23.6
381.336	23.53
381.544	23.52
381.752	23.47
381.96	23.55
382.168	23.72
382.376	23.82
382.584	23.55
382.791	23.42
382.999	23.19
383.207	23.23
383.415	23.27
383.623	23
383.831	22.9
384.039	22.96
384.247	22.95
384.454	22.83
384.662	22.72
384.87	23.03
385.078	22.98
385.285	22.8
385.493	23.02
385.701	22.97
385.909	22.94
386.116	23.09
386.324	22.97
386.532	22.97
386.739	22.93
386.947	23
387.155	22.86
387.362	23.01
387.57	23.18
387.778	23.31
387.985	23.23
388.193	23.5
388.4	23.59
388.608	23.67
388.816	23.56
389.023	23.73
389.231	23.67
389.438	23.79
389.646	23.5
389.853	23.56
390.061	23.42
390.268	23.43
390.475	23.46
390.683	23.34
390.89	23.21
391.098	22.99
391.305	22.8
391.512	22.71
391.72	22.6
391.927	22.88
392.135	22.81
392.342	22.67
392.549	22.9
392.756	22.8
392.964	22.73
393.171	22.79
393.378	23.03
393.586	23.21
393.793	23.11
394	23.18
394.207	22.93
394.414	22.95
394.622	23
394.829	22.82
395.036	22.93
395.243	23.11
395.45	23.11
395.657	23.04
395.864	23.06
396.072	23.17
396.279	23.04
396.486	23.09
396.693	23.07
396.9	23.12
397.107	23.12
397.314	23.04
397.521	23
397.728	23.06
397.935	23.33
398.142	23.33
398.349	23.51
398.556	23.72
398.763	23.72
398.97	23.78
399.177	23.77
399.383	23.89
399.59	23.97
399.797	24.17
400.004	24.32
400.211	24.47
400.418	24.52
400.625	24.5
400.831	24.43
401.038	24.58
401.245	24.75
401.452	24.86
401.658	24.75
401.865	24.92
402.072	24.76
402.279	24.9
402.485	24.82
402.692	25.01
402.899	25.03
403.105	25.27
403.312	25.44
403.519	25.54
403.725	25.92
403.932	26.15
404.138	26.14
404.345	26.09
404.552	25.97
404.758	25.91
404.965	25.53
405.171	25.41
405.378	25.33
405.584	25.18
405.791	25.11
405.997	24.64
406.204	24.55
406.41	24.51
406.617	24.59
406.823	24.53
407.029	24.44
407.236	24.69
407.442	24.81
407.649	24.66
407.855	24.71
408.061	24.49
408.268	24.57
408.474	24.57
408.68	24.44
408.887	24.35
409.093	24.31
409.299	24.23
409.505	24.15
409.712	24.11
409.918	24.29
410.124	24.14
410.33	24.22
410.537	24.16
410.743	24.03
410.949	24.07
411.155	24.03
411.361	24
411.567	24.01
411.773	23.94
411.98	23.94
412.186	23.86
412.392	23.83
412.598	23.9
412.804	23.96
413.01	24.04
413.216	24.14
413.422	24.09
413.628	24.33
413.834	24.34
414.04	24.39
414.246	24.42
414.452	24.37
414.658	24.41
414.864	24.52
415.07	24.42
415.275	24.29
415.481	24.1
415.687	24.21
415.893	24.07
416.099	24.06
416.305	24.01
416.511	24.05
416.716	23.95
416.922	23.93
417.128	23.84
417.334	23.76
417.539	23.83
417.745	23.75
417.951	23.79
418.157	23.78
418.362	23.68
418.568	23.65
418.774	23.54
418.979	23.57
419.185	23.53
419.391	23.54
419.596	23.59
419.802	23.6
420.008	23.65
420.213	23.58
420.419	23.44
420.624	23.46
420.83	23.49
421.035	23.57
421.241	23.44
421.446	23.49
421.652	23.33
421.857	23.34
422.063	23.3
422.268	23.33
422.474	23.28
422.679	23.25
422.885	23.32
423.09	23.28
423.295	23.21
423.501	23.29
423.706	23.29
423.911	23.32
424.117	23.22
424.322	23.21
424.527	23.17
424.733	23.19
424.938	23.35
425.143	23.27
425.349	23.35
425.554	23.4
425.759	23.43
425.964	23.32
426.169	23.42
426.375	23.49
426.58	23.48
426.785	23.54
426.99	23.54
427.195	23.54
427.4	23.74
427.605	23.56
427.811	23.7
428.016	23.75
428.221	24.05
428.426	24.02
428.631	24.02
428.836	23.99
429.041	24.04
429.246	24.17
429.451	24.1
429.656	23.96
429.861	23.98
430.066	23.91
430.271	23.99
430.476	23.85
430.681	23.93
430.886	23.99
431.09	24.2
431.295	24.17
431.5	24.12
431.705	24.17
431.91	24.2
432.115	24.23
432.32	24.11
432.524	24.01
432.729	24.09
432.934	24.21
433.139	24.57
433.343	24.93
433.548	25.34
433.753	25.79
433.958	26.38
434.162	26.89
434.367	27.57
434.572	28.2
434.776	28.94
434.981	29.64
435.186	30.26
435.39	30.6
435.595	30.67
435.799	30.54
436.004	30.28
436.209	29.91
436.413	29.47
436.618	28.89
436.822	28.44
437.027	27.87
437.231	27.16
437.436	26.6
437.64	26.15
437.845	25.7
438.049	25.44
438.253	25.19
438.458	25.02
438.662	24.86
438.867	24.8
439.071	24.75
439.275	24.68
439.48	24.61
439.684	24.55
439.888	24.37
440.093	24.42
440.297	24.32
440.501	24.3
440.706	24.27
440.91	24.33
441.114	24.26
441.318	24.22
441.523	24.19
441.727	24.27
441.931	24.35
442.135	24.47
442.339	24.47
442.543	24.62
442.748	24.74
442.952	24.82
443.156	24.91
443.36	24.94
443.564	24.99
443.768	25
443.972	24.97
444.176	24.72
444.38	24.7
444.584	24.58
444.788	24.57
444.992	24.66
445.196	24.63
445.4	24.6
445.604	24.69
445.808	24.63
446.012	24.67
446.216	24.65
446.42	24.73
446.624	24.68
446.828	24.7
447.032	24.7
447.235	24.6
447.439	24.5
447.643	24.45
447.847	24.39
448.051	24.44
448.254	24.46
448.458	24.55
448.662	24.73
448.866	24.78
449.069	24.84
449.273	24.81
449.477	24.95
449.681	25.06
449.884	25.26
450.088	25.36
450.292	25.42
450.495	25.41
450.699	25.48
450.902	25.38
451.106	25.46
451.31	25.53
451.513	25.47
451.717	25.44
451.92	25.54
452.124	25.4
452.327	25.49
452.531	25.51
452.734	25.42
452.938	25.43
453.141	25.28
453.345	25.28
453.548	25.31
453.752	25.52
453.955	25.49
454.158	25.49
454.362	25.53
454.565	25.49
454.769	25.54
454.972	25.71
455.175	25.55
455.379	25.6
455.582	25.62
455.785	25.64
455.988	25.64
456.192	25.65
456.395	25.62
456.598	25.61
456.801	25.54
457.005	25.33
457.208	25.09
457.411	25.18
457.614	25.17
457.817	25.04
458.021	25
458.224	24.9
458.427	24.9
458.63	24.81
458.833	24.74
459.036	24.71
459.239	24.72
459.442	24.76
459.645	24.7
459.848	24.7
460.051	24.82
460.254	24.73
460.457	24.73
460.66	24.7
460.863	24.73
461.066	24.79
461.269	24.92
461.472	24.96
461.675	25.19
461.878	25.23
462.081	25.39
462.284	25.42
462.486	25.6
462.689	25.6
462.892	25.81
463.095	26.09
463.298	26.23
463.5	26.18
463.703	26.39
463.906	26.26
464.109	26.39
464.311	26.44
464.514	26.4
464.717	26.39
464.92	26.52
465.122	26.43
465.325	26.22
465.528	26.07
465.73	26.08
465.933	25.96
466.135	26.02
466.338	26.02
466.541	25.93
466.743	26
466.946	26.02
467.148	25.99
467.351	25.93
467.553	26.02
467.756	26.11
467.958	26.05
468.161	26.16
468.363	26.05
468.566	26.02
468.768	26.04
468.971	26.06
469.173	26.01
469.375	26.15
469.578	26.25
469.78	26.28
469.983	26.35
470.185	26.53
470.387	26.53
470.59	26.69
470.792	26.8
470.994	26.99
471.196	27.02
471.399	27.22
471.601	27.18
471.803	27.31
472.005	27.35
472.208	27.35
472.41	27.33
472.612	27.41
472.814	27.36
473.016	27.37
473.218	27.26
473.421	27.17
473.623	27.12
473.825	27.12
474.027	27.11
474.229	27.03
474.431	27.05
474.633	27.1
474.835	27.03
475.037	26.95
475.239	26.79
475.441	26.91
475.643	26.86
475.845	26.85
476.047	26.83
476.249	26.75
476.451	26.74
476.653	26.74
476.855	26.65
477.057	26.66
477.258	26.82
477.46	26.96
477.662	26.9
477.864	26.97
478.066	27.01
478.268	27
478.469	26.97
478.671	27.02
478.873	27.02
479.075	26.99
479.276	26.91
479.478	26.78
479.68	26.78
479.882	26.79
480.083	26.76
480.285	26.65
480.487	26.71
480.688	26.76
480.89	26.73
481.091	26.68
481.293	26.68
481.495	26.61
481.696	26.52
481.898	26.33
482.099	26.13
482.301	25.93
482.502	25.73
482.704	25.58
482.905	25.39
483.107	25.27
483.308	25.18
483.51	25.1
483.711	25.04
483.913	24.99
484.114	24.95
484.315	24.93
484.517	24.99
484.718	25.11
484.92	25.15
485.121	25.28
485.322	25.32
485.524	25.39
485.725	25.48
485.926	25.59
486.127	25.67
486.329	25.75
486.53	25.83
486.731	25.87
486.932	25.85
487.134	25.86
487.335	25.86
487.536	25.92
487.737	25.96
487.938	25.97
488.139	26.02
488.341	26.14
488.542	26.2
488.743	26.29
488.944	26.38
489.145	26.44
489.346	26.54
489.547	26.58
489.748	26.64
489.949	26.68
490.15	26.75
490.351	26.72
490.552	26.59
490.753	26.56
490.954	26.53
491.155	26.42
491.356	26.39
491.557	26.41
491.758	26.47
491.959	26.5
492.159	26.5
492.36	26.52
492.561	26.58
492.762	26.73
492.963	26.87
493.164	26.99
493.364	27.19
493.565	27.47
493.766	27.65
493.967	27.73
494.167	27.91
494.368	28.18
494.569	28.31
494.769	28.48
494.97	28.52
495.171	28.59
495.371	28.6
495.572	28.57
495.773	28.41
495.973	28.39
496.174	28.38
496.375	28.32
496.575	28.2
496.776	28.16
496.976	28.11
497.177	28.1
497.377	28.05
497.578	28.14
497.778	28.1
497.979	28.15
498.179	28.09
498.38	28.07
498.58	28.07
498.78	28.17
498.981	28.31
499.181	28.39
499.382	28.45
499.582	28.52
499.782	28.46
499.983	28.59
500.183	28.65
500.383	28.64
500.584	28.67
500.784	28.77
500.984	28.71
501.184	28.67
501.385	28.64
501.585	28.72
501.785	28.73
501.985	28.71
502.185	28.71
502.386	28.68
502.586	28.7
502.786	28.78
502.986	28.71
503.186	28.76
503.386	28.71
503.586	28.7
503.786	28.68
503.987	28.66
504.187	28.8
504.387	28.86
504.587	28.94
504.787	29.09
504.987	29.11
505.187	29.21
505.387	29.26
505.587	29.24
505.786	29.33
505.986	29.29
506.186	29.4
506.386	29.39
506.586	29.36
506.786	29.26
506.986	29.19
507.186	29.2
507.386	29.16
507.585	29.07
507.785	29.21
507.985	29.22
508.185	29.2
508.384	29.17
508.584	29.21
508.784	29.25
508.984	29.33
509.183	29.35
509.383	29.4
509.583	29.47
509.782	29.54
509.982	29.45
510.182	29.48
510.381	29.59
510.581	29.7
510.781	29.66
510.98	29.7
511.18	29.66
511.379	29.7
511.579	29.6
511.778	29.57
511.978	29.65
512.177	29.77
512.377	29.83
512.576	29.85
512.776	29.71
512.975	29.82
513.175	29.78
513.374	29.94
513.573	29.98
513.773	30.14
513.972	30.31
514.172	30.28
514.371	30.27
514.57	30.33
514.77	30.35
514.969	30.52
515.168	30.58
515.367	30.77
515.567	30.87
515.766	30.94
515.965	30.93
516.164	30.81
516.364	30.87
516.563	30.9
516.762	30.82
516.961	30.84
517.16	30.8
517.359	30.74
517.559	30.68
517.758	30.6
517.957	30.61
518.156	30.67
518.355	30.79
518.554	30.76
518.753	30.76
518.952	30.8
519.151	30.84
519.35	30.87
519.549	30.92
519.748	30.94
519.947	31.03
520.146	31.08
520.345	31.07
520.544	31.08
520.743	31.24
520.942	31.32
521.141	31.45
521.339	31.49
521.538	31.65
521.737	31.72
521.936	31.8
522.135	31.76
522.333	31.74
522.532	31.91
522.731	31.91
522.93	31.91
523.129	31.97
523.327	31.94
523.526	32
523.725	31.91
523.923	31.77
524.122	31.82
524.321	31.85
524.519	31.92
524.718	31.81
524.917	31.76
525.115	31.78
525.314	31.67
525.512	31.67
525.711	31.55
525.909	31.57
526.108	31.61
526.306	31.56
526.505	31.54
526.703	31.46
526.902	31.41
527.1	31.39
527.299	31.29
527.497	31.25
527.696	31.19
527.894	31.19
528.092	31.1
528.291	31.04
528.489	31.02
528.688	31.03
528.886	30.99
529.084	30.98
529.283	31.04
529.481	31.08
529.679	31.12
529.877	31.17
530.076	31.24
530.274	31.4
530.472	31.63
530.67	31.8
530.869	31.9
531.067	32.1
531.265	32.29
531.463	32.38
531.661	32.49
531.859	32.57
532.057	32.62
532.255	32.66
532.454	32.71
532.652	32.69
532.85	32.61
533.048	32.69
533.246	32.7
533.444	32.73
533.642	32.81
533.84	32.87
534.038	33
534.236	33.11
534.434	33.24
534.632	33.28
534.83	33.37
535.027	33.59
535.225	33.71
535.423	33.88
535.621	33.97
535.819	34.13
536.017	34.27
536.215	34.39
536.412	34.66
536.61	34.86
536.808	35.12
537.006	35.41
537.203	35.64
537.401	35.91
537.599	36.32
537.797	36.84
537.994	37.27
538.192	37.82
538.39	38.47
538.587	39.02
538.785	39.69
538.983	40.33
539.18	40.87
539.378	41.43
539.575	42.02
539.773	42.4
539.97	42.77
540.168	43.21
540.366	43.51
540.563	43.71
540.761	43.94
540.958	44.09
541.155	44.27
541.353	44.43
541.55	44.57
541.748	44.76
541.945	44.93
542.143	45.16
542.34	45.32
542.537	45.6
542.735	45.89
542.932	46.21
543.129	46.79
543.327	47.7
543.524	48.83
543.721	50.21
543.919	51.73
544.116	53.58
544.313	55.4
544.51	57.24
544.708	59.07
544.905	61.02
545.102	62.89
545.299	64.43
545.496	65.27
545.693	65.68
545.891	65.65
546.088	65.13
546.285	64.19
546.482	63.08
546.679	61.88
546.876	60.69
547.073	59.49
547.27	58.04
547.467	56.59
547.664	55.46
547.861	54.39
548.058	53.47
548.255	52.69
548.452	52.2
548.649	51.66
548.846	51.21
549.043	50.76
549.24	50.17
549.437	49.8
549.633	49.36
549.83	48.85
550.027	48.51
550.224	48.1
550.421	47.71
550.618	47.14
550.814	46.9
551.011	46.35
551.208	45.79
551.405	45.27
551.601	44.65
551.798	44.13
551.995	43.52
552.191	43
552.388	42.57
552.585	42.3
552.781	41.8
552.978	41.41
553.175	41.21
553.371	40.86
553.568	40.64
553.764	40.44
553.961	40.32
554.157	40.33
554.354	40.08
554.55	39.9
554.747	39.64
554.943	39.66
555.14	39.49
555.336	39.45
555.533	39.41
555.729	39.3
555.926	39.26
556.122	39.31
556.318	39.15
556.515	39.34
556.711	39.31
556.907	39.3
557.104	39.19
557.3	39.07
557.496	38.92
557.693	39.1
557.889	38.96
558.085	39.02
558.281	38.81
558.478	38.73
558.674	38.69
558.87	38.74
559.066	38.89
559.262	38.85
559.459	39.05
559.655	39.07
559.851	38.83
560.047	39.01
560.243	38.92
560.439	38.76
560.635	38.73
560.831	38.63
561.027	38.49
561.223	38.39
561.419	38.5
561.615	38.16
561.811	38.17
562.007	38.21
562.203	38.2
562.399	38.1
562.595	38.19
562.791	38.26
562.987	38.2
563.183	38.12
563.379	38.1
563.575	37.99
563.771	38.2
563.966	38.27
564.162	38.2
564.358	38.07
564.554	38.09
564.75	38.13
564.945	37.98
565.141	37.88
565.337	37.84
565.533	37.76
565.728	37.76
565.924	37.67
566.12	37.49
566.315	37.49
566.511	37.5
566.707	37.57
566.902	37.54
567.098	37.6
567.293	37.62
567.489	37.66
567.684	37.72
567.88	37.76
568.076	37.64
568.271	37.53
568.467	37.69
568.662	37.68
568.858	37.54
569.053	37.46
569.248	37.51
569.444	37.47
569.639	37.4
569.835	37.43
570.03	37.42
570.225	37.42
570.421	37.54
570.616	37.31
570.812	37.21
571.007	37.35
571.202	37.38
571.397	37.29
571.593	37.27
571.788	37.22
571.983	37.17
572.178	37.03
572.374	37.05
572.569	37.04
572.764	37.06
572.959	37.16
573.154	36.91
573.35	36.87
573.545	36.92
573.74	36.96
573.935	37.07
574.13	37.15
574.325	37.47
574.52	37.78
574.715	38.12
574.91	38.52
575.105	38.89
575.3	39.39
575.495	39.9
575.69	40.46
575.885	41.01
576.08	41.68
576.275	42.43
576.47	42.93
576.665	43.44
576.86	43.98
577.055	44.44
577.25	45.03
577.444	45.52
577.639	46
577.834	46.44
578.029	47
578.224	47.45
578.418	47.67
578.613	47.91
578.808	48.15
579.003	48.29
579.197	48.41
579.392	48.39
579.587	48.44
579.781	48.24
579.976	47.91
580.171	47.74
580.365	47.41
580.56	47.17
580.755	47.17
580.949	47.04
581.144	46.89
581.338	46.78
581.533	46.82
581.727	46.95
581.922	47.11
582.116	47.43
582.311	47.41
582.505	47.64
582.7	47.87
582.894	47.98
583.089	48.1
583.283	48.18
583.478	48.37
583.672	48.31
583.866	48.32
584.061	48.35
584.255	48.27
584.449	48.44
584.644	48.72
584.838	48.88
585.032	49.18
585.226	49.53
585.421	49.99
585.615	50.46
585.809	50.93
586.003	51.36
586.198	51.91
586.392	52.36
586.586	52.47
586.78	52.41
586.974	52.36
587.168	51.99
587.363	51.54
587.557	51.05
587.751	50.34
587.945	49.68
588.139	48.98
588.333	48.04
588.527	47.27
588.721	46.64
588.915	46.02
589.109	45.28
589.303	44.82
589.497	44.56
589.691	44.35
589.885	44.4
590.079	44.4
590.273	44.64
590.466	45.04
590.66	45.43
590.854	45.94
591.048	46.46
591.242	47.07
591.436	47.84
591.629	48.39
591.823	48.95
592.017	49.35
592.211	49.83
592.404	49.94
592.598	50.17
592.792	50.23
592.986	50.05
593.179	49.67
593.373	49.44
593.567	48.74
593.76	48.29
593.954	47.78
594.147	47.13
594.341	46.45
594.535	46.07
594.728	45.19
594.922	44.61
595.115	44.25
595.309	43.96
595.502	43.62
595.696	43.42
595.889	43.14
596.083	42.89
596.276	42.81
596.47	42.68
596.663	42.52
596.856	42.82
597.05	42.96
597.243	43.13
597.437	43.4
597.63	43.52
597.823	43.88
598.017	44.23
598.21	44.86
598.403	45.24
598.596	45.85
598.79	46.26
598.983	46.43
599.176	46.67
599.369	46.72
599.563	46.76
599.756	46.95
599.949	46.79
600.142	46.55
600.335	46
600.528	45.82
600.722	45.52
600.915	45.16
601.108	44.75
601.301	44.3
601.494	44.02
601.687	43.64
601.88	43.22
602.073	42.89
602.266	42.89
602.459	42.71
602.652	42.44
602.845	42.16
603.038	42.02
603.231	41.85
603.424	41.71
603.617	41.63
603.809	41.63
604.002	41.59
604.195	41.43
604.388	41.24
604.581	41.23
604.774	41.25
604.966	41.42
605.159	41.57
605.352	41.86
605.545	42.09
605.737	42.42
605.93	42.73
606.123	43.36
606.316	44.14
606.508	45.03
606.701	45.83
606.894	46.72
607.086	47.48
607.279	48.38
607.471	49.54
607.664	50.81
607.857	52.26
608.049	54.24
608.242	56.33
608.434	59.44
608.627	63.06
608.819	67.75
609.012	72.94
609.204	78.76
609.397	84.97
609.589	91.62
609.782	98.8
609.974	106.33
610.166	113.6
610.359	120.92
610.551	127.33
610.743	132.92
610.936	137.14
611.128	140.12
611.32	141.96
611.513	142.73
611.705	142.39
611.897	141.11
612.09	138.48
612.282	135.24
612.474	130.94
612.666	126.95
612.858	122.42
613.051	118.8
613.243	115.08
613.435	111.5
613.627	108.2
613.819	104.86
614.011	101.32
614.203	98.14
614.395	94.9
614.588	92.06
614.78	88.9
614.972	85.99
615.164	82.72
615.356	79.65
615.548	76.89
615.74	74.27
615.932	72.03
616.124	69.59
616.315	67.43
616.507	65.62
616.699	63.83
616.891	62.24
617.083	60.81
617.275	59.5
617.467	58.32
617.659	57.32
617.85	56.3
618.042	55.17
618.234	54.6
618.426	53.92
618.618	53.21
618.809	52.82
619.001	52.51
619.193	52.24
619.384	52.06
619.576	52.16
619.768	52.03
619.959	51.83
620.151	51.98
620.343	52
620.534	52.11
620.726	52.28
620.917	52.26
621.109	52.34
621.301	52.59
621.492	52.86
621.684	52.84
621.875	53.25
622.067	53.7
622.258	53.82
622.45	54
622.641	54.3
622.832	54.51
623.024	54.86
623.215	55.02
623.407	55.01
623.598	55.01
623.789	55.43
623.981	55.14
624.172	55.11
624.363	55.13
624.555	55.15
624.746	54.97
624.937	55.04
625.129	54.86
625.32	54.61
625.511	54.34
625.702	54.17
625.893	53.69
626.085	53.58
626.276	53.24
626.467	53
626.658	52.7
626.849	52.39
627.04	51.99
627.231	51.83
627.422	51.74
627.614	51.8
627.805	51.87
627.996	52.22
628.187	52.78
628.378	53.27
628.569	53.8
628.76	54.67
628.951	55.65
629.142	56.84
629.332	57.9
629.523	58.76
629.714	59.87
629.905	60.66
630.096	61.34
630.287	61.61
630.478	62.02
630.669	62.09
630.859	61.58
631.05	61.08
631.241	60.13
631.432	58.96
631.623	58.08
631.813	56.82
632.004	55.48
632.195	53.94
632.385	52.62
632.576	51.19
632.767	49.98
632.957	49.1
633.148	48.13
633.339	47.33
633.529	46.77
633.72	45.97
633.91	45.5
634.101	45.25
634.292	44.97
634.482	44.68
634.673	44.51
634.863	44.24
635.054	44.2
635.244	44.16
635.435	44.18
635.625	44.12
635.815	44.23
636.006	44.01
636.196	43.89
636.387	44.07
636.577	44.1
636.767	44.07
636.958	44.03
637.148	43.91
637.338	43.77
637.529	43.48
637.719	43.37
637.909	43.43
638.099	43.41
638.29	43.36
638.48	43.34
638.67	43.4
638.86	43.56
639.05	43.72
639.241	43.71
639.431	43.72
639.621	44.02
639.811	44.09
640.001	43.97
640.191	44.02
640.381	44.16
640.571	44.11
640.761	43.85
640.951	43.7
641.141	43.86
641.331	43.99
641.521	44.24
641.711	44.28
641.901	44.23
642.091	44.21
642.281	44.19
642.471	44.02
642.661	43.92
642.851	44.12
643.041	44.52
643.231	44.63
643.42	44.36
643.61	44.33
643.8	44.24
643.99	44.33
644.18	44.41
644.369	44.56
644.559	44.6
644.749	44.66
644.939	44.56
645.128	44.37
645.318	44.03
645.508	44.33
645.697	44.15
645.887	44.38
646.076	44.34
646.266	44.24
646.456	43.91
646.645	43.77
646.835	43.82
647.024	43.93
647.214	43.74
647.403	44.07
647.593	44.13
647.782	44.59
647.972	44.75
648.161	45.33
648.351	45.67
648.54	46.15
648.73	46.63
648.919	46.85
649.108	47.38
649.298	48.15
649.487	48.48
649.677	48.85
649.866	48.92
650.055	48.77
650.244	48.66
650.434	48.95
650.623	49.2
650.812	49.27
651.002	49.13
651.191	48.77
651.38	48.27
651.569	47.97
651.758	47.93
651.947	47.51
652.137	47.62
652.326	47.51
652.515	47.27
652.704	46.95
652.893	46.56
653.082	46.71
653.271	46.7
653.46	46.57
653.649	46.45
653.838	46.2
654.027	45.98
654.216	46.11
654.405	45.73
654.594	45.55
654.783	45.28
654.972	45.18
655.161	45.02
655.35	44.9
655.539	45.16
655.728	44.9
655.916	44.67
656.105	44.65
656.294	44.23
656.483	44.07
656.672	44.11
656.86	44.29
657.049	44.42
657.238	44.26
657.427	44.39
657.615	44.07
657.804	44.21
657.993	44.15
658.181	44.3
658.37	44.16
658.559	44.11
658.747	43.78
658.936	43.61
659.125	44.03
659.313	43.95
659.502	43.66
659.69	43.74
659.879	43.9
660.067	44.1
660.256	44.11
660.444	44.42
660.633	44.77
660.821	45.11
661.01	45.53
661.198	45.36
661.387	45.77
661.575	46.16
661.763	46.37
661.952	46.52
662.14	46.66
662.328	46.9
662.517	46.77
662.705	47.05
662.893	47.31
663.082	47.42
663.27	47.45
663.458	47.33
663.646	47.13
663.834	47.26
664.023	47.13
664.211	46.99
664.399	46.92
664.587	47.07
664.775	46.74
664.963	46.43
665.152	46.36
665.34	46.51
665.528	46.34
665.716	46.44
665.904	45.86
666.092	45.9
666.28	45.73
666.468	45.53
666.656	45.39
666.844	45.52
667.032	45.76
667.22	45.61
667.408	45.24
667.596	45.31
667.784	45.44
667.971	45.58
668.159	45.5
668.347	45.42
668.535	45.75
668.723	45.73
668.911	45.53
669.098	45.21
669.286	45.31
669.474	45.54
669.662	45.61
669.849	45.64
670.037	45.4
670.225	45.25
670.413	45.29
670.6	45.35
670.788	45.5
670.976	45.61
671.163	45.86
671.351	45.78
671.538	45.5
671.726	45.57
671.913	45.34
672.101	45.94
672.289	46.13
672.476	46.09
672.664	45.8
672.851	45.68
673.039	45.64
673.226	45.51
673.413	45.64
673.601	45.8
673.788	45.59
673.976	45.57
674.163	45.59
674.35	45.77
674.538	46.02
674.725	45.85
674.912	45.91
675.1	45.9
675.287	45.74
675.474	45.48
675.662	45.76
675.849	45.94
676.036	45.76
676.223	45.37
676.411	45.15
676.598	44.98
676.785	45.28
676.972	45.05
677.159	45.02
677.346	45.19
677.533	45.55
677.721	45.16
677.908	45.18
678.095	45.53
678.282	45.63
678.469	45.81
678.656	46.06
678.843	45.84
679.03	45.94
679.217	45.72
679.404	45.64
679.591	45.46
679.778	45.3
679.964	45.17
680.151	45.21
680.338	45.16
680.525	44.95
680.712	44.76
680.899	44.7
681.086	44.74
681.272	44.92
681.459	45.15
681.646	44.96
681.833	44.97
682.02	45.26
682.206	45.31
682.393	45.47
682.58	45.56
682.766	45.83
682.953	45.91
683.14	45.9
683.326	45.94
683.513	45.78
683.7	45.87
683.886	46.11
684.073	45.9
684.259	45.6
684.446	45.96
684.632	45.81
684.819	46.01
685.005	46.11
685.192	46.32
685.378	46.63
685.565	46.96
685.751	47.24
685.938	47.23
686.124	47.56
686.31	47.93
686.497	47.89
686.683	48.15
686.87	48.06
687.056	48.43
687.242	48.24
687.429	47.71
687.615	47.4
687.801	47.3
687.987	47.32
688.174	46.91
688.36	46.48
688.546	46.09
688.732	46.08
688.918	45.5
689.105	45.09
689.291	44.99
689.477	45.24
689.663	45.04
689.849	44.73
690.035	44.53
690.221	44.61
690.407	44.46
690.593	44.32
690.779	44.12
690.965	44.49
691.151	44.51
691.337	44.79
691.523	44.63
691.709	44.98
691.895	45.34
692.081	45.68
692.267	45.76
692.453	46.51
692.639	46.88
692.825	46.95
693.011	47.06
693.196	47.42
693.382	47.39
693.568	47.39
693.754	47.43
693.94	47.36
694.125	47.26
694.311	47.2
694.497	46.74
694.682	46.67
694.868	46.31
695.054	45.71
695.239	45.31
695.425	44.78
695.611	45.43
695.796	44.85
695.982	44.39
696.168	44.17
696.353	44.09
696.539	43.88
696.724	43.71
696.91	43.9
697.095	44.33
697.281	44.3
697.466	44.56
697.652	44.11
697.837	44.18
698.023	44.19
698.208	43.84
698.393	43.5
698.579	43.38
698.764	43.05
698.949	42.81
699.135	42.64
699.32	42.47
699.505	42.18
699.691	41.98
699.876	42.28
700.061	42.36
700.246	42.31
700.432	42.5
700.617	42.55
700.802	42.76
700.987	43.03
701.172	43.26
701.358	43.58
701.543	43.89
701.728	44.47
701.913	44.18
702.098	44.17
702.283	45.01
702.468	45.31
702.653	45.96
702.838	46.44
703.023	46.66
703.208	47.05
703.393	47.87
703.578	48.79
703.763	49.64
703.948	50.57
704.133	51.82
704.318	52.33
704.503	52.96
704.688	53.8
704.873	54.71
705.057	55.94
705.242	56.84
705.427	57.35
705.612	58.1
705.797	58.31
705.981	58.89
706.166	59.5
706.351	60.52
706.536	61.46
706.72	62.33
706.905	62.91
707.09	63.4
707.274	63.85
707.459	64.41
707.644	64.72
707.828	65.25
708.013	65.42
708.197	65.19
708.382	64.65
708.567	64.8
708.751	63.81
708.936	63.03
709.12	62.27
709.305	61.5
709.489	60.39
709.673	59.57
709.858	58.73
710.042	58.19
710.227	58.01
710.411	58.1
710.596	57.3
710.78	57.41
710.964	58.17
711.149	58.14
711.333	57.84
711.517	57.74
711.702	57.71
711.886	57.42
712.07	57.41
712.254	56.74
712.438	55.91
712.623	55.44
712.807	54.53
712.991	53.44
713.175	52.93
713.359	51.91
713.544	51.15
713.728	50.33
713.912	49.68
714.096	48.71
714.28	48.35
714.464	48
714.648	47.41
714.832	47
715.016	46.35
715.2	46.13
715.384	46.03
715.568	45.44
715.752	45.12
715.936	44.93
716.12	44.92
716.304	44.59
716.488	44.23
716.671	44.11
716.855	43.59
717.039	43.1
717.223	42.76
717.407	42.85
717.59	43.25
717.774	43.24
717.958	43.12
718.142	43.12
718.325	42.82
718.509	42.94
718.693	43.34
718.877	43.9
719.06	44.26
719.244	44.19
719.428	44.29
719.611	44.61
719.795	44.46
719.978	44.94
720.162	44.94
720.345	44.94
720.529	44.53
720.713	44.62
720.896	44.91
721.08	44.75
721.263	44.96
721.446	44.81
721.63	45.24
721.813	45.51
721.997	45.2
722.18	44.98
722.364	45.14
722.547	45.39
722.73	44.95
722.914	44.92
723.097	45.33
723.28	44.83
723.464	44.54
723.647	44.06
723.83	43.63
724.013	44.06
724.197	43.91
724.38	43.78
724.563	44.07
724.746	44.38
724.929	44.74
725.112	44.07
725.296	44.48
725.479	44.85
725.662	44.44
725.845	44.96
726.028	44.11
726.211	44.03
726.394	44.2
726.577	44.39
726.76	44.37
726.943	43.52
727.126	43.56
727.309	43.5
727.492	43.21
727.675	43.34
727.858	42.75
728.041	43.28
728.224	43.44
728.407	43.04
728.589	42.89
728.772	42.34
728.955	42.59
729.138	42.14
729.321	42.15
729.503	41.96
729.686	42.13
729.869	42.17
730.052	41.82
730.234	41.78
730.417	42.19
730.6	41.54
730.782	41.94
730.965	42.37
731.148	43.21
731.33	43.11
731.513	43.29
731.695	43.11
731.878	43.43
732.061	43.63
732.243	43.7
732.426	43.71
732.608	44
732.791	44.01
732.973	43.83
733.156	43.49
733.338	43.69
733.52	43.83
733.703	44.46
733.885	44.67
734.068	44.65
734.25	44.62
734.432	44.33
734.615	45.06
734.797	44.74
734.979	44.84
735.162	45.45
735.344	45.49
735.526	45.8
735.708	45.23
735.891	45.1
736.073	44.99
736.255	45.11
736.437	45.46
736.619	45.4
736.802	45.65
736.984	45.97
737.166	46.16
737.348	45.96
737.53	45.72
737.712	45.78
737.894	46.33
738.076	46.67
738.258	46.36
738.44	45.93
738.622	45.87
738.804	46.92
738.986	46.11
739.168	45.87
739.35	45.39
739.532	45.84
739.714	45.73
739.896	45.62
740.078	45.91
740.259	46.36
740.441	46.77
740.623	47.15
740.805	46.24
740.987	46.71
741.168	46.8
741.35	47.43
741.532	47.19
741.714	47.48
741.895	46.77
742.077	46.63
742.259	46.73
742.44	46.96
742.622	46.46
742.804	46.41
742.985	47.03
743.167	46.39
743.348	46.32
743.53	46.28
743.711	46.81
743.893	47.12
744.075	46.63
744.256	47.04
744.438	47.05
744.619	46.65
744.8	46.97
744.982	46.36
745.163	46.9
745.345	47.51
745.526	47.95
745.707	47.62
745.889	47.68
746.07	47.71
746.252	46.82
746.433	47.03
746.614	47.46
746.795	46.76
746.977	46.72
747.158	46.7
747.339	46.63
747.52	46.7
747.702	46.46
747.883	46.16
748.064	47.01
748.245	47.26
748.426	46.78
748.607	46.75
748.788	47.67
748.97	47.97
749.151	48.16
749.332	48.48
749.513	48.1
749.694	48.22
749.875	48.44
750.056	47.68
750.237	47.62
750.418	47.67
750.599	47.25
750.78	47.22
750.96	47.12
751.141	47.49
751.322	46.93
751.503	46.57
751.684	47.04
751.865	47.29
752.046	47.72
752.226	47.94
752.407	48.29
752.588	47.64
752.769	47.43
752.949	47.72
753.13	47.23
753.311	47.14
753.492	47.39
753.672	47.38
753.853	47.26
754.034	47.43
754.214	47.3
754.395	47.21
754.575	48.47
754.756	48.56
754.937	48.47
755.117	49.2
755.298	49.87
755.478	50.06
755.659	49.44
755.839	49.87
756.02	49.35
756.2	49.88
756.381	49.34
756.561	48.35
756.741	48.48
756.922	48.07
757.102	46.88
757.283	46.01
757.463	45.15
757.643	44.82
757.823	44.35
758.004	44.03
758.184	43.67
758.364	43.69
758.545	43.43
758.725	42.92
758.905	42.62
759.085	42.66
759.265	41.94
759.446	41.8
759.626	41.75
759.806	41.14
759.986	40.86
760.166	40.73
760.346	40.86
760.526	41.35
760.706	40.91
760.886	40.59
761.066	40.73
761.246	40.96
761.426	41.49
761.606	41.4
761.786	41.82
761.966	41.25
762.146	40.46
762.326	40.89
762.506	41.09
762.686	41.15
762.866	41.44
763.046	41.27
763.225	41.36
763.405	41.43
763.585	41.32
763.765	41.09
763.945	41.61
764.124	41.57
764.304	41.24
764.484	40.88
764.664	41.04
764.843	40.75
765.023	40.83
765.203	40.89
765.382	40.47
765.562	40.47
765.741	40.72
765.921	40.95
766.101	41.48
766.28	41.93
766.46	42.15
766.639	41.52
766.819	42.25
766.998	42.45
767.178	43.18
767.357	43.6
767.537	44.03
767.716	43.96
767.896	43.79
768.075	44.03
768.254	44.1
768.434	44.57
768.613	45.88
768.792	46.07
768.972	46.49
769.151	46.58
769.33	47.05
769.51	46.89
769.689	47.16
769.868	47.91
770.047	48.85
770.226	48.13
770.406	48.22
770.585	48.29
770.764	47.99
770.943	48.21
771.122	48.63
771.301	48.37
771.48	48.98
771.66	49.25
771.839	49.89
772.018	49.3
772.197	49.66
772.376	50.58
772.555	49.79
772.734	49.92
772.913	49.78
773.092	49.14
773.271	50.3
773.449	50.04
773.628	50.71
773.807	49.18
773.986	48.7
774.165	49.6
774.344	48.62
774.523	49.98
774.701	50.02
774.88	50.29
775.059	50.79
775.238	49.22
775.417	49.34
775.595	48.31
775.774	48.36
775.953	49.01
776.131	47.87
776.31	48.28
776.489	46.62
776.667	46.65
776.846	45.31
777.025	44.86
777.203	45.88
777.382	45.88
777.56	46.83
777.739	47.81
777.917	48.07
778.096	48.48
778.274	48.16
778.453	48.56
778.631	48.61
778.81	49.08
778.988	48.53
779.166	48.44
779.345	48.96
779.523	48
779.702	47.07
779.88	45.38
780.058	45.38
780.237	44.9
780.415	45.23
780.593	45.3
780.771	46.21
780.95	45.23
781.128	44.33
781.306	43.64
781.484	44.26
781.662	44.18
781.841	45.25
782.019	45.14
782.197	45.83
782.375	45.61
782.553	45.02
782.731	44.29
782.909	45.74
783.087	47.73
783.265	47.91
783.443	47.83
783.621	48.14
783.799	47.89
783.977	48.7
784.155	47.55
784.333	47.08
784.511	48.29
784.689	47.57
784.867	46.87
785.045	44.38
785.223	44.91
785.4	45.55
785.578	45.28
785.756	44.71
785.934	43.36
786.112	42.89
786.289	43.19
786.467	41.42
786.645	42.6
786.823	42.73
787	43.62
787.178	42.6
787.356	41.62
787.533	42.08
787.711	43.61
787.889	43.57
788.066	44.42
788.244	44.31
788.421	45.6
788.599	44.99
788.776	45.13
788.954	45.59
789.131	46.23
789.309	46.28
789.486	45.69
789.664	45.11
789.841	45.71
790.019	44.96
790.196	45.05
790.373	43.87
790.551	44.4
790.728	44.19
790.906	44.43
791.083	42.48
791.26	42.05
791.437	43.92
791.615	43.45
791.792	42.46
791.969	42.72
792.146	42.3
792.324	42.24
792.501	40.72
792.678	40.47
792.855	39.51
793.032	42.69
793.209	42.96
793.387	42.16
793.564	42.98
793.741	43.87
793.918	44.57
794.095	45.33
794.272	45.51
794.449	46.84
794.626	47.38
794.803	46.92
794.98	44.85
795.157	45.42
795.334	44.81
795.511	43.59
795.688	43.48
795.864	43.52
796.041	42.01
796.218	42.23
796.395	41.82
796.572	42.48
796.749	41.7
796.925	42.39
797.102	42.23
797.279	41.85
797.456	41.98
797.632	41.9
797.809	42.14
797.986	43.22
798.162	43.12
798.339	43.02
798.516	42.64
798.692	43.68
798.869	43.95
799.046	43.47
799.222	43.41
799.399	43.5
799.575	44.11
799.752	44.54
799.928	44.07
800.105	42.43
800.281	42.43
800.458	41.81
800.634	42.09
800.811	41.37
800.987	41.21
801.163	42.76
801.34	43.64
801.516	43.15
801.692	41.88
801.869	43.17
802.045	45.59
802.221	44.6
802.398	45.24
802.574	45.99
802.75	46.66
802.926	47.34
803.103	46.25
803.279	46.07
803.455	45.81
803.631	46.77
803.807	45.4
803.983	44.8
804.16	46.54
804.336	44.77
804.512	45.21
804.688	44.93
804.864	44.86
805.04	46.16
805.216	44.96
805.392	43.6
805.568	42.61
805.744	42.85
805.92	42.9
806.096	42.62
806.272	44.61
806.448	42.91
806.623	40.99
806.799	40.39
806.975	38.8
807.151	39.91
807.327	40.49
807.503	40.84
807.678	42.22
807.854	43.13
808.03	42.09
808.206	41.49
808.381	40.67
808.557	42.15
808.733	42.41
808.908	42.54
809.084	42.86
809.26	43.38
809.435	43.94
809.611	43.9
809.787	42.92
809.962	43.45
810.138	42.82
810.313	43.55
810.489	44.55
810.664	45.38
810.84	46.62
811.015	45.86
811.191	47.54
811.366	46.13
811.542	46.77
811.717	45.79
811.892	46.01
812.068	45.45
812.243	45.77
812.419	44.88
812.594	43.15
812.769	40.44
812.944	41.13
813.12	40.75
813.295	42.14
813.47	39.55
813.645	40.61
813.821	40.3
813.996	41.65
814.171	40.67
814.346	41.49
814.521	40.93
814.697	42.61
814.872	42.92
815.047	42.96
815.222	43.21
815.397	44.63
815.572	43.24
815.747	42.93
815.922	43.09
816.097	44.37
816.272	43.67
816.447	44.85
816.622	45.35
816.797	45.25
816.972	44.5
817.147	45.08
817.322	44.21
817.496	45.42
817.671	43.53
817.846	42.77
818.021	40.84
818.196	40.86
818.371	39.64
818.545	38.91
818.72	37.87
818.895	36.93
819.069	35.57
819.244	35.88
819.419	34.59
819.594	35.97
819.768	36.2
819.943	38.43
820.117	39.23
820.292	40.68
820.467	39.82
820.641	39.49
820.816	38.76
820.99	38.5
821.165	38
821.339	37.94
821.514	37.78
821.688	37.79
821.863	37.06
822.037	36.3
822.212	35.14
822.386	34.77
822.56	34.55
822.735	34.75
822.909	34.63
823.084	34.41
823.258	34.41
823.432	34.26
823.606	34.14
823.781	34.13
823.955	34.18
824.129	34.6
824.303	35.4
824.478	35.82
824.652	35.78
824.826	35.47
825	35.68
825.174	35.7
825.348	35.38
825.523	34.96
825.697	34.59
825.871	34.83
826.045	35.51
826.219	34.75
826.393	34.64
826.567	34.8
826.741	35.52
826.915	35.31
827.089	35.3
827.263	35.98
827.437	36.57
827.611	36.54
827.784	35.97
827.958	35.34
828.132	34.73
828.306	34.54
828.48	34.6
828.654	34.48
828.827	34.56
829.001	35.16
829.175	34.82
829.349	33.8
829.522	35.03
829.696	34.65
829.87	35.7
830.044	36.93
830.217	37.62
830.391	37.33
830.565	37.86
830.738	38.71
830.912	37.2
831.085	39.66
831.259	39.57
831.432	37.94
831.606	40.11
831.779	38.55
831.953	38.54
832.126	37.72
832.3	37.85
832.473	36.4
832.647	35.83
832.82	36.4
832.994	34.15
833.167	34.77
833.34	35.26
833.514	35.29
833.687	35.79
833.86	36.6
834.034	36.42
834.207	35.65
834.38	35.36
834.553	35.97
834.727	35.26
834.9	35.54
835.073	34.43
835.246	33.91
835.419	33.17
835.593	33.52
835.766	32.06
835.939	32.54
836.112	33.19
836.285	34.63
836.458	34.38
836.631	35.93
836.804	36.08
836.977	38.41
837.15	38.09
837.323	40.18
837.496	39.82
837.669	40.53
837.842	40.72
838.015	39.95
838.188	39.06
838.361	39.43
838.533	38.35
838.706	40.43
838.879	39.24
839.052	41.11
839.225	39.22
839.398	40.67
839.57	40.21
839.743	39.76
839.916	39.58
840.088	40.09
840.261	39.04
840.434	39.14
840.607	36.45
840.779	36.31
840.952	35.6
841.124	36.96
841.297	34.99
841.47	37.01
841.642	36.19
841.815	35.24
841.987	33.65
842.16	34.49
842.332	33.92
842.505	37.73
842.677	37.85
842.85	37.85
843.022	39.35
843.194	38.95
843.367	35.78
843.539	37.31
843.712	42.55
843.884	42.83
844.056	43.47
844.229	48.69
844.401	46.71
844.573	48.68
844.745	50.38
844.918	47.22
845.09	51.37
845.262	55.96
845.434	55.59
845.606	54.12
845.779	56.06
845.951	53.56
846.123	50.45
846.295	53.78
846.467	54.19
846.639	54.91
846.811	52.48
846.983	51.07
847.155	49.29
847.327	46.47
847.499	45.63
847.671	47.49
847.843	48.5
848.015	50.64
848.187	48.96
848.359	46.42
848.531	43.15
848.703	45.94
848.875	42.82
849.047	41.91
849.218	42.29
849.39	42.69
849.562	43.24
849.734	46.69
849.905	46.49
850.077	45.27
850.249	45.22
850.421	47.34
850.592	45.97
850.764	49.51
850.936	49.89
851.107	50.39
851.279	54.01
851.451	53
851.622	50.92
851.794	45.77
851.965	42.97
852.137	43.25
852.308	40.12
852.48	38.97
852.651	38.74
852.823	40.84
852.994	42.53
853.166	35.2
853.337	35.03
853.509	34.57
853.68	38.56
853.851	42.55
854.023	43
854.194	52.38
854.365	56.37
854.537	54.7
854.708	56.69
854.879	53.21
855.05	56.61
855.222	50.55
855.393	51.29
855.564	47.75
855.735	47.76
855.906	44.57
856.078	41.79
856.249	38.32
856.42	38.8
856.591	36.28
856.762	36.75
856.933	34.9
857.104	37.99
857.275	38.61
857.446	39.04
857.617	35.97
857.788	40.04
857.959	38.13
858.13	40.18
858.301	41.45
858.472	41.42
858.643	39.31
858.814	38.38
858.985	40.62
859.155	39.22
859.326	42.99
859.497	47.35
859.668	41.26
859.839	40.12
860.009	40.02
860.18	41.12
860.351	46.67
860.522	54.59
860.692	51.26
860.863	52.66
861.034	52.29
861.204	48.96
861.375	42.21
861.546	44.53
861.716	47.22
861.887	49.2
862.057	46.54
862.228	37.69
862.398	29.2
862.569	34.11
862.739	34.09
862.91	33.01
863.08	37.09
863.251	43.15
863.421	48.73
863.592	44.92
863.762	45
863.932	48.16
864.103	46.64
864.273	51.27
864.443	54.5
864.614	50.97
864.784	44.58
864.954	42.9
865.125	43.6
865.295	39.98
865.465	41.97
865.635	32.79
865.805	34.1
865.976	38.34
866.146	35.66
866.316	31.26
866.486	32.42
866.656	39.92
866.826	37.61
866.996	35.2
867.166	34.39
867.336	29.83
867.506	36.45
867.676	31.83
867.846	32.02
868.016	29.93
868.186	31.32
868.356	30.57
868.526	35.26
868.696	32.67
868.866	32.79
869.036	32.29
869.206	33.55
869.376	37.04
869.545	36.2
869.715	29.7
869.885	35.88
870.055	40.28
870.224	36.39
870.394	33.79
870.564	36.02
870.734	37.99
870.903	42.53
871.073	42.89
871.243	40.19
871.412	42.09
871.582	50.37
871.751	47.89
871.921	44.35
872.091	48.59
872.26	45.35
872.43	48.84
872.599	50.1
872.769	49.71
872.938	53.01
873.108	51.7
873.277	45.93
873.446	44.14
873.616	37.85
873.785	37.87
873.955	41.87
874.124	40.98
874.293	41.27
874.463	39.06
874.632	40.47
874.801	37.06
874.971	34.18
875.14	38.36
875.309	42.81
875.478	46.99
875.647	44.24
875.817	43.31
875.986	44.7
876.155	44.87
876.324	47.59
876.493	49.53
876.662	52.46
876.831	58.76
877	57.53
877.17	48.04
877.339	49.35
877.508	51.42
877.677	44.98
877.846	49.24
878.015	49.37
878.184	46.32
878.352	48.41
878.521	49.48
878.69	50.44
878.859	50.46
879.028	48.97
879.197	46.68
879.366	46.85
879.534	46.56
879.703	46.53
879.872	44.07
880.041	44.74
880.21	39.65
880.378	38.47
880.547	36.71
880.716	36.21
880.884	36.37
881.053	35.87
881.222	34.83
881.39	34.86
881.559	34.44
881.727	33.89
881.896	32.11
882.065	32.14
882.233	31.48
882.402	30.51
882.57	30.4
882.739	30.65
882.907	30.68
883.076	30.3
883.244	30.35
883.412	29.6
883.581	28.75
883.749	29.57
883.918	30.15
884.086	30.22
884.254	30.74
884.423	31.86
884.591	32.29
884.759	32.56
884.927	33.04
885.096	32.12
885.264	33.11
885.432	35.89
885.6	38.05
885.769	36.75
885.937	38.31
886.105	39.88
886.273	37.31
886.441	37.18
886.609	38.41
886.777	39.6
886.945	44.14
887.113	41.13
887.281	39.41
887.449	36.1
887.617	35.79
887.785	37.41
887.953	41.81
888.121	42.79
888.289	41.9
888.457	41.39
888.625	41.14
888.793	38.35
888.961	40.31
889.129	41.75
889.296	41.51
889.464	46.03
889.632	41.4
889.8	35.03
889.967	36.1
890.135	35.9
