Data from 2938781__Reflection_03.txt Node
Date: Fri Mar 13 12:49:32 EDT 2015
User: robert
Spectrometer: USB4E03002
Autoset integration time: false
Trigger mode: 4
Integration Time (sec): 1.000000E-1
Scans to average: 10
Electric dark correction enabled: false
Nonlinearity correction enabled: false
Boxcar width: 5
Stray light correction enabled: false
XAxis mode: Wavelengths
Stop averaging: false
Number of Pixels in Spectrum: 3648
>>>>>Begin Spectral Data<<<<<
177.575	87.43
177.794	92.44
178.014	93.5
178.233	88.53
178.452	91.24
178.672	85.65
178.891	83.41
179.11	78.31
179.33	80.59
179.549	82.57
179.768	86.89
179.987	90.39
180.207	84.39
180.426	78.68
180.645	82.48
180.864	77.47
181.084	76.37
181.303	77.53
181.522	82.09
181.741	78.58
181.96	77.26
182.179	77.5
182.398	71.72
182.618	72.36
182.837	77.53
183.056	73.98
183.275	73.13
183.494	75.39
183.713	73.35
183.932	71.89
184.151	73.36
184.37	72.56
184.589	73.48
184.808	74.79
185.027	76.93
185.246	77.14
185.465	79.15
185.684	85.44
185.903	83.63
186.122	82.78
186.341	80.36
186.56	73.57
186.779	72.7
186.998	73.53
187.216	73.45
187.435	74.07
187.654	68.49
187.873	66.16
188.092	67.28
188.311	65.7
188.53	64.67
188.748	64.4
188.967	66.78
189.186	66.91
189.405	66.67
189.623	68.59
189.842	65.98
190.061	69.17
190.28	74.02
190.498	71.66
190.717	75.21
190.936	76.03
191.154	77.14
191.373	81.53
191.592	79.79
191.81	77.46
192.029	75.63
192.248	79.97
192.466	78.05
192.685	74.68
192.904	72.45
193.122	72.55
193.341	75.76
193.559	76.29
193.778	74.39
193.996	78.32
194.215	77.02
194.433	75.13
194.652	70.52
194.87	69.67
195.089	71.66
195.307	73.41
195.526	73.72
195.744	72.78
195.963	75.33
196.181	76.8
196.399	73.89
196.618	77.37
196.836	78.6
197.055	79.06
197.273	81.54
197.491	77.27
197.71	77.84
197.928	78.19
198.146	75.92
198.365	72.15
198.583	73.19
198.801	74.21
199.019	71.72
199.238	70.97
199.456	72.95
199.674	72.99
199.892	73.28
200.111	69.16
200.329	68.24
200.547	67.54
200.765	70.22
200.983	68.94
201.202	66.96
201.42	70.85
201.638	73.52
201.856	72.14
202.074	73.86
202.292	76.06
202.51	78.63
202.728	83.93
202.946	86.58
203.165	83.34
203.383	79.49
203.601	83.7
203.819	79.63
204.037	78.23
204.255	79.65
204.473	77.47
204.691	79.35
204.909	81.96
205.127	76.35
205.345	74.57
205.562	72.9
205.78	74.02
205.998	71.52
206.216	74.4
206.434	74.32
206.652	75.45
206.87	74.75
207.088	70.84
207.306	70.62
207.523	70.08
207.741	71.3
207.959	72.43
208.177	70.86
208.395	73.09
208.612	70.12
208.83	70.65
209.048	70.89
209.266	71.43
209.483	70.39
209.701	68.56
209.919	65.77
210.136	65.72
210.354	62.33
210.572	65.01
210.79	63.64
211.007	65.6
211.225	67.73
211.442	61.07
211.66	63.46
211.878	71.16
212.095	73.53
212.313	75.63
212.53	77.48
212.748	80.56
212.966	80.09
213.183	80.49
213.401	79.33
213.618	75.39
213.836	81.33
214.053	77.01
214.271	72.51
214.488	70.65
214.705	72.09
214.923	70.67
215.14	69.9
215.358	66.98
215.575	64.14
215.793	64.7
216.01	63.93
216.227	64.21
216.445	64
216.662	63.16
216.879	63.29
217.097	59.95
217.314	57.21
217.531	60.29
217.749	58.56
217.966	64.43
218.183	62.79
218.4	63.13
218.618	63.03
218.835	61.92
219.052	63.11
219.269	61.42
219.487	64.29
219.704	68.27
219.921	63.74
220.138	65.42
220.355	59.42
220.572	57.47
220.79	56.04
221.007	53.8
221.224	53.59
221.441	50.69
221.658	51.6
221.875	51.82
222.092	48.12
222.309	47.44
222.526	46.43
222.743	44.91
222.96	45.01
223.177	46.12
223.394	44.51
223.611	46.27
223.828	48.96
224.045	46.53
224.262	43.98
224.479	41.79
224.696	42.7
224.913	42.65
225.13	43.17
225.347	43.19
225.564	42.11
225.781	41.24
225.997	38.01
226.214	34.1
226.431	32.79
226.648	31.94
226.865	30.5
227.082	28.06
227.298	25.41
227.515	23.58
227.732	21.27
227.949	19.49
228.165	17.92
228.382	16.84
228.599	16.89
228.816	16.08
229.032	15.16
229.249	14.77
229.466	14.32
229.682	14.29
229.899	14.46
230.116	14.3
230.332	14.59
230.549	16.04
230.765	16.48
230.982	17.03
231.199	17.81
231.415	19.5
231.632	21.27
231.848	22.01
232.065	22.6
232.281	22.55
232.498	23.72
232.714	23.36
232.931	22.72
233.147	24.34
233.364	23.54
233.58	23.88
233.797	22.5
234.013	23.45
234.23	23.18
234.446	23.32
234.662	22.66
234.879	21.83
235.095	21.34
235.312	21.08
235.528	20.26
235.744	20.09
235.961	20.06
236.177	20.54
236.393	19.09
236.61	19.56
236.826	19.01
237.042	20.85
237.258	21.55
237.475	22.12
237.691	22.54
237.907	22.78
238.123	23.49
238.339	22.89
238.556	23.12
238.772	22.73
238.988	21.9
239.204	22.26
239.42	20.94
239.636	21.15
239.853	20.7
240.069	20.19
240.285	20.04
240.501	18.27
240.717	18.21
240.933	16.87
241.149	16.19
241.365	15.62
241.581	15.13
241.797	14.32
242.013	13.18
242.229	12.99
242.445	12.2
242.661	11.74
242.877	11.94
243.093	11.81
243.309	11.72
243.525	11.73
243.741	11.67
243.957	11.4
244.173	12.64
244.388	13.15
244.604	13.05
244.82	14.02
245.036	13.46
245.252	13.02
245.468	12.08
245.683	11.96
245.899	11.1
246.115	10.67
246.331	10.06
246.547	9.61
246.762	9.17
246.978	8.97
247.194	8.57
247.409	8.72
247.625	8.64
247.841	8.38
248.057	8.3
248.272	8.45
248.488	8.61
248.703	8.96
248.919	8.73
249.135	8.99
249.35	9.83
249.566	10.16
249.782	10.22
249.997	10.58
250.213	11.56
250.428	11.99
250.644	12.67
250.859	12.47
251.075	12.39
251.29	13.15
251.506	12.89
251.721	11.96
251.937	12.14
252.152	12.32
252.368	12.33
252.583	12.12
252.798	11.69
253.014	11.82
253.229	12.3
253.445	13.04
253.66	12.39
253.875	13.19
254.091	14.15
254.306	13.92
254.521	15.05
254.737	15.48
254.952	15.7
255.167	16.81
255.383	16
255.598	15.93
255.813	15.29
256.028	15.09
256.244	14.08
256.459	14.08
256.674	13.48
256.889	11.91
257.104	12.02
257.32	12
257.535	11.17
257.75	10.93
257.965	10.69
258.18	9.95
258.395	9.57
258.61	9.39
258.826	8.47
259.041	8.3
259.256	7.88
259.471	7.12
259.686	6.91
259.901	6.65
260.116	6.47
260.331	6.02
260.546	6.13
260.761	6.21
260.976	6.07
261.191	5.88
261.406	5.59
261.621	5.93
261.836	5.93
262.05	6.06
262.265	6.19
262.48	6.6
262.695	7.07
262.91	7.5
263.125	7.62
263.34	8.03
263.555	8.9
263.769	10
263.984	10.1
264.199	10.72
264.414	10.69
264.629	11.25
264.843	11.59
265.058	11.69
265.273	11.44
265.488	11.45
265.702	10.71
265.917	10.37
266.132	10.1
266.346	9.79
266.561	9.8
266.776	9.67
266.99	9.09
267.205	8.82
267.42	8.87
267.634	8.2
267.849	8.15
268.063	8.8
268.278	8.69
268.492	9.1
268.707	9.22
268.922	8.73
269.136	8.56
269.351	8.73
269.565	8.54
269.78	8.06
269.994	8.24
270.209	7.74
270.423	6.86
270.637	6.82
270.852	6.1
271.066	6.06
271.281	6.21
271.495	6.14
271.709	5.81
271.924	5.74
272.138	6.07
272.353	6.03
272.567	6.23
272.781	6.86
272.996	6.81
273.21	7.09
273.424	7.07
273.638	6.96
273.853	7.16
274.067	7.42
274.281	7.82
274.495	8.13
274.71	8.63
274.924	9.13
275.138	9.1
275.352	9.11
275.566	9.05
275.781	8.96
275.995	9.35
276.209	9.23
276.423	9.41
276.637	9.47
276.851	9.36
277.065	8.75
277.279	8.35
277.493	8.12
277.707	8.6
277.921	8.36
278.135	8.43
278.349	8.48
278.563	8.87
278.777	8.98
278.991	8.61
279.205	8.63
279.419	9.04
279.633	8.63
279.847	8.64
280.061	8.5
280.275	8.2
280.489	8.49
280.703	8.24
280.917	7.9
281.131	7.64
281.344	7.32
281.558	6.79
281.772	6.82
281.986	7.23
282.2	7.56
282.414	7.73
282.627	7.75
282.841	7.44
283.055	7.6
283.269	7.57
283.482	7.55
283.696	7.69
283.91	8
284.123	7.35
284.337	7.01
284.551	6.65
284.764	6.3
284.978	6.29
285.192	6.23
285.405	6.28
285.619	5.97
285.833	5.99
286.046	6.02
286.26	5.99
286.473	6.55
286.687	6.53
286.9	6.59
287.114	6.67
287.327	6.8
287.541	6.96
287.754	6.85
287.968	7.28
288.181	7.25
288.395	7.12
288.608	7.08
288.822	6.82
289.035	6.91
289.248	6.72
289.462	6.4
289.675	6.33
289.889	6.27
290.102	6.05
290.315	5.8
290.529	5.68
290.742	5.82
290.955	5.9
291.169	6.15
291.382	6.45
291.595	6.54
291.808	6.86
292.022	7.17
292.235	7.34
292.448	7.43
292.661	7.59
292.875	7.5
293.088	7.47
293.301	7.26
293.514	6.97
293.727	6.45
293.94	6.54
294.153	6.35
294.367	6.04
294.58	5.62
294.793	5.76
295.006	5.51
295.219	5.48
295.432	5.79
295.645	5.49
295.858	5.33
296.071	5.4
296.284	5.12
296.497	5.03
296.71	4.92
296.923	5.26
297.136	5.27
297.349	5.45
297.562	5.53
297.775	5.13
297.988	5.52
298.201	5.75
298.414	5.7
298.626	5.89
298.839	5.95
299.052	6.04
299.265	5.95
299.478	5.69
299.691	5.87
299.903	6.34
300.116	6.6
300.329	6.48
300.542	6.39
300.755	6.7
300.967	6.95
301.18	6.98
301.393	7.01
301.605	6.89
301.818	6.85
302.031	6.65
302.243	6.21
302.456	6.28
302.669	6.42
302.881	6.44
303.094	6.67
303.307	6.61
303.519	6.92
303.732	7.13
303.944	7.2
304.157	7.41
304.37	7.28
304.582	7.3
304.795	7.22
305.007	7.01
305.22	6.97
305.432	6.68
305.645	6.61
305.857	6.66
306.069	6.84
306.282	6.87
306.494	7.08
306.707	7.26
306.919	7.08
307.132	6.86
307.344	7.07
307.556	7.09
307.769	7.45
307.981	7.23
308.193	7.1
308.406	6.66
308.618	6.6
308.83	6.32
309.043	6.1
309.255	6.18
309.467	6.36
309.679	6.13
309.892	6.33
310.104	6.05
310.316	6.25
310.528	6.23
310.74	6.51
310.953	6.36
311.165	6.57
311.377	7.08
311.589	7.44
311.801	7.46
312.013	7.41
312.225	7.37
312.437	7.49
312.649	7.45
312.862	7.5
313.074	7.73
313.286	8.06
313.498	8.21
313.71	7.84
313.922	7.66
314.134	7.77
314.346	7.94
314.558	7.81
314.77	7.75
314.982	7.76
315.193	8.01
315.405	7.86
315.617	7.99
315.829	7.9
316.041	8.15
316.253	8.03
316.465	8.15
316.677	8.03
316.888	8.1
317.1	8.44
317.312	8.69
317.524	8.54
317.736	8.48
317.947	8.66
318.159	8.72
318.371	8.43
318.583	8.64
318.794	8.83
319.006	9.13
319.218	9.35
319.43	9.24
319.641	8.97
319.853	8.72
320.064	8.95
320.276	8.74
320.488	9.21
320.699	9.37
320.911	9.72
321.123	9.41
321.334	9.37
321.546	9.52
321.757	9.78
321.969	10.32
322.18	10.88
322.392	11
322.603	11.44
322.815	10.73
323.026	10.86
323.238	10.53
323.449	10.34
323.661	10.32
323.872	10.24
324.083	9.95
324.295	9.55
324.506	9.59
324.718	9.28
324.929	9.03
325.14	9.24
325.352	9.17
325.563	9.7
325.774	9.8
325.986	9.91
326.197	10.09
326.408	10.21
326.62	10.44
326.831	10.08
327.042	10.44
327.253	10.82
327.464	10.91
327.676	10.83
327.887	10.61
328.098	11.02
328.309	11.06
328.52	10.79
328.732	10.91
328.943	11.2
329.154	11.88
329.365	12.06
329.576	11.93
329.787	12.41
329.998	13.2
330.209	13.51
330.42	13.53
330.631	13.58
330.842	13.87
331.053	14.23
331.264	13.91
331.475	13.61
331.686	13.57
331.897	13.5
332.108	13.45
332.319	12.99
332.53	12.61
332.741	12.52
332.952	12.78
333.163	12.9
333.374	12.58
333.585	12.84
333.795	12.82
334.006	12.34
334.217	12.16
334.428	12.02
334.639	12.15
334.849	12.13
335.06	12.33
335.271	12.21
335.482	12.43
335.692	12.54
335.903	12.53
336.114	12.27
336.325	12.68
336.535	12.87
336.746	12.68
336.957	13.01
337.167	13.38
337.378	13.56
337.589	13.75
337.799	13.51
338.01	13.38
338.22	13.35
338.431	13.63
338.642	13.61
338.852	13.35
339.063	13.51
339.273	13.27
339.484	13.12
339.694	13.01
339.905	13.04
340.115	12.99
340.326	13.07
340.536	13.02
340.746	12.99
340.957	12.92
341.167	13.14
341.378	13.03
341.588	12.87
341.799	12.68
342.009	12.35
342.219	12.05
342.43	12.22
342.64	12.24
342.85	12.15
343.061	12.18
343.271	12.4
343.481	12.29
343.691	12.09
343.902	12.12
344.112	12.26
344.322	12.22
344.532	12.49
344.743	12.12
344.953	11.93
345.163	11.81
345.373	11.41
345.583	11.28
345.793	11.17
346.004	11.31
346.214	11.22
346.424	11.31
346.634	11.46
346.844	11.23
347.054	11.54
347.264	11.6
347.474	11.83
347.684	12.25
347.894	12.25
348.104	12.47
348.314	12.6
348.524	12.76
348.734	12.6
348.944	12.88
349.154	12.78
349.364	12.69
349.574	12.67
349.784	12.46
349.994	12.41
350.204	12.43
350.413	12.26
350.623	12.31
350.833	12.31
351.043	12.31
351.253	12.06
351.463	11.99
351.672	11.86
351.882	11.94
352.092	11.88
352.302	11.84
352.511	11.75
352.721	12.06
352.931	11.89
353.141	11.72
353.35	11.67
353.56	11.56
353.77	11.52
353.979	11.21
354.189	11.06
354.399	11.28
354.608	11.14
354.818	11.09
355.027	10.86
355.237	10.85
355.447	11.03
355.656	11.01
355.866	10.96
356.075	11.23
356.285	11.74
356.494	11.72
356.704	11.77
356.913	11.91
357.123	12.17
357.332	12.15
357.542	11.94
357.751	11.79
357.96	11.95
358.17	11.95
358.379	11.8
358.589	11.53
358.798	11.66
359.007	11.56
359.217	11.54
359.426	11.06
359.635	11.03
359.845	10.99
360.054	10.96
360.263	10.62
360.472	10.51
360.682	10.37
360.891	10.35
361.1	10.04
361.309	9.91
361.519	10.03
361.728	10.07
361.937	10.13
362.146	10.42
362.355	10.47
362.564	10.72
362.774	10.73
362.983	10.79
363.192	10.87
363.401	10.87
363.61	10.89
363.819	10.73
364.028	10.99
364.237	10.92
364.446	10.8
364.655	10.64
364.864	10.36
365.073	10.5
365.282	10.45
365.491	10.37
365.7	10.65
365.909	10.69
366.118	10.8
366.327	10.7
366.536	10.84
366.745	10.7
366.954	10.76
367.162	10.95
367.371	11.01
367.58	11.23
367.789	11.14
367.998	11.07
368.207	11.21
368.415	11.2
368.624	11.11
368.833	10.89
369.042	11.12
369.25	11.19
369.459	11.35
369.668	11.25
369.877	11.17
370.085	11.15
370.294	11.26
370.503	11.11
370.711	10.95
370.92	10.87
371.129	11.03
371.337	10.83
371.546	10.87
371.754	10.75
371.963	10.63
372.171	10.5
372.38	10.77
372.589	10.72
372.797	10.83
373.006	10.81
373.214	10.86
373.423	10.6
373.631	10.56
373.84	10.35
374.048	10.2
374.256	10.38
374.465	10.54
374.673	10.35
374.882	10.56
375.09	10.62
375.298	10.61
375.507	10.49
375.715	10.55
375.923	10.84
376.132	10.71
376.34	10.66
376.548	10.37
376.757	10.13
376.965	10.25
377.173	10.1
377.381	9.91
377.59	10.19
377.798	10.29
378.006	10.27
378.214	9.98
378.423	10.16
378.631	10.04
378.839	10.13
379.047	10.33
379.255	10.15
379.463	10.17
379.671	10.03
379.879	9.75
380.088	9.64
380.296	9.64
380.504	9.79
380.712	9.63
380.92	9.78
381.128	9.91
381.336	9.73
381.544	9.56
381.752	9.23
381.96	9.31
382.168	9.2
382.376	9.3
382.584	9.16
382.791	9.04
382.999	9
383.207	8.92
383.415	8.82
383.623	8.82
383.831	8.87
384.039	8.9
384.247	8.84
384.454	9.03
384.662	9.03
384.87	9.08
385.078	9.13
385.285	9.06
385.493	9.04
385.701	8.85
385.909	8.88
386.116	8.9
386.324	8.82
386.532	8.84
386.739	8.61
386.947	8.66
387.155	8.67
387.362	8.62
387.57	8.71
387.778	8.65
387.985	8.62
388.193	8.62
388.4	8.61
388.608	8.82
388.816	8.86
389.023	9.07
389.231	8.84
389.438	8.8
389.646	8.86
389.853	8.98
390.061	8.95
390.268	8.91
390.475	8.7
390.683	8.83
390.89	8.57
391.098	8.45
391.305	8.32
391.512	8.19
391.72	8.14
391.927	7.97
392.135	7.9
392.342	7.99
392.549	8.13
392.756	8.17
392.964	7.87
393.171	8.06
393.378	8.05
393.586	7.89
393.793	7.94
394	7.9
394.207	8.07
394.414	7.96
394.622	7.84
394.829	7.86
395.036	7.96
395.243	8.2
395.45	8.2
395.657	8.2
395.864	8.5
396.072	8.36
396.279	8.61
396.486	8.42
396.693	8.58
396.9	8.62
397.107	8.54
397.314	8.56
397.521	8.4
397.728	8.31
397.935	8.25
398.142	8.08
398.349	8.37
398.556	8.18
398.763	8.29
398.97	8.04
399.177	8.15
399.383	8.15
399.59	8.11
399.797	8.22
400.004	8.19
400.211	8.38
400.418	8.32
400.625	8.26
400.831	8.25
401.038	8.22
401.245	8.31
401.452	8.2
401.658	8.09
401.865	8.13
402.072	8.04
402.279	8.05
402.485	7.71
402.692	7.59
402.899	7.57
403.105	7.53
403.312	7.47
403.519	7.32
403.725	7.28
403.932	7.21
404.138	7.09
404.345	7.16
404.552	7.01
404.758	7.15
404.965	7.14
405.171	7.09
405.378	7.02
405.584	6.91
405.791	7.06
405.997	7.17
406.204	7.36
406.41	7.32
406.617	7.25
406.823	7.45
407.029	7.51
407.236	7.61
407.442	7.68
407.649	7.8
407.855	7.88
408.061	8.14
408.268	8.02
408.474	8
408.68	8.12
408.887	7.97
409.093	7.83
409.299	7.73
409.505	7.72
409.712	7.61
409.918	7.46
410.124	7.4
410.33	7.13
410.537	7.04
410.743	6.99
410.949	6.96
411.155	7.14
411.361	7.13
411.567	7.23
411.773	7.28
411.98	7.29
412.186	7.33
412.392	7.47
412.598	7.42
412.804	7.49
413.01	7.46
413.216	7.52
413.422	7.36
413.628	7.37
413.834	7.34
414.04	7.3
414.246	7.26
414.452	7.31
414.658	7.18
414.864	7.17
415.07	7.27
415.275	7.11
415.481	7.04
415.687	6.96
415.893	6.83
416.099	6.83
416.305	6.75
416.511	6.65
416.716	6.4
416.922	6.35
417.128	6.36
417.334	6.17
417.539	6.29
417.745	6.09
417.951	6.11
418.157	6.11
418.362	5.95
418.568	5.88
418.774	5.85
418.979	5.98
419.185	5.92
419.391	5.83
419.596	5.78
419.802	5.62
420.008	5.74
420.213	6.29
420.419	6.26
420.624	6.23
420.83	6.26
421.035	6.27
421.241	6.22
421.446	6.18
421.652	6.13
421.857	6.13
422.063	6.18
422.268	6.08
422.474	5.54
422.679	5.54
422.885	5.58
423.09	5.47
423.295	5.39
423.501	5.33
423.706	5.38
423.911	5.43
424.117	5.45
424.322	5.38
424.527	5.37
424.733	5.35
424.938	5.37
425.143	5.3
425.349	5.33
425.554	5.37
425.759	5.4
425.964	5.39
426.169	5.39
426.375	5.41
426.58	5.49
426.785	5.62
426.99	5.72
427.195	5.81
427.4	5.84
427.605	5.88
427.811	6.01
428.016	6.05
428.221	6.2
428.426	6.27
428.631	6.32
428.836	6.34
429.041	6.27
429.246	6.19
429.451	6.07
429.656	6.07
429.861	6.14
430.066	5.98
430.271	5.84
430.476	5.62
430.681	5.6
430.886	5.59
431.09	5.54
431.295	5.48
431.5	5.59
431.705	5.58
431.91	5.61
432.115	5.53
432.32	5.59
432.524	5.62
432.729	5.68
432.934	5.66
433.139	5.59
433.343	5.58
433.548	5.54
433.753	5.49
433.958	5.48
434.162	5.53
434.367	5.62
434.572	5.57
434.776	5.62
434.981	5.62
435.186	5.62
435.39	5.69
435.595	5.7
435.799	5.64
436.004	5.61
436.209	5.63
436.413	5.59
436.618	5.55
436.822	5.58
437.027	5.63
437.231	5.66
437.436	5.67
437.64	5.68
437.845	5.65
438.049	5.83
438.253	5.79
438.458	5.77
438.662	5.72
438.867	5.73
439.071	5.76
439.275	5.74
439.48	5.72
439.684	5.62
439.888	5.62
440.093	5.58
440.297	5.49
440.501	5.49
440.706	5.5
440.91	5.5
441.114	5.44
441.318	5.51
441.523	5.54
441.727	5.51
441.931	5.61
442.135	5.64
442.339	5.7
442.543	5.82
442.748	5.86
442.952	5.87
443.156	5.95
443.36	5.92
443.564	5.85
443.768	5.74
443.972	5.57
444.176	5.5
444.38	5.42
444.584	5.37
444.788	5.22
444.992	5.21
445.196	5.24
445.4	5.14
445.604	5.2
445.808	5.22
446.012	5.25
446.216	5.37
446.42	5.38
446.624	5.37
446.828	5.33
447.032	5.36
447.235	5.3
447.439	5.23
447.643	5.28
447.847	5.21
448.051	5.18
448.254	5.09
448.458	5.09
448.662	5.07
448.866	5.08
449.069	5.22
449.273	5.31
449.477	5.43
449.681	5.52
449.884	5.63
450.088	5.8
450.292	5.79
450.495	5.95
450.699	5.96
450.902	5.96
451.106	5.92
451.31	5.82
451.513	5.78
451.717	5.63
451.92	5.55
452.124	5.47
452.327	5.35
452.531	5.37
452.734	5.26
452.938	5.28
453.141	5.4
453.345	5.52
453.548	5.5
453.752	5.47
453.955	5.58
454.158	5.57
454.362	5.54
454.565	5.67
454.769	5.68
454.972	5.77
455.175	5.75
455.379	5.68
455.582	5.61
455.785	5.6
455.988	5.62
456.192	5.57
456.395	5.55
456.598	5.58
456.801	5.48
457.005	5.47
457.208	5.52
457.411	5.61
457.614	5.51
457.817	5.46
458.021	5.45
458.224	5.41
458.427	5.32
458.63	5.41
458.833	5.36
459.036	5.31
459.239	5.23
459.442	5.13
459.645	5.04
459.848	5.11
460.051	5.07
460.254	5.11
460.457	5.14
460.66	5.23
460.863	5.19
461.066	5.18
461.269	5.21
461.472	5.38
461.675	5.38
461.878	5.53
462.081	5.58
462.284	5.66
462.486	5.65
462.689	5.55
462.892	5.56
463.095	5.57
463.298	5.7
463.5	5.77
463.703	5.6
463.906	5.68
464.109	5.54
464.311	5.44
464.514	5.43
464.717	5.4
464.92	5.53
465.122	5.57
465.325	5.69
465.528	5.58
465.73	5.65
465.933	5.69
466.135	5.68
466.338	5.55
466.541	5.52
466.743	5.52
466.946	5.56
467.148	5.56
467.351	5.61
467.553	5.56
467.756	5.49
467.958	5.35
468.161	5.44
468.363	5.44
468.566	5.58
468.768	5.68
468.971	5.69
469.173	5.69
469.375	5.67
469.578	5.58
469.78	5.58
469.983	5.7
470.185	5.74
470.387	5.66
470.59	5.7
470.792	5.75
470.994	5.77
471.196	5.7
471.399	5.71
471.601	5.78
471.803	5.76
472.005	5.65
472.208	5.61
472.41	5.56
472.612	5.65
472.814	5.67
473.016	5.74
473.218	5.73
473.421	5.8
473.623	5.81
473.825	5.84
474.027	5.9
474.229	5.94
474.431	5.94
474.633	6.02
474.835	5.98
475.037	6.01
475.239	5.86
475.441	5.84
475.643	5.82
475.845	5.69
476.047	5.63
476.249	5.63
476.451	5.74
476.653	5.69
476.855	5.68
477.057	5.57
477.258	5.47
477.46	5.49
477.662	5.42
477.864	5.45
478.066	5.58
478.268	5.45
478.469	5.38
478.671	5.27
478.873	5.34
479.075	5.26
479.276	5.29
479.478	5.34
479.68	5.42
479.882	5.45
480.083	5.38
480.285	5.24
480.487	5.34
480.688	5.3
480.89	5.28
481.091	5.17
481.293	5.17
481.495	5.11
481.696	5.02
481.898	4.95
482.099	4.91
482.301	4.87
482.502	4.86
482.704	4.76
482.905	4.74
483.107	4.69
483.308	4.7
483.51	4.62
483.711	4.62
483.913	4.59
484.114	4.57
484.315	4.54
484.517	4.51
484.718	4.49
484.92	4.5
485.121	4.49
485.322	4.51
485.524	4.5
485.725	4.57
485.926	4.58
486.127	4.59
486.329	4.62
486.53	4.63
486.731	4.68
486.932	4.7
487.134	4.69
487.335	4.69
487.536	4.67
487.737	4.64
487.938	4.64
488.139	4.67
488.341	4.7
488.542	4.71
488.743	4.69
488.944	4.72
489.145	4.75
489.346	4.82
489.547	4.84
489.748	4.89
489.949	4.93
490.15	4.93
490.351	4.88
490.552	4.88
490.753	4.88
490.954	4.93
491.155	4.9
491.356	4.89
491.557	4.9
491.758	4.92
491.959	4.89
492.159	4.93
492.36	4.96
492.561	4.99
492.762	5.03
492.963	5.03
493.164	5
493.364	5
493.565	4.99
493.766	4.92
493.967	4.95
494.167	5
494.368	5.04
494.569	5.02
494.769	5.07
494.97	5.09
495.171	5.19
495.371	5.31
495.572	5.4
495.773	5.38
495.973	5.52
496.174	5.57
496.375	5.61
496.575	5.59
496.776	5.78
496.976	5.71
497.177	5.68
497.377	5.62
497.578	5.6
497.778	5.58
497.979	5.66
498.179	5.66
498.38	5.64
498.58	5.75
498.78	5.79
498.981	5.76
499.181	5.84
499.382	5.9
499.582	5.99
499.782	6.02
499.983	6.1
500.183	6.15
500.383	6.12
500.584	6.14
500.784	6.03
500.984	6.02
501.184	5.98
501.385	6.01
501.585	6.1
501.785	6.17
501.985	6.24
502.185	6.24
502.386	6.23
502.586	6.32
502.786	6.39
502.986	6.51
503.186	6.57
503.386	6.57
503.586	6.55
503.786	6.42
503.987	6.36
504.187	6.29
504.387	6.37
504.587	6.43
504.787	6.43
504.987	6.45
505.187	6.4
505.387	6.38
505.587	6.48
505.786	6.49
505.986	6.55
506.186	6.6
506.386	6.68
506.586	6.68
506.786	6.65
506.986	6.69
507.186	6.7
507.386	6.71
507.585	6.81
507.785	6.71
507.985	6.74
508.185	6.78
508.384	6.79
508.584	6.77
508.784	6.71
508.984	6.83
509.183	6.82
509.383	6.84
509.583	6.92
509.782	6.89
509.982	6.97
510.182	6.97
510.381	7.02
510.581	7.07
510.781	7.16
510.98	7.26
511.18	7.19
511.379	7.23
511.579	7.3
511.778	7.29
511.978	7.32
512.177	7.37
512.377	7.42
512.576	7.41
512.776	7.44
512.975	7.5
513.175	7.58
513.374	7.64
513.573	7.7
513.773	7.71
513.972	7.81
514.172	7.93
514.371	8.02
514.57	8.1
514.77	8.2
514.969	8.19
515.168	8.28
515.367	8.27
515.567	8.33
515.766	8.35
515.965	8.36
516.164	8.34
516.364	8.25
516.563	8.17
516.762	8.17
516.961	8.09
517.16	8.17
517.359	8.12
517.559	8.17
517.758	8.15
517.957	8.18
518.156	8.21
518.355	8.21
518.554	8.21
518.753	8.26
518.952	8.32
519.151	8.41
519.35	8.4
519.549	8.45
519.748	8.43
519.947	8.47
520.146	8.51
520.345	8.57
520.544	8.7
520.743	8.78
520.942	8.86
521.141	8.81
521.339	8.92
521.538	9.02
521.737	8.99
521.936	9.09
522.135	9.19
522.333	9.21
522.532	9.26
522.731	9.25
522.93	9.27
523.129	9.37
523.327	9.47
523.526	9.45
523.725	9.44
523.923	9.41
524.122	9.49
524.321	9.5
524.519	9.49
524.718	9.41
524.917	9.38
525.115	9.39
525.314	9.29
525.512	9.31
525.711	9.29
525.909	9.32
526.108	9.41
526.306	9.33
526.505	9.34
526.703	9.37
526.902	9.37
527.1	9.34
527.299	9.35
527.497	9.37
527.696	9.35
527.894	9.32
528.092	9.3
528.291	9.28
528.489	9.29
528.688	9.29
528.886	9.3
529.084	9.37
529.283	9.43
529.481	9.45
529.679	9.5
529.877	9.57
530.076	9.66
530.274	9.71
530.472	9.78
530.67	9.89
530.869	9.98
531.067	10.07
531.265	10.13
531.463	10.18
531.661	10.28
531.859	10.31
532.057	10.34
532.255	10.38
532.454	10.44
532.652	10.4
532.85	10.4
533.048	10.43
533.246	10.45
533.444	10.5
533.642	10.58
533.84	10.55
534.038	10.59
534.236	10.65
534.434	10.74
534.632	10.79
534.83	10.94
535.027	10.97
535.225	10.98
535.423	11.05
535.621	11.06
535.819	11.02
536.017	11.16
536.215	11.18
536.412	11.22
536.61	11.13
536.808	11.14
537.006	11.17
537.203	11.26
537.401	11.46
537.599	11.52
537.797	11.64
537.994	11.85
538.192	11.91
538.39	12
538.587	12.12
538.785	12.32
538.983	12.4
539.18	12.4
539.378	12.5
539.575	12.48
539.773	12.54
539.97	12.51
540.168	12.47
540.366	12.52
540.563	12.57
540.761	12.55
540.958	12.56
541.155	12.67
541.353	12.76
541.55	12.78
541.748	12.82
541.945	12.83
542.143	12.93
542.34	13.06
542.537	13.15
542.735	13.24
542.932	13.34
543.129	13.54
543.327	13.56
543.524	13.75
543.721	13.92
543.919	14.13
544.116	14.39
544.313	14.58
544.51	14.72
544.708	14.9
544.905	15.12
545.102	15.37
545.299	15.48
545.496	15.71
545.693	15.79
545.891	15.93
546.088	15.96
546.285	15.94
546.482	15.93
546.679	15.93
546.876	15.91
547.073	15.86
547.27	15.75
547.467	15.7
547.664	15.6
547.861	15.6
548.058	15.57
548.255	15.57
548.452	15.62
548.649	15.75
548.846	15.84
549.043	15.91
549.24	16.04
549.437	16.21
549.633	16.43
549.83	16.61
550.027	16.59
550.224	16.57
550.421	16.63
550.618	16.57
550.814	16.44
551.011	16.4
551.208	16.48
551.405	16.46
551.601	16.42
551.798	16.34
551.995	16.27
552.191	16.33
552.388	16.4
552.585	16.4
552.781	16.47
552.978	16.61
553.175	16.76
553.371	16.77
553.568	16.74
553.764	16.84
553.961	16.82
554.157	16.88
554.354	17.03
554.55	17.09
554.747	17.23
554.943	17.36
555.14	17.38
555.336	17.35
555.533	17.38
555.729	17.51
555.926	17.58
556.122	17.75
556.318	17.95
556.515	17.9
556.711	17.85
556.907	17.84
557.104	17.94
557.3	18.01
557.496	18.09
557.693	18.27
557.889	18.43
558.085	18.53
558.281	18.64
558.478	18.74
558.674	18.83
558.87	18.96
559.066	19.06
559.262	19.22
559.459	19.17
559.655	19.32
559.851	19.35
560.047	19.36
560.243	19.4
560.439	19.33
560.635	19.32
560.831	19.43
561.027	19.58
561.223	19.6
561.419	19.5
561.615	19.65
561.811	19.74
562.007	19.8
562.203	19.99
562.399	20.02
562.595	20.11
562.791	20.24
562.987	20.21
563.183	20.33
563.379	20.48
563.575	20.57
563.771	20.76
563.966	20.73
564.162	20.78
564.358	20.76
564.554	20.9
564.75	20.97
564.945	21.03
565.141	21.11
565.337	21.1
565.533	21.06
565.728	21.11
565.924	21.21
566.12	21.32
566.315	21.34
566.511	21.4
566.707	21.42
566.902	21.36
567.098	21.4
567.293	21.52
567.489	21.6
567.684	21.69
567.88	21.63
568.076	21.62
568.271	21.64
568.467	21.78
568.662	21.79
568.858	21.9
569.053	22.13
569.248	22.21
569.444	22.32
569.639	22.45
569.835	22.56
570.03	22.77
570.225	22.78
570.421	22.8
570.616	22.71
570.812	22.85
571.007	22.82
571.202	22.85
571.397	22.91
571.593	22.88
571.788	22.86
571.983	22.96
572.178	23.01
572.374	23.09
572.569	23.2
572.764	23.34
572.959	23.4
573.154	23.57
573.35	23.76
573.545	23.83
573.74	23.93
573.935	24.06
574.13	23.99
574.325	24.07
574.52	24.14
574.715	24.29
574.91	24.4
575.105	24.52
575.3	24.63
575.495	24.71
575.69	24.77
575.885	24.94
576.08	25.12
576.275	25.44
576.47	25.58
576.665	25.84
576.86	25.8
577.055	25.84
577.25	26.05
577.444	26.11
577.639	26.21
577.834	26.41
578.029	26.65
578.224	26.77
578.418	26.77
578.613	26.9
578.808	27.03
579.003	27.28
579.197	27.5
579.392	27.33
579.587	27.37
579.781	27.48
579.976	27.56
580.171	27.46
580.365	27.48
580.56	27.57
580.755	27.57
580.949	27.61
581.144	27.71
581.338	27.74
581.533	28.02
581.727	28.26
581.922	28.27
582.116	28.29
582.311	28.43
582.505	28.31
582.7	28.33
582.894	28.54
583.089	28.64
583.283	28.68
583.478	28.8
583.672	28.93
583.866	28.81
584.061	28.9
584.255	29.01
584.449	29.06
584.644	29.29
584.838	29.57
585.032	29.5
585.226	29.53
585.421	29.63
585.615	29.79
585.809	29.66
586.003	29.73
586.198	29.93
586.392	29.95
586.586	30.03
586.78	30.07
586.974	30.02
587.168	29.97
587.363	29.93
587.557	29.95
587.751	29.85
587.945	29.86
588.139	29.81
588.333	29.52
588.527	29.61
588.721	29.4
588.915	29.32
589.109	29.28
589.303	29.31
589.497	29.32
589.691	29.21
589.885	29.28
590.079	29.43
590.273	29.48
590.466	29.48
590.66	29.57
590.854	29.83
591.048	30.01
591.242	29.95
591.436	30.06
591.629	30.14
591.823	30.46
592.017	30.57
592.211	30.55
592.404	30.67
592.598	30.82
592.792	30.68
592.986	30.59
593.179	30.42
593.373	30.52
593.567	30.56
593.76	30.38
593.954	30.19
594.147	29.95
594.341	29.89
594.535	29.79
594.728	29.63
594.922	29.57
595.115	29.45
595.309	29.38
595.502	29.35
595.696	29.12
595.889	29.13
596.083	29.05
596.276	29.08
596.47	29.1
596.663	29.17
596.856	29.23
597.05	29.21
597.243	29.24
597.437	29.37
597.63	29.43
597.823	29.69
598.017	29.81
598.21	29.93
598.403	30.06
598.596	30.19
598.79	30.33
598.983	30.6
599.176	30.78
599.369	30.97
599.563	30.99
599.756	31.03
599.949	31.02
600.142	31.01
600.335	31.1
600.528	31.03
600.722	30.98
600.915	30.83
601.108	30.67
601.301	30.69
601.494	30.58
601.687	30.46
601.88	30.49
602.073	30.28
602.266	30.21
602.459	30.06
602.652	29.87
602.845	29.74
603.038	29.64
603.231	29.63
603.424	29.48
603.617	29.47
603.809	29.53
604.002	29.34
604.195	29.36
604.388	29.41
604.581	29.38
604.774	29.54
604.966	29.56
605.159	29.74
605.352	29.74
605.545	29.84
605.737	29.95
605.93	30.03
606.123	30.36
606.316	30.57
606.508	30.84
606.701	31.07
606.894	31.35
607.086	31.6
607.279	31.7
607.471	31.82
607.664	32.05
607.857	32.38
608.049	32.87
608.242	33.39
608.434	34.13
608.627	34.8
608.819	35.8
609.012	36.86
609.204	38.29
609.397	39.87
609.589	41.6
609.782	43.25
609.974	45.02
610.166	46.73
610.359	48.33
610.551	49.8
610.743	51.31
610.936	52.78
611.128	53.73
611.32	54.18
611.513	54.48
611.705	54.65
611.897	54.63
612.09	54.25
612.282	53.6
612.474	52.84
612.666	52.08
612.858	51.14
613.051	50.02
613.243	49.2
613.435	48.51
613.627	47.5
613.819	46.54
614.011	45.93
614.203	45.1
614.395	44.31
614.588	43.51
614.78	42.86
614.972	42.18
615.164	41.53
615.356	40.64
615.548	39.91
615.74	39.44
615.932	38.92
616.124	38.23
616.315	37.75
616.507	37.45
616.699	36.94
616.891	36.35
617.083	35.95
617.275	35.42
617.467	35.35
617.659	35.14
617.85	34.84
618.042	34.54
618.234	34.34
618.426	34.08
618.618	34.02
618.809	34.02
619.001	34.03
619.193	34
619.384	34.07
619.576	34.17
619.768	34.15
619.959	34.13
620.151	34.24
620.343	34.12
620.534	34.12
620.726	33.99
620.917	34.06
621.109	34.2
621.301	34.15
621.492	34.11
621.684	34.02
621.875	33.94
622.067	34.02
622.258	34.14
622.45	34.48
622.641	34.46
622.832	34.58
623.024	34.66
623.215	34.59
623.407	34.6
623.598	34.82
623.789	34.77
623.981	34.84
624.172	34.82
624.363	34.66
624.555	34.38
624.746	34.23
624.937	34.13
625.129	34.01
625.32	33.8
625.511	33.72
625.702	33.57
625.893	33.64
626.085	33.68
626.276	33.66
626.467	33.66
626.658	33.77
626.849	33.85
627.04	33.77
627.231	33.73
627.422	33.96
627.614	34.1
627.805	34.02
627.996	33.94
628.187	34.13
628.378	34.14
628.569	34.42
628.76	34.63
628.951	34.83
629.142	35.25
629.332	35.63
629.523	35.64
629.714	35.79
629.905	36.22
630.096	36.39
630.287	36.34
630.478	36.49
630.669	36.5
630.859	36.37
631.05	36.37
631.241	36.15
631.432	35.73
631.623	35.57
631.813	35.12
632.004	34.7
632.195	34.41
632.385	34.12
632.576	33.99
632.767	33.73
632.957	33.55
633.148	33.2
633.339	32.96
633.529	32.85
633.72	32.8
633.91	32.7
634.101	32.46
634.292	32.46
634.482	32.41
634.673	32.16
634.863	32.02
635.054	31.91
635.244	32.06
635.435	32.03
635.625	32.02
635.815	32
636.006	32.17
636.196	32.34
636.387	32.21
636.577	32.23
636.767	32.41
636.958	32.43
637.148	32.43
637.338	32.48
637.529	32.57
637.719	32.76
637.909	32.9
638.099	32.86
638.29	32.69
638.48	33.1
638.67	33.01
638.86	32.84
639.05	32.84
639.241	32.94
639.431	32.81
639.621	32.9
639.811	32.84
640.001	32.77
640.191	32.81
640.381	33.06
640.571	32.79
640.761	32.92
640.951	33
641.141	33.01
641.331	33.02
641.521	32.93
641.711	32.87
641.901	32.78
642.091	32.82
642.281	32.9
642.471	32.85
642.661	32.88
642.851	33
643.041	33.21
643.231	33.22
643.42	33.11
643.61	33.39
643.8	33.12
643.99	33.27
644.18	33.26
644.369	33.42
644.559	33.53
644.749	33.58
644.939	33.47
645.128	33.28
645.318	33.29
645.508	33.29
645.697	32.99
645.887	33.19
646.076	33.01
646.266	33.03
646.456	32.89
646.645	32.67
646.835	32.71
647.024	32.74
647.214	32.62
647.403	32.6
647.593	32.63
647.782	32.95
647.972	32.96
648.161	33.31
648.351	33.57
648.54	33.66
648.73	33.75
648.919	33.81
649.108	33.93
649.298	34.26
649.487	34.51
649.677	34.66
649.866	34.65
650.055	34.7
650.244	34.6
650.434	34.32
650.623	34.18
650.812	34.21
651.002	34.02
651.191	33.89
651.38	33.81
651.569	33.88
651.758	33.77
651.947	33.76
652.137	33.92
652.326	33.9
652.515	33.72
652.704	33.77
652.893	33.79
653.082	34.03
653.271	34.16
653.46	34.34
653.649	34.26
653.838	34.18
654.027	34.12
654.216	33.99
654.405	33.8
654.594	33.96
654.783	33.95
654.972	33.86
655.161	33.66
655.35	33.69
655.539	33.49
655.728	33.5
655.916	33.58
656.105	33.45
656.294	33.31
656.483	33.3
656.672	33.31
656.86	33.18
657.049	33.12
657.238	33.05
657.427	32.98
657.615	33.09
657.804	32.84
657.993	32.74
658.181	32.77
658.37	32.78
658.559	32.9
658.747	32.8
658.936	32.94
659.125	32.66
659.313	32.73
659.502	32.53
659.69	32.37
659.879	32.31
660.067	32.4
660.256	32.52
660.444	32.54
660.633	32.42
660.821	32.54
661.01	32.61
661.198	33.08
661.387	33.16
661.575	33.34
661.763	33.49
661.952	33.96
662.14	34.24
662.328	34.15
662.517	34.34
662.705	34.57
662.893	34.94
663.082	34.96
663.27	35.09
663.458	35.15
663.646	35.3
663.834	35.35
664.023	35.22
664.211	35.01
664.399	35.31
664.587	35.2
664.775	35.33
664.963	35.06
665.152	35.1
665.34	34.94
665.528	34.99
665.716	34.86
665.904	34.86
666.092	34.99
666.28	35.15
666.468	34.88
666.656	34.85
666.844	34.75
667.032	34.95
667.22	34.94
667.408	35.07
667.596	35.02
667.784	35.11
667.971	35.04
668.159	34.91
668.347	34.78
668.535	34.9
668.723	35.05
668.911	34.94
669.098	34.76
669.286	34.92
669.474	34.77
669.662	34.89
669.849	34.78
670.037	34.87
670.225	34.91
670.413	34.91
670.6	35
670.788	34.93
670.976	34.96
671.163	34.79
671.351	34.62
671.538	34.72
671.726	34.56
671.913	34.84
672.101	34.66
672.289	34.68
672.476	34.59
672.664	34.57
672.851	34.57
673.039	34.78
673.226	35.05
673.413	34.95
673.601	34.86
673.788	35.02
673.976	35.02
674.163	35.12
674.35	34.98
674.538	35.12
674.725	35.32
674.912	35.26
675.1	35.22
675.287	35.22
675.474	35.29
675.662	35.45
675.849	35.62
676.036	35.67
676.223	35.86
676.411	35.86
676.598	35.84
676.785	35.56
676.972	35.44
677.159	35.16
677.346	35.03
677.533	35
677.721	35.18
677.908	34.78
678.095	34.55
678.282	34.28
678.469	34.25
678.656	34.18
678.843	34.18
679.03	34.25
679.217	34.51
679.404	34.37
679.591	34.34
679.778	33.91
679.964	34
680.151	34.01
680.338	34.22
680.525	34.16
680.712	34.15
680.899	34.09
681.086	34.21
681.272	33.92
681.459	34.04
681.646	34.2
681.833	34.54
682.02	34.39
682.206	34.39
682.393	34.29
682.58	34.46
682.766	34.58
682.953	34.66
683.14	34.45
683.326	34.95
683.513	35.32
683.7	35.16
683.886	35.03
684.073	35.32
684.259	35.3
684.446	35.4
684.632	35.48
684.819	35.42
685.005	35.61
685.192	35.79
685.378	35.48
685.565	35.22
685.751	35.31
685.938	35.23
686.124	35.15
686.31	35.51
686.497	35.35
686.683	35.33
686.87	35.66
687.056	35.49
687.242	35.33
687.429	35.33
687.615	35.32
687.801	35.38
687.987	35.49
688.174	35.54
688.36	35.27
688.546	35.35
688.732	35.23
688.918	34.71
689.105	34.77
689.291	34.88
689.477	34.98
689.663	34.98
689.849	34.89
690.035	35.02
690.221	35.08
690.407	35.17
690.593	35.24
690.779	35.32
690.965	35.6
691.151	35.61
691.337	35.8
691.523	35.95
691.709	35.9
691.895	36.08
692.081	36.12
692.267	36.18
692.453	36.36
692.639	36.14
692.825	36.37
693.011	36.35
693.196	36.02
693.382	35.93
693.568	36.17
693.754	36.37
693.94	36.39
694.125	36.4
694.311	36.25
694.497	36.36
694.682	36.43
694.868	36.27
695.054	36.26
695.239	36.73
695.425	36.83
695.611	36.34
695.796	36.15
695.982	35.91
696.168	35.74
696.353	35.61
696.539	35.24
696.724	35.24
696.91	35.08
697.095	34.78
697.281	34.44
697.466	34.2
697.652	33.97
697.837	33.59
698.023	33.53
698.208	33.35
698.393	33.26
698.579	33.13
698.764	33.01
698.949	32.85
699.135	32.86
699.32	32.67
699.505	32.51
699.691	32.66
699.876	32.86
700.061	32.92
700.246	32.99
700.432	33.16
700.617	33.09
700.802	33.1
700.987	33.22
701.172	33.49
701.358	34.04
701.543	34.51
701.728	34.72
701.913	35.3
702.098	35.46
702.283	35.74
702.468	35.97
702.653	36.62
702.838	37.08
703.023	37.29
703.208	37.52
703.393	37.68
703.578	37.85
703.763	38.53
703.948	38.76
704.133	39
704.318	39.24
704.503	39.64
704.688	39.8
704.873	40.07
705.057	40.8
705.242	41.24
705.427	41.72
705.612	42.01
705.797	41.9
705.981	41.68
706.166	41.95
706.351	42.44
706.536	42.45
706.72	42.66
706.905	43.04
707.09	43.09
707.274	42.91
707.459	42.9
707.644	42.83
707.828	43.29
708.013	44.03
708.197	44.25
708.382	43.98
708.567	44.2
708.751	44.23
708.936	44.22
709.12	44.16
709.305	44.06
709.489	43.76
709.673	43.89
709.858	43.41
710.042	42.8
710.227	42.94
710.411	42.72
710.596	42.53
710.78	42.42
710.964	42.39
711.149	41.97
711.333	42.08
711.517	42.21
711.702	41.87
711.886	41.54
712.07	41.27
712.254	41.07
712.438	40.89
712.623	40.9
712.807	40.41
712.991	39.99
713.175	39.86
713.359	39.6
713.544	39.27
713.728	39.2
713.912	39.06
714.096	38.98
714.28	37.95
714.464	37.72
714.648	36.91
714.832	36.83
715.016	36.65
715.2	36.58
715.384	36.3
715.568	35.99
715.752	35.58
715.936	35.51
716.12	35.13
716.304	35.61
716.488	35.69
716.671	35.91
716.855	35.8
717.039	35.59
717.223	35.54
717.407	35.23
717.59	34.99
717.774	34.99
717.958	34.92
718.142	34.82
718.325	34.56
718.509	34.47
718.693	34.3
718.877	34.12
719.06	34.38
719.244	34.17
719.428	34.57
719.611	34.9
719.795	35.18
719.978	35.45
720.162	35.9
720.345	35.9
720.529	36.07
720.713	36.25
720.896	36.56
721.08	36.56
721.263	36.89
721.446	37.13
721.63	37.39
721.813	37.47
721.997	37.6
722.18	37.89
722.364	38.18
722.547	38.1
722.73	38.48
722.914	38.31
723.097	38.15
723.28	38.12
723.464	37.65
723.647	37.96
723.83	37.39
724.013	37.16
724.197	37.22
724.38	36.95
724.563	36.79
724.746	36.34
724.929	36.4
725.112	36.8
725.296	36.52
725.479	37.07
725.662	37.01
725.845	37.23
726.028	37.19
726.211	36.87
726.394	36.81
726.577	37.05
726.76	37.04
726.943	36.71
727.126	35.94
727.309	36.07
727.492	35.69
727.675	35.31
727.858	35.07
728.041	34.72
728.224	34.67
728.407	34.9
728.589	34.49
728.772	34.31
728.955	34.8
729.138	34.87
729.321	34.55
729.503	34.91
729.686	34.37
729.869	34.63
730.052	34.9
730.234	35.03
730.417	34.96
730.6	35.16
730.782	35.4
730.965	35.13
731.148	35.3
731.33	35.69
731.513	35.49
731.695	36.16
731.878	36.45
732.061	36.51
732.243	36.38
732.426	36.36
732.608	37.02
732.791	36.87
732.973	36.99
733.156	37.13
733.338	36.93
733.52	36.96
733.703	36.64
733.885	36.64
734.068	37
734.25	37.5
734.432	37.74
734.615	37.39
734.797	37.66
734.979	37.8
735.162	38.21
735.344	38.52
735.526	38.67
735.708	39.08
735.891	38.92
736.073	38.83
736.255	38.42
736.437	38.4
736.619	38.77
736.802	38.82
736.984	38.78
737.166	39.12
737.348	39.45
737.53	39.57
737.712	39.35
737.894	39.57
738.076	39.03
738.258	38.63
738.44	39.1
738.622	38.75
738.804	38.76
738.986	39.14
739.168	38.81
739.35	38.81
739.532	38.81
739.714	39.61
739.896	39.51
740.078	40.13
740.259	40.46
740.441	40.48
740.623	41.02
740.805	41.2
740.987	40.8
741.168	40.78
741.35	40.29
741.532	40.07
741.714	39.52
741.895	40.05
742.077	40.18
742.259	41.24
742.44	41.22
742.622	40.66
742.804	41.29
742.985	41.86
743.167	41.64
743.348	41.96
743.53	42.01
743.711	42.3
743.893	42.1
744.075	41.91
744.256	42.14
744.438	42
744.619	42.63
744.8	42.65
744.982	42.59
745.163	43.78
745.345	44.08
745.526	44.24
745.707	44.26
745.889	44.42
746.07	44.38
746.252	43.29
746.433	42.91
746.614	42.32
746.795	41.41
746.977	41.38
747.158	40.55
747.339	41.44
747.52	41.98
747.702	41.92
747.883	41.54
748.064	41.92
748.245	42.01
748.426	41.96
748.607	42.48
748.788	43.02
748.97	43.27
749.151	43.23
749.332	42.36
749.513	42.3
749.694	41.98
749.875	42.31
750.056	42.54
750.237	42.66
750.418	43.01
750.599	42.59
750.78	42.54
750.96	42.37
751.141	42.44
751.322	42.71
751.503	41.97
751.684	42.27
751.865	42.67
752.046	41.89
752.226	42.1
752.407	42
752.588	42.39
752.769	42.56
752.949	42.69
753.13	42.59
753.311	42.39
753.492	42.97
753.672	42.89
753.853	42.17
754.034	43.03
754.214	42.87
754.395	42.74
754.575	42.36
754.756	42.18
754.937	42.12
755.117	41.97
755.298	42.1
755.478	42.21
755.659	42.71
755.839	43.11
756.02	42.51
756.2	42.33
756.381	42.49
756.561	42.66
756.741	42.53
756.922	42.45
757.102	42.23
757.283	41.34
757.463	40.84
757.643	40.75
757.823	40.05
758.004	40.04
758.184	39.98
758.364	39.98
758.545	39.66
758.725	39.24
758.905	38.76
759.085	38.81
759.265	38.89
759.446	38.69
759.626	37.65
759.806	38.02
759.986	37.51
760.166	37.39
760.346	36.58
760.526	36.29
760.706	36.63
760.886	36.39
761.066	36.1
761.246	36.35
761.426	36.2
761.606	36.33
761.786	36
761.966	35.76
762.146	34.96
762.326	34.89
762.506	34.19
762.686	33.72
762.866	33.85
763.046	33.53
763.225	33.3
763.405	33.18
763.585	33.07
763.765	32.97
763.945	33.07
764.124	33.38
764.304	33.36
764.484	33.76
764.664	33.86
764.843	34.12
765.023	34.74
765.203	34.61
765.382	35.29
765.562	35.64
765.741	35.93
765.921	36.6
766.101	37.06
766.28	37.56
766.46	38.2
766.639	38.99
766.819	39.56
766.998	39.27
767.178	40.09
767.357	40.36
767.537	40.44
767.716	41.39
767.896	41.16
768.075	41.46
768.254	41.62
768.434	42.16
768.613	42.54
768.792	41.7
768.972	42.65
769.151	43.06
769.33	42.48
769.51	42.42
769.689	41.92
769.868	42.36
770.047	42.72
770.226	42.93
770.406	42.73
770.585	42.87
770.764	43.55
770.943	42.7
771.122	42.53
771.301	42.85
771.48	43.57
771.66	43.44
771.839	43.93
772.018	43.67
772.197	43.68
772.376	43.69
772.555	43.35
772.734	43.5
772.913	44.71
773.092	44.6
773.271	44.36
773.449	44.57
773.628	44.35
773.807	44.33
773.986	44.85
774.165	45.47
774.344	45.71
774.523	45.62
774.701	45.68
774.88	46.11
775.059	46.44
775.238	46.85
775.417	47.07
775.595	48.12
775.774	47.57
775.953	47.54
776.131	47.56
776.31	47.42
776.489	47.83
776.667	48.34
776.846	47.49
777.025	47
777.203	47.28
777.382	46.93
777.56	46.05
777.739	46.15
777.917	45.97
778.096	45.76
778.274	45.69
778.453	45.09
778.631	45.02
778.81	44.42
778.988	44.01
779.166	43.45
779.345	44.2
779.523	44.82
779.702	44.93
779.88	44.9
780.058	45.25
780.237	45.29
780.415	46.27
780.593	45.22
780.771	46.35
780.95	46.64
781.128	47.6
781.306	46.35
781.484	46.28
781.662	46.02
781.841	45.7
782.019	45.79
782.197	45.32
782.375	44.67
782.553	45.64
782.731	45.26
782.909	45.64
783.087	44.61
783.265	44.73
783.443	44.6
783.621	45
783.799	45.44
783.977	44.98
784.155	45.8
784.333	45.48
784.511	46.25
784.689	46.46
784.867	46.9
785.045	47.67
785.223	47.57
785.4	48
785.578	48
785.756	47.86
785.934	48.07
786.112	48.06
786.289	48.51
786.467	46.97
786.645	46.22
786.823	44.89
787	44.51
787.178	44.72
787.356	43.73
787.533	43.37
787.711	43.15
787.889	42.27
788.066	41.61
788.244	40.63
788.421	40.8
788.599	40.11
788.776	41.11
788.954	41.12
789.131	40.44
789.309	41.14
789.486	40.72
789.664	41.16
789.841	41.45
790.019	42.25
790.196	43.31
790.373	43.24
790.551	44.46
790.728	44.79
790.906	44.19
791.083	46.16
791.26	45.57
791.437	46.8
791.615	45.98
791.792	46.79
791.969	45.88
792.146	45.96
792.324	45.84
792.501	45.98
792.678	45.6
792.855	46.39
793.032	44.95
793.209	45.73
793.387	45.23
793.564	45.46
793.741	45.26
793.918	45.7
794.095	44.91
794.272	45.27
794.449	44.66
794.626	44.67
794.803	44.76
794.98	45.58
795.157	45.46
795.334	45.8
795.511	45.92
795.688	45.46
795.864	44.6
796.041	44.74
796.218	44.13
796.395	44.39
796.572	43.76
796.749	43.16
796.925	42.75
797.102	42.79
797.279	42.36
797.456	42.19
797.632	42.52
797.809	43.48
797.986	43.56
798.162	43.94
798.339	42.67
798.516	43.38
798.692	44.05
798.869	44.3
799.046	43.65
799.222	44.02
799.399	44.57
799.575	45.05
799.752	45.25
799.928	45.12
800.105	45.71
800.281	46.84
800.458	47.29
800.634	47.65
800.811	47.2
800.987	47.52
801.163	47.21
801.34	46.95
801.516	45.72
801.692	44.76
801.869	45.06
802.045	45.68
802.221	45.25
802.398	45.01
802.574	43.41
802.75	43.75
802.926	44.07
803.103	44.76
803.279	44.58
803.455	45.58
803.631	46.37
803.807	46.36
803.983	45.08
804.16	45.95
804.336	46.17
804.512	46.89
804.688	47.17
804.864	46.83
805.04	45.61
805.216	45.57
805.392	45.55
805.568	45.66
805.744	45.59
805.92	45.32
806.096	45.04
806.272	44.84
806.448	46.1
806.623	45.96
806.799	46.06
806.975	46.26
807.151	46.95
807.327	47.54
807.503	47.33
807.678	47.62
807.854	48.35
808.03	49.11
808.206	48.58
808.381	47.1
808.557	47.51
808.733	47.04
808.908	47.57
809.084	47.42
809.26	46.65
809.435	47.66
809.611	47.82
809.787	46.84
809.962	46.57
810.138	47.19
810.313	46.48
810.489	45.75
810.664	46.62
810.84	45.58
811.015	45.62
811.191	45.67
811.366	44.54
811.542	44.78
811.717	46.17
811.892	46.16
812.068	45.83
812.243	46.78
812.419	47.41
812.594	47.02
812.769	46.96
812.944	47.2
813.12	46.96
813.295	47.08
813.47	46.22
813.645	45.19
813.821	45.25
813.996	45.35
814.171	45.99
814.346	45.5
814.521	45.2
814.697	45.54
814.872	45.06
815.047	45.73
815.222	44.86
815.397	43.57
815.572	43.62
815.747	43.33
815.922	42.3
816.097	41
816.272	40.14
816.447	40.35
816.622	40.49
816.797	39.1
816.972	38.3
817.147	38.35
817.322	39.2
817.496	38.98
817.671	38.2
817.846	39.56
818.021	39.32
818.196	40.01
818.371	39.66
818.545	39.59
818.72	40.42
818.895	41.11
819.069	40.77
819.244	40.51
819.419	39.17
819.594	39
819.768	37.31
819.943	37.68
820.117	36.43
820.292	35.64
820.467	34.79
820.641	34.03
820.816	32.43
820.99	31.65
821.165	30.6
821.339	30.63
821.514	30.12
821.688	29.8
821.863	28.71
822.037	28.57
822.212	27.88
822.386	27.5
822.56	27.2
822.735	27.25
822.909	27.31
823.084	27.46
823.258	27.34
823.432	27.06
823.606	26.99
823.781	27.53
823.955	27.55
824.129	28.04
824.303	28.3
824.478	28.53
824.652	28.61
824.826	28.72
825	29.04
825.174	29.15
825.348	29.8
825.523	30.25
825.697	30.56
825.871	30.76
826.045	31.17
826.219	31.37
826.393	31.3
826.567	31.76
826.741	31.96
826.915	31.73
827.089	31.98
827.263	32.08
827.437	32.1
827.611	32.19
827.784	32.02
827.958	32.19
828.132	32.22
828.306	32.17
828.48	32.23
828.654	32.66
828.827	33.52
829.001	33.68
829.175	34.33
829.349	35.63
829.522	36.08
829.696	37.17
829.87	37.56
830.044	38.8
830.217	40.41
830.391	40.67
830.565	40.19
830.738	40.13
830.912	40.95
831.085	40.37
831.259	39.34
831.432	39.06
831.606	39.38
831.779	38.82
831.953	38.49
832.126	37.48
832.3	37.06
832.473	36.95
832.647	36.35
832.82	36.48
832.994	36.92
833.167	36.32
833.34	35.71
833.514	34.72
833.687	34.11
833.86	33.46
834.034	33.31
834.207	33.28
834.38	34.01
834.553	34.33
834.727	33.73
834.9	32.89
835.073	32.79
835.246	33.18
835.419	34.32
835.593	35.14
835.766	35.35
835.939	35.86
836.112	36.49
836.285	36.79
836.458	36.89
836.631	37.65
836.804	38.74
836.977	40.22
837.15	41.62
837.323	41.91
837.496	42.91
837.669	44.31
837.842	45.96
838.015	46.23
838.188	46.3
838.361	47.94
838.533	48.05
838.706	48.86
838.879	48.27
839.052	47.18
839.225	46.19
839.398	45.57
839.57	45.16
839.743	43.66
839.916	44.25
840.088	44.42
840.261	44.03
840.434	44.97
840.607	43.59
840.779	43.32
840.952	42.83
841.124	43.16
841.297	43.1
841.47	44.54
841.642	45.18
841.815	45.49
841.987	46.06
842.16	46.39
842.332	46.92
842.505	50.22
842.677	50
842.85	51.55
843.022	50.16
843.194	51.16
843.367	51.5
843.539	52.18
843.712	50.78
843.884	50.46
844.056	49.05
844.229	48.45
844.401	47.31
844.573	50.51
844.745	50.12
844.918	53.41
845.09	54.56
845.262	53.03
845.434	55.11
845.606	60.49
845.779	60.69
845.951	62.07
846.123	62.37
846.295	61.8
846.467	60.45
846.639	62.32
846.811	63.45
846.983	63.13
847.155	64.95
847.327	63.41
847.499	58.85
847.671	60.43
847.843	59.77
848.015	59.98
848.187	61.56
848.359	62.71
848.531	59.75
848.703	58.43
848.875	57.39
849.047	57.05
849.218	58.5
849.39	58.95
849.562	57.46
849.734	58.76
849.905	58.38
850.077	57.23
850.249	57.42
850.421	59.82
850.592	59.57
850.764	60.9
850.936	59.38
851.107	59.18
851.279	60.7
851.451	60.37
851.622	60.62
851.794	59.97
851.965	61.67
852.137	61.38
852.308	60.3
852.48	61.66
852.651	62.58
852.823	62.3
852.994	60.43
853.166	59.84
853.337	61.99
853.509	60.53
853.68	60.33
853.851	60.09
854.023	59.39
854.194	59.58
854.365	56.12
854.537	54.27
854.708	54.35
854.879	55.5
855.05	56.76
855.222	55.8
855.393	57.09
855.564	59.65
855.735	56.82
855.906	56.88
856.078	58.56
856.249	59.22
856.42	60.93
856.591	62.45
856.762	63.31
856.933	63.21
857.104	62.57
857.275	62.26
857.446	60.96
857.617	63.95
857.788	64.63
857.959	62.69
858.13	62.95
858.301	62.07
858.472	61.6
858.643	59.74
858.814	57.93
858.985	59.67
859.155	59.93
859.326	60.48
859.497	57.68
859.668	55.51
859.839	54.41
860.009	54.39
860.18	55.26
860.351	54.78
860.522	54.13
860.692	52.85
860.863	50.82
861.034	50.33
861.204	50.02
861.375	53.08
861.546	55.27
861.716	59.88
861.887	61.12
862.057	60.14
862.228	61.61
862.398	61.88
862.569	62.6
862.739	64.29
862.91	66.81
863.08	63.85
863.251	63.81
863.421	62.63
863.592	58.85
863.762	57.87
863.932	57.86
864.103	55.77
864.273	56.21
864.443	56.1
864.614	53
864.784	50.72
864.954	51.37
865.125	51.31
865.295	54.06
865.465	53.17
865.635	52.98
865.805	53.63
865.976	55.57
866.146	54.54
866.316	57.39
866.486	59.11
866.656	58.86
866.826	62.11
866.996	59.7
867.166	57.05
867.336	60.35
867.506	61.14
867.676	62.42
867.846	62.17
868.016	63.68
868.186	61.58
868.356	60.29
868.526	60.31
868.696	57.33
868.866	59.64
869.036	60.18
869.206	57.73
869.376	58.24
869.545	53.97
869.715	53.92
869.885	53.91
870.055	54.14
870.224	54.58
870.394	55.52
870.564	57.22
870.734	56.83
870.903	55.65
871.073	58.41
871.243	58.78
871.412	61.81
871.582	60.5
871.751	59.1
871.921	56.54
872.091	58.11
872.26	56.21
872.43	56.81
872.599	56.13
872.769	58.62
872.938	57.31
873.108	56.91
873.277	55.26
873.446	55.72
873.616	58.3
873.785	60.64
873.955	60.07
874.124	61.76
874.293	59.16
874.463	60.58
874.632	57.43
874.801	55.95
874.971	54.82
875.14	55.86
875.309	55.1
875.478	55.07
875.647	53.85
875.817	53.56
875.986	53.63
876.155	55.93
876.324	54.72
876.493	56.4
876.662	56.36
876.831	58.26
877	58.39
877.17	57.33
877.339	55.73
877.508	56.88
877.677	54.88
877.846	54.87
878.015	54.04
878.184	53.32
878.352	52.63
878.521	51.83
878.69	49.88
878.859	48.42
879.028	48.7
879.197	47.32
879.366	45.14
879.534	45.18
879.703	43.88
879.872	42.86
880.041	42.05
880.21	40.84
880.378	40.29
880.547	40.06
880.716	38.97
880.884	37.55
881.053	36.4
881.222	35.74
881.39	34.71
881.559	33.44
881.727	31.28
881.896	30.58
882.065	30.34
882.233	30.13
882.402	29.46
882.57	29.48
882.739	29.26
882.907	29.3
883.076	29.66
883.244	29.9
883.412	30.08
883.581	31.31
883.749	31.7
883.918	31.51
884.086	32.47
884.254	32.44
884.423	32.38
884.591	33.11
884.759	34.08
884.927	34.96
885.096	35.15
885.264	35.62
885.432	36.02
885.6	36.91
885.769	39.01
885.937	38.36
886.105	40.17
886.273	41.01
886.441	43.64
886.609	43.83
886.777	44.22
886.945	44.69
887.113	45.42
887.281	45.11
887.449	45.52
887.617	44.33
887.785	45.72
887.953	45.21
888.121	47.5
888.289	46.06
888.457	47.34
888.625	48.1
888.793	50.65
888.961	51.4
889.129	55.53
889.296	55.66
889.464	57.13
889.632	57.33
889.8	59.74
889.967	59.56
890.135	60.98
