Data from 2938731__Reflection_01.txt Node
Date: Sun Mar 15 18:52:21 EDT 2015
User: robert
Spectrometer: USB4E03002
Autoset integration time: false
Trigger mode: 4
Integration Time (sec): 1.000000E-1
Scans to average: 10
Electric dark correction enabled: false
Nonlinearity correction enabled: false
Boxcar width: 5
Stray light correction enabled: false
XAxis mode: Wavelengths
Stop averaging: false
Number of Pixels in Spectrum: 3648
>>>>>Begin Spectral Data<<<<<
177.575	-7.2
177.794	-63.19
178.014	-69.47
178.233	-77.78
178.452	-130.95
178.672	-95.22
178.891	-280.49
179.11	-205.84
179.33	-55.56
179.549	-487.76
179.768	-266.67
179.987	350.75
180.207	72
180.426	-116.67
180.645	169.09
180.864	288.62
181.084	220.22
181.303	164.9
181.522	195.44
181.741	965.85
181.96	193.3
182.179	200
182.398	117.31
182.618	116.92
182.837	197.93
183.056	42.94
183.275	-13.24
183.494	-115
183.713	-107.45
183.932	-191.3
184.151	-249.6
184.37	-56.58
184.589	6.19
184.808	7.21
185.027	39.96
185.246	42.27
185.465	59.36
185.684	50.19
185.903	83.22
186.122	101.59
186.341	179.87
186.56	61.06
186.779	13.83
186.998	-59.5
187.216	-618.18
187.435	1368.75
187.654	-622.22
187.873	1119.44
188.092	974.42
188.311	1378.79
188.53	5688.89
188.748	-259.8
188.967	239.24
189.186	155.7
189.405	232.26
189.623	232.68
189.842	154.66
190.061	220.48
190.28	120.29
190.498	95.55
190.717	104.58
190.936	86.96
191.154	109.34
191.373	104.29
191.592	70.11
191.81	38.79
192.029	23.89
192.248	52.61
192.466	37.56
192.685	1400
192.904	-6.69
193.122	55.6
193.341	38.27
193.559	65.52
193.778	77.97
193.996	67.3
194.215	68.38
194.433	74.29
194.652	93.89
194.87	126.05
195.089	215.03
195.307	370.97
195.526	59.76
195.744	119.29
195.963	101.82
196.181	15.9
196.399	-90
196.618	-139.67
196.836	1093.33
197.055	462.5
197.273	-72.32
197.491	-57.14
197.71	86.56
197.928	520
198.146	18.46
198.365	120.97
198.583	125.84
198.801	89.36
199.019	175.53
199.238	234.48
199.456	-497.14
199.674	1064.29
199.892	686.9
200.111	553.73
200.329	977.05
200.547	1186.54
200.765	-639.08
200.983	-433.88
201.202	-341.32
201.42	-1075
201.638	3652.63
201.856	570.18
202.074	-67900
202.292	3857.89
202.51	423
202.728	380.51
202.946	380.85
203.165	228.98
203.383	217.39
203.601	237.62
203.819	253.96
204.037	550.68
204.255	500.64
204.473	511.94
204.691	1314.63
204.909	-311.4
205.127	-42.86
205.345	-84.23
205.562	-36.36
205.78	-33.14
205.998	-134.5
206.216	-113.37
206.434	-109.66
206.652	-82.19
206.87	-183.42
207.088	-85.38
207.306	-19.44
207.523	-37.22
207.741	-15.05
207.959	5.73
208.177	-6.28
208.395	39.96
208.612	44.4
208.83	52.08
209.048	43.68
209.266	56.28
209.483	49.75
209.701	44.53
209.919	47.01
210.136	45.75
210.354	47.95
210.572	62.63
210.79	53.52
211.007	49.22
211.225	66.9
211.442	83.46
211.66	73.43
211.878	44.7
212.095	22.15
212.313	18.84
212.53	23.3
212.748	27.93
212.966	0
213.183	-2.69
213.401	7.89
213.618	-29.81
213.836	-29.46
214.053	-30.76
214.271	-8.35
214.488	-32.26
214.705	-23.95
214.923	-18.33
215.14	-33.93
215.358	-67.32
215.575	-38.67
215.793	-64.66
216.01	-50.91
216.227	-28.69
216.445	-38.66
216.662	-53.16
216.879	-25.35
217.097	-33.19
217.314	-10.3
217.531	-22.29
217.749	12.76
217.966	-24.32
218.183	-53.93
218.4	-17.49
218.618	6.4
218.835	5.42
219.052	4.15
219.269	-2.98
219.487	-15.16
219.704	-25.2
219.921	-3.85
220.138	-12.89
220.355	-16.31
220.572	-10.98
220.79	-14.81
221.007	-20.45
221.224	-23.13
221.441	-16.77
221.658	-17.93
221.875	-3.02
222.092	-5.65
222.309	-19.37
222.526	-18.99
222.743	-13.9
222.96	-11.37
223.177	-17.99
223.394	-19.42
223.611	-7.64
223.828	-5.51
224.045	6.97
224.262	-3.82
224.479	1.84
224.696	12.01
224.913	15.33
225.13	16.75
225.347	12.31
225.564	16.74
225.781	15.49
225.997	9.87
226.214	4.39
226.431	3.68
226.648	6.62
226.865	2.74
227.082	1.07
227.298	0.7
227.515	-1.19
227.732	1.96
227.949	2.59
228.165	2.32
228.382	2.65
228.599	4.1
228.816	3.95
229.032	3.86
229.249	4.88
229.466	4.93
229.682	5.83
229.899	5.02
230.116	4.35
230.332	4.02
230.549	3.99
230.765	5.16
230.982	4.77
231.199	4.9
231.415	3.67
231.632	3.08
231.848	1.4
232.065	0.51
232.281	4.65
232.498	3.69
232.714	2.57
232.931	4.46
233.147	3.74
233.364	4.06
233.58	2.29
233.797	2.77
234.013	4.35
234.23	7.44
234.446	6.21
234.662	3.18
234.879	4.31
235.095	4.62
235.312	1.82
235.528	-0.99
235.744	-3.06
235.961	-0.71
236.177	-0.86
236.393	-3.04
236.61	-4.71
236.826	-5.07
237.042	-1.74
237.258	-1.75
237.475	-0.3
237.691	-0.31
237.907	2.26
238.123	4.55
238.339	2.41
238.556	4.3
238.772	6.48
238.988	6.35
239.204	6.8
239.42	6.11
239.636	5.29
239.853	4.69
240.069	2.97
240.285	1.21
240.501	1.64
240.717	2.7
240.933	1.8
241.149	2.41
241.365	2.84
241.581	3.52
241.797	3.74
242.013	4.33
242.229	4.5
242.445	5.51
242.661	6.08
242.877	5.66
243.093	5.3
243.309	5.99
243.525	4.61
243.741	4.72
243.957	4.07
244.173	3.92
244.388	4.04
244.604	5.01
244.82	5.65
245.036	5.98
245.252	6.78
245.468	6.98
245.683	6.17
245.899	6.75
246.115	6.63
246.331	6.9
246.547	6.63
246.762	6.43
246.978	5.44
247.194	5.09
247.409	4.9
247.625	4.88
247.841	4.7
248.057	4.73
248.272	4.7
248.488	4.49
248.703	4.11
248.919	4.1
249.135	3.34
249.35	3.94
249.566	4.33
249.782	4.56
249.997	4.24
250.213	4.34
250.428	4.53
250.644	4.34
250.859	3.48
251.075	3.77
251.29	4.01
251.506	5.04
251.721	4.49
251.937	4.46
252.152	4.58
252.368	4.66
252.583	4.2
252.798	4.41
253.014	4.25
253.229	4.83
253.445	3.74
253.66	3.08
253.875	2.89
254.091	3.04
254.306	2.56
254.521	0.74
254.737	-0.87
254.952	-1.14
255.167	-1.4
255.383	-1.07
255.598	-0.11
255.813	0.9
256.028	1.63
256.244	0.98
256.459	0.12
256.674	-0.82
256.889	-0.63
257.104	0.66
257.32	1.4
257.535	1.33
257.75	2.34
257.965	1.86
258.18	2.15
258.395	1.67
258.61	2.44
258.826	3.32
259.041	3.69
259.256	4.22
259.471	4.27
259.686	4.29
259.901	4.36
260.116	4.28
260.331	4.33
260.546	4.29
260.761	4.62
260.976	4.14
261.191	3.3
261.406	3.39
261.621	3.61
261.836	3.45
262.05	3.08
262.265	2.63
262.48	2.6
262.695	2.53
262.91	2.84
263.125	2.59
263.34	4.1
263.555	6.06
263.769	5.39
263.984	4.77
264.199	4.88
264.414	5.4
264.629	5.86
264.843	5.08
265.058	4.61
265.273	3.72
265.488	4.15
265.702	3.49
265.917	2.29
266.132	3.01
266.346	3.22
266.561	3.46
266.776	3.39
266.99	3.17
267.205	3.06
267.42	2.86
267.634	3.17
267.849	3.13
268.063	2.9
268.278	3.65
268.492	2.82
268.707	2.74
268.922	2.2
269.136	2.26
269.351	2.97
269.565	3.11
269.78	3.75
269.994	3.39
270.209	3.07
270.423	2.71
270.637	2.13
270.852	2.27
271.066	2.14
271.281	2.49
271.495	1.76
271.709	1.22
271.924	1.12
272.138	1.05
272.353	1.42
272.567	1.92
272.781	1.97
272.996	2.04
273.21	2.32
273.424	2.26
273.638	2.13
273.853	2.82
274.067	2.96
274.281	3.1
274.495	2.53
274.71	2.3
274.924	2.32
275.138	2.79
275.352	2.92
275.566	2.79
275.781	2.83
275.995	2.44
276.209	2.35
276.423	2.54
276.637	2.51
276.851	3.65
277.065	3.9
277.279	3.43
277.493	3.1
277.707	3.14
277.921	3.09
278.135	3.2
278.349	3.22
278.563	3.12
278.777	2.83
278.991	3.44
279.205	3.31
279.419	3.41
279.633	3.16
279.847	3.35
280.061	3.29
280.275	3.38
280.489	3.79
280.703	4.03
280.917	4.32
281.131	4.38
281.344	4.12
281.558	3.7
281.772	3.74
281.986	3.42
282.2	2.94
282.414	2.9
282.627	3.3
282.841	2.75
283.055	2.9
283.269	2.26
283.482	1.91
283.696	1.82
283.91	1.62
284.123	1.35
284.337	1.96
284.551	2.3
284.764	2.44
284.978	2.46
285.192	2.74
285.405	2.3
285.619	2.73
285.833	3.08
286.046	2.78
286.26	3.05
286.473	3.2
286.687	3.2
286.9	2.83
287.114	2.94
287.327	2.37
287.541	2.31
287.754	2.58
287.968	2.57
288.181	2.38
288.395	2.77
288.608	2.73
288.822	2.82
289.035	2.92
289.248	2.89
289.462	2.93
289.675	3.13
289.889	3.3
290.102	3.3
290.315	3.21
290.529	3.6
290.742	3.56
290.955	3.58
291.169	3.59
291.382	3.55
291.595	4.01
291.808	3.94
292.022	3.97
292.235	3.2
292.448	3.57
292.661	3.35
292.875	3.44
293.088	3.39
293.301	3.89
293.514	3.72
293.727	4.02
293.94	4.05
294.153	4.11
294.367	3.95
294.58	4.26
294.793	4.03
295.006	4.15
295.219	3.93
295.432	4.01
295.645	3.59
295.858	3.91
296.071	3.72
296.284	4.03
296.497	4.04
296.71	4.34
296.923	4.5
297.136	4.55
297.349	4.87
297.562	4.61
297.775	4.62
297.988	4.6
298.201	4.37
298.414	4.13
298.626	3.68
298.839	3.24
299.052	3.2
299.265	3.31
299.478	2.87
299.691	2.5
299.903	2.29
300.116	2.43
300.329	2.55
300.542	2.74
300.755	2.9
300.967	3.3
301.18	3.66
301.393	3.38
301.605	3.22
301.818	3.23
302.031	3.15
302.243	3.3
302.456	2.95
302.669	2.63
302.881	2.35
303.094	2.41
303.307	2.14
303.519	1.97
303.732	1.89
303.944	2.12
304.157	2.59
304.37	2.28
304.582	2.82
304.795	2.9
305.007	3.22
305.22	3.61
305.432	3.24
305.645	3.16
305.857	3.56
306.069	3.86
306.282	3.67
306.494	3.5
306.707	3.67
306.919	3.48
307.132	3.64
307.344	4.44
307.556	4.13
307.769	4.21
307.981	4.14
308.193	3.45
308.406	3.54
308.618	3.6
308.83	3.45
309.043	4.03
309.255	3.7
309.467	3.19
309.679	2.74
309.892	3.05
310.104	3.09
310.316	3.27
310.528	3.76
310.74	3.45
310.953	3.29
311.165	3.5
311.377	3.32
311.589	3.56
311.801	4.1
312.013	4.09
312.225	3.7
312.437	3.71
312.649	3.64
312.862	3.17
313.074	3.46
313.286	3.63
313.498	3.55
313.71	3.15
313.922	3.06
314.134	2.9
314.346	2.19
314.558	2.71
314.77	2.88
314.982	3.39
315.193	3.77
315.405	3.58
315.617	3.47
315.829	3.4
316.041	3.98
316.253	3.93
316.465	3.49
316.677	4.13
316.888	3.76
317.1	3.76
317.312	3.37
317.524	3.17
317.736	3.16
317.947	3.85
318.159	3.82
318.371	3.83
318.583	4.47
318.794	4.9
319.006	4.91
319.218	5.03
319.43	5.56
319.641	5.57
319.853	5.8
320.064	6.16
320.276	5.5
320.488	5.43
320.699	5.21
320.911	4.98
321.123	5.3
321.334	5.06
321.546	5.12
321.757	4.4
321.969	4.05
322.18	4.34
322.392	4.2
322.603	4.83
322.815	5.23
323.026	5.27
323.238	5.04
323.449	4.89
323.661	5.41
323.872	5.84
324.083	6.47
324.295	7.01
324.506	7.21
324.718	7.26
324.929	7.38
325.14	7.52
325.352	8
325.563	8.64
325.774	8.84
325.986	9.08
326.197	8.75
326.408	8.8
326.62	8.96
326.831	9.07
327.042	9.61
327.253	9.1
327.464	9.11
327.676	8.74
327.887	8.64
328.098	8.89
328.309	8.85
328.52	9.29
328.732	9.02
328.943	8.29
329.154	8.56
329.365	8.6
329.576	9.45
329.787	9.78
329.998	10.37
330.209	10.25
330.42	10.33
330.631	10.57
330.842	10.66
331.053	11.19
331.264	12.23
331.475	11.82
331.686	11.79
331.897	11.97
332.108	12.31
332.319	12.47
332.53	12.95
332.741	12.88
332.952	13.01
333.163	13.26
333.374	13.35
333.585	13.26
333.795	13.22
334.006	13.51
334.217	13.48
334.428	13.43
334.639	13.06
334.849	12.78
335.06	12.54
335.271	12.69
335.482	12.4
335.692	12.07
335.903	12.26
336.114	12.71
336.325	12.61
336.535	12.62
336.746	12.65
336.957	12.8
337.167	12.72
337.378	13.2
337.589	12.84
337.799	12.81
338.01	13.47
338.22	13.1
338.431	13.32
338.642	13.15
338.852	13.16
339.063	13.1
339.273	13.13
339.484	13.22
339.694	13.14
339.905	13.26
340.115	13.63
340.326	13.21
340.536	13.05
340.746	12.88
340.957	12.86
341.167	12.93
341.378	13.32
341.588	13.56
341.799	13.45
342.009	13.38
342.219	13.33
342.43	13.27
342.64	13.52
342.85	14.2
343.061	14.01
343.271	14.39
343.481	13.84
343.691	13.92
343.902	14.12
344.112	13.72
344.322	13.75
344.532	13.92
344.743	13.93
344.953	13.51
345.163	12.97
345.373	13
345.583	12.9
345.793	13.4
346.004	13
346.214	12.7
346.424	13.46
346.634	13.98
346.844	13.48
347.054	13.37
347.264	13.65
347.474	14.26
347.684	14.47
347.894	14.56
348.104	14.24
348.314	14.1
348.524	14.05
348.734	14.05
348.944	13.76
349.154	14.23
349.364	14.04
349.574	14.13
349.784	13.57
349.994	13.9
350.204	13.75
350.413	13.95
350.623	14.07
350.833	13.82
351.043	13.82
351.253	13.81
351.463	13.95
351.672	14.38
351.882	14.2
352.092	14.6
352.302	13.85
352.511	13.76
352.721	13.63
352.931	13.65
353.141	13.75
353.35	13.22
353.56	12.95
353.77	12.85
353.979	12.84
354.189	12.94
354.399	12.78
354.608	13.28
354.818	13.29
355.027	13.4
355.237	13.15
355.447	13.42
355.656	13.56
355.866	13.56
356.075	13.45
356.285	13.07
356.494	12.98
356.704	12.68
356.913	12.07
357.123	12.09
357.332	12.19
357.542	12.34
357.751	12.15
357.96	12.33
358.17	12.6
358.379	12.71
358.589	13.05
358.798	13.09
359.007	13.36
359.217	14
359.426	14.02
359.635	14.04
359.845	13.97
360.054	14.38
360.263	14.27
360.472	14.11
360.682	14.07
360.891	13.74
361.1	13.53
361.309	13.45
361.519	13.31
361.728	13.46
361.937	13.14
362.146	13.27
362.355	13.06
362.564	13.15
362.774	13.08
362.983	13.05
363.192	13.37
363.401	13.39
363.61	13.54
363.819	13.45
364.028	13.06
364.237	13.02
364.446	12.89
364.655	12.64
364.864	12.77
365.073	12.5
365.282	12.43
365.491	12.03
365.7	11.99
365.909	11.77
366.118	11.85
366.327	12.06
366.536	12.62
366.745	12.63
366.954	12.75
367.162	12.57
367.371	12.65
367.58	12.62
367.789	12.86
367.998	13.36
368.207	13.69
368.415	13.66
368.624	13.66
368.833	13.13
369.042	13.12
369.25	13.06
369.459	13.06
369.668	13.1
369.877	13.13
370.085	13
370.294	12.86
370.503	12.67
370.711	12.68
370.92	12.6
371.129	12.85
371.337	12.83
371.546	12.75
371.754	12.42
371.963	12.35
372.171	12.28
372.38	12.4
372.589	12.34
372.797	12.43
373.006	12.27
373.214	12.27
373.423	12.24
373.631	12.29
373.84	12.28
374.048	12.72
374.256	13
374.465	13.06
374.673	13
374.882	12.9
375.09	12.81
375.298	12.57
375.507	12.47
375.715	12.35
375.923	12.26
376.132	12.65
376.34	12.43
376.548	12.56
376.757	12.42
376.965	12.49
377.173	12.54
377.381	12.59
377.59	12.68
377.798	12.84
378.006	12.82
378.214	12.86
378.423	12.45
378.631	12.43
378.839	12.07
379.047	12.12
379.255	11.91
379.463	11.95
379.671	11.99
379.879	12.33
380.088	12.35
380.296	12.23
380.504	12.25
380.712	12.49
380.92	12.55
381.128	12.79
381.336	12.83
381.544	12.94
381.752	12.8
381.96	12.57
382.168	12.45
382.376	12.6
382.584	12.48
382.791	12.41
382.999	12.19
383.207	12.39
383.415	12.26
383.623	12.61
383.831	12.7
384.039	12.78
384.247	12.82
384.454	12.62
384.662	12.52
384.87	12.8
385.078	12.76
385.285	12.84
385.493	12.52
385.701	12.54
385.909	12.03
386.116	11.98
386.324	12.25
386.532	12.18
386.739	12.3
386.947	12.27
387.155	12.26
387.362	12.15
387.57	12.12
387.778	12.08
387.985	12.31
388.193	12.62
388.4	12.44
388.608	12.39
388.816	12.57
389.023	12.58
389.231	12.59
389.438	12.63
389.646	13.06
389.853	13.02
390.061	13.21
390.268	12.83
390.475	12.84
390.683	12.98
390.89	12.82
391.098	12.69
391.305	12.7
391.512	12.42
391.72	12.43
391.927	12.32
392.135	12.3
392.342	12.28
392.549	12.5
392.756	12.52
392.964	12.45
393.171	12.35
393.378	12.5
393.586	12.5
393.793	12.75
394	12.64
394.207	12.61
394.414	12.72
394.622	12.66
394.829	12.6
395.036	12.46
395.243	12.61
395.45	12.51
395.657	12.34
395.864	12.43
396.072	12.36
396.279	12.34
396.486	12.12
396.693	12.2
396.9	12.25
397.107	12.12
397.314	12.1
397.521	11.91
397.728	12.11
397.935	12.01
398.142	11.96
398.349	12.2
398.556	12.05
398.763	12.19
398.97	12.21
399.177	12.11
399.383	12.39
399.59	12.12
399.797	12.28
400.004	12.26
400.211	12.45
400.418	12.5
400.625	12.44
400.831	12.78
401.038	12.87
401.245	13.03
401.452	13.08
401.658	12.95
401.865	13.44
402.072	13.58
402.279	13.73
402.485	13.78
402.692	13.86
402.899	13.99
403.105	14.09
403.312	14.17
403.519	13.84
403.725	13.87
403.932	13.98
404.138	13.73
404.345	13.59
404.552	13.67
404.758	13.52
404.965	13.51
405.171	13.37
405.378	13.08
405.584	12.94
405.791	13.14
405.997	13.12
406.204	12.89
406.41	13.1
406.617	12.91
406.823	12.63
407.029	12.84
407.236	12.93
407.442	12.87
407.649	13.2
407.855	13.52
408.061	13.26
408.268	13.35
408.474	13.36
408.68	13.23
408.887	13.25
409.093	13.57
409.299	13.68
409.505	13.58
409.712	13.45
409.918	13.09
410.124	12.99
410.33	13.08
410.537	12.96
410.743	13.38
410.949	13.46
411.155	13.63
411.361	13.37
411.567	13.26
411.773	13.36
411.98	13.62
412.186	13.81
412.392	13.84
412.598	13.88
412.804	13.94
413.01	13.76
413.216	13.82
413.422	13.65
413.628	13.85
413.834	13.67
414.04	13.64
414.246	13.57
414.452	13.49
414.658	13.46
414.864	13.49
415.07	13.67
415.275	13.68
415.481	13.7
415.687	13.79
415.893	13.76
416.099	13.77
416.305	13.56
416.511	13.75
416.716	13.97
416.922	13.96
417.128	14.03
417.334	13.93
417.539	13.94
417.745	13.88
417.951	13.96
418.157	13.96
418.362	14.16
418.568	14.23
418.774	14.14
418.979	14.11
419.185	14.13
419.391	14.25
419.596	14.3
419.802	14.3
420.008	14.47
420.213	14.56
420.419	14.75
420.624	14.68
420.83	14.8
421.035	14.83
421.241	14.85
421.446	14.92
421.652	14.77
421.857	14.72
422.063	14.66
422.268	14.59
422.474	14.56
422.679	14.4
422.885	14.46
423.09	14.42
423.295	14.44
423.501	14.49
423.706	14.44
423.911	14.53
424.117	14.6
424.322	14.69
424.527	14.62
424.733	14.59
424.938	14.62
425.143	14.57
425.349	14.57
425.554	14.49
425.759	14.58
425.964	14.52
426.169	14.53
426.375	14.39
426.58	14.28
426.785	14.34
426.99	14.47
427.195	14.36
427.4	14.48
427.605	14.43
427.811	14.44
428.016	14.21
428.221	14.21
428.426	14.16
428.631	14.36
428.836	14.51
429.041	14.49
429.246	14.39
429.451	14.46
429.656	14.47
429.861	14.42
430.066	14.46
430.271	14.52
430.476	14.63
430.681	14.6
430.886	14.64
431.09	14.62
431.295	14.49
431.5	14.56
431.705	14.53
431.91	14.46
432.115	14.43
432.32	14.41
432.524	14.41
432.729	14.41
432.934	14.35
433.139	14.37
433.343	14.46
433.548	14.57
433.753	14.63
433.958	14.71
434.162	14.68
434.367	14.92
434.572	14.92
434.776	14.92
434.981	14.96
435.186	15.07
435.39	15.03
435.595	15
435.799	15.05
436.004	14.91
436.209	14.89
436.413	14.9
436.618	14.67
436.822	14.81
437.027	15
437.231	14.94
437.436	14.93
437.64	15.01
437.845	14.89
438.049	14.93
438.253	14.97
438.458	14.92
438.662	14.91
438.867	15.09
439.071	15.02
439.275	14.89
439.48	14.9
439.684	14.97
439.888	14.87
440.093	14.94
440.297	14.95
440.501	14.94
440.706	15
440.91	15.08
441.114	15.12
441.318	15.11
441.523	15.18
441.727	15.08
441.931	14.98
442.135	15.07
442.339	15.14
442.543	15.09
442.748	15.04
442.952	15.07
443.156	15.17
443.36	15
443.564	14.94
443.768	14.84
443.972	15.02
444.176	15
444.38	14.92
444.584	14.91
444.788	14.94
444.992	15.01
445.196	15.01
445.4	14.79
445.604	14.81
445.808	14.92
446.012	14.96
446.216	14.95
446.42	15.07
446.624	15.07
446.828	15
447.032	14.99
447.235	15.04
447.439	14.92
447.643	15.02
447.847	15.12
448.051	15.11
448.254	15.06
448.458	15.01
448.662	14.86
448.866	14.85
449.069	14.81
449.273	14.91
449.477	14.81
449.681	14.92
449.884	14.99
450.088	14.86
450.292	14.79
450.495	14.83
450.699	14.98
450.902	15.04
451.106	15.15
451.31	15.25
451.513	15.19
451.717	15.25
451.92	15.23
452.124	15.14
452.327	15.11
452.531	15.03
452.734	14.96
452.938	14.84
453.141	14.83
453.345	14.76
453.548	14.77
453.752	14.65
453.955	14.63
454.158	14.66
454.362	14.72
454.565	14.77
454.769	14.97
454.972	15.09
455.175	15.02
455.379	14.95
455.582	14.89
455.785	14.74
455.988	14.91
456.192	15.04
456.395	15.04
456.598	14.94
456.801	14.83
457.005	14.75
457.208	14.71
457.411	14.74
457.614	14.76
457.817	15
458.021	15.14
458.224	15.03
458.427	15.01
458.63	15.02
458.833	15.05
459.036	15.13
459.239	15.12
459.442	15.12
459.645	15.13
459.848	15.19
460.051	15.13
460.254	15.17
460.457	15.19
460.66	15.15
460.863	15.14
461.066	15.12
461.269	15.04
461.472	15.09
461.675	15.07
461.878	15.06
462.081	15.02
462.284	14.89
462.486	14.66
462.689	14.79
462.892	14.7
463.095	14.72
463.298	14.8
463.5	14.88
463.703	14.84
463.906	14.96
464.109	14.99
464.311	14.92
464.514	15
464.717	15.17
464.92	15.14
465.122	15.17
465.325	15.11
465.528	14.97
465.73	14.98
465.933	14.98
466.135	14.89
466.338	14.92
466.541	15.12
466.743	15.13
466.946	15
467.148	15.01
467.351	15.11
467.553	14.97
467.756	15.05
467.958	15.07
468.161	15.08
468.363	15.15
468.566	15.14
468.768	15.06
468.971	15.02
469.173	15.08
469.375	15.04
469.578	15.04
469.78	15.1
469.983	15.17
470.185	15.36
470.387	15.43
470.59	15.37
470.792	15.48
470.994	15.57
471.196	15.54
471.399	15.61
471.601	15.56
471.803	15.51
472.005	15.73
472.208	15.62
472.41	15.49
472.612	15.29
472.814	15.33
473.016	15.28
473.218	15.14
473.421	15.32
473.623	15.36
473.825	15.43
474.027	15.42
474.229	15.41
474.431	15.52
474.633	15.49
474.835	15.62
475.037	15.68
475.239	15.65
475.441	15.73
475.643	15.55
475.845	15.38
476.047	15.34
476.249	15.52
476.451	15.46
476.653	15.38
476.855	15.35
477.057	15.37
477.258	15.28
477.46	15.3
477.662	15.23
477.864	15.2
478.066	15.26
478.268	15.17
478.469	14.99
478.671	14.91
478.873	14.91
479.075	14.98
479.276	14.9
479.478	14.86
479.68	14.88
479.882	14.92
480.083	15.08
480.285	15.19
480.487	15.29
480.688	15.31
480.89	15.33
481.091	15.4
481.293	15.4
481.495	15.51
481.696	15.6
481.898	15.59
482.099	15.58
482.301	15.58
482.502	15.56
482.704	15.59
482.905	15.61
483.107	15.65
483.308	15.62
483.51	15.62
483.711	15.6
483.913	15.58
484.114	15.59
484.315	15.58
484.517	15.58
484.718	15.55
484.92	15.55
485.121	15.53
485.322	15.51
485.524	15.51
485.725	15.51
485.926	15.48
486.127	15.48
486.329	15.45
486.53	15.45
486.731	15.44
486.932	15.5
487.134	15.51
487.335	15.51
487.536	15.54
487.737	15.58
487.938	15.61
488.139	15.65
488.341	15.67
488.542	15.72
488.743	15.75
488.944	15.75
489.145	15.78
489.346	15.72
489.547	15.75
489.748	15.73
489.949	15.69
490.15	15.68
490.351	15.65
490.552	15.61
490.753	15.64
490.954	15.61
491.155	15.63
491.356	15.61
491.557	15.63
491.758	15.6
491.959	15.61
492.159	15.68
492.36	15.71
492.561	15.71
492.762	15.77
492.963	15.69
493.164	15.71
493.364	15.72
493.565	15.78
493.766	15.82
493.967	15.89
494.167	15.87
494.368	15.84
494.569	15.78
494.769	15.79
494.97	15.74
495.171	15.84
495.371	15.97
495.572	15.96
495.773	15.98
495.973	15.98
496.174	15.93
496.375	16.03
496.575	16.02
496.776	15.98
496.976	16.1
497.177	16.12
497.377	16.07
497.578	15.93
497.778	15.89
497.979	15.89
498.179	15.89
498.38	15.91
498.58	15.82
498.78	15.75
498.981	15.8
499.181	15.73
499.382	15.74
499.582	15.8
499.782	15.97
499.983	15.99
500.183	15.89
500.383	15.87
500.584	15.89
500.784	15.99
500.984	16.09
501.184	16.09
501.385	16.04
501.585	16.01
501.785	16.03
501.985	15.92
502.185	16.01
502.386	16.11
502.586	16.14
502.786	16.16
502.986	16.27
503.186	16.36
503.386	16.31
503.586	16.36
503.786	16.52
503.987	16.38
504.187	16.43
504.387	16.39
504.587	16.36
504.787	16.33
504.987	16.41
505.187	16.38
505.387	16.31
505.587	16.54
505.786	16.62
505.986	16.61
506.186	16.77
506.386	16.7
506.586	16.72
506.786	16.74
506.986	16.82
507.186	16.72
507.386	16.71
507.585	16.74
507.785	16.64
507.985	16.63
508.185	16.72
508.384	16.78
508.584	16.83
508.784	16.92
508.984	16.96
509.183	16.88
509.383	17.05
509.583	16.97
509.782	16.96
509.982	17.05
510.182	17.17
510.381	17.08
510.581	17.08
510.781	17.19
510.98	17.16
511.18	17.11
511.379	17.17
511.579	17.2
511.778	17.26
511.978	17.26
512.177	17.18
512.377	17.13
512.576	17.12
512.776	17.2
512.975	17.18
513.175	17.18
513.374	17.3
513.573	17.38
513.773	17.36
513.972	17.4
514.172	17.45
514.371	17.45
514.57	17.43
514.77	17.46
514.969	17.47
515.168	17.42
515.367	17.44
515.567	17.23
515.766	17.15
515.965	17.1
516.164	17.06
516.364	17.07
516.563	17.11
516.762	17.18
516.961	17.31
517.16	17.28
517.359	17.33
517.559	17.42
517.758	17.57
517.957	17.69
518.156	17.7
518.355	17.74
518.554	17.75
518.753	17.76
518.952	17.79
519.151	17.71
519.35	17.71
519.549	17.64
519.748	17.55
519.947	17.55
520.146	17.56
520.345	17.68
520.544	17.62
520.743	17.64
520.942	17.65
521.141	17.58
521.339	17.52
521.538	17.56
521.737	17.62
521.936	17.73
522.135	17.67
522.333	17.63
522.532	17.54
522.731	17.73
522.93	17.71
523.129	17.8
523.327	17.83
523.526	17.98
523.725	17.98
523.923	18.06
524.122	18.09
524.321	18.19
524.519	18.19
524.718	18.24
524.917	18.22
525.115	18.19
525.314	18.15
525.512	18.09
525.711	18.07
525.909	18.1
526.108	18.12
526.306	18.16
526.505	18.24
526.703	18.28
526.902	18.3
527.1	18.31
527.299	18.39
527.497	18.39
527.696	18.47
527.894	18.48
528.092	18.51
528.291	18.52
528.489	18.47
528.688	18.42
528.886	18.47
529.084	18.46
529.283	18.46
529.481	18.5
529.679	18.5
529.877	18.49
530.076	18.53
530.274	18.51
530.472	18.52
530.67	18.56
530.869	18.6
531.067	18.56
531.265	18.57
531.463	18.59
531.661	18.57
531.859	18.73
532.057	18.76
532.255	18.79
532.454	18.83
532.652	18.86
532.85	18.89
533.048	18.89
533.246	18.87
533.444	18.93
533.642	19.03
533.84	19.04
534.038	18.99
534.236	19.04
534.434	19.01
534.632	19.08
534.83	19.08
535.027	19.07
535.225	19.08
535.423	19.16
535.621	19.16
535.819	19.07
536.017	19.06
536.215	19.05
536.412	19.01
536.61	19.04
536.808	18.96
537.006	18.93
537.203	18.98
537.401	19.03
537.599	19.05
537.797	19.05
537.994	19.11
538.192	19.18
538.39	19.23
538.587	19.27
538.785	19.37
538.983	19.52
539.18	19.66
539.378	19.75
539.575	19.83
539.773	19.89
539.97	19.94
540.168	20.06
540.366	20.17
540.563	20.17
540.761	20.21
540.958	20.15
541.155	20.15
541.353	20.17
541.55	20.16
541.748	20.19
541.945	20.2
542.143	20.2
542.34	20.16
542.537	20.21
542.735	20.2
542.932	20.27
543.129	20.36
543.327	20.46
543.524	20.5
543.721	20.61
543.919	20.72
544.116	20.82
544.313	20.93
544.51	21.06
544.708	21.08
544.905	21.34
545.102	21.36
545.299	21.43
545.496	21.46
545.693	21.55
545.891	21.59
546.088	21.48
546.285	21.54
546.482	21.5
546.679	21.45
546.876	21.35
547.073	21.21
547.27	21.3
547.467	21.21
547.664	21.15
547.861	21.1
548.058	20.99
548.255	21
548.452	20.81
548.649	20.76
548.846	20.8
549.043	20.71
549.24	20.64
549.437	20.41
549.633	20.45
549.83	20.34
550.027	20.19
550.224	20.21
550.421	20.32
550.618	20.26
550.814	20.39
551.011	20.28
551.208	20.35
551.405	20.34
551.601	20.42
551.798	20.42
551.995	20.46
552.191	20.48
552.388	20.42
552.585	20.25
552.781	20.19
552.978	20.1
553.175	20.01
553.371	19.98
553.568	20.16
553.764	20.15
553.961	20
554.157	20.07
554.354	20.06
554.55	19.95
554.747	20.08
554.943	20.22
555.14	20.19
555.336	20.25
555.533	20.18
555.729	19.99
555.926	20.03
556.122	20.1
556.318	20.05
556.515	19.91
556.711	19.99
556.907	19.85
557.104	19.78
557.3	19.81
557.496	19.88
557.693	19.96
557.889	20.03
558.085	20.08
558.281	20.08
558.478	20.07
558.674	20.2
558.87	20.2
559.066	20.27
559.262	20.38
559.459	20.32
559.655	20.24
559.851	20.13
560.047	20.01
560.243	19.91
560.439	19.86
560.635	19.86
560.831	19.87
561.027	20.02
561.223	19.98
561.419	20.15
561.615	20.33
561.811	20.33
562.007	20.34
562.203	20.39
562.399	20.48
562.595	20.61
562.791	20.63
562.987	20.72
563.183	20.66
563.379	20.81
563.575	20.54
563.771	20.49
563.966	20.52
564.162	20.69
564.358	20.68
564.554	20.72
564.75	20.63
564.945	20.67
565.141	20.61
565.337	20.54
565.533	20.5
565.728	20.5
565.924	20.45
566.12	20.46
566.315	20.39
566.511	20.49
566.707	20.4
566.902	20.5
567.098	20.34
567.293	20.34
567.489	20.4
567.684	20.38
567.88	20.41
568.076	20.41
568.271	20.39
568.467	20.45
568.662	20.43
568.858	20.36
569.053	20.26
569.248	20.48
569.444	20.43
569.639	20.48
569.835	20.55
570.03	20.71
570.225	20.67
570.421	20.8
570.616	20.74
570.812	20.73
571.007	20.8
571.202	20.75
571.397	20.64
571.593	20.71
571.788	20.73
571.983	20.63
572.178	20.58
572.374	20.55
572.569	20.4
572.764	20.4
572.959	20.31
573.154	20.34
573.35	20.29
573.545	20.39
573.74	20.42
573.935	20.29
574.13	20.32
574.325	20.24
574.52	20.51
574.715	20.53
574.91	20.54
575.105	20.71
575.3	20.69
575.495	20.82
575.69	20.87
575.885	20.88
576.08	21.1
576.275	21.08
576.47	21.11
576.665	20.87
576.86	20.91
577.055	21.02
577.25	20.96
577.444	21.02
577.639	21.25
577.834	21.41
578.029	21.5
578.224	21.27
578.418	21.35
578.613	21.52
578.808	21.73
579.003	21.84
579.197	21.78
579.392	21.77
579.587	21.83
579.781	21.76
579.976	21.58
580.171	21.65
580.365	21.81
580.56	22.02
580.755	22
580.949	21.91
581.144	21.96
581.338	22.09
581.533	22.07
581.727	22.11
581.922	22.08
582.116	22.07
582.311	22.01
582.505	22.04
582.7	21.87
582.894	21.84
583.089	21.99
583.283	21.98
583.478	21.99
583.672	22.13
583.866	22.13
584.061	22.06
584.255	22.04
584.449	22.09
584.644	22.01
584.838	21.96
585.032	22.05
585.226	22.03
585.421	22.18
585.615	22.08
585.809	22.22
586.003	22.17
586.198	22.31
586.392	22.18
586.586	22.04
586.78	22.31
586.974	22.4
587.168	22.44
587.363	22.31
587.557	22.16
587.751	22.14
587.945	21.9
588.139	21.94
588.333	21.85
588.527	21.91
588.721	22
588.915	21.68
589.109	21.71
589.303	21.5
589.497	21.49
589.691	21.49
589.885	21.58
590.079	21.78
590.273	21.55
590.466	21.52
590.66	21.8
590.854	21.78
591.048	21.93
591.242	21.99
591.436	22.09
591.629	22.21
591.823	22.31
592.017	22.26
592.211	22.18
592.404	22.43
592.598	22.55
592.792	22.24
592.986	22.23
593.179	22.25
593.373	22.17
593.567	22.16
593.76	22.16
593.954	22.19
594.147	22.14
594.341	22.2
594.535	22.29
594.728	22.19
594.922	22.38
595.115	22.35
595.309	22.36
595.502	22.35
595.696	22.46
595.889	22.27
596.083	22.14
596.276	22.31
596.47	22.27
596.663	22.22
596.856	22.24
597.05	22.19
597.243	22.25
597.437	22.21
597.63	22.23
597.823	22.11
598.017	22.33
598.21	22.35
598.403	22.26
598.596	22.23
598.79	22.26
598.983	22.32
599.176	22.24
599.369	22.05
599.563	22.1
599.756	22.09
599.949	22.15
600.142	22.04
600.335	21.99
600.528	21.85
600.722	21.88
600.915	21.67
601.108	21.69
601.301	21.85
601.494	22.03
601.687	21.97
601.88	21.88
602.073	21.9
602.266	21.97
602.459	22.1
602.652	22.18
602.845	22.19
603.038	22.23
603.231	22.21
603.424	22.28
603.617	22.28
603.809	22.29
604.002	22.29
604.195	22.22
604.388	22.33
604.581	22.28
604.774	22.3
604.966	22.28
605.159	22.32
605.352	22.27
605.545	22.11
605.737	22.05
605.93	21.95
606.123	22.05
606.316	22.21
606.508	22.14
606.701	22.27
606.894	22.59
607.086	22.49
607.279	22.76
607.471	22.97
607.664	23.06
607.857	23.17
608.049	23.66
608.242	23.95
608.434	24.33
608.627	24.72
608.819	25.16
609.012	25.51
609.204	26.36
609.397	26.96
609.589	27.68
609.782	28.75
609.974	29.74
610.166	30.52
610.359	31.24
610.551	31.82
610.743	32.59
610.936	33.31
611.128	33.97
611.32	34.16
611.513	34.45
611.705	34.41
611.897	34.1
612.09	33.7
612.282	33.16
612.474	33.01
612.666	32.57
612.858	31.88
613.051	31.31
613.243	30.7
613.435	30.42
613.627	29.76
613.819	29.53
614.011	29.14
614.203	28.97
614.395	28.75
614.588	28.3
614.78	28.16
614.972	28.01
615.164	27.61
615.356	27.28
615.548	26.86
615.74	26.51
615.932	26.18
616.124	26.01
616.315	25.76
616.507	25.48
616.699	25.14
616.891	24.84
617.083	24.5
617.275	24.25
617.467	23.97
617.659	23.97
617.85	24.27
618.042	24.2
618.234	24.05
618.426	23.9
618.618	23.94
618.809	23.91
619.001	23.9
619.193	24.09
619.384	24.17
619.576	24.03
619.768	23.9
619.959	23.58
620.151	23.42
620.343	23.51
620.534	23.57
620.726	23.5
620.917	23.35
621.109	23.37
621.301	23.19
621.492	23.27
621.684	23.56
621.875	23.61
622.067	23.68
622.258	23.72
622.45	23.76
622.641	23.7
622.832	23.84
623.024	23.99
623.215	24.01
623.407	23.98
623.598	24.38
623.789	24.52
623.981	24.64
624.172	24.61
624.363	24.66
624.555	24.62
624.746	24.76
624.937	24.87
625.129	24.86
625.32	24.8
625.511	24.78
625.702	24.26
625.893	24.02
626.085	23.99
626.276	24.1
626.467	24.3
626.658	24.23
626.849	24.1
627.04	24.06
627.231	24.17
627.422	24.1
627.614	24
627.805	24.03
627.996	24.04
628.187	23.99
628.378	23.96
628.569	24.05
628.76	24.14
628.951	24.33
629.142	24.33
629.332	24.42
629.523	24.58
629.714	24.76
629.905	24.97
630.096	25.15
630.287	25.3
630.478	25.43
630.669	25.21
630.859	25.22
631.05	25.09
631.241	25.07
631.432	25.16
631.623	24.93
631.813	24.92
632.004	24.88
632.195	24.76
632.385	24.58
632.576	24.14
632.767	24.02
632.957	23.93
633.148	23.89
633.339	23.76
633.529	23.5
633.72	23.56
633.91	23.56
634.101	23.56
634.292	23.39
634.482	23.38
634.673	23.72
634.863	23.63
635.054	23.57
635.244	23.54
635.435	23.58
635.625	23.72
635.815	23.83
636.006	23.96
636.196	23.95
636.387	24.14
636.577	24.09
636.767	23.92
636.958	24.07
637.148	24.22
637.338	24.06
637.529	24.18
637.719	24.08
637.909	23.99
638.099	23.63
638.29	23.37
638.48	23.24
638.67	23.33
638.86	23.4
639.05	23.05
639.241	22.56
639.431	22.66
639.621	22.38
639.811	22.34
640.001	22.2
640.191	22.51
640.381	22.76
640.571	22.71
640.761	22.61
640.951	22.6
641.141	22.86
641.331	23.33
641.521	23.43
641.711	23.81
641.901	23.65
642.091	23.71
642.281	23.69
642.471	23.41
642.661	23.47
642.851	23.64
643.041	23.69
643.231	23.76
643.42	23.91
643.61	23.72
643.8	23.2
643.99	23.2
644.18	23.32
644.369	23.39
644.559	23.26
644.749	23.17
644.939	23.02
645.128	22.88
645.318	22.95
645.508	22.97
645.697	23.1
645.887	23.34
646.076	23.45
646.266	23.43
646.456	23
646.645	23.57
646.835	24.02
647.024	23.99
647.214	23.74
647.403	23.82
647.593	23.58
647.782	23.82
647.972	24.07
648.161	24.07
648.351	24.16
648.54	24.64
648.73	24.44
648.919	24.14
649.108	24.35
649.298	24.73
649.487	24.67
649.677	24.84
649.866	24.62
650.055	24.6
650.244	24.5
650.434	24.64
650.623	24.64
650.812	24.9
651.002	24.88
651.191	24.92
651.38	24.99
651.569	24.85
651.758	24.73
651.947	24.98
652.137	25.24
652.326	25.38
652.515	25.24
652.704	25.3
652.893	25
653.082	25.06
653.271	24.91
653.46	24.81
653.649	24.98
653.838	24.81
654.027	24.79
654.216	24.36
654.405	24.27
654.594	24.07
654.783	23.73
654.972	23.75
655.161	23.68
655.35	23.76
655.539	23.63
655.728	23.7
655.916	23.87
656.105	23.74
656.294	23.68
656.483	23.9
656.672	24.31
656.86	24.43
657.049	24.32
657.238	24.32
657.427	24.32
657.615	24.27
657.804	24.04
657.993	23.86
658.181	23.91
658.37	23.83
658.559	24.11
658.747	23.86
658.936	23.82
659.125	24
659.313	24.07
659.502	24.1
659.69	24.13
659.879	24.34
660.067	24.67
660.256	24.7
660.444	25.13
660.633	25.11
660.821	25.21
661.01	25.37
661.198	25.59
661.387	25.83
661.575	25.69
661.763	25.63
661.952	25.52
662.14	25.45
662.328	25.6
662.517	25.29
662.705	25.01
662.893	25.13
663.082	24.84
663.27	24.65
663.458	24.57
663.646	24.64
663.834	24.91
664.023	24.9
664.211	25.03
664.399	24.65
664.587	24.67
664.775	24.7
664.963	24.36
665.152	24.56
665.34	24.53
665.528	24.42
665.716	24.71
665.904	24.73
666.092	25.1
666.28	24.85
666.468	25.24
666.656	25.26
666.844	25.37
667.032	25.71
667.22	25.94
667.408	25.92
667.596	26.38
667.784	26.25
667.971	26.04
668.159	25.74
668.347	26
668.535	25.74
668.723	26.01
668.911	26.06
669.098	26.11
669.286	25.96
669.474	26.14
669.662	25.57
669.849	25.48
670.037	25.9
670.225	26.11
670.413	26.13
670.6	26.48
670.788	26.1
670.976	26
671.163	25.91
671.351	25.93
671.538	25.7
671.726	25.88
671.913	26.19
672.101	25.91
672.289	25.94
672.476	25.9
672.664	25.69
672.851	25.74
673.039	25.44
673.226	25.34
673.413	25.51
673.601	25.66
673.788	25.4
673.976	25.32
674.163	25.73
674.35	25.74
674.538	25.52
674.725	25.52
674.912	25.48
675.1	25.81
675.287	25.63
675.474	25.7
675.662	25.62
675.849	25.77
676.036	25.55
676.223	25.54
676.411	25.24
676.598	25.33
676.785	25.59
676.972	25.77
677.159	25.84
677.346	26.27
677.533	26.29
677.721	26.35
677.908	26.3
678.095	26.43
678.282	26.17
678.469	26.39
678.656	26.43
678.843	26.2
679.03	26.04
679.217	26.16
679.404	25.98
679.591	25.76
679.778	25.67
679.964	25.84
680.151	25.64
680.338	25.66
680.525	25.51
680.712	25.4
680.899	25.41
681.086	25.68
681.272	25.68
681.459	25.64
681.646	25.78
681.833	25.58
682.02	25.67
682.206	25.64
682.393	25.37
682.58	25.73
682.766	26.09
682.953	26
683.14	25.85
683.326	25.5
683.513	25.49
683.7	25.48
683.886	25.69
684.073	25.81
684.259	26.07
684.446	26.38
684.632	26.02
684.819	25.74
685.005	26.13
685.192	26.3
685.378	26.48
685.565	26.82
685.751	27.01
685.938	27.38
686.124	27.02
686.31	27.31
686.497	27.57
686.683	27.52
686.87	27.76
687.056	27.62
687.242	27.62
687.429	28
687.615	27.97
687.801	27.5
687.987	27.27
688.174	27.57
688.36	27.52
688.546	27.09
688.732	27.62
688.918	27.38
689.105	27.55
689.291	27.61
689.477	27.5
689.663	27.21
689.849	27.4
690.035	27.53
690.221	27.36
690.407	27.09
690.593	27.15
690.779	26.82
690.965	26.88
691.151	26.83
691.337	26.8
691.523	26.49
691.709	26.93
691.895	27.1
692.081	27.08
692.267	27.36
692.453	27.65
692.639	28.02
692.825	28.3
693.011	28.63
693.196	28.37
693.382	28.23
693.568	28.51
693.754	28.37
693.94	28.47
694.125	28.78
694.311	28.7
694.497	28.55
694.682	28.22
694.868	27.75
695.054	27.3
695.239	27.64
695.425	27.77
695.611	27.62
695.796	27.37
695.982	27.34
696.168	27.13
696.353	26.94
696.539	26.82
696.724	27.07
696.91	27.27
697.095	27.59
697.281	27.44
697.466	27.3
697.652	27.4
697.837	27.7
698.023	27.52
698.208	27.25
698.393	27.2
698.579	27.51
698.764	27.49
698.949	27.29
699.135	27.16
699.32	27.17
699.505	27.36
699.691	27.38
699.876	27.34
700.061	27.19
700.246	27.25
700.432	27.31
700.617	26.81
700.802	26.9
700.987	27.34
701.172	27.55
701.358	27.58
701.543	27.15
701.728	27.36
701.913	26.77
702.098	27
702.283	27.45
702.468	27.28
702.653	27.71
702.838	27.69
703.023	27.54
703.208	27.09
703.393	27.25
703.578	27.73
703.763	27.5
703.948	28.34
704.133	28.69
704.318	28.48
704.503	29.07
704.688	29.54
704.873	29.49
705.057	29.75
705.242	30.06
705.427	29.75
705.612	30.32
705.797	30.76
705.981	30.88
706.166	31.32
706.351	31.56
706.536	31.53
706.72	31.53
706.905	31.64
707.09	31.85
707.274	32.08
707.459	32.42
707.644	32.7
707.828	32.27
708.013	32.65
708.197	32.42
708.382	32.54
708.567	32.63
708.751	32.55
708.936	32.62
709.12	32.48
709.305	32.05
709.489	31.99
709.673	31.1
709.858	30.88
710.042	30.35
710.227	30.47
710.411	30.4
710.596	30.91
710.78	31.08
710.964	31.31
711.149	31.1
711.333	31.57
711.517	31.8
711.702	31.9
711.886	32.13
712.07	32.39
712.254	31.95
712.438	31.75
712.623	31.24
712.807	31.01
712.991	30.19
713.175	30.41
713.359	29.86
713.544	29.56
713.728	29.51
713.912	29.55
714.096	29.16
714.28	29.16
714.464	29.39
714.648	29.21
714.832	28.5
715.016	28.89
715.2	28.8
715.384	29.01
715.568	28.89
715.752	29.3
715.936	29.61
716.12	29.56
716.304	29.67
716.488	29.43
716.671	29.39
716.855	29.71
717.039	29.64
717.223	29.65
717.407	29.9
717.59	30.55
717.774	30.17
717.958	30.06
718.142	30.06
718.325	29.9
718.509	30.4
718.693	30.48
718.877	30.65
719.06	30.93
719.244	30.37
719.428	30.72
719.611	30.7
719.795	30.54
719.978	30.23
720.162	30.55
720.345	30.42
720.529	30.34
720.713	30.53
720.896	30.61
721.08	30.5
721.263	31.2
721.446	30.88
721.63	30.11
721.813	30.04
721.997	30.1
722.18	29.62
722.364	29.93
722.547	29.92
722.73	29.74
722.914	29.34
723.097	29.15
723.28	28.47
723.464	28.07
723.647	28.26
723.83	28.67
724.013	28.43
724.197	28
724.38	28.12
724.563	27.69
724.746	27.72
724.929	28.19
725.112	27.92
725.296	28.5
725.479	29.19
725.662	29.73
725.845	29.93
726.028	29.67
726.211	30.22
726.394	29.95
726.577	30.14
726.76	30.06
726.943	30.33
727.126	30.69
727.309	30.69
727.492	29.84
727.675	29.68
727.858	29.61
728.041	29.5
728.224	30.11
728.407	30.06
728.589	30.34
728.772	30.54
728.955	30.04
729.138	30.17
729.321	30
729.503	30.78
729.686	30.47
729.869	30.16
730.052	30.83
730.234	30.11
730.417	30.31
730.6	30.05
730.782	30.2
730.965	30.09
731.148	30.06
731.33	30.52
731.513	30.49
731.695	30.69
731.878	30.9
732.061	30.17
732.243	30.42
732.426	30.64
732.608	30.12
732.791	30.14
732.973	30.31
733.156	30.27
733.338	29.92
733.52	29.6
733.703	29.86
733.885	29.94
734.068	30.67
734.25	30.78
734.432	30.69
734.615	31.54
734.797	31.88
734.979	32.1
735.162	32.65
735.344	33.19
735.526	33.14
735.708	33.01
735.891	32.49
736.073	32.16
736.255	32.34
736.437	32.45
736.619	32.53
736.802	32.15
736.984	32.01
737.166	31.34
737.348	31.06
737.53	30.75
737.712	30.06
737.894	30.48
738.076	30.5
738.258	30.62
738.44	29.97
738.622	30.11
738.804	30.34
738.986	30.77
739.168	32.01
739.35	31.67
739.532	32.24
739.714	33.25
739.896	32.93
740.078	34.07
740.259	34.34
740.441	34.79
740.623	33.76
740.805	33.69
740.987	33.69
741.168	32.61
741.35	32.87
741.532	33.19
741.714	32.78
741.895	32.99
742.077	31.55
742.259	31.54
742.44	31.91
742.622	33.09
742.804	33.02
742.985	33.06
743.167	33.27
743.348	32.93
743.53	32.61
743.711	32.21
743.893	32.18
744.075	33.03
744.256	32.73
744.438	32.96
744.619	31.98
744.8	31.13
744.982	30.84
745.163	30.45
745.345	30.61
745.526	30.26
745.707	31.26
745.889	32.39
746.07	32.65
746.252	32.4
746.433	31.71
746.614	31.85
746.795	32.86
746.977	32.92
747.158	32.9
747.339	32.46
747.52	32.79
747.702	32.3
747.883	31.17
748.064	31.04
748.245	30.9
748.426	30.92
748.607	31.68
748.788	31.13
748.97	31.1
749.151	31.23
749.332	32.49
749.513	31.8
749.694	31.97
749.875	32.39
750.056	32.39
750.237	31.76
750.418	33.13
750.599	33.19
750.78	33.17
750.96	32.71
751.141	32.68
751.322	31.98
751.503	32.25
751.684	32.94
751.865	32.75
752.046	32.5
752.226	33.1
752.407	32.28
752.588	32.51
752.769	32.77
752.949	32.66
753.13	33.36
753.311	33.89
753.492	34.1
753.672	33.34
753.853	33.43
754.034	33.25
754.214	33.91
754.395	33.32
754.575	32.46
754.756	32.27
754.937	32.11
755.117	31.33
755.298	31.16
755.478	32.21
755.659	31.95
755.839	32.02
756.02	32.45
756.2	31.44
756.381	31.7
756.561	32.42
756.741	32.28
756.922	33.25
757.102	33.74
757.283	32.88
757.463	31.53
757.643	31.32
757.823	31.02
758.004	30.16
758.184	30.63
758.364	30.43
758.545	30.78
758.725	31.28
758.905	30.96
759.085	31.16
759.265	31.02
759.446	31.07
759.626	31.27
759.806	31.42
759.986	31.63
760.166	31.09
760.346	31.72
760.526	31.27
760.706	30.99
760.886	30.98
761.066	31.22
761.246	31.86
761.426	32.18
761.606	32.67
761.786	32.81
761.966	32.98
762.146	33.5
762.326	33.31
762.506	32.56
762.686	32.36
762.866	32.02
763.046	30.91
763.225	30.54
763.405	30.54
763.585	30.07
763.765	29.87
763.945	29.56
764.124	29.46
764.304	29.57
764.484	30.03
764.664	30.24
764.843	30.6
765.023	31.38
765.203	32
765.382	32.57
765.562	33.33
765.741	33.24
765.921	34.2
766.101	34.63
766.28	34.57
766.46	34.19
766.639	34.42
766.819	34.63
766.998	34.1
767.178	33.98
767.357	33.76
767.537	33.04
767.716	33.03
767.896	32.52
768.075	31.76
768.254	30.99
768.434	31.19
768.613	31.09
768.792	31.06
768.972	32.2
769.151	31.93
769.33	31.49
769.51	32.4
769.689	32.97
769.868	32.88
770.047	34.72
770.226	35.77
770.406	35.07
770.585	34.81
770.764	34.79
770.943	32.76
771.122	33.26
771.301	33.22
771.48	32.56
771.66	33.16
771.839	33.81
772.018	31.62
772.197	30.66
772.376	31.78
772.555	31.04
772.734	30.64
772.913	32.41
773.092	31.96
773.271	32.6
773.449	31.96
773.628	30.52
773.807	30.35
773.986	30.99
774.165	31.5
774.344	31.67
774.523	32.47
774.701	33.3
774.88	33.12
775.059	32.52
775.238	32.61
775.417	33.53
775.595	34.35
775.774	33.39
775.953	33.61
776.131	33.39
776.31	33.21
776.489	33.36
776.667	33.76
776.846	33.85
777.025	35.37
777.203	34.33
777.382	33.35
777.56	32.46
777.739	33.87
777.917	33.59
778.096	33.8
778.274	34.07
778.453	34.75
778.631	33.92
778.81	33.45
778.988	32.71
779.166	33.42
779.345	33.64
779.523	34.99
779.702	34.14
779.88	34.21
780.058	33.74
780.237	34.05
780.415	33.33
780.593	33.67
780.771	33.29
780.95	33.07
781.128	32.67
781.306	32.1
781.484	31.94
781.662	32.32
781.841	32.4
782.019	32.64
782.197	32.24
782.375	32.52
782.553	31.49
782.731	31.69
782.909	31.12
783.087	31.6
783.265	32.82
783.443	31.84
783.621	31.49
783.799	30.99
783.977	31.47
784.155	30.8
784.333	30.58
784.511	32.18
784.689	32.4
784.867	33.86
785.045	33.29
785.223	33.28
785.4	34.83
785.578	34.82
785.756	36.35
785.934	36.77
786.112	36.3
786.289	35.11
786.467	33.86
786.645	33.55
786.823	32.71
787	33.66
787.178	33.18
787.356	32.63
787.533	32.51
787.711	32.01
787.889	31.05
788.066	30.84
788.244	31.85
788.421	32.62
788.599	33.35
788.776	33.02
788.954	32.3
789.131	32.76
789.309	32.18
789.486	31.81
789.664	32.06
789.841	32.73
790.019	33.06
790.196	33.12
790.373	33.16
790.551	31.46
790.728	32.75
790.906	32.57
791.083	30.61
791.26	31.15
791.437	31.56
791.615	30.27
791.792	29.87
791.969	30.14
792.146	29.86
792.324	28.76
792.501	30.43
792.678	29.52
792.855	29.44
793.032	29.57
793.209	28.45
793.387	28.18
793.564	29.9
793.741	30.42
793.918	30.63
794.095	30.73
794.272	32.32
794.449	32.6
794.626	32.63
794.803	32.61
794.98	36.15
795.157	36.53
795.334	37.51
795.511	36.41
795.688	36.32
795.864	36
796.041	37.01
796.218	36.46
796.395	35.57
796.572	35.05
796.749	35.17
796.925	34.07
797.102	35.17
797.279	34.42
797.456	33.95
797.632	33.97
797.809	34.27
797.986	34.23
798.162	34.6
798.339	33.91
798.516	34.68
798.692	33.79
798.869	33.94
799.046	33.18
799.222	33.64
799.399	33.28
799.575	31.81
799.752	31
799.928	30.04
800.105	29
800.281	29.71
800.458	28.21
800.634	29.54
800.811	28.4
800.987	28.45
801.163	27.8
801.34	30.04
801.516	32.99
801.692	34.33
801.869	35.15
802.045	34.22
802.221	36.61
802.398	38.29
802.574	37.11
802.75	37.86
802.926	39.36
803.103	40
803.279	38.62
803.455	38.04
803.631	37.16
803.807	36.09
803.983	37.37
804.16	35.69
804.336	33.47
804.512	34.81
804.688	33.33
804.864	30.51
805.04	31.85
805.216	30.78
805.392	28.07
805.568	29.06
805.744	28.05
805.92	28.35
806.096	27.64
806.272	27.92
806.448	26.4
806.623	24.93
806.799	26.8
806.975	25.71
807.151	26.03
807.327	26.96
807.503	26.81
807.678	26.47
807.854	26.24
808.03	25.9
808.206	26.97
808.381	27.22
808.557	30.37
808.733	30.58
808.908	30.46
809.084	30.16
809.26	31.36
809.435	30.6
809.611	32.07
809.787	33.16
809.962	33.36
810.138	35.01
810.313	35.8
810.489	33.84
810.664	33.52
810.84	32.49
811.015	34.04
811.191	33.27
811.366	35.26
811.542	35.22
811.717	34.25
811.892	34.83
812.068	34.7
812.243	35.38
812.419	36.38
812.594	35.38
812.769	36.07
812.944	36.9
813.12	38.71
813.295	35.81
813.47	35.06
813.645	34.86
813.821	33.78
813.996	34.09
814.171	33.44
814.346	31.24
814.521	30.91
814.697	31.3
814.872	30.55
815.047	28.62
815.222	29.8
815.397	28.8
815.572	30.37
815.747	31.24
815.922	27.89
816.097	27.6
816.272	30.54
816.447	32.4
816.622	33.39
816.797	32.33
816.972	31.31
817.147	30.71
817.322	32.8
817.496	30.46
817.671	30.4
817.846	31.3
818.021	31.32
818.196	29.03
818.371	28.38
818.545	28.18
818.72	29.26
818.895	31.75
819.069	31.13
819.244	30.72
819.419	32.6
819.594	32.86
819.768	33.05
819.943	33.58
820.117	34.61
820.292	34.23
820.467	32.85
820.641	32.75
820.816	32.82
820.99	33.07
821.165	32.53
821.339	32.04
821.514	31.92
821.688	32.1
821.863	32.02
822.037	31.88
822.212	31.94
822.386	32.08
822.56	32.15
822.735	31.68
822.909	32.23
823.084	32.5
823.258	32.43
823.432	32.48
823.606	32.68
823.781	32.68
823.955	33.08
824.129	32.58
824.303	32.89
824.478	32.67
824.652	32.63
824.826	32.52
825	32.39
825.174	32.01
825.348	32.34
825.523	31.98
825.697	31.27
825.871	31.29
826.045	32.36
826.219	31.8
826.393	32.39
826.567	33.57
826.741	32.99
826.915	33.19
827.089	34.2
827.263	33.74
827.437	33.85
827.611	34.7
827.784	33.99
827.958	34.04
828.132	34.53
828.306	33.98
828.48	33.16
828.654	32.67
828.827	32.02
829.001	31.28
829.175	31.46
829.349	30.37
829.522	29.15
829.696	28.43
829.87	28.32
830.044	28.06
830.217	28.74
830.391	28.69
830.565	30.35
830.738	30.58
830.912	31.12
831.085	31.44
831.259	32.31
831.432	32.78
831.606	35.01
831.779	33.76
831.953	34.14
832.126	33.34
832.3	32.97
832.473	31.75
832.647	31.88
832.82	31.27
832.994	29.88
833.167	30.79
833.34	31.82
833.514	31.17
833.687	31.55
833.86	31.01
834.034	29.57
834.207	30.23
834.38	30.49
834.553	30.57
834.727	30.11
834.9	30.81
835.073	29.95
835.246	28.75
835.419	28.69
835.593	29.04
835.766	28.99
835.939	30.83
836.112	31.11
836.285	30.77
836.458	30.84
836.631	33.05
836.804	32.99
836.977	32.9
837.15	34.02
837.323	34.42
837.496	33.07
837.669	32.79
837.842	32.56
838.015	31.2
838.188	31.34
838.361	32.13
838.533	29.43
838.706	29.69
838.879	32.88
839.052	32.35
839.225	31.53
839.398	32.21
839.57	34.46
839.743	35.99
839.916	35.95
840.088	36.47
840.261	36.68
840.434	38.58
840.607	38.31
840.779	36.2
840.952	37.78
841.124	36.26
841.297	37.42
841.47	35.95
841.642	34.65
841.815	36.51
841.987	36.22
842.16	36.68
842.332	37.87
842.505	39.3
842.677	40.51
842.85	39.73
843.022	43.6
843.194	39.67
843.367	40.98
843.539	41.04
843.712	39.83
843.884	41.94
844.056	38.44
844.229	31.89
844.401	30.79
844.573	27.05
844.745	28.9
844.918	28.72
845.09	35.1
845.262	40.04
845.434	38.56
845.606	39.8
845.779	40.44
845.951	42.15
846.123	43.1
846.295	42.48
846.467	44.44
846.639	45.17
846.811	44.91
846.983	45.13
847.155	42.01
847.327	44.57
847.499	40.01
847.671	35.88
847.843	34.8
848.015	40.07
848.187	38.35
848.359	40.32
848.531	36.21
848.703	38.51
848.875	40.69
849.047	36.59
849.218	32.19
849.39	35.36
849.562	38.49
849.734	42.82
849.905	43.59
850.077	45.48
850.249	48.99
850.421	48.15
850.592	46.56
850.764	43.38
850.936	42.7
851.107	49.18
851.279	47.05
851.451	42.74
851.622	44.08
851.794	40.15
851.965	43
852.137	41.5
852.308	44.9
852.48	43.2
852.651	41.18
852.823	41.29
852.994	28.24
853.166	29.97
853.337	32.14
853.509	29.98
853.68	32.2
853.851	30.92
854.023	24.88
854.194	21.87
854.365	24.63
854.537	29.14
854.708	28.15
854.879	31.82
855.05	32.86
855.222	33.72
855.393	33.64
855.564	32.43
855.735	30.9
855.906	31.67
856.078	27.42
856.249	28.44
856.42	23.72
856.591	30.26
856.762	31.03
856.933	27.79
857.104	25.12
857.275	22.98
857.446	23.82
857.617	17.98
857.788	21.05
857.959	19.38
858.13	16.02
858.301	21.47
858.472	17.34
858.643	12.72
858.814	11.68
858.985	16.27
859.155	15.74
859.326	16.05
859.497	14.51
859.668	14.32
859.839	19.25
860.009	20.57
860.18	18.42
860.351	14.72
860.522	17.03
860.692	22.9
860.863	23.59
861.034	23.71
861.204	19.64
861.375	25.35
861.546	28.02
861.716	26.93
861.887	27.18
862.057	29.63
862.228	34.93
862.398	37.64
862.569	31.98
862.739	26.26
862.91	22.09
863.08	31.21
863.251	29.18
863.421	25.53
863.592	25.02
863.762	22.35
863.932	21.03
864.103	21.06
864.273	23.81
864.443	28.12
864.614	34.06
864.784	39.63
864.954	33.97
865.125	35.53
865.295	32.25
865.465	32.06
865.635	33.71
865.805	29.4
865.976	26.21
866.146	26.58
866.316	19.85
866.486	16.95
866.656	10.92
866.826	18.99
866.996	19.25
867.166	26.75
867.336	30.07
867.506	29.55
867.676	32.56
867.846	34.8
868.016	34.12
868.186	43.92
868.356	44.34
868.526	51.38
868.696	47.29
868.866	45.78
869.036	42.53
869.206	42.02
869.376	45.93
869.545	44.04
869.715	45.36
869.885	41.1
870.055	40.31
870.224	38.02
870.394	36.96
870.564	37.07
870.734	36.01
870.903	35.06
871.073	35.43
871.243	35.16
871.412	36.16
871.582	35.21
871.751	36.22
871.921	27.38
872.091	27.39
872.26	21.9
872.43	23.67
872.599	24.08
872.769	29.39
872.938	26.02
873.108	18.92
873.277	20.91
873.446	22.05
873.616	27.29
873.785	31.02
873.955	31.47
874.124	35.68
874.293	34.44
874.463	34.97
874.632	37.34
874.801	42.53
874.971	44.87
875.14	44
875.309	36.03
875.478	36.35
875.647	30.77
875.817	28.77
875.986	26.2
876.155	22.95
876.324	21.87
876.493	8.95
876.662	-2.08
876.831	0.56
877	11.32
877.17	20.16
877.339	16.27
877.508	21.39
877.677	19.95
877.846	18.46
878.015	19.43
878.184	18.03
878.352	21.66
878.521	27.73
878.69	27.73
878.859	21.93
879.028	21.95
879.197	22.8
879.366	22.61
879.534	28.47
879.703	28.44
879.872	26
880.041	23.32
880.21	22.67
880.378	25.62
880.547	24.17
880.716	26.35
880.884	26.53
881.053	26.96
881.222	27.74
881.39	25.46
881.559	27.14
881.727	27.68
881.896	28.72
882.065	29.87
882.233	28.25
882.402	27.98
882.57	27.75
882.739	27.45
882.907	27.83
883.076	27.74
883.244	28.47
883.412	28.36
883.581	29.02
883.749	28.06
883.918	26.76
884.086	27.24
884.254	28.76
884.423	29.8
884.591	30.57
884.759	30.93
884.927	30.48
885.096	30.07
885.264	28.84
885.432	28.82
885.6	31.64
885.769	32.76
885.937	33.1
886.105	31.68
886.273	25.77
886.441	21.5
886.609	18.82
886.777	20.11
886.945	19.33
887.113	21.04
887.281	16.01
887.449	11.55
887.617	7.44
887.785	4.54
887.953	6.66
888.121	3.48
888.289	10.8
888.457	6.95
888.625	1.14
888.793	-1.96
888.961	-4.01
889.129	-2.67
889.296	4.36
889.464	7.27
889.632	6.61
889.8	0.33
889.967	5.85
890.135	0.78
