Data from 2938773__Reflection_02.txt Node
Date: Fri Mar 13 14:33:33 EDT 2015
User: robert
Spectrometer: USB4E03002
Autoset integration time: false
Trigger mode: 4
Integration Time (sec): 1.000000E-1
Scans to average: 10
Electric dark correction enabled: false
Nonlinearity correction enabled: false
Boxcar width: 5
Stray light correction enabled: false
XAxis mode: Wavelengths
Stop averaging: false
Number of Pixels in Spectrum: 3648
>>>>>Begin Spectral Data<<<<<
177.575	-172.22
177.794	-346.58
178.014	-1259.26
178.233	692.54
178.452	1291.89
178.672	350
178.891	343.9
179.11	2239.13
179.33	-728.36
179.549	-288.89
179.768	-1396.67
179.987	700
180.207	1974.07
180.426	741.54
180.645	-1054.29
180.864	-525.81
181.084	-75.2
181.303	-115.42
181.522	-378.72
181.741	826.67
181.96	112.7
182.179	111.14
182.398	75.8
182.618	60.56
182.837	57.56
183.056	68.39
183.275	49.23
183.494	44.68
183.713	15.9
183.932	50.77
184.151	45.52
184.37	-45.21
184.589	-89.33
184.808	-46.67
185.027	70.88
185.246	80.6
185.465	70.76
185.684	84.15
185.903	102.05
186.122	81.42
186.341	66.97
186.56	92.46
186.779	182.45
186.998	154.95
187.216	161.08
187.435	309.32
187.654	140.52
187.873	109.04
188.092	105.48
188.311	203.47
188.53	194.23
188.748	635.94
188.967	-912.5
189.186	139.13
189.405	237.41
189.623	147.1
189.842	120.53
190.061	138.7
190.28	176.22
190.498	129
190.717	96.12
190.936	106.4
191.154	109.3
191.373	121.69
191.592	121.85
191.81	86.78
192.029	86.32
192.248	97.14
192.466	99.85
192.685	112.95
192.904	160.25
193.122	150.11
193.341	215.41
193.559	246.88
193.778	193.19
193.996	195.52
194.215	1464
194.433	323.36
194.652	234.46
194.87	307.45
195.089	3680
195.307	680.77
195.526	-156.07
195.744	504.26
195.963	159.56
196.181	88.43
196.399	100.8
196.618	95.51
196.836	128.09
197.055	87.01
197.273	179.12
197.491	517.65
197.71	390.74
197.928	175.42
198.146	353.39
198.365	496
198.583	660.61
198.801	-175.11
199.019	-122.76
199.238	-119.16
199.456	-158.29
199.674	-196.69
199.892	-215.45
200.111	-167.03
200.329	-122.59
200.547	-82.63
200.765	-241.23
200.983	-149.79
201.202	-258.88
201.42	-608.33
201.638	904.35
201.856	0
202.074	-73.17
202.292	75.26
202.51	-34.88
202.728	13.19
202.946	75.17
203.165	7.94
203.383	3000
203.601	52.11
203.819	-62.38
204.037	-56.68
204.255	51.61
204.473	58.68
204.691	69.06
204.909	48.49
205.127	48.95
205.345	7.1
205.562	-47.49
205.78	16.7
205.998	10.05
206.216	32.85
206.434	57.82
206.652	60.94
206.87	77.73
207.088	59.79
207.306	93.85
207.523	76.25
207.741	80
207.959	107.95
208.177	111.74
208.395	126.62
208.612	202.83
208.83	144.09
209.048	139.51
209.266	723.33
209.483	-450
209.701	-584
209.919	456.25
210.136	5120
210.354	-597.22
210.572	61.2
210.79	60.75
211.007	48.68
211.225	122.03
211.442	107.95
211.66	65.63
211.878	62.23
212.095	49.71
212.313	23.57
212.53	-11.85
212.748	-29.61
212.966	12.65
213.183	21.82
213.401	4.5
213.618	20.65
213.836	-5.53
214.053	-9.8
214.271	-5.03
214.488	13.11
214.705	15.74
214.923	25.45
215.14	26.23
215.358	32.16
215.575	35.08
215.793	31.75
216.01	41.48
216.227	56.45
216.445	55.31
216.662	50.58
216.879	47.09
217.097	43.99
217.314	54.32
217.531	66.77
217.749	59.77
217.966	54.81
218.183	57.88
218.4	25.58
218.618	40.41
218.835	37.47
219.052	33.22
219.269	48.16
219.487	47.44
219.704	30.39
219.921	25.44
220.138	22.01
220.355	22.66
220.572	21.93
220.79	13.34
221.007	1.87
221.224	-1.16
221.441	6.35
221.658	8.15
221.875	10.07
222.092	15.93
222.309	21.7
222.526	20.72
222.743	17.07
222.96	15.5
223.177	32.17
223.394	29.76
223.611	35.55
223.828	39.66
224.045	33.77
224.262	38.49
224.479	38.2
224.696	31.91
224.913	29.86
225.13	30.57
225.347	32.68
225.564	24.53
225.781	24.57
225.997	21.19
226.214	17.67
226.431	17.27
226.648	11.97
226.865	12
227.082	11.53
227.298	14.2
227.515	12.08
227.732	10.64
227.949	9.82
228.165	9.51
228.382	9.3
228.599	8.19
228.816	8.59
229.032	8.2
229.249	7.72
229.466	7.51
229.682	6.83
229.899	6.69
230.116	6.47
230.332	7.13
230.549	7.32
230.765	6.94
230.982	7.48
231.199	7.16
231.415	8.57
231.632	8.71
231.848	9.94
232.065	8.97
232.281	9.58
232.498	9.74
232.714	10.29
232.931	10.46
233.147	11.76
233.364	12.98
233.58	11.25
233.797	11.14
234.013	11.67
234.23	11.54
234.446	11.17
234.662	10.97
234.879	11.1
235.095	10.06
235.312	11.65
235.528	8.51
235.744	6.52
235.961	9.29
236.177	8.29
236.393	8.25
236.61	6.94
236.826	6.4
237.042	7.21
237.258	5.51
237.475	5.77
237.691	3.87
237.907	3.53
238.123	6.08
238.339	5.3
238.556	5.19
238.772	4
238.988	3.51
239.204	4.22
239.42	4.18
239.636	5.32
239.853	5.91
240.069	6.87
240.285	8.18
240.501	7.84
240.717	8.35
240.933	8.76
241.149	8.38
241.365	9.08
241.581	8.29
241.797	8.27
242.013	9.23
242.229	9.2
242.445	8.69
242.661	8.9
242.877	8.69
243.093	8.74
243.309	8.62
243.525	9.09
243.741	9.09
243.957	10
244.173	9.97
244.388	9.73
244.604	9.6
244.82	9.71
245.036	9.05
245.252	8.63
245.468	8.16
245.683	8.24
245.899	7.48
246.115	7.79
246.331	7.46
246.547	7.84
246.762	7.45
246.978	7.38
247.194	7.26
247.409	7.49
247.625	7.29
247.841	7.14
248.057	6.99
248.272	7.37
248.488	6.98
248.703	7.06
248.919	6.53
249.135	6.64
249.35	6.62
249.566	6.83
249.782	6.7
249.997	7.22
250.213	7.84
250.428	8.41
250.644	7.76
250.859	7.65
251.075	8.12
251.29	7.95
251.506	8.14
251.721	8.06
251.937	7.91
252.152	7.83
252.368	8.11
252.583	7.65
252.798	7.55
253.014	8.35
253.229	8.83
253.445	8.45
253.66	8.15
253.875	7.52
254.091	7.35
254.306	7.4
254.521	7.11
254.737	7.26
254.952	6.77
255.167	5.44
255.383	5.46
255.598	3.76
255.813	3.79
256.028	5.03
256.244	4.93
256.459	4.87
256.674	4.06
256.889	4.6
257.104	3.57
257.32	4.09
257.535	4.89
257.75	4.6
257.965	5.1
258.18	4.82
258.395	4.75
258.61	5.14
258.826	5.31
259.041	5.52
259.256	5.5
259.471	5.47
259.686	5.35
259.901	5.2
260.116	5.19
260.331	5.5
260.546	5.41
260.761	5.2
260.976	4.9
261.191	4.92
261.406	4.57
261.621	4.58
261.836	4.52
262.05	4.17
262.265	3.93
262.48	3.63
262.695	3.13
262.91	3.19
263.125	3.14
263.34	3.65
263.555	3.37
263.769	3.55
263.984	2.6
264.199	2.38
264.414	3.09
264.629	3.77
264.843	4.33
265.058	4.24
265.273	4.45
265.488	4.82
265.702	4.37
265.917	4.31
266.132	4.65
266.346	4.95
266.561	5.28
266.776	5.31
266.99	5.22
267.205	5
267.42	5.23
267.634	5.32
267.849	5.61
268.063	5.97
268.278	6.1
268.492	5.88
268.707	6.03
268.922	5.6
269.136	6.05
269.351	5.63
269.565	5.58
269.78	5.74
269.994	5.68
270.209	5.27
270.423	4.92
270.637	5.24
270.852	5.31
271.066	5.12
271.281	5.32
271.495	4.85
271.709	4.75
271.924	4.74
272.138	4.8
272.353	5.08
272.567	5.03
272.781	4.95
272.996	4.57
273.21	4.82
273.424	5.03
273.638	4.98
273.853	4.87
274.067	4.91
274.281	5.19
274.495	4.69
274.71	4.45
274.924	4.8
275.138	4.87
275.352	4.76
275.566	4.16
275.781	3.75
275.995	4.17
276.209	4.41
276.423	4.3
276.637	3.71
276.851	4.26
277.065	4.49
277.279	4.31
277.493	4.76
277.707	5.49
277.921	5.49
278.135	5.81
278.349	5.31
278.563	5.18
278.777	5.88
278.991	6.37
279.205	5.88
279.419	5.27
279.633	4.83
279.847	4.5
280.061	3.65
280.275	3.61
280.489	4.22
280.703	4.76
280.917	4.65
281.131	4.12
281.344	3.91
281.558	3.9
281.772	4.21
281.986	4.29
282.2	4.42
282.414	4.66
282.627	4.85
282.841	4.24
283.055	4.01
283.269	3.78
283.482	3.85
283.696	3.74
283.91	3.62
284.123	3.44
284.337	3.97
284.551	4.06
284.764	4.42
284.978	4.31
285.192	4.4
285.405	4.52
285.619	4.63
285.833	4.64
286.046	4.41
286.26	4.43
286.473	4.73
286.687	4.23
286.9	4.17
287.114	3.74
287.327	3.73
287.541	3.75
287.754	3.71
287.968	3.61
288.181	3.76
288.395	4.33
288.608	4.66
288.822	4.46
289.035	4.9
289.248	4.61
289.462	4.88
289.675	5.15
289.889	5.26
290.102	5.17
290.315	5.45
290.529	5.42
290.742	5.21
290.955	5.15
291.169	5.17
291.382	4.96
291.595	5.17
291.808	5.14
292.022	4.97
292.235	4.79
292.448	4.78
292.661	4.65
292.875	4.51
293.088	4.63
293.301	4.23
293.514	4.33
293.727	4.72
293.94	4.66
294.153	4.49
294.367	4.35
294.58	4.28
294.793	3.77
295.006	3.8
295.219	3.58
295.432	3.33
295.645	3.81
295.858	3.54
296.071	3.5
296.284	3.41
296.497	3.39
296.71	3.76
296.923	4.01
297.136	4.57
297.349	4.58
297.562	4.9
297.775	5.01
297.988	5.14
298.201	5.33
298.414	5.17
298.626	5.3
298.839	5.43
299.052	5.33
299.265	5.07
299.478	4.89
299.691	4.83
299.903	4.8
300.116	4.65
300.329	4.45
300.542	4.59
300.755	4.28
300.967	4.67
301.18	4.61
301.393	4.48
301.605	4.76
301.818	4.82
302.031	5.02
302.243	4.73
302.456	5.08
302.669	4.98
302.881	4.84
303.094	5.11
303.307	4.8
303.519	4.64
303.732	4.71
303.944	4.49
304.157	4.42
304.37	4.39
304.582	4.64
304.795	4.74
305.007	5.23
305.22	5.36
305.432	5.57
305.645	5.24
305.857	5.78
306.069	6.02
306.282	6.33
306.494	6.32
306.707	6.51
306.919	6.08
307.132	5.97
307.344	5.76
307.556	5.81
307.769	5.78
307.981	6.22
308.193	5.82
308.406	5.81
308.618	5.78
308.83	5.96
309.043	5.84
309.255	6.45
309.467	6.37
309.679	5.95
309.892	5.74
310.104	5.86
310.316	5.5
310.528	5.55
310.74	5.61
310.953	5.53
311.165	5.49
311.377	5.46
311.589	5.33
311.801	5.2
312.013	5.32
312.225	5.27
312.437	5.4
312.649	5.59
312.862	5.76
313.074	5.64
313.286	6.06
313.498	5.68
313.71	5.73
313.922	5.64
314.134	6.16
314.346	6
314.558	6.48
314.77	6.14
314.982	6.44
315.193	6.53
315.405	6.79
315.617	6.46
315.829	6.84
316.041	6.95
316.253	6.83
316.465	7
316.677	7.52
316.888	7.49
317.1	7.45
317.312	7.49
317.524	7.32
317.736	7.49
317.947	7.29
318.159	7.73
318.371	7.77
318.583	7.98
318.794	7.53
319.006	7.68
319.218	7.44
319.43	7.41
319.641	7.47
319.853	8.03
320.064	7.43
320.276	7.87
320.488	7.7
320.699	7.78
320.911	7.64
321.123	7.48
321.334	6.61
321.546	6.96
321.757	7.08
321.969	6.82
322.18	6.79
322.392	7.41
322.603	7.08
322.815	7.06
323.026	7.31
323.238	7.56
323.449	7.87
323.661	8.29
323.872	8.23
324.083	8.32
324.295	8.91
324.506	8.83
324.718	8.27
324.929	8.54
325.14	8.43
325.352	8.35
325.563	8.42
325.774	8.09
325.986	8.5
326.197	8.64
326.408	9.14
326.62	8.65
326.831	8.65
327.042	8.99
327.253	9.18
327.464	9.47
327.676	9.58
327.887	9.88
328.098	10.53
328.309	10.06
328.52	10.56
328.732	10.64
328.943	11.24
329.154	11.34
329.365	11.73
329.576	11.17
329.787	11.49
329.998	11.25
330.209	11.29
330.42	11.39
330.631	12.15
330.842	11.89
331.053	12.05
331.264	11.99
331.475	11.93
331.686	11.95
331.897	12.63
332.108	12.83
332.319	13.51
332.53	13.58
332.741	13.74
332.952	13.67
333.163	13.42
333.374	13
333.585	13.08
333.795	13.39
334.006	12.97
334.217	13.01
334.428	12.87
334.639	12.56
334.849	12.28
335.06	12.24
335.271	12.08
335.482	12.22
335.692	12.44
335.903	12.43
336.114	12.66
336.325	12.91
336.535	12.89
336.746	12.76
336.957	12.82
337.167	13.15
337.378	12.9
337.589	12.9
337.799	12.81
338.01	12.91
338.22	12.77
338.431	12.23
338.642	11.88
338.852	11.76
339.063	11.66
339.273	11.62
339.484	11.52
339.694	11.58
339.905	11.48
340.115	11.48
340.326	11.4
340.536	11.6
340.746	11.86
340.957	12.27
341.167	12.37
341.378	12.36
341.588	12.06
341.799	12.06
342.009	12.3
342.219	12.53
342.43	12.4
342.64	12.55
342.85	12.17
343.061	11.78
343.271	11.53
343.481	11.43
343.691	11.52
343.902	11.73
344.112	11.85
344.322	11.48
344.532	11.33
344.743	11.69
344.953	11.5
345.163	11.76
345.373	11.99
345.583	12.23
345.793	12.16
346.004	12.17
346.214	12.4
346.424	12.39
346.634	12.68
346.844	12.67
347.054	12.29
347.264	12.43
347.474	12.54
347.684	12.74
347.894	12.68
348.104	12.93
348.314	12.62
348.524	12.26
348.734	12.08
348.944	11.85
349.154	12.11
349.364	12.24
349.574	11.93
349.784	11.82
349.994	11.73
350.204	11.7
350.413	11.5
350.623	11.8
350.833	11.79
351.043	11.85
351.253	11.86
351.463	11.84
351.672	11.53
351.882	11.96
352.092	11.81
352.302	11.84
352.511	12
352.721	11.92
352.931	11.83
353.141	11.5
353.35	11.67
353.56	11.67
353.77	11.62
353.979	11.92
354.189	11.72
354.399	11.88
354.608	11.65
354.818	11.51
355.027	11.72
355.237	12.06
355.447	12.64
355.656	12.19
355.866	12.34
356.075	12.11
356.285	11.98
356.494	11.76
356.704	11.71
356.913	11.74
357.123	11.59
357.332	11.49
357.542	11.18
357.751	11.09
357.96	11.26
358.17	11.07
358.379	10.89
358.589	11.07
358.798	11.34
359.007	10.99
359.217	11.1
359.426	11.39
359.635	11.44
359.845	11.37
360.054	11.13
360.263	11.07
360.472	11.24
360.682	11.44
360.891	11.29
361.1	11.06
361.309	11.31
361.519	11.18
361.728	10.91
361.937	10.85
362.146	10.88
362.355	10.97
362.564	11.06
362.774	10.92
362.983	10.9
363.192	10.93
363.401	10.9
363.61	10.9
363.819	10.86
364.028	10.89
364.237	10.86
364.446	10.55
364.655	10.43
364.864	10.44
365.073	10.39
365.282	10.5
365.491	10.49
365.7	10.58
365.909	10.58
366.118	10.65
366.327	10.79
366.536	10.79
366.745	11.12
366.954	10.95
367.162	10.85
367.371	11
367.58	10.77
367.789	10.58
367.998	10.56
368.207	10.24
368.415	10.11
368.624	9.84
368.833	9.69
369.042	9.6
369.25	9.86
369.459	9.77
369.668	9.37
369.877	9.37
370.085	9.63
370.294	9.8
370.503	10
370.711	9.94
370.92	10.08
371.129	10.04
371.337	9.98
371.546	9.92
371.754	10.02
371.963	10.21
372.171	10.55
372.38	10.52
372.589	10.45
372.797	10.31
373.006	10.21
373.214	9.93
373.423	10.22
373.631	10.17
373.84	10.14
374.048	9.91
374.256	9.83
374.465	9.54
374.673	9.41
374.882	9.1
375.09	9.21
375.298	9.67
375.507	9.83
375.715	9.58
375.923	9.55
376.132	9.5
376.34	9.38
376.548	9.44
376.757	9.43
376.965	9.51
377.173	9.55
377.381	9.43
377.59	9.04
377.798	9.19
378.006	9.24
378.214	9.37
378.423	9.37
378.631	9.47
378.839	9.23
379.047	9.19
379.255	9.1
379.463	8.96
379.671	8.85
379.879	8.82
380.088	8.59
380.296	8.48
380.504	8.16
380.712	8.2
380.92	8.12
381.128	8.09
381.336	7.99
381.544	7.89
381.752	7.97
381.96	8.06
382.168	8.21
382.376	8.3
382.584	8.43
382.791	8.35
382.999	8.18
383.207	8.43
383.415	8.45
383.623	8.34
383.831	8.43
384.039	8.54
384.247	8.57
384.454	8.61
384.662	8.64
384.87	8.23
385.078	8.45
385.285	8.34
385.493	8.1
385.701	8.07
385.909	8.13
386.116	8.04
386.324	7.84
386.532	7.81
386.739	7.58
386.947	7.43
387.155	7.66
387.362	7.67
387.57	7.62
387.778	7.65
387.985	7.88
388.193	7.78
388.4	7.65
388.608	7.85
388.816	7.86
389.023	7.91
389.231	7.74
389.438	7.55
389.646	7.37
389.853	7.61
390.061	7.6
390.268	7.28
390.475	7.24
390.683	7.26
390.89	6.94
391.098	6.83
391.305	6.88
391.512	6.86
391.72	7.04
391.927	7.2
392.135	7
392.342	6.94
392.549	7.02
392.756	6.99
392.964	6.95
393.171	6.99
393.378	6.78
393.586	6.8
393.793	6.79
394	6.64
394.207	6.62
394.414	6.56
394.622	6.53
394.829	6.48
395.036	6.49
395.243	6.34
395.45	6.37
395.657	6.49
395.864	6.43
396.072	6.32
396.279	6.31
396.486	5.97
396.693	6.17
396.9	6.19
397.107	6.1
397.314	6.01
397.521	6.14
397.728	6.03
397.935	6
398.142	5.97
398.349	6.11
398.556	6.06
398.763	6.15
398.97	5.95
399.177	5.83
399.383	5.8
399.59	5.94
399.797	5.89
400.004	5.95
400.211	5.96
400.418	5.98
400.625	5.98
400.831	5.97
401.038	6
401.245	6.18
401.452	6.28
401.658	6.33
401.865	6.23
402.072	6.28
402.279	6.18
402.485	6.07
402.692	5.96
402.899	6.03
403.105	6.08
403.312	6.09
403.519	6.04
403.725	6.08
403.932	6.13
404.138	6.26
404.345	6.18
404.552	6.14
404.758	6.13
404.965	5.99
405.171	6.02
405.378	6.02
405.584	5.94
405.791	5.81
405.997	5.68
406.204	5.53
406.41	5.29
406.617	5.35
406.823	5.61
407.029	5.74
407.236	5.83
407.442	5.7
407.649	5.64
407.855	5.71
408.061	5.69
408.268	5.59
408.474	5.7
408.68	5.76
408.887	5.74
409.093	5.66
409.299	5.53
409.505	5.48
409.712	5.53
409.918	5.47
410.124	5.43
410.33	5.63
410.537	5.75
410.743	5.75
410.949	5.84
411.155	5.91
411.361	5.85
411.567	5.99
411.773	6.16
411.98	6.06
412.186	6.14
412.392	6.21
412.598	6.21
412.804	6.19
413.01	6.01
413.216	6.16
413.422	5.98
413.628	5.97
413.834	6.03
414.04	5.96
414.246	6.05
414.452	6.1
414.658	6.13
414.864	5.94
415.07	5.98
415.275	6.21
415.481	5.99
415.687	6.18
415.893	6.25
416.099	6.02
416.305	5.95
416.511	5.85
416.716	5.74
416.922	5.67
417.128	5.72
417.334	5.75
417.539	5.6
417.745	5.65
417.951	5.56
418.157	5.5
418.362	5.54
418.568	5.6
418.774	5.51
418.979	5.58
419.185	5.56
419.391	5.47
419.596	5.48
419.802	5.53
420.008	5.49
420.213	5.52
420.419	5.53
420.624	5.5
420.83	5.48
421.035	5.6
421.241	5.57
421.446	5.57
421.652	5.69
421.857	5.67
422.063	5.72
422.268	5.78
422.474	5.79
422.679	5.79
422.885	5.8
423.09	5.79
423.295	5.8
423.501	5.84
423.706	5.78
423.911	5.7
424.117	5.7
424.322	5.66
424.527	5.65
424.733	5.59
424.938	5.57
425.143	5.64
425.349	5.73
425.554	5.72
425.759	5.64
425.964	5.74
426.169	5.78
426.375	5.73
426.58	5.7
426.785	5.62
426.99	5.67
427.195	5.76
427.4	5.81
427.605	5.76
427.811	5.77
428.016	5.73
428.221	5.71
428.426	5.63
428.631	5.63
428.836	5.66
429.041	5.73
429.246	5.59
429.451	5.55
429.656	5.54
429.861	5.46
430.066	5.43
430.271	5.53
430.476	5.41
430.681	5.5
430.886	5.49
431.09	5.52
431.295	5.72
431.5	5.9
431.705	5.81
431.91	5.74
432.115	5.78
432.32	5.9
432.524	5.88
432.729	6.06
432.934	6.11
433.139	6.15
433.343	6.16
433.548	5.99
433.753	5.96
433.958	5.96
434.162	6.02
434.367	6.08
434.572	5.95
434.776	5.9
434.981	5.85
435.186	5.89
435.39	5.9
435.595	5.89
435.799	5.92
436.004	5.89
436.209	5.9
436.413	5.95
436.618	5.87
436.822	5.88
437.027	5.89
437.231	5.78
437.436	5.73
437.64	5.67
437.845	5.72
438.049	5.78
438.253	5.77
438.458	5.83
438.662	5.66
438.867	5.76
439.071	5.7
439.275	5.82
439.48	5.85
439.684	5.88
439.888	5.98
440.093	5.9
440.297	5.92
440.501	5.88
440.706	5.88
440.91	5.98
441.114	5.89
441.318	6.04
441.523	5.91
441.727	5.96
441.931	5.85
442.135	5.78
442.339	5.8
442.543	5.75
442.748	5.77
442.952	5.76
443.156	5.67
443.36	5.73
443.564	5.7
443.768	5.86
443.972	5.79
444.176	5.84
444.38	5.79
444.584	5.86
444.788	5.84
444.992	5.9
445.196	5.78
445.4	5.92
445.604	5.97
445.808	5.92
446.012	5.77
446.216	5.85
446.42	5.85
446.624	5.81
446.828	5.74
447.032	5.71
447.235	5.61
447.439	5.7
447.643	5.63
447.847	5.54
448.051	5.51
448.254	5.62
448.458	5.51
448.662	5.56
448.866	5.63
449.069	5.69
449.273	5.62
449.477	5.69
449.681	5.64
449.884	5.64
450.088	5.67
450.292	5.71
450.495	5.73
450.699	5.84
450.902	5.84
451.106	5.73
451.31	5.84
451.513	5.97
451.717	5.96
451.92	5.97
452.124	5.88
452.327	5.82
452.531	5.92
452.734	5.89
452.938	5.89
453.141	5.87
453.345	6.03
453.548	5.84
453.752	5.81
453.955	5.82
454.158	5.82
454.362	5.91
454.565	5.88
454.769	5.79
454.972	5.75
455.175	5.81
455.379	5.88
455.582	5.89
455.785	5.92
455.988	5.88
456.192	5.95
456.395	6.01
456.598	6.08
456.801	6.19
457.005	6.29
457.208	6.28
457.411	6.22
457.614	6.12
457.817	5.99
458.021	5.97
458.224	6.02
458.427	6.03
458.63	5.98
458.833	5.92
459.036	5.82
459.239	5.75
459.442	5.75
459.645	5.76
459.848	5.72
460.051	5.77
460.254	5.8
460.457	5.79
460.66	5.76
460.863	5.8
461.066	5.81
461.269	5.92
461.472	5.91
461.675	5.91
461.878	5.87
462.081	5.92
462.284	5.99
462.486	5.98
462.689	6.03
462.892	6.01
463.095	5.96
463.298	5.98
463.5	5.95
463.703	5.99
463.906	6.03
464.109	6.07
464.311	5.98
464.514	6.03
464.717	6.01
464.92	6.06
465.122	6.03
465.325	6.12
465.528	6.12
465.73	6.12
465.933	6.14
466.135	6.12
466.338	6.11
466.541	6.2
466.743	6.13
466.946	6.14
467.148	6.12
467.351	6.12
467.553	6.17
467.756	6.08
467.958	6.11
468.161	6.07
468.363	6.09
468.566	6.04
468.768	6.03
468.971	6.03
469.173	6.02
469.375	6.01
469.578	6.23
469.78	6.14
469.983	6.17
470.185	6.02
470.387	6.13
470.59	6.1
470.792	6.18
470.994	6.15
471.196	6.14
471.399	6.22
471.601	6.2
471.803	6.03
472.005	6.07
472.208	6.12
472.41	6.18
472.612	6.12
472.814	6.06
473.016	6.03
473.218	6.13
473.421	6.07
473.623	6.01
473.825	5.87
474.027	6
474.229	6.01
474.431	5.96
474.633	6.05
474.835	6.05
475.037	6.11
475.239	6.14
475.441	6.07
475.643	6.17
475.845	6.24
476.047	6.32
476.249	6.21
476.451	6.28
476.653	6.3
476.855	6.24
477.057	6.18
477.258	6.27
477.46	6.24
477.662	6.3
477.864	6.28
478.066	6.14
478.268	6.17
478.469	6.17
478.671	6.04
478.873	6.08
479.075	6.04
479.276	6.12
479.478	6.06
479.68	6.13
479.882	6.13
480.083	6.15
480.285	6.26
480.487	6.25
480.688	6.2
480.89	6.33
481.091	6.31
481.293	6.29
481.495	6.19
481.696	6.11
481.898	6.12
482.099	6.1
482.301	6.07
482.502	6.03
482.704	6
482.905	6
483.107	5.94
483.308	5.89
483.51	5.93
483.711	5.95
483.913	5.96
484.114	5.91
484.315	5.9
484.517	5.92
484.718	5.91
484.92	5.92
485.121	5.91
485.322	5.97
485.524	6.01
485.725	5.98
485.926	5.99
486.127	5.99
486.329	6
486.53	6
486.731	5.99
486.932	6
487.134	5.99
487.335	6
487.536	5.96
487.737	5.95
487.938	5.99
488.139	6.02
488.341	6.03
488.542	6.07
488.743	6.07
488.944	6.07
489.145	6.09
489.346	6.12
489.547	6.14
489.748	6.15
489.949	6.16
490.15	6.12
490.351	6.05
490.552	6.06
490.753	6.1
490.954	6.09
491.155	6.04
491.356	6.03
491.557	6.04
491.758	6.02
491.959	6.04
492.159	6.11
492.36	6.1
492.561	6.18
492.762	6.2
492.963	6.16
493.164	6.19
493.364	6.24
493.565	6.25
493.766	6.27
493.967	6.28
494.167	6.24
494.368	6.16
494.569	6.22
494.769	6.15
494.97	6.15
495.171	6.19
495.371	6.1
495.572	6.17
495.773	6.24
495.973	6.24
496.174	6.3
496.375	6.36
496.575	6.39
496.776	6.4
496.976	6.44
497.177	6.38
497.377	6.44
497.578	6.55
497.778	6.63
497.979	6.61
498.179	6.64
498.38	6.57
498.58	6.53
498.78	6.57
498.981	6.59
499.181	6.57
499.382	6.66
499.582	6.64
499.782	6.63
499.983	6.51
500.183	6.51
500.383	6.48
500.584	6.56
500.784	6.56
500.984	6.52
501.184	6.61
501.385	6.58
501.585	6.59
501.785	6.59
501.985	6.62
502.185	6.7
502.386	6.85
502.586	6.82
502.786	6.8
502.986	6.86
503.186	6.88
503.386	6.8
503.586	6.86
503.786	6.89
503.987	6.93
504.187	6.94
504.387	6.93
504.587	6.8
504.787	6.89
504.987	6.97
505.187	7
505.387	7.04
505.587	7.1
505.786	7.16
505.986	7.08
506.186	7.13
506.386	7.18
506.586	7.21
506.786	7.29
506.986	7.38
507.186	7.41
507.386	7.46
507.585	7.41
507.785	7.36
507.985	7.42
508.185	7.54
508.384	7.54
508.584	7.51
508.784	7.53
508.984	7.62
509.183	7.54
509.383	7.63
509.583	7.69
509.782	7.8
509.982	7.89
510.182	7.9
510.381	7.96
510.581	7.97
510.781	7.97
510.98	8.02
511.18	8.01
511.379	8.09
511.579	8.1
511.778	8.14
511.978	8.17
512.177	8.18
512.377	8.27
512.576	8.26
512.776	8.37
512.975	8.48
513.175	8.58
513.374	8.58
513.573	8.72
513.773	8.74
513.972	8.7
514.172	8.8
514.371	9.01
514.57	8.99
514.77	8.99
514.969	9.08
515.168	9.15
515.367	9.14
515.567	9.31
515.766	9.23
515.965	9.23
516.164	9.34
516.364	9.37
516.563	9.31
516.762	9.39
516.961	9.52
517.16	9.53
517.359	9.61
517.559	9.72
517.758	9.72
517.957	9.84
518.156	9.89
518.355	9.87
518.554	9.95
518.753	10.03
518.952	10.08
519.151	10.13
519.35	10.17
519.549	10.21
519.748	10.19
519.947	10.24
520.146	10.3
520.345	10.45
520.544	10.6
520.743	10.7
520.942	10.85
521.141	10.89
521.339	10.99
521.538	11.13
521.737	11.21
521.936	11.41
522.135	11.51
522.333	11.63
522.532	11.68
522.731	11.75
522.93	11.76
523.129	11.77
523.327	11.9
523.526	11.93
523.725	11.92
523.923	12.06
524.122	12.07
524.321	12.16
524.519	12.18
524.718	12.33
524.917	12.45
525.115	12.54
525.314	12.63
525.512	12.71
525.711	12.85
525.909	12.96
526.108	13.02
526.306	13.08
526.505	13.18
526.703	13.29
526.902	13.33
527.1	13.38
527.299	13.49
527.497	13.57
527.696	13.62
527.894	13.61
528.092	13.62
528.291	13.68
528.489	13.75
528.688	13.78
528.886	13.84
529.084	13.9
529.283	13.92
529.481	13.94
529.679	13.98
529.877	14.05
530.076	14.15
530.274	14.28
530.472	14.35
530.67	14.49
530.869	14.62
531.067	14.73
531.265	14.81
531.463	14.99
531.661	15.1
531.859	15.18
532.057	15.27
532.255	15.38
532.454	15.48
532.652	15.58
532.85	15.61
533.048	15.64
533.246	15.69
533.444	15.77
533.642	15.84
533.84	15.92
534.038	16.05
534.236	16.13
534.434	16.21
534.632	16.27
534.83	16.36
535.027	16.46
535.225	16.56
535.423	16.71
535.621	16.83
535.819	16.94
536.017	16.99
536.215	17.04
536.412	17.18
536.61	17.29
536.808	17.38
537.006	17.5
537.203	17.58
537.401	17.7
537.599	17.74
537.797	17.83
537.994	17.9
538.192	18.13
538.39	18.25
538.587	18.28
538.785	18.4
538.983	18.57
539.18	18.67
539.378	18.84
539.575	18.98
539.773	19.09
539.97	19.2
540.168	19.27
540.366	19.3
540.563	19.43
540.761	19.51
540.958	19.57
541.155	19.58
541.353	19.63
541.55	19.64
541.748	19.66
541.945	19.7
542.143	19.78
542.34	19.79
542.537	19.9
542.735	19.93
542.932	20.01
543.129	20.08
543.327	20.22
543.524	20.27
543.721	20.46
543.919	20.72
544.116	20.94
544.313	21.1
544.51	21.37
544.708	21.54
544.905	21.77
545.102	22.04
545.299	22.28
545.496	22.56
545.693	22.79
545.891	22.82
546.088	22.82
546.285	22.8
546.482	22.79
546.679	22.78
546.876	22.73
547.073	22.62
547.27	22.51
547.467	22.39
547.664	22.27
547.861	22.23
548.058	22.23
548.255	22.2
548.452	22.18
548.649	22.19
548.846	22.24
549.043	22.3
549.24	22.43
549.437	22.49
549.633	22.59
549.83	22.52
550.027	22.6
550.224	22.66
550.421	22.7
550.618	22.77
550.814	22.89
551.011	22.95
551.208	23.01
551.405	22.98
551.601	23.02
551.798	23.09
551.995	23.19
552.191	23.2
552.388	23.24
552.585	23.31
552.781	23.35
552.978	23.32
553.175	23.33
553.371	23.27
553.568	23.35
553.764	23.45
553.961	23.38
554.157	23.38
554.354	23.4
554.55	23.45
554.747	23.5
554.943	23.56
555.14	23.62
555.336	23.6
555.533	23.77
555.729	23.83
555.926	23.84
556.122	23.87
556.318	23.96
556.515	23.94
556.711	23.88
556.907	23.82
557.104	23.97
557.3	24.04
557.496	24.07
557.693	24.01
557.889	24.03
558.085	24.05
558.281	24.19
558.478	24.29
558.674	24.37
558.87	24.57
559.066	24.81
559.262	24.76
559.459	24.73
559.655	24.78
559.851	24.8
560.047	24.93
560.243	25.08
560.439	25.13
560.635	25.02
560.831	25.14
561.027	25.17
561.223	25.12
561.419	25.08
561.615	25.16
561.811	25.18
562.007	25.22
562.203	25.28
562.399	25.18
562.595	25.23
562.791	25.34
562.987	25.49
563.183	25.58
563.379	25.64
563.575	25.72
563.771	25.77
563.966	25.8
564.162	25.98
564.358	25.96
564.554	25.95
564.75	25.9
564.945	25.97
565.141	25.92
565.337	25.89
565.533	25.92
565.728	25.97
565.924	26.03
566.12	26.15
566.315	26.14
566.511	26.18
566.707	26.25
566.902	26.43
567.098	26.45
567.293	26.48
567.489	26.47
567.684	26.53
567.88	26.58
568.076	26.56
568.271	26.67
568.467	26.75
568.662	26.81
568.858	26.82
569.053	26.71
569.248	26.74
569.444	26.79
569.639	26.97
569.835	27.07
570.03	27.15
570.225	27.17
570.421	27.11
570.616	27.01
570.812	26.98
571.007	27.1
571.202	27.19
571.397	27.14
571.593	27.14
571.788	27.13
571.983	27
572.178	27.02
572.374	27.13
572.569	27.16
572.764	27.29
572.959	27.31
573.154	27.21
573.35	27.27
573.545	27.44
573.74	27.53
573.935	27.52
574.13	27.58
574.325	27.61
574.52	27.62
574.715	27.69
574.91	27.69
575.105	27.8
575.3	27.96
575.495	27.95
575.69	28.05
575.885	28.14
576.08	28.24
576.275	28.38
576.47	28.55
576.665	28.82
576.86	28.91
577.055	29.09
577.25	29.26
577.444	29.42
577.639	29.58
577.834	29.56
578.029	29.63
578.224	29.88
578.418	29.93
578.613	30.11
578.808	29.94
579.003	30.14
579.197	30.1
579.392	30.09
579.587	30.09
579.781	30.2
579.976	30.35
580.171	30.34
580.365	30.13
580.56	30.18
580.755	30.01
580.949	30.16
581.144	30.11
581.338	30.33
581.533	30.35
581.727	30.43
581.922	30.5
582.116	30.45
582.311	30.47
582.505	30.58
582.7	30.65
582.894	30.77
583.089	30.79
583.283	30.79
583.478	30.76
583.672	30.79
583.866	30.82
584.061	30.84
584.255	30.89
584.449	31.06
584.644	31.21
584.838	31.32
585.032	31.54
585.226	31.61
585.421	31.74
585.615	31.72
585.809	31.78
586.003	31.86
586.198	31.9
586.392	32.12
586.586	32.2
586.78	32.2
586.974	32.17
587.168	31.97
587.363	31.86
587.557	31.7
587.751	31.68
587.945	31.8
588.139	31.71
588.333	31.7
588.527	31.49
588.721	31.28
588.915	31.22
589.109	31.16
589.303	31.1
589.497	31.08
589.691	31.13
589.885	31.1
590.079	31.01
590.273	30.98
590.466	31.04
590.66	31.23
590.854	31.3
591.048	31.41
591.242	31.49
591.436	31.65
591.629	31.85
591.823	31.85
592.017	32.05
592.211	32.19
592.404	32.34
592.598	32.26
592.792	32.13
592.986	32.15
593.179	32.13
593.373	32.16
593.567	32.04
593.76	32.06
593.954	32.13
594.147	32.09
594.341	31.84
594.535	31.77
594.728	31.81
594.922	31.81
595.115	31.75
595.309	31.63
595.502	31.69
595.696	31.66
595.889	31.52
596.083	31.52
596.276	31.36
596.47	31.47
596.663	31.41
596.856	31.26
597.05	31.35
597.243	31.51
597.437	31.59
597.63	31.48
597.823	31.69
598.017	31.86
598.21	32.01
598.403	32.14
598.596	32.21
598.79	32.3
598.983	32.55
599.176	32.52
599.369	32.48
599.563	32.42
599.756	32.63
599.949	32.38
600.142	32.43
600.335	32.5
600.528	32.63
600.722	32.57
600.915	32.57
601.108	32.67
601.301	32.73
601.494	32.7
601.687	32.71
601.88	32.53
602.073	32.69
602.266	32.58
602.459	32.26
602.652	32.11
602.845	32.11
603.038	32.13
603.231	31.96
603.424	31.86
603.617	31.73
603.809	31.71
604.002	31.82
604.195	31.88
604.388	31.82
604.581	31.88
604.774	32.07
604.966	32.04
605.159	32.11
605.352	32.13
605.545	32.22
605.737	32.45
605.93	32.55
606.123	32.49
606.316	32.39
606.508	32.52
606.701	32.74
606.894	32.73
607.086	32.93
607.279	33.15
607.471	33.32
607.664	33.59
607.857	33.84
608.049	34.17
608.242	34.64
608.434	35.18
608.627	35.97
608.819	36.76
609.012	37.85
609.204	38.99
609.397	39.99
609.589	41.17
609.782	42.48
609.974	43.76
610.166	45.08
610.359	46.5
610.551	47.61
610.743	48.48
610.936	49.44
611.128	49.85
611.32	50.2
611.513	50.38
611.705	50.61
611.897	50.37
612.09	49.87
612.282	49.59
612.474	48.86
612.666	48.41
612.858	47.89
613.051	47.13
613.243	46.53
613.435	45.89
613.627	45.32
613.819	44.68
614.011	44.17
614.203	43.82
614.395	43.14
614.588	42.49
614.78	41.99
614.972	41.33
615.164	40.62
615.356	40.01
615.548	39.38
615.74	38.88
615.932	38.43
616.124	37.94
616.315	37.72
616.507	37.22
616.699	36.95
616.891	36.66
617.083	36.46
617.275	36.39
617.467	36.26
617.659	36.38
617.85	36.24
618.042	36.01
618.234	36
618.426	36
618.618	36.11
618.809	36.24
619.001	36.06
619.193	36.08
619.384	35.97
619.576	35.81
619.768	35.46
619.959	35.56
620.151	35.42
620.343	35.56
620.534	35.52
620.726	35.57
620.917	35.37
621.109	35.55
621.301	35.79
621.492	35.71
621.684	35.97
621.875	36.08
622.067	36.05
622.258	36.43
622.45	36.35
622.641	36.04
622.832	36.43
623.024	36.61
623.215	36.48
623.407	36.36
623.598	36.4
623.789	36.49
623.981	36.73
624.172	36.74
624.363	36.63
624.555	36.59
624.746	36.83
624.937	36.4
625.129	36.38
625.32	36.34
625.511	36.15
625.702	36.23
625.893	36.22
626.085	36
626.276	35.93
626.467	35.84
626.658	35.82
626.849	35.67
627.04	35.68
627.231	35.67
627.422	35.86
627.614	36.01
627.805	36.02
627.996	35.99
628.187	36.22
628.378	36.59
628.569	36.77
628.76	36.97
628.951	37.19
629.142	37.26
629.332	37.52
629.523	37.57
629.714	37.68
629.905	37.92
630.096	38.07
630.287	38.03
630.478	37.74
630.669	37.71
630.859	37.62
631.05	37.54
631.241	37.54
631.432	37.36
631.623	37.1
631.813	36.98
632.004	36.59
632.195	36.25
632.385	36.06
632.576	35.96
632.767	35.74
632.957	35.65
633.148	35.57
633.339	35.5
633.529	35.27
633.72	35.37
633.91	35.11
634.101	35.2
634.292	35.25
634.482	35.31
634.673	35.28
634.863	35.38
635.054	35.32
635.244	35.25
635.435	35.28
635.625	35.32
635.815	35.36
636.006	35.43
636.196	35.39
636.387	35.26
636.577	35.26
636.767	35.23
636.958	35.12
637.148	34.99
637.338	34.94
637.529	35.01
637.719	34.98
637.909	34.86
638.099	34.88
638.29	34.84
638.48	34.94
638.67	34.9
638.86	35.02
639.05	35.01
639.241	35.19
639.431	35.45
639.621	35.13
639.811	35.19
640.001	35.3
640.191	35.21
640.381	35.34
640.571	35.47
640.761	35.35
640.951	35.22
641.141	35.46
641.331	35.44
641.521	35.01
641.711	35.31
641.901	35.34
642.091	35.24
642.281	35.34
642.471	35.16
642.661	35.04
642.851	35.17
643.041	35.29
643.231	35.1
643.42	35.03
643.61	35.1
643.8	35.14
643.99	35.19
644.18	35.26
644.369	35.41
644.559	35.63
644.749	35.72
644.939	35.77
645.128	35.66
645.318	35.73
645.508	35.78
645.697	36.03
645.887	35.82
646.076	35.88
646.266	35.49
646.456	35.34
646.645	35.48
646.835	35.48
647.024	35.38
647.214	35.53
647.403	35.55
647.593	35.6
647.782	35.71
647.972	35.91
648.161	35.93
648.351	36.26
648.54	36.5
648.73	36.52
648.919	36.71
649.108	36.81
649.298	37.02
649.487	37.09
649.677	37.23
649.866	37.08
650.055	37.12
650.244	37.11
650.434	36.99
650.623	36.73
650.812	36.48
651.002	36.18
651.191	36.26
651.38	35.94
651.569	35.97
651.758	35.77
651.947	35.87
652.137	35.86
652.326	35.85
652.515	36.01
652.704	36.23
652.893	36.47
653.082	36.6
653.271	36.59
653.46	36.74
653.649	36.65
653.838	36.93
654.027	36.9
654.216	36.57
654.405	36.58
654.594	36.55
654.783	36.51
654.972	36.13
655.161	36.29
655.35	36.24
655.539	36.23
655.728	36.11
655.916	35.87
656.105	35.44
656.294	35.62
656.483	35.58
656.672	35.39
656.86	35.28
657.049	35.18
657.238	35.15
657.427	35.14
657.615	34.93
657.804	35.05
657.993	35
658.181	35.21
658.37	35.22
658.559	35.15
658.747	35.28
658.936	35.43
659.125	35.79
659.313	35.65
659.502	35.5
659.69	35.58
659.879	35.59
660.067	35.59
660.256	35.6
660.444	35.63
660.633	35.58
660.821	35.65
661.01	35.7
661.198	35.61
661.387	35.75
661.575	35.99
661.763	36.16
661.952	36.43
662.14	36.6
662.328	36.65
662.517	36.65
662.705	36.74
662.893	36.64
663.082	36.52
663.27	36.49
663.458	36.69
663.646	36.9
663.834	36.63
664.023	36.31
664.211	36.42
664.399	36.64
664.587	36.57
664.775	36.71
664.963	36.79
665.152	36.66
665.34	36.51
665.528	36.17
665.716	36.03
665.904	36.5
666.092	36.51
666.28	36.56
666.468	36.31
666.656	36.5
666.844	36.53
667.032	36.74
667.22	36.99
667.408	37.22
667.596	37.23
667.784	37.11
667.971	36.91
668.159	36.84
668.347	36.67
668.535	36.72
668.723	36.53
668.911	36.4
669.098	36.32
669.286	36.04
669.474	35.77
669.662	35.98
669.849	36.17
670.037	36.33
670.225	36.57
670.413	36.55
670.6	36.7
670.788	36.94
670.976	36.83
671.163	36.96
671.351	37.18
671.538	37.59
671.726	37.49
671.913	37.32
672.101	37.28
672.289	37.17
672.476	37.2
672.664	37.08
672.851	37.06
673.039	37.22
673.226	36.97
673.413	36.97
673.601	36.72
673.788	36.92
673.976	37.09
674.163	37.15
674.35	37.23
674.538	37.32
674.725	37.57
674.912	37.44
675.1	37.54
675.287	37.64
675.474	37.55
675.662	37.65
675.849	37.48
676.036	37.36
676.223	37.2
676.411	37.29
676.598	37.31
676.785	37.31
676.972	37.4
677.159	37.22
677.346	37.15
677.533	37.12
677.721	37.26
677.908	37.47
678.095	37.32
678.282	37.33
678.469	36.97
678.656	36.9
678.843	36.95
679.03	36.79
679.217	36.86
679.404	36.76
679.591	36.81
679.778	36.69
679.964	36.26
680.151	36.41
680.338	36.29
680.525	36.45
680.712	36.32
680.899	36.17
681.086	36.24
681.272	36.17
681.459	36.31
681.646	36.14
681.833	36.27
682.02	36.37
682.206	36.22
682.393	36.35
682.58	36.16
682.766	36.17
682.953	36.49
683.14	36.79
683.326	37.06
683.513	37.36
683.7	37.63
683.886	37.48
684.073	37.77
684.259	37.91
684.446	38.09
684.632	38.58
684.819	38.82
685.005	38.79
685.192	38.62
685.378	38.44
685.565	38.56
685.751	38.58
685.938	38.36
686.124	38.4
686.31	38.31
686.497	38.3
686.683	38.16
686.87	38.2
687.056	37.82
687.242	37.52
687.429	37.48
687.615	36.92
687.801	36.81
687.987	37.11
688.174	36.9
688.36	36.87
688.546	36.62
688.732	36.65
688.918	36.48
689.105	36.76
689.291	36.83
689.477	37.13
689.663	37.27
689.849	37.5
690.035	37.42
690.221	37.92
690.407	37.97
690.593	38.18
690.779	38.37
690.965	38.26
691.151	38.38
691.337	38.77
691.523	38.54
691.709	38.84
691.895	38.86
692.081	39.06
692.267	38.64
692.453	38.89
692.639	38.8
692.825	38.66
693.011	38.77
693.196	38.55
693.382	38.35
693.568	38.48
693.754	38.7
693.94	38.92
694.125	38.82
694.311	38.62
694.497	38.31
694.682	38.02
694.868	37.95
695.054	37.86
695.239	37.64
695.425	37.89
695.611	37.82
695.796	37.18
695.982	36.74
696.168	36.51
696.353	36.5
696.539	36.72
696.724	36.96
696.91	36.71
697.095	36.51
697.281	36.55
697.466	36.5
697.652	36.32
697.837	36.51
698.023	36.35
698.208	36.37
698.393	36.3
698.579	36.38
698.764	36.45
698.949	36.45
699.135	36.71
699.32	36.57
699.505	36.36
699.691	36.47
699.876	36.22
700.061	36.44
700.246	36.47
700.432	36.71
700.617	36.57
700.802	36.39
700.987	36.64
701.172	36.45
701.358	36.64
701.543	36.71
701.728	36.94
701.913	37.15
702.098	37.03
702.283	37.2
702.468	37.2
702.653	37.37
702.838	37.87
703.023	38.07
703.208	38.43
703.393	38.81
703.578	38.93
703.763	38.59
703.948	38.93
704.133	39.44
704.318	39.69
704.503	40.16
704.688	40.56
704.873	41.1
705.057	41.29
705.242	41.58
705.427	41.98
705.612	41.76
705.797	42.38
705.981	42.73
706.166	42.97
706.351	43.33
706.536	43.42
706.72	43.56
706.905	43.02
707.09	42.67
707.274	42.48
707.459	42.51
707.644	43.17
707.828	43.15
708.013	42.93
708.197	42.79
708.382	42.59
708.567	42.44
708.751	42.27
708.936	42.5
709.12	42.68
709.305	42.93
709.489	42.6
709.673	42.37
709.858	42.29
710.042	42.01
710.227	42.16
710.411	42.33
710.596	42.2
710.78	42.14
710.964	42.16
711.149	42.33
711.333	42.05
711.517	41.69
711.702	41.92
711.886	41.93
712.07	42.26
712.254	42.09
712.438	41.74
712.623	41.69
712.807	41.48
712.991	41.34
713.175	41.12
713.359	41.37
713.544	41.61
713.728	41.22
713.912	41.09
714.096	40.89
714.28	40.69
714.464	40.55
714.648	40.1
714.832	40.03
715.016	39.38
715.2	39.03
715.384	38.83
715.568	38.65
715.752	38.46
715.936	38.46
716.12	38.1
716.304	37.56
716.488	37.56
716.671	37.93
716.855	37.78
717.039	37.92
717.223	38.09
717.407	38.07
717.59	38.16
717.774	38.13
717.958	38.07
718.142	38.16
718.325	38.63
718.509	38.48
718.693	38.3
718.877	37.76
719.06	38.22
719.244	38.14
719.428	38.26
719.611	38.37
719.795	38.54
719.978	38.21
720.162	38.17
720.345	38.4
720.529	38.37
720.713	38.95
720.896	39.47
721.08	39.35
721.263	39.39
721.446	38.93
721.63	39.13
721.813	39.34
721.997	39.47
722.18	39.56
722.364	39.73
722.547	39.31
722.73	38.58
722.914	38.77
723.097	39.07
723.28	38.8
723.464	38.93
723.647	38.55
723.83	38.25
724.013	38.33
724.197	38.37
724.38	38.17
724.563	39.02
724.746	39.61
724.929	39.39
725.112	39.29
725.296	39.62
725.479	39.3
725.662	39.54
725.845	39.8
726.028	39.7
726.211	39.69
726.394	39.26
726.577	39.01
726.76	38.16
726.943	38.3
727.126	37.9
727.309	37.96
727.492	38.29
727.675	37.64
727.858	37.48
728.041	37.66
728.224	37.7
728.407	37.73
728.589	37.86
728.772	38.36
728.955	38.26
729.138	38.25
729.321	37.81
729.503	37.77
729.686	38.23
729.869	38.41
730.052	38.38
730.234	38.29
730.417	38.71
730.6	38.39
730.782	38.02
730.965	38.11
731.148	38.02
731.33	38.13
731.513	38.01
731.695	38.03
731.878	38.34
732.061	38.3
732.243	38.72
732.426	38.37
732.608	38.34
732.791	38.7
732.973	38.54
733.156	38.59
733.338	39.12
733.52	39.12
733.703	38.97
733.885	38.55
734.068	38.45
734.25	38.16
734.432	38.37
734.615	38.44
734.797	38.77
734.979	39.06
735.162	39.12
735.344	38.75
735.526	39.1
735.708	39.45
735.891	39.36
736.073	39.84
736.255	40.01
736.437	39.88
736.619	40.08
736.802	40.07
736.984	40.11
737.166	40.5
737.348	40.83
737.53	40.88
737.712	40.56
737.894	40.76
738.076	39.93
738.258	39.75
738.44	39.72
738.622	39.75
738.804	39.32
738.986	39.04
739.168	38.89
739.35	38.46
739.532	38.39
739.714	38.71
739.896	38.77
740.078	39.2
740.259	39.22
740.441	39.25
740.623	39.05
740.805	38.99
740.987	39.71
741.168	39.11
741.35	39.36
741.532	38.87
741.714	38.82
741.895	38.73
742.077	39.34
742.259	39.57
742.44	40.05
742.622	40.16
742.804	40.55
742.985	40.5
743.167	41.19
743.348	41.35
743.53	41.83
743.711	42.01
743.893	41.77
744.075	41.53
744.256	41.95
744.438	41.42
744.619	41.59
744.8	41.44
744.982	40.57
745.163	40.52
745.345	40.67
745.526	40.93
745.707	40.79
745.889	41.48
746.07	41.56
746.252	41.26
746.433	41.83
746.614	42.27
746.795	43.35
746.977	44.26
747.158	43.92
747.339	43.29
747.52	43.98
747.702	43.87
747.883	43.7
748.064	43.74
748.245	43.58
748.426	43.34
748.607	43.1
748.788	42.26
748.97	41.24
749.151	41.44
749.332	42
749.513	41.32
749.694	41.42
749.875	40.6
750.056	40.11
750.237	40.57
750.418	40.98
750.599	40.56
750.78	40.34
750.96	40.59
751.141	41.06
751.322	40.96
751.503	40.91
751.684	40.33
751.865	41.07
752.046	40.55
752.226	40.44
752.407	40.06
752.588	40.33
752.769	40.68
752.949	40.84
753.13	40.67
753.311	40.49
753.492	40.84
753.672	41.53
753.853	41.54
754.034	42.5
754.214	42.4
754.395	42.76
754.575	42.34
754.756	42.24
754.937	41.75
755.117	41.62
755.298	41.87
755.478	41
755.659	40.76
755.839	41.15
756.02	41.22
756.2	40.84
756.381	40.53
756.561	40.64
756.741	39.74
756.922	40.15
757.102	39.34
757.283	39.25
757.463	39.48
757.643	39.43
757.823	38.81
758.004	38.38
758.184	38.24
758.364	37.31
758.545	37.27
758.725	37.25
758.905	37.12
759.085	37.5
759.265	36.19
759.446	35.73
759.626	35.5
759.806	35.25
759.986	35.11
760.166	34.65
760.346	34.52
760.526	34.77
760.706	35.02
760.886	35.67
761.066	36.14
761.246	36.6
761.426	36.43
761.606	36.41
761.786	35.81
761.966	35.58
762.146	35.86
762.326	36.05
762.506	35.68
762.686	35.34
762.866	34.7
763.046	34.19
763.225	34.35
763.405	34.38
763.585	34.23
763.765	34.51
763.945	34.48
764.124	34.39
764.304	34.66
764.484	35.2
764.664	35.58
764.843	35.97
765.023	36.36
765.203	36.73
765.382	36.9
765.562	37.64
765.741	37.99
765.921	38.29
766.101	38.55
766.28	38.82
766.46	38.71
766.639	38.94
766.819	39.06
766.998	38.81
767.178	39.06
767.357	40.08
767.537	39.77
767.716	40.1
767.896	40.44
768.075	40.83
768.254	40.6
768.434	40.84
768.613	40.71
768.792	40.79
768.972	41.94
769.151	42.09
769.33	41.83
769.51	42.19
769.689	42.41
769.868	43.39
770.047	42.52
770.226	42.76
770.406	42.34
770.585	43.03
770.764	42.8
770.943	41.85
771.122	40.65
771.301	40.78
771.48	40.42
771.66	39.85
771.839	39.08
772.018	40
772.197	39.88
772.376	39.78
772.555	39.72
772.734	39.64
772.913	39.84
773.092	40.89
773.271	40.83
773.449	41.24
773.628	41.34
773.807	41.12
773.986	41.02
774.165	41.58
774.344	42.33
774.523	42.53
774.701	43.28
774.88	43.27
775.059	42.58
775.238	42.38
775.417	42.47
775.595	42.67
775.774	42.87
775.953	42.63
776.131	42
776.31	42.88
776.489	42.52
776.667	42.29
776.846	43.41
777.025	44.6
777.203	45.29
777.382	45.49
777.56	46.71
777.739	47.74
777.917	47.61
778.096	47.59
778.274	46.03
778.453	46.11
778.631	45.51
778.81	44.09
778.988	43.99
779.166	43.32
779.345	43.12
779.523	42.11
779.702	40.34
779.88	40.97
780.058	40.59
780.237	40.66
780.415	40.96
780.593	41.74
780.771	41.36
780.95	41.43
781.128	40.38
781.306	39.89
781.484	40.12
781.662	40.72
781.841	40.46
782.019	41.05
782.197	41.41
782.375	41.17
782.553	41.67
782.731	42.45
782.909	42.24
783.087	43.36
783.265	43.3
783.443	42.71
783.621	42.14
783.799	42.82
783.977	42.9
784.155	42.34
784.333	42.71
784.511	41.9
784.689	41.96
784.867	41.16
785.045	41.54
785.223	40.88
785.4	40.2
785.578	42
785.756	41.72
785.934	41.5
786.112	41.49
786.289	41.34
786.467	41.18
786.645	41.96
786.823	42.21
787	41.37
787.178	41.76
787.356	42.08
787.533	41.74
787.711	41.28
787.889	40.72
788.066	40.44
788.244	40.07
788.421	39.86
788.599	39.22
788.776	39.91
788.954	41.34
789.131	40.99
789.309	41.27
789.486	40.32
789.664	40.59
789.841	41.01
790.019	41.24
790.196	40.95
790.373	41.59
790.551	42.04
790.728	41.13
790.906	40.36
791.083	41.24
791.26	41.2
791.437	41.28
791.615	41.09
791.792	40.77
791.969	42.17
792.146	41.91
792.324	42.13
792.501	40.89
792.678	41.29
792.855	41.07
793.032	41.28
793.209	41.61
793.387	42.58
793.564	42.62
793.741	43.73
793.918	42.72
794.095	43.62
794.272	43.07
794.449	43.02
794.626	44.12
794.803	43.79
794.98	43.29
795.157	43.14
795.334	42.1
795.511	40.48
795.688	40.22
795.864	39.95
796.041	39.28
796.218	39.73
796.395	40.16
796.572	39.71
796.749	40.35
796.925	40.25
797.102	40.1
797.279	39.17
797.456	40.71
797.632	40.62
797.809	41.1
797.986	42.21
798.162	41.91
798.339	41.86
798.516	41.08
798.692	40.9
798.869	41.65
799.046	41.28
799.222	42.49
799.399	42.82
799.575	43.1
799.752	43.37
799.928	42.88
800.105	42.83
800.281	43.47
800.458	44.32
800.634	44.43
800.811	43.51
800.987	45.01
801.163	44.78
801.34	44.98
801.516	43.02
801.692	42.53
801.869	42.85
802.045	42.37
802.221	41.9
802.398	40.91
802.574	39.54
802.75	40.73
802.926	38.89
803.103	40.62
803.279	40.9
803.455	41.85
803.631	41.73
803.807	41.26
803.983	42.43
804.16	43.23
804.336	43.05
804.512	43.83
804.688	42.78
804.864	43.58
805.04	42.49
805.216	41.1
805.392	42.84
805.568	43.56
805.744	43.85
805.92	42.89
806.096	43.07
806.272	44.17
806.448	43.83
806.623	44.33
806.799	44.69
806.975	44.55
807.151	44.62
807.327	43.72
807.503	42.5
807.678	42.37
807.854	42.75
808.03	42.96
808.206	42.85
808.381	43.8
808.557	43.52
808.733	43.25
808.908	43.45
809.084	43.48
809.26	43.33
809.435	44.3
809.611	44.94
809.787	46.27
809.962	44.96
810.138	44.38
810.313	43.5
810.489	42.68
810.664	41.58
810.84	39.75
811.015	41.93
811.191	42.82
811.366	42.13
811.542	41.19
811.717	40.1
811.892	40.99
812.068	40.9
812.243	40.38
812.419	42.13
812.594	42.91
812.769	42.91
812.944	41.35
813.12	42.02
813.295	42.67
813.47	41.69
813.645	40.01
813.821	39.14
813.996	40.15
814.171	41.09
814.346	40.14
814.521	40.28
814.697	41.9
814.872	41.67
815.047	39.96
815.222	38.83
815.397	38.78
815.572	39.84
815.747	39.53
815.922	39.18
816.097	38.77
816.272	38.56
816.447	39.54
816.622	40.9
816.797	40.37
816.972	41.36
817.147	43.4
817.322	44.01
817.496	43.96
817.671	44.57
817.846	42.78
818.021	41.43
818.196	41.27
818.371	40.84
818.545	39.3
818.72	39.95
818.895	38.43
819.069	36.51
819.244	35.87
819.419	35.35
819.594	34.18
819.768	34.62
819.943	35.12
820.117	34.29
820.292	33.3
820.467	32.9
820.641	32.91
820.816	32.81
820.99	32.68
821.165	32.51
821.339	32.52
821.514	32.36
821.688	32.19
821.863	32.17
822.037	32.19
822.212	32.14
822.386	32.45
822.56	31.99
822.735	32.21
822.909	32
823.084	32.14
823.258	32.18
823.432	32.56
823.606	32.72
823.781	32.86
823.955	32.85
824.129	33.08
824.303	32.84
824.478	33.35
824.652	33.41
824.826	34.04
825	33.87
825.174	33.62
825.348	33.7
825.523	33.61
825.697	33.14
825.871	33.76
826.045	33.8
826.219	33.17
826.393	32.97
826.567	32.92
826.741	33.07
826.915	33.43
827.089	33.42
827.263	32.75
827.437	32.51
827.611	32.86
827.784	31.94
827.958	31.82
828.132	32.41
828.306	32.27
828.48	31.95
828.654	31.57
828.827	31.49
829.001	32.12
829.175	32.7
829.349	32.94
829.522	32.91
829.696	33.87
829.87	34.43
830.044	34.73
830.217	34.9
830.391	35.67
830.565	35.96
830.738	36.72
830.912	35.93
831.085	36.27
831.259	38.78
831.432	38.22
831.606	39.57
831.779	38.05
831.953	37.83
832.126	37.71
832.3	36.4
832.473	36.4
832.647	36.03
832.82	36.31
832.994	35.66
833.167	34.98
833.34	35.6
833.514	34.67
833.687	35.07
833.86	34.57
834.034	34.85
834.207	35.38
834.38	35.38
834.553	35.24
834.727	35
834.9	34.94
835.073	34.56
835.246	34.72
835.419	35.02
835.593	35.3
835.766	36.18
835.939	35.98
836.112	36.35
836.285	35.73
836.458	35.09
836.631	35.57
836.804	36.06
836.977	36.91
837.15	36.66
837.323	35.8
837.496	37.26
837.669	38.64
837.842	39.76
838.015	39.53
838.188	42.58
838.361	43.73
838.533	45.26
838.706	46.06
838.879	44.39
839.052	42.74
839.225	43.12
839.398	42.36
839.57	40.3
839.743	40.33
839.916	38.29
840.088	35.54
840.261	35.54
840.434	33.21
840.607	32.85
840.779	34.75
840.952	35.47
841.124	36.75
841.297	35.61
841.47	36.17
841.642	35.98
841.815	37.6
841.987	39.29
842.16	38.13
842.332	38.13
842.505	39.98
842.677	40.13
842.85	41.94
843.022	40.36
843.194	40.33
843.367	42.5
843.539	43.07
843.712	42.3
843.884	43.82
844.056	46.29
844.229	49.03
844.401	46.38
844.573	45.2
844.745	46.63
844.918	50.38
845.09	51.38
845.262	47.82
845.434	44.86
845.606	48.46
845.779	43.5
845.951	43.81
846.123	44.43
846.295	43.84
846.467	44.03
846.639	42.12
846.811	41.74
846.983	41.76
847.155	42.58
847.327	42.89
847.499	40.23
847.671	46.84
847.843	47.26
848.015	46.32
848.187	47.79
848.359	48.53
848.531	47.18
848.703	46.69
848.875	45.34
849.047	43.9
849.218	44.98
849.39	44.34
849.562	42.11
849.734	41.35
849.905	40.32
850.077	44.37
850.249	45.16
850.421	48.73
850.592	48.24
850.764	50.33
850.936	50.5
851.107	50.72
851.279	51.13
851.451	53.56
851.622	51.71
851.794	51.73
851.965	45.86
852.137	37.94
852.308	36.26
852.48	39.25
852.651	36.88
852.823	36.55
852.994	38.37
853.166	40.13
853.337	35
853.509	37.28
853.68	37.33
853.851	39.22
854.023	44.92
854.194	44.14
854.365	39.26
854.537	42.84
854.708	45.95
854.879	44.46
855.05	48.1
855.222	51.12
855.393	50.47
855.564	53.38
855.735	48.29
855.906	50.81
856.078	50.97
856.249	54.31
856.42	52.12
856.591	53.74
856.762	54.55
856.933	49.13
857.104	48.19
857.275	50.27
857.446	49.58
857.617	53.33
857.788	52.27
857.959	54.06
858.13	51.51
858.301	52.21
858.472	49.75
858.643	50.36
858.814	54.39
858.985	55.14
859.155	52.93
859.326	51.29
859.497	49.12
859.668	50.44
859.839	48.49
860.009	47.33
860.18	48.16
860.351	48.08
860.522	44.64
860.692	42.19
860.863	40.27
861.034	38.83
861.204	41.82
861.375	44.83
861.546	39.88
861.716	38.53
861.887	40.25
862.057	44.29
862.228	42.05
862.398	46.05
862.569	47.17
862.739	52.01
862.91	53.98
863.08	48.97
863.251	51.41
863.421	54.88
863.592	51.07
863.762	52.63
863.932	45.82
864.103	48.62
864.273	47.29
864.443	44.59
864.614	43.65
864.784	41.69
864.954	44.42
865.125	44.85
865.295	44.27
865.465	44.65
865.635	45.93
865.805	46.63
865.976	48.06
866.146	51.39
866.316	56.82
866.486	57.06
866.656	57.06
866.826	50.52
866.996	48.24
867.166	47.18
867.336	49.31
867.506	45.09
867.676	46.63
867.846	43.78
868.016	43.57
868.186	39.16
868.356	36.71
868.526	38.37
868.696	38.57
868.866	33.21
869.036	34.69
869.206	34.76
869.376	39.72
869.545	38.75
869.715	41.02
869.885	39.93
870.055	42.56
870.224	44.42
870.394	44.78
870.564	50.95
870.734	54.62
870.903	56.58
871.073	56.19
871.243	54.55
871.412	55.66
871.582	53.82
871.751	49.92
871.921	48.48
872.091	49.26
872.26	45.61
872.43	48.31
872.599	43.39
872.769	35.68
872.938	40.55
873.108	38.44
873.277	37.48
873.446	37.52
873.616	38.03
873.785	37.94
873.955	33.55
874.124	34.89
874.293	30.34
874.463	34.13
874.632	40.41
874.801	39.45
874.971	40.97
875.14	39.99
875.309	38.52
875.478	37.98
875.647	40.2
875.817	44.03
875.986	45.85
876.155	43.66
876.324	47.01
876.493	48.84
876.662	47.82
876.831	47.19
877	49.89
877.17	52.93
877.339	50.38
877.508	49.23
877.677	47.3
877.846	43.38
878.015	47.15
878.184	43.68
878.352	40.91
878.521	40.12
878.69	41.59
878.859	40.48
879.028	40.51
879.197	40.79
879.366	41.08
879.534	39.75
879.703	39.81
879.872	36.85
880.041	38.14
880.21	37.39
880.378	36.79
880.547	36.45
880.716	34.87
880.884	33.25
881.053	32
881.222	30.91
881.39	31.19
881.559	31.09
881.727	31.02
881.896	30.07
882.065	29.32
882.233	29.19
882.402	28.75
882.57	28.94
882.739	29.36
882.907	30.18
883.076	30.3
883.244	29.94
883.412	29.6
883.581	29.37
883.749	29.14
883.918	29.74
884.086	28.6
884.254	29.03
884.423	29.09
884.591	28.35
884.759	27.66
884.927	27.33
885.096	26.59
885.264	27.95
885.432	29.38
885.6	30.28
885.769	29.78
885.937	30.95
886.105	31.87
886.273	32.56
886.441	34.07
886.609	37.72
886.777	39.22
886.945	43.49
887.113	46.23
887.281	43.64
887.449	44.02
887.617	43.59
887.785	45.79
887.953	43.04
888.121	42.74
888.289	41.76
888.457	39.26
888.625	39.96
888.793	38.19
888.961	32.11
889.129	35.26
889.296	34.53
889.464	36.88
889.632	37.46
889.8	39.24
889.967	38.88
890.135	40.17
