Data from 2938795__Reflection_02.txt Node
Date: Fri Mar 13 10:42:30 EDT 2015
User: robert
Spectrometer: USB4E03002
Autoset integration time: false
Trigger mode: 4
Integration Time (sec): 1.000000E-1
Scans to average: 10
Electric dark correction enabled: false
Nonlinearity correction enabled: false
Boxcar width: 5
Stray light correction enabled: false
XAxis mode: Wavelengths
Stop averaging: false
Number of Pixels in Spectrum: 3648
>>>>>Begin Spectral Data<<<<<
177.575	327.24
177.794	460.26
178.014	470.43
178.233	709.12
178.452	749.36
178.672	895.45
178.891	1141.6
179.11	1325.44
179.33	1763.44
179.549	1355.51
179.768	2230.56
179.987	4331.08
180.207	1433.91
180.426	17433.33
180.645	1201.46
180.864	965.68
181.084	866.4
181.303	796.92
181.522	630
181.741	537.44
181.96	711.51
182.179	808.21
182.398	1399.56
182.618	20226.67
182.837	798.81
183.056	1221.85
183.275	1175
183.494	1456.36
183.713	1115.48
183.932	3043.4
184.151	2982.41
184.37	1609.05
184.589	3249.52
184.808	1025.58
185.027	1003.17
185.246	1287.64
185.465	889.89
185.684	1036.66
185.903	794.88
186.122	844.65
186.341	726.85
186.56	685.71
186.779	677.78
186.998	755.84
187.216	902.85
187.435	925.33
187.654	2596.92
187.873	7333.33
188.092	7046.81
188.311	46028.57
188.53	-2840.71
188.748	-3900
188.967	-2102.65
189.186	-7040.91
189.405	2050.9
189.623	1565.47
189.842	1072.42
190.061	1148.21
190.28	1393.8
190.498	3272.45
190.717	1516.51
190.936	2066.45
191.154	1815.17
191.373	1474.22
191.592	2535.77
191.81	2775.21
192.029	3097.12
192.248	6891.67
192.466	2207.64
192.685	2045.28
192.904	1768.75
193.122	3981.4
193.341	1412.05
193.559	6844
193.778	-8417.5
193.996	21200
194.215	15523.81
194.433	-5598.33
194.652	-20550
194.87	-4470.83
195.089	14570.83
195.307	2140.74
195.526	4569.86
195.744	2164.05
195.963	1052.34
196.181	876.86
196.399	958.57
196.618	1276.54
196.836	1265.2
197.055	1211.03
197.273	839.42
197.491	1484.21
197.71	1852.97
197.928	1311.19
198.146	1684.98
198.365	1598.17
198.583	1869.15
198.801	1124.19
199.019	907.47
199.238	770.73
199.456	853.07
199.674	1373.4
199.892	733.25
200.111	687.68
200.329	671.05
200.547	521.01
200.765	552.52
200.983	451.11
201.202	506.56
201.42	459.4
201.638	475.41
201.856	528.22
202.074	447.41
202.292	490.65
202.51	488.53
202.728	541.8
202.946	640
203.165	634.88
203.383	655.61
203.601	785
203.819	1231.1
204.037	1203.75
204.255	1278.87
204.473	1516.1
204.691	976.39
204.909	1434.03
205.127	1641.06
205.345	1896.55
205.562	3838.27
205.78	3886.25
205.998	1465.91
206.216	1043.91
206.434	849.74
206.652	529.06
206.87	602.39
207.088	921.53
207.306	811.04
207.523	639.25
207.741	721.21
207.959	723.86
208.177	765.38
208.395	1144.52
208.612	1138.05
208.83	1451.05
209.048	6309.62
209.266	1491.93
209.483	1708.78
209.701	1063.49
209.919	1451.3
210.136	760.83
210.354	617.67
210.572	546.11
210.79	586.63
211.007	631.92
211.225	819.73
211.442	635.36
211.66	671.81
211.878	450.37
212.095	465.18
212.313	450.36
212.53	468.34
212.748	482.55
212.966	636.8
213.183	550.95
213.401	380.18
213.618	433.12
213.836	530.86
214.053	785.19
214.271	2242.22
214.488	-1635.5
214.705	-1090.5
214.923	-836.6
215.14	-1442.93
215.358	-2270.43
215.575	-10740
215.793	-1007
216.01	-2098.37
216.227	-12127.27
216.445	1417.39
216.662	1087.31
216.879	642.45
217.097	527.37
217.314	504.53
217.531	496.15
217.749	513.81
217.966	499.86
218.183	468.83
218.4	349.95
218.618	327.29
218.835	318.64
219.052	297.15
219.269	287.22
219.487	269.03
219.704	261.79
219.921	272.75
220.138	262.59
220.355	263.26
220.572	244.19
220.79	256.46
221.007	242.62
221.224	241.76
221.441	198.77
221.658	185.06
221.875	171.68
222.092	165.75
222.309	157.36
222.526	146.3
222.743	143.62
222.96	143.88
223.177	142.87
223.394	136.47
223.611	136.46
223.828	142.37
224.045	140.91
224.262	140.45
224.479	136.97
224.696	131.95
224.913	123.62
225.13	114.26
225.347	105.88
225.564	99.16
225.781	93.89
225.997	83.1
226.214	75.97
226.431	68.71
226.648	63.17
226.865	56.25
227.082	47.52
227.298	39.91
227.515	34.26
227.732	31.02
227.949	28.73
228.165	27.38
228.382	25.75
228.599	24.36
228.816	22.66
229.032	21.48
229.249	20.69
229.466	21.09
229.682	22.27
229.899	23.1
230.116	23.68
230.332	23.92
230.549	24.66
230.765	25.8
230.982	26.39
231.199	27.21
231.415	28.36
231.632	30.14
231.848	32.88
232.065	34.35
232.281	36.67
232.498	36.98
232.714	40.26
232.931	40.82
233.147	41.6
233.364	42.37
233.58	42.75
233.797	43.97
234.013	43.88
234.23	40.7
234.446	40.47
234.662	38.85
234.879	38.99
235.095	37.5
235.312	37.47
235.528	37.24
235.744	36.39
235.961	38.74
236.177	37.41
236.393	36.86
236.61	38.81
236.826	38.8
237.042	38.27
237.258	38.4
237.475	39.07
237.691	38.26
237.907	38.93
238.123	38.88
238.339	38.12
238.556	40.08
238.772	39.21
238.988	37.09
239.204	35.19
239.42	34
239.636	33.59
239.853	30.84
240.069	29.58
240.285	27.38
240.501	26.4
240.717	24.19
240.933	22.05
241.149	20.66
241.365	19.7
241.581	18.96
241.797	18.59
242.013	17.03
242.229	16.7
242.445	16.18
242.661	16.2
242.877	16.25
243.093	15.76
243.309	15.49
243.525	16.14
243.741	17.18
243.957	17.69
244.173	17.44
244.388	18.24
244.604	18.78
244.82	18.94
245.036	18.43
245.252	17.6
245.468	16.93
245.683	15.99
245.899	15.59
246.115	14.27
246.331	13.42
246.547	13.21
246.762	12.69
246.978	12.1
247.194	11.72
247.409	11.49
247.625	11.17
247.841	11.24
248.057	11.52
248.272	11.02
248.488	10.96
248.703	11.38
248.919	11.79
249.135	12.24
249.35	12.67
249.566	13.61
249.782	14.43
249.997	15.73
250.213	16.4
250.428	17.01
250.644	18.58
250.859	19.11
251.075	18.5
251.29	18.03
251.506	17.8
251.721	18.02
251.937	17.41
252.152	17.35
252.368	16.58
252.583	16.99
252.798	17.24
253.014	16.87
253.229	17.22
253.445	18.29
253.66	19.22
253.875	20.4
254.091	21.49
254.306	22.39
254.521	22.58
254.737	24.25
254.952	24.55
255.167	24.32
255.383	24.71
255.598	25
255.813	24.83
256.028	25.25
256.244	24.47
256.459	23.04
256.674	21.94
256.889	21.62
257.104	19.82
257.32	18.72
257.535	17.9
257.75	16.89
257.965	15.55
258.18	14.33
258.395	12.58
258.61	11.68
258.826	10.94
259.041	10.7
259.256	10.17
259.471	9.72
259.686	9.2
259.901	8.73
260.116	8.59
260.331	8.46
260.546	8.45
260.761	8.75
260.976	9
261.191	9.47
261.406	9.72
261.621	9.78
261.836	10.26
262.05	11.22
262.265	12.19
262.48	12.89
262.695	13.42
262.91	14.04
263.125	14.54
263.34	15.01
263.555	15.31
263.769	15.2
263.984	15.66
264.199	16.45
264.414	16.25
264.629	16.17
264.843	16.11
265.058	16.4
265.273	16.07
265.488	15.8
265.702	15.36
265.917	15.02
266.132	14.7
266.346	14.39
266.561	13.99
266.776	13.62
266.99	13.26
267.205	12.76
267.42	13.07
267.634	12.85
267.849	12.88
268.063	12.89
268.278	12.49
268.492	12.73
268.707	13.24
268.922	13.24
269.136	13.12
269.351	13.25
269.565	13.1
269.78	12.57
269.994	12.42
270.209	12.15
270.423	12.04
270.637	11.93
270.852	11.61
271.066	11.13
271.281	11.07
271.495	10.97
271.709	10.95
271.924	10.94
272.138	10.9
272.353	10.96
272.567	11.07
272.781	10.85
272.996	10.93
273.21	10.97
273.424	11.21
273.638	11.34
273.853	11.45
274.067	11.46
274.281	11.89
274.495	12.03
274.71	12.31
274.924	11.81
275.138	12.06
275.352	12.13
275.566	12.29
275.781	12.27
275.995	12.42
276.209	12.93
276.423	13.03
276.637	12.84
276.851	12.85
277.065	12.56
277.279	12.6
277.493	12.72
277.707	12.97
277.921	12.99
278.135	13.57
278.349	12.94
278.563	12.64
278.777	12.67
278.991	12.29
279.205	12.07
279.419	12
279.633	12.09
279.847	11.29
280.061	10.58
280.275	10.56
280.489	9.7
280.703	9.98
280.917	9.89
281.131	9.69
281.344	9.83
281.558	9.68
281.772	9.84
281.986	10.17
282.2	10.71
282.414	10.95
282.627	10.59
282.841	10.75
283.055	10.58
283.269	10.54
283.482	10.56
283.696	10.29
283.91	10.49
284.123	10.38
284.337	10.16
284.551	9.76
284.764	9.5
284.978	9.77
285.192	9.41
285.405	9.28
285.619	9.07
285.833	9.06
286.046	9.01
286.26	8.93
286.473	8.73
286.687	8.6
286.9	8.55
287.114	8.75
287.327	8.78
287.541	9.28
287.754	9.45
287.968	9.75
288.181	9.58
288.395	9.87
288.608	9.87
288.822	10.06
289.035	10.1
289.248	10.31
289.462	10.41
289.675	10.43
289.889	9.84
290.102	9.95
290.315	9.76
290.529	9.77
290.742	9.87
290.955	9.73
291.169	9.8
291.382	9.87
291.595	10.04
291.808	9.8
292.022	9.78
292.235	10.22
292.448	9.87
292.661	10.24
292.875	10.29
293.088	10.29
293.301	10.37
293.514	10.01
293.727	9.71
293.94	9.39
294.153	9.58
294.367	9.09
294.58	9.03
294.793	9.33
295.006	9.01
295.219	9.26
295.432	9.39
295.645	9.27
295.858	9.42
296.071	9.55
296.284	9.68
296.497	9.7
296.71	9.62
296.923	9.63
297.136	9.59
297.349	9.66
297.562	9.4
297.775	9.3
297.988	9.73
298.201	9.69
298.414	9.66
298.626	9.78
298.839	9.81
299.052	10.12
299.265	10.28
299.478	10.27
299.691	10.22
299.903	10.4
300.116	10.57
300.329	10.37
300.542	10.81
300.755	11.14
300.967	11.26
301.18	11.54
301.393	11.71
301.605	11.78
301.818	12.03
302.031	12.52
302.243	12.81
302.456	12.77
302.669	12.95
302.881	13.04
303.094	13.36
303.307	13.33
303.519	13.04
303.732	13.35
303.944	13.27
304.157	13.36
304.37	13.1
304.582	12.96
304.795	12.98
305.007	13.05
305.22	13.01
305.432	12.54
305.645	12.54
305.857	12.68
306.069	12.47
306.282	12.7
306.494	12.46
306.707	12.29
306.919	12.34
307.132	12.43
307.344	12.11
307.556	12.12
307.769	12.57
307.981	12.7
308.193	12.37
308.406	12.19
308.618	12.2
308.83	11.96
309.043	11.95
309.255	12.06
309.467	12
309.679	12.04
309.892	11.87
310.104	11.33
310.316	11.32
310.528	11.73
310.74	11.83
310.953	11.66
311.165	11.84
311.377	12.05
311.589	12.22
311.801	12.09
312.013	11.85
312.225	11.95
312.437	12.3
312.649	12.66
312.862	12.79
313.074	12.73
313.286	13.28
313.498	13.52
313.71	13.72
313.922	13.51
314.134	14
314.346	14.62
314.558	14.94
314.77	15.04
314.982	14.43
315.193	14.26
315.405	14.72
315.617	13.94
315.829	14.15
316.041	13.77
316.253	13.7
316.465	13.82
316.677	13.65
316.888	13.49
317.1	13.45
317.312	13.86
317.524	14.18
317.736	14.13
317.947	14.65
318.159	14.41
318.371	14.9
318.583	14.95
318.794	14.78
319.006	14.73
319.218	14.96
319.43	15.03
319.641	15.19
319.853	15.02
320.064	15.17
320.276	15.24
320.488	15.49
320.699	15.45
320.911	15.8
321.123	15.92
321.334	16.26
321.546	16.33
321.757	16.66
321.969	16.8
322.18	16.75
322.392	16.62
322.603	16.67
322.815	16.5
323.026	16.3
323.238	15.63
323.449	15.31
323.661	15.34
323.872	15.13
324.083	14.83
324.295	14.28
324.506	14.47
324.718	14.53
324.929	14.54
325.14	14.29
325.352	14.64
325.563	14.99
325.774	14.95
325.986	14.77
326.197	14.99
326.408	15.18
326.62	15.22
326.831	15.18
327.042	14.96
327.253	15.03
327.464	15.52
327.676	15.2
327.887	15.23
328.098	15.33
328.309	15.62
328.52	15.89
328.732	15.9
328.943	16.28
329.154	16.18
329.365	16.56
329.576	16.28
329.787	16.21
329.998	16.54
330.209	17.1
330.42	16.97
330.631	16.93
330.842	16.56
331.053	16.52
331.264	16.62
331.475	16.98
331.686	17.14
331.897	17.61
332.108	17.68
332.319	17.55
332.53	17.25
332.741	17.52
332.952	17.27
333.163	17.28
333.374	17.22
333.585	17.23
333.795	16.79
334.006	16.39
334.217	16.13
334.428	15.76
334.639	15.85
334.849	15.54
335.06	15.66
335.271	15.67
335.482	15.65
335.692	15.91
335.903	15.56
336.114	15.95
336.325	16.06
336.535	16.09
336.746	16.56
336.957	16.41
337.167	16.57
337.378	16.46
337.589	16.46
337.799	16.32
338.01	16.1
338.22	16.24
338.431	15.87
338.642	15.8
338.852	15.56
339.063	15.29
339.273	15.06
339.484	15.13
339.694	14.97
339.905	15.21
340.115	15.44
340.326	15.18
340.536	15.2
340.746	15.12
340.957	15.06
341.167	15.08
341.378	14.98
341.588	14.98
341.799	14.99
342.009	15.11
342.219	15.04
342.43	14.89
342.64	14.99
342.85	14.68
343.061	14.65
343.271	14.89
343.481	14.98
343.691	15
343.902	14.81
344.112	14.51
344.322	14.33
344.532	14.4
344.743	14.28
344.953	14.45
345.163	14.43
345.373	14.34
345.583	13.75
345.793	13.73
346.004	13.75
346.214	14.17
346.424	14.38
346.634	14.41
346.844	14.25
347.054	14.14
347.264	13.79
347.474	14.14
347.684	14.33
347.894	14.71
348.104	14.55
348.314	14.23
348.524	14.13
348.734	14.1
348.944	13.77
349.154	13.49
349.364	13.74
349.574	13.81
349.784	13.46
349.994	13.48
350.204	13.43
350.413	13.64
350.623	13.87
350.833	13.77
351.043	13.91
351.253	14.27
351.463	14.71
351.672	14.64
351.882	14.48
352.092	14.65
352.302	14.24
352.511	14.29
352.721	14.14
352.931	14.29
353.141	14.3
353.35	13.94
353.56	13.72
353.77	13.35
353.979	13.04
354.189	13.24
354.399	13.27
354.608	13.52
354.818	13.45
355.027	13.18
355.237	12.76
355.447	12.44
355.656	12.86
355.866	13.04
356.075	12.9
356.285	12.74
356.494	12.6
356.704	12.75
356.913	12.58
357.123	12.52
357.332	12.6
357.542	12.77
357.751	13.05
357.96	12.79
358.17	12.62
358.379	12.53
358.589	12.77
358.798	12.7
359.007	12.33
359.217	12.43
359.426	12.6
359.635	12.56
359.845	12.44
360.054	12.08
360.263	12.01
360.472	11.93
360.682	11.98
360.891	11.66
361.1	11.6
361.309	11.49
361.519	11.55
361.728	11.33
361.937	11.23
362.146	11.1
362.355	11.1
362.564	11.2
362.774	11.28
362.983	11.27
363.192	11.35
363.401	11.51
363.61	11.75
363.819	11.4
364.028	11.4
364.237	11.44
364.446	11.63
364.655	11.98
364.864	11.73
365.073	11.74
365.282	11.86
365.491	12.01
365.7	12.01
365.909	12.08
366.118	12.36
366.327	12.51
366.536	12.72
366.745	12.77
366.954	12.71
367.162	12.89
367.371	12.95
367.58	12.98
367.789	12.76
367.998	12.59
368.207	12.55
368.415	12.4
368.624	12.28
368.833	12.12
369.042	12.15
369.25	12.11
369.459	12.17
369.668	11.88
369.877	11.6
370.085	11.82
370.294	11.78
370.503	11.39
370.711	11.37
370.92	11.2
371.129	11.33
371.337	11.22
371.546	10.96
371.754	10.51
371.963	10.56
372.171	10.87
372.38	10.77
372.589	10.76
372.797	10.96
373.006	11.04
373.214	11.05
373.423	10.7
373.631	10.57
373.84	10.65
374.048	10.93
374.256	11
374.465	10.79
374.673	10.87
374.882	10.85
375.09	10.86
375.298	10.92
375.507	10.89
375.715	10.99
375.923	10.9
376.132	10.8
376.34	10.66
376.548	10.57
376.757	10.53
376.965	10.36
377.173	10.16
377.381	10.21
377.59	10.09
377.798	10.12
378.006	10.23
378.214	10.35
378.423	10.38
378.631	10.42
378.839	10.6
379.047	10.44
379.255	10.57
379.463	10.73
379.671	10.75
379.879	10.67
380.088	10.77
380.296	10.61
380.504	10.48
380.712	10.62
380.92	10.66
381.128	10.36
381.336	10.34
381.544	10.35
381.752	10.37
381.96	10.01
382.168	9.85
382.376	9.76
382.584	9.95
382.791	9.84
382.999	9.72
383.207	9.45
383.415	9.33
383.623	9.31
383.831	9.2
384.039	9.05
384.247	9.26
384.454	9.45
384.662	9.46
384.87	9.37
385.078	9.44
385.285	9.21
385.493	9.28
385.701	9.31
385.909	9.52
386.116	9.47
386.324	9.43
386.532	9.26
386.739	9.2
386.947	9.22
387.155	9.34
387.362	9.25
387.57	9.63
387.778	9.62
387.985	9.77
388.193	9.68
388.4	9.77
388.608	10
388.816	9.98
389.023	10.03
389.231	10.02
389.438	9.75
389.646	9.92
389.853	9.48
390.061	9.48
390.268	9.4
390.475	9.14
390.683	9.31
390.89	9.12
391.098	9.3
391.305	9.15
391.512	9.08
391.72	8.91
391.927	8.75
392.135	8.91
392.342	8.96
392.549	8.87
392.756	9.03
392.964	8.62
393.171	8.6
393.378	8.31
393.586	8.3
393.793	8.22
394	8.22
394.207	8.22
394.414	8.18
394.622	8.12
394.829	8.24
395.036	8.17
395.243	8.25
395.45	8.3
395.657	8.43
395.864	8.45
396.072	8.44
396.279	8.55
396.486	8.6
396.693	8.37
396.9	8.44
397.107	8.36
397.314	8.44
397.521	8.52
397.728	8.55
397.935	8.62
398.142	8.62
398.349	8.62
398.556	8.68
398.763	8.73
398.97	8.92
399.177	8.78
399.383	8.74
399.59	8.66
399.797	8.68
400.004	8.5
400.211	8.52
400.418	8.6
400.625	8.65
400.831	8.64
401.038	8.59
401.245	8.48
401.452	8.46
401.658	8.52
401.865	8.48
402.072	8.5
402.279	8.62
402.485	8.48
402.692	8.2
402.899	8.09
403.105	8.01
403.312	7.91
403.519	7.96
403.725	7.93
403.932	7.68
404.138	7.63
404.345	7.53
404.552	7.45
404.758	7.35
404.965	7.59
405.171	7.7
405.378	7.69
405.584	7.61
405.791	7.44
405.997	7.45
406.204	7.65
406.41	7.7
406.617	7.8
406.823	7.78
407.029	7.98
407.236	8.01
407.442	7.96
407.649	7.95
407.855	7.98
408.061	8.3
408.268	8.26
408.474	8.36
408.68	8.36
408.887	8.32
409.093	8.22
409.299	7.96
409.505	7.69
409.712	7.62
409.918	7.46
410.124	7.5
410.33	7.39
410.537	7.29
410.743	7.38
410.949	7.33
411.155	7.32
411.361	7.44
411.567	7.64
411.773	7.6
411.98	7.62
412.186	7.91
412.392	7.96
412.598	7.92
412.804	8.16
413.01	8.04
413.216	8.15
413.422	8.04
413.628	8.06
413.834	7.99
414.04	7.94
414.246	7.96
414.452	7.8
414.658	7.65
414.864	7.69
415.07	7.61
415.275	7.55
415.481	7.56
415.687	7.45
415.893	7.35
416.099	7.39
416.305	7.52
416.511	7.35
416.716	7.27
416.922	7.17
417.128	7.1
417.334	6.98
417.539	6.87
417.745	6.69
417.951	6.67
418.157	6.59
418.362	6.42
418.568	6.33
418.774	6.3
418.979	6.4
419.185	6.46
419.391	6.43
419.596	6.44
419.802	6.43
420.008	6.46
420.213	6.56
420.419	6.55
420.624	6.61
420.83	6.58
421.035	6.55
421.241	6.44
421.446	6.4
421.652	6.34
421.857	6.24
422.063	6.21
422.268	6.2
422.474	6.06
422.679	6.14
422.885	6.08
423.09	6.05
423.295	6.05
423.501	6.05
423.706	6.01
423.911	5.97
424.117	5.99
424.322	5.93
424.527	5.94
424.733	5.94
424.938	5.85
425.143	5.87
425.349	5.9
425.554	5.96
425.759	6
425.964	6.11
426.169	6.2
426.375	6.3
426.58	6.44
426.785	6.5
426.99	6.66
427.195	6.75
427.4	6.83
427.605	6.93
427.811	6.93
428.016	6.91
428.221	6.85
428.426	6.88
428.631	6.89
428.836	6.91
429.041	6.82
429.246	6.71
429.451	6.78
429.656	6.81
429.861	6.91
430.066	6.94
430.271	6.98
430.476	6.94
430.681	6.96
430.886	6.93
431.09	6.88
431.295	6.82
431.5	6.84
431.705	6.73
431.91	6.74
432.115	6.64
432.32	6.79
432.524	6.77
432.729	6.79
432.934	6.82
433.139	6.78
433.343	6.82
433.548	6.82
433.753	6.78
433.958	6.79
434.162	6.75
434.367	6.72
434.572	6.54
434.776	6.47
434.981	6.47
435.186	6.4
435.39	6.47
435.595	6.49
435.799	6.6
436.004	6.7
436.209	6.67
436.413	6.61
436.618	6.58
436.822	6.7
437.027	6.78
437.231	6.74
437.436	6.78
437.64	6.7
437.845	6.62
438.049	6.58
438.253	6.47
438.458	6.48
438.662	6.56
438.867	6.56
439.071	6.48
439.275	6.46
439.48	6.49
439.684	6.46
439.888	6.42
440.093	6.41
440.297	6.36
440.501	6.33
440.706	6.41
440.91	6.43
441.114	6.41
441.318	6.42
441.523	6.41
441.727	6.41
441.931	6.41
442.135	6.45
442.339	6.45
442.543	6.51
442.748	6.55
442.952	6.49
443.156	6.37
443.36	6.42
443.564	6.5
443.768	6.45
443.972	6.49
444.176	6.51
444.38	6.49
444.584	6.54
444.788	6.53
444.992	6.55
445.196	6.5
445.4	6.42
445.604	6.4
445.808	6.36
446.012	6.36
446.216	6.31
446.42	6.22
446.624	6.21
446.828	6.12
447.032	6.09
447.235	6.04
447.439	6.02
447.643	6.1
447.847	6.1
448.051	6.07
448.254	6.11
448.458	6.16
448.662	6.17
448.866	6.26
449.069	6.34
449.273	6.35
449.477	6.41
449.681	6.48
449.884	6.59
450.088	6.58
450.292	6.59
450.495	6.54
450.699	6.52
450.902	6.65
451.106	6.66
451.31	6.71
451.513	6.65
451.717	6.67
451.92	6.76
452.124	6.71
452.327	6.7
452.531	6.68
452.734	6.83
452.938	6.77
453.141	6.77
453.345	6.7
453.548	6.61
453.752	6.66
453.955	6.65
454.158	6.5
454.362	6.42
454.565	6.48
454.769	6.48
454.972	6.38
455.175	6.43
455.379	6.42
455.582	6.42
455.785	6.52
455.988	6.57
456.192	6.58
456.395	6.75
456.598	6.76
456.801	6.73
457.005	6.82
457.208	6.86
457.411	6.87
457.614	6.77
457.817	6.66
458.021	6.5
458.224	6.45
458.427	6.37
458.63	6.28
458.833	6.27
459.036	6.25
459.239	6.2
459.442	6.19
459.645	6.14
459.848	6.09
460.051	6.1
460.254	6.16
460.457	6.18
460.66	6.26
460.863	6.2
461.066	6.25
461.269	6.3
461.472	6.37
461.675	6.46
461.878	6.51
462.081	6.68
462.284	6.8
462.486	6.78
462.689	6.81
462.892	6.82
463.095	7.01
463.298	7.02
463.5	7.08
463.703	6.95
463.906	6.82
464.109	6.78
464.311	6.73
464.514	6.79
464.717	6.91
464.92	6.92
465.122	6.87
465.325	6.79
465.528	6.83
465.73	6.72
465.933	6.79
466.135	6.8
466.338	6.77
466.541	6.78
466.743	6.67
466.946	6.66
467.148	6.67
467.351	6.68
467.553	6.59
467.756	6.52
467.958	6.6
468.161	6.65
468.363	6.62
468.566	6.76
468.768	6.77
468.971	6.81
469.173	6.8
469.375	6.74
469.578	6.71
469.78	6.83
469.983	6.82
470.185	6.81
470.387	6.75
470.59	6.78
470.792	6.68
470.994	6.73
471.196	6.76
471.399	6.79
471.601	6.8
471.803	6.86
472.005	6.82
472.208	6.91
472.41	6.82
472.612	6.82
472.814	6.91
473.016	6.89
473.218	6.91
473.421	6.85
473.623	6.75
473.825	6.73
474.027	6.76
474.229	6.69
474.431	6.69
474.633	6.81
474.835	6.86
475.037	6.77
475.239	6.85
475.441	6.82
475.643	6.87
475.845	6.91
476.047	6.87
476.249	6.77
476.451	6.9
476.653	6.83
476.855	6.77
477.057	6.69
477.258	6.64
477.46	6.61
477.662	6.57
477.864	6.57
478.066	6.53
478.268	6.52
478.469	6.58
478.671	6.52
478.873	6.53
479.075	6.48
479.276	6.42
479.478	6.42
479.68	6.32
479.882	6.25
480.083	6.21
480.285	6.25
480.487	6.33
480.688	6.23
480.89	6.18
481.091	6.12
481.293	6.09
481.495	6.06
481.696	6.01
481.898	5.98
482.099	5.93
482.301	5.88
482.502	5.77
482.704	5.64
482.905	5.61
483.107	5.55
483.308	5.52
483.51	5.47
483.711	5.47
483.913	5.42
484.114	5.39
484.315	5.37
484.517	5.34
484.718	5.37
484.92	5.37
485.121	5.35
485.322	5.38
485.524	5.4
485.725	5.41
485.926	5.39
486.127	5.41
486.329	5.42
486.53	5.44
486.731	5.43
486.932	5.43
487.134	5.47
487.335	5.47
487.536	5.46
487.737	5.46
487.938	5.47
488.139	5.49
488.341	5.51
488.542	5.49
488.743	5.51
488.944	5.54
489.145	5.53
489.346	5.54
489.547	5.55
489.748	5.55
489.949	5.6
490.15	5.63
490.351	5.61
490.552	5.63
490.753	5.66
490.954	5.63
491.155	5.64
491.356	5.65
491.557	5.63
491.758	5.68
491.959	5.68
492.159	5.68
492.36	5.7
492.561	5.69
492.762	5.68
492.963	5.69
493.164	5.72
493.364	5.72
493.565	5.78
493.766	5.88
493.967	5.87
494.167	5.95
494.368	5.99
494.569	5.98
494.769	6.02
494.97	6.09
495.171	6.17
495.371	6.24
495.572	6.32
495.773	6.27
495.973	6.25
496.174	6.3
496.375	6.36
496.575	6.34
496.776	6.37
496.976	6.42
497.177	6.45
497.377	6.51
497.578	6.49
497.778	6.5
497.979	6.59
498.179	6.55
498.38	6.56
498.58	6.53
498.78	6.5
498.981	6.53
499.181	6.56
499.382	6.58
499.582	6.54
499.782	6.6
499.983	6.65
500.183	6.7
500.383	6.78
500.584	6.78
500.784	6.82
500.984	7.03
501.184	7.07
501.385	7.05
501.585	7.1
501.785	7.07
501.985	7.11
502.185	7.13
502.386	7.04
502.586	7.08
502.786	7.11
502.986	7.15
503.186	7.05
503.386	7.15
503.586	7.25
503.786	7.28
503.987	7.32
504.187	7.26
504.387	7.31
504.587	7.41
504.787	7.39
504.987	7.46
505.187	7.44
505.387	7.51
505.587	7.51
505.786	7.57
505.986	7.57
506.186	7.62
506.386	7.72
506.586	7.71
506.786	7.68
506.986	7.73
507.186	7.66
507.386	7.78
507.585	7.75
507.785	7.69
507.985	7.62
508.185	7.66
508.384	7.65
508.584	7.62
508.784	7.65
508.984	7.66
509.183	7.74
509.383	7.85
509.583	7.76
509.782	7.77
509.982	7.86
510.182	7.85
510.381	7.94
510.581	8.02
510.781	8.12
510.98	8.14
511.18	8.13
511.379	8.11
511.579	8.14
511.778	8.21
511.978	8.26
512.177	8.27
512.377	8.34
512.576	8.3
512.776	8.34
512.975	8.33
513.175	8.35
513.374	8.43
513.573	8.49
513.773	8.56
513.972	8.66
514.172	8.74
514.371	8.86
514.57	8.92
514.77	9.06
514.969	9.21
515.168	9.22
515.367	9.25
515.567	9.3
515.766	9.33
515.965	9.39
516.164	9.37
516.364	9.43
516.563	9.41
516.762	9.43
516.961	9.41
517.16	9.33
517.359	9.39
517.559	9.42
517.758	9.46
517.957	9.54
518.156	9.49
518.355	9.51
518.554	9.48
518.753	9.44
518.952	9.49
519.151	9.5
519.35	9.57
519.549	9.61
519.748	9.66
519.947	9.79
520.146	9.85
520.345	9.95
520.544	10.05
520.743	10.14
520.942	10.38
521.141	10.39
521.339	10.51
521.538	10.51
521.737	10.6
521.936	10.67
522.135	10.63
522.333	10.64
522.532	10.75
522.731	10.8
522.93	10.81
523.129	10.74
523.327	10.87
523.526	10.85
523.725	10.96
523.923	10.98
524.122	11.07
524.321	10.96
524.519	10.94
524.718	10.92
524.917	10.92
525.115	10.93
525.314	10.98
525.512	11.02
525.711	11.03
525.909	11.04
526.108	11.05
526.306	11.05
526.505	11.13
526.703	11.16
526.902	11.15
527.1	11.15
527.299	11.2
527.497	11.18
527.696	11.22
527.894	11.25
528.092	11.27
528.291	11.29
528.489	11.32
528.688	11.34
528.886	11.35
529.084	11.39
529.283	11.46
529.481	11.51
529.679	11.56
529.877	11.56
530.076	11.6
530.274	11.67
530.472	11.77
530.67	11.82
530.869	11.89
531.067	12.03
531.265	12.15
531.463	12.17
531.661	12.2
531.859	12.27
532.057	12.35
532.255	12.43
532.454	12.47
532.652	12.49
532.85	12.57
533.048	12.62
533.246	12.61
533.444	12.6
533.642	12.7
533.84	12.75
534.038	12.86
534.236	12.92
534.434	12.97
534.632	13.04
534.83	13.06
535.027	13.09
535.225	13.18
535.423	13.26
535.621	13.37
535.819	13.41
536.017	13.46
536.215	13.41
536.412	13.49
536.61	13.51
536.808	13.51
537.006	13.59
537.203	13.69
537.401	13.79
537.599	13.9
537.797	13.9
537.994	14
538.192	14.11
538.39	14.24
538.587	14.29
538.785	14.4
538.983	14.43
539.18	14.57
539.378	14.59
539.575	14.6
539.773	14.6
539.97	14.69
540.168	14.61
540.366	14.68
540.563	14.7
540.761	14.72
540.958	14.74
541.155	14.79
541.353	14.82
541.55	14.81
541.748	14.79
541.945	14.86
542.143	14.85
542.34	14.94
542.537	14.94
542.735	15.03
542.932	15.09
543.129	15.17
543.327	15.28
543.524	15.34
543.721	15.56
543.919	15.73
544.116	15.81
544.313	16
544.51	16.15
544.708	16.29
544.905	16.37
545.102	16.46
545.299	16.58
545.496	16.66
545.693	16.71
545.891	16.74
546.088	16.76
546.285	16.75
546.482	16.73
546.679	16.71
546.876	16.7
547.073	16.77
547.27	16.86
547.467	16.86
547.664	16.87
547.861	16.99
548.058	16.97
548.255	17.12
548.452	17.2
548.649	17.28
548.846	17.35
549.043	17.53
549.24	17.53
549.437	17.61
549.633	17.7
549.83	17.78
550.027	17.68
550.224	17.76
550.421	17.67
550.618	17.74
550.814	17.84
551.011	17.89
551.208	17.81
551.405	17.87
551.601	17.88
551.798	17.92
551.995	17.98
552.191	18.1
552.388	18.01
552.585	18.04
552.781	18.02
552.978	18.1
553.175	18.1
553.371	18.24
553.568	18.33
553.764	18.33
553.961	18.31
554.157	18.4
554.354	18.39
554.55	18.62
554.747	18.74
554.943	18.82
555.14	18.86
555.336	18.99
555.533	18.96
555.729	18.83
555.926	18.99
556.122	19.03
556.318	19.07
556.515	19.15
556.711	19.06
556.907	19.15
557.104	19.34
557.3	19.37
557.496	19.4
557.693	19.41
557.889	19.63
558.085	19.56
558.281	19.67
558.478	19.73
558.674	19.69
558.87	19.76
559.066	19.89
559.262	19.76
559.459	19.65
559.655	19.74
559.851	19.81
560.047	19.89
560.243	19.87
560.439	19.86
560.635	19.67
560.831	19.67
561.027	19.71
561.223	19.61
561.419	19.78
561.615	19.87
561.811	19.81
562.007	19.79
562.203	19.58
562.399	19.63
562.595	19.73
562.791	19.96
562.987	20.09
563.183	20.17
563.379	20.19
563.575	20.17
563.771	20.17
563.966	20.29
564.162	20.4
564.358	20.56
564.554	20.53
564.75	20.42
564.945	20.29
565.141	20.28
565.337	20.3
565.533	20.23
565.728	20.21
565.924	20.16
566.12	20.16
566.315	20.19
566.511	20.19
566.707	20.26
566.902	20.4
567.098	20.44
567.293	20.52
567.489	20.6
567.684	20.86
567.88	20.87
568.076	20.96
568.271	20.95
568.467	21
568.662	21.06
568.858	21.11
569.053	21.05
569.248	21.21
569.444	21.22
569.639	21.16
569.835	20.87
570.03	21.01
570.225	21.03
570.421	21.1
570.616	21.02
570.812	21.08
571.007	21.1
571.202	21.16
571.397	21.14
571.593	21.09
571.788	21.02
571.983	21.12
572.178	20.99
572.374	21.09
572.569	21.14
572.764	21.19
572.959	21.21
573.154	21.25
573.35	21.18
573.545	21.19
573.74	21.27
573.935	21.4
574.13	21.42
574.325	21.56
574.52	21.53
574.715	21.53
574.91	21.51
575.105	21.5
575.3	21.59
575.495	21.73
575.69	21.89
575.885	22
576.08	22.13
576.275	22.25
576.47	22.34
576.665	22.45
576.86	22.52
577.055	22.73
577.25	22.86
577.444	23.04
577.639	23.22
577.834	23.21
578.029	23.27
578.224	23.42
578.418	23.55
578.613	23.6
578.808	23.64
579.003	23.79
579.197	23.72
579.392	23.79
579.587	23.68
579.781	23.66
579.976	23.86
580.171	23.97
580.365	23.95
580.56	24.05
580.755	24.25
580.949	24.39
581.144	24.46
581.338	24.69
581.533	24.83
581.727	24.93
581.922	25.04
582.116	25.05
582.311	25.04
582.505	25.11
582.7	25.18
582.894	25.15
583.089	25.27
583.283	25.26
583.478	25.28
583.672	25.27
583.866	25.3
584.061	25.3
584.255	25.39
584.449	25.46
584.644	25.56
584.838	25.47
585.032	25.45
585.226	25.48
585.421	25.62
585.615	25.66
585.809	25.58
586.003	25.74
586.198	25.71
586.392	25.63
586.586	25.74
586.78	25.76
586.974	25.73
587.168	25.76
587.363	25.62
587.557	25.46
587.751	25.45
587.945	25.47
588.139	25.39
588.333	25.27
588.527	25.24
588.721	25.19
588.915	25.23
589.109	25.32
589.303	25.41
589.497	25.43
589.691	25.49
589.885	25.49
590.079	25.43
590.273	25.49
590.466	25.73
590.66	25.82
590.854	25.76
591.048	25.65
591.242	25.71
591.436	25.66
591.629	25.76
591.823	25.88
592.017	25.95
592.211	26.18
592.404	26.16
592.598	26.1
592.792	26.03
592.986	26.13
593.179	26.14
593.373	26.03
593.567	26.06
593.76	25.97
593.954	25.91
594.147	25.93
594.341	25.88
594.535	25.83
594.728	25.77
594.922	25.69
595.115	25.6
595.309	25.56
595.502	25.52
595.696	25.4
595.889	25.38
596.083	25.27
596.276	25.19
596.47	25.16
596.663	25.11
596.856	25.08
597.05	25.23
597.243	25.18
597.437	25.29
597.63	25.43
597.823	25.53
598.017	25.56
598.21	25.82
598.403	25.96
598.596	26.16
598.79	26.41
598.983	26.67
599.176	26.83
599.369	27.14
599.563	27.29
599.756	27.45
599.949	27.53
600.142	27.65
600.335	27.64
600.528	27.57
600.722	27.44
600.915	27.38
601.108	27.25
601.301	27.08
601.494	26.98
601.687	26.88
601.88	26.85
602.073	26.82
602.266	26.83
602.459	26.64
602.652	26.62
602.845	26.47
603.038	26.39
603.231	26.38
603.424	26.32
603.617	26.21
603.809	26.13
604.002	26.09
604.195	26.04
604.388	26.02
604.581	26.15
604.774	26.21
604.966	26.34
605.159	26.45
605.352	26.43
605.545	26.6
605.737	26.75
605.93	26.87
606.123	26.96
606.316	27.15
606.508	27.27
606.701	27.26
606.894	27.51
607.086	27.72
607.279	27.88
607.471	28.11
607.664	28.25
607.857	28.35
608.049	28.64
608.242	28.95
608.434	29.34
608.627	29.77
608.819	30.39
609.012	30.94
609.204	31.65
609.397	32.43
609.589	33.36
609.782	34.32
609.974	35.54
610.166	36.62
610.359	37.8
610.551	38.78
610.743	39.62
610.936	40.3
611.128	41
611.32	41.4
611.513	41.74
611.705	41.94
611.897	41.81
612.09	41.39
612.282	41.07
612.474	40.47
612.666	39.83
612.858	39.52
613.051	39.17
613.243	38.73
613.435	38.3
613.627	37.69
613.819	37.36
614.011	37.28
614.203	37.01
614.395	36.53
614.588	36.18
614.78	35.92
614.972	35.44
615.164	35.19
615.356	34.51
615.548	34.18
615.74	33.99
615.932	33.61
616.124	33.15
616.315	33.11
616.507	32.87
616.699	32.69
616.891	32.69
617.083	32.51
617.275	32.26
617.467	32.4
617.659	32.14
617.85	31.97
618.042	31.79
618.234	31.63
618.426	31.34
618.618	31.16
618.809	30.99
619.001	30.82
619.193	30.91
619.384	30.89
619.576	30.7
619.768	30.84
619.959	31.09
620.151	31.12
620.343	31.08
620.534	31.06
620.726	31.28
620.917	31.38
621.109	31.53
621.301	31.5
621.492	31.4
621.684	31.63
621.875	31.55
622.067	31.47
622.258	31.39
622.45	31.66
622.641	31.65
622.832	31.7
623.024	31.78
623.215	31.8
623.407	31.75
623.598	31.81
623.789	31.64
623.981	31.85
624.172	31.72
624.363	31.72
624.555	31.46
624.746	31.31
624.937	31.03
625.129	30.8
625.32	30.64
625.511	30.64
625.702	30.67
625.893	30.52
626.085	30.33
626.276	30.42
626.467	30.48
626.658	30.49
626.849	30.66
627.04	30.68
627.231	30.67
627.422	30.65
627.614	30.65
627.805	30.6
627.996	30.63
628.187	30.85
628.378	30.95
628.569	31
628.76	31.25
628.951	31.39
629.142	31.58
629.332	31.79
629.523	32.07
629.714	32.43
629.905	32.45
630.096	32.71
630.287	32.8
630.478	32.9
630.669	32.8
630.859	32.82
631.05	32.84
631.241	33.01
631.432	33.12
631.623	32.88
631.813	32.43
632.004	32.44
632.195	32.45
632.385	32.01
632.576	31.77
632.767	31.68
632.957	31.56
633.148	31.36
633.339	31.12
633.529	30.86
633.72	30.81
633.91	30.74
634.101	30.75
634.292	30.72
634.482	30.77
634.673	30.68
634.863	30.96
635.054	30.67
635.244	30.8
635.435	30.94
635.625	31.02
635.815	30.94
636.006	31.1
636.196	30.98
636.387	30.81
636.577	30.85
636.767	31.02
636.958	31.01
637.148	31.22
637.338	31
637.529	30.88
637.719	30.93
637.909	31.07
638.099	31.12
638.29	31.2
638.48	31.33
638.67	31.5
638.86	31.54
639.05	31.44
639.241	31.51
639.431	31.59
639.621	31.63
639.811	31.63
640.001	31.91
640.191	31.95
640.381	32.22
640.571	32.29
640.761	32.35
640.951	32.19
641.141	32.19
641.331	32.19
641.521	32.2
641.711	32.63
641.901	32.65
642.091	32.62
642.281	32.68
642.471	32.78
642.661	32.79
642.851	32.95
643.041	33.18
643.231	33.27
643.42	33.32
643.61	33.41
643.8	33.13
643.99	33.18
644.18	32.93
644.369	32.84
644.559	32.82
644.749	32.81
644.939	32.58
645.128	32.72
645.318	32.9
645.508	32.84
645.697	33.05
645.887	32.91
646.076	32.88
646.266	33.02
646.456	33.11
646.645	33.07
646.835	33.05
647.024	33.24
647.214	33.09
647.403	32.94
647.593	32.9
647.782	32.62
647.972	32.56
648.161	32.71
648.351	32.63
648.54	32.63
648.73	32.46
648.919	32.56
649.108	32.59
649.298	32.67
649.487	32.56
649.677	32.68
649.866	32.82
650.055	32.82
650.244	32.71
650.434	32.76
650.623	32.93
650.812	33.1
651.002	32.9
651.191	32.81
651.38	32.81
651.569	32.89
651.758	32.96
651.947	32.87
652.137	33.17
652.326	33.33
652.515	33.44
652.704	33.51
652.893	33.44
653.082	33.59
653.271	33.73
653.46	33.56
653.649	33.45
653.838	33.13
654.027	33.3
654.216	33.03
654.405	32.81
654.594	32.69
654.783	32.35
654.972	32.38
655.161	32.31
655.35	32.05
655.539	32.2
655.728	32.29
655.916	32.7
656.105	32.57
656.294	32.77
656.483	32.81
656.672	32.99
656.86	33.01
657.049	32.92
657.238	32.92
657.427	32.99
657.615	32.85
657.804	32.89
657.993	32.68
658.181	32.56
658.37	32.45
658.559	32.39
658.747	32.31
658.936	32.38
659.125	32.07
659.313	31.97
659.502	32.1
659.69	32.08
659.879	32.1
660.067	31.98
660.256	32.21
660.444	32.38
660.633	32.57
660.821	32.67
661.01	32.79
661.198	33.27
661.387	33.58
661.575	33.83
661.763	34.1
661.952	34.31
662.14	34.62
662.328	34.62
662.517	34.69
662.705	34.75
662.893	34.89
663.082	35.11
663.27	35.17
663.458	35.25
663.646	35.16
663.834	35.03
664.023	34.81
664.211	34.93
664.399	35.14
664.587	35.24
664.775	35.29
664.963	35.19
665.152	34.93
665.34	35.16
665.528	35.01
665.716	34.88
665.904	35.1
666.092	35.08
666.28	35.26
666.468	35.17
666.656	35.22
666.844	35.31
667.032	35.36
667.22	35.31
667.408	35.19
667.596	35.21
667.784	35.1
667.971	35.35
668.159	35.5
668.347	35.19
668.535	35.42
668.723	35.18
668.911	35.07
669.098	35.07
669.286	35.16
669.474	35.05
669.662	35.11
669.849	35.14
670.037	34.98
670.225	35.1
670.413	35.29
670.6	35.17
670.788	35.34
670.976	35.28
671.163	35.33
671.351	35.48
671.538	35.69
671.726	36
671.913	36.31
672.101	36.32
672.289	36.15
672.476	36.06
672.664	36.08
672.851	35.98
673.039	35.95
673.226	35.91
673.413	35.75
673.601	35.69
673.788	35.36
673.976	35.3
674.163	35.14
674.35	35.18
674.538	35.28
674.725	35.13
674.912	35.24
675.1	35.45
675.287	35.43
675.474	35.48
675.662	35.5
675.849	35.67
676.036	35.7
676.223	35.88
676.411	36.21
676.598	36.19
676.785	36.48
676.972	36.58
677.159	36.23
677.346	36.35
677.533	36.41
677.721	36.37
677.908	36.44
678.095	36.18
678.282	35.92
678.469	35.68
678.656	35.74
678.843	35.27
679.03	34.98
679.217	35.26
679.404	35.16
679.591	34.83
679.778	34.87
679.964	34.64
680.151	34.4
680.338	34.59
680.525	34.36
680.712	34.42
680.899	34.68
681.086	34.69
681.272	34.55
681.459	34.52
681.646	34.77
681.833	34.81
682.02	34.9
682.206	35.43
682.393	35.69
682.58	35.88
682.766	35.81
682.953	36.04
683.14	36.43
683.326	36.83
683.513	37.32
683.7	37.45
683.886	37.39
684.073	37.58
684.259	37.76
684.446	37.5
684.632	37.74
684.819	37.83
685.005	37.64
685.192	37.46
685.378	37.34
685.565	37.04
685.751	37.13
685.938	37.12
686.124	37.06
686.31	36.99
686.497	37.08
686.683	36.68
686.87	36.26
687.056	36.47
687.242	36.59
687.429	36.64
687.615	36.63
687.801	36.71
687.987	36.83
688.174	36.87
688.36	36.71
688.546	36.8
688.732	37.51
688.918	37.85
689.105	37.94
689.291	37.9
689.477	38.28
689.663	38.27
689.849	38.38
690.035	38.44
690.221	38.43
690.407	38.69
690.593	38.58
690.779	38.42
690.965	38.6
691.151	38.25
691.337	38.41
691.523	37.98
691.709	37.79
691.895	37.67
692.081	37.84
692.267	38.2
692.453	38.12
692.639	37.92
692.825	37.7
693.011	37.65
693.196	38.1
693.382	38.28
693.568	38.6
693.754	39.05
693.94	39.26
694.125	38.86
694.311	38.88
694.497	38.81
694.682	39.59
694.868	39.73
695.054	39.59
695.239	39.6
695.425	39.26
695.611	39.06
695.796	39.23
695.982	38.73
696.168	38.91
696.353	38.5
696.539	38.3
696.724	37.61
696.91	37.32
697.095	37.05
697.281	36.39
697.466	36.16
697.652	35.68
697.837	35.07
698.023	34.66
698.208	34.31
698.393	34.09
698.579	33.88
698.764	33.65
698.949	33.61
699.135	33.58
699.32	33.54
699.505	33.6
699.691	33.68
699.876	33.69
700.061	34.19
700.246	34.48
700.432	34.81
700.617	35.27
700.802	35.62
700.987	36.06
701.172	36.73
701.358	37.3
701.543	37.73
701.728	38.27
701.913	38.58
702.098	38.8
702.283	39.12
702.468	39.26
702.653	39.48
702.838	39.68
703.023	39.87
703.208	40.14
703.393	40.34
703.578	40.28
703.763	40.65
703.948	41.02
704.133	41.24
704.318	41.9
704.503	42.23
704.688	42.58
704.873	43.1
705.057	42.94
705.242	42.8
705.427	43.3
705.612	43.81
705.797	43.82
705.981	44.33
706.166	44.86
706.351	44.64
706.536	44.94
706.72	44.89
706.905	45.02
707.09	45.36
707.274	45.65
707.459	45.59
707.644	45.29
707.828	45.12
708.013	44.55
708.197	44.21
708.382	43.98
708.567	43.56
708.751	43.48
708.936	43.14
709.12	43.22
709.305	42.79
709.489	42.73
709.673	42.86
709.858	42.89
710.042	43.1
710.227	42.86
710.411	43.16
710.596	42.82
710.78	42.92
710.964	43.32
711.149	43.07
711.333	43.2
711.517	42.88
711.702	42.83
711.886	42.71
712.07	42.4
712.254	42.34
712.438	42.2
712.623	42.36
712.807	41.89
712.991	41.54
713.175	41.08
713.359	41.13
713.544	40.83
713.728	40.56
713.912	40.46
714.096	40.4
714.28	40.16
714.464	39.76
714.648	39.61
714.832	39.55
715.016	39.22
715.2	39.57
715.384	38.95
715.568	38.95
715.752	38.58
715.936	38.38
716.12	38.21
716.304	38.34
716.488	38.33
716.671	38.21
716.855	38.35
717.039	38.28
717.223	37.55
717.407	37.69
717.59	37.91
717.774	38.19
717.958	38.07
718.142	38.53
718.325	38.43
718.509	38.71
718.693	38.96
718.877	38.95
719.06	39.31
719.244	40.4
719.428	40.69
719.611	40.62
719.795	41.09
719.978	41.43
720.162	41.13
720.345	41.89
720.529	41.81
720.713	41.91
720.896	41.86
721.08	41.4
721.263	41.53
721.446	41.79
721.63	41.85
721.813	41.81
721.997	41.62
722.18	41.7
722.364	41.1
722.547	40.62
722.73	40.32
722.914	40.75
723.097	41.17
723.28	40.58
723.464	40.22
723.647	40.49
723.83	40.12
724.013	40.26
724.197	40.59
724.38	40.35
724.563	40.65
724.746	41.41
724.929	40.76
725.112	40.88
725.296	41.27
725.479	41.46
725.662	41.18
725.845	41.3
726.028	41.39
726.211	41.09
726.394	41.38
726.577	41.53
726.76	41.68
726.943	41.69
727.126	41.51
727.309	41.27
727.492	41.12
727.675	41.06
727.858	40.72
728.041	40.75
728.224	41.1
728.407	40.98
728.589	40.71
728.772	40.17
728.955	40.31
729.138	40.01
729.321	39.74
729.503	39.71
729.686	40.01
729.869	39.95
730.052	39.75
730.234	39.71
730.417	39.51
730.6	39.33
730.782	39.32
730.965	39.34
731.148	39.75
731.33	39.84
731.513	39.75
731.695	39.31
731.878	39.6
732.061	39.68
732.243	39.91
732.426	40.27
732.608	40.51
732.791	40.47
732.973	40.6
733.156	40.53
733.338	40.65
733.52	40.97
733.703	40.99
733.885	41.04
734.068	41.25
734.25	41.05
734.432	41.4
734.615	41.52
734.797	42.06
734.979	41.6
735.162	42.04
735.344	41.85
735.526	42.12
735.708	42.32
735.891	42.46
736.073	42.64
736.255	42.85
736.437	42.53
736.619	42.72
736.802	42.58
736.984	42.94
737.166	42.61
737.348	43.24
737.53	43.01
737.712	43.54
737.894	43.9
738.076	44.29
738.258	44.31
738.44	44.15
738.622	44.68
738.804	44.41
738.986	44.87
739.168	44.91
739.35	44.87
739.532	45.01
739.714	44.97
739.896	44.61
740.078	44.64
740.259	44.75
740.441	45.62
740.623	45.27
740.805	46.02
740.987	45.97
741.168	46.64
741.35	46.86
741.532	47.05
741.714	47.27
741.895	48.13
742.077	48.13
742.259	48.65
742.44	49.05
742.622	49.71
742.804	49.35
742.985	49.65
743.167	48.98
743.348	49.17
743.53	49.22
743.711	49.11
743.893	48.17
744.075	49.12
744.256	48.85
744.438	48.58
744.619	48.4
744.8	48.58
744.982	48.68
745.163	49.28
745.345	49.55
745.526	50.14
745.707	50.45
745.889	51.04
746.07	49.99
746.252	50.53
746.433	50.08
746.614	49.54
746.795	49.71
746.977	49.73
747.158	49.28
747.339	49.28
747.52	49.07
747.702	48.93
747.883	49.21
748.064	49.61
748.245	48.92
748.426	48.55
748.607	48.81
748.788	49
748.97	49.15
749.151	49.86
749.332	49.9
749.513	50.01
749.694	49.98
749.875	50.07
750.056	49.32
750.237	49.33
750.418	49.7
750.599	50.1
750.78	50.04
750.96	50.49
751.141	49.84
751.322	49.94
751.503	49.72
751.684	50.07
751.865	48.99
752.046	49.96
752.226	50.07
752.407	50.07
752.588	49.59
752.769	50.18
752.949	49.54
753.13	49.96
753.311	49.57
753.492	49.51
753.672	49.14
753.853	49.56
754.034	49.08
754.214	49.34
754.395	49.58
754.575	50.29
754.756	50.01
754.937	50.85
755.117	50.85
755.298	50.74
755.478	51.29
755.659	51.31
755.839	51.73
756.02	51.67
756.2	52.08
756.381	51.78
756.561	51.04
756.741	49.77
756.922	49.48
757.102	49.55
757.283	49.08
757.463	48.29
757.643	48.77
757.823	49.38
758.004	48.8
758.184	47.92
758.364	47.87
758.545	47.41
758.725	47.42
758.905	46.36
759.085	45.48
759.265	45.68
759.446	44.86
759.626	43.86
759.806	42.67
759.986	42.6
760.166	42.18
760.346	41.67
760.526	42.06
760.706	41.81
760.886	41.49
761.066	41.61
761.246	41.3
761.426	41.73
761.606	41.24
761.786	40.72
761.966	40.64
762.146	40.28
762.326	40.03
762.506	39.4
762.686	39.18
762.866	39.27
763.046	38.72
763.225	38.51
763.405	37.96
763.585	37.83
763.765	37.85
763.945	37.66
764.124	38.01
764.304	38.21
764.484	38.37
764.664	38.89
764.843	38.96
765.023	39.21
765.203	39.71
765.382	40.79
765.562	41.56
765.741	42.44
765.921	43.37
766.101	43.68
766.28	44.54
766.46	45.73
766.639	46.52
766.819	47.02
766.998	48.04
767.178	48.08
767.357	48.07
767.537	48.72
767.716	49.43
767.896	49.45
768.075	50.28
768.254	50.23
768.434	50.16
768.613	50.49
768.792	51.29
768.972	51.3
769.151	52.11
769.33	52.68
769.51	52.47
769.689	52.64
769.868	53.29
770.047	53.63
770.226	53.57
770.406	53.35
770.585	53.52
770.764	53.81
770.943	54.41
771.122	53.97
771.301	54.55
771.48	55.56
771.66	55.92
771.839	56.06
772.018	56
772.197	56.36
772.376	57.06
772.555	56.52
772.734	57.18
772.913	56.96
773.092	56.9
773.271	56.34
773.449	55.55
773.628	55.29
773.807	55.14
773.986	55.21
774.165	55.8
774.344	56.04
774.523	55.85
774.701	55.52
774.88	55.57
775.059	56.44
775.238	56.17
775.417	56.32
775.595	56.44
775.774	56.31
775.953	56.33
776.131	56.11
776.31	54.81
776.489	55.15
776.667	54.3
776.846	54.6
777.025	54.34
777.203	54.96
777.382	55.21
777.56	54.89
777.739	55.23
777.917	54.96
778.096	55.33
778.274	56.61
778.453	56.74
778.631	57.28
778.81	57.21
778.988	57.09
779.166	57.24
779.345	56.94
779.523	57.43
779.702	57.62
779.88	56.84
780.058	56.78
780.237	56.61
780.415	56.81
780.593	57.33
780.771	57.15
780.95	58.28
781.128	57.91
781.306	58.6
781.484	58.11
781.662	57.71
781.841	58.7
782.019	58.4
782.197	58.79
782.375	58.95
782.553	58.83
782.731	59.36
782.909	59.38
783.087	60.34
783.265	60.98
783.443	61.59
783.621	62.17
783.799	61.74
783.977	63.16
784.155	63.08
784.333	62.5
784.511	62.26
784.689	62.03
784.867	61.26
785.045	60.33
785.223	60.24
785.4	59.62
785.578	59.34
785.756	59.65
785.934	59.01
786.112	58.47
786.289	59.16
786.467	59.03
786.645	59.04
786.823	58.9
787	59.31
787.178	59.09
787.356	57.99
787.533	58.23
787.711	58.06
787.889	56.86
788.066	55.88
788.244	54.75
788.421	54.09
788.599	53.16
788.776	53
788.954	52.51
789.131	52.41
789.309	52.79
789.486	51.37
789.664	51.35
789.841	51.98
790.019	53.47
790.196	54.33
790.373	54.75
790.551	55.99
790.728	56.21
790.906	57.05
791.083	56.72
791.26	57.3
791.437	57.93
791.615	58.8
791.792	59.35
791.969	58.88
792.146	59.18
792.324	59.96
792.501	60.84
792.678	60.27
792.855	59.5
793.032	59.9
793.209	60.17
793.387	61.01
793.564	60.16
793.741	59.06
793.918	59.48
794.095	58.51
794.272	58.29
794.449	56.26
794.626	56.5
794.803	56.66
794.98	55.65
795.157	55.48
795.334	54.75
795.511	55.08
795.688	55.13
795.864	54.79
796.041	54.75
796.218	55.27
796.395	55.59
796.572	55.52
796.749	54.86
796.925	55.37
797.102	55.62
797.279	55.63
797.456	55.53
797.632	56.05
797.809	55.79
797.986	56.53
798.162	55.58
798.339	56.05
798.516	56.94
798.692	58.01
798.869	58
799.046	58.27
799.222	58.75
799.399	58.75
799.575	59.54
799.752	60
799.928	59.17
800.105	59.04
800.281	58.46
800.458	57.59
800.634	57.14
800.811	56.44
800.987	55.82
801.163	55.85
801.34	56.3
801.516	55.89
801.692	57.07
801.869	58.52
802.045	58.2
802.221	59.38
802.398	59.94
802.574	59.53
802.75	60.72
802.926	61.57
803.103	61.4
803.279	61.6
803.455	60.81
803.631	59.57
803.807	59.52
803.983	61.81
804.16	62.4
804.336	62.33
804.512	62.58
804.688	61.33
804.864	60.68
805.04	61.28
805.216	61.24
805.392	62.39
805.568	63.54
805.744	63.65
805.92	63.34
806.096	62.98
806.272	63
806.448	65.56
806.623	67.02
806.799	66.72
806.975	66.4
807.151	66.44
807.327	65.91
807.503	64.25
807.678	63.65
807.854	62.75
808.03	61.53
808.206	62.45
808.381	60.09
808.557	59.85
808.733	60.28
808.908	59.54
809.084	58.23
809.26	58.58
809.435	59.24
809.611	59.12
809.787	58.54
809.962	58.48
810.138	58.13
810.313	59.43
810.489	61.01
810.664	61.3
810.84	61.73
811.015	63.72
811.191	62.6
811.366	63.03
811.542	62.61
811.717	62.85
811.892	64.02
812.068	63.35
812.243	63.15
812.419	61.98
812.594	62.21
812.769	62.5
812.944	62.73
813.12	62.64
813.295	62.12
813.47	62.83
813.645	62.82
813.821	61.7
813.996	60.99
814.171	60.27
814.346	60.25
814.521	60.3
814.697	60.97
814.872	60.2
815.047	61.28
815.222	61.84
815.397	61.42
815.572	61.67
815.747	62.2
815.922	62.01
816.097	61.05
816.272	60.11
816.447	59.65
816.622	60.11
816.797	59.96
816.972	59.55
817.147	59.47
817.322	59.58
817.496	58.72
817.671	57.21
817.846	56.92
818.021	57.3
818.196	57.48
818.371	57.31
818.545	56.45
818.72	55.97
818.895	54.7
819.069	52.44
819.244	51.31
819.419	50.64
819.594	50.73
819.768	49.44
819.943	47.77
820.117	46.34
820.292	44.54
820.467	42.94
820.641	40.5
820.816	38.86
820.99	37.41
821.165	36.25
821.339	35.11
821.514	33.93
821.688	33.41
821.863	32.81
822.037	32.19
822.212	31.48
822.386	30.43
822.56	30.49
822.735	30.33
822.909	30.25
823.084	30.01
823.258	29.87
823.432	29.98
823.606	29.81
823.781	29.85
823.955	29.99
824.129	30.43
824.303	31.15
824.478	31.27
824.652	31.62
824.826	31.84
825	32.54
825.174	33.2
825.348	33.56
825.523	34.32
825.697	34.81
825.871	35.2
826.045	35.29
826.219	35.39
826.393	35.33
826.567	35.45
826.741	35.93
826.915	35.28
827.089	35.63
827.263	35.31
827.437	35.36
827.611	35.04
827.784	34.64
827.958	34.83
828.132	35.49
828.306	35.53
828.48	35.64
828.654	35.66
828.827	36.7
829.001	36.92
829.175	38.41
829.349	39.32
829.522	41.28
829.696	43.46
829.87	45.32
830.044	46.19
830.217	47.78
830.391	50.08
830.565	52.55
830.738	54.71
830.912	55.87
831.085	56.06
831.259	57.34
831.432	57.64
831.606	57.12
831.779	55.85
831.953	54.81
832.126	53.64
832.3	51.74
832.473	50.12
832.647	47.69
832.82	46
832.994	44.79
833.167	44.27
833.34	43.27
833.514	41.92
833.687	40.48
833.86	39.7
834.034	39.55
834.207	40.07
834.38	39.2
834.553	39.38
834.727	39.3
834.9	39.32
835.073	38.74
835.246	38.88
835.419	40.09
835.593	41.68
835.766	42.51
835.939	43.95
836.112	44.38
836.285	46.12
836.458	48
836.631	50.56
836.804	51.71
836.977	53.93
837.15	55.39
837.323	57.32
837.496	59.8
837.669	61.5
837.842	64.09
838.015	64.84
838.188	66.54
838.361	65.82
838.533	65.72
838.706	66.99
838.879	65.6
839.052	65.21
839.225	66.24
839.398	64.77
839.57	64.67
839.743	63.3
839.916	61.82
840.088	61.73
840.261	63.37
840.434	63.83
840.607	64.24
840.779	65.29
840.952	64.31
841.124	63.34
841.297	63.83
841.47	63.85
841.642	64.9
841.815	68.99
841.987	69.97
842.16	70.28
842.332	70.19
842.505	71.13
842.677	74.16
842.85	77.91
843.022	82.3
843.194	85.86
843.367	88.35
843.539	88.76
843.712	91.12
843.884	93.47
844.056	93.87
844.229	93.01
844.401	93.9
844.573	92.98
844.745	94.27
844.918	89.45
845.09	90.05
845.262	92.76
845.434	93.9
845.606	92.59
845.779	95.18
845.951	97.57
846.123	101.79
846.295	104.17
846.467	107.51
846.639	112.01
846.811	119.39
846.983	119.68
847.155	114.26
847.327	111.13
847.499	111.73
847.671	112.15
847.843	113.31
848.015	113.69
848.187	113.35
848.359	114.05
848.531	110.46
848.703	109.1
848.875	110.36
849.047	118.38
849.218	120.48
849.39	122.88
849.562	120.08
849.734	123.05
849.905	124.12
850.077	125.19
850.249	124.18
850.421	126.44
850.592	122.54
850.764	123.8
850.936	119.71
851.107	123.41
851.279	123.04
851.451	123.49
851.622	120.36
851.794	118.51
851.965	120.03
852.137	115.59
852.308	112.97
852.48	114.1
852.651	111.91
852.823	115.71
852.994	112.61
853.166	108.96
853.337	112.34
853.509	114.17
853.68	114.1
853.851	117
854.023	117.71
854.194	121.04
854.365	124.11
854.537	128.7
854.708	126.57
854.879	129.62
855.05	132.81
855.222	131.14
855.393	132.05
855.564	134.55
855.735	131.05
855.906	135.42
856.078	133.18
856.249	130.68
856.42	127.13
856.591	128.07
856.762	125.34
856.933	124.58
857.104	120.63
857.275	117.01
857.446	120.86
857.617	124.12
857.788	122.47
857.959	127.2
858.13	133
858.301	138.43
858.472	136.72
858.643	146.21
858.814	149.14
858.985	156.2
859.155	158.3
859.326	157.62
859.497	156.11
859.668	160.11
859.839	160.57
860.009	154.94
860.18	151
860.351	156.86
860.522	152.97
860.692	148.48
860.863	153.27
861.034	154.76
861.204	151.53
861.375	152.16
861.546	156.2
861.716	150.44
861.887	151.79
862.057	144.18
862.228	137.23
862.398	142.29
862.569	149.75
862.739	148.77
862.91	141.4
863.08	145.99
863.251	140.8
863.421	137.62
863.592	137
863.762	135.03
863.932	139.24
864.103	136.43
864.273	133.13
864.443	131.53
864.614	122.43
864.784	128.81
864.954	125.29
865.125	128.23
865.295	126.09
865.465	132.38
865.635	132.36
865.805	134.66
865.976	145.23
866.146	143.54
866.316	143.69
866.486	154.82
866.656	151.67
866.826	152.34
866.996	157.48
867.166	159.11
867.336	156.42
867.506	161.49
867.676	159.34
867.846	149.04
868.016	148.64
868.186	147.76
868.356	141.43
868.526	142.05
868.696	143.35
868.866	145.07
869.036	142.14
869.206	138.72
869.376	136.27
869.545	136.22
869.715	133.65
869.885	132.58
870.055	132.81
870.224	139.43
870.394	143.19
870.564	140.2
870.734	132.21
870.903	137.73
871.073	134.75
871.243	132.18
871.412	131.33
871.582	136.93
871.751	142.33
871.921	136.89
872.091	133.98
872.26	131.18
872.43	132.65
872.599	138.03
872.769	136.49
872.938	133.45
873.108	134.26
873.277	138.3
873.446	137.78
873.616	132.85
873.785	138.68
873.955	142.41
874.124	139.38
874.293	137.03
874.463	131.97
874.632	133.26
874.801	133.51
874.971	128.07
875.14	127.73
875.309	124.33
875.478	126.48
875.647	119.85
875.817	115.78
875.986	114.15
876.155	115.16
876.324	114.7
876.493	110.06
876.662	114.8
876.831	119.12
877	113.47
877.17	116.46
877.339	111.16
877.508	112.65
877.677	112.01
877.846	114.08
878.015	109.37
878.184	113.27
878.352	109.19
878.521	106.58
878.69	106.53
878.859	104.32
879.028	100.44
879.197	100.67
879.366	96.13
879.534	94.45
879.703	89.96
879.872	84.19
880.041	74.52
880.21	70.27
880.378	65.26
880.547	58.44
880.716	53.9
880.884	50.31
881.053	46.29
881.222	43.35
881.39	40.83
881.559	38.83
881.727	37.64
881.896	36.79
882.065	35.87
882.233	34.89
882.402	34.37
882.57	34.42
882.739	34.21
882.907	34.94
883.076	34.84
883.244	34.56
883.412	34.97
883.581	35.96
883.749	37.43
883.918	37.61
884.086	39.16
884.254	41.49
884.423	43.1
884.591	44.42
884.759	44.94
884.927	46.74
885.096	48.99
885.264	50.76
885.432	52.59
885.6	55.18
885.769	58.9
885.937	61.9
886.105	63.02
886.273	67.22
886.441	70.35
886.609	77.97
886.777	80.57
886.945	82.72
887.113	88.65
887.281	93.96
887.449	94.4
887.617	96.9
887.785	100.75
887.953	101.43
888.121	103.96
888.289	109.21
888.457	111.36
888.625	111.9
888.793	115.39
888.961	112.74
889.129	112.99
889.296	116.57
889.464	117.94
889.632	116.94
889.8	121.69
889.967	115.84
890.135	115.55
