Data from 2938709__Reflection_01.txt Node
Date: Tue Mar 17 19:37:22 EDT 2015
User: robert
Spectrometer: USB4E03002
Autoset integration time: false
Trigger mode: 4
Integration Time (sec): 1.000000E-1
Scans to average: 10
Electric dark correction enabled: false
Nonlinearity correction enabled: false
Boxcar width: 5
Stray light correction enabled: false
XAxis mode: Wavelengths
Stop averaging: false
Number of Pixels in Spectrum: 3648
>>>>>Begin Spectral Data<<<<<
177.575	135.26
177.794	115.42
178.014	119.13
178.233	87.14
178.452	67.61
178.672	125.54
178.891	152.09
179.11	186.02
179.33	164.06
179.549	253.09
179.768	277.37
179.987	289.05
180.207	-2578.26
180.426	487.34
180.645	289.3
180.864	215.31
181.084	178.45
181.303	139.23
181.522	163.06
181.741	176.57
181.96	181.99
182.179	149.57
182.398	154.09
182.618	102.53
182.837	100.18
183.056	116.73
183.275	149.12
183.494	135.47
183.713	139.88
183.932	112.14
184.151	180.34
184.37	112.55
184.589	108.64
184.808	115.23
185.027	136.59
185.246	136.64
185.465	177.48
185.684	161.67
185.903	109.85
186.122	187.1
186.341	145.91
186.56	132.96
186.779	208.28
186.998	299.53
187.216	299.58
187.435	272.62
187.654	191.6
187.873	227.62
188.092	291.48
188.311	1072.37
188.53	444.89
188.748	354.5
188.967	176.8
189.186	165.47
189.405	159.28
189.623	128.08
189.842	133.66
190.061	173.58
190.28	116.13
190.498	145.61
190.717	128.57
190.936	123.5
191.154	693.94
191.373	-662.71
191.592	398.54
191.81	1042.5
192.029	1352.27
192.248	21966.67
192.466	-755.26
192.685	-162.81
192.904	-594.44
193.122	-580
193.341	-1639.29
193.559	8216.67
193.778	1433.33
193.996	-639.62
194.215	-372.84
194.433	-95.54
194.652	-310.94
194.87	660
195.089	422.43
195.307	529.11
195.526	1435.48
195.744	1588.46
195.963	519.35
196.181	617.11
196.399	572
196.618	2831.82
196.836	595.96
197.055	299.5
197.273	361.29
197.491	298.68
197.71	261.62
197.928	192.15
198.146	207.23
198.365	160.35
198.583	179.91
198.801	151.05
199.019	127.79
199.238	153.81
199.456	171.95
199.674	171.69
199.892	178.23
200.111	178.59
200.329	268.2
200.547	332.23
200.765	3684.21
200.983	1584.85
201.202	-327.68
201.42	-94.42
201.638	-40.36
201.856	-55.67
202.074	-10.5
202.292	-96.96
202.51	-101.15
202.728	-129.79
202.946	-233.55
203.165	1247.22
203.383	12140
203.601	-685
203.819	-634.48
204.037	2143.24
204.255	-1907.69
204.473	1612
204.691	1491.3
204.909	617.12
205.127	443.98
205.345	773.27
205.562	-1731.11
205.78	600
205.998	260.9
206.216	174.55
206.434	201.03
206.652	153.58
206.87	166.9
207.088	185.28
207.306	185.99
207.523	168.6
207.741	134.36
207.959	101.79
208.177	115.95
208.395	114.97
208.612	125.77
208.83	119.5
209.048	112.53
209.266	98.59
209.483	94.31
209.701	98.36
209.919	113.18
210.136	153.4
210.354	404.55
210.572	72.32
210.79	200
211.007	-35.51
211.225	34.68
211.442	57.03
211.66	32.74
211.878	18.58
212.095	26.96
212.313	52.56
212.53	43.53
212.748	70.04
212.966	73.84
213.183	72.95
213.401	66.03
213.618	62.59
213.836	67.21
214.053	97.57
214.271	76.8
214.488	61.42
214.705	42.97
214.923	51.5
215.14	41.05
215.358	51.77
215.575	56.48
215.793	73.13
216.01	93.66
216.227	100.22
216.445	101.16
216.662	99.72
216.879	134.5
217.097	102.81
217.314	139.39
217.531	83.73
217.749	72.73
217.966	53.7
218.183	35.13
218.4	8.6
218.618	8.27
218.835	-2.15
219.052	10.66
219.269	8.08
219.487	5.83
219.704	26.37
219.921	33.37
220.138	8.5
220.355	7.18
220.572	28.32
220.79	31.49
221.007	35.32
221.224	31.49
221.441	20.14
221.658	19.58
221.875	22.98
222.092	16.33
222.309	20.71
222.526	29.49
222.743	26.56
222.96	23.71
223.177	22.58
223.394	26.71
223.611	26.53
223.828	28.3
224.045	28.86
224.262	27.2
224.479	25.39
224.696	26.85
224.913	25.56
225.13	28.98
225.347	24.85
225.564	25.39
225.781	19.46
225.997	20.17
226.214	20.53
226.431	16.77
226.648	10.38
226.865	9.2
227.082	5.69
227.298	4.17
227.515	3.54
227.732	5.97
227.949	4.82
228.165	4.5
228.382	4.86
228.599	4.08
228.816	4.75
229.032	5.4
229.249	5.23
229.466	6.48
229.682	6.73
229.899	6.45
230.116	6.16
230.332	6.62
230.549	6.08
230.765	5.03
230.982	4.66
231.199	5.32
231.415	6.49
231.632	7.38
231.848	6
232.065	5.2
232.281	4.72
232.498	2.26
232.714	0.99
232.931	3.67
233.147	3.47
233.364	4.58
233.58	3.61
233.797	3.43
234.013	2.53
234.23	2.76
234.446	3.63
234.662	5.79
234.879	6.56
235.095	8.55
235.312	7.08
235.528	9.02
235.744	7.77
235.961	7.4
236.177	7.01
236.393	7.87
236.61	8.52
236.826	7.61
237.042	6.51
237.258	7.27
237.475	5.71
237.691	6.37
237.907	5.59
238.123	6.21
238.339	4.1
238.556	5.23
238.772	5.18
238.988	5.53
239.204	6.55
239.42	8.33
239.636	7.27
239.853	6.9
240.069	6.48
240.285	5.48
240.501	5.04
240.717	6.36
240.933	6.41
241.149	5.77
241.365	4.65
241.581	4.11
241.797	4.07
242.013	3.91
242.229	3.58
242.445	3.38
242.661	3.87
242.877	4.27
243.093	3.94
243.309	3.13
243.525	3.2
243.741	3.61
243.957	3.77
244.173	3.03
244.388	3.92
244.604	4.86
244.82	5.11
245.036	4.87
245.252	4.84
245.468	4.78
245.683	5.16
245.899	5.03
246.115	5.33
246.331	5
246.547	4.83
246.762	4.02
246.978	3.75
247.194	4.07
247.409	3.95
247.625	4.01
247.841	4
248.057	3.97
248.272	3.88
248.488	3.48
248.703	3.83
248.919	4.13
249.135	4.97
249.35	5.31
249.566	4.77
249.782	4.7
249.997	4.34
250.213	4.99
250.428	5.03
250.644	5.46
250.859	5.59
251.075	4.72
251.29	4.28
251.506	3.86
251.721	3.88
251.937	4.39
252.152	5.02
252.368	4.91
252.583	4.41
252.798	3.92
253.014	3.42
253.229	3.03
253.445	3.1
253.66	2.75
253.875	2.63
254.091	2.47
254.306	1.43
254.521	0.54
254.737	1.19
254.952	1.28
255.167	1.86
255.383	2.56
255.598	3.93
255.813	3.53
256.028	4.09
256.244	4.38
256.459	3.38
256.674	3.56
256.889	3.69
257.104	2.85
257.32	2.58
257.535	3.02
257.75	2.68
257.965	2.65
258.18	3.08
258.395	2.6
258.61	2.58
258.826	2.85
259.041	2.63
259.256	2.59
259.471	2.71
259.686	2.66
259.901	2.3
260.116	2.24
260.331	2.03
260.546	1.95
260.761	2.17
260.976	1.81
261.191	1.76
261.406	2.15
261.621	2.05
261.836	2.05
262.05	1.8
262.265	1.73
262.48	1.97
262.695	2.6
262.91	3.16
263.125	3.44
263.34	4.32
263.555	4.91
263.769	4.24
263.984	4.51
264.199	4.55
264.414	4.68
264.629	5.54
264.843	5.09
265.058	3.98
265.273	3.06
265.488	2.57
265.702	2.26
265.917	1.86
266.132	2.52
266.346	2.52
266.561	2.81
266.776	2.54
266.99	2.12
267.205	2.36
267.42	2.42
267.634	3.06
267.849	3.05
268.063	3.38
268.278	3.14
268.492	3.04
268.707	2.91
268.922	2.64
269.136	3.44
269.351	3.5
269.565	3.08
269.78	3.12
269.994	2.72
270.209	2.73
270.423	2.57
270.637	2.51
270.852	2.56
271.066	2.65
271.281	2.68
271.495	2.44
271.709	2.45
271.924	2.81
272.138	3.08
272.353	2.98
272.567	3.28
272.781	3.13
272.996	3.11
273.21	3.2
273.424	3.23
273.638	3.2
273.853	3.32
274.067	3.01
274.281	3.07
274.495	2.92
274.71	3
274.924	2.54
275.138	2.45
275.352	2.88
275.566	2.4
275.781	2.25
275.995	2.27
276.209	2.03
276.423	2.5
276.637	2.21
276.851	2.23
277.065	2.32
277.279	2.36
277.493	2.21
277.707	2.12
277.921	2.26
278.135	2.7
278.349	2.54
278.563	2.46
278.777	2.31
278.991	2.39
279.205	1.93
279.419	1.59
279.633	1.35
279.847	1.19
280.061	0.99
280.275	0.71
280.489	0.35
280.703	0.48
280.917	0.56
281.131	0.51
281.344	0.46
281.558	0.55
281.772	1.01
281.986	1.08
282.2	1.07
282.414	1.3
282.627	1.74
282.841	1.59
283.055	1.25
283.269	1.31
283.482	1.4
283.696	1.5
283.91	1.91
284.123	1.82
284.337	1.96
284.551	2.44
284.764	2.01
284.978	1.88
285.192	2.35
285.405	2.6
285.619	2.77
285.833	2.91
286.046	3.36
286.26	3.1
286.473	3.25
286.687	3.1
286.9	2.96
287.114	3.26
287.327	3.42
287.541	3.16
287.754	3.15
287.968	2.86
288.181	2.58
288.395	2.35
288.608	2.86
288.822	2.88
289.035	3.09
289.248	3.11
289.462	3.67
289.675	3.45
289.889	3.69
290.102	3.65
290.315	3.59
290.529	3.75
290.742	3.48
290.955	3.19
291.169	3.1
291.382	3.07
291.595	3
291.808	2.6
292.022	2.45
292.235	2.38
292.448	2.31
292.661	2.81
292.875	2.85
293.088	2.79
293.301	2.65
293.514	2.57
293.727	2.14
293.94	2.39
294.153	2.34
294.367	2.56
294.58	2.72
294.793	2.83
295.006	2.93
295.219	2.62
295.432	2.6
295.645	2.61
295.858	2.64
296.071	3.06
296.284	3.29
296.497	3.27
296.71	3.41
296.923	3.17
297.136	3.25
297.349	3.06
297.562	3.22
297.775	3.47
297.988	3.76
298.201	3.77
298.414	3.75
298.626	3.74
298.839	3.99
299.052	3.98
299.265	3.97
299.478	3.99
299.691	4.53
299.903	4.83
300.116	5.06
300.329	5.07
300.542	5.26
300.755	5.5
300.967	5.19
301.18	5.09
301.393	5.13
301.605	4.96
301.818	4.79
302.031	4.27
302.243	3.93
302.456	3.54
302.669	3.54
302.881	3.51
303.094	3.66
303.307	3.55
303.519	3.45
303.732	3.34
303.944	3.88
304.157	4.26
304.37	4.62
304.582	5.12
304.795	5.46
305.007	5.61
305.22	5.46
305.432	5.04
305.645	5.75
305.857	5.91
306.069	6.08
306.282	6.08
306.494	5.63
306.707	5.42
306.919	5.21
307.132	5.06
307.344	4.4
307.556	4.52
307.769	4.99
307.981	4.71
308.193	4.47
308.406	4.78
308.618	4.79
308.83	5.07
309.043	5.3
309.255	5.68
309.467	5.6
309.679	6.02
309.892	6.36
310.104	6.01
310.316	5.61
310.528	5.78
310.74	5.62
310.953	5.49
311.165	5.76
311.377	5.54
311.589	5.3
311.801	5.29
312.013	4.97
312.225	4.77
312.437	4.57
312.649	4.92
312.862	4.79
313.074	4.56
313.286	4.92
313.498	4.75
313.71	4.91
313.922	4.95
314.134	4.86
314.346	5.31
314.558	5.07
314.77	5.69
314.982	5.81
315.193	6.3
315.405	6.75
315.617	6.39
315.829	6.35
316.041	6.02
316.253	6.04
316.465	6.31
316.677	6.29
316.888	6.38
317.1	6.3
317.312	6.07
317.524	5.83
317.736	5.56
317.947	5.79
318.159	5.93
318.371	6.48
318.583	6.54
318.794	6.61
319.006	6.94
319.218	6.91
319.43	7.52
319.641	8.09
319.853	8.39
320.064	9.18
320.276	9.27
320.488	9.4
320.699	9.39
320.911	9.54
321.123	10.09
321.334	10.11
321.546	10.36
321.757	9.55
321.969	9.3
322.18	9.54
322.392	9.01
322.603	9
322.815	8.97
323.026	9.05
323.238	8.95
323.449	8.58
323.661	8.93
323.872	9.43
324.083	9.88
324.295	10.21
324.506	10.28
324.718	10.88
324.929	11.03
325.14	11.43
325.352	12.02
325.563	12.41
325.774	12.7
325.986	12.73
326.197	12.84
326.408	13.4
326.62	13.8
326.831	13.72
327.042	13.63
327.253	14.18
327.464	14.4
327.676	14.21
327.887	14.58
328.098	14.82
328.309	15.05
328.52	15.44
328.732	15.52
328.943	15.94
329.154	16.59
329.365	16.91
329.576	16.94
329.787	17.08
329.998	17.36
330.209	17.49
330.42	18.01
330.631	18.29
330.842	18.52
331.053	18.58
331.264	18.49
331.475	18.43
331.686	18.75
331.897	18.78
332.108	19.53
332.319	19.82
332.53	19.75
332.741	19.53
332.952	19.73
333.163	19.97
333.374	20.15
333.585	20.47
333.795	20.58
334.006	20.72
334.217	21.29
334.428	21.14
334.639	21.22
334.849	21.49
335.06	21.88
335.271	22.04
335.482	22.13
335.692	22.48
335.903	22.31
336.114	22.62
336.325	22.76
336.535	22.81
336.746	22.49
336.957	22.65
337.167	22.86
337.378	23.1
337.589	22.84
337.799	22.72
338.01	23.04
338.22	23.29
338.431	23.34
338.642	23.45
338.852	23.21
339.063	23.7
339.273	23.93
339.484	23.96
339.694	23.57
339.905	23.77
340.115	24.16
340.326	23.85
340.536	23.77
340.746	23.48
340.957	23.34
341.167	23.54
341.378	23.33
341.588	23.27
341.799	23.27
342.009	23.39
342.219	23.32
342.43	23.33
342.64	23.14
342.85	23.14
343.061	23.25
343.271	23
343.481	22.86
343.691	22.91
343.902	22.41
344.112	22.68
344.322	22.77
344.532	22.72
344.743	22.39
344.953	22.35
345.163	22.28
345.373	22.47
345.583	22.7
345.793	22.85
346.004	23.22
346.214	23.32
346.424	23.01
346.634	23.21
346.844	23.24
347.054	23.49
347.264	23.68
347.474	23.61
347.684	23.52
347.894	23.41
348.104	23.3
348.314	22.66
348.524	22.99
348.734	23.17
348.944	22.79
349.154	22.75
349.364	22.58
349.574	22.33
349.784	22.69
349.994	22.6
350.204	22.37
350.413	22.36
350.623	22.38
350.833	22.46
351.043	22.35
351.253	22.39
351.463	22.51
351.672	22.32
351.882	22.53
352.092	22.41
352.302	22.35
352.511	22.53
352.721	22.38
352.931	22.56
353.141	22.44
353.35	22.36
353.56	22.4
353.77	22.28
353.979	22.36
354.189	22.51
354.399	22.01
354.608	22.07
354.818	22.41
355.027	22.25
355.237	22.19
355.447	22.24
355.656	22.14
355.866	22.12
356.075	22.28
356.285	22.19
356.494	22.14
356.704	22.5
356.913	22.57
357.123	22.3
357.332	22.2
357.542	22.26
357.751	22.07
357.96	22.35
358.17	22.3
358.379	22.14
358.589	22.3
358.798	22.09
359.007	22.13
359.217	21.97
359.426	21.89
359.635	22.2
359.845	22.16
360.054	22.18
360.263	21.93
360.472	21.83
360.682	21.93
360.891	21.94
361.1	21.86
361.309	21.81
361.519	21.82
361.728	21.67
361.937	21.69
362.146	21.62
362.355	21.49
362.564	21.41
362.774	21.56
362.983	21.47
363.192	21.28
363.401	21.47
363.61	21.13
363.819	21.23
364.028	21.17
364.237	21.03
364.446	20.9
364.655	20.9
364.864	20.85
365.073	20.58
365.282	20.68
365.491	20.59
365.7	20.3
365.909	20.59
366.118	20.49
366.327	20.48
366.536	20.65
366.745	20.71
366.954	20.83
367.162	20.93
367.371	21.13
367.58	20.96
367.789	21.06
367.998	21.06
368.207	20.93
368.415	21.02
368.624	21.27
368.833	20.9
369.042	20.92
369.25	20.98
369.459	20.88
369.668	20.93
369.877	20.9
370.085	20.77
370.294	20.95
370.503	20.88
370.711	20.56
370.92	20.64
371.129	20.72
371.337	20.47
371.546	20.29
371.754	20.34
371.963	20.12
372.171	20.09
372.38	20.27
372.589	20.19
372.797	20.07
373.006	19.9
373.214	19.81
373.423	19.86
373.631	20.06
373.84	19.88
374.048	19.88
374.256	19.95
374.465	20.06
374.673	19.92
374.882	19.89
375.09	19.97
375.298	19.94
375.507	19.63
375.715	19.38
375.923	19.34
376.132	19.41
376.34	19.2
376.548	19.16
376.757	19.07
376.965	19
377.173	18.86
377.381	18.84
377.59	19.26
377.798	19.33
378.006	19.36
378.214	19.42
378.423	19.43
378.631	19.55
378.839	19.43
379.047	19.46
379.255	19.53
379.463	19.55
379.671	19.62
379.879	19.31
380.088	19.26
380.296	19.45
380.504	19.2
380.712	18.92
380.92	18.8
381.128	18.66
381.336	18.58
381.544	18.59
381.752	18.41
381.96	18.37
382.168	18.5
382.376	18.59
382.584	18.39
382.791	18.76
382.999	18.88
383.207	18.88
383.415	19.08
383.623	18.96
383.831	18.65
384.039	18.87
384.247	18.76
384.454	18.49
384.662	18.45
384.87	18.49
385.078	18.18
385.285	18.09
385.493	17.91
385.701	17.94
385.909	18
386.116	18.09
386.324	18.06
386.532	17.99
386.739	18.25
386.947	18.24
387.155	18.2
387.362	18.21
387.57	18.27
387.778	18.42
387.985	18.26
388.193	18.15
388.4	18.18
388.608	18.29
388.816	18.19
389.023	18.18
389.231	17.86
389.438	17.9
389.646	17.8
389.853	17.99
390.061	18.01
390.268	17.86
390.475	17.98
390.683	18.05
390.89	17.81
391.098	17.86
391.305	17.66
391.512	17.78
391.72	17.65
391.927	17.72
392.135	17.38
392.342	17.18
392.549	17.31
392.756	17.16
392.964	17.09
393.171	17.1
393.378	17.1
393.586	17.01
393.793	16.96
394	17.03
394.207	17.13
394.414	17.27
394.622	17.25
394.829	17.26
395.036	17.1
395.243	16.92
395.45	16.76
395.657	16.86
395.864	17
396.072	17.12
396.279	17.06
396.486	16.91
396.693	16.66
396.9	16.7
397.107	16.44
397.314	16.55
397.521	16.66
397.728	16.73
397.935	16.53
398.142	16.35
398.349	16.29
398.556	16.2
398.763	16.21
398.97	16.54
399.177	16.57
399.383	16.58
399.59	16.6
399.797	16.51
400.004	16.62
400.211	16.73
400.418	16.74
400.625	16.65
400.831	16.63
401.038	16.47
401.245	16.34
401.452	16.35
401.658	16.39
401.865	16.25
402.072	16.3
402.279	16.25
402.485	16.13
402.692	16.15
402.899	16.25
403.105	16.38
403.312	16.34
403.519	16.4
403.725	16.29
403.932	16.35
404.138	16.41
404.345	16.38
404.552	16.23
404.758	16.33
404.965	16.44
405.171	16.29
405.378	16.28
405.584	16.29
405.791	16.16
405.997	16.37
406.204	16.36
406.41	16.41
406.617	16.39
406.823	16.6
407.029	16.48
407.236	16.4
407.442	16.54
407.649	16.42
407.855	16.51
408.061	16.56
408.268	16.24
408.474	16.2
408.68	16.12
408.887	16.3
409.093	16.22
409.299	16.34
409.505	16.33
409.712	16.2
409.918	16.21
410.124	16.32
410.33	16.29
410.537	16.4
410.743	16.52
410.949	16.59
411.155	16.43
411.361	16.3
411.567	16.19
411.773	16.07
411.98	16.23
412.186	16.23
412.392	16.13
412.598	15.99
412.804	15.97
413.01	16.03
413.216	16.02
413.422	15.89
413.628	16.05
413.834	16.14
414.04	16.33
414.246	16.29
414.452	16.28
414.658	16.3
414.864	16.41
415.07	16.52
415.275	16.4
415.481	16.45
415.687	16.55
415.893	16.54
416.099	16.49
416.305	16.46
416.511	16.49
416.716	16.58
416.922	16.59
417.128	16.71
417.334	16.61
417.539	16.59
417.745	16.56
417.951	16.55
418.157	16.5
418.362	16.55
418.568	16.55
418.774	16.52
418.979	16.48
419.185	16.47
419.391	16.35
419.596	16.38
419.802	16.37
420.008	16.29
420.213	16.35
420.419	16.32
420.624	16.26
420.83	16.18
421.035	16.13
421.241	16.14
421.446	16.21
421.652	16.23
421.857	16.21
422.063	16.31
422.268	16.35
422.474	16.31
422.679	16.35
422.885	16.35
423.09	16.38
423.295	16.43
423.501	16.36
423.706	16.32
423.911	16.31
424.117	16.28
424.322	16.17
424.527	16.21
424.733	16.15
424.938	16.11
425.143	16.17
425.349	16.2
425.554	16.2
425.759	16.22
425.964	16.2
426.169	16.23
426.375	16.23
426.58	16.24
426.785	16.24
426.99	16.29
427.195	16.31
427.4	16.26
427.605	16.25
427.811	16.35
428.016	16.33
428.221	16.3
428.426	16.35
428.631	16.48
428.836	16.54
429.041	16.45
429.246	16.48
429.451	16.55
429.656	16.5
429.861	16.56
430.066	16.52
430.271	16.6
430.476	16.61
430.681	16.55
430.886	16.46
431.09	16.45
431.295	16.47
431.5	16.45
431.705	16.4
431.91	16.45
432.115	16.47
432.32	16.45
432.524	16.45
432.729	16.56
432.934	16.59
433.139	16.66
433.343	16.63
433.548	16.62
433.753	16.64
433.958	16.59
434.162	16.63
434.367	16.61
434.572	16.63
434.776	16.75
434.981	16.74
435.186	16.74
435.39	16.69
435.595	16.74
435.799	16.78
436.004	16.81
436.209	16.79
436.413	16.79
436.618	16.9
436.822	16.82
437.027	16.66
437.231	16.56
437.436	16.59
437.64	16.75
437.845	16.81
438.049	16.9
438.253	16.94
438.458	17.13
438.662	17.12
438.867	17.05
439.071	17.12
439.275	17.14
439.48	17.21
439.684	17.21
439.888	17.11
440.093	17.06
440.297	17.03
440.501	16.95
440.706	16.96
440.91	16.99
441.114	17.07
441.318	17.09
441.523	17.14
441.727	17.13
441.931	17.1
442.135	17.08
442.339	17.12
442.543	17.08
442.748	17.14
442.952	17
443.156	17
443.36	16.82
443.564	16.77
443.768	16.85
443.972	16.82
444.176	16.84
444.38	16.88
444.584	16.89
444.788	16.91
444.992	16.94
445.196	16.98
445.4	16.96
445.604	17.03
445.808	17.08
446.012	16.97
446.216	17.07
446.42	17.1
446.624	17.08
446.828	17.03
447.032	17.02
447.235	16.99
447.439	17.07
447.643	17.03
447.847	16.96
448.051	16.92
448.254	16.91
448.458	16.83
448.662	16.78
448.866	16.8
449.069	16.77
449.273	16.79
449.477	16.83
449.681	16.73
449.884	16.85
450.088	16.94
450.292	16.86
450.495	16.89
450.699	16.85
450.902	16.85
451.106	16.87
451.31	16.95
451.513	16.89
451.717	16.82
451.92	16.88
452.124	16.76
452.327	16.67
452.531	16.74
452.734	16.74
452.938	16.66
453.141	16.71
453.345	16.58
453.548	16.6
453.752	16.64
453.955	16.66
454.158	16.59
454.362	16.57
454.565	16.62
454.769	16.61
454.972	16.6
455.175	16.69
455.379	16.6
455.582	16.83
455.785	16.82
455.988	16.85
456.192	16.84
456.395	16.86
456.598	16.99
456.801	16.93
457.005	16.92
457.208	17.05
457.411	17.11
457.614	17.24
457.817	17.15
458.021	17.07
458.224	17.1
458.427	17.08
458.63	17.05
458.833	16.95
459.036	16.96
459.239	17.09
459.442	17
459.645	16.95
459.848	16.9
460.051	16.88
460.254	16.92
460.457	16.89
460.66	16.91
460.863	16.93
461.066	17.05
461.269	17.13
461.472	16.96
461.675	17.03
461.878	17.03
462.081	17.01
462.284	17.05
462.486	17.07
462.689	17.08
462.892	17.11
463.095	17.12
463.298	17
463.5	16.93
463.703	17.04
463.906	16.97
464.109	16.95
464.311	16.95
464.514	16.88
464.717	16.92
464.92	16.97
465.122	16.97
465.325	17.01
465.528	17.05
465.73	17.11
465.933	17.17
466.135	17.28
466.338	17.3
466.541	17.33
466.743	17.3
466.946	17.33
467.148	17.28
467.351	17.22
467.553	17.29
467.756	17.3
467.958	17.25
468.161	17.22
468.363	17.22
468.566	17.19
468.768	17.24
468.971	17.31
469.173	17.38
469.375	17.48
469.578	17.55
469.78	17.52
469.983	17.57
470.185	17.7
470.387	17.68
470.59	17.6
470.792	17.62
470.994	17.54
471.196	17.57
471.399	17.4
471.601	17.48
471.803	17.49
472.005	17.45
472.208	17.34
472.41	17.35
472.612	17.39
472.814	17.47
473.016	17.43
473.218	17.52
473.421	17.49
473.623	17.55
473.825	17.48
474.027	17.4
474.229	17.35
474.431	17.5
474.633	17.46
474.835	17.45
475.037	17.38
475.239	17.47
475.441	17.43
475.643	17.59
475.845	17.51
476.047	17.53
476.249	17.56
476.451	17.64
476.653	17.6
476.855	17.55
477.057	17.53
477.258	17.56
477.46	17.53
477.662	17.46
477.864	17.27
478.066	17.3
478.268	17.18
478.469	17.22
478.671	17.21
478.873	17.17
479.075	17.21
479.276	17.14
479.478	17.11
479.68	17.16
479.882	17.26
480.083	17.29
480.285	17.21
480.487	17.32
480.688	17.25
480.89	17.29
481.091	17.32
481.293	17.29
481.495	17.36
481.696	17.39
481.898	17.34
482.099	17.31
482.301	17.34
482.502	17.37
482.704	17.33
482.905	17.38
483.107	17.34
483.308	17.28
483.51	17.23
483.711	17.2
483.913	17.22
484.114	17.2
484.315	17.17
484.517	17.14
484.718	17.14
484.92	17.15
485.121	17.13
485.322	17.16
485.524	17.19
485.725	17.24
485.926	17.22
486.127	17.19
486.329	17.26
486.53	17.29
486.731	17.32
486.932	17.34
487.134	17.3
487.335	17.31
487.536	17.26
487.737	17.3
487.938	17.29
488.139	17.32
488.341	17.33
488.542	17.35
488.743	17.37
488.944	17.38
489.145	17.39
489.346	17.41
489.547	17.39
489.748	17.37
489.949	17.36
490.15	17.4
490.351	17.4
490.552	17.39
490.753	17.35
490.954	17.36
491.155	17.4
491.356	17.4
491.557	17.42
491.758	17.49
491.959	17.56
492.159	17.56
492.36	17.61
492.561	17.64
492.762	17.7
492.963	17.71
493.164	17.76
493.364	17.76
493.565	17.77
493.766	17.84
493.967	17.82
494.167	17.84
494.368	17.91
494.569	17.89
494.769	17.94
494.97	17.96
495.171	18.07
495.371	18.14
495.572	18.22
495.773	18.26
495.973	18.28
496.174	18.36
496.375	18.3
496.575	18.34
496.776	18.39
496.976	18.33
497.177	18.34
497.377	18.32
497.578	18.32
497.778	18.25
497.979	18.32
498.179	18.33
498.38	18.35
498.58	18.45
498.78	18.46
498.981	18.46
499.181	18.58
499.382	18.67
499.582	18.78
499.782	18.75
499.983	18.88
500.183	18.94
500.383	19.08
500.584	19.04
500.784	19.08
500.984	19.17
501.184	19.26
501.385	19.37
501.585	19.44
501.785	19.37
501.985	19.46
502.185	19.44
502.386	19.43
502.586	19.47
502.786	19.55
502.986	19.56
503.186	19.64
503.386	19.64
503.586	19.58
503.786	19.54
503.987	19.67
504.187	19.7
504.387	19.78
504.587	19.8
504.787	19.82
504.987	19.96
505.187	20.1
505.387	20.08
505.587	20.24
505.786	20.34
505.986	20.49
506.186	20.5
506.386	20.57
506.586	20.73
506.786	20.76
506.986	20.81
507.186	20.8
507.386	20.83
507.585	20.87
507.785	20.93
507.985	20.98
508.185	20.96
508.384	21.06
508.584	21.15
508.784	21.24
508.984	21.31
509.183	21.43
509.383	21.53
509.583	21.66
509.782	21.75
509.982	21.85
510.182	21.99
510.381	22.1
510.581	22.17
510.781	22.24
510.98	22.25
511.18	22.42
511.379	22.43
511.579	22.48
511.778	22.53
511.978	22.67
512.177	22.71
512.377	22.68
512.576	22.83
512.776	22.96
512.975	23.01
513.175	23.1
513.374	23.12
513.573	23.22
513.773	23.3
513.972	23.39
514.172	23.38
514.371	23.35
514.57	23.47
514.77	23.57
514.969	23.56
515.168	23.66
515.367	23.74
515.567	23.82
515.766	23.92
515.965	24.09
516.164	24.1
516.364	24.25
516.563	24.4
516.762	24.49
516.961	24.42
517.16	24.49
517.359	24.54
517.559	24.59
517.758	24.72
517.957	24.76
518.156	24.8
518.355	24.87
518.554	24.9
518.753	24.93
518.952	25.03
519.151	25.06
519.35	25.15
519.549	25.27
519.748	25.35
519.947	25.41
520.146	25.5
520.345	25.51
520.544	25.59
520.743	25.68
520.942	25.74
521.141	25.88
521.339	26.02
521.538	26.11
521.737	26.2
521.936	26.23
522.135	26.29
522.333	26.37
522.532	26.51
522.731	26.58
522.93	26.66
523.129	26.78
523.327	26.8
523.526	26.94
523.725	27.01
523.923	27.05
524.122	27.22
524.321	27.33
524.519	27.43
524.718	27.48
524.917	27.61
525.115	27.72
525.314	27.75
525.512	27.81
525.711	27.9
525.909	28.02
526.108	28.08
526.306	28.13
526.505	28.13
526.703	28.12
526.902	28.17
527.1	28.23
527.299	28.27
527.497	28.4
527.696	28.45
527.894	28.48
528.092	28.51
528.291	28.54
528.489	28.6
528.688	28.66
528.886	28.73
529.084	28.76
529.283	28.78
529.481	28.84
529.679	28.81
529.877	28.87
530.076	28.94
530.274	28.96
530.472	29.02
530.67	29.07
530.869	29.1
531.067	29.16
531.265	29.31
531.463	29.39
531.661	29.47
531.859	29.62
532.057	29.62
532.255	29.66
532.454	29.75
532.652	29.81
532.85	29.84
533.048	29.91
533.246	30.02
533.444	30.02
533.642	30.07
533.84	30.11
534.038	30.15
534.236	30.26
534.434	30.37
534.632	30.41
534.83	30.42
535.027	30.5
535.225	30.58
535.423	30.58
535.621	30.63
535.819	30.73
536.017	30.72
536.215	30.75
536.412	30.78
536.61	30.79
536.808	30.78
537.006	30.93
537.203	30.97
537.401	30.98
537.599	31.04
537.797	31.14
537.994	31.14
538.192	31.27
538.39	31.37
538.587	31.41
538.785	31.52
538.983	31.69
539.18	31.76
539.378	31.79
539.575	31.9
539.773	31.96
539.97	31.99
540.168	32.03
540.366	32.08
540.563	32.09
540.761	32.2
540.958	32.21
541.155	32.25
541.353	32.27
541.55	32.34
541.748	32.42
541.945	32.48
542.143	32.53
542.34	32.65
542.537	32.71
542.735	32.81
542.932	32.89
543.129	32.95
543.327	33
543.524	33.08
543.721	33.17
543.919	33.23
544.116	33.35
544.313	33.53
544.51	33.6
544.708	33.62
544.905	33.68
545.102	33.75
545.299	33.9
545.496	34.03
545.693	34.14
545.891	34.2
546.088	34.26
546.285	34.3
546.482	34.25
546.679	34.26
546.876	34.3
547.073	34.36
547.27	34.28
547.467	34.27
547.664	34.21
547.861	34.2
548.058	34.13
548.255	34.14
548.452	34.06
548.649	34.03
548.846	33.92
549.043	33.94
549.24	33.95
549.437	34.03
549.633	34.03
549.83	34.09
550.027	34.08
550.224	34.15
550.421	34.1
550.618	34.11
550.814	34.23
551.011	34.34
551.208	34.41
551.405	34.38
551.601	34.37
551.798	34.34
551.995	34.36
552.191	34.38
552.388	34.5
552.585	34.57
552.781	34.54
552.978	34.4
553.175	34.46
553.371	34.5
553.568	34.63
553.764	34.65
553.961	34.55
554.157	34.66
554.354	34.61
554.55	34.57
554.747	34.55
554.943	34.64
555.14	34.82
555.336	34.85
555.533	34.83
555.729	34.82
555.926	34.86
556.122	35.03
556.318	34.98
556.515	34.97
556.711	34.99
556.907	35.04
557.104	35.11
557.3	34.96
557.496	34.95
557.693	34.99
557.889	35.02
558.085	35.05
558.281	35.03
558.478	34.96
558.674	35.03
558.87	35.11
559.066	35.17
559.262	35.06
559.459	35.35
559.655	35.37
559.851	35.45
560.047	35.33
560.243	35.46
560.439	35.54
560.635	35.69
560.831	35.78
561.027	35.68
561.223	35.71
561.419	35.83
561.615	35.65
561.811	35.61
562.007	35.54
562.203	35.68
562.399	35.61
562.595	35.66
562.791	35.67
562.987	35.72
563.183	35.9
563.379	36
563.575	36.04
563.771	36.14
563.966	36.27
564.162	36.32
564.358	36.32
564.554	36.26
564.75	36.19
564.945	36.23
565.141	36.2
565.337	36.13
565.533	36.09
565.728	36.15
565.924	36.12
566.12	36.25
566.315	36.22
566.511	36.15
566.707	36.33
566.902	36.5
567.098	36.52
567.293	36.53
567.489	36.5
567.684	36.45
567.88	36.45
568.076	36.55
568.271	36.51
568.467	36.64
568.662	36.67
568.858	36.66
569.053	36.59
569.248	36.55
569.444	36.57
569.639	36.62
569.835	36.66
570.03	36.69
570.225	36.78
570.421	36.71
570.616	36.73
570.812	36.89
571.007	36.8
571.202	36.81
571.397	36.93
571.593	37.03
571.788	37.16
571.983	37.28
572.178	37.26
572.374	37.22
572.569	37.27
572.764	37.29
572.959	37.14
573.154	37.22
573.35	37.19
573.545	37.21
573.74	37.22
573.935	37.19
574.13	37.26
574.325	37.24
574.52	37.32
574.715	37.42
574.91	37.45
575.105	37.63
575.3	37.7
575.495	37.78
575.69	37.7
575.885	37.64
576.08	37.7
576.275	37.63
576.47	37.73
576.665	37.75
576.86	37.74
577.055	37.76
577.25	37.85
577.444	37.88
577.639	37.96
577.834	38.05
578.029	38.29
578.224	38.27
578.418	38.3
578.613	38.36
578.808	38.35
579.003	38.34
579.197	38.54
579.392	38.48
579.587	38.53
579.781	38.55
579.976	38.64
580.171	38.59
580.365	38.61
580.56	38.63
580.755	38.65
580.949	38.7
581.144	38.77
581.338	38.58
581.533	38.68
581.727	38.65
581.922	38.78
582.116	38.83
582.311	38.75
582.505	38.94
582.7	39.05
582.894	39.06
583.089	39.02
583.283	39.18
583.478	39.14
583.672	39.07
583.866	39.11
584.061	38.99
584.255	38.95
584.449	38.96
584.644	38.93
584.838	38.97
585.032	39.04
585.226	39.19
585.421	39.09
585.615	39.27
585.809	39.26
586.003	39.41
586.198	39.59
586.392	39.62
586.586	39.86
586.78	39.89
586.974	39.78
587.168	39.85
587.363	39.79
587.557	39.63
587.751	39.7
587.945	39.88
588.139	39.84
588.333	39.78
588.527	39.93
588.721	39.83
588.915	39.79
589.109	39.84
589.303	39.78
589.497	39.91
589.691	40.21
589.885	40.12
590.079	40.14
590.273	40.16
590.466	40.08
590.66	40.1
590.854	40.26
591.048	40.4
591.242	40.52
591.436	40.65
591.629	40.62
591.823	40.54
592.017	40.64
592.211	40.66
592.404	40.77
592.598	40.88
592.792	40.87
592.986	40.84
593.179	40.79
593.373	40.74
593.567	40.69
593.76	40.66
593.954	40.76
594.147	40.75
594.341	40.73
594.535	40.61
594.728	40.57
594.922	40.45
595.115	40.39
595.309	40.44
595.502	40.49
595.696	40.58
595.889	40.61
596.083	40.58
596.276	40.64
596.47	40.71
596.663	40.67
596.856	40.72
597.05	40.83
597.243	40.8
597.437	40.78
597.63	40.86
597.823	40.92
598.017	41.03
598.21	41.07
598.403	41.14
598.596	41.07
598.79	41.31
598.983	41.45
599.176	41.46
599.369	41.48
599.563	41.5
599.756	41.47
599.949	41.41
600.142	41.25
600.335	41.19
600.528	40.98
600.722	41.06
600.915	40.94
601.108	40.92
601.301	40.86
601.494	40.88
601.687	40.98
601.88	41.04
602.073	41.11
602.266	41.16
602.459	41.22
602.652	41.22
602.845	41.23
603.038	41.27
603.231	41.21
603.424	41.36
603.617	41.36
603.809	41.42
604.002	41.38
604.195	41.24
604.388	41.3
604.581	41.27
604.774	41.46
604.966	41.35
605.159	41.35
605.352	41.41
605.545	41.4
605.737	41.56
605.93	41.53
606.123	41.54
606.316	41.66
606.508	41.57
606.701	41.58
606.894	41.64
607.086	41.96
607.279	42.03
607.471	42.16
607.664	42.25
607.857	42.39
608.049	42.56
608.242	42.9
608.434	43.28
608.627	43.88
608.819	44.37
609.012	44.84
609.204	45.43
609.397	46.07
609.589	46.77
609.782	47.59
609.974	48.48
610.166	49.39
610.359	50.17
610.551	50.96
610.743	51.58
610.936	52.21
611.128	52.67
611.32	53
611.513	53.21
611.705	53.25
611.897	53.19
612.09	52.66
612.282	52.34
612.474	51.95
612.666	51.44
612.858	50.98
613.051	50.64
613.243	50.23
613.435	49.83
613.627	49.65
613.819	49.44
614.011	49.16
614.203	49.09
614.395	48.74
614.588	48.4
614.78	48.14
614.972	47.72
615.164	47.3
615.356	46.92
615.548	46.59
615.74	46.3
615.932	45.91
616.124	45.54
616.315	45.43
616.507	45.1
616.699	44.75
616.891	44.51
617.083	44.45
617.275	44.2
617.467	44.1
617.659	43.91
617.85	43.7
618.042	43.53
618.234	43.47
618.426	43.13
618.618	43.19
618.809	43.11
619.001	43.03
619.193	43.1
619.384	43.15
619.576	43.18
619.768	43.26
619.959	43.2
620.151	43.49
620.343	43.46
620.534	43.66
620.726	43.37
620.917	43.67
621.109	43.67
621.301	43.71
621.492	43.72
621.684	43.96
621.875	43.94
622.067	44.11
622.258	44.08
622.45	44.2
622.641	44.43
622.832	44.62
623.024	44.69
623.215	44.82
623.407	44.8
623.598	44.86
623.789	44.69
623.981	44.81
624.172	44.67
624.363	44.59
624.555	44.42
624.746	44.17
624.937	44.32
625.129	44.11
625.32	44.08
625.511	44.12
625.702	44.17
625.893	44.15
626.085	44.21
626.276	44.33
626.467	44.33
626.658	44.63
626.849	44.55
627.04	44.47
627.231	44.56
627.422	44.63
627.614	44.59
627.805	44.59
627.996	44.74
628.187	44.64
628.378	44.56
628.569	44.64
628.76	44.44
628.951	44.66
629.142	44.86
629.332	44.99
629.523	45.14
629.714	45.27
629.905	45.44
630.096	45.59
630.287	45.6
630.478	45.7
630.669	45.72
630.859	45.6
631.05	45.53
631.241	45.44
631.432	45.23
631.623	45.07
631.813	44.8
632.004	44.37
632.195	44.1
632.385	44.03
632.576	43.96
632.767	43.82
632.957	43.89
633.148	43.74
633.339	43.41
633.529	43.4
633.72	43.37
633.91	43.39
634.101	43.51
634.292	43.57
634.482	43.61
634.673	43.5
634.863	43.4
635.054	43.23
635.244	43.2
635.435	43.39
635.625	43.22
635.815	43.21
636.006	43.1
636.196	43.16
636.387	43.01
636.577	42.91
636.767	43.11
636.958	43.15
637.148	43.19
637.338	43.27
637.529	43.25
637.719	43.53
637.909	43.46
638.099	43.44
638.29	43.41
638.48	43.47
638.67	43.42
638.86	43.27
639.05	43.04
639.241	43.13
639.431	43.07
639.621	43.15
639.811	43.12
640.001	43.11
640.191	43.25
640.381	43.15
640.571	43.06
640.761	43.17
640.951	43.08
641.141	43.38
641.331	43.3
641.521	43.29
641.711	43.28
641.901	43.22
642.091	43.25
642.281	43.21
642.471	43.17
642.661	43.07
642.851	43.13
643.041	43.22
643.231	43.31
643.42	43.45
643.61	43.46
643.8	43.23
643.99	43.22
644.18	43.22
644.369	43.4
644.559	43.62
644.749	43.65
644.939	43.4
645.128	43.4
645.318	43.21
645.508	43.24
645.697	43.27
645.887	43.34
646.076	43.4
646.266	43.34
646.456	43.38
646.645	43.43
646.835	43.62
647.024	43.76
647.214	43.69
647.403	43.81
647.593	43.8
647.782	44.02
647.972	44.23
648.161	44.46
648.351	44.64
648.54	44.76
648.73	44.78
648.919	44.73
649.108	44.96
649.298	44.98
649.487	45.06
649.677	45.09
649.866	44.92
650.055	45.04
650.244	44.91
650.434	45
650.623	44.93
650.812	44.91
651.002	44.97
651.191	44.82
651.38	44.93
651.569	44.7
651.758	44.64
651.947	44.8
652.137	44.73
652.326	44.78
652.515	44.63
652.704	44.47
652.893	44.35
653.082	44.42
653.271	44.5
653.46	44.25
653.649	44.52
653.838	44.54
654.027	44.64
654.216	44.54
654.405	44.54
654.594	44.57
654.783	44.66
654.972	44.66
655.161	44.49
655.35	44.51
655.539	44.61
655.728	44.3
655.916	44.16
656.105	43.86
656.294	43.73
656.483	43.84
656.672	43.91
656.86	43.86
657.049	43.82
657.238	44.08
657.427	43.92
657.615	44.15
657.804	44.36
657.993	44.21
658.181	44.42
658.37	44.49
658.559	44.23
658.747	44.11
658.936	44.14
659.125	44.24
659.313	44.13
659.502	44.02
659.69	43.88
659.879	43.86
660.067	44.15
660.256	44.08
660.444	44.11
660.633	44.19
660.821	44.19
661.01	44.23
661.198	44.21
661.387	44.14
661.575	44.43
661.763	44.55
661.952	44.51
662.14	44.51
662.328	44.49
662.517	44.48
662.705	44.47
662.893	44.63
663.082	44.66
663.27	44.63
663.458	44.75
663.646	44.87
663.834	44.79
664.023	44.76
664.211	44.76
664.399	44.68
664.587	44.63
664.775	44.68
664.963	44.6
665.152	44.36
665.34	44.74
665.528	44.78
665.716	44.63
665.904	44.73
666.092	44.73
666.28	44.55
666.468	44.45
666.656	44.49
666.844	44.42
667.032	44.5
667.22	44.66
667.408	44.22
667.596	44.07
667.784	44
667.971	44.03
668.159	44.09
668.347	44.42
668.535	44.57
668.723	44.74
668.911	44.9
669.098	44.89
669.286	44.81
669.474	44.95
669.662	44.88
669.849	45.16
670.037	44.9
670.225	44.82
670.413	44.75
670.6	44.54
670.788	44.2
670.976	43.87
671.163	43.88
671.351	44
671.538	43.97
671.726	43.88
671.913	43.63
672.101	43.74
672.289	43.91
672.476	43.83
672.664	44.09
672.851	44.08
673.039	44.44
673.226	44.44
673.413	44.24
673.601	44.13
673.788	44.16
673.976	44.02
674.163	44.16
674.35	44.23
674.538	44.21
674.725	44.19
674.912	44.36
675.1	44.11
675.287	43.98
675.474	44.14
675.662	44.33
675.849	44.55
676.036	44.71
676.223	44.64
676.411	44.41
676.598	44.41
676.785	44.24
676.972	44.37
677.159	44.35
677.346	44.22
677.533	44.31
677.721	44.08
677.908	44.09
678.095	44.13
678.282	44.13
678.469	44.28
678.656	44.06
678.843	44.03
679.03	44
679.217	44.37
679.404	44.55
679.591	44.65
679.778	44.78
679.964	44.81
680.151	44.64
680.338	44.75
680.525	44.87
680.712	44.95
680.899	45.04
681.086	45.1
681.272	44.81
681.459	44.68
681.646	44.52
681.833	44.62
682.02	44.5
682.206	44.44
682.393	44.28
682.58	44
682.766	44.21
682.953	44.31
683.14	44.19
683.326	44.45
683.513	44.15
683.7	43.94
683.886	43.83
684.073	43.86
684.259	44.06
684.446	43.99
684.632	44.24
684.819	44.21
685.005	44.26
685.192	44.42
685.378	43.96
685.565	44.54
685.751	44.69
685.938	44.96
686.124	44.97
686.31	44.88
686.497	45.14
686.683	45.06
686.87	44.96
687.056	44.59
687.242	44.5
687.429	44.63
687.615	44.38
687.801	44.5
687.987	44.24
688.174	44.21
688.36	44.52
688.546	44.58
688.732	44.61
688.918	45.21
689.105	45.47
689.291	45.57
689.477	45.51
689.663	45.71
689.849	45.52
690.035	45.38
690.221	45.65
690.407	45.42
690.593	45.3
690.779	45.2
690.965	44.6
691.151	44.64
691.337	44.48
691.523	44.63
691.709	44.46
691.895	44.92
692.081	45.03
692.267	44.54
692.453	44.39
692.639	44.21
692.825	44.22
693.011	44.13
693.196	43.99
693.382	44.26
693.568	44.46
693.754	44.45
693.94	43.83
694.125	44.13
694.311	44.21
694.497	44.55
694.682	44.73
694.868	44.67
695.054	44.74
695.239	45.09
695.425	44.68
695.611	44.37
695.796	44.6
695.982	45.02
696.168	44.63
696.353	44.85
696.539	44.45
696.724	44.32
696.91	44.07
697.095	44.02
697.281	43.54
697.466	43.75
697.652	43.9
697.837	43.84
698.023	43.62
698.208	43.69
698.393	43.59
698.579	43.79
698.764	43.72
698.949	43.88
699.135	43.94
699.32	44.08
699.505	44.27
699.691	44.21
699.876	44.35
700.061	44.35
700.246	44.43
700.432	44.48
700.617	44.48
700.802	44.56
700.987	44.38
701.172	44.36
701.358	44.49
701.543	44.12
701.728	43.98
701.913	43.87
702.098	43.89
702.283	43.72
702.468	43.72
702.653	43.31
702.838	43.1
703.023	43.45
703.208	43.64
703.393	43.52
703.578	43.76
703.763	43.82
703.948	43.94
704.133	44.52
704.318	44.87
704.503	44.91
704.688	45.72
704.873	46.22
705.057	46.73
705.242	46.99
705.427	47.32
705.612	47.53
705.797	48.34
705.981	48.22
706.166	47.61
706.351	47.81
706.536	48.15
706.72	47.96
706.905	48.11
707.09	47.9
707.274	48.09
707.459	48.06
707.644	47.97
707.828	47.55
708.013	47.72
708.197	48.12
708.382	48.18
708.567	48.1
708.751	48.08
708.936	48.06
709.12	48.05
709.305	47.76
709.489	47.9
709.673	47.97
709.858	48.26
710.042	48.2
710.227	48.04
710.411	47.53
710.596	47.56
710.78	47.49
710.964	47.62
711.149	47.44
711.333	47.33
711.517	47.19
711.702	47.07
711.886	46.79
712.07	46.71
712.254	46.84
712.438	47.11
712.623	46.96
712.807	47.06
712.991	46.72
713.175	46.36
713.359	46.09
713.544	45.97
713.728	45.6
713.912	45.14
714.096	45.07
714.28	45.03
714.464	44.72
714.648	44.32
714.832	43.99
715.016	43.76
715.2	43.87
715.384	43.69
715.568	43.95
715.752	44.33
715.936	44.28
716.12	44.25
716.304	44
716.488	44.05
716.671	44.32
716.855	44.42
717.039	44.41
717.223	44.42
717.407	44.41
717.59	43.79
717.774	43.28
717.958	43.88
718.142	43.49
718.325	43.39
718.509	42.91
718.693	42.83
718.877	42.74
719.06	42.66
719.244	42.77
719.428	43.02
719.611	43.21
719.795	43.44
719.978	42.85
720.162	43.17
720.345	43.14
720.529	43.37
720.713	43
720.896	42.63
721.08	42.98
721.263	42.99
721.446	42.99
721.63	42.93
721.813	42.91
721.997	42.98
722.18	42.51
722.364	42.55
722.547	42.69
722.73	42.85
722.914	43.25
723.097	43.17
723.28	42.97
723.464	43.01
723.647	42.79
723.83	42.37
724.013	42.89
724.197	43.05
724.38	42.83
724.563	42.86
724.746	43.16
724.929	43.05
725.112	42.82
725.296	43.04
725.479	43.46
725.662	43.99
725.845	44.35
726.028	43.73
726.211	44.13
726.394	44.53
726.577	44.25
726.76	44.23
726.943	44.36
727.126	44.04
727.309	43.91
727.492	43.64
727.675	43.63
727.858	43.51
728.041	43.81
728.224	43.81
728.407	43.51
728.589	43.9
728.772	43.71
728.955	43.64
729.138	43.93
729.321	43.81
729.503	43.43
729.686	43.31
729.869	43.51
730.052	43.1
730.234	43.18
730.417	43.33
730.6	42.7
730.782	42.67
730.965	42.39
731.148	42.52
731.33	42.5
731.513	42.28
731.695	42.16
731.878	42.03
732.061	42.27
732.243	41.85
732.426	41.66
732.608	42.14
732.791	42.12
732.973	42.07
733.156	41.86
733.338	41.76
733.52	41.95
733.703	41.82
733.885	41.83
734.068	42.2
734.25	42.72
734.432	43.1
734.615	43.03
734.797	43.09
734.979	43.84
735.162	43.89
735.344	43.86
735.526	43.91
735.708	44.28
735.891	44.27
736.073	43.7
736.255	43.35
736.437	42.51
736.619	42.6
736.802	42.64
736.984	41.96
737.166	42.04
737.348	42.23
737.53	42.37
737.712	42.04
737.894	42.04
738.076	42.49
738.258	42.16
738.44	42.69
738.622	42.54
738.804	42.42
738.986	42.94
739.168	42.97
739.35	43.11
739.532	42.96
739.714	42.92
739.896	43.32
740.078	42.6
740.259	42.69
740.441	43.03
740.623	43.6
740.805	44
740.987	43.36
741.168	43.75
741.35	43.71
741.532	43.79
741.714	43.8
741.895	43.19
742.077	43.77
742.259	44
742.44	43.65
742.622	43.53
742.804	43.33
742.985	43.74
743.167	43.76
743.348	44.23
743.53	44.04
743.711	43.86
743.893	44.39
744.075	44.29
744.256	43.7
744.438	43.56
744.619	43.41
744.8	43.36
744.982	43.31
745.163	42.63
745.345	42.36
745.526	42.68
745.707	42.39
745.889	41.33
746.07	41.02
746.252	41.18
746.433	41.31
746.614	40.77
746.795	40.19
746.977	39.88
747.158	39.96
747.339	39.75
747.52	39.2
747.702	39.75
747.883	40.36
748.064	40.52
748.245	40.61
748.426	40.87
748.607	41.56
748.788	42.1
748.97	41.97
749.151	41.82
749.332	41.9
749.513	42.34
749.694	42.39
749.875	42.27
750.056	42.04
750.237	41.97
750.418	41.83
750.599	41.71
750.78	41.15
750.96	41.65
751.141	41.69
751.322	41.15
751.503	40.74
751.684	40.58
751.865	40.84
752.046	40.74
752.226	41.17
752.407	40.98
752.588	40.55
752.769	40.8
752.949	40.13
753.13	40.08
753.311	40.06
753.492	39.98
753.672	39.54
753.853	39.85
754.034	39.61
754.214	39.98
754.395	39.61
754.575	39.42
754.756	39.36
754.937	39.79
755.117	40.18
755.298	40.47
755.478	40.73
755.659	41.15
755.839	40.23
756.02	40.6
756.2	39.89
756.381	40.22
756.561	40.49
756.741	40.41
756.922	40.44
757.102	40.5
757.283	39.88
757.463	40
757.643	40.6
757.823	41.1
758.004	41.07
758.184	41.28
758.364	41.35
758.545	41.13
758.725	41.67
758.905	41.23
759.085	41.01
759.265	41.12
759.446	41.03
759.626	40.21
759.806	40.16
759.986	40.86
760.166	40.41
760.346	40.27
760.526	41.08
760.706	41.2
760.886	41.57
761.066	42.11
761.246	42.88
761.426	43.1
761.606	43.03
761.786	43.31
761.966	42.45
762.146	42.67
762.326	42.37
762.506	41.96
762.686	41.31
762.866	41.38
763.046	40.69
763.225	40.47
763.405	40.52
763.585	40.85
763.765	40.34
763.945	40.8
764.124	40.88
764.304	41.1
764.484	40.91
764.664	41.23
764.843	41.13
765.023	41.18
765.203	40.94
765.382	40.78
765.562	40.23
765.741	40.84
765.921	40.95
766.101	40.69
766.28	40.65
766.46	41.02
766.639	40.74
766.819	41.03
766.998	41.94
767.178	41.94
767.357	42.11
767.537	42.44
767.716	41.95
767.896	41.22
768.075	42.03
768.254	41.79
768.434	41.62
768.613	42.02
768.792	41.51
768.972	40.13
769.151	40.58
769.33	40.01
769.51	40.58
769.689	40.79
769.868	41.3
770.047	40.54
770.226	41.24
770.406	41.35
770.585	41.5
770.764	41.57
770.943	42.66
771.122	42.3
771.301	42.63
771.48	42.39
771.66	42.9
771.839	42.84
772.018	42.61
772.197	41.45
772.376	41.29
772.555	41.13
772.734	40.66
772.913	40.61
773.092	40.64
773.271	40.54
773.449	40.39
773.628	39.1
773.807	38.89
773.986	38.85
774.165	39.31
774.344	39.48
774.523	39.36
774.701	39.89
774.88	39.55
775.059	39.49
775.238	39.99
775.417	39.1
775.595	40.4
775.774	40.44
775.953	40.55
776.131	40.51
776.31	39.6
776.489	39.47
776.667	39.72
776.846	39.09
777.025	39.16
777.203	38.61
777.382	38.69
777.56	38.05
777.739	37.87
777.917	37.58
778.096	38.06
778.274	38.45
778.453	38.09
778.631	38.19
778.81	38.28
778.988	38.82
779.166	38.35
779.345	39.35
779.523	38.54
779.702	38.27
779.88	38.58
780.058	38.42
780.237	38.34
780.415	38.47
780.593	37.72
780.771	38.7
780.95	38.31
781.128	38.02
781.306	37.74
781.484	38.6
781.662	38.12
781.841	37.99
782.019	37.24
782.197	37.58
782.375	37.41
782.553	37.87
782.731	36.58
782.909	36.12
783.087	36.93
783.265	36.08
783.443	35.74
783.621	36.59
783.799	36.94
783.977	37.15
784.155	36.53
784.333	36.63
784.511	37.84
784.689	37.43
784.867	37.86
785.045	37.22
785.223	38
785.4	38.11
785.578	37.27
785.756	36.59
785.934	37.66
786.112	38.43
786.289	38.5
786.467	36.25
786.645	37.14
786.823	36.91
787	38.16
787.178	38.39
787.356	37.41
787.533	38.67
787.711	39.13
787.889	38.65
788.066	38.79
788.244	39.22
788.421	40.35
788.599	40.54
788.776	41.17
788.954	40.35
789.131	40.21
789.309	41.24
789.486	41.81
789.664	41.98
789.841	41.89
790.019	41.41
790.196	40.65
790.373	39.6
790.551	39.3
790.728	38.58
790.906	38.72
791.083	39.02
791.26	38.4
791.437	37.2
791.615	37.58
791.792	37.27
791.969	37.1
792.146	36.65
792.324	36.91
792.501	36.22
792.678	36.46
792.855	37.05
793.032	35.98
793.209	36.52
793.387	37.73
793.564	37.76
793.741	38.73
793.918	39.2
794.095	39.63
794.272	40.74
794.449	41.35
794.626	41.24
794.803	40.25
794.98	40.79
795.157	39.97
795.334	38.68
795.511	37.84
795.688	37.64
795.864	37.23
796.041	37.64
796.218	36.56
796.395	36.29
796.572	35.72
796.749	35.99
796.925	35.63
797.102	37.28
797.279	38.43
797.456	38.1
797.632	37.36
797.809	37.21
797.986	37.2
798.162	37.18
798.339	37.34
798.516	38.23
798.692	37.98
798.869	38.32
799.046	37.06
799.222	35.62
799.399	36.85
799.575	37.4
799.752	36.94
799.928	36.53
800.105	36.45
800.281	35.83
800.458	36.08
800.634	36.19
800.811	35.84
800.987	36.03
801.163	36.25
801.34	36.33
801.516	35.51
801.692	35.99
801.869	36.3
802.045	36.95
802.221	37.37
802.398	37
802.574	38.82
802.75	38.87
802.926	38.88
803.103	39.37
803.279	39.18
803.455	40.05
803.631	39.82
803.807	39.79
803.983	40.81
804.16	41.23
804.336	40.76
804.512	39.3
804.688	39.62
804.864	39.94
805.04	38.78
805.216	36.66
805.392	36.79
805.568	37.74
805.744	38.23
805.92	36.93
806.096	37.91
806.272	36.77
806.448	36.59
806.623	37.31
806.799	36.28
806.975	38.31
807.151	39.68
807.327	38.45
807.503	37.94
807.678	38.42
807.854	39.2
808.03	37.15
808.206	39.36
808.381	39.48
808.557	39.23
808.733	39.53
808.908	38.83
809.084	39.03
809.26	39.97
809.435	40.06
809.611	40.25
809.787	40
809.962	41.7
810.138	40.87
810.313	41.57
810.489	41.97
810.664	42.09
810.84	41.51
811.015	41.41
811.191	41.74
811.366	42.04
811.542	41.96
811.717	41.19
811.892	40.67
812.068	39.84
812.243	38.98
812.419	38.65
812.594	38.71
812.769	38.56
812.944	37.69
813.12	37.47
813.295	38.31
813.47	37.59
813.645	39.08
813.821	37.41
813.996	38.4
814.171	39.7
814.346	40.07
814.521	39.93
814.697	39.51
814.872	40.33
815.047	39.18
815.222	38.16
815.397	37.91
815.572	37.75
815.747	38.78
815.922	37.95
816.097	36.93
816.272	36.11
816.447	35.56
816.622	37.35
816.797	37.5
816.972	37.83
817.147	38.3
817.322	38.19
817.496	36.2
817.671	36.25
817.846	36.36
818.021	36.43
818.196	36.49
818.371	36.88
818.545	36.13
818.72	35.43
818.895	35.5
819.069	34.3
819.244	35.66
819.419	36.24
819.594	35.42
819.768	35.79
819.943	35.16
820.117	35.53
820.292	35.72
820.467	35.79
820.641	35.72
820.816	35.72
820.99	35.98
821.165	35.47
821.339	35.23
821.514	35.37
821.688	35.08
821.863	34.81
822.037	34.57
822.212	34.45
822.386	34.1
822.56	34
822.735	33.81
822.909	33.91
823.084	33.72
823.258	33.54
823.432	33.5
823.606	33.54
823.781	33.7
823.955	33.85
824.129	33.77
824.303	33.89
824.478	33.9
824.652	34.41
824.826	33.97
825	34.45
825.174	34.69
825.348	34.64
825.523	34.8
825.697	35.11
825.871	34.71
826.045	34.67
826.219	34.86
826.393	35.08
826.567	34.61
826.741	35
826.915	34.68
827.089	34.82
827.263	35.08
827.437	35.21
827.611	34.89
827.784	34.9
827.958	34.81
828.132	34.4
828.306	34.17
828.48	34.23
828.654	34.27
828.827	33.99
829.001	34
829.175	33.62
829.349	33.11
829.522	33.46
829.696	33.48
829.87	33.73
830.044	33.79
830.217	34.46
830.391	33.87
830.565	33.58
830.738	33.46
830.912	34.44
831.085	34.09
831.259	34.82
831.432	34.12
831.606	34.93
831.779	34.8
831.953	35.95
832.126	35.21
832.3	35.7
832.473	34.55
832.647	34.46
832.82	33.5
832.994	34.34
833.167	34.27
833.34	33.71
833.514	33.24
833.687	32.95
833.86	32.31
834.034	32.59
834.207	32.09
834.38	33.24
834.553	33.38
834.727	33.45
834.9	33.34
835.073	33.42
835.246	34.01
835.419	34.45
835.593	34.27
835.766	35.39
835.939	34.85
836.112	35.98
836.285	35.55
836.458	36.35
836.631	36.77
836.804	36.56
836.977	36.07
837.15	35.47
837.323	34.91
837.496	36.2
837.669	34.1
837.842	34.86
838.015	34.32
838.188	34.31
838.361	33.75
838.533	34.69
838.706	35.12
838.879	35.19
839.052	36.56
839.225	36.79
839.398	37.08
839.57	38.36
839.743	41.09
839.916	39.9
840.088	39.34
840.261	40.04
840.434	39.47
840.607	39
840.779	38.44
840.952	38.05
841.124	36.79
841.297	38.06
841.47	37.99
841.642	35.41
841.815	35.79
841.987	34.93
842.16	34.77
842.332	35.2
842.505	35.53
842.677	37.48
842.85	35.64
843.022	37.63
843.194	36.98
843.367	37.35
843.539	36.38
843.712	37.22
843.884	42.98
844.056	43.31
844.229	41.4
844.401	42.2
844.573	42.84
844.745	46.39
844.918	48.27
845.09	44.62
845.262	46.07
845.434	46.86
845.606	47.02
845.779	44.13
845.951	39.24
846.123	38.93
846.295	39.53
846.467	36.73
846.639	36.75
846.811	35.76
846.983	36.86
847.155	36.38
847.327	35.88
847.499	37.12
847.671	36.17
847.843	37.35
848.015	39.46
848.187	39.31
848.359	39.34
848.531	39.75
848.703	37.97
848.875	39.76
849.047	38.5
849.218	38.58
849.39	37.03
849.562	36.13
849.734	36.39
849.905	36.3
850.077	37.18
850.249	36.17
850.421	36.91
850.592	37.96
850.764	38.35
850.936	37.58
851.107	37.09
851.279	34.53
851.451	37.29
851.622	34.71
851.794	31.2
851.965	28.18
852.137	29.94
852.308	26.75
852.48	26.86
852.651	23.97
852.823	23.91
852.994	25.41
853.166	29.59
853.337	24.61
853.509	25.64
853.68	28.33
853.851	29.43
854.023	29.31
854.194	28.09
854.365	23.71
854.537	25.06
854.708	25.5
854.879	25.91
855.05	24.66
855.222	25.1
855.393	27.4
855.564	27.29
855.735	24.73
855.906	27.15
856.078	29.21
856.249	31.27
856.42	30.78
856.591	33.06
856.762	33.46
856.933	37.56
857.104	38.93
857.275	42.5
857.446	42.09
857.617	47.93
857.788	45.74
857.959	47.16
858.13	46.64
858.301	47.45
858.472	43.66
858.643	42.72
858.814	38.18
858.985	34.2
859.155	31.01
859.326	31.99
859.497	31.21
859.668	32.65
859.839	28.52
860.009	28.43
860.18	27.38
860.351	29.25
860.522	29.48
860.692	30.07
860.863	36.85
861.034	36.46
861.204	34.98
861.375	34.44
861.546	35.02
861.716	38.55
861.887	43.19
862.057	49.41
862.228	50.88
862.398	51.68
862.569	55.09
862.739	51.84
862.91	50.94
863.08	52.43
863.251	47.41
863.421	46.69
863.592	49.91
863.762	46.24
863.932	42.74
864.103	43.27
864.273	39.38
864.443	35.08
864.614	34.62
864.784	34.59
864.954	33.47
865.125	33.67
865.295	34.08
865.465	30.15
865.635	30.61
865.805	30.29
865.976	28.01
866.146	30.11
866.316	32.41
866.486	34.53
866.656	32.59
866.826	34.81
866.996	35.82
867.166	36.04
867.336	34.63
867.506	38.24
867.676	39.29
867.846	40.3
868.016	37.44
868.186	33.47
868.356	33.3
868.526	36.66
868.696	36.18
868.866	41.75
869.036	41.71
869.206	43.09
869.376	39.62
869.545	36.9
869.715	37.51
869.885	42.05
870.055	41.68
870.224	42.66
870.394	39.22
870.564	35.64
870.734	32.97
870.903	27.74
871.073	25.56
871.243	29.22
871.412	28.96
871.582	25.59
871.751	23.82
871.921	28.51
872.091	25.37
872.26	29.75
872.43	31.89
872.599	31.46
872.769	33.35
872.938	35.13
873.108	30.2
873.277	30.88
873.446	31.89
873.616	31.7
873.785	28.46
873.955	30.61
874.124	28.77
874.293	32.05
874.463	30.98
874.632	30.7
874.801	30.54
874.971	30.43
875.14	30.99
875.309	29.53
875.478	32.09
875.647	36.38
875.817	34.4
875.986	35.13
876.155	31.37
876.324	34.89
876.493	39.69
876.662	36.24
876.831	38.93
877	36.18
877.17	37.47
877.339	36.58
877.508	34.23
877.677	37.03
877.846	34.59
878.015	39.77
878.184	34.21
878.352	30.1
878.521	35.06
878.69	35.21
878.859	37.03
879.028	39.05
879.197	39.44
879.366	40.83
879.534	39.1
879.703	39.43
879.872	35.58
880.041	37.22
880.21	35.46
880.378	31.93
880.547	31
880.716	31.01
880.884	30.64
881.053	29.14
881.222	28.01
881.39	27.84
881.559	27.24
881.727	27.31
881.896	26.52
882.065	27.79
882.233	28.27
882.402	27.79
882.57	27.41
882.739	27.28
882.907	27.95
883.076	28.1
883.244	28.66
883.412	29.09
883.581	29.17
883.749	29.29
883.918	28.83
884.086	29.39
884.254	29.87
884.423	30.82
884.591	30.98
884.759	30.46
884.927	29.89
885.096	28.43
885.264	28.7
885.432	29.37
885.6	30.16
885.769	28.95
885.937	27.8
886.105	29.11
886.273	28.58
886.441	28.26
886.609	28.51
886.777	30.92
886.945	29.89
887.113	31.11
887.281	30.93
887.449	31.26
887.617	34.05
887.785	35.58
887.953	36.88
888.121	36.92
888.289	36.23
888.457	35.3
888.625	36.85
888.793	38.31
888.961	33.82
889.129	30.05
889.296	31.02
889.464	30.38
889.632	29.09
889.8	22.73
889.967	20.83
890.135	19.97
