Data from 2938838__Reflection_03.txt Node
Date: Wed Mar 11 16:05:53 EDT 2015
User: robert
Spectrometer: USB4E03002
Autoset integration time: false
Trigger mode: 4
Integration Time (sec): 1.000000E-1
Scans to average: 10
Electric dark correction enabled: false
Nonlinearity correction enabled: false
Boxcar width: 5
Stray light correction enabled: false
XAxis mode: Wavelengths
Stop averaging: false
Number of Pixels in Spectrum: 3648
>>>>>Begin Spectral Data<<<<<
177.575	-20.99
177.794	3.06
178.014	22.58
178.233	40
178.452	26.28
178.672	15.94
178.891	30.1
179.11	-0.35
179.33	-49.77
179.549	-158.62
179.768	-166.15
179.987	-187.15
180.207	-1562.96
180.426	-175.52
180.645	-205.47
180.864	-55.65
181.084	-87.85
181.303	-155.26
181.522	-272
181.741	-175.81
181.96	-57.55
182.179	-2.56
182.398	-17.6
182.618	10.59
182.837	3.28
183.056	-19.63
183.275	-496.05
183.494	-156.28
183.713	-182.76
183.932	-226.27
184.151	-313.39
184.37	-314.17
184.589	343.54
184.808	340.43
185.027	158.42
185.246	126.9
185.465	107.84
185.684	67.51
185.903	113.28
186.122	107.14
186.341	163.04
186.56	107.54
186.779	106.62
186.998	168.75
187.216	132.74
187.435	156.55
187.654	166.51
187.873	165.84
188.092	215.31
188.311	141.79
188.53	133.06
188.748	122.18
188.967	121.95
189.186	124.48
189.405	97.65
189.623	136.82
189.842	129.89
190.061	107.32
190.28	102.9
190.498	87.42
190.717	58.4
190.936	32.57
191.154	6.03
191.373	28.91
191.592	9.94
191.81	33.66
192.029	21.54
192.248	30.34
192.466	24.32
192.685	8.33
192.904	-24.2
193.122	-42.86
193.341	400
193.559	-30.43
193.778	-103.51
193.996	-85.71
194.215	306.78
194.433	-66.38
194.652	-14.83
194.87	46.2
195.089	53.06
195.307	70.19
195.526	100
195.744	101.67
195.963	91.77
196.181	120.38
196.399	129.22
196.618	126.2
196.836	105
197.055	176.62
197.273	138.59
197.491	210.36
197.71	162.98
197.928	609.52
198.146	-109.3
198.365	-13.33
198.583	49.84
198.801	99.01
199.019	40.3
199.238	32
199.456	103.81
199.674	180.12
199.892	-1591.67
200.111	-219.28
200.329	-10.23
200.547	41.15
200.765	26.37
200.983	23.05
201.202	14.35
201.42	13.72
201.638	22.06
201.856	12.61
202.074	7.95
202.292	-21.18
202.51	-15.29
202.728	-115.38
202.946	-148.29
203.165	-248.32
203.383	-405.32
203.601	843.86
203.819	261.73
204.037	211.04
204.255	127.75
204.473	27.45
204.691	-26.47
204.909	-106.6
205.127	-273.39
205.345	-78.99
205.562	-50.44
205.78	-154.39
205.998	-930.95
206.216	250.61
206.434	230.3
206.652	148.98
206.87	135.11
207.088	-20
207.306	195.08
207.523	-6.45
207.741	128.57
207.959	98.45
208.177	127
208.395	181.82
208.612	153
208.83	133.11
209.048	79.91
209.266	63.93
209.483	65.55
209.701	54.01
209.919	39.82
210.136	29.74
210.354	25.31
210.572	11.59
210.79	2.81
211.007	-13.14
211.225	-0.27
211.442	4.49
211.66	-4.46
211.878	-1.47
212.095	2230.3
212.313	886.42
212.53	-2300
212.748	-324
212.966	1479.49
213.183	386.06
213.401	226.73
213.618	140.37
213.836	105.17
214.053	91.07
214.271	84.92
214.488	91.21
214.705	529.63
214.923	-16.67
215.14	-94.51
215.358	11.69
215.575	49.19
215.793	24.61
216.01	43.04
216.227	59.22
216.445	67.2
216.662	67.33
216.879	79.96
217.097	76.38
217.314	93.63
217.531	114.11
217.749	96.71
217.966	105.57
218.183	114.62
218.4	85.02
218.618	68.99
218.835	62.71
219.052	57.79
219.269	49.23
219.487	65.42
219.704	59.69
219.921	40.13
220.138	42.16
220.355	41.81
220.572	45.39
220.79	34.95
221.007	22.88
221.224	14.65
221.441	12.46
221.658	12.23
221.875	9.64
222.092	15.2
222.309	16.97
222.526	15.78
222.743	15.7
222.96	11.9
223.177	13.08
223.394	19.54
223.611	19.13
223.828	21.54
224.045	16.04
224.262	16.19
224.479	13.27
224.696	13.17
224.913	13.58
225.13	11.09
225.347	8.39
225.564	10.11
225.781	9.94
225.997	7.9
226.214	9.13
226.431	10.06
226.648	6.61
226.865	4.66
227.082	5.39
227.298	1.92
227.515	3.8
227.732	5.02
227.949	4.99
228.165	4.5
228.382	4.71
228.599	4.13
228.816	4.15
229.032	5.37
229.249	5.73
229.466	4.77
229.682	5.06
229.899	4.53
230.116	4.45
230.332	4.69
230.549	5.09
230.765	5.25
230.982	5.27
231.199	5.27
231.415	4.56
231.632	4.9
231.848	5.12
232.065	6.63
232.281	7.41
232.498	6.86
232.714	4.94
232.931	4.42
233.147	3.69
233.364	3.52
233.58	6.11
233.797	6.22
234.013	5.21
234.23	6.88
234.446	6.59
234.662	7.11
234.879	8.23
235.095	9.86
235.312	9.37
235.528	10.23
235.744	11.29
235.961	8.7
236.177	8.56
236.393	9.57
236.61	7.2
236.826	7.54
237.042	5.09
237.258	2.34
237.475	0.91
237.691	-0.03
237.907	-2.09
238.123	-2.39
238.339	-1.75
238.556	-1.46
238.772	-1.55
238.988	0.58
239.204	2.01
239.42	3.6
239.636	6.11
239.853	7.05
240.069	8.58
240.285	8.82
240.501	8.09
240.717	7.95
240.933	7.6
241.149	7.55
241.365	7.28
241.581	5.99
241.797	5.24
242.013	4.68
242.229	4.51
242.445	3.89
242.661	3.83
242.877	4.11
243.093	3.8
243.309	3.98
243.525	3.14
243.741	2.98
243.957	3.42
244.173	4.32
244.388	5.23
244.604	4.9
244.82	4.75
245.036	4.34
245.252	4
245.468	3.86
245.683	3.78
245.899	4.23
246.115	4.42
246.331	4.15
246.547	4.03
246.762	3.57
246.978	3.93
247.194	4.07
247.409	4.76
247.625	4.61
247.841	4.89
248.057	4.82
248.272	4.86
248.488	4.62
248.703	5.02
248.919	5.2
249.135	5.37
249.35	5.39
249.566	5.36
249.782	5.14
249.997	5.63
250.213	5.29
250.428	5.37
250.644	5.07
250.859	4.92
251.075	4.46
251.29	3.5
251.506	3.7
251.721	3.99
251.937	3.97
252.152	3.73
252.368	3.83
252.583	4.53
252.798	4.08
253.014	4.14
253.229	4.53
253.445	4.62
253.66	5.12
253.875	4.65
254.091	4.05
254.306	4.35
254.521	4.41
254.737	4.06
254.952	3.5
255.167	4.2
255.383	3.86
255.598	4.41
255.813	4.17
256.028	4.46
256.244	5.32
256.459	5.48
256.674	4.97
256.889	5.1
257.104	4.87
257.32	4.99
257.535	4.79
257.75	4.33
257.965	3.68
258.18	3.64
258.395	3.51
258.61	3.23
258.826	3.32
259.041	3.75
259.256	3.77
259.471	3.7
259.686	3.58
259.901	3.6
260.116	4.01
260.331	3.99
260.546	3.89
260.761	3.65
260.976	3.85
261.191	4.03
261.406	4.01
261.621	3.62
261.836	3.39
262.05	3.21
262.265	3.49
262.48	3.31
262.695	3.32
262.91	3.76
263.125	3.98
263.34	3.97
263.555	3.33
263.769	2.86
263.984	3.23
264.199	3.85
264.414	4.22
264.629	3.83
264.843	3.99
265.058	3.99
265.273	3.47
265.488	3.6
265.702	3.27
265.917	3.13
266.132	3.45
266.346	2.96
266.561	2.7
266.776	2.61
266.99	2.6
267.205	2.29
267.42	2.73
267.634	2.93
267.849	2.79
268.063	2.61
268.278	2.6
268.492	2.4
268.707	2.63
268.922	2.83
269.136	2.9
269.351	3.11
269.565	3.27
269.78	3.08
269.994	2.93
270.209	2.94
270.423	3.12
270.637	3.22
270.852	3.57
271.066	3.45
271.281	3.52
271.495	3.37
271.709	3.26
271.924	2.91
272.138	2.61
272.353	2.64
272.567	2.68
272.781	2.69
272.996	2.79
273.21	2.6
273.424	3.08
273.638	2.92
273.853	2.93
274.067	2.84
274.281	3.44
274.495	3.7
274.71	3.7
274.924	3.92
275.138	3.76
275.352	3.58
275.566	3.48
275.781	3.35
275.995	3.09
276.209	2.95
276.423	3.23
276.637	3.08
276.851	3.14
277.065	3.25
277.279	3.26
277.493	3.11
277.707	3.16
277.921	2.75
278.135	2.47
278.349	2.97
278.563	3.14
278.777	2.91
278.991	2.73
279.205	2.25
279.419	2.3
279.633	1.93
279.847	2.23
280.061	1.81
280.275	2.35
280.489	2.38
280.703	1.9
280.917	1.56
281.131	1.58
281.344	1.64
281.558	1.95
281.772	2.04
281.986	2.24
282.2	2.22
282.414	2.51
282.627	3.04
282.841	3.07
283.055	2.88
283.269	3.04
283.482	2.95
283.696	3.08
283.91	2.81
284.123	2.78
284.337	2.7
284.551	2.58
284.764	2.77
284.978	1.97
285.192	1.76
285.405	2.09
285.619	2.07
285.833	1.82
286.046	1.76
286.26	1.96
286.473	1.85
286.687	1.73
286.9	1.72
287.114	1.64
287.327	1.71
287.541	2.06
287.754	2.28
287.968	2.59
288.181	2.68
288.395	2.4
288.608	2.33
288.822	2.53
289.035	2.84
289.248	3
289.462	2.93
289.675	2.87
289.889	2.77
290.102	2.68
290.315	2.56
290.529	2.63
290.742	2.76
290.955	3.04
291.169	3.09
291.382	2.84
291.595	2.88
291.808	3.18
292.022	3.56
292.235	3.69
292.448	4.03
292.661	3.91
292.875	4.1
293.088	4.4
293.301	4.17
293.514	4.1
293.727	4.29
293.94	4.34
294.153	4.01
294.367	3.66
294.58	3.52
294.793	3.01
295.006	3.11
295.219	3.38
295.432	3.3
295.645	3.34
295.858	3.38
296.071	3.25
296.284	3.19
296.497	3.32
296.71	3.61
296.923	3.57
297.136	3.76
297.349	3.82
297.562	3.65
297.775	3.61
297.988	3.47
298.201	3.21
298.414	3.3
298.626	3.12
298.839	2.77
299.052	2.7
299.265	2.61
299.478	2.62
299.691	2.3
299.903	2.23
300.116	2.28
300.329	1.99
300.542	2.15
300.755	2.2
300.967	2.55
301.18	3.09
301.393	3.18
301.605	3.27
301.818	3.3
302.031	3.81
302.243	4.03
302.456	4.06
302.669	4.42
302.881	4.27
303.094	4.54
303.307	4.44
303.519	4.26
303.732	4.32
303.944	4.28
304.157	4.41
304.37	4.19
304.582	4.03
304.795	4.07
305.007	4.23
305.22	4.46
305.432	4.27
305.645	4.24
305.857	4.01
306.069	3.86
306.282	3.76
306.494	3.63
306.707	3.71
306.919	3.53
307.132	3.28
307.344	3.36
307.556	3.49
307.769	3.68
307.981	3.96
308.193	4.45
308.406	4.63
308.618	5.17
308.83	5.11
309.043	5.01
309.255	5.17
309.467	5.15
309.679	5.14
309.892	5.25
310.104	5.05
310.316	4.77
310.528	4.72
310.74	4.65
310.953	4.37
311.165	4.55
311.377	4.56
311.589	4.73
311.801	4.78
312.013	4.89
312.225	4.82
312.437	4.79
312.649	4.91
312.862	4.71
313.074	4.81
313.286	5.13
313.498	4.78
313.71	4.82
313.922	4.47
314.134	4.51
314.346	3.98
314.558	3.99
314.77	4.3
314.982	4.44
315.193	4.8
315.405	4.87
315.617	4.45
315.829	5.04
316.041	5.28
316.253	5.31
316.465	5.14
316.677	5.89
316.888	5.85
317.1	5.31
317.312	5.26
317.524	4.77
317.736	4.36
317.947	4.75
318.159	4.65
318.371	4.54
318.583	4.69
318.794	4.6
319.006	4.22
319.218	4.21
319.43	4.12
319.641	4.49
319.853	4.8
320.064	5.08
320.276	5.16
320.488	5.03
320.699	4.81
320.911	5.27
321.123	5.76
321.334	5.88
321.546	5.67
321.757	6.22
321.969	6.21
322.18	6.2
322.392	6.28
322.603	5.89
322.815	5.74
323.026	5.77
323.238	5.39
323.449	5.3
323.661	5.01
323.872	5.18
324.083	5.1
324.295	4.82
324.506	4.83
324.718	4.54
324.929	4.94
325.14	5.3
325.352	5.28
325.563	5.34
325.774	5.04
325.986	5.29
326.197	5.15
326.408	5.13
326.62	5.11
326.831	4.69
327.042	4.75
327.253	4.45
327.464	4.24
327.676	4.49
327.887	4.56
328.098	4.72
328.309	5.12
328.52	5.18
328.732	5.14
328.943	5.52
329.154	6.16
329.365	6.14
329.576	6.05
329.787	6.33
329.998	6.04
330.209	5.93
330.42	6.42
330.631	6.14
330.842	6.4
331.053	6.33
331.264	6.27
331.475	6.11
331.686	6.2
331.897	6.5
332.108	6.29
332.319	6.86
332.53	6.93
332.741	6.53
332.952	6.64
333.163	6.55
333.374	6.76
333.585	6.61
333.795	6.65
334.006	6.56
334.217	6.35
334.428	5.92
334.639	5.65
334.849	5.93
335.06	6.06
335.271	5.59
335.482	5.57
335.692	5.65
335.903	5.53
336.114	5.71
336.325	5.97
336.535	5.68
336.746	6.05
336.957	5.96
337.167	5.83
337.378	5.85
337.589	6.31
337.799	6.05
338.01	5.74
338.22	5.92
338.431	5.59
338.642	5.47
338.852	6.07
339.063	6.03
339.273	6
339.484	5.32
339.694	5.51
339.905	5.36
340.115	5.56
340.326	5.98
340.536	5.58
340.746	5.63
340.957	5.76
341.167	5.53
341.378	5.72
341.588	5.62
341.799	6.11
342.009	5.69
342.219	5.15
342.43	5.32
342.64	5.38
342.85	5.33
343.061	5.57
343.271	5.39
343.481	5.26
343.691	4.88
343.902	4.94
344.112	4.95
344.322	5.24
344.532	5.9
344.743	5.81
344.953	5.39
345.163	5.62
345.373	5.48
345.583	5.19
345.793	5.18
346.004	5.05
346.214	5.08
346.424	4.87
346.634	4.77
346.844	4.45
347.054	4.56
347.264	4.75
347.474	4.62
347.684	4.77
347.894	5.17
348.104	5.28
348.314	5.78
348.524	5.8
348.734	5.72
348.944	5.73
349.154	5.89
349.364	5.85
349.574	5.96
349.784	5.99
349.994	6.06
350.204	6.2
350.413	6.29
350.623	6.12
350.833	6.07
351.043	6.11
351.253	6.26
351.463	5.72
351.672	5.69
351.882	5.7
352.092	5.45
352.302	5.17
352.511	4.84
352.721	4.47
352.931	4.32
353.141	4.31
353.35	4.7
353.56	4.83
353.77	5.04
353.979	5.07
354.189	4.83
354.399	4.99
354.608	4.93
354.818	5.02
355.027	5.29
355.237	5.41
355.447	5.24
355.656	5.18
355.866	4.98
356.075	5.17
356.285	5.09
356.494	5.13
356.704	5.22
356.913	5.11
357.123	4.9
357.332	4.79
357.542	4.83
357.751	5.17
357.96	4.95
358.17	5.01
358.379	4.88
358.589	4.62
358.798	4.82
359.007	4.71
359.217	4.81
359.426	5.13
359.635	5.02
359.845	4.76
360.054	4.67
360.263	4.59
360.472	4.59
360.682	4.85
360.891	5.08
361.1	4.91
361.309	4.88
361.519	4.94
361.728	4.84
361.937	5
362.146	5.22
362.355	5.09
362.564	5.26
362.774	4.96
362.983	4.77
363.192	4.87
363.401	5.05
363.61	5.12
363.819	5.27
364.028	5.23
364.237	5.25
364.446	5.05
364.655	5.19
364.864	5.08
365.073	5.15
365.282	5.11
365.491	4.95
365.7	4.84
365.909	4.95
366.118	4.8
366.327	4.58
366.536	4.35
366.745	4.44
366.954	4.43
367.162	4.45
367.371	4.63
367.58	4.67
367.789	4.47
367.998	4.35
368.207	3.97
368.415	3.85
368.624	4.04
368.833	4.39
369.042	4.25
369.25	3.91
369.459	4.04
369.668	4.02
369.877	4.14
370.085	4.23
370.294	4.29
370.503	4.57
370.711	4.59
370.92	4.33
371.129	4.15
371.337	4.13
371.546	4.23
371.754	4.33
371.963	4.39
372.171	4.27
372.38	4.26
372.589	4.37
372.797	4.39
373.006	4.21
373.214	4.45
373.423	4.19
373.631	4.19
373.84	4.18
374.048	3.94
374.256	3.76
374.465	3.59
374.673	3.44
374.882	3.08
375.09	3.08
375.298	3.38
375.507	3.36
375.715	3.49
375.923	3.48
376.132	3.39
376.34	3.47
376.548	3.44
376.757	3.57
376.965	3.84
377.173	3.92
377.381	3.83
377.59	3.77
377.798	3.8
378.006	3.83
378.214	3.77
378.423	3.88
378.631	3.81
378.839	3.97
379.047	3.82
379.255	3.7
379.463	3.84
379.671	3.84
379.879	3.67
380.088	3.72
380.296	3.64
380.504	3.77
380.712	3.65
380.92	3.83
381.128	3.84
381.336	3.91
381.544	3.69
381.752	3.57
381.96	3.57
382.168	3.78
382.376	3.63
382.584	3.74
382.791	3.62
382.999	3.49
383.207	3.23
383.415	2.99
383.623	3.16
383.831	3.25
384.039	3.17
384.247	3.23
384.454	3.06
384.662	3.26
384.87	3.31
385.078	3.36
385.285	3.55
385.493	3.36
385.701	3.54
385.909	3.35
386.116	3.36
386.324	3.3
386.532	3.25
386.739	3.13
386.947	2.98
387.155	3.07
387.362	3.17
387.57	3.06
387.778	3.35
387.985	3.45
388.193	3.46
388.4	3.53
388.608	3.71
388.816	3.68
389.023	3.7
389.231	3.66
389.438	3.44
389.646	3.3
389.853	3.3
390.061	3.16
390.268	3.05
390.475	2.87
390.683	2.85
390.89	2.71
391.098	2.59
391.305	2.59
391.512	2.43
391.72	2.29
391.927	2.29
392.135	2.32
392.342	2.32
392.549	2.27
392.756	2.42
392.964	2.29
393.171	2.28
393.378	2.18
393.586	2.2
393.793	2.2
394	2.33
394.207	2.37
394.414	2.36
394.622	2.36
394.829	2.31
395.036	2.25
395.243	2.28
395.45	2.32
395.657	2.47
395.864	2.35
396.072	2.56
396.279	2.61
396.486	2.55
396.693	2.6
396.9	2.42
397.107	2.33
397.314	2.34
397.521	2.35
397.728	2.26
397.935	2.22
398.142	2.15
398.349	2.13
398.556	1.91
398.763	1.87
398.97	1.79
399.177	2.03
399.383	2
399.59	1.94
399.797	1.94
400.004	2.1
400.211	2.27
400.418	2.33
400.625	2.31
400.831	2.44
401.038	2.55
401.245	2.61
401.452	2.59
401.658	2.65
401.865	2.78
402.072	2.75
402.279	2.56
402.485	2.48
402.692	2.52
402.899	2.48
403.105	2.36
403.312	2.22
403.519	2.21
403.725	2.13
403.932	2.24
404.138	2.19
404.345	2.24
404.552	2.26
404.758	2.16
404.965	2.12
405.171	2.09
405.378	2.11
405.584	2.15
405.791	2.13
405.997	2.13
406.204	2.07
406.41	1.99
406.617	1.98
406.823	1.82
407.029	1.86
407.236	1.92
407.442	1.9
407.649	1.9
407.855	1.88
408.061	1.63
408.268	1.73
408.474	1.62
408.68	1.7
408.887	1.55
409.093	1.72
409.299	1.69
409.505	1.66
409.712	1.63
409.918	1.67
410.124	1.6
410.33	1.74
410.537	1.58
410.743	1.62
410.949	1.63
411.155	1.78
411.361	1.75
411.567	1.65
411.773	1.64
411.98	1.72
412.186	1.69
412.392	1.65
412.598	1.52
412.804	1.76
413.01	1.7
413.216	1.63
413.422	1.31
413.628	1.36
413.834	1.56
414.04	1.6
414.246	1.42
414.452	1.31
414.658	1.35
414.864	1.5
415.07	1.33
415.275	1.31
415.481	1.38
415.687	1.61
415.893	1.74
416.099	1.63
416.305	1.59
416.511	1.7
416.716	1.75
416.922	1.76
417.128	1.8
417.334	1.87
417.539	1.93
417.745	1.77
417.951	1.75
418.157	1.6
418.362	1.62
418.568	1.59
418.774	1.55
418.979	1.57
419.185	1.52
419.391	1.4
419.596	1.23
419.802	1.19
420.008	1.23
420.213	0.51
420.419	0.46
420.624	0.44
420.83	0.45
421.035	0.48
421.241	0.47
421.446	0.55
421.652	0.54
421.857	0.59
422.063	0.56
422.268	0.6
422.474	1.3
422.679	1.34
422.885	1.33
423.09	1.35
423.295	1.34
423.501	1.33
423.706	1.36
423.911	1.48
424.117	1.53
424.322	1.59
424.527	1.52
424.733	1.43
424.938	1.49
425.143	1.47
425.349	1.42
425.554	1.44
425.759	1.54
425.964	1.44
426.169	1.28
426.375	1.22
426.58	1.13
426.785	1.11
426.99	1.15
427.195	1.08
427.4	1.17
427.605	1.12
427.811	1.08
428.016	0.9
428.221	0.8
428.426	0.91
428.631	0.99
428.836	1.12
429.041	1.17
429.246	1.06
429.451	1.1
429.656	1.04
429.861	1.08
430.066	1.11
430.271	1.13
430.476	1.29
430.681	1.25
430.886	1.2
431.09	1.15
431.295	1.1
431.5	1.28
431.705	1.26
431.91	1.27
432.115	1.32
432.32	1.27
432.524	1.4
432.729	1.34
432.934	1.38
433.139	1.43
433.343	1.46
433.548	1.5
433.753	1.47
433.958	1.5
434.162	1.51
434.367	1.53
434.572	1.54
434.776	1.46
434.981	1.55
435.186	1.48
435.39	1.46
435.595	1.33
435.799	1.34
436.004	1.37
436.209	1.42
436.413	1.37
436.618	1.34
436.822	1.41
437.027	1.41
437.231	1.32
437.436	1.47
437.64	1.41
437.845	1.5
438.049	1.56
438.253	1.57
438.458	1.5
438.662	1.56
438.867	1.57
439.071	1.51
439.275	1.57
439.48	1.57
439.684	1.5
439.888	1.54
440.093	1.53
440.297	1.53
440.501	1.48
440.706	1.53
440.91	1.53
441.114	1.45
441.318	1.46
441.523	1.46
441.727	1.47
441.931	1.52
442.135	1.51
442.339	1.48
442.543	1.36
442.748	1.31
442.952	1.33
443.156	1.32
443.36	1.42
443.564	1.42
443.768	1.3
443.972	1.25
444.176	1.26
444.38	1.24
444.584	1.25
444.788	1.37
444.992	1.37
445.196	1.32
445.4	1.26
445.604	1.24
445.808	1.18
446.012	1.2
446.216	1.24
446.42	1.1
446.624	1.14
446.828	1.12
447.032	1.07
447.235	1.08
447.439	0.97
447.643	0.99
447.847	1.03
448.051	1.07
448.254	1.08
448.458	1.09
448.662	1.19
448.866	1.17
449.069	1.16
449.273	1.18
449.477	1.28
449.681	1.35
449.884	1.33
450.088	1.28
450.292	1.27
450.495	1.28
450.699	1.15
450.902	1.13
451.106	1.04
451.31	1.11
451.513	1.06
451.717	0.94
451.92	0.89
452.124	0.93
452.327	0.88
452.531	0.91
452.734	0.88
452.938	1
453.141	1.05
453.345	1.17
453.548	1.14
453.752	1.16
453.955	1.2
454.158	1.33
454.362	1.32
454.565	1.39
454.769	1.35
454.972	1.47
455.175	1.55
455.379	1.48
455.582	1.46
455.785	1.47
455.988	1.43
456.192	1.46
456.395	1.38
456.598	1.31
456.801	1.3
457.005	1.33
457.208	1.21
457.411	1.18
457.614	1.2
457.817	1.21
458.021	1.2
458.224	1.21
458.427	1.13
458.63	1.13
458.833	1.22
459.036	1.24
459.239	1.2
459.442	1.23
459.645	1.23
459.848	1.23
460.051	1.21
460.254	1.26
460.457	1.31
460.66	1.3
460.863	1.3
461.066	1.27
461.269	1.25
461.472	1.33
461.675	1.33
461.878	1.25
462.081	1.32
462.284	1.28
462.486	1.34
462.689	1.38
462.892	1.5
463.095	1.6
463.298	1.67
463.5	1.68
463.703	1.71
463.906	1.64
464.109	1.71
464.311	1.68
464.514	1.75
464.717	1.68
464.92	1.64
465.122	1.56
465.325	1.5
465.528	1.5
465.73	1.49
465.933	1.38
466.135	1.44
466.338	1.53
466.541	1.53
466.743	1.63
466.946	1.61
467.148	1.51
467.351	1.54
467.553	1.52
467.756	1.46
467.958	1.42
468.161	1.41
468.363	1.45
468.566	1.3
468.768	1.25
468.971	1.12
469.173	1.17
469.375	1.29
469.578	1.28
469.78	1.38
469.983	1.44
470.185	1.45
470.387	1.45
470.59	1.46
470.792	1.57
470.994	1.63
471.196	1.62
471.399	1.57
471.601	1.54
471.803	1.5
472.005	1.42
472.208	1.41
472.41	1.5
472.612	1.49
472.814	1.43
473.016	1.39
473.218	1.37
473.421	1.38
473.623	1.4
473.825	1.39
474.027	1.45
474.229	1.48
474.431	1.56
474.633	1.46
474.835	1.47
475.037	1.51
475.239	1.46
475.441	1.35
475.643	1.39
475.845	1.32
476.047	1.29
476.249	1.26
476.451	1.27
476.653	1.2
476.855	1.24
477.057	1.32
477.258	1.31
477.46	1.32
477.662	1.42
477.864	1.41
478.066	1.38
478.268	1.41
478.469	1.39
478.671	1.32
478.873	1.34
479.075	1.42
479.276	1.36
479.478	1.27
479.68	1.28
479.882	1.22
480.083	1.19
480.285	1.29
480.487	1.29
480.688	1.32
480.89	1.36
481.091	1.39
481.293	1.33
481.495	1.33
481.696	1.38
481.898	1.34
482.099	1.35
482.301	1.34
482.502	1.3
482.704	1.28
482.905	1.25
483.107	1.24
483.308	1.21
483.51	1.2
483.711	1.19
483.913	1.18
484.114	1.18
484.315	1.15
484.517	1.14
484.718	1.14
484.92	1.14
485.121	1.19
485.322	1.17
485.524	1.18
485.725	1.17
485.926	1.17
486.127	1.19
486.329	1.19
486.53	1.24
486.731	1.27
486.932	1.23
487.134	1.24
487.335	1.18
487.536	1.19
487.737	1.17
487.938	1.2
488.139	1.17
488.341	1.16
488.542	1.14
488.743	1.1
488.944	1.07
489.145	1.13
489.346	1.16
489.547	1.17
489.748	1.15
489.949	1.16
490.15	1.17
490.351	1.15
490.552	1.17
490.753	1.2
490.954	1.21
491.155	1.22
491.356	1.19
491.557	1.18
491.758	1.19
491.959	1.2
492.159	1.22
492.36	1.2
492.561	1.26
492.762	1.29
492.963	1.3
493.164	1.34
493.364	1.39
493.565	1.44
493.766	1.46
493.967	1.46
494.167	1.54
494.368	1.56
494.569	1.61
494.769	1.65
494.97	1.62
495.171	1.66
495.371	1.6
495.572	1.55
495.773	1.53
495.973	1.48
496.174	1.49
496.375	1.48
496.575	1.45
496.776	1.42
496.976	1.4
497.177	1.37
497.377	1.33
497.578	1.35
497.778	1.38
497.979	1.39
498.179	1.4
498.38	1.43
498.58	1.42
498.78	1.45
498.981	1.43
499.181	1.44
499.382	1.51
499.582	1.55
499.782	1.6
499.983	1.61
500.183	1.65
500.383	1.73
500.584	1.77
500.784	1.81
500.984	1.82
501.184	1.9
501.385	1.94
501.585	1.88
501.785	1.98
501.985	2.03
502.185	2.01
502.386	2.01
502.586	2.02
502.786	1.98
502.986	2.01
503.186	1.97
503.386	1.97
503.586	1.92
503.786	2.02
503.987	2
504.187	2
504.387	2.05
504.587	2.06
504.787	2
504.987	2.1
505.187	2.01
505.387	2.04
505.587	2.07
505.786	2.1
505.986	2.13
506.186	2.18
506.386	2.17
506.586	2.21
506.786	2.24
506.986	2.28
507.186	2.23
507.386	2.39
507.585	2.42
507.785	2.45
507.985	2.54
508.185	2.58
508.384	2.57
508.584	2.62
508.784	2.68
508.984	2.7
509.183	2.75
509.383	2.83
509.583	2.81
509.782	2.91
509.982	2.97
510.182	2.95
510.381	2.95
510.581	3.01
510.781	3.14
510.98	3.13
511.18	3.21
511.379	3.23
511.579	3.25
511.778	3.3
511.978	3.24
512.177	3.23
512.377	3.36
512.576	3.42
512.776	3.47
512.975	3.47
513.175	3.55
513.374	3.6
513.573	3.7
513.773	3.77
513.972	3.84
514.172	3.94
514.371	4
514.57	4.03
514.77	4.07
514.969	4.11
515.168	4.16
515.367	4.24
515.567	4.19
515.766	4.24
515.965	4.38
516.164	4.44
516.364	4.48
516.563	4.56
516.762	4.55
516.961	4.58
517.16	4.61
517.359	4.61
517.559	4.61
517.758	4.73
517.957	4.71
518.156	4.67
518.355	4.7
518.554	4.77
518.753	4.79
518.952	4.85
519.151	4.89
519.35	4.96
519.549	5.04
519.748	5.1
519.947	5.09
520.146	5.18
520.345	5.23
520.544	5.27
520.743	5.3
520.942	5.36
521.141	5.5
521.339	5.63
521.538	5.71
521.737	5.73
521.936	5.82
522.135	5.96
522.333	6.14
522.532	6.26
522.731	6.32
522.93	6.44
523.129	6.53
523.327	6.49
523.526	6.53
523.725	6.57
523.923	6.66
524.122	6.73
524.321	6.82
524.519	6.82
524.718	6.83
524.917	6.94
525.115	6.93
525.314	6.99
525.512	7.09
525.711	7.13
525.909	7.21
526.108	7.2
526.306	7.17
526.505	7.18
526.703	7.23
526.902	7.33
527.1	7.31
527.299	7.41
527.497	7.44
527.696	7.51
527.894	7.52
528.092	7.54
528.291	7.6
528.489	7.67
528.688	7.71
528.886	7.74
529.084	7.73
529.283	7.82
529.481	7.82
529.679	7.86
529.877	7.87
530.076	7.91
530.274	7.93
530.472	8
530.67	8.07
530.869	8.17
531.067	8.26
531.265	8.38
531.463	8.45
531.661	8.53
531.859	8.65
532.057	8.67
532.255	8.78
532.454	8.89
532.652	8.93
532.85	9
533.048	9
533.246	9.05
533.444	9.07
533.642	9.05
533.84	9.13
534.038	9.11
534.236	9.2
534.434	9.28
534.632	9.3
534.83	9.36
535.027	9.38
535.225	9.46
535.423	9.48
535.621	9.58
535.819	9.7
536.017	9.8
536.215	9.96
536.412	10.03
536.61	10.06
536.808	10.13
537.006	10.2
537.203	10.21
537.401	10.3
537.599	10.38
537.797	10.45
537.994	10.52
538.192	10.49
538.39	10.47
538.587	10.48
538.785	10.6
538.983	10.72
539.18	10.76
539.378	10.91
539.575	10.98
539.773	11.09
539.97	11.18
540.168	11.19
540.366	11.26
540.563	11.35
540.761	11.4
540.958	11.4
541.155	11.36
541.353	11.37
541.55	11.38
541.748	11.37
541.945	11.34
542.143	11.35
542.34	11.39
542.537	11.44
542.735	11.45
542.932	11.48
543.129	11.53
543.327	11.62
543.524	11.71
543.721	11.83
543.919	11.97
544.116	12.08
544.313	12.18
544.51	12.31
544.708	12.35
544.905	12.44
545.102	12.57
545.299	12.66
545.496	12.72
545.693	12.8
545.891	12.84
546.088	12.86
546.285	12.93
546.482	12.99
546.679	13.03
546.876	13.1
547.073	13.15
547.27	13.15
547.467	13.17
547.664	13.18
547.861	13.27
548.058	13.28
548.255	13.38
548.452	13.41
548.649	13.39
548.846	13.42
549.043	13.49
549.24	13.47
549.437	13.57
549.633	13.7
549.83	13.98
550.027	13.94
550.224	13.79
550.421	13.82
550.618	13.87
550.814	13.84
551.011	13.97
551.208	13.92
551.405	14.07
551.601	14.02
551.798	13.97
551.995	13.85
552.191	13.83
552.388	14.1
552.585	14.06
552.781	14.13
552.978	14.24
553.175	14.17
553.371	14.26
553.568	14.31
553.764	14.37
553.961	14.42
554.157	14.35
554.354	14.44
554.55	14.46
554.747	14.55
554.943	14.57
555.14	14.71
555.336	14.71
555.533	14.77
555.729	14.71
555.926	14.79
556.122	14.79
556.318	14.87
556.515	15.03
556.711	15.04
556.907	15.05
557.104	14.9
557.3	14.92
557.496	15.06
557.693	15.19
557.889	15.29
558.085	15.34
558.281	15.56
558.478	15.74
558.674	15.66
558.87	15.7
559.066	15.76
559.262	15.92
559.459	15.82
559.655	15.77
559.851	15.67
560.047	15.61
560.243	15.55
560.439	15.49
560.635	15.44
560.831	15.62
561.027	15.61
561.223	15.66
561.419	15.71
561.615	15.74
561.811	15.86
562.007	15.98
562.203	16.02
562.399	16.14
562.595	16.17
562.791	16.2
562.987	16.17
563.183	16.29
563.379	16.24
563.575	16.19
563.771	16.2
563.966	16.25
564.162	16.21
564.358	16.38
564.554	16.44
564.75	16.43
564.945	16.58
565.141	16.58
565.337	16.58
565.533	16.7
565.728	16.83
565.924	16.97
566.12	16.94
566.315	17.02
566.511	16.95
566.707	16.95
566.902	17.12
567.098	17.05
567.293	17.16
567.489	17.29
567.684	17.29
567.88	17.34
568.076	17.33
568.271	17.42
568.467	17.37
568.662	17.57
568.858	17.59
569.053	17.5
569.248	17.6
569.444	17.53
569.639	17.49
569.835	17.55
570.03	17.57
570.225	17.63
570.421	17.62
570.616	17.69
570.812	17.67
571.007	17.69
571.202	17.93
571.397	18.05
571.593	18.06
571.788	18.1
571.983	18.09
572.178	18.17
572.374	18.19
572.569	18.27
572.764	18.32
572.959	18.42
573.154	18.49
573.35	18.37
573.545	18.26
573.74	18.33
573.935	18.31
574.13	18.32
574.325	18.26
574.52	18.29
574.715	18.33
574.91	18.36
575.105	18.31
575.3	18.43
575.495	18.42
575.69	18.52
575.885	18.58
576.08	18.62
576.275	18.74
576.47	18.85
576.665	18.86
576.86	18.85
577.055	18.86
577.25	18.99
577.444	18.91
577.639	19.09
577.834	19.23
578.029	19.38
578.224	19.51
578.418	19.58
578.613	19.67
578.808	19.75
579.003	19.76
579.197	19.98
579.392	19.95
579.587	20.13
579.781	20.02
579.976	19.96
580.171	19.8
580.365	19.7
580.56	19.74
580.755	19.74
580.949	19.76
581.144	19.8
581.338	19.72
581.533	19.78
581.727	19.62
581.922	19.65
582.116	19.74
582.311	19.93
582.505	20
582.7	19.82
582.894	19.78
583.089	19.95
583.283	20.08
583.478	20.19
583.672	20.15
583.866	20.28
584.061	20.44
584.255	20.38
584.449	20.32
584.644	20.44
584.838	20.66
585.032	20.65
585.226	20.62
585.421	20.72
585.615	20.66
585.809	20.81
586.003	21.01
586.198	20.88
586.392	20.93
586.586	20.96
586.78	21
586.974	21.08
587.168	21.24
587.363	21.15
587.557	21.03
587.751	21.01
587.945	20.9
588.139	20.79
588.333	20.87
588.527	20.89
588.721	20.88
588.915	20.84
589.109	20.81
589.303	20.75
589.497	20.71
589.691	20.66
589.885	20.74
590.079	20.87
590.273	20.84
590.466	20.78
590.66	20.71
590.854	20.74
591.048	20.77
591.242	20.74
591.436	20.84
591.629	20.89
591.823	21
592.017	20.97
592.211	20.96
592.404	21.05
592.598	21.13
592.792	21.25
592.986	21.24
593.179	21.29
593.373	21.32
593.567	21.26
593.76	21.3
593.954	21.28
594.147	21.37
594.341	21.33
594.535	21.18
594.728	21.24
594.922	21.21
595.115	21.2
595.309	21.17
595.502	21.23
595.696	21.19
595.889	21.32
596.083	21.27
596.276	21.3
596.47	21.25
596.663	21.29
596.856	21.26
597.05	21.31
597.243	21.33
597.437	21.4
597.63	21.42
597.823	21.57
598.017	21.58
598.21	21.74
598.403	21.73
598.596	21.77
598.79	21.97
598.983	22.09
599.176	22.07
599.369	22.09
599.563	22.15
599.756	22.26
599.949	22.34
600.142	22.26
600.335	22.22
600.528	22.17
600.722	22.23
600.915	22.15
601.108	22.07
601.301	22.01
601.494	21.89
601.687	21.82
601.88	21.57
602.073	21.41
602.266	21.39
602.459	21.36
602.652	21.39
602.845	21.41
603.038	21.34
603.231	21.31
603.424	21.46
603.617	21.59
603.809	21.54
604.002	21.61
604.195	21.59
604.388	21.59
604.581	21.53
604.774	21.61
604.966	21.6
605.159	21.68
605.352	21.71
605.545	21.72
605.737	21.8
605.93	21.91
606.123	21.93
606.316	22
606.508	22.07
606.701	22.38
606.894	22.28
607.086	22.44
607.279	22.43
607.471	22.58
607.664	22.64
607.857	22.76
608.049	22.84
608.242	22.93
608.434	23.19
608.627	23.51
608.819	23.75
609.012	24.19
609.204	24.51
609.397	25.01
609.589	25.52
609.782	25.94
609.974	26.39
610.166	26.89
610.359	27.55
610.551	28.12
610.743	28.51
610.936	28.89
611.128	29.16
611.32	29.38
611.513	29.41
611.705	29.47
611.897	29.44
612.09	29.35
612.282	29.14
612.474	29.07
612.666	28.68
612.858	28.56
613.051	28.39
613.243	28.05
613.435	27.8
613.627	27.64
613.819	27.27
614.011	27.18
614.203	27.03
614.395	26.86
614.588	26.54
614.78	26.43
614.972	26.09
615.164	25.63
615.356	25.46
615.548	25.3
615.74	25
615.932	24.92
616.124	24.6
616.315	24.26
616.507	24.12
616.699	23.94
616.891	23.83
617.083	23.65
617.275	23.81
617.467	23.85
617.659	23.85
617.85	23.96
618.042	23.76
618.234	23.59
618.426	23.51
618.618	23.34
618.809	23.24
619.001	23.18
619.193	23.23
619.384	23.04
619.576	22.94
619.768	22.96
619.959	22.84
620.151	22.89
620.343	23.09
620.534	22.99
620.726	23.25
620.917	23.19
621.109	23.12
621.301	23.1
621.492	23.14
621.684	23.05
621.875	22.96
622.067	23.15
622.258	23.31
622.45	23.43
622.641	23.7
622.832	23.61
623.024	23.98
623.215	23.87
623.407	23.99
623.598	24.06
623.789	24.18
623.981	24.42
624.172	24.36
624.363	24.3
624.555	24.24
624.746	24.27
624.937	24.32
625.129	24.07
625.32	24.12
625.511	23.94
625.702	23.96
625.893	23.9
626.085	23.83
626.276	23.69
626.467	23.52
626.658	23.49
626.849	23.48
627.04	23.5
627.231	23.61
627.422	23.81
627.614	23.96
627.805	24.11
627.996	24.32
628.187	24.37
628.378	24.61
628.569	24.77
628.76	24.82
628.951	24.92
629.142	25.02
629.332	25.03
629.523	24.95
629.714	24.96
629.905	24.85
630.096	24.9
630.287	24.76
630.478	24.76
630.669	24.73
630.859	24.8
631.05	24.6
631.241	24.54
631.432	24.58
631.623	24.46
631.813	24.42
632.004	24.34
632.195	24.21
632.385	24.16
632.576	24.01
632.767	24.03
632.957	23.98
633.148	24.21
633.339	24.24
633.529	23.96
633.72	23.93
633.91	23.81
634.101	23.62
634.292	23.49
634.482	23.39
634.673	23.47
634.863	23.35
635.054	23.4
635.244	23.24
635.435	23.17
635.625	23.21
635.815	23.32
636.006	23.51
636.196	23.71
636.387	23.78
636.577	23.94
636.767	23.94
636.958	24.03
637.148	24.03
637.338	24
637.529	23.92
637.719	23.96
637.909	24.13
638.099	24.04
638.29	23.94
638.48	23.9
638.67	23.9
638.86	23.92
639.05	24.15
639.241	24
639.431	24.09
639.621	24.06
639.811	24.14
640.001	24.15
640.191	24.18
640.381	24.3
640.571	24.57
640.761	24.6
640.951	24.49
641.141	24.31
641.331	24.48
641.521	24.43
641.711	24.52
641.901	24.61
642.091	24.6
642.281	24.63
642.471	24.77
642.661	24.4
642.851	24.46
643.041	24.47
643.231	24.48
643.42	24.45
643.61	24.5
643.8	24.45
643.99	24.34
644.18	24.2
644.369	24.18
644.559	24.02
644.749	24.24
644.939	24.06
645.128	23.99
645.318	23.77
645.508	23.74
645.697	23.75
645.887	23.94
646.076	24.08
646.266	24.1
646.456	24
646.645	23.81
646.835	23.8
647.024	24.04
647.214	24.24
647.403	24.53
647.593	24.34
647.782	24.27
647.972	24.23
648.161	24.28
648.351	24.19
648.54	24.2
648.73	24.46
648.919	24.6
649.108	24.4
649.298	24.45
649.487	24.5
649.677	24.71
649.866	24.99
650.055	25.19
650.244	25.02
650.434	25.17
650.623	25.18
650.812	25.13
651.002	25.15
651.191	25.19
651.38	25.17
651.569	24.92
651.758	25.13
651.947	24.93
652.137	24.84
652.326	24.98
652.515	24.93
652.704	24.91
652.893	24.93
653.082	24.82
653.271	25.01
653.46	24.98
653.649	25.28
653.838	25.18
654.027	25.28
654.216	25.42
654.405	25.42
654.594	25.25
654.783	25.36
654.972	25.39
655.161	25.33
655.35	25.39
655.539	25.44
655.728	25.16
655.916	25.03
656.105	24.98
656.294	24.83
656.483	24.78
656.672	24.86
656.86	24.76
657.049	24.69
657.238	24.95
657.427	24.78
657.615	24.54
657.804	24.81
657.993	24.8
658.181	24.86
658.37	24.81
658.559	24.9
658.747	24.9
658.936	24.98
659.125	24.86
659.313	24.61
659.502	24.72
659.69	24.85
659.879	24.71
660.067	24.65
660.256	24.69
660.444	24.67
660.633	24.64
660.821	24.89
661.01	24.74
661.198	25.02
661.387	25.09
661.575	25
661.763	25.04
661.952	25.1
662.14	25.06
662.328	24.94
662.517	25.05
662.705	24.95
662.893	24.92
663.082	25.01
663.27	24.86
663.458	24.92
663.646	24.86
663.834	24.66
664.023	24.55
664.211	24.95
664.399	24.94
664.587	24.76
664.775	24.87
664.963	24.84
665.152	24.86
665.34	24.91
665.528	24.84
665.716	24.92
665.904	24.99
666.092	24.99
666.28	24.83
666.468	24.9
666.656	24.98
666.844	24.97
667.032	24.83
667.22	24.86
667.408	24.88
667.596	25.05
667.784	25.17
667.971	25.35
668.159	25.56
668.347	25.79
668.535	25.69
668.723	25.86
668.911	25.78
669.098	26.04
669.286	25.99
669.474	25.91
669.662	25.84
669.849	25.76
670.037	25.87
670.225	25.85
670.413	25.56
670.6	25.56
670.788	25.39
670.976	25.35
671.163	25.09
671.351	25.14
671.538	25.32
671.726	25.35
671.913	25.29
672.101	25.17
672.289	25.12
672.476	25.38
672.664	25.4
672.851	25.48
673.039	25.6
673.226	25.68
673.413	25.72
673.601	25.79
673.788	25.8
673.976	25.76
674.163	25.67
674.35	25.64
674.538	25.47
674.725	25.33
674.912	25.34
675.1	25.57
675.287	25.56
675.474	25.5
675.662	25.63
675.849	25.59
676.036	25.78
676.223	26.04
676.411	26.09
676.598	26.13
676.785	26.27
676.972	26.15
677.159	26.15
677.346	26.14
677.533	26.22
677.721	26.13
677.908	26.18
678.095	26.36
678.282	26.15
678.469	26.2
678.656	26.19
678.843	26.62
679.03	26.78
679.217	26.77
679.404	26.83
679.591	26.78
679.778	26.71
679.964	26.66
680.151	26.49
680.338	26.58
680.525	26.5
680.712	26.3
680.899	26.02
681.086	25.68
681.272	25.66
681.459	25.6
681.646	25.49
681.833	25.45
682.02	25.58
682.206	25.39
682.393	25.41
682.58	25.52
682.766	25.79
682.953	25.59
683.14	25.89
683.326	25.87
683.513	25.83
683.7	26.19
683.886	26.38
684.073	26.1
684.259	26.25
684.446	26.19
684.632	26.1
684.819	26.27
685.005	26.43
685.192	26.58
685.378	26.68
685.565	26.84
685.751	26.86
685.938	26.53
686.124	26.8
686.31	26.98
686.497	27.18
686.683	27.32
686.87	26.89
687.056	27.13
687.242	27.14
687.429	26.94
687.615	27.11
687.801	26.92
687.987	26.84
688.174	26.96
688.36	26.89
688.546	26.75
688.732	26.57
688.918	26.77
689.105	26.74
689.291	26.34
689.477	26.36
689.663	25.79
689.849	26.04
690.035	26.22
690.221	25.94
690.407	26.02
690.593	26.09
690.779	25.97
690.965	25.99
691.151	25.74
691.337	25.99
691.523	26.04
691.709	26.35
691.895	26.47
692.081	26.66
692.267	26.64
692.453	26.46
692.639	26.36
692.825	26.53
693.011	26.54
693.196	26.78
693.382	26.98
693.568	26.91
693.754	27.02
693.94	26.69
694.125	26.4
694.311	26.38
694.497	26.54
694.682	26.69
694.868	27.14
695.054	27.06
695.239	26.9
695.425	26.49
695.611	26.32
695.796	26.41
695.982	26.59
696.168	26.82
696.353	26.94
696.539	26.72
696.724	26.7
696.91	26.58
697.095	26.67
697.281	26.34
697.466	26.55
697.652	26.99
697.837	26.93
698.023	26.7
698.208	26.63
698.393	26.62
698.579	26.55
698.764	26.48
698.949	26.25
699.135	26.11
699.32	26.42
699.505	26.52
699.691	26.53
699.876	26.67
700.061	26.98
700.246	26.97
700.432	26.92
700.617	27.31
700.802	27.37
700.987	27.49
701.172	27.69
701.358	27.77
701.543	27.82
701.728	27.68
701.913	27.58
702.098	27.09
702.283	27.12
702.468	27.37
702.653	27.39
702.838	27.18
703.023	27.53
703.208	27.83
703.393	27.74
703.578	27.84
703.763	27.75
703.948	27.95
704.133	28.37
704.318	28.73
704.503	28.72
704.688	28.79
704.873	29.08
705.057	28.99
705.242	28.77
705.427	28.94
705.612	28.95
705.797	29.22
705.981	29.25
706.166	29.28
706.351	29.21
706.536	29.46
706.72	29.45
706.905	29.84
707.09	29.67
707.274	30
707.459	30.26
707.644	30.23
707.828	29.99
708.013	29.93
708.197	30.1
708.382	30.17
708.567	30.04
708.751	29.92
708.936	29.76
709.12	29.89
709.305	29.62
709.489	29.2
709.673	29.17
709.858	29.46
710.042	29.17
710.227	29.23
710.411	29.1
710.596	29.18
710.78	29.52
710.964	29.47
711.149	29.52
711.333	29.6
711.517	29.72
711.702	29.72
711.886	29.42
712.07	29.47
712.254	29.1
712.438	29.13
712.623	29.35
712.807	28.96
712.991	28.77
713.175	28.72
713.359	28.64
713.544	28.68
713.728	28.38
713.912	28.25
714.096	28.19
714.28	28.43
714.464	28.16
714.648	27.94
714.832	27.73
715.016	27.42
715.2	27.34
715.384	26.92
715.568	27.05
715.752	26.9
715.936	27.05
716.12	27.02
716.304	26.76
716.488	27.12
716.671	26.65
716.855	26.72
717.039	26.79
717.223	26.58
717.407	27.07
717.59	26.63
717.774	27.12
717.958	26.89
718.142	27.01
718.325	26.99
718.509	26.62
718.693	26.84
718.877	26.86
719.06	26.95
719.244	27.06
719.428	27.03
719.611	27.08
719.795	27.19
719.978	27.16
720.162	26.69
720.345	26.96
720.529	26.69
720.713	26.65
720.896	26.73
721.08	27.03
721.263	26.84
721.446	26.87
721.63	27.39
721.813	27.03
721.997	27.38
722.18	27.43
722.364	27.42
722.547	27.74
722.73	28.01
722.914	28.09
723.097	28.22
723.28	28.18
723.464	28.19
723.647	27.85
723.83	28.01
724.013	28.15
724.197	28.76
724.38	28.5
724.563	28.85
724.746	28.95
724.929	28.58
725.112	28.59
725.296	28.8
725.479	28.74
725.662	28.61
725.845	28.85
726.028	28.43
726.211	28.16
726.394	28.3
726.577	28.22
726.76	28.25
726.943	28.22
727.126	28.25
727.309	28.43
727.492	28.72
727.675	28.71
727.858	28.41
728.041	28.71
728.224	28.5
728.407	28.59
728.589	28.13
728.772	28.07
728.955	28.08
729.138	27.78
729.321	27.51
729.503	27.25
729.686	27.12
729.869	27.16
730.052	27.03
730.234	27.48
730.417	27.64
730.6	27.92
730.782	27.94
730.965	28.07
731.148	28.16
731.33	28.57
731.513	28.32
731.695	28.38
731.878	28.5
732.061	28.88
732.243	28.46
732.426	28.46
732.608	28.4
732.791	28.25
732.973	28.41
733.156	28.35
733.338	27.85
733.52	28.19
733.703	28.26
733.885	28.04
734.068	27.59
734.25	27.8
734.432	27.4
734.615	27.33
734.797	27.73
734.979	27.73
735.162	28.03
735.344	28.57
735.526	28.13
735.708	28.09
735.891	28.11
736.073	28.56
736.255	28.82
736.437	29.19
736.619	29.74
736.802	29.07
736.984	29.18
737.166	28.87
737.348	28.93
737.53	29.81
737.712	29.69
737.894	29.68
738.076	29.36
738.258	29.23
738.44	28.99
738.622	29.03
738.804	29.48
738.986	29.05
739.168	28.78
739.35	28.76
739.532	29.18
739.714	29.2
739.896	29.65
740.078	29.64
740.259	30.23
740.441	30.1
740.623	29.88
740.805	30.31
740.987	30.91
741.168	31.65
741.35	31.56
741.532	30.54
741.714	30.76
741.895	30.33
742.077	30.24
742.259	29.48
742.44	29.91
742.622	30.22
742.804	29.53
742.985	29.34
743.167	29.2
743.348	29.18
743.53	29.82
743.711	29.71
743.893	30.06
744.075	29.96
744.256	30.67
744.438	30.87
744.619	30.42
744.8	30.52
744.982	31.25
745.163	30.98
745.345	31.06
745.526	30.46
745.707	31.07
745.889	31.3
746.07	31.65
746.252	31.31
746.433	31.19
746.614	31.3
746.795	31.04
746.977	29.97
747.158	30.08
747.339	30.33
747.52	30.55
747.702	30.03
747.883	30.35
748.064	30.11
748.245	29.87
748.426	29.47
748.607	29.42
748.788	30.15
748.97	30.82
749.151	31.11
749.332	30.61
749.513	30.89
749.694	30.86
749.875	30.41
750.056	30.87
750.237	31.08
750.418	31.31
750.599	31.29
750.78	31.52
750.96	30.71
751.141	30.26
751.322	30.36
751.503	29.96
751.684	29.95
751.865	29.51
752.046	29.21
752.226	29.15
752.407	29.6
752.588	29.52
752.769	28.87
752.949	29.12
753.13	29.77
753.311	29.9
753.492	29.7
753.672	29.9
753.853	29.75
754.034	29.51
754.214	30.05
754.395	29.89
754.575	30.05
754.756	30.59
754.937	31.06
755.117	30.83
755.298	30.72
755.478	30.93
755.659	31.66
755.839	31.78
756.02	32.19
756.2	31.87
756.381	31.58
756.561	31.44
756.741	30.48
756.922	29.71
757.102	29.4
757.283	29.54
757.463	29.54
757.643	28.96
757.823	29.48
758.004	28.62
758.184	28.24
758.364	28.73
758.545	29.22
758.725	29.58
758.905	30.08
759.085	29.9
759.265	29.76
759.446	29.31
759.626	29.28
759.806	28.43
759.986	29.34
760.166	28.88
760.346	28.24
760.526	27.72
760.706	27.61
760.886	27.32
761.066	27.34
761.246	27
761.426	27.2
761.606	27.08
761.786	27.46
761.966	26.41
762.146	26.79
762.326	26.75
762.506	26.88
762.686	26.72
762.866	27.12
763.046	27.35
763.225	27.41
763.405	27.41
763.585	28.05
763.765	28.06
763.945	28.36
764.124	28.38
764.304	28.25
764.484	27.91
764.664	27.93
764.843	27.82
765.023	27.57
765.203	27.93
765.382	28.21
765.562	27.45
765.741	27.37
765.921	27.69
766.101	27.7
766.28	28.09
766.46	28.75
766.639	29.12
766.819	29.2
766.998	29.53
767.178	29.48
767.357	29.13
767.537	29.35
767.716	29.91
767.896	30.39
768.075	30.72
768.254	30.69
768.434	30.22
768.613	30.42
768.792	29.89
768.972	29.77
769.151	30.18
769.33	30.89
769.51	30.9
769.689	30.64
769.868	30.28
770.047	30.62
770.226	31.23
770.406	31.58
770.585	31.54
770.764	31.87
770.943	31.57
771.122	31.31
771.301	30.76
771.48	30.82
771.66	31.49
771.839	30.99
772.018	30.96
772.197	30.69
772.376	30.41
772.555	30.97
772.734	31.24
772.913	31.72
773.092	31.79
773.271	31.9
773.449	32.29
773.628	31.57
773.807	32.98
773.986	32.92
774.165	33.33
774.344	33.18
774.523	32.32
774.701	32.44
774.88	32.47
775.059	32.07
775.238	32.77
775.417	32.54
775.595	32.81
775.774	31.1
775.953	30.89
776.131	30.15
776.31	30.75
776.489	31.3
776.667	30.58
776.846	30.1
777.025	29.87
777.203	29.85
777.382	29.85
777.56	29.82
777.739	30.94
777.917	30.28
778.096	30.45
778.274	30.18
778.453	30.27
778.631	31.03
778.81	31.66
778.988	31.49
779.166	30.13
779.345	30.18
779.523	29.8
779.702	29.78
779.88	30.01
780.058	29.58
780.237	29.49
780.415	29.19
780.593	28.95
780.771	28.89
780.95	29.29
781.128	30.54
781.306	30.4
781.484	30.91
781.662	30.89
781.841	31.96
782.019	32.55
782.197	33.11
782.375	32.45
782.553	32.59
782.731	32.41
782.909	32.8
783.087	32.49
783.265	31.83
783.443	31.29
783.621	31.21
783.799	30.35
783.977	29.35
784.155	28.69
784.333	28.77
784.511	28.18
784.689	28.18
784.867	28.78
785.045	28.9
785.223	29.56
785.4	30.81
785.578	30.92
785.756	31
785.934	31.99
786.112	31.87
786.289	31.57
786.467	31.29
786.645	31.57
786.823	30.34
787	30.21
787.178	30.64
787.356	29.55
787.533	29.09
787.711	29.71
787.889	28.93
788.066	29.22
788.244	29.93
788.421	31.15
788.599	30.58
788.776	30.81
788.954	30.44
789.131	30.34
789.309	30.5
789.486	30.17
789.664	29.64
789.841	30.47
790.019	30.56
790.196	30.75
790.373	31.16
790.551	32.09
790.728	32.74
790.906	32.7
791.083	33.24
791.26	33.68
791.437	34.49
791.615	35.26
791.792	34.77
791.969	35.08
792.146	34.09
792.324	33.06
792.501	32.76
792.678	32.25
792.855	33.02
793.032	31.69
793.209	31.5
793.387	30.82
793.564	29.75
793.741	29.11
793.918	29.51
794.095	30.35
794.272	30.77
794.449	30.96
794.626	30.26
794.803	29.79
794.98	30.18
795.157	29.85
795.334	29.52
795.511	27.94
795.688	29.01
795.864	27.61
796.041	27.63
796.218	27.68
796.395	27.17
796.572	28.49
796.749	29.11
796.925	29.68
797.102	30.4
797.279	31.48
797.456	33.32
797.632	33.49
797.809	35
797.986	35.05
798.162	34.64
798.339	34.71
798.516	33.91
798.692	33.53
798.869	32.95
799.046	33.22
799.222	33.51
799.399	32.78
799.575	32.78
799.752	32.91
799.928	32.31
800.105	32.53
800.281	32.96
800.458	32.55
800.634	32.92
800.811	32.67
800.987	32.05
801.163	31.08
801.34	31.12
801.516	30.09
801.692	29.58
801.869	30.39
802.045	30.19
802.221	29.84
802.398	29.94
802.574	30.23
802.75	30.62
802.926	29.96
803.103	30.11
803.279	30.01
803.455	30.43
803.631	29.64
803.807	28.64
803.983	29.75
804.16	30.35
804.336	31.23
804.512	30.62
804.688	29.87
804.864	29.16
805.04	27.94
805.216	28.43
805.392	28.97
805.568	29.66
805.744	30.93
805.92	29.47
806.096	28.35
806.272	28.59
806.448	27.46
806.623	28.98
806.799	30.58
806.975	31.93
807.151	32.31
807.327	32.29
807.503	31.5
807.678	31.91
807.854	32.63
808.03	31.96
808.206	32.1
808.381	33.53
808.557	32.43
808.733	32.6
808.908	32.75
809.084	32.07
809.26	30.57
809.435	31.11
809.611	30.1
809.787	30.14
809.962	30.63
810.138	28.99
810.313	27.78
810.489	27.8
810.664	27.09
810.84	26.13
811.015	27.05
811.191	28.9
811.366	29.54
811.542	28.78
811.717	28.38
811.892	28.72
812.068	29.82
812.243	30.81
812.419	30.29
812.594	30.82
812.769	31.51
812.944	32.21
813.12	30.88
813.295	29.09
813.47	29.6
813.645	29.45
813.821	30.06
813.996	31.04
814.171	32.03
814.346	33.17
814.521	32.01
814.697	30.45
814.872	29.28
815.047	30.1
815.222	30.84
815.397	31.52
815.572	30.73
815.747	29.05
815.922	27.38
816.097	25.43
816.272	25.91
816.447	24.98
816.622	25.4
816.797	24.73
816.972	24.47
817.147	23.15
817.322	22.63
817.496	23.28
817.671	24.11
817.846	24.88
818.021	25.49
818.196	24.36
818.371	25.25
818.545	26.34
818.72	27.55
818.895	28.45
819.069	30.33
819.244	29.71
819.419	29.93
819.594	30.94
819.768	31.44
819.943	30.91
820.117	30.87
820.292	30.94
820.467	30.63
820.641	30.17
820.816	29.22
820.99	28.51
821.165	28.35
821.339	27.61
821.514	26.88
821.688	26.37
821.863	26.26
822.037	26.28
822.212	26.09
822.386	26
822.56	25.79
822.735	25.74
822.909	25.5
823.084	25.63
823.258	25.67
823.432	25.7
823.606	25.94
823.781	25.87
823.955	25.98
824.129	26.01
824.303	25.59
824.478	25.68
824.652	25.97
824.826	26.23
825	25.95
825.174	26.38
825.348	26.5
825.523	26.21
825.697	26.81
825.871	26.67
826.045	27.01
826.219	27.52
826.393	27.55
826.567	26.99
826.741	27.02
826.915	26.96
827.089	26.43
827.263	26.66
827.437	26.83
827.611	26.66
827.784	26.46
827.958	25.8
828.132	26.21
828.306	26.05
828.48	26.17
828.654	26.04
828.827	26.27
829.001	26.71
829.175	26.54
829.349	26.59
829.522	26.32
829.696	26.42
829.87	27.36
830.044	27.11
830.217	26.97
830.391	27.62
830.565	27.98
830.738	28.27
830.912	27.89
831.085	28.27
831.259	27.48
831.432	27.64
831.606	27.83
831.779	28.45
831.953	28.43
832.126	27.96
832.3	28.75
832.473	29.07
832.647	28.67
832.82	29.26
832.994	29.04
833.167	28.83
833.34	28.05
833.514	28.4
833.687	27.59
833.86	26.85
834.034	27.57
834.207	27.08
834.38	27.05
834.553	27.62
834.727	27.33
834.9	26.96
835.073	27.33
835.246	27.93
835.419	27.26
835.593	27.38
835.766	27.84
835.939	28.27
836.112	28.4
836.285	28.45
836.458	27.23
836.631	27.25
836.804	27.57
836.977	27.31
837.15	28.58
837.323	28.63
837.496	28.82
837.669	28.74
837.842	27.53
838.015	27.42
838.188	27.71
838.361	27.64
838.533	28.06
838.706	27.32
838.879	27.56
839.052	26.46
839.225	27.45
839.398	27.53
839.57	28.95
839.743	29.17
839.916	28.53
840.088	29.46
840.261	30.35
840.434	29.18
840.607	30.38
840.779	30.6
840.952	31.3
841.124	32.21
841.297	32.9
841.47	31.95
841.642	32.1
841.815	32.7
841.987	31.74
842.16	30.88
842.332	33.12
842.505	33.22
842.677	32.15
842.85	29.93
843.022	28.66
843.194	29.71
843.367	30.09
843.539	31.93
843.712	30.21
843.884	30.83
844.056	32.68
844.229	30.71
844.401	31.83
844.573	31.63
844.745	31.14
844.918	31.88
845.09	30.01
845.262	31.05
845.434	29.73
845.606	32.87
845.779	30.6
845.951	32.1
846.123	33.43
846.295	32.63
846.467	36.13
846.639	38.87
846.811	38.84
846.983	40.96
847.155	38.98
847.327	37.94
847.499	39.36
847.671	41.19
847.843	41.19
848.015	41.49
848.187	40.05
848.359	36.5
848.531	34.49
848.703	36.16
848.875	35.82
849.047	38
849.218	38.21
849.39	35.33
849.562	35.17
849.734	34.27
849.905	34.88
850.077	36.12
850.249	38.36
850.421	39.36
850.592	35.68
850.764	38.83
850.936	39.63
851.107	40.76
851.279	40.44
851.451	40.26
851.622	39.66
851.794	44.17
851.965	44.63
852.137	44.51
852.308	47.9
852.48	50.11
852.651	46.74
852.823	48.29
852.994	49.96
853.166	51.62
853.337	53.07
853.509	52.93
853.68	46.43
853.851	47.67
854.023	49.52
854.194	50.27
854.365	50.69
854.537	48.99
854.708	46.37
854.879	46.13
855.05	42.78
855.222	40.95
855.393	44.16
855.564	47.81
855.735	44.81
855.906	44
856.078	36.52
856.249	36.57
856.42	37.74
856.591	38.93
856.762	33.27
856.933	31.29
857.104	27.93
857.275	28.74
857.446	28.43
857.617	28.79
857.788	26.19
857.959	36.36
858.13	37.65
858.301	35.62
858.472	33.97
858.643	34.99
858.814	35.08
858.985	35.86
859.155	32.62
859.326	34.6
859.497	34.86
859.668	36.09
859.839	29.25
860.009	26.39
860.18	26.58
860.351	27.27
860.522	30.98
860.692	32.14
860.863	38.48
861.034	41.03
861.204	34.04
861.375	37.64
861.546	38.47
861.716	38.62
861.887	44.32
862.057	45.42
862.228	45.34
862.398	46.56
862.569	50.66
862.739	48.36
862.91	49.63
863.08	55.38
863.251	52.8
863.421	54.1
863.592	56.31
863.762	50.11
863.932	50.52
864.103	46.84
864.273	45.56
864.443	44.92
864.614	46.22
864.784	40.02
864.954	36.3
865.125	35.57
865.295	33.26
865.465	31.41
865.635	34.53
865.805	33.53
865.976	35.21
866.146	32.75
866.316	31.79
866.486	27.94
866.656	28.56
866.826	32.06
866.996	31.36
867.166	32.06
867.336	33.32
867.506	29.8
867.676	35.45
867.846	38.48
868.016	41.31
868.186	39.8
868.356	45.56
868.526	44.48
868.696	38.47
868.866	37.7
869.036	39.02
869.206	39.4
869.376	40.64
869.545	33.77
869.715	35.39
869.885	36.82
870.055	37.93
870.224	31.72
870.394	33.93
870.564	38.62
870.734	42.1
870.903	42.27
871.073	41.44
871.243	40.54
871.412	42.58
871.582	42.35
871.751	38.32
871.921	37.8
872.091	39.79
872.26	39.13
872.43	36.62
872.599	36.04
872.769	36.4
872.938	35.33
873.108	38.93
873.277	37.74
873.446	35.27
873.616	40.42
873.785	37.63
873.955	34.23
874.124	33.84
874.293	35.01
874.463	33.77
874.632	32.41
874.801	36.44
874.971	34.49
875.14	31.84
875.309	28.83
875.478	26.6
875.647	32.43
875.817	36.84
875.986	36.86
876.155	34.39
876.324	36.68
876.493	37.38
876.662	36.06
876.831	37.7
877	35.47
877.17	40.64
877.339	39.66
877.508	34.77
877.677	26.48
877.846	28.66
878.015	33.7
878.184	31.46
878.352	32.33
878.521	30.77
878.69	28.12
878.859	30.91
879.028	27.79
879.197	29.47
879.366	30.79
879.534	33.37
879.703	32.16
879.872	28.95
880.041	30.58
880.21	28.49
880.378	28.26
880.547	26.87
880.716	27.43
880.884	28.1
881.053	27.08
881.222	26.62
881.39	25.47
881.559	25.14
881.727	25.18
881.896	25.5
882.065	25.18
882.233	25.33
882.402	25.88
882.57	25.47
882.739	24.7
882.907	24.33
883.076	24.75
883.244	25.3
883.412	26.02
883.581	26.04
883.749	25.74
883.918	25.95
884.086	25.55
884.254	25.77
884.423	26.46
884.591	26.84
884.759	27.03
884.927	26.29
885.096	26.6
885.264	25.69
885.432	27.5
885.6	25.72
885.769	26.26
885.937	25.35
886.105	25.47
886.273	24.96
886.441	23.67
886.609	26.08
886.777	29.38
886.945	27.28
887.113	29.17
887.281	21.77
887.449	22.34
887.617	20.26
887.785	22.46
887.953	18.01
888.121	17.61
888.289	20.98
888.457	19.69
888.625	14.15
888.793	17.66
888.961	11.96
889.129	15.19
889.296	17.33
889.464	18.34
889.632	17.56
889.8	19.4
889.967	18.19
890.135	15.3
