Data from 2938848__Reflection_02.txt Node
Date: Wed Mar 11 13:35:40 EDT 2015
User: robert
Spectrometer: USB4E03002
Autoset integration time: false
Trigger mode: 4
Integration Time (sec): 1.000000E-1
Scans to average: 10
Electric dark correction enabled: false
Nonlinearity correction enabled: false
Boxcar width: 5
Stray light correction enabled: false
XAxis mode: Wavelengths
Stop averaging: false
Number of Pixels in Spectrum: 3648
>>>>>Begin Spectral Data<<<<<
177.575	977.78
177.794	-572.92
178.014	-199.32
178.233	-504.41
178.452	-325.55
178.672	-132.93
178.891	-88.7
179.11	-53.59
179.33	-87.99
179.549	-56.56
179.768	-69.23
179.987	-100.46
180.207	-102.36
180.426	-68.61
180.645	-72.88
180.864	-31.01
181.084	-93.09
181.303	-671.43
181.522	-296.46
181.741	-171.01
181.96	-350.35
182.179	-856.9
182.398	-527.06
182.618	517.58
182.837	1009.23
183.056	1251.06
183.275	210.36
183.494	165.45
183.713	218.79
183.932	137.61
184.151	151.84
184.37	121.43
184.589	245.7
184.808	286.13
185.027	-723.81
185.246	-52.22
185.465	13.28
185.684	21.88
185.903	-0.51
186.122	-0.85
186.341	-10.46
186.56	-12.94
186.779	-29.57
186.998	-16.89
187.216	-8.4
187.435	-5.48
187.654	-23.98
187.873	-37.38
188.092	-56.56
188.311	-39.82
188.53	-21.69
188.748	-8.5
188.967	0
189.186	6.49
189.405	-3.62
189.623	0.97
189.842	-9.22
190.061	-2.53
190.28	0.91
190.498	6.45
190.717	-6.63
190.936	-30.04
191.154	-18.32
191.373	-11.62
191.592	-21.02
191.81	-11.66
192.029	-35.63
192.248	-26.84
192.466	-32.8
192.685	-96.33
192.904	-100.69
193.122	-65.62
193.341	-204.9
193.559	-302
193.778	-608.64
193.996	-331.34
194.215	-282.32
194.433	-129.77
194.652	-102.24
194.87	-128.77
195.089	-118.26
195.307	-112.31
195.526	-156.17
195.744	-69.48
195.963	-56.01
196.181	-69.58
196.399	-64.04
196.618	-57.09
196.836	-67.76
197.055	-50.07
197.273	-20.88
197.491	-50.66
197.71	-56.06
197.928	-29.61
198.146	-21.5
198.365	-33.79
198.583	-17.53
198.801	-13
199.019	-5.09
199.238	-8.77
199.456	-18.38
199.674	-38.88
199.892	30.97
200.111	29.59
200.329	26.58
200.547	5.61
200.765	-2.36
200.983	-25.71
201.202	-5.39
201.42	15.56
201.638	27.87
201.856	38.31
202.074	26.66
202.292	-7.17
202.51	-12.43
202.728	-3.4
202.946	59.06
203.165	65.2
203.383	66.82
203.601	27.74
203.819	0
204.037	-23.38
204.255	-43.13
204.473	-41.23
204.691	-40.12
204.909	-61.59
205.127	-70.19
205.345	-129.91
205.562	-84.53
205.78	-78.28
205.998	-125.59
206.216	-112.2
206.434	-54.76
206.652	-40.77
206.87	-43.44
207.088	-20.14
207.306	-12.1
207.523	-12
207.741	-20.84
207.959	-28.83
208.177	-36.89
208.395	-28.31
208.612	-47.52
208.83	-72.04
209.048	-119.61
209.266	-52.91
209.483	-124.57
209.701	-108.94
209.919	-94.13
210.136	-91.12
210.354	-65.66
210.572	-38.69
210.79	-59.52
211.007	-69.83
211.225	-61.71
211.442	-23.77
211.66	-89.56
211.878	-50.83
212.095	-52.3
212.313	-61.63
212.53	-39.52
212.748	-26.24
212.966	-37.86
213.183	-14.05
213.401	-0.08
213.618	-8.29
213.836	-4.22
214.053	-1.27
214.271	-5.53
214.488	-18.63
214.705	-21.9
214.923	-33.13
215.14	-61.82
215.358	-55.1
215.575	-51.81
215.793	-61.43
216.01	-71.2
216.227	-64.2
216.445	-39.28
216.662	-33.01
216.879	-28.1
217.097	-18.91
217.314	-15.65
217.531	-5.29
217.749	-12.37
217.966	-21.64
218.183	-11.69
218.4	-16.14
218.618	-25.45
218.835	-30.1
219.052	-38.79
219.269	-40.52
219.487	-39.58
219.704	-41.24
219.921	-36.97
220.138	-26.63
220.355	-20.86
220.572	-29.2
220.79	-23.05
221.007	-23.19
221.224	-33.37
221.441	-27.05
221.658	-16.3
221.875	-15.82
222.092	-11.38
222.309	-10.88
222.526	-12.97
222.743	-16.47
222.96	-20.03
223.177	-18.74
223.394	-20.33
223.611	-15.41
223.828	-10.39
224.045	-11.42
224.262	-6.67
224.479	-3.87
224.696	-4.71
224.913	-3.43
225.13	3.48
225.347	4.47
225.564	4.81
225.781	5.96
225.997	6.78
226.214	4.05
226.431	3.96
226.648	1.23
226.865	1.02
227.082	1.85
227.298	2.45
227.515	1.25
227.732	0.86
227.949	0.63
228.165	0.33
228.382	0.77
228.599	1.23
228.816	1.57
229.032	1.95
229.249	1.63
229.466	1.75
229.682	1.32
229.899	1.54
230.116	1.94
230.332	2.32
230.549	2.52
230.765	1.73
230.982	1.58
231.199	1.09
231.415	-0.06
231.632	-0.43
231.848	-1.97
232.065	-1.21
232.281	-1.02
232.498	-1.62
232.714	-2.25
232.931	-2.9
233.147	-2.38
233.364	-2.29
233.58	-0.89
233.797	1
234.013	1.26
234.23	2.18
234.446	2.01
234.662	0.42
234.879	0.58
235.095	0.57
235.312	1.88
235.528	1.43
235.744	1.79
235.961	0.85
236.177	0.42
236.393	0.26
236.61	0.38
236.826	1.47
237.042	1.99
237.258	1.08
237.475	0.44
237.691	-0.98
237.907	0.76
238.123	0.9
238.339	0.87
238.556	0.35
238.772	0.78
238.988	1.24
239.204	-0.43
239.42	0.53
239.636	1.65
239.853	2.91
240.069	2.77
240.285	2.12
240.501	1.66
240.717	2.47
240.933	2.32
241.149	2.11
241.365	2.16
241.581	2.13
241.797	1.86
242.013	2.3
242.229	2.23
242.445	2.22
242.661	2.16
242.877	1.87
243.093	1.17
243.309	1.18
243.525	1.4
243.741	1.44
243.957	1.6
244.173	1.43
244.388	0.71
244.604	0.44
244.82	0.12
245.036	0.13
245.252	0.52
245.468	1.58
245.683	2.63
245.899	2.48
246.115	2.89
246.331	3.11
246.547	2.96
246.762	3.31
246.978	3.26
247.194	3.61
247.409	3.75
247.625	4.02
247.841	3.66
248.057	3.37
248.272	3.38
248.488	3.04
248.703	3.17
248.919	3.53
249.135	3.15
249.35	3
249.566	2.83
249.782	2.73
249.997	2.12
250.213	2.07
250.428	1.88
250.644	1.62
250.859	1.45
251.075	1.38
251.29	1.64
251.506	2.41
251.721	2.72
251.937	3.12
252.152	3.35
252.368	4.16
252.583	3.96
252.798	3.55
253.014	4.03
253.229	4.39
253.445	3.97
253.66	3.3
253.875	2.88
254.091	2.48
254.306	2.41
254.521	1.46
254.737	0.44
254.952	0.48
255.167	0.48
255.383	-0.32
255.598	-0.22
255.813	-0.01
256.028	0.32
256.244	0.71
256.459	0.94
256.674	0.92
256.889	1.49
257.104	1
257.32	1.29
257.535	1.44
257.75	1.71
257.965	1.62
258.18	1.75
258.395	2.07
258.61	2.04
258.826	2.1
259.041	1.88
259.256	1.85
259.471	2.25
259.686	2.17
259.901	2.22
260.116	2.31
260.331	2.2
260.546	2.25
260.761	2.03
260.976	1.7
261.191	1.59
261.406	1.75
261.621	1.77
261.836	1.55
262.05	1.31
262.265	1.16
262.48	1.16
262.695	0.81
262.91	0.62
263.125	0.67
263.34	1.12
263.555	1.26
263.769	0.66
263.984	0.07
264.199	-0.1
264.414	0.74
264.629	0.66
264.843	0.64
265.058	1.39
265.273	1.07
265.488	0.76
265.702	0.66
265.917	1.39
266.132	1.18
266.346	1.66
266.561	1.82
266.776	1.34
266.99	1.74
267.205	1.18
267.42	0.81
267.634	0.94
267.849	1.33
268.063	1.44
268.278	0.86
268.492	1.51
268.707	1.27
268.922	1.04
269.136	1.19
269.351	1.27
269.565	1.78
269.78	1.68
269.994	1.35
270.209	1.16
270.423	1.02
270.637	1.04
270.852	0.8
271.066	0.96
271.281	0.98
271.495	0.98
271.709	0.55
271.924	0.74
272.138	0.97
272.353	1.37
272.567	1.17
272.781	1.26
272.996	1.16
273.21	1.23
273.424	1.5
273.638	1.46
273.853	1.64
274.067	2.16
274.281	2.16
274.495	2.15
274.71	1.65
274.924	1.97
275.138	2.15
275.352	2.54
275.566	2.6
275.781	2.08
275.995	2.08
276.209	1.8
276.423	1.61
276.637	1.33
276.851	1.32
277.065	1.65
277.279	1.62
277.493	1.63
277.707	1.26
277.921	1.29
278.135	1.78
278.349	2.02
278.563	1.82
278.777	1.79
278.991	1.86
279.205	1.57
279.419	1.83
279.633	1.94
279.847	1.75
280.061	1.91
280.275	1.87
280.489	1.55
280.703	1.45
280.917	2.01
281.131	1.78
281.344	1.82
281.558	2.01
281.772	1.8
281.986	1.69
282.2	1.81
282.414	1.78
282.627	1.62
282.841	1.87
283.055	1.83
283.269	1.81
283.482	2.11
283.696	2.13
283.91	2.23
284.123	2.25
284.337	2.34
284.551	2.26
284.764	2.32
284.978	2.29
285.192	2.25
285.405	2.18
285.619	2.08
285.833	2.18
286.046	2.06
286.26	2.12
286.473	2.09
286.687	2.05
286.9	2.3
287.114	2.39
287.327	2.63
287.541	2.3
287.754	2.53
287.968	2.26
288.181	2.18
288.395	2.19
288.608	2.01
288.822	2.01
289.035	1.98
289.248	1.79
289.462	1.74
289.675	1.88
289.889	2.18
290.102	2.19
290.315	2.35
290.529	2.4
290.742	2.28
290.955	2.28
291.169	2.38
291.382	2.8
291.595	2.73
291.808	2.91
292.022	2.8
292.235	2.66
292.448	2.58
292.661	2.59
292.875	2.43
293.088	2.81
293.301	2.91
293.514	3.27
293.727	2.73
293.94	2.89
294.153	2.52
294.367	2.44
294.58	3.03
294.793	3.07
295.006	3.34
295.219	3.49
295.432	3.3
295.645	3.36
295.858	3.24
296.071	3.35
296.284	3.47
296.497	3.59
296.71	3.74
296.923	3.67
297.136	3.97
297.349	3.87
297.562	3.85
297.775	4.22
297.988	4.53
298.201	4.49
298.414	4.89
298.626	4.82
298.839	5.18
299.052	5.29
299.265	4.96
299.478	4.75
299.691	4.98
299.903	5.22
300.116	5
300.329	4.87
300.542	5.06
300.755	4.89
300.967	5.26
301.18	5.35
301.393	5.28
301.605	5.74
301.818	5.83
302.031	5.99
302.243	6.06
302.456	6.21
302.669	6.12
302.881	6.41
303.094	6.34
303.307	6.24
303.519	5.96
303.732	5.95
303.944	6.02
304.157	6.32
304.37	6.23
304.582	6.29
304.795	6.19
305.007	6.11
305.22	6.09
305.432	6.44
305.645	6.47
305.857	6.72
306.069	7.09
306.282	7.04
306.494	6.93
306.707	6.81
306.919	6.88
307.132	6.69
307.344	7.06
307.556	6.75
307.769	6.58
307.981	6.64
308.193	6.8
308.406	6.71
308.618	6.96
308.83	7.06
309.043	7.01
309.255	6.98
309.467	7.24
309.679	7.23
309.892	7.58
310.104	7.85
310.316	8.04
310.528	8.11
310.74	8.12
310.953	8.04
311.165	7.84
311.377	8.25
311.589	8.16
311.801	8.24
312.013	8.38
312.225	8.14
312.437	8.04
312.649	7.88
312.862	7.75
313.074	8.24
313.286	8.15
313.498	8.8
313.71	8.71
313.922	9
314.134	9.19
314.346	9.14
314.558	9.39
314.77	9.15
314.982	9.19
315.193	9.06
315.405	8.6
315.617	8.28
315.829	7.73
316.041	7.74
316.253	7.68
316.465	7.74
316.677	7.95
316.888	8.16
317.1	8.35
317.312	8.38
317.524	8.81
317.736	8.44
317.947	9.33
318.159	9.98
318.371	9.93
318.583	9.97
318.794	10.08
319.006	10.04
319.218	9.81
319.43	9.88
319.641	10.14
319.853	9.82
320.064	9.95
320.276	9.5
320.488	9.12
320.699	9.44
320.911	9.56
321.123	9.67
321.334	9.59
321.546	10.04
321.757	10.15
321.969	10.23
322.18	10.55
322.392	11.33
322.603	11.81
322.815	11.95
323.026	11.97
323.238	11.86
323.449	11.56
323.661	11.92
323.872	11.58
324.083	11.7
324.295	11.83
324.506	11.98
324.718	11.77
324.929	11.6
325.14	11.65
325.352	11.5
325.563	11.96
325.774	12.16
325.986	12.13
326.197	12.45
326.408	12.68
326.62	12.81
326.831	13.03
327.042	13.21
327.253	13.74
327.464	13.9
327.676	14.03
327.887	14.25
328.098	14.5
328.309	14.73
328.52	14.94
328.732	14.93
328.943	15.01
329.154	15.27
329.365	15.57
329.576	15.51
329.787	15.76
329.998	16.35
330.209	16.43
330.42	16.83
330.631	16.77
330.842	17.09
331.053	17.29
331.264	17.48
331.475	17.6
331.686	17.68
331.897	17.89
332.108	17.96
332.319	17.55
332.53	17.91
332.741	17.7
332.952	17.84
333.163	17.89
333.374	18.22
333.585	18.29
333.795	18.64
334.006	18.86
334.217	18.97
334.428	19.16
334.639	19.53
334.849	19.33
335.06	19.45
335.271	19.55
335.482	19.47
335.692	19.31
335.903	19.12
336.114	18.81
336.325	18.72
336.535	18.43
336.746	18.58
336.957	18.47
337.167	18.26
337.378	18.27
337.589	18.61
337.799	18.43
338.01	18.41
338.22	18.48
338.431	18.24
338.642	17.9
338.852	18.13
339.063	17.99
339.273	17.98
339.484	17.9
339.694	17.92
339.905	17.53
340.115	17.52
340.326	17.71
340.536	17.72
340.746	18.02
340.957	18.03
341.167	18.06
341.378	17.99
341.588	17.97
341.799	18.4
342.009	18.53
342.219	18.54
342.43	18.77
342.64	18.66
342.85	18.57
343.061	18.34
343.271	18.55
343.481	18.41
343.691	18.31
343.902	18.62
344.112	18.38
344.322	18.35
344.532	18.39
344.743	18.37
344.953	18.27
345.163	18.31
345.373	18.38
345.583	18.42
345.793	18.51
346.004	18.76
346.214	18.41
346.424	18.38
346.634	18.48
346.844	18.37
347.054	18.18
347.264	18.03
347.474	18.17
347.684	18.29
347.894	18.38
348.104	18.32
348.314	17.85
348.524	17.93
348.734	18.29
348.944	18.04
349.154	17.99
349.364	18.12
349.574	18.41
349.784	18.32
349.994	18.12
350.204	17.94
350.413	18.01
350.623	18.22
350.833	18.25
351.043	17.73
351.253	17.69
351.463	17.73
351.672	17.64
351.882	17.45
352.092	17.4
352.302	17.4
352.511	17.4
352.721	17.4
352.931	17.47
353.141	17.4
353.35	17.27
353.56	17.18
353.77	17.38
353.979	17.48
354.189	17.55
354.399	17.38
354.608	17.44
354.818	17.68
355.027	17.74
355.237	17.6
355.447	17.72
355.656	17.9
355.866	17.75
356.075	17.75
356.285	17.67
356.494	17.72
356.704	17.94
356.913	18.16
357.123	17.86
357.332	17.77
357.542	17.83
357.751	17.89
357.96	17.82
358.17	18.06
358.379	18.07
358.589	18.02
358.798	18.03
359.007	17.89
359.217	17.66
359.426	17.84
359.635	17.67
359.845	17.47
360.054	17.31
360.263	17.44
360.472	17.44
360.682	17.07
360.891	17.01
361.1	16.99
361.309	17.04
361.519	16.98
361.728	16.7
361.937	16.76
362.146	16.9
362.355	16.97
362.564	16.9
362.774	16.9
362.983	17.09
363.192	17.11
363.401	17.06
363.61	17.1
363.819	17.15
364.028	17.35
364.237	17.36
364.446	17.37
364.655	17.24
364.864	17.2
365.073	17.15
365.282	17.04
365.491	17.07
365.7	16.88
365.909	16.68
366.118	16.6
366.327	16.71
366.536	16.65
366.745	16.53
366.954	16.7
367.162	16.84
367.371	16.61
367.58	16.68
367.789	16.88
367.998	16.97
368.207	17.01
368.415	16.86
368.624	16.77
368.833	16.76
369.042	16.7
369.25	16.38
369.459	16.22
369.668	16.47
369.877	16.42
370.085	16.24
370.294	16.26
370.503	16.53
370.711	16.63
370.92	16.68
371.129	16.6
371.337	16.75
371.546	16.9
371.754	16.98
371.963	16.94
372.171	17.08
372.38	16.9
372.589	16.74
372.797	16.49
373.006	16.28
373.214	16.29
373.423	16.31
373.631	16.13
373.84	16.2
374.048	16.08
374.256	15.95
374.465	15.79
374.673	16.13
374.882	16.2
375.09	16.22
375.298	16.27
375.507	16
375.715	15.95
375.923	15.8
376.132	15.6
376.34	15.79
376.548	15.68
376.757	15.59
376.965	15.4
377.173	15.58
377.381	15.7
377.59	15.86
377.798	16.03
378.006	15.95
378.214	16.35
378.423	16.49
378.631	16.17
378.839	16.35
379.047	16.4
379.255	16.28
379.463	15.98
379.671	15.68
379.879	15.68
380.088	15.83
380.296	15.99
380.504	15.89
380.712	15.9
380.92	15.89
381.128	15.7
381.336	15.91
381.544	16.06
381.752	16.16
381.96	16.38
382.168	16.39
382.376	16.03
382.584	15.96
382.791	15.79
382.999	15.54
383.207	15.78
383.415	15.83
383.623	15.58
383.831	15.55
384.039	15.48
384.247	15.32
384.454	15.37
384.662	15.37
384.87	15.55
385.078	15.53
385.285	15.65
385.493	15.45
385.701	15.4
385.909	15.6
386.116	15.59
386.324	15.76
386.532	15.86
386.739	15.76
386.947	15.93
387.155	15.83
387.362	16.01
387.57	15.93
387.778	15.94
387.985	15.97
388.193	16.07
388.4	15.77
388.608	15.61
388.816	15.72
389.023	15.43
389.231	15.34
389.438	15.28
389.646	15.25
389.853	15.33
390.061	15.36
390.268	15.47
390.475	15.24
390.683	15.53
390.89	15.59
391.098	15.48
391.305	15.72
391.512	15.66
391.72	15.63
391.927	15.47
392.135	15.52
392.342	15.52
392.549	15.5
392.756	15.39
392.964	15.33
393.171	15.47
393.378	15.51
393.586	15.54
393.793	15.61
394	15.63
394.207	15.66
394.414	15.6
394.622	15.51
394.829	15.45
395.036	15.47
395.243	15.59
395.45	15.54
395.657	15.57
395.864	15.58
396.072	15.64
396.279	15.7
396.486	15.66
396.693	15.65
396.9	15.71
397.107	15.72
397.314	15.79
397.521	15.54
397.728	15.31
397.935	15.25
398.142	15.19
398.349	15.12
398.556	15.14
398.763	15.21
398.97	15.2
399.177	15.28
399.383	15.38
399.59	15.42
399.797	15.51
400.004	15.67
400.211	15.75
400.418	15.85
400.625	15.91
400.831	15.88
401.038	15.82
401.245	15.99
401.452	15.9
401.658	15.95
401.865	15.91
402.072	15.98
402.279	16.11
402.485	16.06
402.692	16.03
402.899	15.82
403.105	15.92
403.312	16.02
403.519	16.02
403.725	15.99
403.932	15.82
404.138	15.78
404.345	15.78
404.552	15.75
404.758	15.63
404.965	15.52
405.171	15.7
405.378	15.68
405.584	15.77
405.791	15.81
405.997	15.85
406.204	15.95
406.41	16.04
406.617	16.02
406.823	16.07
407.029	16.34
407.236	16.44
407.442	16.39
407.649	16.27
407.855	16.05
408.061	15.79
408.268	15.89
408.474	16.03
408.68	16.03
408.887	16.01
409.093	15.87
409.299	15.66
409.505	15.62
409.712	15.62
409.918	15.62
410.124	15.66
410.33	15.96
410.537	16
410.743	15.85
410.949	16.08
411.155	15.99
411.361	15.96
411.567	16.13
411.773	16.24
411.98	16.35
412.186	16.4
412.392	16.51
412.598	16.63
412.804	16.65
413.01	16.78
413.216	16.77
413.422	17
413.628	17.1
413.834	16.93
414.04	16.75
414.246	16.73
414.452	16.76
414.658	16.75
414.864	16.52
415.07	16.38
415.275	16.42
415.481	16.27
415.687	16.2
415.893	16.29
416.099	16.32
416.305	16.53
416.511	16.63
416.716	16.59
416.922	16.63
417.128	16.71
417.334	16.84
417.539	16.91
417.745	16.97
417.951	17.07
418.157	17.08
418.362	17.16
418.568	17.04
418.774	16.96
418.979	17.08
419.185	17.13
419.391	17.14
419.596	17.15
419.802	17.09
420.008	17.15
420.213	17.19
420.419	17.17
420.624	17.19
420.83	17.27
421.035	17.29
421.241	17.27
421.446	17.32
421.652	17.32
421.857	17.31
422.063	17.31
422.268	17.24
422.474	17.21
422.679	17.24
422.885	17.26
423.09	17.31
423.295	17.37
423.501	17.41
423.706	17.35
423.911	17.37
424.117	17.41
424.322	17.49
424.527	17.63
424.733	17.69
424.938	17.69
425.143	17.62
425.349	17.61
425.554	17.67
425.759	17.69
425.964	17.72
426.169	17.77
426.375	17.81
426.58	17.79
426.785	17.68
426.99	17.65
427.195	17.76
427.4	17.89
427.605	17.75
427.811	17.71
428.016	17.71
428.221	17.71
428.426	17.72
428.631	17.72
428.836	17.74
429.041	17.81
429.246	17.81
429.451	17.78
429.656	17.87
429.861	18.08
430.066	18.15
430.271	18.25
430.476	18.27
430.681	18.17
430.886	18.17
431.09	18.14
431.295	18.1
431.5	18.13
431.705	18.09
431.91	18.02
432.115	18.08
432.32	18.12
432.524	18.05
432.729	18.12
432.934	18.17
433.139	18.19
433.343	18.31
433.548	18.37
433.753	18.45
433.958	18.53
434.162	18.57
434.367	18.49
434.572	18.48
434.776	18.61
434.981	18.66
435.186	18.74
435.39	18.81
435.595	18.77
435.799	18.77
436.004	18.73
436.209	18.77
436.413	18.83
436.618	18.92
436.822	18.92
437.027	18.82
437.231	18.84
437.436	18.92
437.64	18.86
437.845	18.84
438.049	18.82
438.253	18.8
438.458	18.72
438.662	18.72
438.867	18.71
439.071	18.74
439.275	18.85
439.48	18.86
439.684	18.87
439.888	18.92
440.093	18.98
440.297	19.09
440.501	19.12
440.706	19.16
440.91	19.2
441.114	19.2
441.318	19.19
441.523	19.16
441.727	19.15
441.931	19.12
442.135	19.14
442.339	19.14
442.543	19.09
442.748	19.1
442.952	19.08
443.156	19.07
443.36	19.05
443.564	19.04
443.768	19.07
443.972	19.11
444.176	19.18
444.38	19.18
444.584	19.16
444.788	19.15
444.992	19.14
445.196	19.21
445.4	19.26
445.604	19.39
445.808	19.42
446.012	19.41
446.216	19.41
446.42	19.37
446.624	19.33
446.828	19.34
447.032	19.33
447.235	19.3
447.439	19.34
447.643	19.28
447.847	19.29
448.051	19.28
448.254	19.24
448.458	19.27
448.662	19.29
448.866	19.38
449.069	19.41
449.273	19.39
449.477	19.43
449.681	19.44
449.884	19.46
450.088	19.39
450.292	19.41
450.495	19.51
450.699	19.51
450.902	19.54
451.106	19.55
451.31	19.57
451.513	19.56
451.717	19.53
451.92	19.53
452.124	19.59
452.327	19.55
452.531	19.63
452.734	19.6
452.938	19.56
453.141	19.56
453.345	19.53
453.548	19.54
453.752	19.64
453.955	19.62
454.158	19.55
454.362	19.52
454.565	19.52
454.769	19.4
454.972	19.44
455.175	19.43
455.379	19.4
455.582	19.33
455.785	19.29
455.988	19.33
456.192	19.45
456.395	19.54
456.598	19.47
456.801	19.43
457.005	19.51
457.208	19.51
457.411	19.46
457.614	19.53
457.817	19.56
458.021	19.49
458.224	19.37
458.427	19.32
458.63	19.24
458.833	19.29
459.036	19.31
459.239	19.26
459.442	19.29
459.645	19.29
459.848	19.28
460.051	19.26
460.254	19.26
460.457	19.27
460.66	19.28
460.863	19.34
461.066	19.32
461.269	19.34
461.472	19.35
461.675	19.26
461.878	19.29
462.081	19.26
462.284	19.24
462.486	19.32
462.689	19.36
462.892	19.41
463.095	19.34
463.298	19.41
463.5	19.44
463.703	19.49
463.906	19.52
464.109	19.57
464.311	19.58
464.514	19.7
464.717	19.66
464.92	19.64
465.122	19.56
465.325	19.71
465.528	19.6
465.73	19.63
465.933	19.57
466.135	19.48
466.338	19.4
466.541	19.38
466.743	19.34
466.946	19.36
467.148	19.43
467.351	19.54
467.553	19.53
467.756	19.58
467.958	19.55
468.161	19.59
468.363	19.63
468.566	19.61
468.768	19.6
468.971	19.57
469.173	19.59
469.375	19.55
469.578	19.52
469.78	19.46
469.983	19.51
470.185	19.44
470.387	19.45
470.59	19.51
470.792	19.56
470.994	19.56
471.196	19.54
471.399	19.54
471.601	19.56
471.803	19.56
472.005	19.58
472.208	19.58
472.41	19.69
472.612	19.65
472.814	19.63
473.016	19.71
473.218	19.63
473.421	19.69
473.623	19.66
473.825	19.7
474.027	19.82
474.229	19.83
474.431	19.88
474.633	19.89
474.835	19.99
475.037	20.03
475.239	19.99
475.441	20.11
475.643	20.11
475.845	20.15
476.047	20.14
476.249	20.03
476.451	20.06
476.653	20.04
476.855	20
477.057	19.9
477.258	19.87
477.46	19.86
477.662	19.78
477.864	19.84
478.066	19.9
478.268	19.87
478.469	19.85
478.671	19.81
478.873	19.81
479.075	19.84
479.276	19.91
479.478	19.92
479.68	19.88
479.882	19.93
480.083	19.85
480.285	19.72
480.487	19.66
480.688	19.68
480.89	19.74
481.091	19.7
481.293	19.71
481.495	19.7
481.696	19.67
481.898	19.72
482.099	19.72
482.301	19.77
482.502	19.81
482.704	19.88
482.905	19.83
483.107	19.83
483.308	19.8
483.51	19.79
483.711	19.78
483.913	19.81
484.114	19.82
484.315	19.82
484.517	19.77
484.718	19.77
484.92	19.75
485.121	19.78
485.322	19.73
485.524	19.72
485.725	19.73
485.926	19.75
486.127	19.7
486.329	19.67
486.53	19.65
486.731	19.71
486.932	19.72
487.134	19.7
487.335	19.68
487.536	19.72
487.737	19.74
487.938	19.73
488.139	19.71
488.341	19.72
488.542	19.71
488.743	19.72
488.944	19.75
489.145	19.71
489.346	19.76
489.547	19.78
489.748	19.77
489.949	19.75
490.15	19.77
490.351	19.73
490.552	19.77
490.753	19.8
490.954	19.79
491.155	19.74
491.356	19.78
491.557	19.78
491.758	19.75
491.959	19.76
492.159	19.83
492.36	19.79
492.561	19.82
492.762	19.82
492.963	19.85
493.164	19.93
493.364	20
493.565	20.05
493.766	20.06
493.967	20.13
494.167	20.2
494.368	20.16
494.569	20.19
494.769	20.24
494.97	20.26
495.171	20.24
495.371	20.25
495.572	20.19
495.773	20.1
495.973	20.12
496.174	20.08
496.375	20.04
496.575	20.14
496.776	20.19
496.976	20.29
497.177	20.36
497.377	20.41
497.578	20.38
497.778	20.39
497.979	20.37
498.179	20.4
498.38	20.44
498.58	20.49
498.78	20.46
498.981	20.44
499.181	20.27
499.382	20.28
499.582	20.29
499.782	20.31
499.983	20.35
500.183	20.42
500.383	20.39
500.584	20.36
500.784	20.38
500.984	20.34
501.184	20.43
501.385	20.56
501.585	20.57
501.785	20.67
501.985	20.67
502.185	20.66
502.386	20.74
502.586	20.8
502.786	20.88
502.986	20.84
503.186	20.92
503.386	20.93
503.586	21
503.786	21.01
503.987	20.94
504.187	20.98
504.387	21.01
504.587	20.97
504.787	21.01
504.987	21.07
505.187	21.18
505.387	21.22
505.587	21.22
505.786	21.23
505.986	21.23
506.186	21.26
506.386	21.33
506.586	21.4
506.786	21.46
506.986	21.54
507.186	21.51
507.386	21.46
507.585	21.5
507.785	21.56
507.985	21.6
508.185	21.6
508.384	21.66
508.584	21.65
508.784	21.57
508.984	21.71
509.183	21.71
509.383	21.74
509.583	21.84
509.782	21.85
509.982	21.89
510.182	21.92
510.381	21.96
510.581	21.95
510.781	21.97
510.98	22.12
511.18	22.07
511.379	22.12
511.579	22.2
511.778	22.23
511.978	22.25
512.177	22.25
512.377	22.3
512.576	22.39
512.776	22.47
512.975	22.53
513.175	22.56
513.374	22.62
513.573	22.67
513.773	22.78
513.972	22.85
514.172	22.82
514.371	22.9
514.57	22.88
514.77	22.83
514.969	22.87
515.168	22.94
515.367	22.95
515.567	23.02
515.766	22.98
515.965	22.92
516.164	22.92
516.364	23.01
516.563	23.03
516.762	23.21
516.961	23.38
517.16	23.42
517.359	23.5
517.559	23.54
517.758	23.51
517.957	23.58
518.156	23.66
518.355	23.66
518.554	23.73
518.753	23.77
518.952	23.7
519.151	23.69
519.35	23.72
519.549	23.65
519.748	23.69
519.947	23.77
520.146	23.83
520.345	23.84
520.544	23.95
520.743	24.08
520.942	24.19
521.141	24.26
521.339	24.33
521.538	24.31
521.737	24.48
521.936	24.51
522.135	24.53
522.333	24.55
522.532	24.58
522.731	24.63
522.93	24.57
523.129	24.57
523.327	24.66
523.526	24.64
523.725	24.74
523.923	24.7
524.122	24.78
524.321	24.88
524.519	24.94
524.718	25.05
524.917	25.08
525.115	25.13
525.314	25.14
525.512	25.17
525.711	25.2
525.909	25.24
526.108	25.36
526.306	25.4
526.505	25.4
526.703	25.44
526.902	25.49
527.1	25.52
527.299	25.59
527.497	25.63
527.696	25.63
527.894	25.71
528.092	25.75
528.291	25.75
528.489	25.79
528.688	25.83
528.886	25.87
529.084	25.88
529.283	25.92
529.481	25.91
529.679	25.97
529.877	26.01
530.076	26.04
530.274	26.07
530.472	26.12
530.67	26.23
530.869	26.3
531.067	26.31
531.265	26.4
531.463	26.43
531.661	26.55
531.859	26.62
532.057	26.7
532.255	26.74
532.454	26.78
532.652	26.81
532.85	26.78
533.048	26.78
533.246	26.82
533.444	26.83
533.642	26.91
533.84	26.91
534.038	26.9
534.236	26.88
534.434	26.89
534.632	26.91
534.83	26.93
535.027	27.01
535.225	27.1
535.423	27.12
535.621	27.13
535.819	27.2
536.017	27.22
536.215	27.24
536.412	27.29
536.61	27.34
536.808	27.45
537.006	27.49
537.203	27.46
537.401	27.4
537.599	27.48
537.797	27.52
537.994	27.51
538.192	27.57
538.39	27.63
538.587	27.66
538.785	27.78
538.983	27.73
539.18	27.74
539.378	27.81
539.575	27.91
539.773	28.01
539.97	27.99
540.168	28.05
540.366	28.06
540.563	28.08
540.761	28.19
540.958	28.16
541.155	28.17
541.353	28.22
541.55	28.26
541.748	28.28
541.945	28.24
542.143	28.25
542.34	28.23
542.537	28.26
542.735	28.25
542.932	28.24
543.129	28.25
543.327	28.31
543.524	28.29
543.721	28.33
543.919	28.34
544.116	28.42
544.313	28.45
544.51	28.53
544.708	28.66
544.905	28.74
545.102	28.75
545.299	28.78
545.496	28.86
545.693	28.93
545.891	28.95
546.088	29.02
546.285	28.98
546.482	29.09
546.679	29.14
546.876	29.09
547.073	29.12
547.27	29.13
547.467	29.11
547.664	29.07
547.861	29.11
548.058	29.1
548.255	29.1
548.452	29.08
548.649	29.07
548.846	28.97
549.043	28.96
549.24	28.96
549.437	29
549.633	29.12
549.83	29.04
550.027	29.05
550.224	29.06
550.421	29.07
550.618	29.18
550.814	29.14
551.011	29.22
551.208	29.18
551.405	29.1
551.601	29.07
551.798	29.06
551.995	29.16
552.191	29.17
552.388	29.15
552.585	29.02
552.781	29.03
552.978	29
553.175	29
553.371	29
553.568	29
553.764	28.92
553.961	28.84
554.157	28.89
554.354	28.81
554.55	28.82
554.747	28.98
554.943	29.05
555.14	29.05
555.336	28.97
555.533	29.09
555.729	29.12
555.926	29.13
556.122	29.19
556.318	29.14
556.515	29.25
556.711	29.28
556.907	29.29
557.104	29.18
557.3	29.32
557.496	29.36
557.693	29.27
557.889	29.5
558.085	29.73
558.281	29.77
558.478	29.78
558.674	29.87
558.87	29.79
559.066	29.74
559.262	29.76
559.459	29.77
559.655	29.9
559.851	30.02
560.047	29.89
560.243	29.88
560.439	29.87
560.635	29.72
560.831	29.58
561.027	29.74
561.223	29.81
561.419	29.79
561.615	29.77
561.811	29.76
562.007	29.64
562.203	29.65
562.399	29.55
562.595	29.6
562.791	29.79
562.987	29.71
563.183	29.6
563.379	29.55
563.575	29.68
563.771	29.76
563.966	29.66
564.162	29.75
564.358	29.75
564.554	29.85
564.75	29.72
564.945	29.67
565.141	29.77
565.337	29.74
565.533	29.69
565.728	29.74
565.924	29.68
566.12	29.72
566.315	29.69
566.511	29.69
566.707	29.67
566.902	29.8
567.098	29.9
567.293	29.88
567.489	29.91
567.684	29.98
567.88	29.86
568.076	29.98
568.271	30.09
568.467	30.12
568.662	30.15
568.858	30.07
569.053	29.96
569.248	29.91
569.444	30.06
569.639	30.1
569.835	30.17
570.03	30.26
570.225	30.11
570.421	30.13
570.616	30.13
570.812	30.12
571.007	30.15
571.202	30.18
571.397	30.2
571.593	30.18
571.788	30.22
571.983	30.18
572.178	30.07
572.374	30.2
572.569	30.18
572.764	30.18
572.959	30.22
573.154	30.31
573.35	30.34
573.545	30.37
573.74	30.32
573.935	30.35
574.13	30.32
574.325	30.44
574.52	30.37
574.715	30.38
574.91	30.34
575.105	30.4
575.3	30.45
575.495	30.47
575.69	30.47
575.885	30.43
576.08	30.42
576.275	30.46
576.47	30.31
576.665	30.39
576.86	30.34
577.055	30.36
577.25	30.28
577.444	30.22
577.639	30.29
577.834	30.3
578.029	30.3
578.224	30.33
578.418	30.36
578.613	30.6
578.808	30.51
579.003	30.62
579.197	30.73
579.392	30.77
579.587	30.83
579.781	30.83
579.976	30.72
580.171	30.9
580.365	30.81
580.56	30.69
580.755	30.59
580.949	30.7
581.144	30.68
581.338	30.6
581.533	30.51
581.727	30.53
581.922	30.61
582.116	30.76
582.311	30.73
582.505	30.8
582.7	30.94
582.894	31.09
583.089	31.11
583.283	31.04
583.478	31.1
583.672	31.21
583.866	31.13
584.061	31.09
584.255	31.05
584.449	31.15
584.644	31.23
584.838	31.25
585.032	31.22
585.226	31.12
585.421	31.24
585.615	31.23
585.809	31.35
586.003	31.56
586.198	31.54
586.392	31.58
586.586	31.52
586.78	31.48
586.974	31.72
587.168	31.63
587.363	31.6
587.557	31.7
587.751	31.88
587.945	31.8
588.139	31.66
588.333	31.61
588.527	31.62
588.721	31.58
588.915	31.57
589.109	31.4
589.303	31.51
589.497	31.6
589.691	31.5
589.885	31.54
590.079	31.51
590.273	31.57
590.466	31.66
590.66	31.67
590.854	31.75
591.048	31.83
591.242	31.87
591.436	31.86
591.629	31.9
591.823	31.97
592.017	31.92
592.211	32.07
592.404	32.03
592.598	32.13
592.792	32.14
592.986	32.13
593.179	32.17
593.373	32.24
593.567	32.27
593.76	32.24
593.954	32.28
594.147	32.24
594.341	32.22
594.535	32.26
594.728	32.26
594.922	32.31
595.115	32.36
595.309	32.28
595.502	32.22
595.696	32.27
595.889	32.23
596.083	32.19
596.276	32.16
596.47	32.13
596.663	32.17
596.856	32.05
597.05	32.05
597.243	32.09
597.437	32.14
597.63	32.1
597.823	31.97
598.017	32.03
598.21	32.12
598.403	32.2
598.596	32.22
598.79	32.16
598.983	32.22
599.176	32.44
599.369	32.35
599.563	32.3
599.756	32.41
599.949	32.63
600.142	32.76
600.335	32.51
600.528	32.45
600.722	32.5
600.915	32.41
601.108	32.38
601.301	32.18
601.494	32.29
601.687	32.41
601.88	32.33
602.073	32.24
602.266	32.11
602.459	32.12
602.652	32.13
602.845	32.22
603.038	32.27
603.231	32.42
603.424	32.49
603.617	32.43
603.809	32.42
604.002	32.51
604.195	32.46
604.388	32.52
604.581	32.74
604.774	32.85
604.966	32.84
605.159	32.94
605.352	32.96
605.545	33
605.737	33.13
605.93	33.16
606.123	33.24
606.316	33.38
606.508	33.38
606.701	33.35
606.894	33.55
607.086	33.64
607.279	33.77
607.471	33.88
607.664	33.85
607.857	33.92
608.049	34.09
608.242	34.23
608.434	34.36
608.627	34.67
608.819	34.96
609.012	35.03
609.204	35.42
609.397	35.77
609.589	36.06
609.782	36.65
609.974	37.16
610.166	37.48
610.359	37.83
610.551	38.32
610.743	38.74
610.936	38.98
611.128	39.39
611.32	39.35
611.513	39.45
611.705	39.5
611.897	39.35
612.09	39.1
612.282	38.95
612.474	38.86
612.666	38.62
612.858	38.3
613.051	38.11
613.243	37.92
613.435	37.85
613.627	37.68
613.819	37.58
614.011	37.35
614.203	37.19
614.395	37.12
614.588	36.96
614.78	36.87
614.972	36.55
615.164	36.39
615.356	36.04
615.548	35.81
615.74	35.56
615.932	35.45
616.124	35.35
616.315	35.39
616.507	35.39
616.699	35.08
616.891	34.89
617.083	34.99
617.275	34.79
617.467	34.7
617.659	34.75
617.85	34.67
618.042	34.53
618.234	34.57
618.426	34.26
618.618	34.06
618.809	34.29
619.001	34.28
619.193	34.31
619.384	34.48
619.576	34.61
619.768	34.58
619.959	34.69
620.151	34.82
620.343	34.85
620.534	35.1
620.726	35.15
620.917	34.94
621.109	34.82
621.301	34.87
621.492	34.74
621.684	34.53
621.875	34.67
622.067	34.63
622.258	34.6
622.45	34.69
622.641	34.47
622.832	34.58
623.024	34.88
623.215	35.16
623.407	35.12
623.598	35.23
623.789	35.25
623.981	35.21
624.172	35.13
624.363	35.1
624.555	34.88
624.746	35
624.937	35.01
625.129	34.8
625.32	34.65
625.511	34.68
625.702	34.76
625.893	34.96
626.085	34.95
626.276	34.99
626.467	35.05
626.658	35.19
626.849	35.26
627.04	35.26
627.231	35.39
627.422	35.66
627.614	35.7
627.805	35.68
627.996	35.6
628.187	35.56
628.378	35.82
628.569	35.86
628.76	35.91
628.951	36.05
629.142	36.22
629.332	36.19
629.523	36.03
629.714	35.83
629.905	36.07
630.096	36.34
630.287	36.45
630.478	36.33
630.669	36.21
630.859	36.2
631.05	36.11
631.241	36.08
631.432	36.1
631.623	36.16
631.813	36.35
632.004	36.2
632.195	35.91
632.385	35.62
632.576	35.64
632.767	35.73
632.957	35.65
633.148	35.58
633.339	35.41
633.529	35.31
633.72	35.3
633.91	35.28
634.101	35.21
634.292	35.24
634.482	35.58
634.673	35.53
634.863	35.37
635.054	35.3
635.244	35.38
635.435	35.45
635.625	35.59
635.815	35.41
636.006	35.45
636.196	35.38
636.387	35.43
636.577	35.37
636.767	35.24
636.958	35.46
637.148	35.62
637.338	35.67
637.529	35.84
637.719	35.82
637.909	36.05
638.099	36.17
638.29	36.2
638.48	36.04
638.67	36.05
638.86	36.18
639.05	36.16
639.241	36.08
639.431	35.83
639.621	35.65
639.811	35.48
640.001	35.37
640.191	35.16
640.381	35.38
640.571	35.43
640.761	35.55
640.951	35.41
641.141	35.26
641.331	35.22
641.521	35.52
641.711	35.39
641.901	35.53
642.091	35.58
642.281	35.64
642.471	35.56
642.661	35.72
642.851	35.6
643.041	35.67
643.231	35.77
643.42	35.89
643.61	35.9
643.8	36.06
643.99	36.01
644.18	36.15
644.369	36.3
644.559	36.49
644.749	36.71
644.939	36.7
645.128	37
645.318	37.06
645.508	37
645.697	36.98
645.887	37.05
646.076	37.24
646.266	37.12
646.456	37.11
646.645	36.75
646.835	36.58
647.024	36.77
647.214	36.58
647.403	36.59
647.593	36.66
647.782	36.69
647.972	36.83
648.161	36.7
648.351	36.85
648.54	36.68
648.73	37.03
648.919	37.28
649.108	37.18
649.298	37.25
649.487	37.36
649.677	37.52
649.866	37.51
650.055	37.46
650.244	37.77
650.434	37.68
650.623	37.76
650.812	37.54
651.002	37.21
651.191	37.21
651.38	37.19
651.569	37.06
651.758	37
651.947	37.17
652.137	37.13
652.326	37.22
652.515	37.23
652.704	37.36
652.893	37.54
653.082	37.82
653.271	37.72
653.46	37.88
653.649	38.07
653.838	38.16
654.027	37.85
654.216	37.77
654.405	37.52
654.594	37.46
654.783	37.61
654.972	37.83
655.161	37.7
655.35	37.7
655.539	37.68
655.728	37.77
655.916	37.65
656.105	37.8
656.294	37.84
656.483	37.9
656.672	37.79
656.86	37.57
657.049	37.37
657.238	37.34
657.427	37.51
657.615	37.29
657.804	37.1
657.993	37.38
658.181	37.44
658.37	37.7
658.559	37.74
658.747	37.91
658.936	37.91
659.125	37.68
659.313	37.83
659.502	37.8
659.69	38.08
659.879	38.4
660.067	38.34
660.256	38.42
660.444	38.27
660.633	38.29
660.821	38.39
661.01	38.53
661.198	39
661.387	38.91
661.575	39.26
661.763	39.14
661.952	38.84
662.14	38.89
662.328	38.87
662.517	39.16
662.705	38.97
662.893	39.06
663.082	39.22
663.27	39.19
663.458	39.26
663.646	39.01
663.834	38.88
664.023	38.89
664.211	38.64
664.399	38.83
664.587	38.29
664.775	38.66
664.963	38.51
665.152	38.18
665.34	38.2
665.528	38.22
665.716	37.98
665.904	38.31
666.092	38.5
666.28	38.71
666.468	38.4
666.656	38.63
666.844	38.41
667.032	38.46
667.22	38.74
667.408	38.66
667.596	39.05
667.784	39.2
667.971	39.11
668.159	39.03
668.347	39.03
668.535	39.25
668.723	39.4
668.911	39.53
669.098	39.27
669.286	39.05
669.474	39.05
669.662	38.84
669.849	39.01
670.037	39.17
670.225	39.32
670.413	39.13
670.6	39.23
670.788	39.13
670.976	39.36
671.163	39.63
671.351	39.74
671.538	39.81
671.726	39.71
671.913	39.55
672.101	39.4
672.289	39.37
672.476	39.38
672.664	39.43
672.851	39.46
673.039	39.3
673.226	39.27
673.413	39.52
673.601	39.36
673.788	39.06
673.976	39
674.163	39.16
674.35	39.19
674.538	39.45
674.725	39.45
674.912	39.43
675.1	39.5
675.287	39.5
675.474	39.46
675.662	39.62
675.849	40.06
676.036	39.98
676.223	39.85
676.411	40.1
676.598	40.01
676.785	39.8
676.972	39.92
677.159	39.77
677.346	39.93
677.533	39.94
677.721	40.1
677.908	40.19
678.095	40.19
678.282	40.28
678.469	40.13
678.656	40.28
678.843	40.38
679.03	40.4
679.217	40.58
679.404	40.51
679.591	40.43
679.778	40.24
679.964	40.07
680.151	40.2
680.338	40.32
680.525	40.27
680.712	40.22
680.899	40.33
681.086	40.33
681.272	40.17
681.459	40.22
681.646	40.16
681.833	40.23
682.02	40.3
682.206	40.6
682.393	40.56
682.58	40.68
682.766	40.64
682.953	40.56
683.14	40.8
683.326	40.8
683.513	40.78
683.7	41.08
683.886	41.14
684.073	41.42
684.259	41.19
684.446	41.06
684.632	41.16
684.819	41.31
685.005	41.35
685.192	41.23
685.378	41.69
685.565	41.82
685.751	41.73
685.938	41.83
686.124	41.69
686.31	41.68
686.497	41.84
686.683	41.72
686.87	41.7
687.056	41.99
687.242	42.12
687.429	41.82
687.615	41.94
687.801	42.05
687.987	42.3
688.174	42.27
688.36	42.69
688.546	42.5
688.732	42.43
688.918	42.35
689.105	42.25
689.291	42.18
689.477	41.99
689.663	41.88
689.849	42.12
690.035	41.57
690.221	41.59
690.407	41.48
690.593	41.53
690.779	41.56
690.965	41.68
691.151	41.41
691.337	41.35
691.523	41.4
691.709	41.52
691.895	41.12
692.081	41.31
692.267	41.48
692.453	41.64
692.639	41.85
692.825	41.87
693.011	41.67
693.196	41.9
693.382	41.77
693.568	42.01
693.754	42.2
693.94	42.35
694.125	42.51
694.311	42.55
694.497	42.33
694.682	42.42
694.868	42.32
695.054	42.42
695.239	42.18
695.425	42.35
695.611	42.42
695.796	42.06
695.982	41.98
696.168	41.95
696.353	41.63
696.539	41.31
696.724	41.25
696.91	41.59
697.095	41.64
697.281	41.83
697.466	41.72
697.652	41.64
697.837	41.77
698.023	41.73
698.208	41.63
698.393	41.78
698.579	41.91
698.764	42.01
698.949	41.93
699.135	41.79
699.32	41.93
699.505	41.84
699.691	41.78
699.876	41.73
700.061	41.78
700.246	42.05
700.432	42.03
700.617	42.04
700.802	41.77
700.987	41.76
701.172	42.04
701.358	42.01
701.543	42.3
701.728	42.43
701.913	42.88
702.098	42.64
702.283	42.58
702.468	42.84
702.653	42.86
702.838	43.08
703.023	43.23
703.208	43.53
703.393	43.17
703.578	43.36
703.763	43.43
703.948	43.02
704.133	43.64
704.318	43.7
704.503	43.54
704.688	43.84
704.873	43.95
705.057	43.94
705.242	44.13
705.427	44.44
705.612	44.54
705.797	44.23
705.981	44.54
706.166	44.39
706.351	44.31
706.536	44.19
706.72	44.13
706.905	44.04
707.09	44.01
707.274	43.7
707.459	43.54
707.644	43.39
707.828	43.67
708.013	43.46
708.197	43.68
708.382	43.83
708.567	44.03
708.751	44.15
708.936	43.88
709.12	44.15
709.305	44.2
709.489	44.53
709.673	44.72
709.858	44.66
710.042	44.53
710.227	44.56
710.411	44.2
710.596	44.42
710.78	44.45
710.964	45
711.149	44.74
711.333	44.72
711.517	44.66
711.702	44.39
711.886	44.41
712.07	45
712.254	44.52
712.438	44.78
712.623	44.56
712.807	44.63
712.991	44.31
713.175	44.09
713.359	43.96
713.544	44.06
713.728	43.95
713.912	43.97
714.096	43.77
714.28	44.11
714.464	43.73
714.648	43.84
714.832	43.73
715.016	44.04
715.2	44.63
715.384	44.6
715.568	44.18
715.752	44.31
715.936	44.21
716.12	44.04
716.304	44.04
716.488	44.28
716.671	44.05
716.855	43.95
717.039	43.64
717.223	42.91
717.407	42.74
717.59	42.63
717.774	42.75
717.958	42.84
718.142	42.6
718.325	42.39
718.509	42.18
718.693	42.02
718.877	41.74
719.06	41.64
719.244	41.68
719.428	41.81
719.611	41.95
719.795	41.48
719.978	41.5
720.162	41.5
720.345	41.59
720.529	41.79
720.713	42.01
720.896	42.48
721.08	42.69
721.263	43.13
721.446	43.24
721.63	43.4
721.813	43.37
721.997	43.45
722.18	43.56
722.364	43.56
722.547	43.81
722.73	43.66
722.914	43.31
723.097	43.49
723.28	43.23
723.464	42.96
723.647	42.96
723.83	43.22
724.013	43.27
724.197	42.97
724.38	43.11
724.563	43.02
724.746	43.36
724.929	43.5
725.112	43.03
725.296	43.23
725.479	43.76
725.662	43.84
725.845	43.64
726.028	43.82
726.211	44.14
726.394	43.94
726.577	44.02
726.76	44.05
726.943	44.08
727.126	44.4
727.309	44.09
727.492	43.77
727.675	43.72
727.858	43.75
728.041	43.53
728.224	43.63
728.407	43.47
728.589	43.26
728.772	43.27
728.955	43.53
729.138	43.25
729.321	43.73
729.503	43.8
729.686	43.97
729.869	44.34
730.052	44.18
730.234	43.95
730.417	44.35
730.6	44.47
730.782	44.47
730.965	44.33
731.148	44.56
731.33	44.17
731.513	44.18
731.695	43.78
731.878	43.32
732.061	43.35
732.243	43.39
732.426	43.2
732.608	43.08
732.791	42.85
732.973	42.64
733.156	42.09
733.338	41.98
733.52	41.9
733.703	41.81
733.885	42.25
734.068	42.46
734.25	42.75
734.432	42.5
734.615	42.72
734.797	42.67
734.979	42.82
735.162	43.18
735.344	43.12
735.526	43.03
735.708	42.99
735.891	42.73
736.073	42.9
736.255	42.79
736.437	43.1
736.619	42.9
736.802	43.07
736.984	42.9
737.166	43.23
737.348	43.97
737.53	43.94
737.712	44.12
737.894	44.27
738.076	44.02
738.258	44.33
738.44	44.16
738.622	43.93
738.804	44.05
738.986	43.85
739.168	43.64
739.35	43.49
739.532	43.36
739.714	43.46
739.896	43.55
740.078	43.51
740.259	43.01
740.441	43.38
740.623	43.75
740.805	43.77
740.987	44.27
741.168	44.75
741.35	44.4
741.532	44.61
741.714	44.64
741.895	44.71
742.077	45
742.259	45.67
742.44	45.88
742.622	45.5
742.804	45.35
742.985	45.13
743.167	44.85
743.348	44.71
743.53	44.67
743.711	44.78
743.893	44.71
744.075	44.7
744.256	44.39
744.438	43.85
744.619	44.32
744.8	44.26
744.982	44.53
745.163	44.17
745.345	44.44
745.526	44.7
745.707	44.6
745.889	44.73
746.07	44.45
746.252	44.28
746.433	44.28
746.614	44.29
746.795	43.99
746.977	43.38
747.158	44.08
747.339	44.39
747.52	44.12
747.702	44.46
747.883	44.14
748.064	44.44
748.245	44.6
748.426	44.56
748.607	44.25
748.788	44.51
748.97	44.62
749.151	44.14
749.332	43.79
749.513	44.01
749.694	43.96
749.875	43.81
750.056	43.6
750.237	43.59
750.418	43.74
750.599	43.87
750.78	43.95
750.96	43.78
751.141	44.34
751.322	44.98
751.503	45
751.684	45.48
751.865	45.63
752.046	45.83
752.226	45.37
752.407	45.33
752.588	45.44
752.769	45.43
752.949	45.67
753.13	44.83
753.311	44.82
753.492	44.54
753.672	44.06
753.853	44.32
754.034	44.46
754.214	44.95
754.395	44.71
754.575	44.97
754.756	45.03
754.937	45.08
755.117	45.5
755.298	44.47
755.478	45.07
755.659	44.59
755.839	43.98
756.02	43.71
756.2	43.45
756.381	43.96
756.561	43.83
756.741	43.84
756.922	44.15
757.102	44.17
757.283	44.97
757.463	44.43
757.643	44.74
757.823	45.87
758.004	45.28
758.184	45.23
758.364	45.18
758.545	44.82
758.725	44.22
758.905	43.63
759.085	43.39
759.265	43.21
759.446	43.01
759.626	42.76
759.806	42.58
759.986	42.56
760.166	42.76
760.346	41.69
760.526	41.82
760.706	42.28
760.886	42.54
761.066	42.44
761.246	41.95
761.426	42.84
761.606	42.99
761.786	42.52
761.966	43.13
762.146	42.73
762.326	43.13
762.506	42.91
762.686	42.94
762.866	42.89
763.046	43.24
763.225	43.94
763.405	43.34
763.585	43.53
763.765	43.57
763.945	43.42
764.124	43.72
764.304	43.97
764.484	44.18
764.664	44.41
764.843	44.73
765.023	44.54
765.203	44.29
765.382	44.66
765.562	44.18
765.741	44.55
765.921	44.65
766.101	44.39
766.28	44.17
766.46	44.45
766.639	44.37
766.819	44.1
766.998	43.95
767.178	44.31
767.357	43.87
767.537	44.65
767.716	44.33
767.896	44.1
768.075	44.67
768.254	45.14
768.434	45.01
768.613	44.71
768.792	44.63
768.972	44.7
769.151	43.79
769.33	43.32
769.51	42.46
769.689	42.7
769.868	42.79
770.047	42.15
770.226	41.82
770.406	41.16
770.585	41.15
770.764	41.73
770.943	41.67
771.122	42.41
771.301	43.15
771.48	42.81
771.66	42.93
771.839	43.5
772.018	43.52
772.197	43.02
772.376	43.79
772.555	43.81
772.734	43.11
772.913	43.21
773.092	42.54
773.271	42.85
773.449	42.8
773.628	42.39
773.807	41.99
773.986	42.18
774.165	42.72
774.344	42.71
774.523	42.68
774.701	43.36
774.88	43.71
775.059	44.05
775.238	44.37
775.417	45.08
775.595	45.17
775.774	44.88
775.953	44.73
776.131	44.59
776.31	44.29
776.489	43.57
776.667	42.71
776.846	42.64
777.025	41.95
777.203	40.97
777.382	41.16
777.56	41.09
777.739	41.9
777.917	41.4
778.096	41.55
778.274	41.16
778.453	41.74
778.631	42.28
778.81	41.99
778.988	42.83
779.166	43.64
779.345	44.35
779.523	43.98
779.702	42.93
779.88	43.61
780.058	43.51
780.237	44.12
780.415	43.67
780.593	44.05
780.771	43.69
780.95	44.47
781.128	43.56
781.306	43.06
781.484	43.31
781.662	43.61
781.841	43.71
782.019	43.09
782.197	42.52
782.375	42.76
782.553	41.63
782.731	42.85
782.909	42.08
783.087	42.66
783.265	41.94
783.443	42.46
783.621	42.69
783.799	42.22
783.977	43.16
784.155	43.46
784.333	43.62
784.511	44.23
784.689	43.23
784.867	43.62
785.045	43.98
785.223	44.65
785.4	43.65
785.578	43.68
785.756	44.14
785.934	43.98
786.112	43.52
786.289	43.66
786.467	43.83
786.645	43.87
786.823	43.23
787	42.72
787.178	41.85
787.356	41.58
787.533	41.41
787.711	40.82
787.889	40.6
788.066	41.1
788.244	40.87
788.421	40.67
788.599	40.93
788.776	40.36
788.954	39.96
789.131	40.71
789.309	41.34
789.486	41.36
789.664	41.63
789.841	41.74
790.019	41.48
790.196	40.81
790.373	41.05
790.551	40.52
790.728	41.25
790.906	40.55
791.083	40.94
791.26	40.26
791.437	40.22
791.615	40.4
791.792	40.36
791.969	40.44
792.146	40.06
792.324	39.1
792.501	39.12
792.678	38.92
792.855	39.88
793.032	39.81
793.209	40.38
793.387	40.4
793.564	39.67
793.741	39.57
793.918	39.3
794.095	41.1
794.272	42.26
794.449	42.72
794.626	41.63
794.803	41.65
794.98	40.71
795.157	39.33
795.334	39.94
795.511	40.02
795.688	40.48
795.864	39.92
796.041	38.9
796.218	38.34
796.395	37.81
796.572	37.72
796.749	38.74
796.925	38.69
797.102	39.94
797.279	39.77
797.456	39.89
797.632	39.23
797.809	39.76
797.986	40.31
798.162	40.81
798.339	41.04
798.516	41.3
798.692	40.5
798.869	40.81
799.046	41.11
799.222	40.06
799.399	40
799.575	39.12
799.752	39.39
799.928	39.49
800.105	39.59
800.281	40.39
800.458	40.7
800.634	40.01
800.811	40.38
800.987	39.74
801.163	39.25
801.34	39.38
801.516	40.1
801.692	40.58
801.869	40.35
802.045	39.48
802.221	39.32
802.398	39.89
802.574	40.97
802.75	40.89
802.926	41.24
803.103	41.91
803.279	41.7
803.455	42.11
803.631	41.08
803.807	42.09
803.983	41.2
804.16	41.73
804.336	41.83
804.512	41.49
804.688	41.89
804.864	41.49
805.04	40.96
805.216	40.98
805.392	40.84
805.568	40.84
805.744	38.4
805.92	39.82
806.096	37.85
806.272	36.2
806.448	34.71
806.623	33.96
806.799	34.64
806.975	35.34
807.151	35.36
807.327	35.37
807.503	35.15
807.678	36.84
807.854	35.29
808.03	35.09
808.206	37.33
808.381	38.61
808.557	39.35
808.733	39
808.908	37.88
809.084	38.15
809.26	38.49
809.435	39.28
809.611	37.05
809.787	38.07
809.962	38.14
810.138	36.85
810.313	37.42
810.489	37.03
810.664	36.39
810.84	37.89
811.015	38.14
811.191	37.83
811.366	36.46
811.542	38.07
811.717	37.7
811.892	39.26
812.068	39.7
812.243	39.75
812.419	39.03
812.594	38.79
812.769	38.22
812.944	36.82
813.12	36.06
813.295	37.33
813.47	37.07
813.645	37.53
813.821	36.95
813.996	36.24
814.171	34.79
814.346	34.83
814.521	35.59
814.697	35.57
814.872	36.68
815.047	36.83
815.222	36.54
815.397	35.39
815.572	34.01
815.747	33.53
815.922	33.69
816.097	33.66
816.272	34.1
816.447	34.08
816.622	33.43
816.797	32.82
816.972	33.25
817.147	33.26
817.322	34.67
817.496	36.35
817.671	36.94
817.846	36.93
818.021	37.1
818.196	36.1
818.371	36.44
818.545	36.81
818.72	37.74
818.895	37.83
819.069	37.7
819.244	37.72
819.419	36.88
819.594	36.83
819.768	37.74
819.943	38.17
820.117	38.63
820.292	37.83
820.467	37.17
820.641	36.5
820.816	36.18
820.99	36.16
821.165	36.33
821.339	36.28
821.514	36.52
821.688	36.06
821.863	35.99
822.037	36.02
822.212	36.39
822.386	36.79
822.56	37.03
822.735	37.27
822.909	37.26
823.084	37.3
823.258	37.31
823.432	37.14
823.606	37.52
823.781	37.53
823.955	37.66
824.129	37.41
824.303	37.27
824.478	37.35
824.652	37.05
824.826	36.96
825	36.93
825.174	36.99
825.348	37.05
825.523	36.18
825.697	36.17
825.871	35.58
826.045	35.69
826.219	35.61
826.393	35.37
826.567	35.21
826.741	35.06
826.915	35.16
827.089	35.36
827.263	35.2
827.437	35.68
827.611	35.57
827.784	35.64
827.958	35.84
828.132	35.88
828.306	35.38
828.48	35.85
828.654	36.13
828.827	35.68
829.001	35.45
829.175	34.83
829.349	34.62
829.522	34.95
829.696	35.01
829.87	34.74
830.044	34.69
830.217	35.75
830.391	35.68
830.565	35.1
830.738	36.05
830.912	36.55
831.085	37.68
831.259	36.98
831.432	36.3
831.606	36.2
831.779	34.92
831.953	33.79
832.126	33.42
832.3	33.28
832.473	33.65
832.647	32.91
832.82	33.22
832.994	33.34
833.167	34.03
833.34	33.74
833.514	34.07
833.687	34.38
833.86	35.4
834.034	34.98
834.207	34.92
834.38	35.02
834.553	34.67
834.727	34.15
834.9	33.79
835.073	33.5
835.246	33.6
835.419	33.6
835.593	33.16
835.766	32.45
835.939	32.71
836.112	32.43
836.285	31.96
836.458	32.14
836.631	31.82
836.804	31.49
836.977	31.97
837.15	31.85
837.323	32.13
837.496	33.47
837.669	33.17
837.842	32.13
838.015	32.94
838.188	33.53
838.361	34.09
838.533	34.99
838.706	38.14
838.879	37.77
839.052	39.61
839.225	38.11
839.398	38.54
839.57	39.46
839.743	39.88
839.916	38.72
840.088	39.44
840.261	39.14
840.434	39.22
840.607	36.01
840.779	34.93
840.952	32.17
841.124	32.73
841.297	31.73
841.47	31.37
841.642	32.12
841.815	31.23
841.987	29.72
842.16	28.57
842.332	28.85
842.505	31.16
842.677	30.76
842.85	32.33
843.022	32.8
843.194	32.68
843.367	30.86
843.539	29.54
843.712	30.76
843.884	31.94
844.056	33.07
844.229	29.44
844.401	29.43
844.573	32.06
844.745	31.91
844.918	30.15
845.09	30.33
845.262	30.91
845.434	30.7
845.606	27.97
845.779	27.83
845.951	27.33
846.123	29.95
846.295	27.31
846.467	27.65
846.639	27.3
846.811	26.39
846.983	26.72
847.155	29.72
847.327	29.35
847.499	31.57
847.671	30.59
847.843	33.69
848.015	33.47
848.187	34.6
848.359	34.41
848.531	35.18
848.703	34.52
848.875	30.45
849.047	24.3
849.218	23.54
849.39	23.67
849.562	21.74
849.734	21.94
849.905	19.67
850.077	18.54
850.249	18.6
850.421	17.65
850.592	19.08
850.764	21.16
850.936	26.08
851.107	25.71
851.279	27.34
851.451	29.74
851.622	27.99
851.794	28.32
851.965	30.02
852.137	28.89
852.308	25.3
852.48	25.91
852.651	24.94
852.823	24.83
852.994	25.1
853.166	24.83
853.337	21.96
853.509	21.56
853.68	23.63
853.851	23.23
854.023	19.26
854.194	23.62
854.365	20.81
854.537	23.54
854.708	21.89
854.879	25.15
855.05	21.71
855.222	24.84
855.393	24.42
855.564	21.15
855.735	17.44
855.906	22.22
856.078	22.35
856.249	21.44
856.42	21.5
856.591	24.64
856.762	24.75
856.933	25.1
857.104	20.1
857.275	22.65
857.446	24.89
857.617	26.2
857.788	24.63
857.959	26.38
858.13	30.42
858.301	28.82
858.472	23.66
858.643	20.67
858.814	24.82
858.985	29.26
859.155	28.17
859.326	30.47
859.497	34.23
859.668	32.3
859.839	33.08
860.009	32.2
860.18	33.05
860.351	35.32
860.522	35.17
860.692	30.08
860.863	29.35
861.034	26.95
861.204	26.79
861.375	26
861.546	28.4
861.716	24.9
861.887	25.35
862.057	26.54
862.228	24.65
862.398	23.22
862.569	25.21
862.739	23.57
862.91	23.46
863.08	20.61
863.251	16.58
863.421	16.14
863.592	14.33
863.762	15.46
863.932	13.26
864.103	13.87
864.273	14.04
864.443	17.92
864.614	18.38
864.784	21.84
864.954	19.46
865.125	23.63
865.295	22.58
865.465	22.58
865.635	21.17
865.805	23.07
865.976	26.03
866.146	28.03
866.316	23.3
866.486	22.76
866.656	17.27
866.826	20.15
866.996	19.54
867.166	24.38
867.336	20.35
867.506	18.2
867.676	19.03
867.846	17.11
868.016	19.39
868.186	21.04
868.356	21.22
868.526	24.63
868.696	26.2
868.866	24.11
869.036	17.54
869.206	23.64
869.376	25.87
869.545	26.52
869.715	25.93
869.885	24.01
870.055	27.44
870.224	26.53
870.394	23.34
870.564	20.87
870.734	19.22
870.903	24.01
871.073	25.2
871.243	20.13
871.412	13.87
871.582	11.05
871.751	8.69
871.921	0.85
872.091	4.78
872.26	2.24
872.43	5.48
872.599	8.77
872.769	11.59
872.938	10.53
873.108	14.05
873.277	16.59
873.446	21.59
873.616	22.05
873.785	25.72
873.955	25.23
874.124	26.51
874.293	25.81
874.463	27.67
874.632	22.16
874.801	22.46
874.971	22.13
875.14	22.31
875.309	22.35
875.478	24.28
875.647	23.71
875.817	23.31
875.986	24.97
876.155	23
876.324	20.88
876.493	27.57
876.662	29.75
876.831	25.5
877	25.04
877.17	24.74
877.339	26.16
877.508	28.57
877.677	27.61
877.846	31.67
878.015	32.73
878.184	30.12
878.352	28.3
878.521	24.98
878.69	28.45
878.859	28.62
879.028	27.16
879.197	24.87
879.366	22.41
879.534	23.64
879.703	23.75
879.872	25.3
880.041	25.64
880.21	25.2
880.378	26.36
880.547	27.3
880.716	28.99
880.884	28.68
881.053	29.8
881.222	30.92
881.39	30.51
881.559	30.15
881.727	30.47
881.896	30.66
882.065	30.72
882.233	30.32
882.402	29.89
882.57	29.59
882.739	29.65
882.907	28.76
883.076	28.47
883.244	28.51
883.412	28.24
883.581	28.3
883.749	28.44
883.918	28.34
884.086	27.69
884.254	27.9
884.423	27.71
884.591	27.73
884.759	28.51
884.927	28.75
885.096	27.83
885.264	27.16
885.432	25.52
885.6	23.93
885.769	22.93
885.937	24.58
886.105	24.05
886.273	24.34
886.441	22.58
886.609	21.39
886.777	20.91
886.945	20.97
887.113	21.41
887.281	19.88
887.449	21.35
887.617	22.04
887.785	19.75
887.953	22.49
888.121	22.05
888.289	19.4
888.457	18.32
888.625	16.05
888.793	17.01
888.961	16.4
889.129	17.75
889.296	16.42
889.464	14.36
889.632	15.71
889.8	8.44
889.967	1.23
890.135	10.85
