Data from 2938827__Reflection_04.txt Node
Date: Thu Mar 12 13:26:54 EDT 2015
User: robert
Spectrometer: USB4E03002
Autoset integration time: false
Trigger mode: 4
Integration Time (sec): 1.000000E-1
Scans to average: 10
Electric dark correction enabled: false
Nonlinearity correction enabled: false
Boxcar width: 5
Stray light correction enabled: false
XAxis mode: Wavelengths
Stop averaging: false
Number of Pixels in Spectrum: 3648
>>>>>Begin Spectral Data<<<<<
177.575	-1166.91
177.794	-2782.67
178.014	-5534.88
178.233	-2252.17
178.452	-1967.79
178.672	-2033.54
178.891	-2700.82
179.11	-4025.61
179.33	5746.67
179.549	-3509.8
179.768	-2837.3
179.987	3040.68
180.207	1765.2
180.426	2261.08
180.645	1840.55
180.864	859.92
181.084	586.2
181.303	659.54
181.522	567.7
181.741	651.78
181.96	569.09
182.179	529.11
182.398	510.36
182.618	652.48
182.837	687.04
183.056	676.94
183.275	1126.3
183.494	2602.86
183.713	1550
183.932	4490.36
184.151	-3644.55
184.37	-5016.67
184.589	-2096.47
184.808	-2131.58
185.027	-8785.37
185.246	4450.6
185.465	3149.14
185.684	2141.52
185.903	1657.71
186.122	1544.64
186.341	886.54
186.56	503.09
186.779	609.4
186.998	554.07
187.216	541.81
187.435	654.56
187.654	659.46
187.873	585.65
188.092	582.27
188.311	591.13
188.53	542.93
188.748	672.36
188.967	838.09
189.186	653.07
189.405	655.66
189.623	813.81
189.842	607.43
190.061	661.82
190.28	630.89
190.498	482.54
190.717	516.76
190.936	683.3
191.154	727.39
191.373	824.88
191.592	679.57
191.81	727
192.029	603.07
192.248	1001.49
192.466	1320
192.685	2796.77
192.904	-8553.85
193.122	-19700
193.341	7417.78
193.559	3674.74
193.778	25838.46
193.996	-2810.08
194.215	-1521.3
194.433	-824.88
194.652	-1029.49
194.87	-1621.89
195.089	-1296.09
195.307	-1061.39
195.526	-814.87
195.744	-790.5
195.963	-790.73
196.181	-1000
196.399	-1151.88
196.618	-2131.64
196.836	-2513.79
197.055	-1819.6
197.273	-1013.31
197.491	-1595.54
197.71	-2268.63
197.928	-1930.06
198.146	-3258.65
198.365	-3182.14
198.583	-39000
198.801	9494.29
199.019	3745.56
199.238	1632.57
199.456	1245.59
199.674	1182.41
199.892	1087.5
200.111	1857.45
200.329	776.7
200.547	643.74
200.765	633.45
200.983	666.99
201.202	697.07
201.42	1153.59
201.638	2141.1
201.856	2416.55
202.074	1382.61
202.292	1463.56
202.51	938.44
202.728	1988.69
202.946	2156.33
203.165	1854.5
203.383	1876.72
203.601	1334.57
203.819	725.35
204.037	661.21
204.255	627.78
204.473	546.55
204.691	580.54
204.909	610.36
205.127	630.71
205.345	1102.97
205.562	1250.36
205.78	1570.09
205.998	1382.54
206.216	3192.66
206.434	2591.91
206.652	-3336.27
206.87	-2888.89
207.088	-2116.15
207.306	-2192.36
207.523	-3712
207.741	-8475
207.959	5653.13
208.177	2143.79
208.395	1638.57
208.612	1232.98
208.83	1359
209.048	670.07
209.266	712.24
209.483	628.43
209.701	472.68
209.919	418.53
210.136	373.46
210.354	375.97
210.572	426.63
210.79	653.57
211.007	539.78
211.225	544.96
211.442	474.77
211.66	479.06
211.878	435.59
212.095	522.7
212.313	547.01
212.53	558.59
212.748	501.89
212.966	547.64
213.183	430.33
213.401	500.65
213.618	456.66
213.836	567.21
214.053	644.5
214.271	789.77
214.488	1005.23
214.705	917.88
214.923	824.64
215.14	1107.74
215.358	614.36
215.575	697.79
215.793	560.89
216.01	549.62
216.227	473.53
216.445	406.34
216.662	342.86
216.879	337.92
217.097	333.3
217.314	324.81
217.531	348.24
217.749	408.82
217.966	320.99
218.183	309.57
218.4	300
218.618	291.48
218.835	273.09
219.052	297.51
219.269	280.42
219.487	285.34
219.704	264.79
219.921	249.34
220.138	234.09
220.355	235.14
220.572	246.98
220.79	225.91
221.007	215.59
221.224	226.11
221.441	213.2
221.658	204.11
221.875	188.14
222.092	175.76
222.309	162.19
222.526	157.71
222.743	162.16
222.96	146.63
223.177	148.98
223.394	141.2
223.611	132.89
223.828	128.72
224.045	123.35
224.262	112.3
224.479	108.79
224.696	102.54
224.913	97.4
225.13	90.85
225.347	89.87
225.564	83.43
225.781	79.43
225.997	74.8
226.214	69.65
226.431	59.34
226.648	56.06
226.865	50.97
227.082	47.63
227.298	41.43
227.515	35.9
227.732	30.96
227.949	28.97
228.165	27.14
228.382	24.8
228.599	21.97
228.816	22.05
229.032	20.92
229.249	20.41
229.466	19.91
229.682	20.03
229.899	20.37
230.116	21.07
230.332	21.33
230.549	21.29
230.765	22.89
230.982	24.89
231.199	26.61
231.415	29.15
231.632	30.9
231.848	32.38
232.065	33.08
232.281	36.09
232.498	36.93
232.714	38.02
232.931	37.82
233.147	37.77
233.364	37.4
233.58	36.57
233.797	35.28
234.013	34.59
234.23	34.19
234.446	34.58
234.662	32.67
234.879	32.68
235.095	33.48
235.312	33.86
235.528	34.67
235.744	35.8
235.961	35.43
236.177	35.75
236.393	36.13
236.61	37.38
236.826	37.84
237.042	39.21
237.258	40.11
237.475	40.35
237.691	40.58
237.907	38.95
238.123	38.84
238.339	39.18
238.556	40.85
238.772	41.34
238.988	39.58
239.204	37.88
239.42	35.34
239.636	34.09
239.853	31.3
240.069	29.89
240.285	28.73
240.501	26.9
240.717	25.16
240.933	22.54
241.149	21.15
241.365	19.93
241.581	19.23
241.797	18.56
242.013	17.3
242.229	16.68
242.445	16.9
242.661	16.33
242.877	16.73
243.093	16.5
243.309	16.8
243.525	16.71
243.741	17.54
243.957	17.94
244.173	18.27
244.388	18.99
244.604	19.21
244.82	18.74
245.036	18.75
245.252	17.62
245.468	16.99
245.683	16.04
245.899	14.62
246.115	13.44
246.331	13.01
246.547	12.38
246.762	12.03
246.978	11.81
247.194	11.53
247.409	11.31
247.625	11.07
247.841	11.04
248.057	10.95
248.272	11.57
248.488	12.4
248.703	12.34
248.919	12.99
249.135	13.64
249.35	14.35
249.566	15.35
249.782	16.54
249.997	17.53
250.213	18.89
250.428	20.31
250.644	20.15
250.859	20.08
251.075	21.07
251.29	21.05
251.506	20.59
251.721	19.94
251.937	19.53
252.152	18.97
252.368	18.5
252.583	18.61
252.798	18.25
253.014	18.49
253.229	18.17
253.445	18.17
253.66	19.03
253.875	19.76
254.091	21.5
254.306	21.38
254.521	21.8
254.737	22.24
254.952	22.06
255.167	22.8
255.383	22.69
255.598	23.42
255.813	22.62
256.028	21.95
256.244	22.09
256.459	20.58
256.674	20.6
256.889	19.72
257.104	19.29
257.32	18.16
257.535	16.71
257.75	16.46
257.965	15.26
258.18	14.45
258.395	12.97
258.61	11.68
258.826	10.81
259.041	10.3
259.256	9.76
259.471	9.01
259.686	8.4
259.901	8.03
260.116	7.54
260.331	7.6
260.546	7.55
260.761	7.62
260.976	7.86
261.191	8.07
261.406	8.38
261.621	9.05
261.836	10.07
262.05	11.08
262.265	12.28
262.48	13.18
262.695	13.51
262.91	14.56
263.125	15.18
263.34	15.66
263.555	16.32
263.769	16.04
263.984	16.25
264.199	16.05
264.414	15.99
264.629	16.28
264.843	16.05
265.058	16.04
265.273	15.42
265.488	15.14
265.702	14.48
265.917	14.38
266.132	14.86
266.346	14.68
266.561	14.11
266.776	13.8
266.99	13.15
267.205	13.59
267.42	13.2
267.634	12.86
267.849	12.93
268.063	12.83
268.278	12.66
268.492	12.37
268.707	12.06
268.922	12.16
269.136	12.09
269.351	12.08
269.565	11.09
269.78	10.77
269.994	10.78
270.209	10.39
270.423	10.47
270.637	10.08
270.852	9.64
271.066	9.66
271.281	9.8
271.495	9.48
271.709	9.37
271.924	9.58
272.138	9.67
272.353	9.81
272.567	9.84
272.781	9.87
272.996	10.06
273.21	10.34
273.424	10.43
273.638	10.45
273.853	10.85
274.067	10.95
274.281	11.63
274.495	12.36
274.71	12.66
274.924	13.11
275.138	12.91
275.352	12.94
275.566	13.39
275.781	13.33
275.995	13.22
276.209	13.7
276.423	14.14
276.637	13.65
276.851	12.85
277.065	12.25
277.279	11.85
277.493	11.59
277.707	11.66
277.921	11.17
278.135	10.97
278.349	11.05
278.563	10.65
278.777	10.33
278.991	10.69
279.205	11.36
279.419	11.62
279.633	11.67
279.847	11.98
280.061	11.94
280.275	11.85
280.489	11.73
280.703	11.13
280.917	10.84
281.131	10.79
281.344	10.63
281.558	10.28
281.772	10.24
281.986	10.23
282.2	10.17
282.414	10.09
282.627	9.94
282.841	9.96
283.055	10.32
283.269	10.61
283.482	10.86
283.696	10.21
283.91	10.08
284.123	9.86
284.337	9.72
284.551	9.58
284.764	9.51
284.978	9.26
285.192	9.15
285.405	8.73
285.619	8.63
285.833	8.4
286.046	8.4
286.26	8.4
286.473	8.37
286.687	8.54
286.9	8.51
287.114	8.43
287.327	8.69
287.541	8.87
287.754	9.24
287.968	9.37
288.181	9.27
288.395	9.68
288.608	9.72
288.822	10
289.035	9.68
289.248	9.86
289.462	9.97
289.675	10
289.889	10.06
290.102	9.97
290.315	9.8
290.529	9.89
290.742	10
290.955	9.91
291.169	9.7
291.382	10.05
291.595	10.52
291.808	10.56
292.022	10.5
292.235	10.33
292.448	10.75
292.661	10.95
292.875	11.08
293.088	11.08
293.301	11.61
293.514	11.88
293.727	11.89
293.94	11.16
294.153	11.08
294.367	10.94
294.58	10.97
294.793	10.96
295.006	10.81
295.219	10.88
295.432	10.96
295.645	10.75
295.858	10.59
296.071	10.44
296.284	10.61
296.497	10.59
296.71	10.74
296.923	10.72
297.136	10.43
297.349	10.54
297.562	10.33
297.775	10.47
297.988	10.65
298.201	10.89
298.414	11.14
298.626	11.25
298.839	11.41
299.052	11.73
299.265	12.09
299.478	12.32
299.691	12.39
299.903	13.07
300.116	13.29
300.329	13.09
300.542	13.2
300.755	13.33
300.967	13.57
301.18	13.61
301.393	13.41
301.605	13.76
301.818	14.03
302.031	14.15
302.243	13.97
302.456	13.96
302.669	13.96
302.881	13.99
303.094	13.97
303.307	13.86
303.519	14.32
303.732	14.56
303.944	14.39
304.157	14.41
304.37	14.61
304.582	14.86
304.795	14.91
305.007	15.59
305.22	15.97
305.432	16.16
305.645	16.76
305.857	16.66
306.069	17.1
306.282	17.09
306.494	17.14
306.707	17.25
306.919	17.13
307.132	17.25
307.344	16.97
307.556	16.6
307.769	16.65
307.981	16.19
308.193	16.27
308.406	16.18
308.618	16.05
308.83	15.93
309.043	15.92
309.255	15.37
309.467	15.18
309.679	15.17
309.892	15.15
310.104	14.78
310.316	14.66
310.528	14.4
310.74	14.11
310.953	14.11
311.165	14.13
311.377	14.1
311.589	14.41
311.801	14.35
312.013	14.37
312.225	14.49
312.437	15.1
312.649	15.42
312.862	15.5
313.074	15.87
313.286	16.29
313.498	16.51
313.71	16.43
313.922	16.86
314.134	17.04
314.346	16.96
314.558	17.04
314.77	16.95
314.982	17.42
315.193	17.63
315.405	17.52
315.617	17.54
315.829	17.76
316.041	17.68
316.253	17.69
316.465	17.88
316.677	17.95
316.888	18.26
317.1	18.43
317.312	18.1
317.524	18.22
317.736	18.48
317.947	18.69
318.159	18.84
318.371	19.29
318.583	19.48
318.794	19.82
319.006	20.17
319.218	19.97
319.43	20.06
319.641	20.18
319.853	20.11
320.064	20.32
320.276	20.24
320.488	20.51
320.699	20.82
320.911	20.81
321.123	20.24
321.334	20.34
321.546	20.14
321.757	20.53
321.969	20.22
322.18	20.5
322.392	20.46
322.603	20.68
322.815	20.35
323.026	20.16
323.238	19.72
323.449	19.71
323.661	19.58
323.872	19.39
324.083	18.99
324.295	19.11
324.506	18.95
324.718	18.56
324.929	18.4
325.14	18.73
325.352	18.63
325.563	18.58
325.774	18.64
325.986	18.57
326.197	18.97
326.408	18.54
326.62	18.45
326.831	18.85
327.042	18.96
327.253	18.88
327.464	19.05
327.676	18.93
327.887	19.27
328.098	19.44
328.309	20.01
328.52	20.32
328.732	20.6
328.943	21.27
329.154	21.03
329.365	20.91
329.576	21.06
329.787	20.75
329.998	20.9
330.209	20.74
330.42	21.1
330.631	20.96
330.842	20.81
331.053	21.13
331.264	20.52
331.475	20.45
331.686	20.69
331.897	20.91
332.108	20.69
332.319	20.92
332.53	21.17
332.741	20.73
332.952	20.57
333.163	20.14
333.374	20.03
333.585	20.55
333.795	20.64
334.006	20.65
334.217	20.58
334.428	20.37
334.639	20.28
334.849	20.36
335.06	20.33
335.271	20.29
335.482	20.56
335.692	20.39
335.903	19.89
336.114	19.62
336.325	19.79
336.535	19.61
336.746	20.14
336.957	19.93
337.167	19.85
337.378	19.98
337.589	19.81
337.799	19.78
338.01	19.93
338.22	19.92
338.431	20.01
338.642	19.7
338.852	19.79
339.063	19.59
339.273	19.68
339.484	19.76
339.694	19.75
339.905	19.75
340.115	20.06
340.326	20.18
340.536	20.21
340.746	20.6
340.957	20.83
341.167	20.82
341.378	20.83
341.588	20.45
341.799	20.09
342.009	19.86
342.219	19.79
342.43	19.35
342.64	18.96
342.85	19.01
343.061	18.56
343.271	18.4
343.481	18.35
343.691	18.22
343.902	18.73
344.112	18.83
344.322	18.8
344.532	18.55
344.743	18.55
344.953	18.32
345.163	18.26
345.373	18.29
345.583	18.18
345.793	17.76
346.004	18
346.214	17.66
346.424	17.51
346.634	17.67
346.844	17.8
347.054	17.62
347.264	18.16
347.474	18.2
347.684	18.15
347.894	17.99
348.104	18.45
348.314	18
348.524	17.83
348.734	18.03
348.944	17.96
349.154	17.8
349.364	17.97
349.574	17.65
349.784	17.3
349.994	17.27
350.204	17.4
350.413	17.29
350.623	17.33
350.833	17.65
351.043	17.38
351.253	17.23
351.463	17.65
351.672	17.78
351.882	17.99
352.092	18.29
352.302	18.46
352.511	18.59
352.721	18.22
352.931	18.2
353.141	18.13
353.35	17.93
353.56	18.03
353.77	17.66
353.979	17.67
354.189	17.4
354.399	17.37
354.608	17.1
354.818	17.14
355.027	17.45
355.237	17.44
355.447	16.93
355.656	17.44
355.866	17.07
356.075	16.94
356.285	16.7
356.494	16.68
356.704	16.47
356.913	16.79
357.123	16.59
357.332	16.44
357.542	16.53
357.751	16.77
357.96	16.56
358.17	16.86
358.379	16.94
358.589	16.86
358.798	16.55
359.007	16.39
359.217	15.85
359.426	15.86
359.635	15.8
359.845	15.36
360.054	15.19
360.263	14.95
360.472	14.89
360.682	14.85
360.891	14.72
361.1	14.83
361.309	14.89
361.519	14.87
361.728	14.64
361.937	14.68
362.146	14.87
362.355	15.02
362.564	15.13
362.774	15.18
362.983	15.02
363.192	15.22
363.401	15.2
363.61	15.15
363.819	15.18
364.028	15.29
364.237	15.29
364.446	15.04
364.655	14.96
364.864	14.89
365.073	14.61
365.282	14.58
365.491	14.38
365.7	14.33
365.909	14.57
366.118	14.63
366.327	14.65
366.536	14.49
366.745	14.55
366.954	14.74
367.162	14.8
367.371	14.76
367.58	15.08
367.789	15.23
367.998	15.46
368.207	15.5
368.415	15.85
368.624	15.75
368.833	15.89
369.042	15.87
369.25	15.8
369.459	15.7
369.668	15.87
369.877	15.52
370.085	15.43
370.294	15.16
370.503	14.88
370.711	14.49
370.92	14.44
371.129	14.24
371.337	14.3
371.546	14.3
371.754	14.2
371.963	14.16
372.171	14.47
372.38	14.3
372.589	14.34
372.797	14.25
373.006	14.12
373.214	14.09
373.423	14.13
373.631	14
373.84	13.65
374.048	13.52
374.256	13.29
374.465	12.94
374.673	12.94
374.882	12.87
375.09	12.99
375.298	12.98
375.507	12.95
375.715	12.85
375.923	12.7
376.132	12.75
376.34	12.88
376.548	12.88
376.757	12.86
376.965	12.75
377.173	12.59
377.381	12.59
377.59	12.7
377.798	12.68
378.006	12.49
378.214	12.66
378.423	12.65
378.631	12.76
378.839	12.82
379.047	12.74
379.255	12.72
379.463	12.79
379.671	12.38
379.879	12.17
380.088	12.2
380.296	12.53
380.504	12.37
380.712	12.25
380.92	12.02
381.128	11.96
381.336	12.01
381.544	12.14
381.752	12.12
381.96	12.35
382.168	12.25
382.376	12.2
382.584	12.05
382.791	11.98
382.999	11.86
383.207	11.49
383.415	11.19
383.623	11.19
383.831	11.13
384.039	11.07
384.247	10.93
384.454	10.96
384.662	10.82
384.87	10.67
385.078	10.62
385.285	10.55
385.493	10.82
385.701	10.91
385.909	10.78
386.116	10.88
386.324	11.08
386.532	11.13
386.739	11.01
386.947	10.94
387.155	10.89
387.362	10.85
387.57	10.87
387.778	10.85
387.985	10.96
388.193	11.09
388.4	10.78
388.608	10.84
388.816	10.65
389.023	10.88
389.231	10.86
389.438	11.11
389.646	11.22
389.853	11.05
390.061	10.86
390.268	10.71
390.475	10.66
390.683	10.71
390.89	10.34
391.098	10.24
391.305	10.08
391.512	9.95
391.72	9.54
391.927	9.38
392.135	9.46
392.342	9.41
392.549	9.58
392.756	9.26
392.964	8.94
393.171	8.86
393.378	8.88
393.586	8.67
393.793	8.62
394	8.46
394.207	8.47
394.414	8.44
394.622	8.61
394.829	8.58
395.036	8.76
395.243	9.08
395.45	9.26
395.657	9.26
395.864	9.46
396.072	9.39
396.279	9.5
396.486	9.49
396.693	9.49
396.9	9.21
397.107	8.97
397.314	9.03
397.521	8.97
397.728	8.79
397.935	8.77
398.142	8.63
398.349	8.7
398.556	8.85
398.763	8.95
398.97	8.97
399.177	8.98
399.383	8.82
399.59	8.75
399.797	8.67
400.004	8.84
400.211	8.91
400.418	8.88
400.625	8.88
400.831	8.75
401.038	8.64
401.245	8.56
401.452	8.72
401.658	8.93
401.865	8.87
402.072	8.86
402.279	8.58
402.485	8.45
402.692	8.39
402.899	8.46
403.105	8.56
403.312	8.42
403.519	8.32
403.725	8.18
403.932	8.08
404.138	7.77
404.345	7.63
404.552	7.71
404.758	7.78
404.965	7.81
405.171	7.58
405.378	7.46
405.584	7.41
405.791	7.33
405.997	7.24
406.204	7.11
406.41	7.28
406.617	7.23
406.823	7.19
407.029	7.23
407.236	7.16
407.442	7.3
407.649	7.52
407.855	7.47
408.061	7.5
408.268	7.57
408.474	7.57
408.68	7.58
408.887	7.66
409.093	7.74
409.299	7.55
409.505	7.46
409.712	7.45
409.918	7.2
410.124	7.25
410.33	7.22
410.537	7.21
410.743	7.32
410.949	7.3
411.155	7.38
411.361	7.33
411.567	7.27
411.773	7.34
411.98	7.35
412.186	7.23
412.392	7.21
412.598	7.37
412.804	7.56
413.01	7.49
413.216	7.69
413.422	7.64
413.628	7.66
413.834	7.88
414.04	7.94
414.246	7.71
414.452	7.72
414.658	7.67
414.864	7.58
415.07	7.5
415.275	7.48
415.481	7.19
415.687	7.13
415.893	7.1
416.099	6.9
416.305	6.81
416.511	7.06
416.716	7.03
416.922	7
417.128	6.81
417.334	6.63
417.539	6.47
417.745	6.42
417.951	6.2
418.157	5.99
418.362	6.03
418.568	6
418.774	5.73
418.979	5.69
419.185	5.54
419.391	5.56
419.596	5.48
419.802	5.54
420.008	5.45
420.213	6.08
420.419	6.05
420.624	5.97
420.83	5.87
421.035	5.92
421.241	5.9
421.446	5.94
421.652	5.92
421.857	5.79
422.063	5.71
422.268	5.78
422.474	5.29
422.679	5.27
422.885	5.22
423.09	5.26
423.295	5.23
423.501	5.19
423.706	5.16
423.911	5.17
424.117	5.3
424.322	5.32
424.527	5.33
424.733	5.3
424.938	5.41
425.143	5.45
425.349	5.37
425.554	5.38
425.759	5.51
425.964	5.64
426.169	5.62
426.375	5.66
426.58	5.69
426.785	5.73
426.99	5.67
427.195	5.62
427.4	5.56
427.605	5.79
427.811	5.91
428.016	5.85
428.221	5.81
428.426	5.92
428.631	5.79
428.836	5.85
429.041	5.83
429.246	5.97
429.451	6.01
429.656	6.15
429.861	6.14
430.066	6.1
430.271	6.02
430.476	6.06
430.681	5.94
430.886	6.02
431.09	6.02
431.295	5.94
431.5	5.9
431.705	5.82
431.91	5.75
432.115	5.5
432.32	5.4
432.524	5.36
432.729	5.41
432.934	5.47
433.139	5.46
433.343	5.45
433.548	5.46
433.753	5.42
433.958	5.54
434.162	5.55
434.367	5.63
434.572	5.73
434.776	5.8
434.981	5.65
435.186	5.56
435.39	5.61
435.595	5.65
435.799	5.64
436.004	5.71
436.209	5.66
436.413	5.64
436.618	5.64
436.822	5.61
437.027	5.51
437.231	5.61
437.436	5.68
437.64	5.63
437.845	5.57
438.049	5.63
438.253	5.68
438.458	5.63
438.662	5.62
438.867	5.64
439.071	5.57
439.275	5.69
439.48	5.6
439.684	5.6
439.888	5.52
440.093	5.45
440.297	5.44
440.501	5.33
440.706	5.36
440.91	5.29
441.114	5.24
441.318	5.38
441.523	5.34
441.727	5.39
441.931	5.34
442.135	5.35
442.339	5.47
442.543	5.49
442.748	5.58
442.952	5.58
443.156	5.66
443.36	5.81
443.564	5.76
443.768	5.7
443.972	5.64
444.176	5.7
444.38	5.69
444.584	5.61
444.788	5.44
444.992	5.32
445.196	5.19
445.4	5.02
445.604	4.89
445.808	4.77
446.012	4.74
446.216	4.72
446.42	4.67
446.624	4.69
446.828	4.68
447.032	4.71
447.235	4.66
447.439	4.73
447.643	4.9
447.847	4.97
448.051	5.12
448.254	5.19
448.458	5.23
448.662	5.32
448.866	5.35
449.069	5.31
449.273	5.44
449.477	5.58
449.681	5.56
449.884	5.5
450.088	5.58
450.292	5.41
450.495	5.39
450.699	5.47
450.902	5.31
451.106	5.32
451.31	5.4
451.513	5.35
451.717	5.4
451.92	5.44
452.124	5.44
452.327	5.3
452.531	5.55
452.734	5.46
452.938	5.42
453.141	5.51
453.345	5.65
453.548	5.72
453.752	5.72
453.955	5.69
454.158	5.63
454.362	5.7
454.565	5.87
454.769	5.7
454.972	5.93
455.175	5.96
455.379	5.98
455.582	5.93
455.785	5.84
455.988	5.92
456.192	5.94
456.395	5.95
456.598	5.91
456.801	5.83
457.005	5.87
457.208	5.79
457.411	5.76
457.614	5.68
457.817	5.59
458.021	5.46
458.224	5.32
458.427	5.23
458.63	5.24
458.833	5.16
459.036	5.11
459.239	4.95
459.442	4.91
459.645	4.85
459.848	4.81
460.051	4.79
460.254	4.87
460.457	4.85
460.66	4.86
460.863	4.83
461.066	4.93
461.269	4.89
461.472	5.05
461.675	5.13
461.878	5.22
462.081	5.33
462.284	5.34
462.486	5.35
462.689	5.44
462.892	5.51
463.095	5.5
463.298	5.56
463.5	5.57
463.703	5.56
463.906	5.54
464.109	5.47
464.311	5.43
464.514	5.6
464.717	5.66
464.92	5.77
465.122	5.71
465.325	5.79
465.528	5.67
465.73	5.81
465.933	5.78
466.135	5.68
466.338	5.76
466.541	5.84
466.743	5.7
466.946	5.58
467.148	5.52
467.351	5.54
467.553	5.59
467.756	5.67
467.958	5.67
468.161	5.62
468.363	5.7
468.566	5.63
468.768	5.66
468.971	5.72
469.173	5.81
469.375	5.71
469.578	5.74
469.78	5.73
469.983	5.76
470.185	5.75
470.387	5.79
470.59	5.78
470.792	5.9
470.994	5.84
471.196	5.79
471.399	5.71
471.601	5.73
471.803	5.83
472.005	5.69
472.208	5.67
472.41	5.6
472.612	5.67
472.814	5.74
473.016	5.6
473.218	5.6
473.421	5.65
473.623	5.69
473.825	5.77
474.027	5.71
474.229	5.75
474.431	5.7
474.633	5.71
474.835	5.71
475.037	5.55
475.239	5.6
475.441	5.53
475.643	5.47
475.845	5.37
476.047	5.28
476.249	5.23
476.451	5.35
476.653	5.3
476.855	5.26
477.057	5.22
477.258	5.27
477.46	5.29
477.662	5.31
477.864	5.32
478.066	5.31
478.268	5.38
478.469	5.38
478.671	5.34
478.873	5.41
479.075	5.35
479.276	5.24
479.478	5.21
479.68	5.09
479.882	5.07
480.083	5.09
480.285	5.12
480.487	5.03
480.688	4.89
480.89	4.81
481.091	4.74
481.293	4.75
481.495	4.74
481.696	4.65
481.898	4.55
482.099	4.44
482.301	4.3
482.502	4.23
482.704	4.16
482.905	4.14
483.107	4.06
483.308	3.97
483.51	3.95
483.711	3.91
483.913	3.92
484.114	3.92
484.315	3.94
484.517	3.95
484.718	3.95
484.92	3.98
485.121	3.98
485.322	4.02
485.524	4.12
485.725	4.12
485.926	4.13
486.127	4.12
486.329	4.11
486.53	4.1
486.731	4.07
486.932	4.05
487.134	4.02
487.335	4.07
487.536	4.03
487.737	4
487.938	4.03
488.139	4.07
488.341	4.09
488.542	4.13
488.743	4.16
488.944	4.26
489.145	4.34
489.346	4.37
489.547	4.35
489.748	4.42
489.949	4.43
490.15	4.38
490.351	4.35
490.552	4.36
490.753	4.32
490.954	4.34
491.155	4.29
491.356	4.25
491.557	4.25
491.758	4.27
491.959	4.28
492.159	4.33
492.36	4.4
492.561	4.45
492.762	4.46
492.963	4.54
493.164	4.57
493.364	4.72
493.565	4.82
493.766	4.92
493.967	5
494.167	5.11
494.368	5.1
494.569	5.11
494.769	5.13
494.97	5.21
495.171	5.15
495.371	5.19
495.572	5.14
495.773	5.14
495.973	5.13
496.174	5.1
496.375	5.04
496.575	5.05
496.776	5.14
496.976	5.18
497.177	5.17
497.377	5.25
497.578	5.28
497.778	5.3
497.979	5.37
498.179	5.43
498.38	5.54
498.58	5.61
498.78	5.71
498.981	5.75
499.181	5.81
499.382	5.81
499.582	5.89
499.782	5.94
499.983	5.96
500.183	5.97
500.383	6.07
500.584	6.03
500.784	6.11
500.984	6.04
501.184	5.95
501.385	6
501.585	6.17
501.785	6.1
501.985	6.11
502.185	6.19
502.386	6.2
502.586	6.15
502.786	6.2
502.986	6.23
503.186	6.32
503.386	6.47
503.586	6.52
503.786	6.44
503.987	6.57
504.187	6.54
504.387	6.62
504.587	6.71
504.787	6.75
504.987	6.87
505.187	6.72
505.387	6.78
505.587	6.74
505.786	6.76
505.986	6.89
506.186	6.88
506.386	6.95
506.586	6.91
506.786	6.93
506.986	7.01
507.186	6.99
507.386	7.23
507.585	7.27
507.785	7.37
507.985	7.39
508.185	7.43
508.384	7.53
508.584	7.61
508.784	7.7
508.984	7.81
509.183	7.84
509.383	7.92
509.583	7.87
509.782	7.88
509.982	8.02
510.182	8.2
510.381	8.22
510.581	8.28
510.781	8.34
510.98	8.41
511.18	8.42
511.379	8.48
511.579	8.56
511.778	8.73
511.978	8.87
512.177	8.86
512.377	8.8
512.576	8.87
512.776	8.93
512.975	9.07
513.175	9.1
513.374	9.25
513.573	9.31
513.773	9.27
513.972	9.35
514.172	9.46
514.371	9.75
514.57	9.92
514.77	9.99
514.969	10.11
515.168	10.21
515.367	10.21
515.567	10.3
515.766	10.41
515.965	10.67
516.164	10.73
516.364	10.66
516.563	10.6
516.762	10.55
516.961	10.62
517.16	10.7
517.359	10.68
517.559	10.81
517.758	10.8
517.957	10.87
518.156	10.87
518.355	10.95
518.554	11.12
518.753	11.21
518.952	11.34
519.151	11.46
519.35	11.51
519.549	11.66
519.748	11.78
519.947	12.01
520.146	12.12
520.345	12.21
520.544	12.28
520.743	12.42
520.942	12.43
521.141	12.59
521.339	12.65
521.538	12.69
521.737	12.73
521.936	12.87
522.135	12.87
522.333	13.03
522.532	13.1
522.731	13.23
522.93	13.28
523.129	13.46
523.327	13.48
523.526	13.7
523.725	13.76
523.923	13.81
524.122	13.84
524.321	13.88
524.519	13.88
524.718	13.92
524.917	13.99
525.115	13.96
525.314	14.02
525.512	14.06
525.711	14.07
525.909	14.16
526.108	14.2
526.306	14.23
526.505	14.24
526.703	14.31
526.902	14.36
527.1	14.37
527.299	14.39
527.497	14.36
527.696	14.37
527.894	14.36
528.092	14.39
528.291	14.46
528.489	14.48
528.688	14.53
528.886	14.55
529.084	14.63
529.283	14.68
529.481	14.79
529.679	14.89
529.877	15
530.076	15.1
530.274	15.21
530.472	15.26
530.67	15.36
530.869	15.47
531.067	15.55
531.265	15.61
531.463	15.69
531.661	15.73
531.859	15.76
532.057	15.8
532.255	15.87
532.454	15.87
532.652	15.96
532.85	16.02
533.048	16.04
533.246	16.1
533.444	16.16
533.642	16.2
533.84	16.26
534.038	16.33
534.236	16.37
534.434	16.44
534.632	16.52
534.83	16.54
535.027	16.59
535.225	16.64
535.423	16.74
535.621	16.73
535.819	16.77
536.017	16.77
536.215	16.84
536.412	16.91
536.61	16.95
536.808	16.98
537.006	17.15
537.203	17.24
537.401	17.34
537.599	17.37
537.797	17.5
537.994	17.62
538.192	17.77
538.39	17.87
538.587	17.95
538.785	18
538.983	18.07
539.18	18.04
539.378	18.06
539.575	18.03
539.773	18.06
539.97	18.08
540.168	18.02
540.366	18
540.563	18.02
540.761	18.01
540.958	17.99
541.155	18.02
541.353	18.08
541.55	18.12
541.748	18.12
541.945	18.15
542.143	18.16
542.34	18.22
542.537	18.29
542.735	18.33
542.932	18.4
543.129	18.48
543.327	18.6
543.524	18.68
543.721	18.75
543.919	18.93
544.116	19.04
544.313	19.16
544.51	19.32
544.708	19.4
544.905	19.54
545.102	19.64
545.299	19.7
545.496	19.74
545.693	19.7
545.891	19.71
546.088	19.66
546.285	19.69
546.482	19.65
546.679	19.62
546.876	19.67
547.073	19.66
547.27	19.7
547.467	19.77
547.664	19.76
547.861	19.84
548.058	19.87
548.255	20
548.452	20.04
548.649	20.18
548.846	20.24
549.043	20.16
549.24	20.26
549.437	20.22
549.633	20.2
549.83	20.16
550.027	20.11
550.224	20.07
550.421	20.07
550.618	20.02
550.814	20
551.011	20.01
551.208	20.08
551.405	20.01
551.601	19.96
551.798	20.03
551.995	20.05
552.191	20.08
552.388	20.1
552.585	20.04
552.781	20.1
552.978	20.1
553.175	20.12
553.371	20.11
553.568	20.08
553.764	20.17
553.961	20.13
554.157	20.22
554.354	20.28
554.55	20.4
554.747	20.49
554.943	20.39
555.14	20.46
555.336	20.44
555.533	20.57
555.729	20.57
555.926	20.48
556.122	20.72
556.318	20.69
556.515	20.67
556.711	20.57
556.907	20.62
557.104	20.82
557.3	20.65
557.496	20.69
557.693	20.65
557.889	20.74
558.085	20.84
558.281	20.76
558.478	20.75
558.674	20.63
558.87	20.7
559.066	20.64
559.262	20.57
559.459	20.71
559.655	20.62
559.851	20.64
560.047	20.65
560.243	20.74
560.439	20.59
560.635	20.52
560.831	20.61
561.027	20.57
561.223	20.45
561.419	20.5
561.615	20.53
561.811	20.62
562.007	20.6
562.203	20.52
562.399	20.46
562.595	20.57
562.791	20.7
562.987	20.75
563.183	20.77
563.379	20.91
563.575	20.93
563.771	20.88
563.966	20.84
564.162	20.79
564.358	20.78
564.554	20.66
564.75	20.64
564.945	20.51
565.141	20.46
565.337	20.51
565.533	20.51
565.728	20.55
565.924	20.53
566.12	20.52
566.315	20.61
566.511	20.65
566.707	20.75
566.902	20.75
567.098	20.89
567.293	20.92
567.489	20.87
567.684	20.77
567.88	20.74
568.076	20.87
568.271	20.89
568.467	20.89
568.662	20.93
568.858	20.91
569.053	20.79
569.248	20.75
569.444	20.6
569.639	20.7
569.835	20.74
570.03	20.73
570.225	20.63
570.421	20.5
570.616	20.49
570.812	20.45
571.007	20.36
571.202	20.43
571.397	20.42
571.593	20.59
571.788	20.62
571.983	20.67
572.178	20.69
572.374	20.7
572.569	20.93
572.764	20.95
572.959	20.99
573.154	21.11
573.35	21.18
573.545	21.28
573.74	21.23
573.935	21.23
574.13	21.13
574.325	21.17
574.52	21.18
574.715	21.1
574.91	21.14
575.105	21.17
575.3	21.18
575.495	21.2
575.69	21.16
575.885	21.32
576.08	21.37
576.275	21.56
576.47	21.54
576.665	21.56
576.86	21.66
577.055	21.68
577.25	21.68
577.444	21.87
577.639	21.92
577.834	21.94
578.029	21.96
578.224	21.98
578.418	21.97
578.613	22.13
578.808	22.29
579.003	22.25
579.197	22.36
579.392	22.48
579.587	22.44
579.781	22.57
579.976	22.72
580.171	22.68
580.365	22.7
580.56	22.73
580.755	22.69
580.949	22.68
581.144	22.81
581.338	22.79
581.533	22.8
581.727	22.87
581.922	22.74
582.116	22.66
582.311	22.8
582.505	22.9
582.7	22.9
582.894	22.9
583.089	22.92
583.283	22.86
583.478	22.95
583.672	22.93
583.866	22.87
584.061	22.91
584.255	22.94
584.449	22.71
584.644	22.62
584.838	22.51
585.032	22.51
585.226	22.55
585.421	22.59
585.615	22.65
585.809	22.74
586.003	22.94
586.198	23.01
586.392	23.23
586.586	23.37
586.78	23.36
586.974	23.63
587.168	23.57
587.363	23.6
587.557	23.51
587.751	23.46
587.945	23.38
588.139	23.22
588.333	23.13
588.527	23.04
588.721	23.01
588.915	23.01
589.109	23.05
589.303	23.17
589.497	23.06
589.691	23.02
589.885	22.87
590.079	22.88
590.273	22.85
590.466	22.92
590.66	22.94
590.854	23.1
591.048	23.09
591.242	23.05
591.436	23
591.629	23.12
591.823	23.31
592.017	23.4
592.211	23.33
592.404	23.34
592.598	23.33
592.792	23.25
592.986	23
593.179	23
593.373	23.02
593.567	22.94
593.76	22.84
593.954	22.79
594.147	22.84
594.341	22.77
594.535	22.76
594.728	22.79
594.922	22.72
595.115	22.76
595.309	22.56
595.502	22.44
595.696	22.52
595.889	22.5
596.083	22.34
596.276	22.28
596.47	22.35
596.663	22.29
596.856	22.36
597.05	22.43
597.243	22.58
597.437	22.76
597.63	22.82
597.823	22.93
598.017	23.08
598.21	23.23
598.403	23.34
598.596	23.33
598.79	23.52
598.983	23.44
599.176	23.52
599.369	23.54
599.563	23.62
599.756	23.67
599.949	23.69
600.142	23.61
600.335	23.72
600.528	23.7
600.722	23.81
600.915	23.79
601.108	23.79
601.301	23.75
601.494	23.63
601.687	23.53
601.88	23.43
602.073	23.16
602.266	23.15
602.459	22.95
602.652	22.7
602.845	22.69
603.038	22.67
603.231	22.63
603.424	22.52
603.617	22.38
603.809	22.41
604.002	22.34
604.195	22.52
604.388	22.47
604.581	22.53
604.774	22.73
604.966	22.73
605.159	22.7
605.352	22.72
605.545	22.88
605.737	23.07
605.93	23.28
606.123	23.61
606.316	23.59
606.508	23.82
606.701	24.03
606.894	24.09
607.086	24.21
607.279	24.34
607.471	24.61
607.664	24.6
607.857	24.71
608.049	24.63
608.242	24.71
608.434	24.8
608.627	24.91
608.819	25.01
609.012	25.25
609.204	25.62
609.397	26.15
609.589	26.53
609.782	26.97
609.974	27.4
610.166	27.95
610.359	28.34
610.551	28.81
610.743	29.28
610.936	29.88
611.128	30.23
611.32	30.38
611.513	30.28
611.705	30.23
611.897	30.26
612.09	30.17
612.282	29.99
612.474	29.83
612.666	29.89
612.858	29.77
613.051	29.33
613.243	29.27
613.435	28.98
613.627	28.82
613.819	28.65
614.011	28.62
614.203	28.52
614.395	28.42
614.588	28.15
614.78	27.81
614.972	27.52
615.164	27.36
615.356	27.12
615.548	27.08
615.74	26.97
615.932	26.88
616.124	26.58
616.315	26.5
616.507	26.39
616.699	26.25
616.891	26.19
617.083	26.21
617.275	26.15
617.467	26.08
617.659	25.98
617.85	26.08
618.042	26.08
618.234	26.03
618.426	25.94
618.618	25.96
618.809	25.92
619.001	25.72
619.193	25.69
619.384	25.63
619.576	25.65
619.768	25.5
619.959	25.36
620.151	25.28
620.343	25.17
620.534	25.01
620.726	24.86
620.917	25.11
621.109	25.06
621.301	24.98
621.492	24.93
621.684	24.97
621.875	25.23
622.067	25.31
622.258	25.31
622.45	25.58
622.641	25.75
622.832	25.94
623.024	25.83
623.215	26.02
623.407	25.92
623.598	25.96
623.789	25.92
623.981	25.76
624.172	25.86
624.363	25.71
624.555	25.55
624.746	25.54
624.937	25.47
625.129	25.55
625.32	25.56
625.511	25.6
625.702	25.55
625.893	25.49
626.085	25.31
626.276	25.22
626.467	25.24
626.658	25.11
626.849	25.21
627.04	25.04
627.231	24.95
627.422	25.1
627.614	25.25
627.805	25.41
627.996	25.44
628.187	25.66
628.378	25.63
628.569	25.72
628.76	25.92
628.951	25.83
629.142	25.99
629.332	26.05
629.523	25.96
629.714	25.82
629.905	25.94
630.096	26
630.287	26.14
630.478	26.02
630.669	26.24
630.859	26.31
631.05	26.34
631.241	26.42
631.432	26.43
631.623	26.43
631.813	26.39
632.004	26.2
632.195	26.02
632.385	25.84
632.576	25.86
632.767	25.63
632.957	25.58
633.148	25.68
633.339	25.5
633.529	25.51
633.72	25.3
633.91	25.3
634.101	25.22
634.292	25.32
634.482	25.41
634.673	25.67
634.863	25.69
635.054	25.67
635.244	25.7
635.435	25.76
635.625	25.6
635.815	25.88
636.006	25.95
636.196	25.95
636.387	25.84
636.577	25.85
636.767	25.78
636.958	25.6
637.148	25.74
637.338	25.7
637.529	25.68
637.719	25.85
637.909	25.69
638.099	25.5
638.29	25.75
638.48	25.91
638.67	25.88
638.86	26.09
639.05	26.45
639.241	26.36
639.431	26.17
639.621	26.34
639.811	26.51
640.001	26.47
640.191	26.55
640.381	26.42
640.571	26.43
640.761	26.51
640.951	26.35
641.141	26.29
641.331	26.23
641.521	26.43
641.711	26.5
641.901	26.44
642.091	26.75
642.281	26.94
642.471	27.04
642.661	27.35
642.851	27.19
643.041	27.11
643.231	27.16
643.42	27.32
643.61	27.06
643.8	27
643.99	26.93
644.18	26.77
644.369	26.75
644.559	26.83
644.749	26.5
644.939	26.76
645.128	26.82
645.318	26.76
645.508	26.63
645.697	26.84
645.887	26.89
646.076	26.95
646.266	26.93
646.456	27.1
646.645	27.25
646.835	27.11
647.024	26.92
647.214	27.17
647.403	27.36
647.593	27.44
647.782	27.47
647.972	27.31
648.161	27.38
648.351	27.42
648.54	27.32
648.73	27.31
648.919	27.51
649.108	27.72
649.298	27.47
649.487	27.37
649.677	27.54
649.866	27.46
650.055	27.67
650.244	27.73
650.434	27.75
650.623	27.8
650.812	27.75
651.002	27.54
651.191	27.64
651.38	27.82
651.569	27.77
651.758	27.64
651.947	27.8
652.137	27.84
652.326	27.77
652.515	27.83
652.704	27.83
652.893	27.72
653.082	27.93
653.271	27.82
653.46	27.53
653.649	27.49
653.838	27.48
654.027	27.44
654.216	27.14
654.405	27.2
654.594	27.17
654.783	27
654.972	27.13
655.161	27.39
655.35	27.28
655.539	27.56
655.728	27.61
655.916	27.76
656.105	27.6
656.294	27.67
656.483	27.36
656.672	27.23
656.86	27.22
657.049	26.91
657.238	26.69
657.427	26.73
657.615	26.53
657.804	26.64
657.993	26.47
658.181	26.59
658.37	26.65
658.559	26.83
658.747	26.95
658.936	27.11
659.125	26.91
659.313	26.73
659.502	26.91
659.69	26.98
659.879	26.96
660.067	27.03
660.256	27.02
660.444	27
660.633	27.12
660.821	27.21
661.01	27.19
661.198	27.33
661.387	27.85
661.575	27.55
661.763	27.63
661.952	27.72
662.14	27.77
662.328	27.95
662.517	28.1
662.705	28.06
662.893	27.87
663.082	28.09
663.27	28.62
663.458	28.46
663.646	28.73
663.834	28.79
664.023	28.76
664.211	28.97
664.399	28.88
664.587	28.96
664.775	29
664.963	29.05
665.152	28.95
665.34	28.96
665.528	28.92
665.716	28.99
665.904	28.76
666.092	28.89
666.28	28.85
666.468	28.99
666.656	29.01
666.844	29.16
667.032	29.26
667.22	29.05
667.408	29.01
667.596	29.14
667.784	29.11
667.971	29.39
668.159	29.17
668.347	28.96
668.535	29.08
668.723	29.07
668.911	28.88
669.098	28.94
669.286	28.93
669.474	28.82
669.662	28.69
669.849	28.68
670.037	28.75
670.225	28.91
670.413	28.9
670.6	28.77
670.788	28.95
670.976	29.21
671.163	29.32
671.351	29.39
671.538	29.32
671.726	29.52
671.913	29.4
672.101	29.33
672.289	29.51
672.476	29.57
672.664	29.55
672.851	29.29
673.039	28.9
673.226	28.93
673.413	28.99
673.601	29.07
673.788	29.17
673.976	29.43
674.163	29.45
674.35	29.17
674.538	29.17
674.725	29.42
674.912	29.34
675.1	29.7
675.287	29.73
675.474	29.9
675.662	29.9
675.849	29.81
676.036	29.92
676.223	29.95
676.411	30.21
676.598	30.08
676.785	29.93
676.972	30.3
677.159	30.1
677.346	29.95
677.533	29.94
677.721	29.74
677.908	29.7
678.095	29.51
678.282	29.33
678.469	29
678.656	29.15
678.843	28.8
679.03	28.34
679.217	28.38
679.404	28.46
679.591	28.25
679.778	28.63
679.964	28.41
680.151	28.27
680.338	28.15
680.525	28.21
680.712	28.18
680.899	28.14
681.086	28.34
681.272	28.29
681.459	28.31
681.646	28.42
681.833	28.31
682.02	28.53
682.206	28.71
682.393	29.16
682.58	29.32
682.766	29.61
682.953	30.19
683.14	30.44
683.326	30.86
683.513	31.02
683.7	31
683.886	30.94
684.073	31.17
684.259	31.33
684.446	31.13
684.632	31.32
684.819	31.37
685.005	31.33
685.192	31.24
685.378	30.92
685.565	30.67
685.751	31.05
685.938	31.15
686.124	31
686.31	31.02
686.497	31.46
686.683	31.24
686.87	31.05
687.056	30.92
687.242	31.01
687.429	31.25
687.615	31.35
687.801	31.29
687.987	31.49
688.174	31.38
688.36	31.11
688.546	30.77
688.732	31.11
688.918	31.04
689.105	31.36
689.291	31.38
689.477	31.36
689.663	31.6
689.849	31.56
690.035	31.33
690.221	31.57
690.407	31.95
690.593	31.84
690.779	31.73
690.965	31.84
691.151	31.82
691.337	31.7
691.523	31.47
691.709	31.58
691.895	31.61
692.081	31.7
692.267	31.87
692.453	31.97
692.639	32
692.825	32.14
693.011	32.55
693.196	32.36
693.382	32.74
693.568	33.34
693.754	33.32
693.94	33.36
694.125	33.39
694.311	33.51
694.497	33.16
694.682	33.65
694.868	33.59
695.054	33.34
695.239	33.53
695.425	33.11
695.611	32.79
695.796	32.26
695.982	32.01
696.168	32.02
696.353	31.79
696.539	31.46
696.724	31.06
696.91	30.51
697.095	30.37
697.281	29.99
697.466	30
697.652	29.87
697.837	29.68
698.023	29.6
698.208	29.4
698.393	29.25
698.579	29.47
698.764	29.24
698.949	29.34
699.135	29.51
699.32	29.38
699.505	29.5
699.691	29.41
699.876	29.69
700.061	29.88
700.246	29.91
700.432	29.94
700.617	29.95
700.802	30.48
700.987	30.78
701.172	30.97
701.358	31.51
701.543	31.44
701.728	31.52
701.913	31.71
702.098	32.26
702.283	32.76
702.468	33.25
702.653	33.52
702.838	33.5
703.023	33.99
703.208	33.72
703.393	33.54
703.578	34.08
703.763	34.73
703.948	34.68
704.133	34.45
704.318	34.73
704.503	34.8
704.688	35.15
704.873	35.35
705.057	35.27
705.242	35.53
705.427	35.94
705.612	35.83
705.797	35.77
705.981	36.36
706.166	36.64
706.351	36.5
706.536	36.51
706.72	36.35
706.905	36.55
707.09	36.84
707.274	36.75
707.459	36.53
707.644	36.94
707.828	37.07
708.013	36.62
708.197	36.53
708.382	36.61
708.567	36.54
708.751	36.33
708.936	35.92
709.12	35.96
709.305	36.03
709.489	36.36
709.673	36.05
709.858	35.96
710.042	36.07
710.227	35.73
710.411	35.54
710.596	35.66
710.78	35.82
710.964	36
711.149	35.84
711.333	35.74
711.517	35.36
711.702	35.31
711.886	35.14
712.07	35.29
712.254	35.66
712.438	35.76
712.623	35.37
712.807	35.18
712.991	35.05
713.175	34.58
713.359	34.63
713.544	34.38
713.728	34.11
713.912	33.99
714.096	33.58
714.28	33.2
714.464	33.19
714.648	33.18
714.832	33.31
715.016	33.34
715.2	33.24
715.384	32.99
715.568	33.21
715.752	33.03
715.936	33.04
716.12	33.23
716.304	33.37
716.488	33.13
716.671	33.24
716.855	33.03
717.039	33.27
717.223	33.59
717.407	33.64
717.59	34.02
717.774	34.21
717.958	34.32
718.142	34.61
718.325	34.74
718.509	34.74
718.693	35
718.877	35.18
719.06	34.75
719.244	35.12
719.428	35.29
719.611	35.18
719.795	35.11
719.978	35.47
720.162	35.67
720.345	35.57
720.529	36.22
720.713	35.87
720.896	35.86
721.08	36.46
721.263	36.13
721.446	36.29
721.63	36.12
721.813	36.5
721.997	36.25
722.18	35.59
722.364	35.61
722.547	35.06
722.73	35.73
722.914	35.83
723.097	35.51
723.28	35.72
723.464	35.3
723.647	35.77
723.83	35.85
724.013	36.3
724.197	36.85
724.38	37.13
724.563	37.4
724.746	36.89
724.929	37.36
725.112	37.43
725.296	36.94
725.479	37.67
725.662	37.41
725.845	37.56
726.028	36.77
726.211	36.56
726.394	36.73
726.577	36.41
726.76	36.5
726.943	35.96
727.126	35.6
727.309	35.63
727.492	35.71
727.675	35.36
727.858	35
728.041	35.04
728.224	34.92
728.407	34.38
728.589	34.8
728.772	34.6
728.955	34.86
729.138	35.04
729.321	35.38
729.503	35.1
729.686	35.45
729.869	35.62
730.052	35.92
730.234	35.96
730.417	36.33
730.6	35.86
730.782	36.28
730.965	36.5
731.148	37.05
731.33	37.32
731.513	37.38
731.695	37.53
731.878	37.47
732.061	36.99
732.243	36.91
732.426	36.69
732.608	37.22
732.791	36.75
732.973	36.8
733.156	36.55
733.338	35.96
733.52	36.11
733.703	35.83
733.885	36.23
734.068	36.68
734.25	36.78
734.432	36.83
734.615	36.39
734.797	36.94
734.979	36.51
735.162	36.25
735.344	36.46
735.526	35.84
735.708	36.13
735.891	35.93
736.073	35.74
736.255	36.18
736.437	36.32
736.619	37.13
736.802	36.99
736.984	37.09
737.166	37.4
737.348	37.43
737.53	38.09
737.712	37.97
737.894	37.78
738.076	38.22
738.258	38.11
738.44	38.17
738.622	38.35
738.804	38.46
738.986	38.77
739.168	38.95
739.35	38.92
739.532	38.88
739.714	39.21
739.896	39.05
740.078	38.89
740.259	38.44
740.441	38.3
740.623	37.9
740.805	37.48
740.987	37.68
741.168	37.27
741.35	38.45
741.532	38.4
741.714	38.04
741.895	38.69
742.077	39.16
742.259	39.95
742.44	40.51
742.622	41.33
742.804	42.47
742.985	42.61
743.167	43
743.348	42.2
743.53	42.22
743.711	42.44
743.893	42.57
744.075	42.18
744.256	42
744.438	42.2
744.619	41.48
744.8	40.88
744.982	40.67
745.163	40.64
745.345	41.37
745.526	41.94
745.707	42.53
745.889	42.31
746.07	43.03
746.252	43.25
746.433	43.04
746.614	43.16
746.795	43.37
746.977	43.38
747.158	43.39
747.339	42.95
747.52	42.74
747.702	42.14
747.883	42.97
748.064	42.05
748.245	41.37
748.426	41.71
748.607	41.75
748.788	41.34
748.97	41.59
749.151	41.93
749.332	42.11
749.513	42.17
749.694	42.78
749.875	41.96
750.056	43
750.237	42.94
750.418	42.62
750.599	42.29
750.78	43.07
750.96	42.86
751.141	43.98
751.322	43.55
751.503	43.67
751.684	43.86
751.865	44.4
752.046	44.7
752.226	45.05
752.407	45.22
752.588	45.31
752.769	44.51
752.949	43.65
753.13	42.93
753.311	43.7
753.492	43.72
753.672	43.32
753.853	42.74
754.034	41.83
754.214	42.62
754.395	42.35
754.575	42.86
754.756	44.24
754.937	45.27
755.117	44.81
755.298	44.18
755.478	44.16
755.659	43.83
755.839	44.11
756.02	44.72
756.2	43.78
756.381	43.42
756.561	43.5
756.741	42.72
756.922	42.14
757.102	42.12
757.283	42.02
757.463	41.62
757.643	42.24
757.823	42.56
758.004	42.07
758.184	41.84
758.364	42.52
758.545	42.59
758.725	41.96
758.905	42.38
759.085	42.5
759.265	41.78
759.446	41.51
759.626	41.87
759.806	40.75
759.986	40.43
760.166	40.77
760.346	39.64
760.526	39.2
760.706	39.04
760.886	38.85
761.066	38.61
761.246	39.16
761.426	38.89
761.606	37.19
761.786	37.33
761.966	37.83
762.146	37.29
762.326	37.63
762.506	36.96
762.686	36.66
762.866	36.4
763.046	35.76
763.225	35.63
763.405	35.54
763.585	35.56
763.765	35.23
763.945	34.87
764.124	35.26
764.304	35.67
764.484	36
764.664	36.58
764.843	36.98
765.023	37.16
765.203	37.15
765.382	37.01
765.562	37.16
765.741	37.95
765.921	38.44
766.101	38.54
766.28	37.91
766.46	38.21
766.639	38.58
766.819	39.17
766.998	40.16
767.178	40.9
767.357	41.94
767.537	42.89
767.716	42.71
767.896	43.42
768.075	43.83
768.254	45.33
768.434	45.57
768.613	45.87
768.792	46.41
768.972	47.32
769.151	47.62
769.33	48.03
769.51	48.52
769.689	49.33
769.868	48.81
770.047	49.23
770.226	48.74
770.406	48.57
770.585	48
770.764	47.25
770.943	46.21
771.122	45.78
771.301	45.85
771.48	45.96
771.66	46.6
771.839	46.79
772.018	47.02
772.197	47.63
772.376	48.99
772.555	50.25
772.734	49.68
772.913	49.63
773.092	50.7
773.271	50.67
773.449	50.66
773.628	50.19
773.807	49.89
773.986	49.66
774.165	48.54
774.344	47.85
774.523	46
774.701	46.92
774.88	47.27
775.059	46.8
775.238	46.22
775.417	46.46
775.595	47.34
775.774	47.98
775.953	47.43
776.131	47.56
776.31	47.54
776.489	48.16
776.667	47.97
776.846	47.9
777.025	46.8
777.203	46.76
777.382	46.5
777.56	45.38
777.739	44.89
777.917	45.89
778.096	46.7
778.274	46.69
778.453	47.16
778.631	46.98
778.81	47.71
778.988	48.6
779.166	48.86
779.345	48.46
779.523	48.35
779.702	48.75
779.88	48.72
780.058	48.32
780.237	48.06
780.415	49
780.593	49.02
780.771	48.67
780.95	48.79
781.128	49.42
781.306	49.48
781.484	50.61
781.662	50.5
781.841	50.1
782.019	49.76
782.197	50.95
782.375	50.01
782.553	50.16
782.731	51.02
782.909	50.36
783.087	50.81
783.265	51.53
783.443	50.4
783.621	50.8
783.799	51.52
783.977	53.77
784.155	52.49
784.333	52.24
784.511	52.82
784.689	51.47
784.867	52.5
785.045	52.49
785.223	52.07
785.4	53.59
785.578	53.06
785.756	52.45
785.934	51.11
786.112	51.7
786.289	52
786.467	51.78
786.645	52
786.823	51.49
787	51.46
787.178	50.79
787.356	49.69
787.533	48.79
787.711	48.74
787.889	47.75
788.066	46.95
788.244	47.09
788.421	47.19
788.599	48
788.776	47.93
788.954	47.39
789.131	48.24
789.309	48.08
789.486	48.25
789.664	48.84
789.841	49.9
790.019	50.59
790.196	51.26
790.373	50.81
790.551	50.48
790.728	51.21
790.906	52.38
791.083	53.39
791.26	53.32
791.437	54.5
791.615	53.85
791.792	54.74
791.969	54.92
792.146	54
792.324	54.07
792.501	55.13
792.678	55.28
792.855	56.38
793.032	56.05
793.209	56.84
793.387	56.83
793.564	56.44
793.741	55.74
793.918	56.38
794.095	56.63
794.272	56.25
794.449	54.87
794.626	55.71
794.803	53.62
794.98	52.31
795.157	51.93
795.334	53.62
795.511	54.22
795.688	54.37
795.864	53.57
796.041	53.13
796.218	54.3
796.395	54.69
796.572	53.75
796.749	53.96
796.925	54.53
797.102	55.09
797.279	53.64
797.456	53.88
797.632	52.46
797.809	53
797.986	53.71
798.162	52.36
798.339	51.43
798.516	51.39
798.692	51.61
798.869	51.45
799.046	51.5
799.222	51.59
799.399	51.25
799.575	51.62
799.752	51.19
799.928	51.69
800.105	53.65
800.281	54.46
800.458	54.93
800.634	55.84
800.811	55.78
800.987	56.88
801.163	57.37
801.34	57.82
801.516	59.6
801.692	60.57
801.869	60.79
802.045	59.74
802.221	60.64
802.398	59.97
802.574	60.4
802.75	60.58
802.926	59.79
803.103	59.91
803.279	59.35
803.455	58.62
803.631	58.17
803.807	57.96
803.983	58.91
804.16	58.01
804.336	59.61
804.512	58.26
804.688	59.15
804.864	58.66
805.04	58.64
805.216	58.85
805.392	58.63
805.568	59.55
805.744	58.52
805.92	58.48
806.096	58.77
806.272	60.44
806.448	62.06
806.623	62.08
806.799	62.49
806.975	63.37
807.151	66.02
807.327	65.43
807.503	64.5
807.678	65.11
807.854	63.81
808.03	63.75
808.206	60.26
808.381	59.62
808.557	60.55
808.733	60.34
808.908	58.5
809.084	55.67
809.26	55.27
809.435	56.67
809.611	56.6
809.787	56.62
809.962	57.49
810.138	58.79
810.313	57.13
810.489	57.21
810.664	57.32
810.84	57.86
811.015	60.13
811.191	62.58
811.366	62.09
811.542	63.19
811.717	64.42
811.892	64.33
812.068	64.05
812.243	65.08
812.419	64.68
812.594	64.08
812.769	63.53
812.944	62.37
813.12	61.74
813.295	60.48
813.47	60.17
813.645	59.34
813.821	59.81
813.996	59.01
814.171	59.69
814.346	59.48
814.521	60.74
814.697	61.8
814.872	62.81
815.047	62.55
815.222	64.07
815.397	63.48
815.572	63.96
815.747	64.3
815.922	65.25
816.097	65.12
816.272	65.02
816.447	63.84
816.622	65.1
816.797	64.7
816.972	64.3
817.147	64.24
817.322	65.5
817.496	63.76
817.671	63.3
817.846	63.56
818.021	62.16
818.196	60.78
818.371	61.28
818.545	59.84
818.72	59.4
818.895	58.13
819.069	57.26
819.244	54.95
819.419	54.64
819.594	52.77
819.768	50.8
819.943	49.02
820.117	47.61
820.292	45.2
820.467	42.69
820.641	40.12
820.816	38.77
820.99	36.14
821.165	34.74
821.339	33.46
821.514	32.2
821.688	31.21
821.863	30.76
822.037	30.34
822.212	30.17
822.386	29.77
822.56	29.71
822.735	29.52
822.909	29.86
823.084	30.04
823.258	30.15
823.432	30.63
823.606	30.87
823.781	31.04
823.955	31.64
824.129	31.84
824.303	32.88
824.478	32.81
824.652	33.43
824.826	33.98
825	34.42
825.174	35.08
825.348	35.55
825.523	36.38
825.697	37.07
825.871	36.93
826.045	37.22
826.219	36.99
826.393	37.54
826.567	37.18
826.741	36.82
826.915	36.55
827.089	37.11
827.263	36.02
827.437	35.97
827.611	36.03
827.784	36.32
827.958	35.99
828.132	35.92
828.306	36.74
828.48	37.41
828.654	37.79
828.827	38.71
829.001	38.16
829.175	39.79
829.349	41.4
829.522	42.94
829.696	43.91
829.87	47.07
830.044	49.32
830.217	50.05
830.391	50.49
830.565	51.52
830.738	52.15
830.912	52.98
831.085	54.66
831.259	55.17
831.432	54
831.606	54.69
831.779	52.23
831.953	50.49
832.126	49.37
832.3	48.52
832.473	47.18
832.647	46.48
832.82	45.92
832.994	44.45
833.167	42
833.34	41.76
833.514	40.51
833.687	40.44
833.86	40.06
834.034	40.58
834.207	41.31
834.38	41.95
834.553	41.99
834.727	42.53
834.9	43.1
835.073	43.31
835.246	44.23
835.419	44.71
835.593	45.88
835.766	47.02
835.939	48.1
836.112	49.27
836.285	50.94
836.458	52.68
836.631	54.79
836.804	57.41
836.977	60.46
837.15	61.09
837.323	63.17
837.496	64.66
837.669	66.68
837.842	67.15
838.015	67.71
838.188	66.66
838.361	67.94
838.533	67.5
838.706	66.11
838.879	66.95
839.052	68.3
839.225	68.48
839.398	66.3
839.57	66.57
839.743	66.12
839.916	65.3
840.088	66.87
840.261	65.6
840.434	64.98
840.607	64.33
840.779	64.38
840.952	64.69
841.124	65.42
841.297	66.46
841.47	65.75
841.642	65.97
841.815	69.34
841.987	71.03
842.16	73.76
842.332	75.79
842.505	77.75
842.677	80.06
842.85	80.81
843.022	81.15
843.194	84.02
843.367	85.13
843.539	88.39
843.712	87.69
843.884	85.75
844.056	88.15
844.229	90.11
844.401	91.45
844.573	92.8
844.745	94.69
844.918	96.82
845.09	99.5
845.262	104.22
845.434	104.98
845.606	100.8
845.779	105.83
845.951	106.83
846.123	104.94
846.295	101.79
846.467	96.13
846.639	96.94
846.811	96.99
846.983	96.3
847.155	94.13
847.327	92.37
847.499	98.18
847.671	95.83
847.843	90.28
848.015	98.55
848.187	101.76
848.359	107.65
848.531	107.2
848.703	107.79
848.875	105.64
849.047	106.46
849.218	107.25
849.39	107.74
849.562	110.15
849.734	110.74
849.905	104.45
850.077	107.2
850.249	108.13
850.421	106.85
850.592	104.46
850.764	104.17
850.936	106.4
851.107	110.04
851.279	109.57
851.451	105.91
851.622	107.11
851.794	110.61
851.965	103.35
852.137	101.21
852.308	105.14
852.48	110.29
852.651	109.95
852.823	110.32
852.994	109.89
853.166	109.85
853.337	114.01
853.509	116.26
853.68	110.25
853.851	111.68
854.023	114.05
854.194	111.86
854.365	109.64
854.537	110.71
854.708	109.29
854.879	111.78
855.05	113.31
855.222	113.16
855.393	117.02
855.564	121.1
855.735	122.96
855.906	120.46
856.078	121.58
856.249	121.38
856.42	124.87
856.591	123.67
856.762	123.19
856.933	124.18
857.104	122.9
857.275	114.52
857.446	117.45
857.617	124.47
857.788	126.06
857.959	124.35
858.13	127.97
858.301	126.12
858.472	126.82
858.643	127.83
858.814	128.97
858.985	126.49
859.155	135.76
859.326	133.37
859.497	131
859.668	129.69
859.839	129.71
860.009	123.74
860.18	124.22
860.351	127.51
860.522	126.18
860.692	125.62
860.863	130.89
861.034	131.23
861.204	132.21
861.375	127.7
861.546	129.85
861.716	128.56
861.887	143.87
862.057	145.2
862.228	142.39
862.398	133.61
862.569	132.86
862.739	133.67
862.91	133.31
863.08	134.75
863.251	138.71
863.421	138.85
863.592	146.61
863.762	135.39
863.932	133.43
864.103	132.21
864.273	131.67
864.443	126.34
864.614	128.82
864.784	131.42
864.954	126.54
865.125	121.5
865.295	126.23
865.465	119.27
865.635	119.64
865.805	122.76
865.976	127.11
866.146	127.89
866.316	130.03
866.486	125.66
866.656	125.34
866.826	130.22
866.996	134.14
867.166	133.21
867.336	137.83
867.506	137.79
867.676	134.07
867.846	134.73
868.016	135.31
868.186	140.14
868.356	143.68
868.526	138.98
868.696	138.7
868.866	139.11
869.036	142.17
869.206	145.12
869.376	148.91
869.545	154.5
869.715	162.59
869.885	170.72
870.055	166.73
870.224	164.38
870.394	163.7
870.564	160.41
870.734	156.02
870.903	149.66
871.073	144.83
871.243	136.44
871.412	134.13
871.582	126.87
871.751	128.99
871.921	125.55
872.091	125.27
872.26	123.75
872.43	117.94
872.599	116.5
872.769	110.08
872.938	109.37
873.108	120.44
873.277	117.45
873.446	117.26
873.616	113.51
873.785	112.83
873.955	107.78
874.124	112.85
874.293	116.63
874.463	125
874.632	132.46
874.801	136.37
874.971	123.79
875.14	133.09
875.309	134.58
875.478	136.88
875.647	142.03
875.817	142.35
875.986	137.13
876.155	137.07
876.324	131.84
876.493	132.98
876.662	131.47
876.831	128.75
877	127.37
877.17	123.15
877.339	119.74
877.508	118.9
877.677	118.51
877.846	116.72
878.015	118.73
878.184	114.28
878.352	111.23
878.521	107.43
878.69	111.01
878.859	105.05
879.028	103.31
879.197	100.13
879.366	95.58
879.534	95.48
879.703	90.11
879.872	81.01
880.041	76.59
880.21	72.71
880.378	67.12
880.547	62.66
880.716	57.93
880.884	53.99
881.053	50.59
881.222	48.07
881.39	45.77
881.559	44.97
881.727	44.39
881.896	43.13
882.065	42.2
882.233	42.3
882.402	41.93
882.57	41.84
882.739	41.56
882.907	42.23
883.076	42.11
883.244	41.82
883.412	42.18
883.581	42.16
883.749	42.88
883.918	43.82
884.086	44.83
884.254	46.78
884.423	48.36
884.591	50.85
884.759	51.79
884.927	54.13
885.096	56.6
885.264	58.77
885.432	64.02
885.6	66.95
885.769	70.47
885.937	74.36
886.105	74.61
886.273	77.02
886.441	79.22
886.609	82.61
886.777	86.23
886.945	92.54
887.113	96.29
887.281	93.19
887.449	97.85
887.617	97.86
887.785	99.92
887.953	105.2
888.121	107.65
888.289	109.96
888.457	112.91
888.625	111.53
888.793	114.34
888.961	115.5
889.129	118.31
889.296	115.79
889.464	118.58
889.632	116.34
889.8	116.68
889.967	117.81
890.135	118.29
