Data from 2938829__Reflection_01.txt Node
Date: Thu Mar 12 13:11:56 EDT 2015
User: robert
Spectrometer: USB4E03002
Autoset integration time: false
Trigger mode: 4
Integration Time (sec): 1.000000E-1
Scans to average: 10
Electric dark correction enabled: false
Nonlinearity correction enabled: false
Boxcar width: 5
Stray light correction enabled: false
XAxis mode: Wavelengths
Stop averaging: false
Number of Pixels in Spectrum: 3648
>>>>>Begin Spectral Data<<<<<
177.575	-244.12
177.794	-613.33
178.014	-1306.98
178.233	-520
178.452	-495.3
178.672	-496.84
178.891	-705.74
179.11	-1112.2
179.33	1970
179.549	-1225.49
179.768	-1024.6
179.987	1183.9
180.207	650
180.426	793.41
180.645	609.68
180.864	301.05
181.084	232.29
181.303	261.84
181.522	229.07
181.741	235.36
181.96	202.85
182.179	179.77
182.398	168.79
182.618	216.83
182.837	227.01
183.056	237.84
183.275	368.5
183.494	674.29
183.713	354.47
183.932	918.07
184.151	-602.97
184.37	-722.22
184.589	-282.94
184.808	-269.59
185.027	-1495.12
185.246	865.06
185.465	543.97
185.684	315.79
185.903	266.96
186.122	271.24
186.341	177.88
186.56	118.3
186.779	169.85
186.998	152.62
187.216	146.41
187.435	164.53
187.654	171.62
187.873	165.56
188.092	162.35
188.311	160
188.53	152.19
188.748	160.57
188.967	188.87
189.186	145.25
189.405	166.2
189.623	187.77
189.842	139.52
190.061	132.43
190.28	121.79
190.498	118.87
190.717	135.15
190.936	158.93
191.154	182.18
191.373	210.63
191.592	163.42
191.81	121.52
192.029	106.13
192.248	144.05
192.466	198.46
192.685	375
192.904	-1046.15
193.122	-2641.18
193.341	1282.22
193.559	755.79
193.778	5938.46
193.996	-694.12
194.215	-493.91
194.433	-254.5
194.652	-313.76
194.87	-480.69
195.089	-381.85
195.307	-265.28
195.526	-195.69
195.744	-187.19
195.963	-188.15
196.181	-226.04
196.399	-235.36
196.618	-396.61
196.836	-482.76
197.055	-384.42
197.273	-239.64
197.491	-419.2
197.71	-609.8
197.928	-506.36
198.146	-765.38
198.365	-666.96
198.583	-7377.78
198.801	1760
199.019	550
199.238	231.19
199.456	162.13
199.674	118.62
199.892	125.3
200.111	245.21
200.329	137.73
200.547	141.34
200.765	131.83
200.983	162.11
201.202	171.88
201.42	312.42
201.638	677.3
201.856	815.17
202.074	473.52
202.292	467.8
202.51	288.05
202.728	544.05
202.946	522.78
203.165	476.72
203.383	443.92
203.601	330.86
203.819	157.49
204.037	131.45
204.255	121.87
204.473	114.8
204.691	122.31
204.909	128.69
205.127	139.64
205.345	201.32
205.562	255.07
205.78	355.14
205.998	322.62
206.216	855.05
206.434	750.74
206.652	-757.84
206.87	-700.85
207.088	-488.82
207.306	-582.17
207.523	-954
207.741	-2350
207.959	1682.81
208.177	608.88
208.395	505.24
208.612	371.58
208.83	366.28
209.048	206.88
209.266	226.77
209.483	196.03
209.701	138.57
209.919	123.75
210.136	114.03
210.354	96.88
210.572	99.79
210.79	104.59
211.007	94.99
211.225	119.75
211.442	115.26
211.66	111.07
211.878	116.22
212.095	50.26
212.313	34.48
212.53	62.05
212.748	71.79
212.966	89.41
213.183	98.96
213.401	101.44
213.618	88.74
213.836	109.94
214.053	116.22
214.271	111.73
214.488	280.52
214.705	279.85
214.923	237.92
215.14	317.51
215.358	167.08
215.575	169.42
215.793	125.46
216.01	134.66
216.227	120.05
216.445	107.5
216.662	95.55
216.879	105.5
217.097	99.61
217.314	90.92
217.531	92.35
217.749	100.25
217.966	85.57
218.183	89.97
218.4	72.44
218.618	69.67
218.835	60.07
219.052	68.02
219.269	63.45
219.487	59.57
219.704	53.41
219.921	51.45
220.138	55.84
220.355	51.2
220.572	60.15
220.79	47.33
221.007	39.48
221.224	34.17
221.441	29.17
221.658	30.49
221.875	36.06
222.092	44.82
222.309	36.43
222.526	35.57
222.743	35.02
222.96	29.35
223.177	31.05
223.394	32.84
223.611	37.39
223.828	36.64
224.045	36.03
224.262	29.96
224.479	25.56
224.696	28.84
224.913	22.71
225.13	20.79
225.347	23.1
225.564	23.92
225.781	23.03
225.997	21.64
226.214	24.22
226.431	20.08
226.648	19.55
226.865	17.45
227.082	15.58
227.298	15.53
227.515	15.37
227.732	12.78
227.949	11.61
228.165	10.54
228.382	8.95
228.599	7.56
228.816	7.83
229.032	7.08
229.249	6.94
229.466	6.7
229.682	6.12
229.899	5.81
230.116	6.33
230.332	6.12
230.549	6.46
230.765	7.17
230.982	7.49
231.199	7.42
231.415	8.81
231.632	8.16
231.848	7.58
232.065	8.48
232.281	8.79
232.498	8.06
232.714	9.17
232.931	6.93
233.147	7.05
233.364	7.43
233.58	7.56
233.797	7.66
234.013	9.39
234.23	9.25
234.446	8.9
234.662	9.2
234.879	9.49
235.095	9.01
235.312	10.39
235.528	10.5
235.744	9.07
235.961	9.25
236.177	8.42
236.393	7.43
236.61	10.58
236.826	10.43
237.042	10.63
237.258	9.85
237.475	11.15
237.691	10.45
237.907	9.1
238.123	10.29
238.339	10.48
238.556	10.27
238.772	11.44
238.988	9.85
239.204	10.49
239.42	8.59
239.636	8.86
239.853	7.27
240.069	7.95
240.285	7.89
240.501	7.58
240.717	7.29
240.933	7.44
241.149	6.27
241.365	5.66
241.581	5.27
241.797	5.24
242.013	5.17
242.229	5.36
242.445	5.66
242.661	5.7
242.877	5.99
243.093	5.84
243.309	5.79
243.525	5.53
243.741	5.8
243.957	6.33
244.173	6.69
244.388	6.58
244.604	6.48
244.82	6.19
245.036	5.79
245.252	5.13
245.468	5.1
245.683	5.04
245.899	5.13
246.115	4.68
246.331	4.46
246.547	4.14
246.762	4.25
246.978	4.32
247.194	4.12
247.409	4.1
247.625	4.24
247.841	3.93
248.057	3.97
248.272	4.27
248.488	4.52
248.703	4.3
248.919	4.55
249.135	4.34
249.35	4.42
249.566	4.37
249.782	4.41
249.997	3.93
250.213	4.81
250.428	5.34
250.644	5
250.859	4.88
251.075	4.68
251.29	4.64
251.506	5.27
251.721	4.93
251.937	5.4
252.152	5.93
252.368	6.41
252.583	6.63
252.798	5.54
253.014	5.6
253.229	6.2
253.445	6.58
253.66	7.22
253.875	7.41
254.091	8.26
254.306	7.61
254.521	7.31
254.737	7.06
254.952	6.16
255.167	6.97
255.383	6.7
255.598	6.49
255.813	6.6
256.028	6.7
256.244	6.62
256.459	5.04
256.674	5.52
256.889	5.04
257.104	4.81
257.32	4.75
257.535	4.18
257.75	4.33
257.965	3.83
258.18	4.03
258.395	3.18
258.61	3.09
258.826	3.24
259.041	3.02
259.256	3.12
259.471	2.87
259.686	2.68
259.901	2.56
260.116	2.39
260.331	2.51
260.546	2.33
260.761	2.25
260.976	2.07
261.191	2.03
261.406	2.19
261.621	2.48
261.836	2.65
262.05	2.95
262.265	3.65
262.48	3.74
262.695	4.01
262.91	4.41
263.125	4.93
263.34	4.55
263.555	4.58
263.769	4.16
263.984	4.13
264.199	3.87
264.414	3.72
264.629	3.6
264.843	3.62
265.058	2.79
265.273	2.57
265.488	2.81
265.702	3.04
265.917	3
266.132	3.66
266.346	3.56
266.561	3.72
266.776	3.83
266.99	3.62
267.205	4.09
267.42	4.24
267.634	3.71
267.849	3.53
268.063	3.77
268.278	3.97
268.492	3.56
268.707	3.18
268.922	3.05
269.136	2.6
269.351	2.61
269.565	1.74
269.78	2.07
269.994	2.66
270.209	2.4
270.423	2.21
270.637	2.67
270.852	2.79
271.066	3.05
271.281	3.66
271.495	3.72
271.709	3.33
271.924	3.64
272.138	3.46
272.353	3.42
272.567	3.53
272.781	3.99
272.996	3.54
273.21	3.61
273.424	3.41
273.638	2.92
273.853	2.66
274.067	3.15
274.281	3.42
274.495	3.78
274.71	4.11
274.924	4.41
275.138	4.25
275.352	3.92
275.566	4.21
275.781	4.13
275.995	3.93
276.209	4.71
276.423	4.9
276.637	4.36
276.851	3.04
277.065	2.4
277.279	2.1
277.493	1.58
277.707	2.36
277.921	1.84
278.135	2.15
278.349	2.14
278.563	1.92
278.777	1.41
278.991	1.51
279.205	2.72
279.419	2.72
279.633	2.76
279.847	2.94
280.061	2.87
280.275	3.1
280.489	2.92
280.703	3.02
280.917	2.65
281.131	2.92
281.344	3.37
281.558	3.05
281.772	3.3
281.986	3.22
282.2	3.26
282.414	3.04
282.627	2.76
282.841	2.72
283.055	3.13
283.269	3.58
283.482	3.51
283.696	2.91
283.91	2.71
284.123	2.72
284.337	2.82
284.551	2.92
284.764	2.99
284.978	3.03
285.192	3.08
285.405	2.6
285.619	2.39
285.833	2.4
286.046	2.38
286.26	2.45
286.473	2.57
286.687	2.49
286.9	2.08
287.114	2.22
287.327	2.3
287.541	2.55
287.754	2.87
287.968	3.07
288.181	3.05
288.395	3.13
288.608	3.21
288.822	3.01
289.035	3.48
289.248	3.87
289.462	3.67
289.675	3.3
289.889	3.07
290.102	3
290.315	3
290.529	2.77
290.742	3.03
290.955	3.05
291.169	2.9
291.382	2.78
291.595	3.22
291.808	3.02
292.022	3.3
292.235	3.16
292.448	3
292.661	3.06
292.875	3.26
293.088	3.39
293.301	3.88
293.514	4.09
293.727	3.73
293.94	3.15
294.153	3.49
294.367	3.12
294.58	3.26
294.793	3.35
295.006	3.22
295.219	3.34
295.432	3.57
295.645	3.27
295.858	3.11
296.071	3.17
296.284	3.34
296.497	3.17
296.71	3.4
296.923	3.49
297.136	3.56
297.349	3.71
297.562	3.39
297.775	3.08
297.988	3.1
298.201	3.34
298.414	3.33
298.626	3.21
298.839	3.28
299.052	3.82
299.265	3.66
299.478	3.78
299.691	3.58
299.903	4.14
300.116	4.45
300.329	4.57
300.542	4.51
300.755	4.59
300.967	4.56
301.18	4.7
301.393	3.98
301.605	4.35
301.818	4.31
302.031	4.27
302.243	4.26
302.456	4.03
302.669	3.72
302.881	3.54
303.094	3.65
303.307	4.01
303.519	3.8
303.732	3.81
303.944	3.45
304.157	3.42
304.37	3.63
304.582	3.58
304.795	3.61
305.007	3.86
305.22	4.03
305.432	4.05
305.645	4.41
305.857	4.87
306.069	5.54
306.282	5.67
306.494	5.45
306.707	5.21
306.919	5.04
307.132	5.63
307.344	5.77
307.556	6.1
307.769	6.21
307.981	5.48
308.193	5.51
308.406	5.14
308.618	5.27
308.83	5.36
309.043	5.79
309.255	5.74
309.467	5.32
309.679	5.5
309.892	5.19
310.104	4.92
310.316	4.83
310.528	4.47
310.74	4.51
310.953	4.48
311.165	4.72
311.377	4.72
311.589	5.01
311.801	4.93
312.013	4.62
312.225	4.8
312.437	5.32
312.649	5.75
312.862	5.81
313.074	5.93
313.286	5.92
313.498	5.71
313.71	5.38
313.922	5.16
314.134	5.06
314.346	5.22
314.558	4.94
314.77	4.54
314.982	4.84
315.193	5.01
315.405	4.85
315.617	4.88
315.829	4.9
316.041	4.64
316.253	4.5
316.465	4.7
316.677	4.68
316.888	5.23
317.1	5.36
317.312	4.67
317.524	4.52
317.736	4.86
317.947	5.34
318.159	5.53
318.371	6.12
318.583	6.77
318.794	7.42
319.006	7.46
319.218	7.2
319.43	7.36
319.641	7.91
319.853	8.42
320.064	8.48
320.276	8.26
320.488	8.75
320.699	8.89
320.911	8.8
321.123	8.07
321.334	8.15
321.546	7.83
321.757	8.07
321.969	8.12
322.18	7.91
322.392	8
322.603	8.66
322.815	8.13
323.026	8.34
323.238	8.06
323.449	8.26
323.661	8.5
323.872	9.14
324.083	8.99
324.295	9.06
324.506	9.64
324.718	9.68
324.929	9.37
325.14	10.02
325.352	10.03
325.563	10.4
325.774	11.06
325.986	11.29
326.197	11.34
326.408	11.66
326.62	12.06
326.831	12.16
327.042	12.26
327.253	12.71
327.464	13.01
327.676	13.07
327.887	13.44
328.098	13.28
328.309	13.5
328.52	13.84
328.732	13.74
328.943	14.07
329.154	14.17
329.365	14.18
329.576	14.32
329.787	14.29
329.998	14.55
330.209	14.65
330.42	15.19
330.631	15.75
330.842	15.93
331.053	16.55
331.264	16.61
331.475	16.86
331.686	17.62
331.897	17.63
332.108	17.73
332.319	18.11
332.53	18.49
332.741	18.33
332.952	18.44
333.163	18.41
333.374	18.45
333.585	18.38
333.795	18.68
334.006	18.54
334.217	18.78
334.428	19.21
334.639	19.29
334.849	19.32
335.06	19.56
335.271	19.69
335.482	20.2
335.692	20.16
335.903	20.61
336.114	20.76
336.325	21.25
336.535	21.21
336.746	21.04
336.957	21.05
337.167	21.23
337.378	21.53
337.589	21.4
337.799	21.37
338.01	21.57
338.22	21.3
338.431	21.15
338.642	20.8
338.852	20.97
339.063	21.23
339.273	21.52
339.484	21.51
339.694	21.4
339.905	21.37
340.115	21.55
340.326	21.65
340.536	21.69
340.746	21.61
340.957	22.25
341.167	22.34
341.378	22.14
341.588	21.84
341.799	21.66
342.009	21.66
342.219	21.73
342.43	21.67
342.64	21.47
342.85	21.53
343.061	21.68
343.271	21.2
343.481	21.09
343.691	21.31
343.902	21.48
344.112	21.27
344.322	21.22
344.532	20.7
344.743	20.57
344.953	20.72
345.163	20.81
345.373	20.64
345.583	20.6
345.793	20.66
346.004	20.42
346.214	20.42
346.424	20.57
346.634	20.61
346.844	21.02
347.054	20.64
347.264	20.63
347.474	20.51
347.684	20.52
347.894	20.58
348.104	20.6
348.314	20.6
348.524	20.5
348.734	20.73
348.944	20.81
349.154	20.85
349.364	20.84
349.574	20.86
349.784	20.84
349.994	20.92
350.204	21.21
350.413	20.94
350.623	21.03
350.833	21.1
351.043	20.89
351.253	20.43
351.463	20.72
351.672	21.11
351.882	21.07
352.092	21.16
352.302	21.02
352.511	20.69
352.721	20.51
352.931	20.35
353.141	20.61
353.35	20.31
353.56	20.69
353.77	20.12
353.979	19.91
354.189	20.2
354.399	20.06
354.608	20.12
354.818	20.17
355.027	20.33
355.237	20.32
355.447	19.86
355.656	20.21
355.866	19.93
356.075	20.06
356.285	19.93
356.494	19.83
356.704	19.77
356.913	19.85
357.123	19.86
357.332	20.03
357.542	20.29
357.751	20.36
357.96	20.47
358.17	20.6
358.379	20.69
358.589	20.87
358.798	20.41
359.007	20.44
359.217	20.03
359.426	19.82
359.635	19.85
359.845	19.48
360.054	19.45
360.263	19.38
360.472	19.49
360.682	19.63
360.891	19.77
361.1	20.02
361.309	19.78
361.519	19.96
361.728	20
361.937	20.04
362.146	20.22
362.355	20.27
362.564	20.09
362.774	20.06
362.983	19.71
363.192	19.61
363.401	19.61
363.61	19.86
363.819	20
364.028	20.12
364.237	19.96
364.446	19.82
364.655	19.69
364.864	19.76
365.073	19.46
365.282	19.42
365.491	19.09
365.7	19.18
365.909	19.21
366.118	19.19
366.327	19.24
366.536	18.97
366.745	18.93
366.954	19.03
367.162	19.07
367.371	19.07
367.58	19.52
367.789	19.85
367.998	19.6
368.207	19.4
368.415	19.36
368.624	19.18
368.833	19.21
369.042	19.12
369.25	19.07
369.459	19.15
369.668	19.36
369.877	19.11
370.085	19.08
370.294	19.1
370.503	19.26
370.711	19.27
370.92	19.38
371.129	19.57
371.337	19.57
371.546	19.54
371.754	19.2
371.963	19.19
372.171	19.2
372.38	19.06
372.589	18.99
372.797	18.91
373.006	18.82
373.214	18.74
373.423	18.89
373.631	18.82
373.84	18.72
374.048	18.92
374.256	18.91
374.465	18.9
374.673	18.86
374.882	19.18
375.09	19.24
375.298	19.31
375.507	19.49
375.715	19.33
375.923	19.47
376.132	19.66
376.34	19.7
376.548	19.45
376.757	19.42
376.965	19.51
377.173	19.22
377.381	19.35
377.59	19.2
377.798	19.13
378.006	18.87
378.214	18.86
378.423	18.84
378.631	18.9
378.839	19.11
379.047	19.11
379.255	19.05
379.463	19.03
379.671	18.63
379.879	18.46
380.088	18.29
380.296	18.7
380.504	18.81
380.712	18.61
380.92	18.38
381.128	18.47
381.336	18.46
381.544	18.24
381.752	18.33
381.96	18.55
382.168	18.63
382.376	18.52
382.584	18.2
382.791	18.15
382.999	18.11
383.207	17.97
383.415	17.69
383.623	17.73
383.831	18.02
384.039	17.89
384.247	17.88
384.454	18
384.662	18.05
384.87	18.15
385.078	18.08
385.285	18.26
385.493	18.66
385.701	18.78
385.909	18.75
386.116	18.7
386.324	19
386.532	19
386.739	19.06
386.947	19.03
387.155	18.9
387.362	18.85
387.57	18.89
387.778	18.74
387.985	18.68
388.193	18.67
388.4	18.44
388.608	18.42
388.816	18.35
389.023	18.35
389.231	18.63
389.438	18.9
389.646	19.08
389.853	18.87
390.061	18.76
390.268	18.88
390.475	19.06
390.683	19.31
390.89	19.1
391.098	19.22
391.305	19.11
391.512	18.86
391.72	18.62
391.927	18.43
392.135	18.6
392.342	18.61
392.549	18.63
392.756	18.29
392.964	18.04
393.171	17.98
393.378	17.95
393.586	17.91
393.793	17.97
394	17.85
394.207	17.84
394.414	17.72
394.622	17.82
394.829	17.93
395.036	17.96
395.243	18.18
395.45	18.23
395.657	18.16
395.864	18.12
396.072	18.08
396.279	18.31
396.486	18.49
396.693	18.58
396.9	18.54
397.107	18.26
397.314	18.46
397.521	18.55
397.728	18.51
397.935	18.5
398.142	18.62
398.349	18.65
398.556	18.66
398.763	18.68
398.97	18.66
399.177	18.47
399.383	18.35
399.59	18.21
399.797	18.1
400.004	18.22
400.211	18.29
400.418	18.24
400.625	18.21
400.831	18.26
401.038	18.23
401.245	18.13
401.452	18.4
401.658	18.76
401.865	18.87
402.072	18.9
402.279	18.89
402.485	18.84
402.692	18.89
402.899	18.75
403.105	18.72
403.312	18.72
403.519	18.78
403.725	18.71
403.932	18.5
404.138	18.47
404.345	18.33
404.552	18.48
404.758	18.54
404.965	18.53
405.171	18.57
405.378	18.57
405.584	18.55
405.791	18.57
405.997	18.46
406.204	18.55
406.41	18.59
406.617	18.72
406.823	18.49
407.029	18.67
407.236	18.8
407.442	18.83
407.649	18.83
407.855	18.71
408.061	18.73
408.268	18.86
408.474	18.84
408.68	18.8
408.887	18.72
409.093	18.86
409.299	18.57
409.505	18.4
409.712	18.56
409.918	18.68
410.124	18.84
410.33	18.74
410.537	18.69
410.743	18.86
410.949	18.78
411.155	18.91
411.361	18.94
411.567	19.04
411.773	18.96
411.98	18.92
412.186	18.72
412.392	18.65
412.598	18.85
412.804	19.15
413.01	18.98
413.216	19.22
413.422	19.26
413.628	19.21
413.834	19.2
414.04	19.3
414.246	19.25
414.452	19.26
414.658	19.31
414.864	19.3
415.07	19.09
415.275	19.06
415.481	18.98
415.687	19.1
415.893	19
416.099	19.09
416.305	19.15
416.511	19.34
416.716	19.38
416.922	19.38
417.128	19.31
417.334	19.29
417.539	19.33
417.745	19.23
417.951	19.04
418.157	18.94
418.362	18.84
418.568	18.82
418.774	18.64
418.979	18.61
419.185	18.52
419.391	18.51
419.596	18.58
419.802	18.61
420.008	18.67
420.213	18.69
420.419	18.77
420.624	18.84
420.83	18.82
421.035	18.89
421.241	18.94
421.446	19.02
421.652	19.03
421.857	18.86
422.063	18.83
422.268	18.81
422.474	18.84
422.679	18.84
422.885	18.82
423.09	18.83
423.295	18.8
423.501	18.81
423.706	18.75
423.911	18.76
424.117	18.94
424.322	18.9
424.527	18.98
424.733	18.95
424.938	19.03
425.143	19.04
425.349	19
425.554	18.97
425.759	19.01
425.964	19.05
426.169	19.03
426.375	18.98
426.58	19.12
426.785	19.03
426.99	19.06
427.195	18.93
427.4	18.75
427.605	18.89
427.811	19
428.016	19
428.221	18.97
428.426	19.05
428.631	19.01
428.836	18.94
429.041	18.88
429.246	18.84
429.451	18.94
429.656	19.21
429.861	19.11
430.066	19.04
430.271	18.91
430.476	19.06
430.681	19.02
430.886	19.13
431.09	19.21
431.295	19.38
431.5	19.47
431.705	19.4
431.91	19.33
432.115	19.32
432.32	19.32
432.524	19.44
432.729	19.38
432.934	19.37
433.139	19.37
433.343	19.33
433.548	19.3
433.753	19.26
433.958	19.4
434.162	19.41
434.367	19.52
434.572	19.59
434.776	19.64
434.981	19.6
435.186	19.61
435.39	19.51
435.595	19.51
435.799	19.57
436.004	19.65
436.209	19.59
436.413	19.69
436.618	19.63
436.822	19.65
437.027	19.63
437.231	19.79
437.436	19.75
437.64	19.82
437.845	19.9
438.049	19.9
438.253	19.95
438.458	20.03
438.662	19.94
438.867	20.02
439.071	19.92
439.275	19.89
439.48	19.76
439.684	19.93
439.888	19.86
440.093	19.76
440.297	19.75
440.501	19.66
440.706	19.52
440.91	19.43
441.114	19.47
441.318	19.55
441.523	19.51
441.727	19.62
441.931	19.52
442.135	19.57
442.339	19.57
442.543	19.57
442.748	19.63
442.952	19.7
443.156	19.8
443.36	19.78
443.564	19.76
443.768	19.86
443.972	19.72
444.176	19.71
444.38	19.75
444.584	19.74
444.788	19.72
444.992	19.65
445.196	19.69
445.4	19.7
445.604	19.61
445.808	19.62
446.012	19.64
446.216	19.63
446.42	19.53
446.624	19.52
446.828	19.53
447.032	19.45
447.235	19.44
447.439	19.36
447.643	19.37
447.847	19.39
448.051	19.41
448.254	19.36
448.458	19.43
448.662	19.54
448.866	19.52
449.069	19.48
449.273	19.54
449.477	19.5
449.681	19.48
449.884	19.4
450.088	19.4
450.292	19.38
450.495	19.27
450.699	19.32
450.902	19.25
451.106	19.28
451.31	19.25
451.513	19.27
451.717	19.31
451.92	19.39
452.124	19.42
452.327	19.41
452.531	19.41
452.734	19.51
452.938	19.42
453.141	19.43
453.345	19.37
453.548	19.56
453.752	19.56
453.955	19.69
454.158	19.62
454.362	19.63
454.565	19.67
454.769	19.49
454.972	19.54
455.175	19.58
455.379	19.58
455.582	19.64
455.785	19.48
455.988	19.66
456.192	19.46
456.395	19.58
456.598	19.58
456.801	19.63
457.005	19.83
457.208	19.82
457.411	19.73
457.614	19.83
457.817	19.76
458.021	19.79
458.224	19.7
458.427	19.65
458.63	19.75
458.833	19.74
459.036	19.71
459.239	19.59
459.442	19.51
459.645	19.57
459.848	19.5
460.051	19.57
460.254	19.52
460.457	19.41
460.66	19.43
460.863	19.3
461.066	19.3
461.269	19.2
461.472	19.31
461.675	19.35
461.878	19.32
462.081	19.34
462.284	19.33
462.486	19.27
462.689	19.34
462.892	19.43
463.095	19.32
463.298	19.29
463.5	19.38
463.703	19.32
463.906	19.39
464.109	19.35
464.311	19.38
464.514	19.4
464.717	19.56
464.92	19.7
465.122	19.75
465.325	19.92
465.528	20.01
465.73	19.98
465.933	19.99
466.135	19.98
466.338	20.09
466.541	20.09
466.743	20.05
466.946	19.95
467.148	19.87
467.351	19.89
467.553	19.81
467.756	19.8
467.958	19.88
468.161	19.83
468.363	19.76
468.566	19.75
468.768	19.78
468.971	19.77
469.173	19.8
469.375	19.79
469.578	19.76
469.78	19.91
469.983	19.96
470.185	19.93
470.387	19.99
470.59	19.92
470.792	19.91
470.994	19.85
471.196	19.92
471.399	19.96
471.601	19.98
471.803	19.91
472.005	19.81
472.208	19.7
472.41	19.71
472.612	19.72
472.814	19.82
473.016	19.84
473.218	19.86
473.421	19.81
473.623	19.78
473.825	19.81
474.027	19.92
474.229	19.92
474.431	19.95
474.633	19.96
474.835	20.02
475.037	19.97
475.239	19.96
475.441	19.95
475.643	19.95
475.845	19.96
476.047	19.99
476.249	19.89
476.451	19.98
476.653	20.02
476.855	19.98
477.057	19.91
477.258	19.94
477.46	19.92
477.662	19.88
477.864	19.89
478.066	19.91
478.268	19.88
478.469	19.99
478.671	19.85
478.873	19.85
479.075	19.8
479.276	19.74
479.478	19.79
479.68	19.72
479.882	19.76
480.083	19.81
480.285	19.76
480.487	19.82
480.688	19.74
480.89	19.76
481.091	19.69
481.293	19.76
481.495	19.82
481.696	19.74
481.898	19.73
482.099	19.78
482.301	19.71
482.502	19.73
482.704	19.69
482.905	19.69
483.107	19.69
483.308	19.65
483.51	19.62
483.711	19.55
483.913	19.56
484.114	19.57
484.315	19.52
484.517	19.52
484.718	19.5
484.92	19.51
485.121	19.47
485.322	19.47
485.524	19.49
485.725	19.5
485.926	19.55
486.127	19.51
486.329	19.51
486.53	19.55
486.731	19.53
486.932	19.56
487.134	19.54
487.335	19.58
487.536	19.56
487.737	19.57
487.938	19.59
488.139	19.6
488.341	19.65
488.542	19.68
488.743	19.67
488.944	19.72
489.145	19.68
489.346	19.68
489.547	19.71
489.748	19.76
489.949	19.73
490.15	19.74
490.351	19.81
490.552	19.76
490.753	19.76
490.954	19.77
491.155	19.79
491.356	19.83
491.557	19.83
491.758	19.81
491.959	19.8
492.159	19.87
492.36	19.85
492.561	19.75
492.762	19.81
492.963	19.83
493.164	19.83
493.364	19.85
493.565	19.91
493.766	19.95
493.967	19.95
494.167	20.05
494.368	20.03
494.569	20.11
494.769	20.2
494.97	20.21
495.171	20.17
495.371	20.23
495.572	20.25
495.773	20.21
495.973	20.23
496.174	20.21
496.375	20.12
496.575	20.08
496.776	20.06
496.976	20.15
497.177	20.16
497.377	20.2
497.578	20.14
497.778	20.09
497.979	20.11
498.179	20.1
498.38	20.16
498.58	20.22
498.78	20.31
498.981	20.38
499.181	20.28
499.382	20.3
499.582	20.31
499.782	20.33
499.983	20.35
500.183	20.34
500.383	20.35
500.584	20.4
500.784	20.51
500.984	20.42
501.184	20.4
501.385	20.58
501.585	20.68
501.785	20.76
501.985	20.89
502.185	21.01
502.386	21.12
502.586	21.23
502.786	21.15
502.986	21.08
503.186	21.16
503.386	21.21
503.586	21.17
503.786	21.09
503.987	21.14
504.187	21.15
504.387	21.23
504.587	21.13
504.787	21.09
504.987	21.18
505.187	21.17
505.387	21.27
505.587	21.31
505.786	21.39
505.986	21.52
506.186	21.48
506.386	21.39
506.586	21.34
506.786	21.46
506.986	21.49
507.186	21.59
507.386	21.59
507.585	21.66
507.785	21.68
507.985	21.67
508.185	21.67
508.384	21.75
508.584	21.91
508.784	21.96
508.984	21.99
509.183	22.01
509.383	21.98
509.583	22.05
509.782	22.01
509.982	22.11
510.182	22.21
510.381	22.23
510.581	22.18
510.781	22.13
510.98	22.1
511.18	22.09
511.379	22.15
511.579	22.23
511.778	22.41
511.978	22.42
512.177	22.35
512.377	22.3
512.576	22.38
512.776	22.4
512.975	22.47
513.175	22.48
513.374	22.54
513.573	22.53
513.773	22.48
513.972	22.39
514.172	22.49
514.371	22.55
514.57	22.58
514.77	22.59
514.969	22.78
515.168	22.86
515.367	22.89
515.567	23
515.766	23.06
515.965	23.19
516.164	23.26
516.364	23.3
516.563	23.33
516.762	23.33
516.961	23.32
517.16	23.31
517.359	23.31
517.559	23.38
517.758	23.37
517.957	23.42
518.156	23.47
518.355	23.46
518.554	23.45
518.753	23.51
518.952	23.61
519.151	23.63
519.35	23.64
519.549	23.69
519.748	23.69
519.947	23.74
520.146	23.78
520.345	23.8
520.544	23.83
520.743	23.91
520.942	23.95
521.141	24
521.339	24.03
521.538	24.1
521.737	24.18
521.936	24.3
522.135	24.47
522.333	24.63
522.532	24.67
522.731	24.82
522.93	24.89
523.129	25
523.327	25.07
523.526	25.2
523.725	25.3
523.923	25.36
524.122	25.39
524.321	25.32
524.519	25.35
524.718	25.37
524.917	25.32
525.115	25.3
525.314	25.34
525.512	25.35
525.711	25.4
525.909	25.41
526.108	25.46
526.306	25.53
526.505	25.55
526.703	25.61
526.902	25.66
527.1	25.76
527.299	25.83
527.497	25.82
527.696	25.78
527.894	25.81
528.092	25.85
528.291	25.9
528.489	25.89
528.688	25.91
528.886	25.88
529.084	25.94
529.283	25.91
529.481	25.93
529.679	25.97
529.877	26.03
530.076	26.08
530.274	26.08
530.472	26.06
530.67	26.13
530.869	26.22
531.067	26.31
531.265	26.35
531.463	26.46
531.661	26.53
531.859	26.62
532.057	26.74
532.255	26.78
532.454	26.83
532.652	26.9
532.85	26.97
533.048	26.97
533.246	27.03
533.444	27.04
533.642	27.09
533.84	27.12
534.038	27.09
534.236	27.11
534.434	27.13
534.632	27.15
534.83	27.11
535.027	27.11
535.225	27.2
535.423	27.24
535.621	27.26
535.819	27.26
536.017	27.29
536.215	27.38
536.412	27.37
536.61	27.42
536.808	27.52
537.006	27.63
537.203	27.7
537.401	27.73
537.599	27.74
537.797	27.79
537.994	27.86
538.192	27.94
538.39	28.05
538.587	28.15
538.785	28.26
538.983	28.31
539.18	28.47
539.378	28.53
539.575	28.56
539.773	28.61
539.97	28.7
540.168	28.8
540.366	28.79
540.563	28.82
540.761	28.87
540.958	28.88
541.155	28.96
541.353	28.97
541.55	29.02
541.748	29.02
541.945	29.06
542.143	29.07
542.34	29.03
542.537	29.09
542.735	29.1
542.932	29.15
543.129	29.15
543.327	29.18
543.524	29.22
543.721	29.24
543.919	29.4
544.116	29.47
544.313	29.54
544.51	29.7
544.708	29.81
544.905	29.98
545.102	30.08
545.299	30.21
545.496	30.3
545.693	30.3
545.891	30.35
546.088	30.36
546.285	30.37
546.482	30.38
546.679	30.39
546.876	30.48
547.073	30.39
547.27	30.4
547.467	30.41
547.664	30.43
547.861	30.49
548.058	30.54
548.255	30.56
548.452	30.59
548.649	30.57
548.846	30.53
549.043	30.44
549.24	30.59
549.437	30.56
549.633	30.54
549.83	30.45
550.027	30.5
550.224	30.46
550.421	30.6
550.618	30.61
550.814	30.78
551.011	30.86
551.208	30.84
551.405	30.82
551.601	30.85
551.798	30.92
551.995	30.91
552.191	30.9
552.388	30.94
552.585	30.79
552.781	30.89
552.978	30.88
553.175	30.81
553.371	30.91
553.568	30.79
553.764	30.65
553.961	30.65
554.157	30.63
554.354	30.64
554.55	30.72
554.747	30.77
554.943	30.68
555.14	30.57
555.336	30.63
555.533	30.57
555.729	30.61
555.926	30.71
556.122	30.86
556.318	30.92
556.515	30.88
556.711	30.82
556.907	30.8
557.104	30.88
557.3	30.91
557.496	30.94
557.693	31.01
557.889	31.08
558.085	31.14
558.281	31
558.478	30.87
558.674	30.9
558.87	30.93
559.066	30.86
559.262	30.87
559.459	31.03
559.655	31.04
559.851	31.04
560.047	31.08
560.243	31.15
560.439	31.17
560.635	31.36
560.831	31.34
561.027	31.31
561.223	31.38
561.419	31.36
561.615	31.41
561.811	31.54
562.007	31.42
562.203	31.43
562.399	31.47
562.595	31.57
562.791	31.66
562.987	31.73
563.183	31.89
563.379	31.95
563.575	31.98
563.771	31.94
563.966	31.78
564.162	31.85
564.358	31.86
564.554	31.87
564.75	31.74
564.945	31.59
565.141	31.61
565.337	31.49
565.533	31.48
565.728	31.61
565.924	31.47
566.12	31.47
566.315	31.48
566.511	31.5
566.707	31.47
566.902	31.6
567.098	31.64
567.293	31.57
567.489	31.63
567.684	31.65
567.88	31.61
568.076	31.78
568.271	31.82
568.467	31.89
568.662	31.83
568.858	31.9
569.053	31.85
569.248	31.92
569.444	31.89
569.639	31.83
569.835	31.83
570.03	31.73
570.225	31.73
570.421	31.81
570.616	31.82
570.812	31.88
571.007	31.76
571.202	31.75
571.397	31.81
571.593	31.86
571.788	31.91
571.983	31.94
572.178	31.98
572.374	32.02
572.569	31.92
572.764	31.96
572.959	32.07
573.154	32.18
573.35	32.2
573.545	32.22
573.74	32.3
573.935	32.31
574.13	32.33
574.325	32.38
574.52	32.38
574.715	32.51
574.91	32.47
575.105	32.44
575.3	32.39
575.495	32.49
575.69	32.45
575.885	32.46
576.08	32.44
576.275	32.48
576.47	32.57
576.665	32.57
576.86	32.49
577.055	32.56
577.25	32.56
577.444	32.69
577.639	32.63
577.834	32.69
578.029	32.76
578.224	32.9
578.418	32.87
578.613	32.81
578.808	32.79
579.003	32.82
579.197	32.85
579.392	32.95
579.587	32.94
579.781	33.09
579.976	33.02
580.171	32.95
580.365	32.99
580.56	33.1
580.755	33.14
580.949	33.22
581.144	33.42
581.338	33.45
581.533	33.35
581.727	33.32
581.922	33.35
582.116	33.56
582.311	33.69
582.505	33.73
582.7	33.72
582.894	33.74
583.089	33.75
583.283	33.73
583.478	33.81
583.672	33.92
583.866	34.02
584.061	33.92
584.255	33.85
584.449	33.74
584.644	33.83
584.838	33.87
585.032	33.96
585.226	34.17
585.421	34.13
585.615	34.19
585.809	34.24
586.003	34.47
586.198	34.65
586.392	34.7
586.586	34.89
586.78	34.81
586.974	34.77
587.168	34.78
587.363	34.7
587.557	34.73
587.751	34.64
587.945	34.64
588.139	34.49
588.333	34.43
588.527	34.36
588.721	34.17
588.915	34.21
589.109	34.42
589.303	34.45
589.497	34.49
589.691	34.53
589.885	34.5
590.079	34.35
590.273	34.29
590.466	34.33
590.66	34.35
590.854	34.61
591.048	34.59
591.242	34.48
591.436	34.42
591.629	34.42
591.823	34.64
592.017	34.8
592.211	35
592.404	34.92
592.598	34.98
592.792	35.08
592.986	34.99
593.179	35.17
593.373	35.23
593.567	35.33
593.76	35.23
593.954	35.01
594.147	34.89
594.341	34.93
594.535	35.04
594.728	35.07
594.922	34.93
595.115	34.97
595.309	34.78
595.502	34.79
595.696	34.82
595.889	34.94
596.083	34.99
596.276	34.97
596.47	34.97
596.663	34.95
596.856	34.95
597.05	34.99
597.243	35.05
597.437	35.17
597.63	35.12
597.823	35.2
598.017	35.22
598.21	35.29
598.403	35.44
598.596	35.35
598.79	35.47
598.983	35.44
599.176	35.68
599.369	35.62
599.563	35.64
599.756	35.85
599.949	35.75
600.142	35.77
600.335	35.7
600.528	35.77
600.722	35.93
600.915	36.11
601.108	36.2
601.301	36.09
601.494	36.22
601.687	36.19
601.88	36.09
602.073	36.01
602.266	35.97
602.459	36
602.652	35.83
602.845	35.81
603.038	35.75
603.231	35.67
603.424	35.57
603.617	35.41
603.809	35.41
604.002	35.4
604.195	35.57
604.388	35.49
604.581	35.51
604.774	35.52
604.966	35.57
605.159	35.57
605.352	35.55
605.545	35.67
605.737	35.73
605.93	35.87
606.123	36.06
606.316	36
606.508	36.08
606.701	36.24
606.894	36.43
607.086	36.56
607.279	36.52
607.471	36.82
607.664	37.07
607.857	37.26
608.049	37.31
608.242	37.59
608.434	38
608.627	38.67
608.819	39.05
609.012	39.69
609.204	40.34
609.397	41.12
609.589	41.95
609.782	42.74
609.974	43.64
610.166	44.74
610.359	45.42
610.551	46.17
610.743	46.78
610.936	47.46
611.128	47.81
611.32	48.09
611.513	48.27
611.705	48.26
611.897	48.19
612.09	48.08
612.282	47.49
612.474	47.33
612.666	46.98
612.858	46.75
613.051	46.47
613.243	46.22
613.435	45.67
613.627	45.37
613.819	44.84
614.011	44.31
614.203	43.95
614.395	43.84
614.588	43.46
614.78	43.08
614.972	42.51
615.164	42.14
615.356	41.81
615.548	41.78
615.74	41.41
615.932	41.08
616.124	41.02
616.315	40.76
616.507	40.53
616.699	40.12
616.891	40.05
617.083	39.97
617.275	39.66
617.467	39.55
617.659	39.28
617.85	39.3
618.042	39.49
618.234	39.24
618.426	39.16
618.618	39.08
618.809	39.14
619.001	39.02
619.193	38.95
619.384	39.11
619.576	39.21
619.768	39.24
619.959	39.28
620.151	39.14
620.343	39.16
620.534	39.24
620.726	39.3
620.917	39.51
621.109	39.52
621.301	39.51
621.492	39.24
621.684	39.31
621.875	39.37
622.067	39.05
622.258	39.18
622.45	39.34
622.641	39.3
622.832	39.27
623.024	39.21
623.215	39.25
623.407	39.37
623.598	39.58
623.789	39.32
623.981	39.32
624.172	39.55
624.363	39.37
624.555	39.41
624.746	39.38
624.937	39.34
625.129	39.39
625.32	39.46
625.511	39.32
625.702	39.23
625.893	39.35
626.085	39.38
626.276	39.4
626.467	39.55
626.658	39.44
626.849	39.51
627.04	39.62
627.231	39.34
627.422	39.33
627.614	39.44
627.805	39.61
627.996	39.6
628.187	39.68
628.378	39.75
628.569	39.56
628.76	39.64
628.951	39.75
629.142	39.77
629.332	40.16
629.523	40.18
629.714	40.21
629.905	40.26
630.096	40.44
630.287	40.5
630.478	40.39
630.669	40.73
630.859	40.81
631.05	40.87
631.241	40.71
631.432	40.53
631.623	40.59
631.813	40.53
632.004	40.41
632.195	40.15
632.385	39.94
632.576	39.89
632.767	39.72
632.957	39.78
633.148	39.52
633.339	39.52
633.529	39.49
633.72	39.25
633.91	39.06
634.101	39.11
634.292	39.08
634.482	39.06
634.673	39.21
634.863	39.3
635.054	38.95
635.244	38.98
635.435	39.1
635.625	39.07
635.815	39.28
636.006	39.52
636.196	39.4
636.387	39.36
636.577	39.43
636.767	39.42
636.958	39.25
637.148	39.47
637.338	39.56
637.529	39.43
637.719	39.4
637.909	39.15
638.099	39.01
638.29	39.04
638.48	39.08
638.67	39.13
638.86	39.2
639.05	39.6
639.241	39.62
639.431	39.49
639.621	39.72
639.811	40.12
640.001	40.06
640.191	40.18
640.381	40.2
640.571	40.36
640.761	40.44
640.951	40.47
641.141	40.24
641.331	40.26
641.521	40.54
641.711	40.53
641.901	40.19
642.091	40.61
642.281	40.44
642.471	40.4
642.661	40.39
642.851	40.4
643.041	40.19
643.231	40.23
643.42	40.33
643.61	40.33
643.8	40.24
643.99	40.39
644.18	40.43
644.369	40.64
644.559	40.71
644.749	40.83
644.939	40.77
645.128	40.94
645.318	40.81
645.508	40.86
645.697	40.78
645.887	40.8
646.076	41
646.266	40.83
646.456	40.81
646.645	40.87
646.835	40.88
647.024	40.96
647.214	41.08
647.403	41.24
647.593	41.09
647.782	41.21
647.972	41.36
648.161	41.23
648.351	41.33
648.54	41.3
648.73	41.38
648.919	41.2
649.108	41.14
649.298	41.03
649.487	41.13
649.677	41.22
649.866	41.2
650.055	41.15
650.244	41.35
650.434	41.35
650.623	41.45
650.812	41.61
651.002	41.59
651.191	41.74
651.38	41.7
651.569	41.49
651.758	41.61
651.947	41.48
652.137	41.47
652.326	41.19
652.515	41.41
652.704	41.5
652.893	41.29
653.082	41.43
653.271	41.34
653.46	41.42
653.649	41.63
653.838	41.68
654.027	41.82
654.216	41.59
654.405	41.69
654.594	41.32
654.783	41.01
654.972	41.01
655.161	41.31
655.35	41.25
655.539	41.27
655.728	41.22
655.916	41.13
656.105	41.02
656.294	41.19
656.483	40.98
656.672	41
656.86	41.19
657.049	41.45
657.238	41.06
657.427	40.92
657.615	41.02
657.804	41.14
657.993	41.14
658.181	41.29
658.37	41.3
658.559	41.41
658.747	41.51
658.936	41.71
659.125	41.61
659.313	41.8
659.502	41.95
659.69	41.89
659.879	41.78
660.067	41.82
660.256	41.59
660.444	41.61
660.633	41.81
660.821	41.84
661.01	41.76
661.198	41.37
661.387	41.6
661.575	41.69
661.763	41.9
661.952	42.1
662.14	42.17
662.328	42.25
662.517	42.68
662.705	42.57
662.893	42.47
663.082	42.65
663.27	43.26
663.458	42.98
663.646	43.11
663.834	43.11
664.023	42.95
664.211	42.98
664.399	43.21
664.587	43.1
664.775	43.24
664.963	43.43
665.152	43.15
665.34	42.99
665.528	43.14
665.716	42.94
665.904	42.87
666.092	43.21
666.28	43.26
666.468	43.24
666.656	43.11
666.844	42.91
667.032	43.03
667.22	43.23
667.408	43.41
667.596	43.44
667.784	43.48
667.971	43.54
668.159	43.17
668.347	43.12
668.535	43.22
668.723	43.29
668.911	43.53
669.098	43.44
669.286	43.42
669.474	43.54
669.662	43.21
669.849	43.42
670.037	43.32
670.225	43.43
670.413	43.27
670.6	43.42
670.788	43.47
670.976	43.63
671.163	43.81
671.351	43.61
671.538	43.22
671.726	43.49
671.913	43.28
672.101	43.23
672.289	43.35
672.476	43.47
672.664	43.49
672.851	43.45
673.039	43.08
673.226	42.92
673.413	42.95
673.601	43.25
673.788	43.64
673.976	43.96
674.163	44.21
674.35	44
674.538	44.02
674.725	43.92
674.912	43.56
675.1	43.91
675.287	44.06
675.474	44.21
675.662	44
675.849	43.88
676.036	43.74
676.223	43.75
676.411	44.06
676.598	44.1
676.785	44.16
676.972	44.61
677.159	44.27
677.346	44.19
677.533	44.18
677.721	44.21
677.908	44.04
678.095	43.8
678.282	43.59
678.469	43.45
678.656	43.15
678.843	43.23
679.03	42.98
679.217	43.29
679.404	43.23
679.591	43.07
679.778	43.1
679.964	43.23
680.151	43.56
680.338	43.77
680.525	43.85
680.712	44.01
680.899	43.75
681.086	43.77
681.272	43.63
681.459	43.7
681.646	43.98
681.833	44.09
682.02	43.93
682.206	43.79
682.393	43.72
682.58	43.65
682.766	43.72
682.953	44.2
683.14	44.58
683.326	44.71
683.513	44.89
683.7	44.68
683.886	44.64
684.073	44.88
684.259	45.01
684.446	45.1
684.632	45.13
684.819	45.43
685.005	45.15
685.192	45.17
685.378	45.12
685.565	44.86
685.751	45.22
685.938	45.43
686.124	45.16
686.31	45.02
686.497	45.18
686.683	45.02
686.87	44.85
687.056	44.82
687.242	44.82
687.429	45.12
687.615	45.28
687.801	45.27
687.987	45.11
688.174	45.24
688.36	45.17
688.546	44.76
688.732	44.72
688.918	44.78
689.105	44.86
689.291	44.62
689.477	44.62
689.663	44.65
689.849	44.88
690.035	45
690.221	45.06
690.407	45.3
690.593	45.6
690.779	46.17
690.965	45.93
691.151	45.98
691.337	46.18
691.523	46.15
691.709	46.48
691.895	46.01
692.081	45.81
692.267	45.7
692.453	45.82
692.639	45.8
692.825	45.33
693.011	45.82
693.196	45.6
693.382	45.64
693.568	45.57
693.754	45.24
693.94	45.47
694.125	45.63
694.311	45.63
694.497	45.63
694.682	45.59
694.868	45.81
695.054	45.64
695.239	46.15
695.425	45.82
695.611	45.34
695.796	45.15
695.982	45.09
696.168	45.04
696.353	45.28
696.539	45.13
696.724	44.97
696.91	44.7
697.095	44.73
697.281	44.48
697.466	44.53
697.652	44.91
697.837	44.96
698.023	44.72
698.208	44.58
698.393	44.32
698.579	44.48
698.764	44.37
698.949	44.36
699.135	44.41
699.32	44.36
699.505	44.33
699.691	44.11
699.876	44.06
700.061	44.14
700.246	44.4
700.432	44.34
700.617	44.1
700.802	44.19
700.987	44.47
701.172	44.56
701.358	44.65
701.543	44.95
701.728	45.02
701.913	45.29
702.098	45.86
702.283	46.02
702.468	46.46
702.653	46.46
702.838	46.7
703.023	47.02
703.208	46.88
703.393	46.66
703.578	46.52
703.763	46.95
703.948	46.85
704.133	46.58
704.318	46.7
704.503	46.93
704.688	47.39
704.873	47.2
705.057	47.26
705.242	47.37
705.427	47.85
705.612	48.33
705.797	48.63
705.981	49.42
706.166	49.71
706.351	49.85
706.536	50.33
706.72	50.46
706.905	51.04
707.09	51.36
707.274	51.33
707.459	51.37
707.644	51.51
707.828	51.59
708.013	51.18
708.197	51.02
708.382	51.02
708.567	51.07
708.751	50.97
708.936	50.64
709.12	50.16
709.305	50.34
709.489	50.47
709.673	50.47
709.858	49.99
710.042	49.93
710.227	49.76
710.411	50
710.596	49.23
710.78	49.19
710.964	49.55
711.149	50.16
711.333	50.03
711.517	49.76
711.702	49.39
711.886	49.77
712.07	49.83
712.254	50.07
712.438	49.86
712.623	49.8
712.807	49.41
712.991	49.19
713.175	48.66
713.359	48.17
713.544	47.88
713.728	47.65
713.912	47.2
714.096	46.91
714.28	46.89
714.464	46.51
714.648	46.71
714.832	47.09
715.016	46.81
715.2	46.35
715.384	46.71
715.568	46.95
715.752	46.54
715.936	46.49
716.12	46.19
716.304	45.89
716.488	45.8
716.671	45.66
716.855	45.29
717.039	45.55
717.223	45.36
717.407	45.01
717.59	44.83
717.774	45.21
717.958	45.18
718.142	45.4
718.325	45.58
718.509	45.61
718.693	45.66
718.877	46.26
719.06	45.91
719.244	46.33
719.428	46.46
719.611	46.84
719.795	46.84
719.978	46.81
720.162	46.9
720.345	46.57
720.529	47
720.713	46.89
720.896	45.85
721.08	46.19
721.263	46.48
721.446	46.29
721.63	45.74
721.813	46.23
721.997	46.75
722.18	46.4
722.364	46.56
722.547	46.33
722.73	46.23
722.914	46.79
723.097	46.53
723.28	46.48
723.464	46.87
723.647	47.15
723.83	46.89
724.013	46.7
724.197	46.83
724.38	47.04
724.563	46.81
724.746	46.88
724.929	47.11
725.112	47.08
725.296	46.94
725.479	46.76
725.662	46.77
725.845	46.97
726.028	46.92
726.211	46.99
726.394	47.1
726.577	47.16
726.76	47.44
726.943	47.13
727.126	46.7
727.309	46.23
727.492	46.42
727.675	46
727.858	45.35
728.041	45
728.224	44.97
728.407	44.58
728.589	44.45
728.772	43.97
728.955	44.18
729.138	44.87
729.321	45.21
729.503	45.28
729.686	45.44
729.869	45.52
730.052	45.61
730.234	45.59
730.417	45.8
730.6	45.72
730.782	46.13
730.965	46.18
731.148	46.37
731.33	46.66
731.513	46.38
731.695	46.37
731.878	46.69
732.061	46.59
732.243	46.67
732.426	46.5
732.608	47.08
732.791	47.08
732.973	46.99
733.156	46.5
733.338	46.18
733.52	46.64
733.703	46.43
733.885	46.74
734.068	46.68
734.25	46.61
734.432	46.68
734.615	45.76
734.797	45.64
734.979	45.99
735.162	46.01
735.344	45.93
735.526	45.34
735.708	45.94
735.891	45.45
736.073	45.39
736.255	45.92
736.437	45.69
736.619	46.66
736.802	46.64
736.984	45.85
737.166	45.97
737.348	46.55
737.53	46.92
737.712	46.69
737.894	46.86
738.076	47.45
738.258	46.48
738.44	46.66
738.622	46.52
738.804	46.31
738.986	46.85
739.168	46.68
739.35	45.94
739.532	46.03
739.714	46.37
739.896	45.92
740.078	45.22
740.259	46
740.441	46.39
740.623	46.36
740.805	46.61
740.987	46.57
741.168	46.88
741.35	47.89
741.532	47.39
741.714	47.26
741.895	47.53
742.077	48.12
742.259	48.1
742.44	48.18
742.622	47.93
742.804	48
742.985	48.03
743.167	47.85
743.348	46.85
743.53	47.71
743.711	47.59
743.893	47.87
744.075	47.8
744.256	47.4
744.438	47.17
744.619	47.33
744.8	47.52
744.982	47.78
745.163	47.99
745.345	48.85
745.526	48.75
745.707	49.52
745.889	49.42
746.07	49.73
746.252	50.37
746.433	50.59
746.614	50.38
746.795	50.59
746.977	50.35
747.158	50.31
747.339	50.56
747.52	50.05
747.702	49.36
747.883	49.11
748.064	49.16
748.245	48.68
748.426	47.9
748.607	48.43
748.788	48.11
748.97	47.97
749.151	48.36
749.332	48.65
749.513	49.3
749.694	49.51
749.875	49.87
750.056	49.89
750.237	49.83
750.418	49.96
750.599	49.36
750.78	49.22
750.96	49.35
751.141	49.08
751.322	48.49
751.503	48.08
751.684	48.2
751.865	48.28
752.046	48.2
752.226	48.1
752.407	48.61
752.588	48.53
752.769	47.55
752.949	47.32
753.13	47.44
753.311	47.53
753.492	47.41
753.672	46.42
753.853	46.34
754.034	45.92
754.214	46.46
754.395	46.81
754.575	47.72
754.756	49.1
754.937	49.5
755.117	49.23
755.298	49
755.478	48.87
755.659	49.5
755.839	49.61
756.02	50.04
756.2	49.54
756.381	49.67
756.561	49.25
756.741	48.72
756.922	48.24
757.102	47.95
757.283	48.37
757.463	47.75
757.643	47.98
757.823	47.58
758.004	46.76
758.184	46.39
758.364	45.96
758.545	46
758.725	45.04
758.905	44.75
759.085	44.77
759.265	43.67
759.446	44.78
759.626	44.57
759.806	43.58
759.986	44.28
760.166	44.99
760.346	44.2
760.526	44.07
760.706	44.68
760.886	45.1
761.066	44.7
761.246	44.71
761.426	43.57
761.606	42.81
761.786	43.69
761.966	43.45
762.146	42.99
762.326	43.95
762.506	42.99
762.686	42.92
762.866	42.67
763.046	42.95
763.225	42.87
763.405	42.85
763.585	42.84
763.765	42.32
763.945	41.87
764.124	42.11
764.304	41.86
764.484	42.49
764.664	42.51
764.843	43.02
765.023	43.28
765.203	43.34
765.382	43.4
765.562	43.66
765.741	44.14
765.921	45.37
766.101	45.59
766.28	45.52
766.46	45.48
766.639	45.83
766.819	45.65
766.998	44.81
767.178	45.22
767.357	45.98
767.537	46.19
767.716	46.45
767.896	45.59
768.075	45.57
768.254	45.75
768.434	46.3
768.613	46.2
768.792	46.14
768.972	47.15
769.151	47.84
769.33	47.78
769.51	48.38
769.689	48.24
769.868	48.12
770.047	48.37
770.226	47.98
770.406	47.4
770.585	47.7
770.764	47.33
770.943	47.74
771.122	46.85
771.301	46.9
771.48	47.09
771.66	47.62
771.839	48.55
772.018	47.95
772.197	49.1
772.376	49.73
772.555	51.03
772.734	51.5
772.913	50.8
773.092	51.42
773.271	51.09
773.449	51.21
773.628	50.98
773.807	50.65
773.986	51.32
774.165	50.3
774.344	49.58
774.523	47.71
774.701	48.03
774.88	48.55
775.059	48.28
775.238	48.66
775.417	47.78
775.595	48.04
775.774	48.29
775.953	49.15
776.131	49.54
776.31	50.05
776.489	50.11
776.667	50.29
776.846	50.1
777.025	50.05
777.203	49.79
777.382	50.46
777.56	50.28
777.739	50.9
777.917	49.7
778.096	49.52
778.274	49.23
778.453	50.04
778.631	49.04
778.81	49.24
778.988	49.41
779.166	49.47
779.345	49.07
779.523	48.4
779.702	48.33
779.88	48.26
780.058	48.48
780.237	47.99
780.415	48.34
780.593	48.91
780.771	49.25
780.95	49.56
781.128	50.4
781.306	49.87
781.484	50.94
781.662	50.29
781.841	50.58
782.019	50.78
782.197	52.41
782.375	51.51
782.553	50.84
782.731	50.06
782.909	49.24
783.087	48.66
783.265	49.51
783.443	48.89
783.621	48.52
783.799	49.38
783.977	48.93
784.155	47.61
784.333	47.6
784.511	48.27
784.689	48.28
784.867	50.2
785.045	50.12
785.223	50.26
785.4	50.6
785.578	50.76
785.756	49.21
785.934	48.85
786.112	49.57
786.289	50.04
786.467	49.25
786.645	49.84
786.823	47.92
787	48.24
787.178	47.16
787.356	47
787.533	46.33
787.711	46.58
787.889	46.54
788.066	46.17
788.244	45.61
788.421	45.44
788.599	44.87
788.776	45.43
788.954	45.35
789.131	45.69
789.309	45.22
789.486	45.3
789.664	45.8
789.841	45.99
790.019	46.09
790.196	46.22
790.373	46.39
790.551	47.39
790.728	47.23
790.906	47.26
791.083	48.33
791.26	48.41
791.437	49.08
791.615	48.93
791.792	49.14
791.969	48.66
792.146	48.48
792.324	49.18
792.501	48.88
792.678	48.87
792.855	49.18
793.032	48.54
793.209	49.72
793.387	49.73
793.564	49.11
793.741	49.39
793.918	49.54
794.095	49.98
794.272	49.65
794.449	48.79
794.626	48.06
794.803	47.58
794.98	47.94
795.157	47.53
795.334	48.05
795.511	48.55
795.688	48.1
795.864	48.06
796.041	47.3
796.218	47.87
796.395	48.41
796.572	49.39
796.749	48.47
796.925	48.33
797.102	48.97
797.279	48.13
797.456	47.88
797.632	47.83
797.809	46.55
797.986	47.3
798.162	46.6
798.339	46.08
798.516	45.83
798.692	47.03
798.869	46.79
799.046	46.2
799.222	46.28
799.399	45.03
799.575	44.56
799.752	45.85
799.928	45.2
800.105	45.63
800.281	45.03
800.458	45.68
800.634	45.36
800.811	43.81
800.987	43.52
801.163	43.35
801.34	44.32
801.516	44.97
801.692	44.89
801.869	46.18
802.045	45.4
802.221	46.81
802.398	46.03
802.574	46.91
802.75	47.6
802.926	47.61
803.103	47.67
803.279	47.2
803.455	46.15
803.631	46.53
803.807	46.04
803.983	46.78
804.16	46.59
804.336	46.54
804.512	45.44
804.688	46.3
804.864	45.72
805.04	45.91
805.216	46.05
805.392	46.31
805.568	45.22
805.744	44.32
805.92	44.41
806.096	44.57
806.272	44.58
806.448	45.1
806.623	43.95
806.799	44.59
806.975	44.72
807.151	45.11
807.327	45.58
807.503	46.37
807.678	46.96
807.854	47.16
808.03	45.96
808.206	46.32
808.381	44.3
808.557	45.84
808.733	46.52
808.908	45.43
809.084	45.13
809.26	43.95
809.435	43.59
809.611	42.78
809.787	41.81
809.962	42.28
810.138	41.62
810.313	43.47
810.489	43.18
810.664	41.95
810.84	42.3
811.015	44.32
811.191	45.91
811.366	47.54
811.542	48.66
811.717	48.22
811.892	48.13
812.068	49
812.243	49.35
812.419	50.68
812.594	50.51
812.769	50.49
812.944	49.4
813.12	48.47
813.295	47.08
813.47	47.03
813.645	47.52
813.821	47.94
813.996	46.45
814.171	45.82
814.346	44.05
814.521	44.47
814.697	46.26
814.872	46.48
815.047	47.68
815.222	48.77
815.397	48.14
815.572	49.23
815.747	49.75
815.922	50.25
816.097	50.16
816.272	50.33
816.447	49.46
816.622	47.73
816.797	47.2
816.972	45.57
817.147	43.76
817.322	43.74
817.496	42.52
817.671	41.98
817.846	42.22
818.021	41.43
818.196	41.98
818.371	41.8
818.545	41.72
818.72	42.16
818.895	42.9
819.069	42.72
819.244	41.5
819.419	40.98
819.594	39.67
819.768	38.78
819.943	38.27
820.117	36.65
820.292	36.34
820.467	35.88
820.641	34.87
820.816	34.92
820.99	34.56
821.165	34.8
821.339	34.47
821.514	34.02
821.688	33.72
821.863	33.66
822.037	33.68
822.212	33.61
822.386	33.47
822.56	33.47
822.735	33.19
822.909	33.05
823.084	32.93
823.258	33.02
823.432	33.32
823.606	33.42
823.781	33.29
823.955	33.38
824.129	33.41
824.303	33.69
824.478	33.49
824.652	33.51
824.826	33.95
825	33.88
825.174	33.84
825.348	33.8
825.523	33.97
825.697	34.53
825.871	34.69
826.045	35.25
826.219	34.72
826.393	35.22
826.567	35.71
826.741	35.56
826.915	35.78
827.089	36.45
827.263	36.47
827.437	36.1
827.611	36.37
827.784	36.2
827.958	36.02
828.132	36.54
828.306	36.51
828.48	35.94
828.654	35.8
828.827	35.9
829.001	35.48
829.175	35.18
829.349	36.39
829.522	34.83
829.696	34.61
829.87	35.05
830.044	35.36
830.217	35.11
830.391	34.81
830.565	35.97
830.738	36.31
830.912	35.39
831.085	36.19
831.259	36.35
831.432	38.4
831.606	38.95
831.779	37.04
831.953	36.3
832.126	36.55
832.3	37.15
832.473	36.11
832.647	35.68
832.82	36.23
832.994	36.21
833.167	35
833.34	35.03
833.514	34.76
833.687	35.24
833.86	35.85
834.034	35.83
834.207	36.87
834.38	38.03
834.553	38.3
834.727	39.05
834.9	39.35
835.073	39.34
835.246	39.43
835.419	40.6
835.593	40.85
835.766	40.15
835.939	40.36
836.112	39.71
836.285	38.66
836.458	38.14
836.631	36.69
836.804	36.15
836.977	36.3
837.15	37.1
837.323	37.13
837.496	38.86
837.669	39.66
837.842	39.93
838.015	39.47
838.188	41.19
838.361	42.08
838.533	43.46
838.706	44.42
838.879	45.62
839.052	45.31
839.225	41.71
839.398	39.75
839.57	40.08
839.743	39.53
839.916	41.81
840.088	42.03
840.261	41.93
840.434	40.2
840.607	39.48
840.779	39.39
840.952	38.93
841.124	40.36
841.297	41.32
841.47	41.19
841.642	43.02
841.815	42.27
841.987	41.66
842.16	42.44
842.332	43.51
842.505	46.29
842.677	48.23
842.85	47.91
843.022	48.51
843.194	49
843.367	49.98
843.539	52.41
843.712	53.28
843.884	51.45
844.056	50.4
844.229	54.59
844.401	54.23
844.573	54.26
844.745	56.23
844.918	57.64
845.09	57.78
845.262	59.54
845.434	55.63
845.606	52.96
845.779	54.85
845.951	54.69
846.123	51.09
846.295	49.53
846.467	47.34
846.639	48.79
846.811	49.33
846.983	49.12
847.155	47.74
847.327	48.73
847.499	51.88
847.671	50.96
847.843	53.06
848.015	55.72
848.187	56.32
848.359	60.5
848.531	59.19
848.703	59.6
848.875	58.29
849.047	59.65
849.218	60.01
849.39	58.75
849.562	62.91
849.734	64.44
849.905	60.64
850.077	63
850.249	61.05
850.421	60.59
850.592	57.99
850.764	58.04
850.936	58.61
851.107	58.09
851.279	55.37
851.451	51.37
851.622	45.31
851.794	48
851.965	44.15
852.137	42.36
852.308	41.16
852.48	45.02
852.651	49.69
852.823	48.35
852.994	47.49
853.166	52.37
853.337	56.79
853.509	58.91
853.68	55.6
853.851	57.6
854.023	58.41
854.194	63.28
854.365	61.16
854.537	58.25
854.708	58.03
854.879	61.84
855.05	60.23
855.222	57.64
855.393	61.3
855.564	64.31
855.735	65.12
855.906	65.61
856.078	66.98
856.249	66.33
856.42	66.1
856.591	63.32
856.762	61.53
856.933	60.62
857.104	61.32
857.275	59.09
857.446	61.4
857.617	64.11
857.788	62.17
857.959	56.98
858.13	57.61
858.301	60.97
858.472	60.5
858.643	60.13
858.814	62.97
858.985	60.37
859.155	59.55
859.326	56.96
859.497	57.24
859.668	53.98
859.839	58.35
860.009	60.1
860.18	53.01
860.351	56.25
860.522	55.76
860.692	54.54
860.863	58.54
861.034	64.43
861.204	64.74
861.375	61.79
861.546	64.2
861.716	57.25
861.887	59.19
862.057	67.05
862.228	62.05
862.398	62.55
862.569	61.27
862.739	57.71
862.91	56.75
863.08	59.41
863.251	61.26
863.421	63.3
863.592	66.2
863.762	64.29
863.932	60.94
864.103	64.8
864.273	62.03
864.443	62.97
864.614	63.92
864.784	65.9
864.954	59.09
865.125	56.59
865.295	60.2
865.465	63.09
865.635	64.43
865.805	65.88
865.976	66.19
866.146	64.04
866.316	63.53
866.486	62.08
866.656	60.95
866.826	66.48
866.996	66.28
867.166	65.74
867.336	62.97
867.506	61.7
867.676	61.87
867.846	66.17
868.016	68.91
868.186	69.82
868.356	73.4
868.526	67.5
868.696	68.87
868.866	70.4
869.036	71.13
869.206	75.74
869.376	76.01
869.545	77.33
869.715	73.73
869.885	76.02
870.055	74.18
870.224	75.01
870.394	77.81
870.564	73.25
870.734	70.39
870.903	65.61
871.073	61.22
871.243	57.17
871.412	57.42
871.582	57.61
871.751	57.25
871.921	56.2
872.091	52.24
872.26	55.08
872.43	54.15
872.599	53.12
872.769	50.82
872.938	48.89
873.108	51.05
873.277	46.31
873.446	44.48
873.616	46.95
873.785	49.32
873.955	50.28
874.124	46.66
874.293	46.41
874.463	46.66
874.632	52.45
874.801	56.57
874.971	58.01
875.14	62.54
875.309	65.27
875.478	61.93
875.647	62.49
875.817	63.55
875.986	64.75
876.155	65.44
876.324	67.46
876.493	71.62
876.662	67.31
876.831	64.81
877	63.15
877.17	61.77
877.339	64.48
877.508	64.87
877.677	68.12
877.846	69.73
878.015	70.05
878.184	70.74
878.352	65.55
878.521	68.95
878.69	68.93
878.859	67.03
879.028	65.95
879.197	59.41
879.366	56.9
879.534	54.11
879.703	48.42
879.872	43.93
880.041	39.45
880.21	37.79
880.378	34.15
880.547	32.79
880.716	31.75
880.884	31.29
881.053	31.05
881.222	30.55
881.39	29.18
881.559	30.13
881.727	30.3
881.896	30.39
882.065	30.27
882.233	31.44
882.402	31.25
882.57	30.89
882.739	30.33
882.907	31.39
883.076	31.05
883.244	31.12
883.412	30.38
883.581	30.02
883.749	30.42
883.918	30.48
884.086	29.7
884.254	31.14
884.423	31.89
884.591	33.19
884.759	31.83
884.927	32.72
885.096	33.35
885.264	34.91
885.432	37.4
885.6	36.71
885.769	36.98
885.937	38.28
886.105	37.1
886.273	37.38
886.441	36.02
886.609	38.44
886.777	38.81
886.945	39.83
887.113	40.7
887.281	40.01
887.449	46.3
887.617	48.47
887.785	46.53
887.953	46.72
888.121	46.49
888.289	47.37
888.457	49.99
888.625	49.6
888.793	49.67
888.961	49.88
889.129	51.91
889.296	49.8
889.464	50.13
889.632	53.03
889.8	55.15
889.967	58.53
890.135	60.68
