Data from 2938748__Reflection_03.txt Node
Date: Sun Mar 15 11:25:21 EDT 2015
User: robert
Spectrometer: USB4E03002
Autoset integration time: false
Trigger mode: 4
Integration Time (sec): 1.000000E-1
Scans to average: 10
Electric dark correction enabled: false
Nonlinearity correction enabled: false
Boxcar width: 5
Stray light correction enabled: false
XAxis mode: Wavelengths
Stop averaging: false
Number of Pixels in Spectrum: 3648
>>>>>Begin Spectral Data<<<<<
177.575	289.6
177.794	271.36
178.014	247.63
178.233	245.8
178.452	239.28
178.672	234.7
178.891	233.01
179.11	238.25
179.33	224.24
179.549	211.25
179.768	214.18
179.987	204.47
180.207	198.76
180.426	203.16
180.645	197.64
180.864	193.86
181.084	185.24
181.303	186.73
181.522	175.97
181.741	179.14
181.96	173.99
182.179	177.82
182.398	175.2
182.618	165.43
182.837	163.81
183.056	160.46
183.275	156.57
183.494	157.26
183.713	149.77
183.932	148.82
184.151	153.25
184.37	161.17
184.589	155.36
184.808	164.45
185.027	175.3
185.246	167.53
185.465	171.44
185.684	175.09
185.903	175.63
186.122	172.49
186.341	182.19
186.56	175.57
186.779	163.69
186.998	164.22
187.216	162.5
187.435	166.78
187.654	167.97
187.873	169.91
188.092	168.06
188.311	171.64
188.53	184.55
188.748	185.85
188.967	174.91
189.186	190
189.405	193.46
189.623	199.82
189.842	192.98
190.061	202.49
190.28	191.71
190.498	197.85
190.717	206.69
190.936	199.06
191.154	181.27
191.373	196.58
191.592	193.09
191.81	185.79
192.029	183.91
192.248	179.97
192.466	183.83
192.685	184.52
192.904	178.8
193.122	171.91
193.341	170.25
193.559	183.27
193.778	184.41
193.996	177.5
194.215	182.76
194.433	173.7
194.652	175.87
194.87	171.38
195.089	179.5
195.307	179.38
195.526	176.14
195.744	176.98
195.963	174.08
196.181	163.62
196.399	166.52
196.618	167.05
196.836	167.33
197.055	169.54
197.273	166.85
197.491	175.1
197.71	172.99
197.928	177.28
198.146	180.23
198.365	172.88
198.583	176.16
198.801	175.39
199.019	181.18
199.238	197.27
199.456	194.98
199.674	194.57
199.892	185.38
200.111	194.73
200.329	190.16
200.547	187.11
200.765	196.86
200.983	201.14
201.202	187.72
201.42	185.6
201.638	173.85
201.856	170.71
202.074	171.56
202.292	161.71
202.51	164.66
202.728	166.01
202.946	170.86
203.165	168.58
203.383	160.77
203.601	167.19
203.819	166.06
204.037	171.71
204.255	175.98
204.473	163.92
204.691	171.85
204.909	166.69
205.127	172.41
205.345	163.6
205.562	157.19
205.78	167.12
205.998	166.15
206.216	167.46
206.434	168
206.652	171.53
206.87	178.96
207.088	178.25
207.306	173.35
207.523	172.4
207.741	167.62
207.959	176.4
208.177	162.2
208.395	166.4
208.612	165.77
208.83	154.3
209.048	154.59
209.266	153.25
209.483	147.34
209.701	148.74
209.919	146.86
210.136	151.74
210.354	155.09
210.572	159.35
210.79	164.63
211.007	161.25
211.225	163.93
211.442	158.38
211.66	161.86
211.878	167.01
212.095	182.23
212.313	169.85
212.53	170.17
212.748	153.54
212.966	145.97
213.183	134.79
213.401	132.69
213.618	136.96
213.836	137.94
214.053	139.17
214.271	144.61
214.488	149.33
214.705	154.22
214.923	155.37
215.14	154.36
215.358	157.07
215.575	162.9
215.793	164.55
216.01	160.67
216.227	156.51
216.445	159.29
216.662	154.96
216.879	142.67
217.097	136.86
217.314	133.6
217.531	142.06
217.749	148.6
217.966	146.81
218.183	149.24
218.4	149.48
218.618	147.26
218.835	146.42
219.052	140.87
219.269	141.23
219.487	144.87
219.704	143.65
219.921	134.71
220.138	130.98
220.355	131.5
220.572	127.18
220.79	124.47
221.007	123.57
221.224	116.4
221.441	113.56
221.658	114.07
221.875	113.27
222.092	115.62
222.309	118.96
222.526	113.8
222.743	112.99
222.96	105.62
223.177	105.22
223.394	104.18
223.611	106.53
223.828	111.76
224.045	106.52
224.262	106.97
224.479	105.15
224.696	102.46
224.913	100.51
225.13	95.83
225.347	99.01
225.564	96.09
225.781	93.39
225.997	90.14
226.214	82.98
226.431	79.62
226.648	72.74
226.865	63.92
227.082	59.1
227.298	54.18
227.515	49.08
227.732	44.08
227.949	39.26
228.165	36.64
228.382	34.18
228.599	32.57
228.816	30.42
229.032	29.21
229.249	28.66
229.466	28.22
229.682	27.62
229.899	27.38
230.116	27.96
230.332	28.84
230.549	28.99
230.765	30.19
230.982	31.55
231.199	33.32
231.415	36.59
231.632	39.63
231.848	40.94
232.065	43.24
232.281	45.91
232.498	47
232.714	47.94
232.931	50.12
233.147	48.82
233.364	48.57
233.58	48.24
233.797	46.45
234.013	45.23
234.23	44.09
234.446	43.99
234.662	43.52
234.879	42.16
235.095	42.57
235.312	42.43
235.528	44.03
235.744	43.95
235.961	44.24
236.177	43.52
236.393	44.87
236.61	47.07
236.826	46.17
237.042	45.44
237.258	46.09
237.475	45.8
237.691	45.23
237.907	44.12
238.123	43.17
238.339	43.56
238.556	45.25
238.772	43.32
238.988	42.48
239.204	42.57
239.42	41.25
239.636	40.41
239.853	38.31
240.069	36.92
240.285	36.08
240.501	34.21
240.717	33.1
240.933	30.44
241.149	28.7
241.365	26.24
241.581	24.43
241.797	23.83
242.013	23.11
242.229	22.88
242.445	22.15
242.661	21.35
242.877	21.74
243.093	21.45
243.309	21.69
243.525	21.92
243.741	22.67
243.957	24.06
244.173	24.41
244.388	25.09
244.604	25.12
244.82	25.95
245.036	25.19
245.252	24.03
245.468	22.41
245.683	20.82
245.899	19.79
246.115	18.56
246.331	17.25
246.547	15.86
246.762	14.87
246.978	14.42
247.194	13.79
247.409	13.36
247.625	13.14
247.841	12.95
248.057	13.2
248.272	13.33
248.488	13.73
248.703	14.2
248.919	14.9
249.135	15.37
249.35	15.76
249.566	16.41
249.782	17.68
249.997	18.65
250.213	20.26
250.428	20.9
250.644	21.54
250.859	21.88
251.075	21.47
251.29	20.98
251.506	21.66
251.721	21.42
251.937	21.97
252.152	21.99
252.368	21.75
252.583	21.27
252.798	20.95
253.014	20.95
253.229	21.42
253.445	22.24
253.66	23.93
253.875	23.54
254.091	24.44
254.306	24.32
254.521	25.17
254.737	25.77
254.952	25.65
255.167	26.69
255.383	26.87
255.598	26.5
255.813	26.8
256.028	27.03
256.244	27.78
256.459	27.74
256.674	27.67
256.889	27.09
257.104	26.69
257.32	26.68
257.535	25.4
257.75	23.59
257.965	22.12
258.18	19.82
258.395	17.81
258.61	15.83
258.826	14.49
259.041	13.61
259.256	12.58
259.471	11.86
259.686	11.26
259.901	10.83
260.116	10.89
260.331	10.72
260.546	10.99
260.761	11.17
260.976	11.6
261.191	12.23
261.406	12.63
261.621	13.63
261.836	14.54
262.05	15.12
262.265	16.06
262.48	17.09
262.695	17.87
262.91	18.59
263.125	19.42
263.34	20.14
263.555	20.45
263.769	20.96
263.984	20.84
264.199	20.87
264.414	21.45
264.629	21.26
264.843	21.01
265.058	20.97
265.273	20.41
265.488	19.57
265.702	19.34
265.917	18.8
266.132	18.72
266.346	18.09
266.561	17.4
266.776	16.78
266.99	16.77
267.205	16.07
267.42	16.27
267.634	16.39
267.849	16.22
268.063	15.78
268.278	15.8
268.492	15.88
268.707	16.25
268.922	16.13
269.136	16.39
269.351	16.35
269.565	16.75
269.78	16.41
269.994	16.24
270.209	16.24
270.423	16.43
270.637	16.34
270.852	15.61
271.066	15.14
271.281	14.77
271.495	14.11
271.709	13.65
271.924	13.42
272.138	13.14
272.353	13.28
272.567	13.37
272.781	13.04
272.996	12.98
273.21	12.98
273.424	12.79
273.638	13.19
273.853	13.64
274.067	14.26
274.281	14.45
274.495	14.57
274.71	14.67
274.924	14.93
275.138	15.46
275.352	15.4
275.566	14.98
275.781	15.6
275.995	15.79
276.209	16.09
276.423	16.16
276.637	16
276.851	16.35
277.065	15.87
277.279	15.06
277.493	15.15
277.707	15.65
277.921	16.43
278.135	16
278.349	15.63
278.563	15.16
278.777	14.79
278.991	15.06
279.205	14.83
279.419	15.35
279.633	15.9
279.847	15.52
280.061	14.97
280.275	14.5
280.489	14.72
280.703	14.65
280.917	14.77
281.131	14.35
281.344	13.41
281.558	13.37
281.772	13.08
281.986	13.28
282.2	13.11
282.414	12.91
282.627	13
282.841	12.47
283.055	12.61
283.269	12.5
283.482	12.9
283.696	13.28
283.91	13.18
284.123	12.89
284.337	12.62
284.551	12.45
284.764	12.73
284.978	12.6
285.192	12.61
285.405	12.32
285.619	12.12
285.833	11.8
286.046	11.87
286.26	11.96
286.473	12.1
286.687	12.12
286.9	12.24
287.114	12.2
287.327	12.18
287.541	12.35
287.754	12.49
287.968	12.25
288.181	12.35
288.395	12.35
288.608	12.26
288.822	12.02
289.035	12.05
289.248	11.9
289.462	11.51
289.675	11.54
289.889	11.35
290.102	11.44
290.315	11.71
290.529	11.45
290.742	11.66
290.955	11.81
291.169	12.1
291.382	12.15
291.595	12.64
291.808	13.13
292.022	13.41
292.235	13.95
292.448	14.42
292.661	14.58
292.875	15.15
293.088	15.05
293.301	14.93
293.514	14.93
293.727	14.44
293.94	13.88
294.153	14.01
294.367	13.61
294.58	13.11
294.793	12.63
295.006	12.54
295.219	12.18
295.432	12.17
295.645	11.79
295.858	11.19
296.071	11.47
296.284	11.61
296.497	11.13
296.71	11.01
296.923	10.96
297.136	10.77
297.349	10.58
297.562	10.44
297.775	10.29
297.988	10.48
298.201	11.04
298.414	10.86
298.626	10.89
298.839	11
299.052	11.26
299.265	11.56
299.478	12.02
299.691	12.42
299.903	12.78
300.116	12.79
300.329	12.93
300.542	12.71
300.755	12.91
300.967	13.22
301.18	13.36
301.393	13.78
301.605	13.69
301.818	13.48
302.031	13.55
302.243	13.56
302.456	13.74
302.669	13.61
302.881	13.92
303.094	14.24
303.307	13.7
303.519	14.13
303.732	13.67
303.944	13.73
304.157	13.63
304.37	13.65
304.582	14.12
304.795	14.48
305.007	14.69
305.22	14.74
305.432	14.84
305.645	15.44
305.857	15.22
306.069	15.46
306.282	15.56
306.494	16.01
306.707	15.98
306.919	15.61
307.132	15.34
307.344	15.27
307.556	15.41
307.769	15.23
307.981	14.86
308.193	14.57
308.406	14.23
308.618	14.09
308.83	13.75
309.043	13.59
309.255	13.06
309.467	12.81
309.679	12.54
309.892	12.35
310.104	12.02
310.316	11.88
310.528	11.86
310.74	11.98
310.953	12.11
311.165	12.28
311.377	12.48
311.589	13.21
311.801	13.51
312.013	13.56
312.225	13.56
312.437	14.14
312.649	14.68
312.862	15.18
313.074	15.35
313.286	15.79
313.498	15.93
313.71	15.87
313.922	16.06
314.134	16.36
314.346	16.9
314.558	17.08
314.77	16.71
314.982	16.44
315.193	16.14
315.405	15.95
315.617	15.64
315.829	15.31
316.041	15.86
316.253	15.37
316.465	15.62
316.677	15.69
316.888	15.79
317.1	15.59
317.312	16.08
317.524	16.18
317.736	16.46
317.947	17
318.159	17.68
318.371	17.52
318.583	17.58
318.794	17.07
319.006	17.38
319.218	17.06
319.43	17.34
319.641	17.35
319.853	17.62
320.064	18.07
320.276	18.12
320.488	17.84
320.699	18.11
320.911	18.64
321.123	19.02
321.334	18.54
321.546	19.42
321.757	19.64
321.969	19.79
322.18	19.87
322.392	19.65
322.603	19.14
322.815	19.93
323.026	19.9
323.238	19.98
323.449	19.46
323.661	19.55
323.872	19.1
324.083	19.3
324.295	19.02
324.506	18.95
324.718	18.62
324.929	19.15
325.14	18.67
325.352	18.64
325.563	18.48
325.774	19.05
325.986	19.35
326.197	19.4
326.408	19.38
326.62	19.72
326.831	19.86
327.042	20.29
327.253	20.02
327.464	20.17
327.676	20.4
327.887	20.6
328.098	20.91
328.309	21.3
328.52	21.68
328.732	21.78
328.943	22
329.154	22.45
329.365	22.67
329.576	23.17
329.787	23.48
329.998	23.56
330.209	23.77
330.42	23.87
330.631	23.84
330.842	23.93
331.053	24.15
331.264	23.59
331.475	23.62
331.686	24
331.897	24.32
332.108	24.13
332.319	24.46
332.53	24.67
332.741	24.56
332.952	24.44
333.163	24.73
333.374	24.65
333.585	25.48
333.795	25.28
334.006	25.01
334.217	24.72
334.428	25.11
334.639	24.95
334.849	24.59
335.06	24.76
335.271	24.64
335.482	24.44
335.692	24.51
335.903	24.23
336.114	24.53
336.325	24.88
336.535	24.86
336.746	24.91
336.957	25.12
337.167	25.51
337.378	25.27
337.589	25.65
337.799	25.29
338.01	25.46
338.22	25.6
338.431	25.85
338.642	25.77
338.852	25.57
339.063	25.58
339.273	25.42
339.484	25.13
339.694	25.29
339.905	24.96
340.115	25.52
340.326	25.3
340.536	25.22
340.746	25.01
340.957	25.01
341.167	24.94
341.378	24.93
341.588	24.81
341.799	25.05
342.009	24.79
342.219	24.96
342.43	24.63
342.64	24.89
342.85	24.57
343.061	24.11
343.271	24.07
343.481	24.46
343.691	24.21
343.902	23.9
344.112	23.83
344.322	23.77
344.532	23.66
344.743	23.84
344.953	23.71
345.163	23.82
345.373	24.12
345.583	23.97
345.793	23.62
346.004	23.57
346.214	23.74
346.424	23.58
346.634	23.58
346.844	23.5
347.054	23.47
347.264	23.64
347.474	23.88
347.684	23.55
347.894	23.71
348.104	24
348.314	24.06
348.524	24.05
348.734	23.79
348.944	24.02
349.154	24.26
349.364	23.96
349.574	23.67
349.784	23.6
349.994	23.86
350.204	23.82
350.413	23.87
350.623	24.07
350.833	23.99
351.043	24.13
351.253	24.19
351.463	23.79
351.672	23.76
351.882	23.6
352.092	23.35
352.302	23.28
352.511	23.17
352.721	22.72
352.931	22.45
353.141	22.66
353.35	22.85
353.56	22.56
353.77	22.39
353.979	22.28
354.189	22.25
354.399	22.31
354.608	21.99
354.818	21.9
355.027	21.89
355.237	21.72
355.447	21.45
355.656	21.04
355.866	20.76
356.075	20.84
356.285	20.96
356.494	21.03
356.704	21.01
356.913	21.25
357.123	21.07
357.332	20.92
357.542	21.02
357.751	20.86
357.96	20.89
358.17	21.27
358.379	21.28
358.589	21.18
358.798	21.1
359.007	20.86
359.217	20.77
359.426	20.63
359.635	20.76
359.845	20.48
360.054	20.38
360.263	20.48
360.472	20.13
360.682	19.84
360.891	19.9
361.1	19.77
361.309	19.73
361.519	19.62
361.728	19.53
361.937	19.4
362.146	19.34
362.355	19.22
362.564	19.05
362.774	18.87
362.983	19.14
363.192	19.05
363.401	18.99
363.61	19.08
363.819	19.16
364.028	19.3
364.237	19.41
364.446	19.67
364.655	19.68
364.864	19.83
365.073	20.15
365.282	20.18
365.491	20.1
365.7	20.32
365.909	20.1
366.118	19.96
366.327	19.84
366.536	19.94
366.745	19.82
366.954	20.13
367.162	20.25
367.371	20.01
367.58	19.79
367.789	19.72
367.998	19.56
368.207	19.77
368.415	19.77
368.624	19.78
368.833	19.82
369.042	19.93
369.25	19.97
369.459	19.95
369.668	20.23
369.877	19.99
370.085	20.07
370.294	19.92
370.503	20
370.711	19.76
370.92	19.58
371.129	19.39
371.337	19.09
371.546	18.99
371.754	18.97
371.963	18.77
372.171	19.03
372.38	18.72
372.589	19.07
372.797	19.18
373.006	19.19
373.214	19.53
373.423	19.65
373.631	19.64
373.84	19.53
374.048	19.56
374.256	19.79
374.465	19.78
374.673	19.97
374.882	19.83
375.09	19.31
375.298	19.27
375.507	18.77
375.715	18.66
375.923	18.57
376.132	18.42
376.34	18.03
376.548	17.56
376.757	17.23
376.965	17.15
377.173	16.9
377.381	17.08
377.59	17.25
377.798	17.65
378.006	17.74
378.214	17.85
378.423	18.07
378.631	18.23
378.839	18.3
379.047	18.49
379.255	18.53
379.463	18.68
379.671	18.57
379.879	18.59
380.088	18.36
380.296	18.14
380.504	18.13
380.712	18.1
380.92	18.04
381.128	18.33
381.336	18.36
381.544	18.39
381.752	18.35
381.96	18.18
382.168	18.21
382.376	18.32
382.584	18.38
382.791	18.48
382.999	18.2
383.207	17.9
383.415	17.58
383.623	17.5
383.831	17.32
384.039	17.4
384.247	17.45
384.454	17.1
384.662	16.83
384.87	16.64
385.078	16.7
385.285	16.5
385.493	16.75
385.701	16.97
385.909	17.04
386.116	17.12
386.324	16.85
386.532	16.78
386.739	17.02
386.947	17.04
387.155	16.94
387.362	16.78
387.57	16.96
387.778	16.91
387.985	16.69
388.193	16.54
388.4	16.59
388.608	16.77
388.816	16.87
389.023	16.63
389.231	16.5
389.438	16.67
389.646	16.51
389.853	16.47
390.061	16.22
390.268	16.29
390.475	16.25
390.683	16.13
390.89	15.75
391.098	15.49
391.305	15.45
391.512	15.58
391.72	15.31
391.927	15.1
392.135	15.17
392.342	15.32
392.549	15.34
392.756	15.23
392.964	15.12
393.171	15.18
393.378	15.43
393.586	15.39
393.793	15.49
394	15.49
394.207	15.77
394.414	15.85
394.622	15.73
394.829	15.71
395.036	15.65
395.243	15.79
395.45	15.75
395.657	15.55
395.864	15.67
396.072	15.66
396.279	15.8
396.486	15.84
396.693	15.65
396.9	15.54
397.107	15.56
397.314	15.84
397.521	15.57
397.728	15.56
397.935	15.63
398.142	15.67
398.349	15.37
398.556	15.19
398.763	15.01
398.97	15.04
399.177	15.18
399.383	14.93
399.59	14.66
399.797	14.96
400.004	15.03
400.211	15.05
400.418	14.96
400.625	15.06
400.831	15.18
401.038	15.17
401.245	15.34
401.452	15.35
401.658	15.5
401.865	15.54
402.072	15.25
402.279	15.27
402.485	15.26
402.692	15.22
402.899	15.23
403.105	15.23
403.312	15.07
403.519	14.83
403.725	14.82
403.932	14.51
404.138	14.55
404.345	14.39
404.552	14.34
404.758	14.39
404.965	14.35
405.171	14.27
405.378	14
405.584	14.12
405.791	14.09
405.997	14.03
406.204	14.27
406.41	14.11
406.617	14.31
406.823	14.37
407.029	14.36
407.236	14.51
407.442	14.33
407.649	14.72
407.855	14.75
408.061	14.64
408.268	14.69
408.474	14.53
408.68	14.7
408.887	14.56
409.093	14.56
409.299	14.36
409.505	14.23
409.712	14.5
409.918	14.28
410.124	14.04
410.33	14.12
410.537	14.1
410.743	14.18
410.949	14.17
411.155	14.37
411.361	14.22
411.567	14.12
411.773	14.33
411.98	14.32
412.186	14.25
412.392	14.54
412.598	14.55
412.804	14.54
413.01	14.44
413.216	14.4
413.422	14.43
413.628	14.58
413.834	14.73
414.04	14.42
414.246	14.29
414.452	14.33
414.658	14.05
414.864	13.92
415.07	13.89
415.275	14.03
415.481	14.06
415.687	14.05
415.893	13.91
416.099	13.74
416.305	13.63
416.511	13.55
416.716	13.41
416.922	13.44
417.128	13.49
417.334	13.35
417.539	13.18
417.745	13.06
417.951	12.88
418.157	12.67
418.362	12.62
418.568	12.57
418.774	12.55
418.979	12.54
419.185	12.4
419.391	12.26
419.596	12.18
419.802	12.21
420.008	12.15
420.213	12.54
420.419	12.73
420.624	12.71
420.83	12.65
421.035	12.59
421.241	12.58
421.446	12.61
421.652	12.6
421.857	12.65
422.063	12.6
422.268	12.56
422.474	12.13
422.679	12.01
422.885	12.06
423.09	12.11
423.295	12.16
423.501	12.09
423.706	12.01
423.911	12.02
424.117	12
424.322	11.98
424.527	12.08
424.733	12.04
424.938	12.07
425.143	12.12
425.349	12.11
425.554	12.15
425.759	12.25
425.964	12.41
426.169	12.49
426.375	12.57
426.58	12.74
426.785	12.77
426.99	12.91
427.195	12.97
427.4	12.86
427.605	13
427.811	12.95
428.016	13.05
428.221	12.95
428.426	13.02
428.631	13
428.836	13
429.041	12.9
429.246	12.91
429.451	12.88
429.656	13.05
429.861	13.11
430.066	13.41
430.271	13.36
430.476	13.4
430.681	13.3
430.886	13.41
431.09	13.32
431.295	13.3
431.5	13.37
431.705	13.27
431.91	13.16
432.115	12.98
432.32	12.82
432.524	12.81
432.729	12.73
432.934	12.75
433.139	12.66
433.343	12.73
433.548	12.68
433.753	12.59
433.958	12.63
434.162	12.71
434.367	12.86
434.572	12.77
434.776	12.77
434.981	12.85
435.186	12.87
435.39	12.98
435.595	12.92
435.799	12.99
436.004	13.06
436.209	13.22
436.413	13.17
436.618	13.02
436.822	13.06
437.027	13
437.231	13.1
437.436	12.9
437.64	12.83
437.845	12.88
438.049	12.75
438.253	12.71
438.458	12.59
438.662	12.49
438.867	12.47
439.071	12.5
439.275	12.5
439.48	12.44
439.684	12.47
439.888	12.34
440.093	12.18
440.297	12.24
440.501	12.22
440.706	12.17
440.91	12.28
441.114	12.25
441.318	12.24
441.523	12.22
441.727	12.14
441.931	12.26
442.135	12.29
442.339	12.37
442.543	12.48
442.748	12.47
442.952	12.47
443.156	12.47
443.36	12.54
443.564	12.45
443.768	12.5
443.972	12.53
444.176	12.52
444.38	12.5
444.584	12.47
444.788	12.38
444.992	12.27
445.196	12.25
445.4	12.11
445.604	12.08
445.808	12.07
446.012	11.91
446.216	11.92
446.42	11.8
446.624	11.81
446.828	11.78
447.032	11.73
447.235	11.74
447.439	11.75
447.643	11.78
447.847	11.8
448.051	11.81
448.254	11.96
448.458	12.04
448.662	12.18
448.866	12.18
449.069	12.2
449.273	12.42
449.477	12.5
449.681	12.56
449.884	12.72
450.088	12.75
450.292	12.8
450.495	12.76
450.699	12.73
450.902	12.78
451.106	12.76
451.31	12.76
451.513	12.55
451.717	12.58
451.92	12.61
452.124	12.56
452.327	12.56
452.531	12.48
452.734	12.59
452.938	12.55
453.141	12.51
453.345	12.61
453.548	12.64
453.752	12.77
453.955	12.81
454.158	12.74
454.362	12.75
454.565	12.71
454.769	12.85
454.972	12.94
455.175	13.03
455.379	13.02
455.582	12.96
455.785	12.96
455.988	12.93
456.192	12.81
456.395	12.95
456.598	12.88
456.801	12.84
457.005	12.72
457.208	12.51
457.411	12.43
457.614	12.31
457.817	12.33
458.021	12.24
458.224	12.16
458.427	12.25
458.63	12.08
458.833	12.04
459.036	11.96
459.239	11.88
459.442	11.85
459.645	11.8
459.848	11.7
460.051	11.67
460.254	11.75
460.457	11.71
460.66	11.71
460.863	11.78
461.066	11.77
461.269	11.82
461.472	11.98
461.675	12.02
461.878	12.13
462.081	12.33
462.284	12.42
462.486	12.42
462.689	12.6
462.892	12.63
463.095	12.63
463.298	12.75
463.5	12.98
463.703	12.99
463.906	13.17
464.109	13.18
464.311	13.21
464.514	13.16
464.717	13.2
464.92	13.2
465.122	13.24
465.325	13.36
465.528	13.4
465.73	13.29
465.933	13.29
466.135	13.28
466.338	13.27
466.541	13.13
466.743	13.24
466.946	13.36
467.148	13.36
467.351	13.27
467.553	13.2
467.756	13.15
467.958	13.06
468.161	13.02
468.363	12.94
468.566	12.87
468.768	13
468.971	12.88
469.173	12.74
469.375	12.69
469.578	12.54
469.78	12.61
469.983	12.69
470.185	12.72
470.387	12.69
470.59	12.67
470.792	12.71
470.994	12.7
471.196	12.85
471.399	12.89
471.601	12.89
471.803	13.02
472.005	12.99
472.208	13.01
472.41	13.05
472.612	13.15
472.814	13.08
473.016	13.15
473.218	13.19
473.421	13.11
473.623	13.15
473.825	13.17
474.027	13.21
474.229	13.22
474.431	13.08
474.633	13.07
474.835	13.01
475.037	13.01
475.239	12.95
475.441	12.89
475.643	12.77
475.845	12.68
476.047	12.64
476.249	12.6
476.451	12.52
476.653	12.52
476.855	12.53
477.057	12.56
477.258	12.55
477.46	12.62
477.662	12.72
477.864	12.78
478.066	12.74
478.268	12.78
478.469	12.85
478.671	12.93
478.873	12.93
479.075	12.87
479.276	12.77
479.478	12.89
479.68	12.78
479.882	12.71
480.083	12.59
480.285	12.6
480.487	12.48
480.688	12.28
480.89	12.18
481.091	12.13
481.293	12.05
481.495	11.9
481.696	11.7
481.898	11.55
482.099	11.33
482.301	11.28
482.502	11.13
482.704	11.01
482.905	10.95
483.107	10.82
483.308	10.74
483.51	10.68
483.711	10.66
483.913	10.63
484.114	10.61
484.315	10.63
484.517	10.62
484.718	10.66
484.92	10.7
485.121	10.75
485.322	10.82
485.524	10.87
485.725	10.89
485.926	10.95
486.127	10.96
486.329	11.02
486.53	11.06
486.731	11.05
486.932	11.01
487.134	11
487.335	10.94
487.536	10.95
487.737	10.93
487.938	11.01
488.139	11.02
488.341	11.05
488.542	11.1
488.743	11.1
488.944	11.2
489.145	11.27
489.346	11.35
489.547	11.47
489.748	11.52
489.949	11.61
490.15	11.58
490.351	11.54
490.552	11.54
490.753	11.43
490.954	11.43
491.155	11.37
491.356	11.38
491.557	11.39
491.758	11.33
491.959	11.32
492.159	11.31
492.36	11.37
492.561	11.46
492.762	11.54
492.963	11.72
493.164	11.85
493.364	11.95
493.565	12.04
493.766	12.14
493.967	12.28
494.167	12.41
494.368	12.48
494.569	12.53
494.769	12.64
494.97	12.63
495.171	12.6
495.371	12.58
495.572	12.6
495.773	12.6
495.973	12.59
496.174	12.61
496.375	12.62
496.575	12.65
496.776	12.62
496.976	12.66
497.177	12.69
497.377	12.64
497.578	12.64
497.778	12.65
497.979	12.63
498.179	12.61
498.38	12.61
498.58	12.59
498.78	12.62
498.981	12.66
499.181	12.65
499.382	12.71
499.582	12.84
499.782	12.95
499.983	13.01
500.183	13.03
500.383	13.14
500.584	13.22
500.784	13.29
500.984	13.34
501.184	13.41
501.385	13.42
501.585	13.46
501.785	13.41
501.985	13.4
502.185	13.46
502.386	13.53
502.586	13.64
502.786	13.6
502.986	13.54
503.186	13.54
503.386	13.5
503.586	13.55
503.786	13.59
503.987	13.67
504.187	13.73
504.387	13.69
504.587	13.7
504.787	13.59
504.987	13.68
505.187	13.82
505.387	13.86
505.587	13.84
505.786	13.88
505.986	14.01
506.186	14.08
506.386	14.04
506.586	13.96
506.786	14.02
506.986	14.04
507.186	13.97
507.386	13.9
507.585	13.95
507.785	13.98
507.985	13.89
508.185	13.75
508.384	13.78
508.584	13.74
508.784	13.86
508.984	13.91
509.183	13.89
509.383	13.96
509.583	14.01
509.782	13.98
509.982	14.04
510.182	14.07
510.381	14.09
510.581	14.07
510.781	14.17
510.98	14.19
511.18	14.14
511.379	14.21
511.579	14.22
511.778	14.18
511.978	14.24
512.177	14.2
512.377	14.33
512.576	14.39
512.776	14.44
512.975	14.42
513.175	14.5
513.374	14.56
513.573	14.62
513.773	14.72
513.972	14.86
514.172	14.97
514.371	15.19
514.57	15.12
514.77	15.09
514.969	15.01
515.168	15.11
515.367	15.08
515.567	15.09
515.766	15
515.965	14.98
516.164	15.02
516.364	14.89
516.563	14.71
516.762	14.74
516.961	14.72
517.16	14.7
517.359	14.64
517.559	14.56
517.758	14.58
517.957	14.58
518.156	14.51
518.355	14.43
518.554	14.48
518.753	14.52
518.952	14.48
519.151	14.63
519.35	14.71
519.549	14.82
519.748	14.89
519.947	15.05
520.146	15.15
520.345	15.34
520.544	15.48
520.743	15.59
520.942	15.72
521.141	15.9
521.339	15.93
521.538	16
521.737	16.08
521.936	16.19
522.135	16.16
522.333	16.26
522.532	16.29
522.731	16.32
522.93	16.3
523.129	16.42
523.327	16.42
523.526	16.38
523.725	16.48
523.923	16.37
524.122	16.3
524.321	16.23
524.519	16.21
524.718	16.19
524.917	16.18
525.115	16.17
525.314	16.09
525.512	16.06
525.711	16.04
525.909	15.93
526.108	15.95
526.306	15.91
526.505	15.87
526.703	15.77
526.902	15.68
527.1	15.61
527.299	15.57
527.497	15.55
527.696	15.51
527.894	15.51
528.092	15.53
528.291	15.53
528.489	15.58
528.688	15.6
528.886	15.67
529.084	15.74
529.283	15.84
529.481	15.93
529.679	16.02
529.877	16.17
530.076	16.31
530.274	16.48
530.472	16.6
530.67	16.72
530.869	16.9
531.067	17.01
531.265	17.12
531.463	17.26
531.661	17.31
531.859	17.35
532.057	17.4
532.255	17.41
532.454	17.36
532.652	17.4
532.85	17.41
533.048	17.45
533.246	17.53
533.444	17.59
533.642	17.55
533.84	17.69
534.038	17.74
534.236	17.78
534.434	17.94
534.632	18.13
534.83	18.26
535.027	18.4
535.225	18.5
535.423	18.59
535.621	18.69
535.819	18.9
536.017	18.95
536.215	19.08
536.412	19.22
536.61	19.19
536.808	19.28
537.006	19.35
537.203	19.49
537.401	19.58
537.599	19.61
537.797	19.66
537.994	19.69
538.192	19.8
538.39	19.96
538.587	20.13
538.785	20.27
538.983	20.28
539.18	20.37
539.378	20.32
539.575	20.32
539.773	20.39
539.97	20.34
540.168	20.33
540.366	20.36
540.563	20.24
540.761	20.18
540.958	20.18
541.155	20.12
541.353	20.11
541.55	20.15
541.748	20.24
541.945	20.31
542.143	20.45
542.34	20.57
542.537	20.6
542.735	20.83
542.932	20.97
543.129	21.1
543.327	21.32
543.524	21.51
543.721	21.74
543.919	21.96
544.116	22.09
544.313	22.2
544.51	22.4
544.708	22.58
544.905	22.67
545.102	22.83
545.299	23
545.496	23.1
545.693	23.16
545.891	23.2
546.088	23.16
546.285	23.29
546.482	23.43
546.679	23.4
546.876	23.44
547.073	23.53
547.27	23.58
547.467	23.65
547.664	23.86
547.861	24.05
548.058	24.27
548.255	24.48
548.452	24.65
548.649	24.83
548.846	25.09
549.043	25.33
549.24	25.44
549.437	25.61
549.633	25.82
549.83	25.96
550.027	26.03
550.224	26.03
550.421	26.08
550.618	26.19
550.814	26.16
551.011	26.14
551.208	26.1
551.405	26.08
551.601	26.23
551.798	26.21
551.995	26.04
552.191	26.13
552.388	26.16
552.585	26.22
552.781	26.2
552.978	26.34
553.175	26.57
553.371	26.73
553.568	26.88
553.764	26.86
553.961	26.86
554.157	26.97
554.354	27.15
554.55	27.35
554.747	27.52
554.943	27.56
555.14	27.68
555.336	27.53
555.533	27.55
555.729	27.7
555.926	27.71
556.122	27.77
556.318	27.93
556.515	27.9
556.711	27.98
556.907	28.01
557.104	28.16
557.3	28.15
557.496	28.3
557.693	28.42
557.889	28.5
558.085	28.57
558.281	28.76
558.478	28.94
558.674	29.06
558.87	29.03
559.066	29.08
559.262	29.15
559.459	29.15
559.655	29.25
559.851	29.26
560.047	29.29
560.243	29.46
560.439	29.37
560.635	29.34
560.831	29.18
561.027	29.24
561.223	29.14
561.419	29.06
561.615	29.11
561.811	29.06
562.007	29.1
562.203	29.12
562.399	29.06
562.595	29.16
562.791	29.18
562.987	29.27
563.183	29.26
563.379	29.5
563.575	29.7
563.771	29.68
563.966	29.64
564.162	29.62
564.358	29.47
564.554	29.42
564.75	29.33
564.945	29.29
565.141	29.25
565.337	29.11
565.533	28.93
565.728	28.72
565.924	28.72
566.12	28.72
566.315	28.69
566.511	28.75
566.707	28.75
566.902	28.83
567.098	28.8
567.293	28.89
567.489	28.98
567.684	29.04
567.88	29.01
568.076	29.06
568.271	29.11
568.467	29.06
568.662	29.2
568.858	29.3
569.053	29.29
569.248	29.38
569.444	29.35
569.639	29.44
569.835	29.5
570.03	29.61
570.225	29.58
570.421	29.48
570.616	29.59
570.812	29.47
571.007	29.38
571.202	29.37
571.397	29.3
571.593	29.33
571.788	29.5
571.983	29.45
572.178	29.42
572.374	29.52
572.569	29.49
572.764	29.57
572.959	29.46
573.154	29.55
573.35	29.57
573.545	29.69
573.74	29.62
573.935	29.56
574.13	29.57
574.325	29.68
574.52	29.7
574.715	29.92
574.91	29.82
575.105	30.14
575.3	30.07
575.495	30.14
575.69	30.1
575.885	30.23
576.08	30.2
576.275	30.44
576.47	30.39
576.665	30.33
576.86	30.42
577.055	30.64
577.25	30.56
577.444	30.63
577.639	30.84
577.834	30.97
578.029	31.13
578.224	31.11
578.418	31.27
578.613	31.46
578.808	31.64
579.003	31.65
579.197	31.67
579.392	31.85
579.587	31.98
579.781	31.96
579.976	32.05
580.171	32.11
580.365	32.32
580.56	32.27
580.755	32.4
580.949	32.54
581.144	32.6
581.338	32.69
581.533	32.79
581.727	32.86
581.922	32.89
582.116	32.98
582.311	32.96
582.505	33.07
582.7	33.03
582.894	33.19
583.089	33.18
583.283	33.31
583.478	33.47
583.672	33.36
583.866	33.32
584.061	33.47
584.255	33.61
584.449	33.55
584.644	33.52
584.838	33.52
585.032	33.38
585.226	33.3
585.421	33.28
585.615	33.11
585.809	33.1
586.003	33.18
586.198	32.94
586.392	32.81
586.586	32.78
586.78	32.74
586.974	32.79
587.168	32.73
587.363	32.92
587.557	32.69
587.751	32.66
587.945	32.63
588.139	32.62
588.333	32.61
588.527	32.46
588.721	32.5
588.915	32.34
589.109	32.21
589.303	32.3
589.497	32.12
589.691	32.17
589.885	32.2
590.079	32.24
590.273	32.33
590.466	32.53
590.66	32.59
590.854	32.78
591.048	32.93
591.242	32.96
591.436	33.02
591.629	32.96
591.823	32.91
592.017	33.03
592.211	33.02
592.404	32.9
592.598	32.83
592.792	32.94
592.986	32.85
593.179	32.68
593.373	32.68
593.567	32.68
593.76	32.72
593.954	32.88
594.147	32.84
594.341	32.87
594.535	33
594.728	32.85
594.922	32.68
595.115	32.65
595.309	32.63
595.502	32.64
595.696	32.36
595.889	32.3
596.083	32.17
596.276	32.02
596.47	31.98
596.663	31.93
596.856	31.81
597.05	31.83
597.243	31.69
597.437	31.78
597.63	31.8
597.823	32.04
598.017	32.23
598.21	32.24
598.403	32.54
598.596	32.71
598.79	32.78
598.983	33.21
599.176	33.41
599.369	33.79
599.563	33.78
599.756	33.89
599.949	34.08
600.142	33.99
600.335	34.29
600.528	34.11
600.722	34.33
600.915	34.36
601.108	34.22
601.301	34.37
601.494	34.08
601.687	34.26
601.88	34.25
602.073	34
602.266	34.06
602.459	33.92
602.652	33.83
602.845	33.56
603.038	33.34
603.231	33.11
603.424	32.82
603.617	32.8
603.809	32.64
604.002	32.35
604.195	32.35
604.388	32.18
604.581	32.09
604.774	32.18
604.966	32.04
605.159	32.08
605.352	32.24
605.545	32.45
605.737	32.56
605.93	32.76
606.123	33.07
606.316	33.18
606.508	33.28
606.701	33.55
606.894	33.53
607.086	33.78
607.279	33.9
607.471	33.91
607.664	34.01
607.857	34.07
608.049	34.1
608.242	34.15
608.434	34.11
608.627	34.37
608.819	34.34
609.012	34.36
609.204	34.47
609.397	34.8
609.589	35.22
609.782	35.32
609.974	35.46
610.166	35.78
610.359	36.04
610.551	36.45
610.743	36.73
610.936	36.97
611.128	37.57
611.32	37.88
611.513	37.93
611.705	37.98
611.897	38.2
612.09	38.52
612.282	38.52
612.474	38.6
612.666	38.68
612.858	38.66
613.051	38.83
613.243	38.64
613.435	38.4
613.627	38.33
613.819	38.27
614.011	38.42
614.203	38.4
614.395	38.41
614.588	38.24
614.78	38.19
614.972	38.36
615.164	38.19
615.356	38.2
615.548	38.39
615.74	38.49
615.932	38.41
616.124	38.14
616.315	38.14
616.507	38.21
616.699	38.28
616.891	38.37
617.083	38.17
617.275	38.32
617.467	38.16
617.659	38.17
617.85	38.12
618.042	37.99
618.234	37.99
618.426	37.81
618.618	37.7
618.809	37.65
619.001	37.33
619.193	37.29
619.384	37.3
619.576	37.55
619.768	37.53
619.959	37.49
620.151	37.94
620.343	37.86
620.534	37.82
620.726	37.8
620.917	37.93
621.109	38.22
621.301	38.32
621.492	38.22
621.684	38.05
621.875	38.22
622.067	38.32
622.258	38.13
622.45	38.15
622.641	38.47
622.832	38.45
623.024	38.46
623.215	38.27
623.407	38.34
623.598	38.31
623.789	38.29
623.981	37.94
624.172	37.71
624.363	37.57
624.555	37.43
624.746	37.03
624.937	36.89
625.129	36.72
625.32	36.72
625.511	36.4
625.702	36.29
625.893	36.28
626.085	36.17
626.276	36.24
626.467	36.18
626.658	36.15
626.849	36.08
627.04	36.08
627.231	36.2
627.422	36.05
627.614	36.21
627.805	36.36
627.996	36.34
628.187	36.38
628.378	36.31
628.569	36.38
628.76	36.5
628.951	36.76
629.142	36.6
629.332	36.61
629.523	36.9
629.714	37.08
629.905	37.27
630.096	37.53
630.287	37.82
630.478	37.97
630.669	38.24
630.859	38.43
631.05	38.71
631.241	38.97
631.432	39.09
631.623	39.09
631.813	39.11
632.004	38.93
632.195	38.84
632.385	38.68
632.576	38.79
632.767	38.56
632.957	38.45
633.148	38.13
633.339	38.18
633.529	37.88
633.72	37.82
633.91	37.76
634.101	37.65
634.292	37.66
634.482	37.79
634.673	37.78
634.863	37.88
635.054	37.93
635.244	37.98
635.435	37.98
635.625	38.3
635.815	38.31
636.006	38.46
636.196	38.62
636.387	38.71
636.577	38.97
636.767	39.1
636.958	39.18
637.148	39.27
637.338	39.45
637.529	39.61
637.719	39.64
637.909	39.92
638.099	39.82
638.29	39.88
638.48	39.81
638.67	39.67
638.86	39.64
639.05	39.68
639.241	39.68
639.431	39.72
639.621	39.68
639.811	39.82
640.001	39.55
640.191	39.5
640.381	39.55
640.571	39.74
640.761	39.86
640.951	39.97
641.141	40.21
641.331	40.45
641.521	40.45
641.711	40.66
641.901	40.55
642.091	40.69
642.281	40.72
642.471	40.73
642.661	40.74
642.851	40.82
643.041	40.85
643.231	40.82
643.42	40.88
643.61	41.08
643.8	41.01
643.99	41.14
644.18	41.33
644.369	41.24
644.559	41.25
644.749	41.08
644.939	41.1
645.128	40.81
645.318	40.86
645.508	40.65
645.697	40.72
645.887	40.82
646.076	40.7
646.266	40.56
646.456	40.81
646.645	40.83
646.835	40.91
647.024	40.87
647.214	41.07
647.403	41.05
647.593	41.19
647.782	41.04
647.972	40.93
648.161	41.07
648.351	41.22
648.54	41.17
648.73	41.17
648.919	41.12
649.108	41.2
649.298	41.18
649.487	41
649.677	40.88
649.866	40.84
650.055	41.03
650.244	40.96
650.434	40.65
650.623	40.63
650.812	40.74
651.002	40.55
651.191	40.46
651.38	40.53
651.569	40.42
651.758	40.45
651.947	40.56
652.137	40.57
652.326	40.63
652.515	40.99
652.704	41.11
652.893	40.97
653.082	41.3
653.271	41.36
653.46	41.28
653.649	41.72
653.838	41.8
654.027	41.84
654.216	41.6
654.405	41.77
654.594	41.61
654.783	41.47
654.972	41.57
655.161	41.4
655.35	40.97
655.539	40.98
655.728	40.6
655.916	40.54
656.105	40.38
656.294	40.35
656.483	40.01
656.672	39.95
656.86	39.84
657.049	39.55
657.238	39.57
657.427	39.66
657.615	39.55
657.804	39.41
657.993	39.14
658.181	38.97
658.37	38.9
658.559	38.75
658.747	38.66
658.936	38.71
659.125	38.73
659.313	38.67
659.502	38.74
659.69	38.94
659.879	38.94
660.067	39.06
660.256	39.25
660.444	39.34
660.633	39.7
660.821	40.02
661.01	40.28
661.198	40.75
661.387	40.79
661.575	41.09
661.763	41.13
661.952	41.48
662.14	41.97
662.328	42.14
662.517	42.5
662.705	42.41
662.893	42.35
663.082	42.41
663.27	42.64
663.458	43.23
663.646	43.31
663.834	43.49
664.023	43.51
664.211	43.58
664.399	43.75
664.587	43.77
664.775	44.2
664.963	44.48
665.152	44.66
665.34	44.46
665.528	44.45
665.716	44.79
665.904	44.79
666.092	45.05
666.28	44.94
666.468	44.81
666.656	44.87
666.844	44.96
667.032	44.85
667.22	44.7
667.408	44.71
667.596	44.59
667.784	44.21
667.971	44.09
668.159	43.97
668.347	44.03
668.535	44.19
668.723	44.02
668.911	43.77
669.098	43.67
669.286	43.74
669.474	44
669.662	43.95
669.849	44.2
670.037	44.51
670.225	44.48
670.413	44.49
670.6	44.45
670.788	44.74
670.976	44.7
671.163	44.81
671.351	44.98
671.538	44.82
671.726	45.05
671.913	45.15
672.101	44.91
672.289	45.17
672.476	45.24
672.664	45.47
672.851	45.42
673.039	45.71
673.226	45.8
673.413	45.52
673.601	45.48
673.788	45.49
673.976	45.2
674.163	45.65
674.35	45.54
674.538	45.55
674.725	45.6
674.912	45.85
675.1	45.71
675.287	45.89
675.474	46
675.662	46.13
675.849	46.15
676.036	46.2
676.223	45.95
676.411	46.14
676.598	46.1
676.785	45.84
676.972	45.62
677.159	45.79
677.346	45.64
677.533	45.23
677.721	45.13
677.908	44.88
678.095	45.08
678.282	45.12
678.469	44.67
678.656	44.56
678.843	44.04
679.03	43.66
679.217	43.39
679.404	43.16
679.591	43.08
679.778	42.95
679.964	42.81
680.151	42.46
680.338	42.13
680.525	42.32
680.712	42.31
680.899	42.61
681.086	42.91
681.272	42.76
681.459	43.02
681.646	43.4
681.833	43.1
682.02	43.59
682.206	43.96
682.393	44.23
682.58	44.22
682.766	44.36
682.953	44.79
683.14	44.82
683.326	45.71
683.513	46.09
683.7	46.39
683.886	47.02
684.073	46.92
684.259	47.01
684.446	47.42
684.632	47.45
684.819	47.74
685.005	47.64
685.192	47.65
685.378	47.47
685.565	47.14
685.751	46.58
685.938	46.3
686.124	46.29
686.31	45.88
686.497	45.5
686.683	45.34
686.87	44.83
687.056	44.85
687.242	44.92
687.429	44.55
687.615	44.54
687.801	45.25
687.987	45.36
688.174	44.98
688.36	45.13
688.546	45.16
688.732	45.65
688.918	45.54
689.105	45.44
689.291	45.59
689.477	45.86
689.663	46.06
689.849	45.72
690.035	46
690.221	46.48
690.407	47.02
690.593	46.99
690.779	47.17
690.965	47.6
691.151	47.89
691.337	47.92
691.523	47.95
691.709	47.85
691.895	48.24
692.081	48.2
692.267	48.28
692.453	48.45
692.639	48.79
692.825	48.56
693.011	48.75
693.196	48.82
693.382	48.77
693.568	48.81
693.754	49.12
693.94	49.23
694.125	49.61
694.311	49.69
694.497	49.49
694.682	49.46
694.868	49.64
695.054	49.89
695.239	49.89
695.425	49.88
695.611	49.77
695.796	49.25
695.982	49.17
696.168	48.52
696.353	47.92
696.539	47.41
696.724	46.77
696.91	46.11
697.095	45.58
697.281	44.93
697.466	44.67
697.652	44.15
697.837	43.68
698.023	43.13
698.208	42.62
698.393	42.52
698.579	42.35
698.764	42.41
698.949	42.26
699.135	42.2
699.32	42.19
699.505	42.16
699.691	42.48
699.876	42.97
700.061	43.38
700.246	43.78
700.432	44.3
700.617	44.72
700.802	45.12
700.987	45.98
701.172	46.28
701.358	47.19
701.543	47.92
701.728	48.31
701.913	48.74
702.098	49.48
702.283	50.49
702.468	50.79
702.653	51.55
702.838	52.1
703.023	52.64
703.208	53.06
703.393	53.28
703.578	53.44
703.763	53.8
703.948	54.02
704.133	53.82
704.318	54.09
704.503	54.46
704.688	54.49
704.873	54.79
705.057	54.62
705.242	55.15
705.427	55.15
705.612	55.31
705.797	55.62
705.981	56.06
706.166	56.2
706.351	56.06
706.536	56.13
706.72	56.11
706.905	56.15
707.09	56.17
707.274	56.13
707.459	56.15
707.644	55.94
707.828	55.73
708.013	55.34
708.197	55.22
708.382	55.21
708.567	54.86
708.751	54.78
708.936	54.45
709.12	54.22
709.305	54.06
709.489	54.36
709.673	54.38
709.858	54.12
710.042	54.31
710.227	54.04
710.411	54.07
710.596	53.89
710.78	53.75
710.964	53.39
711.149	53.42
711.333	53.3
711.517	52.76
711.702	52.79
711.886	53.2
712.07	52.59
712.254	53.01
712.438	52.97
712.623	53.35
712.807	53.4
712.991	53.85
713.175	53.94
713.359	53.74
713.544	53.96
713.728	53.98
713.912	53.26
714.096	53.84
714.28	53.65
714.464	53.16
714.648	52.67
714.832	52.24
715.016	52.01
715.2	51.68
715.384	51.78
715.568	51.38
715.752	50.64
715.936	50.43
716.12	49.9
716.304	49.32
716.488	49.12
716.671	48.91
716.855	49.26
717.039	49.04
717.223	49.03
717.407	49.08
717.59	49.21
717.774	49.76
717.958	50.05
718.142	50.04
718.325	50.41
718.509	51.06
718.693	51.67
718.877	51.44
719.06	51.38
719.244	51.81
719.428	52.09
719.611	52.49
719.795	52.72
719.978	53.44
720.162	54.05
720.345	54.66
720.529	54.54
720.713	54.78
720.896	55.29
721.08	55.95
721.263	56.43
721.446	56.78
721.63	57.08
721.813	56.97
721.997	56.51
722.18	56.72
722.364	56.21
722.547	56.7
722.73	56.63
722.914	56.67
723.097	56.67
723.28	56.33
723.464	56.06
723.647	55.76
723.83	55.67
724.013	56.31
724.197	56.27
724.38	56.74
724.563	56.64
724.746	56.54
724.929	56.49
725.112	56.67
725.296	56.7
725.479	56.24
725.662	56.42
725.845	57.03
726.028	55.79
726.211	55.5
726.394	55.46
726.577	54.8
726.76	54.44
726.943	54.25
727.126	53.9
727.309	53.25
727.492	53.07
727.675	52.38
727.858	51.76
728.041	52.47
728.224	52.15
728.407	51.9
728.589	52.44
728.772	52.74
728.955	52.93
729.138	52.75
729.321	52.72
729.503	53.24
729.686	53.77
729.869	54.06
730.052	54.31
730.234	54.46
730.417	54.06
730.6	53.79
730.782	53.9
730.965	53.44
731.148	53.63
731.33	53.99
731.513	53.63
731.695	53.3
731.878	53.32
732.061	52.85
732.243	53.17
732.426	53.85
732.608	54.16
732.791	54.4
732.973	54.69
733.156	55.36
733.338	55.66
733.52	56.35
733.703	56.6
733.885	57.01
734.068	57.62
734.25	58.21
734.432	58.05
734.615	57.85
734.797	57.92
734.979	58.38
735.162	58.07
735.344	58.39
735.526	58.18
735.708	59.28
735.891	58.97
736.073	58.63
736.255	58.59
736.437	58.99
736.619	59.69
736.802	60.1
736.984	60.9
737.166	61.65
737.348	61.65
737.53	61.79
737.712	61.26
737.894	62.01
738.076	62.54
738.258	62.34
738.44	61.88
738.622	61.93
738.804	62.33
738.986	61.78
739.168	61.58
739.35	61.3
739.532	61.31
739.714	61.4
739.896	60.69
740.078	61.23
740.259	61.62
740.441	62.71
740.623	62.96
740.805	62.8
740.987	63.13
741.168	63.09
741.35	63.81
741.532	64.47
741.714	65.21
741.895	66.04
742.077	65.96
742.259	66.42
742.44	66.72
742.622	66.7
742.804	66.84
742.985	66.85
743.167	67.23
743.348	67.31
743.53	66.62
743.711	66.24
743.893	66.38
744.075	66.34
744.256	66.3
744.438	65.84
744.619	66
744.8	66.31
744.982	66.32
745.163	66.43
745.345	67.08
745.526	67.79
745.707	67.95
745.889	68.28
746.07	69.38
746.252	69.55
746.433	69.37
746.614	69.58
746.795	68.65
746.977	68.37
747.158	68.27
747.339	67.68
747.52	67.74
747.702	67.82
747.883	67.49
748.064	67.02
748.245	66.8
748.426	67.11
748.607	67.46
748.788	67.54
748.97	67.75
749.151	68
749.332	68.02
749.513	68.56
749.694	68.62
749.875	68.86
750.056	69.55
750.237	69.32
750.418	69.01
750.599	68.33
750.78	69.34
750.96	69.85
751.141	69.78
751.322	69.63
751.503	68.37
751.684	68.33
751.865	68.49
752.046	67.48
752.226	67.02
752.407	68.04
752.588	68.37
752.769	68
752.949	67.38
753.13	67.22
753.311	67.9
753.492	68.93
753.672	68.94
753.853	68.93
754.034	69.03
754.214	69.26
754.395	68.87
754.575	69.2
754.756	69.45
754.937	69.93
755.117	70.41
755.298	70.11
755.478	70.17
755.659	70.22
755.839	69.77
756.02	70.25
756.2	70.83
756.381	70.91
756.561	70.85
756.741	70.84
756.922	70.91
757.102	70.64
757.283	70.21
757.463	70.12
757.643	69.36
757.823	68.78
758.004	68.4
758.184	67.09
758.364	65.92
758.545	64.49
758.725	62.88
758.905	61.41
759.085	59.02
759.265	57.66
759.446	55.91
759.626	55.29
759.806	54.36
759.986	53.24
760.166	52.46
760.346	52.52
760.526	51.7
760.706	50.88
760.886	50.67
761.066	51.74
761.246	52.49
761.426	52.53
761.606	52.05
761.786	51.68
761.966	51.58
762.146	51.42
762.326	50.53
762.506	50.6
762.686	50.71
762.866	50.13
763.046	49.15
763.225	48.7
763.405	48.44
763.585	48.28
763.765	48.31
763.945	47.98
764.124	48.23
764.304	48.12
764.484	48.82
764.664	49.07
764.843	49.86
765.023	50.94
765.203	51.49
765.382	52.31
765.562	53.68
765.741	54.92
765.921	56.11
766.101	57.56
766.28	59.23
766.46	60.07
766.639	61.77
766.819	63.32
766.998	64.21
767.178	65.75
767.357	66.91
767.537	67.68
767.716	69.27
767.896	69.82
768.075	69.98
768.254	70.97
768.434	71.74
768.613	71.4
768.792	72.12
768.972	72.79
769.151	72.41
769.33	72.84
769.51	72.99
769.689	72.83
769.868	73.13
770.047	74.63
770.226	74.64
770.406	74.31
770.585	75.39
770.764	75.66
770.943	76.01
771.122	76.14
771.301	77.32
771.48	77.25
771.66	77.47
771.839	78.76
772.018	78.26
772.197	78.6
772.376	78.97
772.555	78.19
772.734	78.03
772.913	77.73
773.092	77.76
773.271	77.14
773.449	78.01
773.628	76.91
773.807	76.25
773.986	76.38
774.165	76.29
774.344	77.32
774.523	79.05
774.701	78.7
774.88	78.7
775.059	79.3
775.238	79.8
775.417	79.97
775.595	81.34
775.774	80.71
775.953	80.51
776.131	81.53
776.31	80.68
776.489	79.21
776.667	79.49
776.846	79.83
777.025	80.05
777.203	79.35
777.382	79.24
777.56	78.33
777.739	79.99
777.917	80
778.096	78.98
778.274	78.87
778.453	79.64
778.631	80.03
778.81	80.95
778.988	80.56
779.166	80.8
779.345	80.69
779.523	81.5
779.702	81.42
779.88	82.15
780.058	82.87
780.237	82.76
780.415	82.95
780.593	83.05
780.771	82.15
780.95	82.73
781.128	82
781.306	81.62
781.484	81.55
781.662	80.37
781.841	79.44
782.019	79.01
782.197	80.15
782.375	79.2
782.553	77.97
782.731	78.22
782.909	78.76
783.087	80.01
783.265	80.29
783.443	80.6
783.621	82.28
783.799	83.16
783.977	84.05
784.155	83.32
784.333	83.42
784.511	83.83
784.689	83.22
784.867	81.8
785.045	81.5
785.223	81.71
785.4	81.98
785.578	80.36
785.756	79.73
785.934	78.32
786.112	78.98
786.289	78.99
786.467	79.28
786.645	78.99
786.823	78.47
787	77.04
787.178	76.35
787.356	75.6
787.533	74.24
787.711	73.99
787.889	74.25
788.066	73.07
788.244	72.96
788.421	72.4
788.599	72.38
788.776	73.56
788.954	74.41
789.131	74.64
789.309	73.88
789.486	74.4
789.664	74.48
789.841	74.9
790.019	76.19
790.196	77.64
790.373	77.65
790.551	78.96
790.728	78.09
790.906	79.3
791.083	79.82
791.26	80.88
791.437	82.37
791.615	82.28
791.792	82.71
791.969	81.87
792.146	80.95
792.324	81.61
792.501	81.31
792.678	82.11
792.855	81.51
793.032	82.07
793.209	82.61
793.387	83.22
793.564	83.68
793.741	83.57
793.918	83.12
794.095	83.36
794.272	83.13
794.449	82.6
794.626	82.14
794.803	81.31
794.98	80.22
795.157	79.53
795.334	78.46
795.511	77.92
795.688	77.1
795.864	77.6
796.041	76.92
796.218	77.05
796.395	77.5
796.572	76.39
796.749	76.29
796.925	76.17
797.102	77.3
797.279	76.93
797.456	76.78
797.632	76.88
797.809	76.2
797.986	75.87
798.162	75.88
798.339	75.13
798.516	76.21
798.692	76.73
798.869	77.59
799.046	76.79
799.222	78.07
799.399	78.21
799.575	77.5
799.752	78.46
799.928	78.99
800.105	79.99
800.281	80.68
800.458	81.62
800.634	81.21
800.811	80.32
800.987	79.84
801.163	79.36
801.34	80.47
801.516	81.79
801.692	81.27
801.869	81.84
802.045	80.6
802.221	82.03
802.398	81.53
802.574	81.28
802.75	82.95
802.926	83.6
803.103	83.29
803.279	82.39
803.455	82.31
803.631	82.23
803.807	81.97
803.983	83.05
804.16	81.68
804.336	82.29
804.512	83.41
804.688	83.1
804.864	82.99
805.04	83.64
805.216	82.73
805.392	82.24
805.568	83.03
805.744	83.44
805.92	82.22
806.096	81.78
806.272	80.01
806.448	79.8
806.623	79.05
806.799	80.02
806.975	80.01
807.151	80.93
807.327	80.47
807.503	80.63
807.678	80.64
807.854	80.6
808.03	80.52
808.206	80.93
808.381	80.35
808.557	81.17
808.733	79.86
808.908	81.14
809.084	80.8
809.26	81.91
809.435	82.41
809.611	82.96
809.787	82.65
809.962	82.66
810.138	84.06
810.313	84.85
810.489	86.15
810.664	87.9
810.84	85.3
811.015	86.06
811.191	86.84
811.366	84.6
811.542	84.14
811.717	83.4
811.892	84.06
812.068	83.26
812.243	84.28
812.419	83.01
812.594	81.31
812.769	81.69
812.944	80.95
813.12	77.96
813.295	80.19
813.47	79.92
813.645	81.19
813.821	79.79
813.996	79.87
814.171	77.37
814.346	75
814.521	74.8
814.697	76.05
814.872	77.23
815.047	78.31
815.222	75.62
815.397	75.08
815.572	74.1
815.747	74.94
815.922	75.17
816.097	75.86
816.272	77.22
816.447	76.11
816.622	77.06
816.797	74.82
816.972	73.59
817.147	75.47
817.322	75.4
817.496	76.11
817.671	74.52
817.846	73.08
818.021	72.37
818.196	71.2
818.371	72.49
818.545	69.61
818.72	70.25
818.895	72.28
819.069	70.49
819.244	69.32
819.419	67.03
819.594	66.29
819.768	65.2
819.943	63.64
820.117	61.04
820.292	58.26
820.467	55.92
820.641	52.93
820.816	49.51
820.99	46.76
821.165	44.65
821.339	42.75
821.514	41.19
821.688	39.75
821.863	38.67
822.037	37.82
822.212	36.81
822.386	36.39
822.56	35.96
822.735	35.76
822.909	35.81
823.084	35.73
823.258	36.08
823.432	36.28
823.606	36.77
823.781	37.22
823.955	37.89
824.129	38.65
824.303	38.92
824.478	39.64
824.652	40.32
824.826	41.46
825	42.52
825.174	43.32
825.348	43.83
825.523	44.13
825.697	44.23
825.871	44.43
826.045	44.56
826.219	44.81
826.393	45.1
826.567	44.84
826.741	44.24
826.915	43.65
827.089	43.94
827.263	44.09
827.437	44.07
827.611	44.35
827.784	44.68
827.958	45.74
828.132	46.29
828.306	46.05
828.48	47.37
828.654	47.97
828.827	48.79
829.001	49.76
829.175	51.16
829.349	52.67
829.522	54.04
829.696	56.55
829.87	57.6
830.044	59.47
830.217	62.36
830.391	63.34
830.565	66.01
830.738	67.31
830.912	68.53
831.085	69.84
831.259	69.96
831.432	70.84
831.606	70.17
831.779	69.59
831.953	69.26
832.126	67.39
832.3	65.58
832.473	64.08
832.647	62.22
832.82	59.9
832.994	58.2
833.167	57.51
833.34	56.38
833.514	55.27
833.687	54.26
833.86	53.86
834.034	54
834.207	53.87
834.38	53.13
834.553	53.89
834.727	53.72
834.9	54.29
835.073	54.16
835.246	54.65
835.419	55.18
835.593	56.44
835.766	57.01
835.939	57.69
836.112	58.89
836.285	60.29
836.458	61.64
836.631	63.84
836.804	66.26
836.977	69.48
837.15	72.21
837.323	74.46
837.496	75.88
837.669	78.58
837.842	80.48
838.015	82.2
838.188	84.97
838.361	85.84
838.533	87.32
838.706	88.11
838.879	86.13
839.052	85.79
839.225	87.27
839.398	86.19
839.57	85.99
839.743	85.42
839.916	84.47
840.088	82.92
840.261	82.24
840.434	82.44
840.607	80.86
840.779	81.9
840.952	81.24
841.124	80.46
841.297	81.05
841.47	79.33
841.642	80.75
841.815	82.11
841.987	83.87
842.16	86.26
842.332	87.27
842.505	88.06
842.677	89.4
842.85	89.54
843.022	91.33
843.194	92.05
843.367	96.51
843.539	96.65
843.712	96.84
843.884	97.87
844.056	98.24
844.229	98.9
844.401	101.25
844.573	99.54
844.745	102.07
844.918	101.01
845.09	103.7
845.262	103.55
845.434	105.86
845.606	108.97
845.779	110.62
845.951	112.19
846.123	114.34
846.295	115.14
846.467	118.21
846.639	117.36
846.811	119.9
846.983	119.98
847.155	120.11
847.327	120.29
847.499	120.56
847.671	119.34
847.843	118.86
848.015	115.71
848.187	113.74
848.359	113.74
848.531	113.71
848.703	111.44
848.875	114.92
849.047	115.73
849.218	116.31
849.39	117.54
849.562	116.02
849.734	119.64
849.905	122.59
850.077	127.12
850.249	124.61
850.421	127.3
850.592	126.46
850.764	124.07
850.936	124.88
851.107	122.72
851.279	117.96
851.451	117.27
851.622	116.49
851.794	115.64
851.965	110.31
852.137	111.49
852.308	108.8
852.48	110.83
852.651	108.19
852.823	104.32
852.994	103.76
853.166	103.7
853.337	103.4
853.509	103.86
853.68	103.04
853.851	105.42
854.023	105.45
854.194	105.52
854.365	103.79
854.537	107.35
854.708	109.39
854.879	108.54
855.05	112.71
855.222	112.78
855.393	108.32
855.564	107.07
855.735	105.69
855.906	105.97
856.078	107.8
856.249	109.53
856.42	106.6
856.591	104.5
856.762	105.34
856.933	102.64
857.104	104.76
857.275	108.44
857.446	110.9
857.617	113.68
857.788	112.49
857.959	112.18
858.13	113.22
858.301	114.44
858.472	114.72
858.643	116.47
858.814	118.02
858.985	119.64
859.155	118.46
859.326	119.51
859.497	117.6
859.668	120.92
859.839	121.63
860.009	122.32
860.18	123.02
860.351	124.16
860.522	121.62
860.692	117.77
860.863	116.35
861.034	118.58
861.204	117.83
861.375	118.09
861.546	117.69
861.716	118.6
861.887	115.92
862.057	115.99
862.228	116.6
862.398	120.71
862.569	123.81
862.739	125.85
862.91	121.36
863.08	121.21
863.251	119.79
863.421	117.67
863.592	114.11
863.762	114.6
863.932	114.25
864.103	113.4
864.273	111.04
864.443	109.99
864.614	108.24
864.784	108.74
864.954	108
865.125	111.16
865.295	113.8
865.465	116.12
865.635	115.26
865.805	117.08
865.976	117.04
866.146	116.74
866.316	114.81
866.486	117.29
866.656	116.86
866.826	116.19
866.996	117.85
867.166	115.75
867.336	114.58
867.506	117.09
867.676	111.54
867.846	112.72
868.016	116.88
868.186	120.43
868.356	118.07
868.526	122.27
868.696	120.61
868.866	118.43
869.036	122.77
869.206	124.26
869.376	123.48
869.545	127.68
869.715	126.89
869.885	122.15
870.055	121.64
870.224	124.29
870.394	120.7
870.564	121.99
870.734	122.35
870.903	117.99
871.073	116.09
871.243	118.49
871.412	115.28
871.582	112.73
871.751	112.16
871.921	110.56
872.091	105.9
872.26	105.7
872.43	106.76
872.599	107.95
872.769	108.5
872.938	112.31
873.108	106.47
873.277	107.07
873.446	109.09
873.616	112.68
873.785	114.95
873.955	118.7
874.124	119.78
874.293	120.75
874.463	118.37
874.632	116.57
874.801	112.86
874.971	117.34
875.14	119.4
875.309	118.57
875.478	117.15
875.647	116.48
875.817	116.38
875.986	113.56
876.155	111.63
876.324	113.59
876.493	116.91
876.662	117.46
876.831	114.95
877	110.79
877.17	111
877.339	111.59
877.508	108.63
877.677	104.99
877.846	102.25
878.015	100.45
878.184	97.83
878.352	94.47
878.521	93.58
878.69	95.82
878.859	95.99
879.028	94.61
879.197	91.58
879.366	90.03
879.534	90.39
879.703	89.28
879.872	84.85
880.041	82.75
880.21	79.01
880.378	74.7
880.547	69.78
880.716	66.64
880.884	63
881.053	59.25
881.222	56.22
881.39	53.57
881.559	51.82
881.727	50.31
881.896	48.79
882.065	47.87
882.233	46.56
882.402	45.66
882.57	45.34
882.739	44.9
882.907	45.28
883.076	44.95
883.244	44.75
883.412	45.34
883.581	46.07
883.749	46.63
883.918	47.13
884.086	48.91
884.254	49.2
884.423	51.09
884.591	52.66
884.759	53.81
884.927	56.13
885.096	58.75
885.264	60.39
885.432	62.86
885.6	66.14
885.769	68.92
885.937	70.26
886.105	73.56
886.273	73.89
886.441	77.32
886.609	81.19
886.777	82.71
886.945	82.83
887.113	86.04
887.281	88.3
887.449	88.66
887.617	90.51
887.785	90.02
887.953	93.05
888.121	94.02
888.289	94.27
888.457	97.32
888.625	101.41
888.793	104.81
888.961	106.26
889.129	105.59
889.296	106.55
889.464	107.51
889.632	112.36
889.8	112.74
889.967	114.94
890.135	116.85
