Data from 2938810__Reflection_01.txt Node
Date: Thu Mar 12 16:58:18 EDT 2015
User: robert
Spectrometer: USB4E03002
Autoset integration time: false
Trigger mode: 4
Integration Time (sec): 1.000000E-1
Scans to average: 10
Electric dark correction enabled: false
Nonlinearity correction enabled: false
Boxcar width: 5
Stray light correction enabled: false
XAxis mode: Wavelengths
Stop averaging: false
Number of Pixels in Spectrum: 3648
>>>>>Begin Spectral Data<<<<<
177.575	-87.69
177.794	-327.16
178.014	921.43
178.233	-2128.57
178.452	-11950
178.672	-1596.15
178.891	505.71
179.11	437.04
179.33	188.99
179.549	567.39
179.768	191.47
179.987	222.45
180.207	739.51
180.426	1740
180.645	554.22
180.864	304.65
181.084	274
181.303	305.95
181.522	251.19
181.741	403.2
181.96	1100
182.179	637.04
182.398	-301.75
182.618	159.74
182.837	414.29
183.056	201.57
183.275	223.26
183.494	587.18
183.713	-33800
183.932	370.09
184.151	174.18
184.37	102.31
184.589	146.46
184.808	112.65
185.027	105.97
185.246	100.9
185.465	116.84
185.684	287.7
185.903	321.14
186.122	144.9
186.341	-137.29
186.56	-3280
186.779	-117.55
186.998	-63.34
187.216	-29.98
187.435	-9.42
187.654	-10.41
187.873	-26.51
188.092	-50
188.311	-62.76
188.53	-24.1
188.748	-40.46
188.967	-48.53
189.186	-163.58
189.405	-683.78
189.623	538.89
189.842	90.78
190.061	86.02
190.28	91.95
190.498	104.75
190.717	115.57
190.936	77.6
191.154	96.26
191.373	67.47
191.592	113.8
191.81	98.05
192.029	107.37
192.248	128.72
192.466	153.75
192.685	175.2
192.904	160.87
193.122	144.78
193.341	206.6
193.559	131.91
193.778	111.99
193.996	87.8
194.215	98.11
194.433	83.24
194.652	122.71
194.87	140.38
195.089	114.74
195.307	102.02
195.526	98.39
195.744	73.16
195.963	99.65
196.181	135.77
196.399	99.69
196.618	111.16
196.836	335.62
197.055	152.3
197.273	117.48
197.491	117.09
197.71	207.14
197.928	255.73
198.146	270.15
198.365	136.24
198.583	314.89
198.801	209.77
199.019	94.28
199.238	127.64
199.456	128.89
199.674	46.67
199.892	150
200.111	-23.02
200.329	12.83
200.547	46.69
200.765	48.03
200.983	51.39
201.202	100.4
201.42	1227.59
201.638	25300
201.856	640.38
202.074	-3126.67
202.292	698.44
202.51	394.24
202.728	291.28
202.946	356.06
203.165	278.21
203.383	275.1
203.601	237.97
203.819	196.15
204.037	202.6
204.255	135.95
204.473	127.81
204.691	140.77
204.909	132.94
205.127	148.15
205.345	143.86
205.562	140.69
205.78	216.35
205.998	230.47
206.216	108.65
206.434	140.49
206.652	-426.09
206.87	276.74
207.088	123.71
207.306	40.35
207.523	-176.34
207.741	-110
207.959	142.95
208.177	76.89
208.395	87.23
208.612	82.53
208.83	64.98
209.048	68.7
209.266	78.29
209.483	69.51
209.701	67.44
209.919	47.25
210.136	65.97
210.354	51.11
210.572	52.66
210.79	57.95
211.007	41.57
211.225	23.77
211.442	31.87
211.66	25.89
211.878	44.1
212.095	36.12
212.313	54.21
212.53	41.21
212.748	40.49
212.966	37.76
213.183	26.59
213.401	38.74
213.618	49.6
213.836	45.81
214.053	47.7
214.271	35.15
214.488	43.49
214.705	42.49
214.923	31.1
215.14	49.33
215.358	57.55
215.575	53.05
215.793	56.74
216.01	52.98
216.227	44.43
216.445	49.25
216.662	46.62
216.879	37.65
217.097	35.47
217.314	35.52
217.531	21.98
217.749	29.93
217.966	22.96
218.183	29.53
218.4	31.17
218.618	39.73
218.835	35.53
219.052	27.67
219.269	28.18
219.487	25.55
219.704	29.02
219.921	25.17
220.138	1.23
220.355	11.73
220.572	-8.42
220.79	-2.31
221.007	-2.88
221.224	-12.38
221.441	2.41
221.658	-0.47
221.875	5.76
222.092	6.24
222.309	11.68
222.526	28.87
222.743	24.67
222.96	29.66
223.177	17.36
223.394	20.45
223.611	25.27
223.828	25.18
224.045	20.34
224.262	18.47
224.479	10.9
224.696	14.33
224.913	5.83
225.13	8.17
225.347	9.12
225.564	14.08
225.781	8.78
225.997	6.96
226.214	6.83
226.431	10.07
226.648	9.95
226.865	13.81
227.082	10.24
227.298	7.66
227.515	7.82
227.732	7.13
227.949	7.77
228.165	8.69
228.382	8.71
228.599	8.12
228.816	7.28
229.032	7.15
229.249	6.53
229.466	6.98
229.682	7.32
229.899	7.7
230.116	6.48
230.332	5.94
230.549	5.04
230.765	4.39
230.982	5.16
231.199	5.3
231.415	4.96
231.632	6.1
231.848	6.2
232.065	5.47
232.281	3.89
232.498	5.22
232.714	4.71
232.931	5.8
233.147	6.69
233.364	5.41
233.58	5.86
233.797	6.71
234.013	5.64
234.23	6.33
234.446	7.57
234.662	8.16
234.879	7.11
235.095	7.75
235.312	6.87
235.528	8.25
235.744	9.06
235.961	9.38
236.177	7.8
236.393	7.76
236.61	6.7
236.826	8.03
237.042	7.53
237.258	9.04
237.475	10.06
237.691	9.74
237.907	7.52
238.123	8.29
238.339	7.5
238.556	6.6
238.772	4.11
238.988	5.59
239.204	5.84
239.42	5.56
239.636	5.73
239.853	5.4
240.069	5.39
240.285	7.18
240.501	5.84
240.717	5.97
240.933	6.57
241.149	7.95
241.365	7.89
241.581	7.16
241.797	7.15
242.013	6.69
242.229	6.35
242.445	7.13
242.661	6.18
242.877	6.04
243.093	6.07
243.309	6.72
243.525	6.38
243.741	6.17
243.957	6.16
244.173	6.24
244.388	6.91
244.604	6.23
244.82	5.35
245.036	6.19
245.252	6.5
245.468	6.28
245.683	5.84
245.899	5.51
246.115	5.14
246.331	5.51
246.547	5.52
246.762	5.49
246.978	5.76
247.194	5.83
247.409	5.78
247.625	5.73
247.841	5.92
248.057	5.83
248.272	6.12
248.488	6.34
248.703	6.01
248.919	6.1
249.135	5.88
249.35	6.13
249.566	6.09
249.782	5.73
249.997	6.37
250.213	6.12
250.428	6.34
250.644	6.22
250.859	6.35
251.075	6.2
251.29	5.97
251.506	5.77
251.721	5.98
251.937	5.45
252.152	5.69
252.368	4.49
252.583	5.01
252.798	4.74
253.014	4.76
253.229	4.44
253.445	4.94
253.66	4.91
253.875	5.02
254.091	4.65
254.306	4.9
254.521	3.72
254.737	4.61
254.952	3.07
255.167	3.09
255.383	4.15
255.598	5.02
255.813	4.47
256.028	4.22
256.244	5.54
256.459	5.64
256.674	6.6
256.889	6.73
257.104	6.66
257.32	7.36
257.535	7.3
257.75	6.14
257.965	5.21
258.18	5.7
258.395	5.71
258.61	5.06
258.826	4.69
259.041	4.19
259.256	4.05
259.471	3.89
259.686	3.71
259.901	3.83
260.116	3.92
260.331	4.22
260.546	4.17
260.761	4.32
260.976	4.21
261.191	4.39
261.406	4.54
261.621	5.06
261.836	5.06
262.05	5.31
262.265	5.06
262.48	4.87
262.695	4.64
262.91	4.39
263.125	3.96
263.34	4.19
263.555	4
263.769	4.05
263.984	4.03
264.199	4.71
264.414	4.05
264.629	4.16
264.843	4.61
265.058	4.45
265.273	4.88
265.488	5.82
265.702	5.72
265.917	5.85
266.132	5.18
266.346	5.03
266.561	4.5
266.776	4.96
266.99	5.15
267.205	5.25
267.42	5.67
267.634	5.36
267.849	4.34
268.063	4.14
268.278	4.48
268.492	4.98
268.707	5.17
268.922	5.33
269.136	5.15
269.351	4.78
269.565	4.81
269.78	4.5
269.994	4.52
270.209	4.75
270.423	4.68
270.637	3.85
270.852	3.93
271.066	3.75
271.281	3.96
271.495	4.01
271.709	3.73
271.924	3.7
272.138	3.76
272.353	3.85
272.567	3.95
272.781	4.35
272.996	4.65
273.21	4.62
273.424	4.39
273.638	3.89
273.853	4.07
274.067	4.62
274.281	4.55
274.495	4.5
274.71	4.09
274.924	4.18
275.138	3.93
275.352	3.9
275.566	3.93
275.781	3.88
275.995	4.27
276.209	3.85
276.423	3.62
276.637	3.33
276.851	3.58
277.065	3.54
277.279	3.3
277.493	3.3
277.707	3.31
277.921	3.08
278.135	3.28
278.349	3.18
278.563	3.9
278.777	4.33
278.991	4.43
279.205	3.87
279.419	4.2
279.633	4.38
279.847	3.75
280.061	3.8
280.275	3.7
280.489	4.01
280.703	3.92
280.917	3.37
281.131	3.16
281.344	3.1
281.558	2.83
281.772	2.76
281.986	2.63
282.2	3.27
282.414	3.01
282.627	3.15
282.841	2.73
283.055	2.81
283.269	2.65
283.482	2.46
283.696	2.5
283.91	2.92
284.123	3.03
284.337	3.02
284.551	2.62
284.764	3.07
284.978	3.05
285.192	3.12
285.405	2.94
285.619	3.16
285.833	3.33
286.046	3.49
286.26	3.64
286.473	3.89
286.687	3.76
286.9	3.89
287.114	3.79
287.327	3.86
287.541	4.03
287.754	4.43
287.968	4.87
288.181	4.45
288.395	4.23
288.608	3.88
288.822	3.22
289.035	3.27
289.248	3.26
289.462	3.1
289.675	3.07
289.889	3.05
290.102	2.96
290.315	2.82
290.529	3.15
290.742	3.17
290.955	3.44
291.169	3.89
291.382	3.86
291.595	3.62
291.808	3.92
292.022	3.85
292.235	3.85
292.448	3.86
292.661	3.63
292.875	4.12
293.088	4.55
293.301	4.69
293.514	4.64
293.727	4.66
293.94	5.15
294.153	4.93
294.367	5.58
294.58	5.76
294.793	5.97
295.006	6
295.219	5.53
295.432	5.28
295.645	5.21
295.858	5.18
296.071	5.52
296.284	5.75
296.497	5.76
296.71	5.26
296.923	5.09
297.136	5.22
297.349	5.09
297.562	5.13
297.775	5.42
297.988	5.55
298.201	5.51
298.414	5.46
298.626	5.29
298.839	5.38
299.052	5.28
299.265	5.57
299.478	5.41
299.691	5.3
299.903	5.53
300.116	5.61
300.329	5.4
300.542	5.67
300.755	5.59
300.967	5.67
301.18	5.72
301.393	5.71
301.605	5.6
301.818	5.59
302.031	5.86
302.243	5.81
302.456	5.58
302.669	5.44
302.881	5.3
303.094	5.62
303.307	5.22
303.519	5.4
303.732	5.62
303.944	5.43
304.157	5.26
304.37	5.4
304.582	5.38
304.795	5.41
305.007	5.72
305.22	5.86
305.432	5.75
305.645	6.32
305.857	6.34
306.069	6.63
306.282	6.76
306.494	6.83
306.707	6.61
306.919	6.76
307.132	6.97
307.344	6.89
307.556	6.34
307.769	6.33
307.981	6.3
308.193	6.06
308.406	6.22
308.618	6.47
308.83	6.33
309.043	6.5
309.255	6.37
309.467	6.06
309.679	6.24
309.892	6.66
310.104	6.68
310.316	6.5
310.528	6.56
310.74	6.57
310.953	6.46
311.165	6.84
311.377	6.99
311.589	7.2
311.801	7.14
312.013	6.99
312.225	6.93
312.437	6.73
312.649	6.91
312.862	7.03
313.074	6.69
313.286	6.62
313.498	6.88
313.71	6.94
313.922	6.96
314.134	6.88
314.346	7.26
314.558	7.66
314.77	7.62
314.982	7.95
315.193	7.91
315.405	8.13
315.617	8.25
315.829	7.77
316.041	7.61
316.253	7.35
316.465	8.05
316.677	7.98
316.888	7.87
317.1	8.38
317.312	8.59
317.524	8.7
317.736	9.02
317.947	8.99
318.159	9.15
318.371	9.25
318.583	9.55
318.794	9.66
319.006	9.58
319.218	9.64
319.43	9.82
319.641	9.34
319.853	9.3
320.064	9.3
320.276	9.77
320.488	9.49
320.699	9.81
320.911	9.73
321.123	9.53
321.334	9.29
321.546	9.67
321.757	9.5
321.969	9.52
322.18	9.68
322.392	9
322.603	8.53
322.815	9.04
323.026	9.27
323.238	9.15
323.449	9.06
323.661	9.39
323.872	8.87
324.083	8.62
324.295	8.66
324.506	8.48
324.718	8.72
324.929	8.87
325.14	8.69
325.352	8.43
325.563	8.74
325.774	8.96
325.986	8.92
326.197	9.22
326.408	9.3
326.62	9.54
326.831	9.6
327.042	9.93
327.253	10.24
327.464	10.32
327.676	10.25
327.887	9.9
328.098	9.68
328.309	10.02
328.52	10.35
328.732	10.81
328.943	10.93
329.154	11.19
329.365	11.41
329.576	11.49
329.787	12.06
329.998	12.66
330.209	12.85
330.42	13.27
330.631	13.25
330.842	12.72
331.053	12.5
331.264	11.86
331.475	11.67
331.686	11.67
331.897	11.08
332.108	10.73
332.319	10.72
332.53	10.78
332.741	10.64
332.952	10.5
333.163	11.03
333.374	11.32
333.585	11.77
333.795	11.79
334.006	11.72
334.217	12.49
334.428	12.29
334.639	12.25
334.849	12.92
335.06	12.9
335.271	12.89
335.482	12.6
335.692	12.61
335.903	12.77
336.114	13.01
336.325	12.99
336.535	13.04
336.746	13.42
336.957	13.47
337.167	13.12
337.378	13.32
337.589	13.51
337.799	13.69
338.01	13.48
338.22	13.53
338.431	13.34
338.642	13.44
338.852	13.27
339.063	13.29
339.273	13.16
339.484	13.12
339.694	12.86
339.905	12.76
340.115	12.75
340.326	12.99
340.536	12.69
340.746	13.09
340.957	13.1
341.167	12.7
341.378	12.68
341.588	12.72
341.799	12.9
342.009	12.92
342.219	12.63
342.43	12.54
342.64	12.34
342.85	12.39
343.061	12.11
343.271	12.08
343.481	12.42
343.691	12.4
343.902	12.17
344.112	12.11
344.322	12.04
344.532	12.06
344.743	11.74
344.953	12.14
345.163	12.33
345.373	12.29
345.583	12.29
345.793	12.38
346.004	12.1
346.214	12.19
346.424	12.37
346.634	12.39
346.844	12.59
347.054	13.05
347.264	12.38
347.474	12.32
347.684	12.16
347.894	11.75
348.104	11.63
348.314	11.67
348.524	11.58
348.734	11.18
348.944	11.02
349.154	11.1
349.364	10.81
349.574	10.99
349.784	11
349.994	11.13
350.204	11.66
350.413	11.59
350.623	12.01
350.833	11.75
351.043	11.68
351.253	11.87
351.463	11.81
351.672	12.11
351.882	12.21
352.092	11.92
352.302	11.92
352.511	12.03
352.721	12.19
352.931	11.88
353.141	11.86
353.35	12
353.56	12.22
353.77	12.33
353.979	12.3
354.189	12.13
354.399	12.34
354.608	12.65
354.818	12.23
355.027	11.97
355.237	11.83
355.447	12.12
355.656	12.04
355.866	12.02
356.075	11.87
356.285	11.76
356.494	11.88
356.704	11.9
356.913	11.76
357.123	11.92
357.332	11.84
357.542	12.03
357.751	11.94
357.96	11.77
358.17	11.52
358.379	11.2
358.589	10.95
358.798	10.92
359.007	10.98
359.217	11.04
359.426	11.14
359.635	11.12
359.845	10.9
360.054	10.95
360.263	11.1
360.472	11.22
360.682	11.35
360.891	11.33
361.1	11.13
361.309	10.92
361.519	10.56
361.728	10.22
361.937	10.32
362.146	10.27
362.355	9.97
362.564	10.12
362.774	10.01
362.983	9.91
363.192	9.83
363.401	10.02
363.61	10.01
363.819	10.19
364.028	10.35
364.237	10.25
364.446	10.45
364.655	10.82
364.864	10.31
365.073	10.3
365.282	10.45
365.491	10.78
365.7	10.75
365.909	10.82
366.118	10.93
366.327	11.02
366.536	10.89
366.745	10.82
366.954	10.69
367.162	10.83
367.371	11
367.58	10.95
367.789	10.81
367.998	10.78
368.207	10.8
368.415	10.67
368.624	10.45
368.833	10.49
369.042	10.09
369.25	10.36
369.459	10.31
369.668	9.96
369.877	9.96
370.085	9.93
370.294	9.5
370.503	9.45
370.711	9.52
370.92	9.7
371.129	9.84
371.337	10.12
371.546	9.91
371.754	10
371.963	10.2
372.171	10.28
372.38	10.2
372.589	10.22
372.797	10.36
373.006	10.14
373.214	10.02
373.423	9.9
373.631	9.73
373.84	9.52
374.048	9.6
374.256	9.45
374.465	9.39
374.673	9.39
374.882	9.39
375.09	8.94
375.298	9.06
375.507	8.97
375.715	9.16
375.923	9.1
376.132	8.99
376.34	8.77
376.548	8.72
376.757	8.53
376.965	8.37
377.173	8.51
377.381	8.65
377.59	8.69
377.798	8.92
378.006	8.63
378.214	8.8
378.423	8.8
378.631	8.9
378.839	8.95
379.047	9.03
379.255	9.06
379.463	9.08
379.671	9.22
379.879	8.91
380.088	8.45
380.296	8.24
380.504	8.09
380.712	8.01
380.92	7.7
381.128	7.76
381.336	7.74
381.544	7.76
381.752	7.71
381.96	7.28
382.168	7.44
382.376	7.71
382.584	8.1
382.791	8.13
382.999	8.28
383.207	8.73
383.415	8.75
383.623	8.78
383.831	8.9
384.039	8.89
384.247	9.25
384.454	9.15
384.662	8.82
384.87	8.58
385.078	8.64
385.285	8.51
385.493	8.34
385.701	8.15
385.909	7.82
386.116	7.78
386.324	7.69
386.532	7.54
386.739	7.49
386.947	7.78
387.155	8.05
387.362	8.06
387.57	8.31
387.778	8.32
387.985	8.43
388.193	8.66
388.4	8.67
388.608	8.77
388.816	8.77
389.023	8.91
389.231	8.9
389.438	8.8
389.646	8.36
389.853	8.11
390.061	8.1
390.268	7.91
390.475	8.08
390.683	8
390.89	7.92
391.098	7.83
391.305	7.73
391.512	7.47
391.72	7.09
391.927	7.46
392.135	7.58
392.342	7.48
392.549	7.48
392.756	7.29
392.964	7.12
393.171	7.13
393.378	6.99
393.586	6.96
393.793	6.98
394	7.24
394.207	7.3
394.414	7.23
394.622	7.17
394.829	7.37
395.036	7.35
395.243	7.58
395.45	7.56
395.657	7.52
395.864	7.37
396.072	7.51
396.279	7.48
396.486	7.11
396.693	7.13
396.9	7.16
397.107	6.93
397.314	7.03
397.521	6.83
397.728	6.72
397.935	7.15
398.142	7.44
398.349	7.46
398.556	7.45
398.763	7.6
398.97	7.77
399.177	7.81
399.383	7.9
399.59	7.67
399.797	7.74
400.004	7.9
400.211	7.45
400.418	7.4
400.625	7.32
400.831	7.59
401.038	7.5
401.245	7.38
401.452	7.32
401.658	7.15
401.865	7.24
402.072	7.23
402.279	7.05
402.485	7.22
402.692	7.14
402.899	7.2
403.105	7.17
403.312	7.28
403.519	7.23
403.725	7.07
403.932	7.13
404.138	7.12
404.345	7.19
404.552	7.33
404.758	7.38
404.965	7.46
405.171	7.28
405.378	7.05
405.584	6.92
405.791	6.9
405.997	7.07
406.204	6.92
406.41	7.05
406.617	6.96
406.823	6.89
407.029	6.96
407.236	6.75
407.442	6.8
407.649	6.85
407.855	6.94
408.061	7.03
408.268	7.01
408.474	7.27
408.68	7.26
408.887	7.39
409.093	7.32
409.299	7.29
409.505	7.4
409.712	7.41
409.918	7.41
410.124	7.38
410.33	7.35
410.537	7.28
410.743	7.16
410.949	6.97
411.155	6.9
411.361	6.86
411.567	6.78
411.773	6.8
411.98	6.9
412.186	6.97
412.392	7
412.598	7
412.804	7.09
413.01	7.11
413.216	7.24
413.422	7.26
413.628	7.31
413.834	7.25
414.04	7.24
414.246	7.36
414.452	7.23
414.658	7.31
414.864	7.23
415.07	7.24
415.275	7.12
415.481	6.99
415.687	6.89
415.893	6.92
416.099	7.1
416.305	7.15
416.511	7.09
416.716	7.25
416.922	7.18
417.128	7.21
417.334	7.18
417.539	7.28
417.745	7.34
417.951	7.23
418.157	7.28
418.362	7.22
418.568	7.11
418.774	7.05
418.979	6.92
419.185	6.88
419.391	6.89
419.596	6.91
419.802	6.89
420.008	6.85
420.213	6.95
420.419	6.86
420.624	6.8
420.83	6.86
421.035	6.86
421.241	6.89
421.446	7.01
421.652	7.04
421.857	7.06
422.063	7.13
422.268	7.24
422.474	7.27
422.679	7.27
422.885	7.46
423.09	7.48
423.295	7.49
423.501	7.43
423.706	7.38
423.911	7.28
424.117	7.24
424.322	7.21
424.527	7.13
424.733	7.1
424.938	7.21
425.143	7.05
425.349	7.03
425.554	7.06
425.759	7.16
425.964	7.12
426.169	7.22
426.375	7.25
426.58	7.17
426.785	7.12
426.99	7.17
427.195	7.07
427.4	7.07
427.605	7.12
427.811	7.18
428.016	7.11
428.221	7.19
428.426	7.17
428.631	7.24
428.836	7.31
429.041	7.43
429.246	7.44
429.451	7.43
429.656	7.41
429.861	7.37
430.066	7.34
430.271	7.42
430.476	7.46
430.681	7.41
430.886	7.4
431.09	7.44
431.295	7.31
431.5	7.24
431.705	7.17
431.91	7.26
432.115	7.3
432.32	7.19
432.524	7.15
432.729	7.21
432.934	7.36
433.139	7.22
433.343	7.27
433.548	7.35
433.753	7.4
433.958	7.58
434.162	7.6
434.367	7.63
434.572	7.7
434.776	7.77
434.981	7.7
435.186	7.57
435.39	7.78
435.595	7.73
435.799	7.79
436.004	7.76
436.209	7.71
436.413	7.73
436.618	7.68
436.822	7.7
437.027	7.66
437.231	7.71
437.436	7.78
437.64	7.72
437.845	7.76
438.049	7.83
438.253	7.86
438.458	7.84
438.662	7.8
438.867	7.77
439.071	7.66
439.275	7.61
439.48	7.54
439.684	7.57
439.888	7.58
440.093	7.55
440.297	7.47
440.501	7.48
440.706	7.54
440.91	7.52
441.114	7.57
441.318	7.61
441.523	7.63
441.727	7.7
441.931	7.62
442.135	7.73
442.339	7.73
442.543	7.76
442.748	7.79
442.952	7.81
443.156	7.93
443.36	7.91
443.564	8
443.768	8.03
443.972	7.99
444.176	8.01
444.38	7.95
444.584	7.89
444.788	7.88
444.992	7.85
445.196	7.77
445.4	7.82
445.604	7.87
445.808	7.83
446.012	7.81
446.216	7.75
446.42	7.77
446.624	7.71
446.828	7.78
447.032	7.82
447.235	7.82
447.439	7.8
447.643	7.71
447.847	7.63
448.051	7.72
448.254	7.75
448.458	7.75
448.662	7.73
448.866	7.78
449.069	7.77
449.273	7.71
449.477	7.73
449.681	7.74
449.884	7.74
450.088	7.78
450.292	7.66
450.495	7.67
450.699	7.69
450.902	7.74
451.106	7.71
451.31	7.76
451.513	7.79
451.717	7.75
451.92	7.74
452.124	7.73
452.327	7.68
452.531	7.69
452.734	7.68
452.938	7.7
453.141	7.65
453.345	7.61
453.548	7.53
453.752	7.53
453.955	7.59
454.158	7.7
454.362	7.64
454.565	7.63
454.769	7.57
454.972	7.65
455.175	7.71
455.379	7.75
455.582	7.72
455.785	7.73
455.988	7.67
456.192	7.65
456.395	7.56
456.598	7.59
456.801	7.61
457.005	7.67
457.208	7.57
457.411	7.46
457.614	7.46
457.817	7.54
458.021	7.61
458.224	7.6
458.427	7.57
458.63	7.56
458.833	7.64
459.036	7.7
459.239	7.67
459.442	7.7
459.645	7.73
459.848	7.68
460.051	7.73
460.254	7.69
460.457	7.66
460.66	7.75
460.863	7.83
461.066	7.71
461.269	7.67
461.472	7.67
461.675	7.64
461.878	7.7
462.081	7.71
462.284	7.65
462.486	7.69
462.689	7.8
462.892	7.76
463.095	7.61
463.298	7.76
463.5	7.82
463.703	7.86
463.906	7.94
464.109	7.97
464.311	8.07
464.514	8.16
464.717	8.09
464.92	7.93
465.122	7.95
465.325	8.04
465.528	7.94
465.73	7.95
465.933	7.99
466.135	7.99
466.338	7.9
466.541	7.82
466.743	7.8
466.946	7.94
467.148	8.08
467.351	8.05
467.553	8.08
467.756	8.2
467.958	8.2
468.161	8.2
468.363	8.14
468.566	8.07
468.768	8.15
468.971	8.18
469.173	8.15
469.375	8
469.578	7.95
469.78	8.01
469.983	8
470.185	7.93
470.387	7.87
470.59	7.87
470.792	7.9
470.994	7.83
471.196	7.82
471.399	7.79
471.601	7.98
471.803	8.01
472.005	7.92
472.208	7.91
472.41	8.1
472.612	8.16
472.814	8.17
473.016	8.23
473.218	8.29
473.421	8.14
473.623	8.17
473.825	8.05
474.027	8.09
474.229	8.19
474.431	8.18
474.633	8.01
474.835	8
475.037	8.09
475.239	8.19
475.441	8.09
475.643	8.14
475.845	8.2
476.047	8.27
476.249	8.26
476.451	8.16
476.653	8.15
476.855	8.09
477.057	8.16
477.258	8.09
477.46	7.99
477.662	8.04
477.864	8.01
478.066	7.94
478.268	7.93
478.469	7.99
478.671	7.99
478.873	7.92
479.075	7.94
479.276	7.94
479.478	7.99
479.68	8.01
479.882	8.03
480.083	8.11
480.285	8.03
480.487	8.05
480.688	8
480.89	8.1
481.091	8.15
481.293	8.19
481.495	8.12
481.696	8.01
481.898	8.01
482.099	7.99
482.301	7.95
482.502	7.98
482.704	7.99
482.905	7.99
483.107	7.94
483.308	7.98
483.51	7.96
483.711	7.98
483.913	8.02
484.114	8.01
484.315	8.01
484.517	8.04
484.718	8.04
484.92	8.01
485.121	7.99
485.322	8
485.524	7.96
485.725	7.95
485.926	7.94
486.127	7.94
486.329	7.95
486.53	7.97
486.731	7.93
486.932	7.95
487.134	8.01
487.335	8.02
487.536	8
487.737	8.01
487.938	8.01
488.139	8
488.341	8.01
488.542	8
488.743	8.03
488.944	8.06
489.145	8.04
489.346	8.04
489.547	8.07
489.748	8.12
489.949	8.1
490.15	8.12
490.351	8.2
490.552	8.17
490.753	8.22
490.954	8.15
491.155	8.09
491.356	8.14
491.557	8.11
491.758	8.12
491.959	8.12
492.159	8.19
492.36	8.23
492.561	8.22
492.762	8.22
492.963	8.26
493.164	8.3
493.364	8.34
493.565	8.31
493.766	8.36
493.967	8.32
494.167	8.34
494.368	8.26
494.569	8.32
494.769	8.29
494.97	8.36
495.171	8.38
495.371	8.39
495.572	8.45
495.773	8.5
495.973	8.47
496.174	8.59
496.375	8.59
496.575	8.59
496.776	8.52
496.976	8.55
497.177	8.56
497.377	8.56
497.578	8.6
497.778	8.6
497.979	8.55
498.179	8.53
498.38	8.52
498.58	8.5
498.78	8.52
498.981	8.49
499.181	8.48
499.382	8.49
499.582	8.46
499.782	8.48
499.983	8.6
500.183	8.61
500.383	8.71
500.584	8.74
500.784	8.87
500.984	8.93
501.184	9.01
501.385	9.06
501.585	9.13
501.785	9.21
501.985	9.18
502.185	9.11
502.386	9.35
502.586	9.4
502.786	9.33
502.986	9.3
503.186	9.37
503.386	9.42
503.586	9.41
503.786	9.43
503.987	9.4
504.187	9.44
504.387	9.49
504.587	9.34
504.787	9.34
504.987	9.43
505.187	9.46
505.387	9.49
505.587	9.48
505.786	9.57
505.986	9.55
506.186	9.57
506.386	9.59
506.586	9.68
506.786	9.82
506.986	9.92
507.186	9.96
507.386	9.98
507.585	10.02
507.785	10.17
507.985	10.1
508.185	10.15
508.384	10.22
508.584	10.29
508.784	10.38
508.984	10.42
509.183	10.39
509.383	10.48
509.583	10.52
509.782	10.6
509.982	10.58
510.182	10.73
510.381	10.8
510.581	10.88
510.781	10.98
510.98	11
511.18	11
511.379	11.07
511.579	11.11
511.778	11.16
511.978	11.11
512.177	11.12
512.377	11.09
512.576	11.18
512.776	11.19
512.975	11.2
513.175	11.15
513.374	11.17
513.573	11.17
513.773	11.17
513.972	11.23
514.172	11.36
514.371	11.47
514.57	11.59
514.77	11.55
514.969	11.69
515.168	11.79
515.367	11.9
515.567	11.93
515.766	12.09
515.965	12.19
516.164	12.32
516.364	12.31
516.563	12.4
516.762	12.48
516.961	12.63
517.16	12.59
517.359	12.59
517.559	12.69
517.758	12.8
517.957	12.86
518.156	12.96
518.355	12.96
518.554	13.06
518.753	13.1
518.952	13.09
519.151	13.08
519.35	13.14
519.549	13.16
519.748	13.22
519.947	13.3
520.146	13.3
520.345	13.35
520.544	13.45
520.743	13.56
520.942	13.61
521.141	13.71
521.339	13.79
521.538	13.83
521.737	13.99
521.936	14.04
522.135	14.1
522.333	14.19
522.532	14.15
522.731	14.18
522.93	14.11
523.129	14.1
523.327	14.08
523.526	14.12
523.725	14.18
523.923	14.24
524.122	14.24
524.321	14.26
524.519	14.33
524.718	14.4
524.917	14.52
525.115	14.58
525.314	14.7
525.512	14.84
525.711	14.87
525.909	14.97
526.108	15.01
526.306	15.06
526.505	15.1
526.703	15.16
526.902	15.25
527.1	15.28
527.299	15.35
527.497	15.41
527.696	15.43
527.894	15.5
528.092	15.51
528.291	15.55
528.489	15.63
528.688	15.67
528.886	15.68
529.084	15.69
529.283	15.69
529.481	15.73
529.679	15.7
529.877	15.72
530.076	15.73
530.274	15.79
530.472	15.8
530.67	15.81
530.869	15.84
531.067	15.88
531.265	15.95
531.463	16.04
531.661	16.11
531.859	16.27
532.057	16.3
532.255	16.38
532.454	16.42
532.652	16.47
532.85	16.43
533.048	16.49
533.246	16.53
533.444	16.58
533.642	16.57
533.84	16.53
534.038	16.51
534.236	16.62
534.434	16.63
534.632	16.65
534.83	16.68
535.027	16.76
535.225	16.78
535.423	16.82
535.621	16.9
535.819	16.97
536.017	17.1
536.215	17.11
536.412	17.05
536.61	17.14
536.808	17.15
537.006	17.21
537.203	17.24
537.401	17.31
537.599	17.39
537.797	17.39
537.994	17.39
538.192	17.41
538.39	17.48
538.587	17.52
538.785	17.52
538.983	17.66
539.18	17.75
539.378	17.89
539.575	17.9
539.773	17.9
539.97	17.93
540.168	17.96
540.366	17.92
540.563	17.9
540.761	17.99
540.958	18.01
541.155	18.05
541.353	18.05
541.55	18.05
541.748	18.08
541.945	18.14
542.143	18.12
542.34	18.21
542.537	18.23
542.735	18.33
542.932	18.32
543.129	18.35
543.327	18.3
543.524	18.33
543.721	18.36
543.919	18.47
544.116	18.5
544.313	18.6
544.51	18.57
544.708	18.7
544.905	18.72
545.102	18.86
545.299	18.92
545.496	19
545.693	19.01
545.891	19
546.088	18.91
546.285	18.92
546.482	18.89
546.679	19
546.876	19.02
547.073	19.02
547.27	18.9
547.467	18.97
547.664	18.99
547.861	18.94
548.058	19.08
548.255	19.09
548.452	18.98
548.649	18.96
548.846	18.92
549.043	18.99
549.24	18.96
549.437	18.95
549.633	18.85
549.83	18.85
550.027	18.94
550.224	18.85
550.421	18.93
550.618	18.97
550.814	19.04
551.011	18.93
551.208	18.77
551.405	18.87
551.601	18.92
551.798	19
551.995	18.98
552.191	19.04
552.388	18.92
552.585	18.85
552.781	18.9
552.978	18.81
553.175	18.87
553.371	18.94
553.568	18.9
553.764	18.83
553.961	18.77
554.157	18.74
554.354	18.65
554.55	18.72
554.747	18.75
554.943	18.84
555.14	18.93
555.336	18.87
555.533	18.88
555.729	18.93
555.926	19.07
556.122	19.18
556.318	19.3
556.515	19.32
556.711	19.37
556.907	19.4
557.104	19.35
557.3	19.34
557.496	19.45
557.693	19.44
557.889	19.41
558.085	19.48
558.281	19.49
558.478	19.24
558.674	19.22
558.87	19.2
559.066	19.25
559.262	19.17
559.459	19.14
559.655	19.12
559.851	19.22
560.047	19.28
560.243	19.26
560.439	19.13
560.635	19.29
560.831	19.35
561.027	19.44
561.223	19.32
561.419	19.45
561.615	19.48
561.811	19.53
562.007	19.39
562.203	19.37
562.399	19.26
562.595	19.29
562.791	19.28
562.987	19.18
563.183	19.15
563.379	19.22
563.575	19.19
563.771	19.19
563.966	19.17
564.162	19.38
564.358	19.34
564.554	19.45
564.75	19.47
564.945	19.46
565.141	19.57
565.337	19.61
565.533	19.63
565.728	19.56
565.924	19.7
566.12	19.7
566.315	19.58
566.511	19.45
566.707	19.42
566.902	19.46
567.098	19.53
567.293	19.51
567.489	19.45
567.684	19.45
567.88	19.49
568.076	19.38
568.271	19.41
568.467	19.41
568.662	19.52
568.858	19.61
569.053	19.62
569.248	19.5
569.444	19.47
569.639	19.55
569.835	19.54
570.03	19.6
570.225	19.63
570.421	19.58
570.616	19.67
570.812	19.69
571.007	19.65
571.202	19.66
571.397	19.74
571.593	19.83
571.788	19.79
571.983	19.91
572.178	19.83
572.374	19.81
572.569	19.85
572.764	19.81
572.959	19.85
573.154	19.76
573.35	19.78
573.545	19.9
573.74	19.98
573.935	20.02
574.13	19.96
574.325	20.06
574.52	20.14
574.715	20.16
574.91	20.24
575.105	20.23
575.3	20.32
575.495	20.35
575.69	20.28
575.885	20.2
576.08	20.14
576.275	20.28
576.47	20.25
576.665	20.24
576.86	20.33
577.055	20.28
577.25	20.33
577.444	20.44
577.639	20.42
577.834	20.46
578.029	20.56
578.224	20.56
578.418	20.41
578.613	20.47
578.808	20.42
579.003	20.28
579.197	20.21
579.392	20.16
579.587	20.04
579.781	20.06
579.976	20.11
580.171	20.04
580.365	20.22
580.56	20.29
580.755	20.23
580.949	20.3
581.144	20.35
581.338	20.43
581.533	20.54
581.727	20.58
581.922	20.47
582.116	20.44
582.311	20.38
582.505	20.29
582.7	20.3
582.894	20.36
583.089	20.6
583.283	20.62
583.478	20.69
583.672	20.68
583.866	20.72
584.061	20.99
584.255	20.98
584.449	21.04
584.644	21.01
584.838	21.01
585.032	21.03
585.226	20.96
585.421	21.02
585.615	21.02
585.809	21.18
586.003	21.29
586.198	21.29
586.392	21.48
586.586	21.35
586.78	21.33
586.974	21.38
587.168	21.53
587.363	21.55
587.557	21.48
587.751	21.58
587.945	21.41
588.139	21.34
588.333	21.31
588.527	21.13
588.721	21.35
588.915	21.34
589.109	21.43
589.303	21.38
589.497	21.26
589.691	21.3
589.885	21.18
590.079	21.25
590.273	21.31
590.466	21.47
590.66	21.65
590.854	21.75
591.048	21.9
591.242	21.69
591.436	21.62
591.629	21.81
591.823	21.95
592.017	21.86
592.211	22.13
592.404	22.12
592.598	21.88
592.792	21.77
592.986	21.57
593.179	21.55
593.373	21.64
593.567	21.73
593.76	21.52
593.954	21.36
594.147	21.44
594.341	21.19
594.535	21.26
594.728	21.48
594.922	21.55
595.115	21.55
595.309	21.6
595.502	21.66
595.696	21.64
595.889	21.78
596.083	21.83
596.276	21.97
596.47	21.91
596.663	21.79
596.856	21.66
597.05	21.72
597.243	21.81
597.437	21.94
597.63	21.92
597.823	21.89
598.017	21.83
598.21	21.87
598.403	21.79
598.596	22.01
598.79	22.05
598.983	22.1
599.176	21.97
599.369	22.06
599.563	21.89
599.756	21.94
599.949	22.12
600.142	22.3
600.335	22.39
600.528	22.45
600.722	22.4
600.915	22.47
601.108	22.49
601.301	22.59
601.494	22.54
601.687	22.52
601.88	22.64
602.073	22.59
602.266	22.56
602.459	22.56
602.652	22.64
602.845	22.43
603.038	22.37
603.231	22.4
603.424	22.36
603.617	22.29
603.809	22.29
604.002	22.19
604.195	22.22
604.388	22.15
604.581	22.25
604.774	22.15
604.966	22.31
605.159	22.43
605.352	22.47
605.545	22.48
605.737	22.61
605.93	22.63
606.123	22.7
606.316	22.73
606.508	22.88
606.701	22.78
606.894	22.85
607.086	23
607.279	22.97
607.471	22.98
607.664	23.26
607.857	23.41
608.049	23.62
608.242	23.68
608.434	23.98
608.627	24.12
608.819	24.6
609.012	25.03
609.204	25.34
609.397	25.78
609.589	26.34
609.782	26.94
609.974	27.49
610.166	28.1
610.359	28.82
610.551	29.28
610.743	29.83
610.936	29.99
611.128	30.23
611.32	30.52
611.513	30.81
611.705	30.77
611.897	30.55
612.09	30.3
612.282	29.99
612.474	29.54
612.666	29.18
612.858	28.96
613.051	28.94
613.243	28.74
613.435	28.51
613.627	28.1
613.819	27.76
614.011	27.41
614.203	27.21
614.395	27.02
614.588	26.9
614.78	26.81
614.972	26.43
615.164	26.04
615.356	25.77
615.548	25.6
615.74	25.4
615.932	25.14
616.124	24.92
616.315	24.84
616.507	24.65
616.699	24.49
616.891	24.47
617.083	24.45
617.275	24.36
617.467	24.26
617.659	24.13
617.85	24.04
618.042	24.2
618.234	24.27
618.426	24.29
618.618	24.15
618.809	24.11
619.001	24.03
619.193	24.09
619.384	24.09
619.576	24.24
619.768	24.29
619.959	24.33
620.151	24.35
620.343	24.53
620.534	24.52
620.726	24.74
620.917	24.71
621.109	24.61
621.301	24.56
621.492	24.6
621.684	24.47
621.875	24.34
622.067	24.61
622.258	24.57
622.45	24.47
622.641	24.42
622.832	24.37
623.024	24.55
623.215	24.55
623.407	24.51
623.598	24.45
623.789	24.61
623.981	24.71
624.172	24.63
624.363	24.5
624.555	24.24
624.746	24.31
624.937	24.13
625.129	24.01
625.32	24.09
625.511	24.16
625.702	24.33
625.893	24.11
626.085	24.1
626.276	23.98
626.467	24.08
626.658	24.24
626.849	24.06
627.04	24.29
627.231	24.34
627.422	24.41
627.614	24.46
627.805	24.31
627.996	24.45
628.187	24.54
628.378	24.6
628.569	24.56
628.76	24.78
628.951	25.04
629.142	25.23
629.332	25.33
629.523	25.25
629.714	25.38
629.905	25.55
630.096	25.68
630.287	25.64
630.478	25.72
630.669	25.9
630.859	25.89
631.05	25.91
631.241	25.71
631.432	25.65
631.623	25.46
631.813	25.18
632.004	25.1
632.195	25.19
632.385	24.98
632.576	24.9
632.767	24.85
632.957	24.79
633.148	24.67
633.339	24.65
633.529	24.55
633.72	24.66
633.91	24.73
634.101	24.56
634.292	24.22
634.482	24.16
634.673	24.27
634.863	24.16
635.054	24.05
635.244	23.91
635.435	23.89
635.625	24.11
635.815	24.07
636.006	24.17
636.196	24.33
636.387	24.41
636.577	24.67
636.767	24.42
636.958	24.5
637.148	24.4
637.338	24.59
637.529	24.51
637.719	24.63
637.909	24.73
638.099	24.81
638.29	24.79
638.48	24.91
638.67	24.97
638.86	25.3
639.05	25.23
639.241	25.31
639.431	25.13
639.621	25.12
639.811	24.82
640.001	24.81
640.191	24.5
640.381	24.51
640.571	24.63
640.761	24.4
640.951	24.41
641.141	24.35
641.331	24.23
641.521	24.47
641.711	24.83
641.901	24.76
642.091	24.69
642.281	24.9
642.471	24.98
642.661	24.84
642.851	24.95
643.041	24.65
643.231	24.88
643.42	24.74
643.61	24.74
643.8	24.31
643.99	24.53
644.18	24.62
644.369	24.54
644.559	24.57
644.749	24.68
644.939	24.9
645.128	25.05
645.318	24.91
645.508	25.27
645.697	25.02
645.887	25.21
646.076	24.99
646.266	25.02
646.456	25.03
646.645	25.13
646.835	25.04
647.024	24.92
647.214	25.15
647.403	25.21
647.593	25.36
647.782	25.65
647.972	25.72
648.161	26.02
648.351	26.05
648.54	26.24
648.73	26.23
648.919	26.32
649.108	26.34
649.298	26.18
649.487	26.41
649.677	26.21
649.866	26.1
650.055	26.22
650.244	26.16
650.434	26.23
650.623	25.89
650.812	25.78
651.002	25.74
651.191	25.76
651.38	25.89
651.569	26.01
651.758	26.08
651.947	26.13
652.137	26.02
652.326	26.14
652.515	25.95
652.704	26.23
652.893	26.42
653.082	26.48
653.271	26.73
653.46	26.47
653.649	26.01
653.838	25.86
654.027	25.82
654.216	25.66
654.405	25.52
654.594	25.58
654.783	25.41
654.972	25.04
655.161	24.94
655.35	24.64
655.539	24.75
655.728	24.98
655.916	25.06
656.105	24.97
656.294	24.99
656.483	24.92
656.672	24.99
656.86	24.95
657.049	25.03
657.238	25.09
657.427	25.25
657.615	25.34
657.804	25.25
657.993	25.26
658.181	25.39
658.37	25.38
658.559	25.5
658.747	25.61
658.936	25.76
659.125	26.02
659.313	25.97
659.502	25.98
659.69	25.85
659.879	26.1
660.067	25.99
660.256	26.11
660.444	26.24
660.633	26.18
660.821	26.2
661.01	26.25
661.198	26.13
661.387	26.42
661.575	26.19
661.763	26.56
661.952	26.46
662.14	26.91
662.328	26.5
662.517	26.32
662.705	26.27
662.893	26.32
663.082	26.11
663.27	26.41
663.458	26.24
663.646	26.55
663.834	26.5
664.023	26.38
664.211	26.36
664.399	26.57
664.587	26.73
664.775	26.76
664.963	26.45
665.152	26.67
665.34	26.33
665.528	26.23
665.716	26.17
665.904	26.09
666.092	26.15
666.28	25.94
666.468	26.11
666.656	26.28
666.844	26.3
667.032	26.37
667.22	26.52
667.408	26.59
667.596	26.72
667.784	26.58
667.971	26.38
668.159	26.34
668.347	26.27
668.535	26.05
668.723	26.01
668.911	26.14
669.098	26
669.286	26.04
669.474	25.94
669.662	25.89
669.849	25.93
670.037	26.25
670.225	26.31
670.413	26.47
670.6	26.56
670.788	26.34
670.976	26.25
671.163	26.36
671.351	26.3
671.538	26.22
671.726	26.14
671.913	26.33
672.101	25.94
672.289	25.93
672.476	25.96
672.664	26.07
672.851	26.38
673.039	26.31
673.226	26.61
673.413	26.43
673.601	26.53
673.788	26.7
673.976	26.6
674.163	26.9
674.35	27.09
674.538	26.9
674.725	26.96
674.912	26.81
675.1	26.76
675.287	26.78
675.474	27.02
675.662	27.32
675.849	27.48
676.036	27.22
676.223	26.92
676.411	26.67
676.598	26.5
676.785	26.63
676.972	26.6
677.159	26.48
677.346	26.02
677.533	25.8
677.721	25.79
677.908	25.63
678.095	25.9
678.282	26.15
678.469	26.16
678.656	26.47
678.843	26.2
679.03	26.39
679.217	26.47
679.404	26.5
679.591	26.54
679.778	26.26
679.964	26.16
680.151	26.11
680.338	26.16
680.525	26.12
680.712	26.17
680.899	26.35
681.086	26.23
681.272	26.12
681.459	26.44
681.646	26.46
681.833	26.66
682.02	26.77
682.206	26.73
682.393	26.61
682.58	26.84
682.766	26.76
682.953	26.59
683.14	26.39
683.326	26.78
683.513	26.67
683.7	26.44
683.886	26.4
684.073	26.38
684.259	26.19
684.446	26.12
684.632	26.09
684.819	26.12
685.005	26.28
685.192	26.65
685.378	26.48
685.565	26.81
685.751	26.84
685.938	26.56
686.124	26.5
686.31	26.8
686.497	26.89
686.683	26.94
686.87	26.88
687.056	26.73
687.242	26.74
687.429	26.65
687.615	26.3
687.801	26.54
687.987	26.72
688.174	26.75
688.36	26.77
688.546	27.19
688.732	27.05
688.918	26.82
689.105	26.82
689.291	26.71
689.477	27.05
689.663	26.77
689.849	26.72
690.035	26.78
690.221	26.83
690.407	26.73
690.593	26.22
690.779	26.22
690.965	26.32
691.151	26.52
691.337	26.58
691.523	26.44
691.709	26.86
691.895	26.94
692.081	26.81
692.267	27.05
692.453	27.23
692.639	27.44
692.825	27.58
693.011	27.7
693.196	27.86
693.382	27.64
693.568	27.45
693.754	27.15
693.94	27.23
694.125	27.28
694.311	27.05
694.497	27
694.682	26.75
694.868	26.65
695.054	26.48
695.239	26.36
695.425	26.62
695.611	26.57
695.796	26.57
695.982	25.98
696.168	26.19
696.353	26.23
696.539	26.04
696.724	25.97
696.91	26.32
697.095	26.61
697.281	26.46
697.466	26.57
697.652	26.82
697.837	26.78
698.023	26.9
698.208	26.72
698.393	26.75
698.579	26.81
698.764	26.7
698.949	26.32
699.135	26.06
699.32	26.16
699.505	25.98
699.691	25.92
699.876	26.11
700.061	26.25
700.246	26.02
700.432	25.94
700.617	26.12
700.802	26.33
700.987	26.05
701.172	26.05
701.358	26
701.543	26.11
701.728	25.99
701.913	26.4
702.098	26.6
702.283	27.14
702.468	27.11
702.653	27.11
702.838	27.37
703.023	27.97
703.208	28.36
703.393	28.52
703.578	28.35
703.763	28.74
703.948	28.25
704.133	28.64
704.318	28.92
704.503	29.2
704.688	29.19
704.873	29.29
705.057	29.6
705.242	29.61
705.427	29.81
705.612	29.93
705.797	29.77
705.981	30.12
706.166	30.08
706.351	30.77
706.536	30.71
706.72	30.67
706.905	30.88
707.09	30.87
707.274	30.8
707.459	31.18
707.644	31.59
707.828	31.66
708.013	31.83
708.197	31.66
708.382	30.64
708.567	30.74
708.751	30.39
708.936	30.23
709.12	30.14
709.305	30.37
709.489	30.03
709.673	30.02
709.858	30.02
710.042	29.82
710.227	29.65
710.411	29.81
710.596	29.61
710.78	29.94
710.964	29.94
711.149	30.53
711.333	30.61
711.517	30.24
711.702	30.08
711.886	30.16
712.07	30
712.254	29.73
712.438	29.74
712.623	29.84
712.807	29.66
712.991	29.63
713.175	29.27
713.359	29.02
713.544	28.98
713.728	28.66
713.912	28.52
714.096	28.26
714.28	28.14
714.464	27.9
714.648	27.79
714.832	27.91
715.016	27.52
715.2	26.78
715.384	26.66
715.568	26.42
715.752	26.48
715.936	26.24
716.12	26.28
716.304	26.36
716.488	26.46
716.671	26.15
716.855	26.07
717.039	26.65
717.223	26.72
717.407	26.48
717.59	26.73
717.774	27.08
717.958	27.41
718.142	27.44
718.325	26.99
718.509	27.1
718.693	27.16
718.877	27.23
719.06	26.73
719.244	27.29
719.428	27.45
719.611	27.58
719.795	26.98
719.978	26.53
720.162	26.65
720.345	27.35
720.529	27.46
720.713	27.71
720.896	28.21
721.08	28.62
721.263	28.53
721.446	28.81
721.63	28.92
721.813	28.88
721.997	29.13
722.18	29.05
722.364	29.23
722.547	29
722.73	29.19
722.914	28.63
723.097	28.3
723.28	28.29
723.464	28.27
723.647	27.83
723.83	28.13
724.013	27.88
724.197	28.14
724.38	27.85
724.563	27.79
724.746	27.75
724.929	27.46
725.112	27.83
725.296	27.72
725.479	27.38
725.662	28.12
725.845	27.88
726.028	28.34
726.211	27.96
726.394	28.03
726.577	28.12
726.76	27.95
726.943	28.22
727.126	28.1
727.309	27.5
727.492	27.87
727.675	27.26
727.858	27.39
728.041	27.46
728.224	27.44
728.407	27.55
728.589	27.64
728.772	27.42
728.955	27.56
729.138	27.23
729.321	27.57
729.503	27.22
729.686	27.15
729.869	27
730.052	26.4
730.234	26.47
730.417	26.35
730.6	26.24
730.782	26.19
730.965	26.08
731.148	26.35
731.33	26.29
731.513	26.17
731.695	26.51
731.878	26.88
732.061	26.94
732.243	26.67
732.426	26.87
732.608	26.95
732.791	27.27
732.973	27.61
733.156	27.41
733.338	27.38
733.52	27.71
733.703	27.77
733.885	27.38
734.068	27.46
734.25	28.02
734.432	28.18
734.615	28.3
734.797	28.09
734.979	27.29
735.162	27.7
735.344	28.02
735.526	28.16
735.708	27.7
735.891	27.64
736.073	28.02
736.255	28.39
736.437	27.93
736.619	27.73
736.802	28.03
736.984	28.25
737.166	27.63
737.348	27.74
737.53	27.21
737.712	27.46
737.894	27.37
738.076	27.13
738.258	26.63
738.44	26.59
738.622	26.75
738.804	26.57
738.986	27.07
739.168	27.38
739.35	27.53
739.532	27.73
739.714	27.29
739.896	28.17
740.078	28.19
740.259	28.33
740.441	28.96
740.623	28.44
740.805	28.24
740.987	27.53
741.168	27.9
741.35	28.38
741.532	28.58
741.714	28.96
741.895	28.4
742.077	28.41
742.259	28.4
742.44	27.66
742.622	28.67
742.804	29.04
742.985	29.26
743.167	29.11
743.348	29.11
743.53	29.08
743.711	28.38
743.893	28.83
744.075	28.54
744.256	28.12
744.438	28.39
744.619	28.16
744.8	28.38
744.982	28.5
745.163	28.05
745.345	27.26
745.526	27.47
745.707	28.78
745.889	27.92
746.07	27.88
746.252	27.83
746.433	28.24
746.614	28.37
746.795	28.14
746.977	28.15
747.158	28.72
747.339	28.52
747.52	28.38
747.702	27.78
747.883	27.98
748.064	28
748.245	27.91
748.426	27.29
748.607	26.44
748.788	25.77
748.97	26.12
749.151	25.43
749.332	25.84
749.513	25.32
749.694	25.6
749.875	25.2
750.056	25.44
750.237	25.85
750.418	26.03
750.599	26.12
750.78	26.76
750.96	26.15
751.141	26.63
751.322	26.41
751.503	26.74
751.684	26.78
751.865	27.65
752.046	27.96
752.226	27.4
752.407	27.73
752.588	28.97
752.769	28.25
752.949	28.18
753.13	27.66
753.311	26.79
753.492	27.37
753.672	27.14
753.853	27.05
754.034	27.44
754.214	27.87
754.395	27.66
754.575	27.33
754.756	27.71
754.937	28.85
755.117	29.14
755.298	29.84
755.478	29.2
755.659	29.63
755.839	29.05
756.02	27.97
756.2	27.8
756.381	27.72
756.561	27.6
756.741	28.3
756.922	27.01
757.102	26.68
757.283	26.52
757.463	26.88
757.643	26.5
757.823	26.9
758.004	26.78
758.184	26.35
758.364	26.12
758.545	26.24
758.725	25.45
758.905	25.41
759.085	25.55
759.265	25.19
759.446	25.26
759.626	25.18
759.806	25.33
759.986	25.81
760.166	26.19
760.346	27.06
760.526	25.81
760.706	25.97
760.886	26.83
761.066	26.63
761.246	27
761.426	26.06
761.606	26.1
761.786	25.75
761.966	25.25
762.146	25.27
762.326	24.7
762.506	25.09
762.686	24.89
762.866	24.91
763.046	25
763.225	25.27
763.405	25.77
763.585	25.5
763.765	25.27
763.945	25.58
764.124	25.57
764.304	25.78
764.484	26.2
764.664	26.65
764.843	26.45
765.023	27.14
765.203	26.92
765.382	27.29
765.562	27.97
765.741	28.35
765.921	28.77
766.101	29.29
766.28	28.31
766.46	28.28
766.639	27.96
766.819	28.49
766.998	27.89
767.178	28.02
767.357	27.99
767.537	27.82
767.716	27.94
767.896	27.2
768.075	26.19
768.254	27.42
768.434	26.71
768.613	27.11
768.792	26.31
768.972	25.67
769.151	26.65
769.33	26.97
769.51	27.13
769.689	27.33
769.868	28.49
770.047	29.45
770.226	29.22
770.406	29.8
770.585	29.01
770.764	28.92
770.943	30.02
771.122	28.94
771.301	29.07
771.48	28.16
771.66	28.21
771.839	27.1
772.018	26.47
772.197	26.52
772.376	27
772.555	28.37
772.734	28.72
772.913	28.55
773.092	28.4
773.271	27.48
773.449	28.52
773.628	27.98
773.807	28.38
773.986	28.94
774.165	28.55
774.344	28.4
774.523	27.95
774.701	27.48
774.88	27.51
775.059	27.61
775.238	28.18
775.417	28.21
775.595	29.14
775.774	29.17
775.953	29.47
776.131	30.3
776.31	29.01
776.489	28.86
776.667	30.11
776.846	30.13
777.025	30.15
777.203	29.39
777.382	30.5
777.56	30.53
777.739	30.72
777.917	29.9
778.096	29.14
778.274	30.72
778.453	31.36
778.631	30.85
778.81	31.19
778.988	31.31
779.166	32.28
779.345	30.9
779.523	30.69
779.702	30.37
779.88	30.72
780.058	31.58
780.237	31.08
780.415	30.62
780.593	30.19
780.771	28.58
780.95	28.88
781.128	27.93
781.306	26.77
781.484	27.21
781.662	27.7
781.841	27.4
782.019	27.09
782.197	25.89
782.375	25.52
782.553	25.23
782.731	26.88
782.909	26.81
783.087	27.92
783.265	28.41
783.443	27.58
783.621	27.56
783.799	27.52
783.977	28.01
784.155	29.28
784.333	28.97
784.511	29.16
784.689	28.67
784.867	27.98
785.045	27.47
785.223	28.4
785.4	28.91
785.578	28.5
785.756	29.17
785.934	28.45
786.112	27.63
786.289	27.07
786.467	27.04
786.645	26.59
786.823	27.43
787	27.32
787.178	26.68
787.356	26.98
787.533	27.15
787.711	26.53
787.889	26.14
788.066	26.01
788.244	26.01
788.421	26.48
788.599	26.49
788.776	26.18
788.954	26.27
789.131	26.35
789.309	26.07
789.486	25.26
789.664	25.91
789.841	26.07
790.019	26.1
790.196	27.21
790.373	27.01
790.551	26.8
790.728	27.01
790.906	26.69
791.083	26.5
791.26	25.55
791.437	25.84
791.615	25.22
791.792	25.14
791.969	25.62
792.146	24.46
792.324	24.97
792.501	25.46
792.678	25.79
792.855	24.87
793.032	25.48
793.209	25.9
793.387	26.54
793.564	27.71
793.741	27.85
793.918	27.3
794.095	27.94
794.272	28.05
794.449	28.24
794.626	27.07
794.803	28.95
794.98	28.69
795.157	28.22
795.334	28.32
795.511	28.08
795.688	28.23
795.864	28.88
796.041	28.71
796.218	28.9
796.395	29.14
796.572	29.85
796.749	27.66
796.925	27.2
797.102	27.89
797.279	27.9
797.456	26.35
797.632	26.44
797.809	26.23
797.986	26.22
798.162	24.99
798.339	24.09
798.516	24.19
798.692	24.83
798.869	24.62
799.046	24.35
799.222	23.61
799.399	25.11
799.575	24.23
799.752	23.12
799.928	23.13
800.105	23.3
800.281	23.89
800.458	22.61
800.634	22.6
800.811	23.01
800.987	23.34
801.163	22.59
801.34	22.62
801.516	22.59
801.692	23.01
801.869	22.93
802.045	22.88
802.221	22.9
802.398	23.03
802.574	23.36
802.75	24.14
802.926	23.62
803.103	25.21
803.279	24.47
803.455	24.95
803.631	25.31
803.807	25.01
803.983	26.17
804.16	25.98
804.336	26.4
804.512	25.75
804.688	26.24
804.864	27.35
805.04	27.53
805.216	28.58
805.392	27.64
805.568	26.69
805.744	26.52
805.92	24.58
806.096	25.98
806.272	25.57
806.448	26.26
806.623	25.73
806.799	24.31
806.975	24.9
807.151	25.03
807.327	26.72
807.503	27.53
807.678	28.78
807.854	29.19
808.03	27.51
808.206	28.69
808.381	29.08
808.557	28.64
808.733	28.74
808.908	27.28
809.084	26.11
809.26	25.43
809.435	24.81
809.611	24.17
809.787	25.37
809.962	25.63
810.138	25
810.313	25.04
810.489	24.71
810.664	26.09
810.84	27.36
811.015	26.54
811.191	26.61
811.366	27.65
811.542	28.31
811.717	28.6
811.892	30.41
812.068	29.78
812.243	28.68
812.419	28.89
812.594	27.51
812.769	25.77
812.944	27.36
813.12	26.27
813.295	25.9
813.47	24.55
813.645	23.12
813.821	22.24
813.996	22.43
814.171	22.02
814.346	23.26
814.521	23.12
814.697	23.45
814.872	23.11
815.047	23.3
815.222	23.29
815.397	24.03
815.572	22.61
815.747	20.83
815.922	21.54
816.097	22.51
816.272	21.32
816.447	21.16
816.622	22.64
816.797	22.54
816.972	23.31
817.147	24.42
817.322	24.96
817.496	26.49
817.671	28.52
817.846	28.83
818.021	28.98
818.196	28.48
818.371	28.93
818.545	28.4
818.72	27.94
818.895	27.84
819.069	26.72
819.244	25.23
819.419	24.95
819.594	23.53
819.768	23.05
819.943	22.76
820.117	22.29
820.292	22.34
820.467	21.78
820.641	22.11
820.816	21.87
820.99	21.48
821.165	21.54
821.339	20.97
821.514	20.89
821.688	20.77
821.863	20.6
822.037	20.64
822.212	20.33
822.386	20.2
822.56	20.01
822.735	20.2
822.909	20.06
823.084	20.03
823.258	20.18
823.432	20.21
823.606	20.03
823.781	20.26
823.955	20.46
824.129	20.4
824.303	20.66
824.478	20.81
824.652	20.33
824.826	20
825	20.11
825.174	20.38
825.348	20.01
825.523	20
825.697	19.86
825.871	19.75
826.045	20.51
826.219	20.04
826.393	19.91
826.567	20.2
826.741	21.19
826.915	20.71
827.089	20.62
827.263	20.64
827.437	20.86
827.611	21
827.784	20.79
827.958	20.46
828.132	20.9
828.306	20.64
828.48	21.04
828.654	21.14
828.827	21.6
829.001	20.84
829.175	21.85
829.349	21.93
829.522	21.23
829.696	21.37
829.87	21.74
830.044	21
830.217	22.58
830.391	21.36
830.565	21.25
830.738	21.39
830.912	22.05
831.085	23.12
831.259	23.71
831.432	24.22
831.606	24.52
831.779	23.29
831.953	24.14
832.126	21.75
832.3	22.12
832.473	20.95
832.647	20.78
832.82	21.34
832.994	20.52
833.167	19.95
833.34	20.22
833.514	19.33
833.687	19.53
833.86	19.98
834.034	19.97
834.207	20.04
834.38	20.86
834.553	19.91
834.727	19.4
834.9	19.07
835.073	19.58
835.246	19.01
835.419	18.84
835.593	19.23
835.766	17.67
835.939	17.51
836.112	18.55
836.285	18.59
836.458	21.81
836.631	22.53
836.804	21.73
836.977	21.68
837.15	22.12
837.323	22.52
837.496	22.76
837.669	23.95
837.842	24.98
838.015	23.8
838.188	23.39
838.361	21.1
838.533	20.03
838.706	20.37
838.879	20.24
839.052	20.24
839.225	22.98
839.398	23.02
839.57	22.5
839.743	22.21
839.916	23.99
840.088	24.3
840.261	24.75
840.434	25.84
840.607	26.99
840.779	27.64
840.952	28.58
841.124	27.38
841.297	28.18
841.47	28.49
841.642	29.79
841.815	28.01
841.987	28.36
842.16	27.91
842.332	28.43
842.505	25.53
842.677	24.63
842.85	23.34
843.022	25.26
843.194	24.93
843.367	25.48
843.539	26.15
843.712	27.11
843.884	25.75
844.056	27.01
844.229	24.77
844.401	28.88
844.573	29.51
844.745	28.58
844.918	24.32
845.09	23.19
845.262	21.77
845.434	19.38
845.606	17.57
845.779	17.41
845.951	15.79
846.123	18.24
846.295	18.23
846.467	18.96
846.639	21.5
846.811	26.36
846.983	26.22
847.155	32.74
847.327	34.94
847.499	35.27
847.671	36.99
847.843	38.42
848.015	39.44
848.187	38.88
848.359	39.11
848.531	37.52
848.703	36.32
848.875	37.22
849.047	33.04
849.218	35.71
849.39	36.24
849.562	36.31
849.734	31.26
849.905	32.2
850.077	32.93
850.249	31.89
850.421	34.7
850.592	34.18
850.764	33.8
850.936	36.18
851.107	33.51
851.279	30.01
851.451	32.97
851.622	40.45
851.794	39.53
851.965	39.01
852.137	41.01
852.308	39.14
852.48	42.1
852.651	39.94
852.823	41.34
852.994	39.6
853.166	41.05
853.337	39.72
853.509	37.68
853.68	36.02
853.851	35.45
854.023	32.13
854.194	34.1
854.365	36.74
854.537	37.58
854.708	39.02
854.879	41.16
855.05	44.33
855.222	40.83
855.393	42.4
855.564	44.01
855.735	45.36
855.906	48.36
856.078	48.99
856.249	43.21
856.42	46.47
856.591	44.25
856.762	43.74
856.933	43.04
857.104	46.55
857.275	47.57
857.446	44.95
857.617	41.06
857.788	41.54
857.959	42.31
858.13	43.71
858.301	37.1
858.472	32.54
858.643	33.2
858.814	30.77
858.985	28.33
859.155	24.4
859.326	27.84
859.497	32.5
859.668	28.64
859.839	25.06
860.009	22.31
860.18	29.95
860.351	31.92
860.522	32.43
860.692	28.46
860.863	28.08
861.034	27.96
861.204	25.23
861.375	22.1
861.546	30.85
861.716	32.58
861.887	35.61
862.057	31.46
862.228	32.16
862.398	32.7
862.569	37.47
862.739	40.72
862.91	42.21
863.08	44.27
863.251	44.53
863.421	38.77
863.592	36.92
863.762	33.95
863.932	34.65
864.103	31.58
864.273	31.14
864.443	34.77
864.614	33.85
864.784	32.69
864.954	31.52
865.125	32.45
865.295	34.08
865.465	35.83
865.635	34.56
865.805	36.18
865.976	39.91
866.146	38.69
866.316	36.61
866.486	39.45
866.656	37.47
866.826	29.91
866.996	29.82
867.166	30.96
867.336	30.95
867.506	33.53
867.676	31.13
867.846	27.41
868.016	23.76
868.186	21.83
868.356	17.81
868.526	17.04
868.696	27.42
868.866	25.15
869.036	23.91
869.206	24.96
869.376	23.65
869.545	27.52
869.715	28.56
869.885	36.05
870.055	34.03
870.224	33.56
870.394	37.19
870.564	35.11
870.734	34.51
870.903	33.75
871.073	29.89
871.243	32
871.412	30.47
871.582	34.29
871.751	28.75
871.921	29.33
872.091	29.91
872.26	28.71
872.43	28
872.599	28.72
872.769	28.04
872.938	28.43
873.108	26.79
873.277	23.72
873.446	21.71
873.616	23.8
873.785	25.76
873.955	28.21
874.124	28.55
874.293	29.3
874.463	28.62
874.632	26.36
874.801	26.6
874.971	25.47
875.14	29.97
875.309	26.5
875.478	25.18
875.647	28.08
875.817	22.46
875.986	22.22
876.155	21.75
876.324	20
876.493	23.23
876.662	25.43
876.831	24.87
877	23
877.17	25.76
877.339	27.86
877.508	25.15
877.677	27.87
877.846	27.76
878.015	27.42
878.184	32.14
878.352	28.22
878.521	26.41
878.69	28.59
878.859	29.72
879.028	29.95
879.197	31.42
879.366	31.61
879.534	29.13
879.703	28.93
879.872	26.54
880.041	23.33
880.21	26.22
880.378	26.41
880.547	25.15
880.716	22.69
880.884	23.37
881.053	21.89
881.222	20.97
881.39	20.63
881.559	19.76
881.727	20.02
881.896	20.3
882.065	18.96
882.233	19.34
882.402	19.51
882.57	19.59
882.739	19.01
882.907	18.92
883.076	18.33
883.244	18.08
883.412	18.35
883.581	18.24
883.749	18.09
883.918	18.74
884.086	17.64
884.254	16.77
884.423	17.4
884.591	16.78
884.759	16.3
884.927	16.05
885.096	15.32
885.264	14.8
885.432	15.79
885.6	16.21
885.769	16.52
885.937	15.25
886.105	19.34
886.273	16.49
886.441	19.44
886.609	21.15
886.777	23.08
886.945	21.52
887.113	19.28
887.281	16.71
887.449	16.82
887.617	15.6
887.785	17.08
887.953	15.49
888.121	18.24
888.289	13.39
888.457	11.21
888.625	13.41
888.793	20.78
888.961	29.85
889.129	28.51
889.296	23.44
889.464	23.89
889.632	25.5
889.8	20.77
889.967	20.29
890.135	25.98
