Data from 2938710__Reflection_02.txt Node
Date: Tue Mar 17 19:31:40 EDT 2015
User: robert
Spectrometer: USB4E03002
Autoset integration time: false
Trigger mode: 4
Integration Time (sec): 1.000000E-1
Scans to average: 10
Electric dark correction enabled: false
Nonlinearity correction enabled: false
Boxcar width: 5
Stray light correction enabled: false
XAxis mode: Wavelengths
Stop averaging: false
Number of Pixels in Spectrum: 3648
>>>>>Begin Spectral Data<<<<<
177.575	98.16
177.794	94.17
178.014	80.61
178.233	55.38
178.452	39.44
178.672	44.82
178.891	31.83
179.11	6.09
179.33	-3.48
179.549	16.46
179.768	-9.88
179.987	14.76
180.207	578.26
180.426	67.09
180.645	86.85
180.864	58.85
181.084	41.36
181.303	42.94
181.522	43.61
181.741	58.59
181.96	52.61
182.179	50.43
182.398	50.12
182.618	40.13
182.837	37.68
183.056	20.34
183.275	42.98
183.494	68.9
183.713	57.48
183.932	75.36
184.151	87.12
184.37	51.29
184.589	42.67
184.808	12.64
185.027	17.48
185.246	-24.05
185.465	-161.59
185.684	-137.78
185.903	-25.62
186.122	-62.72
186.341	-175.45
186.56	-155.93
186.779	-99.04
186.998	-203.3
187.216	-152.12
187.435	-165.08
187.654	-93.22
187.873	-16.57
188.092	-20.5
188.311	-248.68
188.53	20.45
188.748	82.94
188.967	103.2
189.186	101.63
189.405	116.39
189.623	114.04
189.842	159.16
190.061	240.24
190.28	147.21
190.498	255.56
190.717	146.53
190.936	160.66
191.154	690.91
191.373	-308.47
191.592	156.2
191.81	440
192.029	290.91
192.248	-3366.67
192.466	268.42
192.685	137.6
192.904	398.61
193.122	347.69
193.341	1150
193.559	-6366.67
193.778	-1833.33
193.996	664.15
194.215	511.11
194.433	216.56
194.652	192.19
194.87	12
195.089	80.37
195.307	177.22
195.526	387.1
195.744	1015.38
195.963	302.15
196.181	489.47
196.399	299
196.618	954.55
196.836	152.53
197.055	119.31
197.273	165.59
197.491	111.84
197.71	139.39
197.928	123.84
198.146	97.69
198.365	91.41
198.583	91.96
198.801	96.76
199.019	97.71
199.238	107.03
199.456	93.44
199.674	86.21
199.892	90.3
200.111	35.54
200.329	72.48
200.547	63.22
200.765	110.53
200.983	-145.45
201.202	166.07
201.42	84.06
201.638	138.12
201.856	92.33
202.074	76.12
202.292	30.07
202.51	4.03
202.728	50.68
202.946	-27.1
203.165	297.22
203.383	500
203.601	148.75
203.819	352.87
204.037	-640.54
204.255	805.13
204.473	-552
204.691	-543.48
204.909	-211.71
205.127	-146.39
205.345	-461.39
205.562	746.67
205.78	-218.32
205.998	-18.51
206.216	-0.55
206.434	-19.33
206.652	6.99
206.87	-1.56
207.088	-19.89
207.306	-11.71
207.523	-11.8
207.741	-5.02
207.959	-14.74
208.177	-5.67
208.395	-22.97
208.612	-21.99
208.83	-8.59
209.048	-21.8
209.266	-75
209.483	-53.39
209.701	-100.98
209.919	-267.44
210.136	-223.3
210.354	-604.55
210.572	-116.95
210.79	2172.73
211.007	-187.85
211.225	-43.93
211.442	-4.32
211.66	5.78
211.878	18.23
212.095	-78.84
212.313	-74.96
212.53	-126.22
212.748	-124.65
212.966	-156.78
213.183	-124.59
213.401	-111.22
213.618	-111.8
213.836	-108.74
214.053	-167.14
214.271	-179.74
214.488	-18.02
214.705	-13.85
214.923	6.46
215.14	-5.14
215.358	1.66
215.575	-6.23
215.793	-18.28
216.01	-30.99
216.227	-36.18
216.445	-6.27
216.662	17.27
216.879	8.09
217.097	27.66
217.314	29.75
217.531	10.71
217.749	27.09
217.966	33.82
218.183	17.2
218.4	25.4
218.618	13.41
218.835	-9.13
219.052	-15.65
219.269	-23.45
219.487	-11.99
219.704	-10.85
219.921	-6.75
220.138	-14.25
220.355	-23.26
220.572	-14.27
220.79	1.34
221.007	8.14
221.224	22.05
221.441	17.11
221.658	14.35
221.875	6.37
222.092	12.07
222.309	8.16
222.526	7.86
222.743	12.73
222.96	10.75
223.177	2.76
223.394	2.25
223.611	-0.95
223.828	4.05
224.045	4.27
224.262	1.74
224.479	-3.31
224.696	3
224.913	0.34
225.13	-2.33
225.347	-5.72
225.564	-3.22
225.781	-5.99
225.997	-3.64
226.214	-6.1
226.431	-8.17
226.648	-9.22
226.865	-7
227.082	-8.29
227.298	-5.72
227.515	-3.52
227.732	-0.68
227.949	-0.57
228.165	0.06
228.382	-0.89
228.599	-0.29
228.816	1.07
229.032	1.34
229.249	1.17
229.466	2.12
229.682	1.67
229.899	1.66
230.116	1.71
230.332	1.47
230.549	1.19
230.765	1.91
230.982	1.74
231.199	0.86
231.415	1.01
231.632	1.33
231.848	0.15
232.065	-0.79
232.281	-2.5
232.498	-3.74
232.714	-3.12
232.931	-2.84
233.147	-4.58
233.364	-5.63
233.58	-4.97
233.797	-3.43
234.013	-4.48
234.23	-2.31
234.446	-0.22
234.662	0.66
234.879	1.79
235.095	1.83
235.312	3.78
235.528	6.2
235.744	7.62
235.961	5.53
236.177	4.12
236.393	4.36
236.61	3.21
236.826	-0.34
237.042	-0.3
237.258	-0.25
237.475	-2.04
237.691	-3.83
237.907	-3.43
238.123	-1.97
238.339	-0.55
238.556	2.95
238.772	3.35
238.988	4.49
239.204	4.68
239.42	5.89
239.636	6.17
239.853	7.57
240.069	7.78
240.285	6.7
240.501	5.77
240.717	5.73
240.933	5.71
241.149	5.29
241.365	4.78
241.581	5.54
241.797	5.7
242.013	5.21
242.229	4.48
242.445	4.71
242.661	5.05
242.877	4.68
243.093	4.92
243.309	4.03
243.525	4.24
243.741	4.16
243.957	4.57
244.173	3.82
244.388	4.11
244.604	4.59
244.82	4.51
245.036	4.32
245.252	4.92
245.468	4.77
245.683	5.1
245.899	5.03
246.115	5.41
246.331	5.35
246.547	5.23
246.762	4.74
246.978	4.88
247.194	4.98
247.409	4.88
247.625	4.89
247.841	4.85
248.057	4.83
248.272	4.67
248.488	4.22
248.703	4.08
248.919	4.47
249.135	5.22
249.35	4.97
249.566	3.98
249.782	3.81
249.997	3.32
250.213	3.16
250.428	3.17
250.644	3.1
250.859	3.27
251.075	2.99
251.29	1.99
251.506	1.57
251.721	2.11
251.937	2.97
252.152	3.32
252.368	3.17
252.583	3.35
252.798	3.17
253.014	3.17
253.229	2.85
253.445	2.68
253.66	2.64
253.875	2.55
254.091	2.05
254.306	1.25
254.521	0.78
254.737	0.95
254.952	1.12
255.167	-0.05
255.383	-0.22
255.598	-0.03
255.813	-0.13
256.028	0.03
256.244	-0.25
256.459	-0.78
256.674	-0.75
256.889	-0.89
257.104	-0.81
257.32	-0.7
257.535	0.57
257.75	1.42
257.965	1.56
258.18	1.94
258.395	2.06
258.61	2.44
258.826	2.73
259.041	2.95
259.256	3.17
259.471	3.14
259.686	3.09
259.901	2.89
260.116	2.64
260.331	2.87
260.546	2.83
260.761	3.13
260.976	2.91
261.191	2.82
261.406	2.8
261.621	2.65
261.836	2.66
262.05	2.2
262.265	1.79
262.48	1.94
262.695	1.85
262.91	1.81
263.125	1.09
263.34	1.12
263.555	1.46
263.769	0.78
263.984	0.23
264.199	0.11
264.414	1.16
264.629	1.93
264.843	2.15
265.058	2.14
265.273	2.72
265.488	3.17
265.702	3.48
265.917	3.71
266.132	4.94
266.346	4.87
266.561	5.11
266.776	4.68
266.99	4.68
267.205	4.54
267.42	4.08
267.634	3.45
267.849	3.31
268.063	3.13
268.278	2.74
268.492	2.02
268.707	2.57
268.922	2.13
269.136	2.1
269.351	1.97
269.565	2.15
269.78	2.06
269.994	1.99
270.209	1.55
270.423	1.34
270.637	1.43
270.852	1.83
271.066	1.93
271.281	2.25
271.495	2.22
271.709	1.99
271.924	1.78
272.138	2.2
272.353	2.36
272.567	2.77
272.781	2.89
272.996	2.82
273.21	3.14
273.424	2.95
273.638	3.15
273.853	3.15
274.067	3.09
274.281	3.21
274.495	2.69
274.71	2.47
274.924	2.43
275.138	1.91
275.352	2.15
275.566	1.64
275.781	1.16
275.995	0.91
276.209	0.56
276.423	1.14
276.637	1.14
276.851	1.57
277.065	2.04
277.279	2.46
277.493	2.54
277.707	2.08
277.921	2.04
278.135	2.82
278.349	2.72
278.563	3.34
278.777	2.69
278.991	2.59
279.205	2.01
279.419	1.42
279.633	0.63
279.847	1.3
280.061	1.85
280.275	1.5
280.489	1.3
280.703	1.37
280.917	1.09
281.131	1.59
281.344	1.46
281.558	1.4
281.772	1.98
281.986	2.11
282.2	1.59
282.414	1.66
282.627	2.02
282.841	1.54
283.055	1.71
283.269	2.04
283.482	1.67
283.696	1.92
283.91	2.34
284.123	2.22
284.337	2.35
284.551	2.48
284.764	2.24
284.978	1.97
285.192	2.61
285.405	2.47
285.619	2.2
285.833	2.54
286.046	2.69
286.26	2.77
286.473	3.04
286.687	2.79
286.9	3.26
287.114	3.16
287.327	3.44
287.541	2.78
287.754	2.86
287.968	3.03
288.181	2.76
288.395	2.7
288.608	2.5
288.822	2.48
289.035	3
289.248	2.68
289.462	3.25
289.675	3.17
289.889	3.75
290.102	3.54
290.315	3.43
290.529	3.42
290.742	3.06
290.955	3.16
291.169	2.69
291.382	2.28
291.595	2.13
291.808	1.57
292.022	1.36
292.235	1.6
292.448	1.77
292.661	2.23
292.875	2.56
293.088	2.87
293.301	2.92
293.514	3.02
293.727	2.94
293.94	3.32
294.153	3.32
294.367	3.44
294.58	3.09
294.793	3.15
295.006	3.2
295.219	2.76
295.432	2.5
295.645	2.68
295.858	2.9
296.071	3.21
296.284	3.3
296.497	3.46
296.71	3.56
296.923	3.45
297.136	3.39
297.349	3.32
297.562	3.69
297.775	4.09
297.988	4.17
298.201	4.29
298.414	4.33
298.626	4.26
298.839	4.31
299.052	4.24
299.265	4.44
299.478	4.64
299.691	4.9
299.903	4.89
300.116	4.7
300.329	4.52
300.542	4.39
300.755	4.02
300.967	3.57
301.18	3.65
301.393	4.06
301.605	4
301.818	4.04
302.031	3.56
302.243	3.67
302.456	3.63
302.669	3.81
302.881	4.09
303.094	4.41
303.307	4.68
303.519	4.59
303.732	4.21
303.944	4.16
304.157	4.4
304.37	4.74
304.582	4.86
304.795	5.32
305.007	5.31
305.22	4.96
305.432	4.79
305.645	5.32
305.857	5.46
306.069	5.89
306.282	5.76
306.494	5.39
306.707	5.28
306.919	5.11
307.132	5
307.344	4.66
307.556	5.09
307.769	5.6
307.981	5.43
308.193	5.35
308.406	5.45
308.618	5.9
308.83	6.1
309.043	5.93
309.255	5.92
309.467	5.77
309.679	5.95
309.892	5.98
310.104	5.67
310.316	5.66
310.528	5.56
310.74	5.47
310.953	5.41
311.165	5.29
311.377	5.26
311.589	5.31
311.801	5.11
312.013	5.14
312.225	4.94
312.437	4.74
312.649	4.67
312.862	4.68
313.074	4.54
313.286	4.74
313.498	4.7
313.71	4.96
313.922	4.9
314.134	5
314.346	5.19
314.558	4.98
314.77	5.53
314.982	5.36
315.193	5.75
315.405	6.01
315.617	5.61
315.829	5.5
316.041	5.07
316.253	5.38
316.465	5.55
316.677	5.77
316.888	5.75
317.1	5.89
317.312	6
317.524	5.73
317.736	5.4
317.947	5.52
318.159	5.82
318.371	6.44
318.583	5.94
318.794	5.92
319.006	5.42
319.218	5.52
319.43	5.66
319.641	5.58
319.853	5.77
320.064	6.38
320.276	6.34
320.488	6.27
320.699	6
320.911	6.45
321.123	6.71
321.334	7.23
321.546	7.42
321.757	6.74
321.969	7.13
322.18	7.13
322.392	6.46
322.603	6.59
322.815	6.8
323.026	6.88
323.238	6.71
323.449	6.56
323.661	6.45
323.872	6.56
324.083	7.01
324.295	7.02
324.506	7.37
324.718	7.61
324.929	7.57
325.14	7.57
325.352	8.18
325.563	8.2
325.774	8.05
325.986	7.93
326.197	7.83
326.408	7.7
326.62	8.05
326.831	7.57
327.042	7.83
327.253	7.95
327.464	7.87
327.676	7.32
327.887	7.65
328.098	7.76
328.309	7.74
328.52	7.73
328.732	7.6
328.943	7.47
329.154	8
329.365	7.84
329.576	7.95
329.787	7.95
329.998	8.05
330.209	7.98
330.42	8.4
330.631	8.57
330.842	8.72
331.053	8.69
331.264	8.25
331.475	7.99
331.686	7.87
331.897	7.49
332.108	8.11
332.319	8.23
332.53	8.11
332.741	7.69
332.952	7.79
333.163	8.33
333.374	8.78
333.585	9.15
333.795	9.16
334.006	9.34
334.217	9.85
334.428	9.78
334.639	9.98
334.849	10.19
335.06	10.1
335.271	10.09
335.482	9.92
335.692	9.95
335.903	9.96
336.114	10.06
336.325	10.14
336.535	9.89
336.746	9.56
336.957	9.55
337.167	9.38
337.378	9.95
337.589	9.84
337.799	9.73
338.01	10.13
338.22	10.28
338.431	10.36
338.642	10.22
338.852	10.33
339.063	10.41
339.273	9.95
339.484	9.75
339.694	9.42
339.905	9.36
340.115	9.24
340.326	8.86
340.536	8.45
340.746	7.86
340.957	7.91
341.167	7.93
341.378	7.95
341.588	8.12
341.799	8.58
342.009	8.68
342.219	8.78
342.43	8.99
342.64	8.68
342.85	8.78
343.061	9.14
343.271	8.95
343.481	8.87
343.691	8.81
343.902	8.67
344.112	8.65
344.322	8.42
344.532	8.45
344.743	8.12
344.953	8.17
345.163	8.18
345.373	8.05
345.583	8.01
345.793	8.09
346.004	8.1
346.214	8.29
346.424	8.05
346.634	8.3
346.844	8.09
347.054	7.92
347.264	8.23
347.474	8.08
347.684	8.51
347.894	8.54
348.104	8.58
348.314	8.17
348.524	8.33
348.734	8.26
348.944	8.17
349.154	8.41
349.364	8.76
349.574	8.5
349.784	8.52
349.994	8.19
350.204	8.05
350.413	7.97
350.623	8.19
350.833	7.84
351.043	7.82
351.253	7.73
351.463	7.71
351.672	7.54
351.882	7.63
352.092	7.54
352.302	7.62
352.511	8.12
352.721	7.98
352.931	8.05
353.141	8.23
353.35	8.17
353.56	8.26
353.77	7.63
353.979	7.88
354.189	8.07
354.399	8.07
354.608	8.12
354.818	8.23
355.027	8.47
355.237	8.34
355.447	8.44
355.656	8.32
355.866	8.13
356.075	8.56
356.285	8.38
356.494	8.09
356.704	8.33
356.913	8.53
357.123	8.28
357.332	7.9
357.542	8.08
357.751	7.84
357.96	8.1
358.17	8.07
358.379	8.09
358.589	8.17
358.798	8.16
359.007	8.18
359.217	7.94
359.426	7.75
359.635	8.1
359.845	8.09
360.054	8.24
360.263	8.32
360.472	8.43
360.682	8.62
360.891	8.71
361.1	8.74
361.309	8.71
361.519	8.56
361.728	8.57
361.937	8.48
362.146	8.52
362.355	8.35
362.564	8.24
362.774	8.22
362.983	8.16
363.192	8.03
363.401	8.11
363.61	8.02
363.819	8.21
364.028	8.17
364.237	8.02
364.446	7.85
364.655	7.83
364.864	7.61
365.073	7.54
365.282	7.53
365.491	7.41
365.7	7.24
365.909	7.2
366.118	7.14
366.327	7.01
366.536	7.19
366.745	7.28
366.954	7.46
367.162	7.55
367.371	7.45
367.58	7.22
367.789	7.09
367.998	7.01
368.207	6.78
368.415	7.06
368.624	7.27
368.833	7.1
369.042	6.99
369.25	7
369.459	6.86
369.668	7.16
369.877	7.2
370.085	7.4
370.294	7.64
370.503	7.73
370.711	7.35
370.92	7.31
371.129	7.44
371.337	7.23
371.546	6.99
371.754	7.12
371.963	6.93
372.171	6.85
372.38	6.75
372.589	6.65
372.797	6.65
373.006	6.47
373.214	6.38
373.423	6.45
373.631	6.46
373.84	6.42
374.048	6.5
374.256	6.42
374.465	6.46
374.673	6.42
374.882	6.21
375.09	6.04
375.298	6.19
375.507	6.21
375.715	5.98
375.923	6.23
376.132	6.51
376.34	6.14
376.548	6.3
376.757	6.27
376.965	6.19
377.173	6.13
377.381	6.35
377.59	6.39
377.798	6.43
378.006	6.36
378.214	6.32
378.423	5.96
378.631	6.19
378.839	6.13
379.047	6.17
379.255	6.26
379.463	6.36
379.671	6.22
379.879	6.01
380.088	5.84
380.296	5.88
380.504	5.53
380.712	5.6
380.92	5.49
381.128	5.4
381.336	5.35
381.544	5.14
381.752	4.92
381.96	5.11
382.168	5.32
382.376	5.54
382.584	5.56
382.791	5.91
382.999	6.03
383.207	5.98
383.415	6.02
383.623	5.92
383.831	5.92
384.039	6.14
384.247	5.98
384.454	5.68
384.662	5.28
384.87	5.3
385.078	4.98
385.285	4.8
385.493	4.71
385.701	4.67
385.909	4.73
386.116	4.84
386.324	4.8
386.532	4.76
386.739	4.85
386.947	5.09
387.155	5.09
387.362	5.12
387.57	5.04
387.778	5.24
387.985	5.09
388.193	5.08
388.4	4.98
388.608	5.1
388.816	4.95
389.023	5.08
389.231	5.04
389.438	4.95
389.646	5.09
389.853	5.29
390.061	5.27
390.268	5.43
390.475	5.45
390.683	5.54
390.89	5.38
391.098	5.55
391.305	5.38
391.512	5.45
391.72	5.43
391.927	5.44
392.135	5.34
392.342	5.26
392.549	5.12
392.756	5.07
392.964	5.04
393.171	4.94
393.378	4.91
393.586	5.02
393.793	4.89
394	4.9
394.207	5.06
394.414	5.02
394.622	4.95
394.829	4.98
395.036	4.79
395.243	4.75
395.45	4.71
395.657	4.71
395.864	4.82
396.072	4.98
396.279	4.99
396.486	4.7
396.693	4.7
396.9	4.73
397.107	4.64
397.314	4.91
397.521	4.95
397.728	5.02
397.935	4.62
398.142	4.5
398.349	4.33
398.556	4.28
398.763	4.53
398.97	4.6
399.177	4.49
399.383	4.43
399.59	4.37
399.797	4.28
400.004	4.21
400.211	4.45
400.418	4.33
400.625	4.35
400.831	4.24
401.038	4.02
401.245	4.14
401.452	4.26
401.658	4.37
401.865	4.26
402.072	4.36
402.279	4.4
402.485	4.43
402.692	4.55
402.899	4.53
403.105	4.72
403.312	4.59
403.519	4.52
403.725	4.47
403.932	4.38
404.138	4.5
404.345	4.43
404.552	4.37
404.758	4.54
404.965	4.37
405.171	4.35
405.378	4.24
405.584	4.41
405.791	4.34
405.997	4.5
406.204	4.65
406.41	4.63
406.617	4.68
406.823	4.79
407.029	4.59
407.236	4.7
407.442	4.7
407.649	4.66
407.855	4.59
408.061	4.51
408.268	4.35
408.474	4.16
408.68	3.98
408.887	3.94
409.093	3.97
409.299	4.08
409.505	4.09
409.712	4.14
409.918	4.01
410.124	4.09
410.33	4.02
410.537	4.05
410.743	4.31
410.949	4.52
411.155	4.34
411.361	4.22
411.567	4.05
411.773	3.99
411.98	4
412.186	4.19
412.392	4.26
412.598	4.43
412.804	4.41
413.01	4.35
413.216	4.22
413.422	4.38
413.628	4.49
413.834	4.61
414.04	4.69
414.246	4.83
414.452	4.74
414.658	4.61
414.864	4.55
415.07	4.59
415.275	4.49
415.481	4.46
415.687	4.34
415.893	4.45
416.099	4.42
416.305	4.48
416.511	4.31
416.716	4.39
416.922	4.42
417.128	4.47
417.334	4.43
417.539	4.37
417.745	4.39
417.951	4.45
418.157	4.37
418.362	4.39
418.568	4.32
418.774	4.36
418.979	4.45
419.185	4.43
419.391	4.43
419.596	4.5
419.802	4.55
420.008	4.58
420.213	5.34
420.419	5.27
420.624	5.26
420.83	5.25
421.035	5.24
421.241	5.18
421.446	5.26
421.652	5.24
421.857	5.2
422.063	5.29
422.268	5.36
422.474	4.7
422.679	4.81
422.885	4.82
423.09	4.86
423.295	4.95
423.501	4.91
423.706	4.92
423.911	4.94
424.117	4.92
424.322	4.82
424.527	4.82
424.733	4.8
424.938	4.78
425.143	4.83
425.349	4.78
425.554	4.71
425.759	4.77
425.964	4.74
426.169	4.69
426.375	4.71
426.58	4.77
426.785	4.69
426.99	4.74
427.195	4.64
427.4	4.54
427.605	4.6
427.811	4.6
428.016	4.52
428.221	4.5
428.426	4.54
428.631	4.57
428.836	4.5
429.041	4.54
429.246	4.61
429.451	4.78
429.656	4.73
429.861	4.78
430.066	4.71
430.271	4.76
430.476	4.64
430.681	4.7
430.886	4.73
431.09	4.68
431.295	4.68
431.5	4.6
431.705	4.48
431.91	4.58
432.115	4.55
432.32	4.6
432.524	4.67
432.729	4.76
432.934	4.68
433.139	4.65
433.343	4.71
433.548	4.59
433.753	4.53
433.958	4.56
434.162	4.55
434.367	4.52
434.572	4.48
434.776	4.46
434.981	4.41
435.186	4.49
435.39	4.53
435.595	4.56
435.799	4.65
436.004	4.78
436.209	4.77
436.413	4.82
436.618	4.85
436.822	4.87
437.027	4.77
437.231	4.76
437.436	4.61
437.64	4.64
437.845	4.6
438.049	4.64
438.253	4.58
438.458	4.7
438.662	4.67
438.867	4.66
439.071	4.74
439.275	4.74
439.48	4.72
439.684	4.8
439.888	4.75
440.093	4.7
440.297	4.62
440.501	4.57
440.706	4.55
440.91	4.54
441.114	4.56
441.318	4.49
441.523	4.55
441.727	4.65
441.931	4.69
442.135	4.67
442.339	4.76
442.543	4.82
442.748	4.95
442.952	4.84
443.156	4.83
443.36	4.77
443.564	4.71
443.768	4.69
443.972	4.62
444.176	4.54
444.38	4.57
444.584	4.6
444.788	4.68
444.992	4.64
445.196	4.71
445.4	4.78
445.604	4.77
445.808	4.85
446.012	4.79
446.216	4.87
446.42	4.95
446.624	4.99
446.828	4.89
447.032	4.82
447.235	4.77
447.439	4.76
447.643	4.66
447.847	4.6
448.051	4.51
448.254	4.5
448.458	4.37
448.662	4.33
448.866	4.33
449.069	4.39
449.273	4.33
449.477	4.36
449.681	4.38
449.884	4.48
450.088	4.66
450.292	4.73
450.495	4.76
450.699	4.84
450.902	4.8
451.106	4.76
451.31	4.66
451.513	4.74
451.717	4.72
451.92	4.67
452.124	4.53
452.327	4.44
452.531	4.45
452.734	4.5
452.938	4.44
453.141	4.47
453.345	4.42
453.548	4.49
453.752	4.46
453.955	4.43
454.158	4.42
454.362	4.48
454.565	4.52
454.769	4.56
454.972	4.38
455.175	4.41
455.379	4.44
455.582	4.57
455.785	4.48
455.988	4.54
456.192	4.52
456.395	4.44
456.598	4.46
456.801	4.42
457.005	4.37
457.208	4.54
457.411	4.6
457.614	4.64
457.817	4.57
458.021	4.71
458.224	4.65
458.427	4.71
458.63	4.74
458.833	4.75
459.036	4.76
459.239	4.75
459.442	4.79
459.645	4.82
459.848	4.76
460.051	4.7
460.254	4.68
460.457	4.75
460.66	4.7
460.863	4.75
461.066	4.73
461.269	4.77
461.472	4.78
461.675	4.81
461.878	4.62
462.081	4.63
462.284	4.64
462.486	4.59
462.689	4.52
462.892	4.61
463.095	4.57
463.298	4.59
463.5	4.53
463.703	4.55
463.906	4.39
464.109	4.49
464.311	4.39
464.514	4.43
464.717	4.48
464.92	4.46
465.122	4.38
465.325	4.37
465.528	4.36
465.73	4.53
465.933	4.59
466.135	4.66
466.338	4.64
466.541	4.73
466.743	4.67
466.946	4.68
467.148	4.69
467.351	4.68
467.553	4.68
467.756	4.72
467.958	4.57
468.161	4.59
468.363	4.6
468.566	4.57
468.768	4.59
468.971	4.72
469.173	4.62
469.375	4.59
469.578	4.54
469.78	4.57
469.983	4.55
470.185	4.59
470.387	4.54
470.59	4.56
470.792	4.55
470.994	4.54
471.196	4.44
471.399	4.51
471.601	4.62
471.803	4.68
472.005	4.56
472.208	4.56
472.41	4.47
472.612	4.4
472.814	4.36
473.016	4.46
473.218	4.43
473.421	4.57
473.623	4.55
473.825	4.56
474.027	4.5
474.229	4.64
474.431	4.7
474.633	4.79
474.835	4.78
475.037	4.8
475.239	4.75
475.441	4.76
475.643	4.66
475.845	4.59
476.047	4.6
476.249	4.67
476.451	4.63
476.653	4.49
476.855	4.5
477.057	4.51
477.258	4.56
477.46	4.57
477.662	4.51
477.864	4.52
478.066	4.59
478.268	4.53
478.469	4.61
478.671	4.66
478.873	4.7
479.075	4.68
479.276	4.68
479.478	4.61
479.68	4.61
479.882	4.68
480.083	4.73
480.285	4.76
480.487	4.84
480.688	4.84
480.89	4.87
481.091	4.89
481.293	4.86
481.495	4.88
481.696	4.9
481.898	4.89
482.099	4.87
482.301	4.84
482.502	4.77
482.704	4.76
482.905	4.71
483.107	4.69
483.308	4.72
483.51	4.73
483.711	4.71
483.913	4.71
484.114	4.69
484.315	4.67
484.517	4.66
484.718	4.69
484.92	4.66
485.121	4.67
485.322	4.68
485.524	4.62
485.725	4.6
485.926	4.58
486.127	4.57
486.329	4.58
486.53	4.58
486.731	4.6
486.932	4.59
487.134	4.58
487.335	4.57
487.536	4.57
487.737	4.64
487.938	4.64
488.139	4.65
488.341	4.65
488.542	4.71
488.743	4.76
488.944	4.79
489.145	4.8
489.346	4.79
489.547	4.81
489.748	4.78
489.949	4.74
490.15	4.77
490.351	4.8
490.552	4.81
490.753	4.76
490.954	4.72
491.155	4.7
491.356	4.68
491.557	4.72
491.758	4.76
491.959	4.76
492.159	4.74
492.36	4.74
492.561	4.71
492.762	4.7
492.963	4.65
493.164	4.7
493.364	4.68
493.565	4.68
493.766	4.66
493.967	4.61
494.167	4.64
494.368	4.64
494.569	4.64
494.769	4.71
494.97	4.74
495.171	4.83
495.371	4.8
495.572	4.86
495.773	4.89
495.973	4.92
496.174	4.97
496.375	4.99
496.575	5.05
496.776	5.03
496.976	5
497.177	4.97
497.377	5.02
497.578	5.02
497.778	5.03
497.979	5.08
498.179	5.13
498.38	5.09
498.58	5.14
498.78	5.13
498.981	5.16
499.181	5.2
499.382	5.25
499.582	5.2
499.782	5.19
499.983	5.15
500.183	5.13
500.383	5.13
500.584	5.11
500.784	5.07
500.984	5.1
501.184	5.17
501.385	5.22
501.585	5.24
501.785	5.23
501.985	5.38
502.185	5.32
502.386	5.35
502.586	5.36
502.786	5.46
502.986	5.43
503.186	5.46
503.386	5.44
503.586	5.46
503.786	5.49
503.987	5.54
504.187	5.44
504.387	5.51
504.587	5.55
504.787	5.6
504.987	5.65
505.187	5.72
505.387	5.75
505.587	5.82
505.786	5.81
505.986	5.9
506.186	5.91
506.386	5.92
506.586	6.05
506.786	6.04
506.986	6.06
507.186	6.03
507.386	5.99
507.585	5.97
507.785	5.98
507.985	6.07
508.185	6.07
508.384	6.12
508.584	6.29
508.784	6.33
508.984	6.4
509.183	6.45
509.383	6.55
509.583	6.66
509.782	6.79
509.982	6.87
510.182	6.92
510.381	7
510.581	7.05
510.781	7.03
510.98	7.04
511.18	7.11
511.379	7.19
511.579	7.18
511.778	7.28
511.978	7.34
512.177	7.38
512.377	7.34
512.576	7.4
512.776	7.52
512.975	7.6
513.175	7.63
513.374	7.6
513.573	7.62
513.773	7.75
513.972	7.75
514.172	7.84
514.371	7.91
514.57	8.07
514.77	8.08
514.969	8.06
515.168	8.11
515.367	8.22
515.567	8.33
515.766	8.34
515.965	8.38
516.164	8.38
516.364	8.38
516.563	8.42
516.762	8.56
516.961	8.71
517.16	8.79
517.359	8.87
517.559	8.98
517.758	9.11
517.957	9.29
518.156	9.4
518.355	9.54
518.554	9.63
518.753	9.71
518.952	9.74
519.151	9.77
519.35	9.87
519.549	10
519.748	10.07
519.947	10.17
520.146	10.18
520.345	10.25
520.544	10.34
520.743	10.37
520.942	10.51
521.141	10.64
521.339	10.73
521.538	10.84
521.737	10.81
521.936	10.85
522.135	10.92
522.333	11.06
522.532	11.17
522.731	11.25
522.93	11.42
523.129	11.39
523.327	11.49
523.526	11.54
523.725	11.6
523.923	11.75
524.122	11.91
524.321	12.02
524.519	12.1
524.718	12.2
524.917	12.4
525.115	12.54
525.314	12.7
525.512	12.77
525.711	12.93
525.909	13.08
526.108	13.18
526.306	13.26
526.505	13.31
526.703	13.41
526.902	13.55
527.1	13.61
527.299	13.71
527.497	13.83
527.696	13.94
527.894	14.04
528.092	14.11
528.291	14.2
528.489	14.31
528.688	14.42
528.886	14.49
529.084	14.49
529.283	14.55
529.481	14.61
529.679	14.65
529.877	14.74
530.076	14.82
530.274	14.86
530.472	14.99
530.67	15.08
530.869	15.19
531.067	15.31
531.265	15.56
531.463	15.72
531.661	15.87
531.859	16.04
532.057	16.17
532.255	16.27
532.454	16.48
532.652	16.54
532.85	16.66
533.048	16.76
533.246	16.88
533.444	16.92
533.642	16.98
533.84	17.07
534.038	17.16
534.236	17.29
534.434	17.43
534.632	17.52
534.83	17.62
535.027	17.73
535.225	17.81
535.423	17.91
535.621	18.02
535.819	18.17
536.017	18.28
536.215	18.4
536.412	18.47
536.61	18.58
536.808	18.64
537.006	18.83
537.203	18.88
537.401	19.03
537.599	19.17
537.797	19.3
537.994	19.41
538.192	19.51
538.39	19.65
538.587	19.72
538.785	19.86
538.983	20.04
539.18	20.13
539.378	20.29
539.575	20.45
539.773	20.59
539.97	20.7
540.168	20.78
540.366	20.95
540.563	21.08
540.761	21.22
540.958	21.25
541.155	21.36
541.353	21.46
541.55	21.56
541.748	21.67
541.945	21.74
542.143	21.82
542.34	21.96
542.537	22.01
542.735	22.14
542.932	22.22
543.129	22.41
543.327	22.46
543.524	22.6
543.721	22.73
543.919	22.79
544.116	23
544.313	23.22
544.51	23.38
544.708	23.58
544.905	23.67
545.102	23.84
545.299	23.97
545.496	24.2
545.693	24.29
545.891	24.42
546.088	24.46
546.285	24.52
546.482	24.55
546.679	24.54
546.876	24.57
547.073	24.65
547.27	24.64
547.467	24.68
547.664	24.69
547.861	24.83
548.058	24.8
548.255	24.91
548.452	24.92
548.649	24.94
548.846	25.05
549.043	25.05
549.24	24.98
549.437	25.11
549.633	25.12
549.83	25.04
550.027	25.03
550.224	25.18
550.421	25.12
550.618	25.2
550.814	25.22
551.011	25.24
551.208	25.22
551.405	25.29
551.601	25.26
551.798	25.26
551.995	25.42
552.191	25.45
552.388	25.54
552.585	25.65
552.781	25.66
552.978	25.72
553.175	25.79
553.371	25.88
553.568	26.07
553.764	26.11
553.961	26.09
554.157	26.17
554.354	26.13
554.55	26.16
554.747	26.2
554.943	26.16
555.14	26.25
555.336	26.19
555.533	26.25
555.729	26.15
555.926	26.28
556.122	26.32
556.318	26.32
556.515	26.3
556.711	26.37
556.907	26.42
557.104	26.54
557.3	26.46
557.496	26.58
557.693	26.63
557.889	26.73
558.085	26.7
558.281	26.77
558.478	26.7
558.674	26.8
558.87	26.77
559.066	26.85
559.262	26.77
559.459	26.89
559.655	27
559.851	27.11
560.047	27.07
560.243	27.18
560.439	27.31
560.635	27.44
560.831	27.46
561.027	27.56
561.223	27.62
561.419	27.77
561.615	27.72
561.811	27.71
562.007	27.7
562.203	27.81
562.399	27.82
562.595	27.87
562.791	27.95
562.987	28.09
563.183	28.08
563.379	28.15
563.575	28.24
563.771	28.3
563.966	28.26
564.162	28.23
564.358	28.23
564.554	28.21
564.75	28.25
564.945	28.26
565.141	28.23
565.337	28.24
565.533	28.21
565.728	28.22
565.924	28.24
566.12	28.34
566.315	28.41
566.511	28.4
566.707	28.45
566.902	28.43
567.098	28.41
567.293	28.45
567.489	28.38
567.684	28.4
567.88	28.35
568.076	28.58
568.271	28.69
568.467	28.86
568.662	28.93
568.858	29.03
569.053	29.13
569.248	29.08
569.444	29.11
569.639	29.18
569.835	29.15
570.03	29.22
570.225	29.14
570.421	29.09
570.616	28.92
570.812	28.94
571.007	28.9
571.202	28.94
571.397	29.08
571.593	29.12
571.788	29.26
571.983	29.35
572.178	29.44
572.374	29.4
572.569	29.4
572.764	29.51
572.959	29.53
573.154	29.54
573.35	29.54
573.545	29.59
573.74	29.64
573.935	29.63
574.13	29.69
574.325	29.65
574.52	29.82
574.715	29.92
574.91	29.95
575.105	30.08
575.3	30.1
575.495	30.2
575.69	30.2
575.885	30.22
576.08	30.32
576.275	30.36
576.47	30.44
576.665	30.36
576.86	30.39
577.055	30.43
577.25	30.41
577.444	30.58
577.639	30.55
577.834	30.58
578.029	30.66
578.224	30.66
578.418	30.68
578.613	30.8
578.808	30.87
579.003	30.86
579.197	31.02
579.392	31.03
579.587	30.96
579.781	30.99
579.976	31.05
580.171	31.04
580.365	30.94
580.56	30.87
580.755	30.83
580.949	30.99
581.144	31.07
581.338	30.98
581.533	31.15
581.727	31.25
581.922	31.34
582.116	31.4
582.311	31.46
582.505	31.59
582.7	31.69
582.894	31.65
583.089	31.52
583.283	31.52
583.478	31.5
583.672	31.31
583.866	31.25
584.061	31.33
584.255	31.39
584.449	31.43
584.644	31.38
584.838	31.56
585.032	31.71
585.226	31.83
585.421	31.86
585.615	32.03
585.809	32.23
586.003	32.5
586.198	32.46
586.392	32.34
586.586	32.36
586.78	32.49
586.974	32.29
587.168	32.21
587.363	32.15
587.557	31.97
587.751	31.88
587.945	31.88
588.139	31.73
588.333	31.74
588.527	31.75
588.721	31.77
588.915	31.66
589.109	31.59
589.303	31.61
589.497	31.71
589.691	31.91
589.885	31.99
590.079	31.99
590.273	31.98
590.466	32
590.66	32.08
590.854	32.3
591.048	32.46
591.242	32.77
591.436	32.94
591.629	32.89
591.823	32.96
592.017	33.02
592.211	33.05
592.404	33.11
592.598	33.18
592.792	33.23
592.986	33.1
593.179	33.07
593.373	32.97
593.567	32.84
593.76	32.8
593.954	32.74
594.147	32.59
594.341	32.51
594.535	32.43
594.728	32.35
594.922	32.34
595.115	32.25
595.309	32.18
595.502	32.24
595.696	32.23
595.889	32.35
596.083	32.52
596.276	32.63
596.47	32.77
596.663	32.79
596.856	32.83
597.05	32.79
597.243	32.87
597.437	32.91
597.63	33
597.823	33.17
598.017	33.12
598.21	32.89
598.403	33
598.596	33
598.79	33.1
598.983	33.24
599.176	33.32
599.369	33.31
599.563	33.49
599.756	33.38
599.949	33.19
600.142	33.2
600.335	33.31
600.528	33.11
600.722	32.99
600.915	32.85
601.108	32.82
601.301	32.87
601.494	32.88
601.687	32.54
601.88	32.68
602.073	32.76
602.266	32.79
602.459	32.91
602.652	32.97
602.845	33.04
603.038	33.15
603.231	33.18
603.424	33.2
603.617	33.14
603.809	33.44
604.002	33.33
604.195	33.36
604.388	33.36
604.581	33.27
604.774	33.32
604.966	33.22
605.159	33.25
605.352	33.18
605.545	33.2
605.737	33.28
605.93	33.19
606.123	33.34
606.316	33.38
606.508	33.35
606.701	33.49
606.894	33.61
607.086	33.76
607.279	33.78
607.471	33.93
607.664	34.04
607.857	34.11
608.049	34.21
608.242	34.39
608.434	34.79
608.627	35.41
608.819	35.86
609.012	36.38
609.204	37.01
609.397	37.6
609.589	38.2
609.782	38.82
609.974	39.64
610.166	40.53
610.359	41.37
610.551	42.05
610.743	42.63
610.936	43.18
611.128	43.64
611.32	43.97
611.513	44.23
611.705	44.36
611.897	44.42
612.09	44.21
612.282	43.82
612.474	43.26
612.666	42.72
612.858	42.23
613.051	41.8
613.243	41.12
613.435	40.76
613.627	40.52
613.819	40.17
614.011	39.81
614.203	39.46
614.395	39.17
614.588	38.82
614.78	38.47
614.972	38.02
615.164	37.62
615.356	37.45
615.548	37.17
615.74	36.95
615.932	36.53
616.124	36.22
616.315	36.18
616.507	36.12
616.699	36.11
616.891	36.11
617.083	36.03
617.275	35.78
617.467	35.67
617.659	35.48
617.85	35.2
618.042	35.19
618.234	35.09
618.426	34.84
618.618	34.64
618.809	34.43
619.001	34.34
619.193	34.48
619.384	34.53
619.576	34.29
619.768	34.12
619.959	34.13
620.151	34.33
620.343	34.43
620.534	34.6
620.726	34.33
620.917	34.39
621.109	34.32
621.301	34.25
621.492	34.29
621.684	34.46
621.875	34.7
622.067	34.77
622.258	34.74
622.45	34.75
622.641	34.71
622.832	35.02
623.024	35.17
623.215	35.2
623.407	35.17
623.598	35.23
623.789	35.22
623.981	35.05
624.172	35.12
624.363	35.17
624.555	35.23
624.746	35.14
624.937	35.15
625.129	35.16
625.32	35.18
625.511	35.23
625.702	35.15
625.893	35.24
626.085	35.35
626.276	35.38
626.467	35.21
626.658	35.11
626.849	35.13
627.04	35.24
627.231	35.16
627.422	35.26
627.614	35.3
627.805	35.45
627.996	35.55
628.187	35.48
628.378	35.6
628.569	35.74
628.76	35.72
628.951	35.89
629.142	35.93
629.332	36.02
629.523	36.02
629.714	35.95
629.905	36.1
630.096	36.02
630.287	36.16
630.478	36.1
630.669	36.07
630.859	36.17
631.05	36.05
631.241	35.92
631.432	35.71
631.623	35.65
631.813	35.49
632.004	35.17
632.195	35.17
632.385	35.07
632.576	34.86
632.767	34.8
632.957	34.77
633.148	34.64
633.339	34.61
633.529	34.61
633.72	34.53
633.91	34.61
634.101	34.62
634.292	34.56
634.482	34.48
634.673	34.41
634.863	34.35
635.054	34.26
635.244	34.37
635.435	34.1
635.625	34.17
635.815	34.18
636.006	34.08
636.196	33.98
636.387	34.08
636.577	34.16
636.767	34.36
636.958	34.36
637.148	34.18
637.338	34.09
637.529	34.42
637.719	34.49
637.909	34.42
638.099	34.5
638.29	34.44
638.48	34.21
638.67	34.25
638.86	34.04
639.05	33.89
639.241	33.96
639.431	33.88
639.621	33.81
639.811	33.79
640.001	33.84
640.191	33.81
640.381	33.89
640.571	33.95
640.761	33.89
640.951	33.95
641.141	33.96
641.331	34.22
641.521	34.18
641.711	34.21
641.901	33.98
642.091	34.12
642.281	34.11
642.471	34.11
642.661	34.11
642.851	34.21
643.041	34.34
643.231	34.49
643.42	34.52
643.61	34.73
643.8	34.55
643.99	34.58
644.18	34.45
644.369	34.46
644.559	34.51
644.749	34.65
644.939	34.69
645.128	34.52
645.318	34.38
645.508	34.31
645.697	34.26
645.887	34.31
646.076	34.33
646.266	34.2
646.456	34.21
646.645	34.19
646.835	34.02
647.024	33.87
647.214	33.96
647.403	34.37
647.593	34.11
647.782	34.22
647.972	34.32
648.161	34.6
648.351	35.06
648.54	35.2
648.73	35.27
648.919	35.29
649.108	35.2
649.298	35.2
649.487	35.06
649.677	35.45
649.866	35.27
650.055	35.34
650.244	35.31
650.434	35.14
650.623	35.14
650.812	35.09
651.002	35.14
651.191	35.38
651.38	35.42
651.569	35.39
651.758	35.03
651.947	35.31
652.137	35.38
652.326	35.17
652.515	35.12
652.704	35.03
652.893	35.07
653.082	35.15
653.271	35.08
653.46	35.05
653.649	35.18
653.838	35.43
654.027	35.42
654.216	35.45
654.405	35.41
654.594	35.29
654.783	35.52
654.972	35.6
655.161	35.55
655.35	35.57
655.539	35.48
655.728	35.07
655.916	34.9
656.105	34.81
656.294	34.63
656.483	34.91
656.672	34.91
656.86	34.54
657.049	34.45
657.238	34.43
657.427	34.48
657.615	34.66
657.804	34.93
657.993	35.03
658.181	35.05
658.37	35.06
658.559	35.05
658.747	35.2
658.936	35.23
659.125	35.41
659.313	35.54
659.502	35.33
659.69	35.11
659.879	35.02
660.067	35.07
660.256	35.15
660.444	35.17
660.633	35.17
660.821	35.01
661.01	35.14
661.198	35.02
661.387	34.95
661.575	35.3
661.763	35.64
661.952	35.58
662.14	35.59
662.328	35.46
662.517	35.28
662.705	35.17
662.893	35.42
663.082	35.61
663.27	35.59
663.458	35.57
663.646	35.45
663.834	35.17
664.023	35.35
664.211	35.33
664.399	35.27
664.587	35.56
664.775	35.38
664.963	35.09
665.152	34.99
665.34	35.16
665.528	35.13
665.716	34.88
665.904	35.16
666.092	35
666.28	34.97
666.468	35.03
666.656	35.06
666.844	35.33
667.032	35.68
667.22	35.53
667.408	35.21
667.596	35.14
667.784	35.39
667.971	35.22
668.159	35.3
668.347	35.51
668.535	35.47
668.723	35.24
668.911	35.37
669.098	35.19
669.286	35.26
669.474	35.35
669.662	35.36
669.849	35.52
670.037	35.56
670.225	35.7
670.413	35.6
670.6	35.51
670.788	35.52
670.976	35.17
671.163	35.34
671.351	35.35
671.538	35.25
671.726	35.07
671.913	34.79
672.101	34.74
672.289	34.7
672.476	34.78
672.664	34.85
672.851	34.86
673.039	35.17
673.226	34.99
673.413	35.07
673.601	35.17
673.788	35.18
673.976	35.2
674.163	35.23
674.35	35.24
674.538	35.08
674.725	35.14
674.912	35.14
675.1	35.07
675.287	35.21
675.474	35.06
675.662	35.09
675.849	35.31
676.036	35.48
676.223	35.44
676.411	35.31
676.598	35.22
676.785	34.96
676.972	34.95
677.159	34.87
677.346	34.71
677.533	34.98
677.721	34.99
677.908	35.05
678.095	35.06
678.282	34.95
678.469	35.06
678.656	35.34
678.843	35.61
679.03	35.72
679.217	35.8
679.404	36.2
679.591	35.94
679.778	35.87
679.964	35.89
680.151	35.82
680.338	35.93
680.525	35.87
680.712	35.42
680.899	35.37
681.086	35.42
681.272	35.21
681.459	34.78
681.646	34.81
681.833	35
682.02	34.9
682.206	34.75
682.393	34.72
682.58	34.74
682.766	35.04
682.953	35.03
683.14	34.97
683.326	34.99
683.513	35.01
683.7	34.98
683.886	34.88
684.073	34.91
684.259	34.91
684.446	34.99
684.632	35.12
684.819	35.31
685.005	35.27
685.192	35.5
685.378	35.53
685.565	35.56
685.751	35.57
685.938	35.78
686.124	36.05
686.31	36.16
686.497	36.32
686.683	36.22
686.87	36.05
687.056	36
687.242	35.66
687.429	35.94
687.615	36.01
687.801	36.17
687.987	36.18
688.174	35.83
688.36	35.97
688.546	35.93
688.732	36.16
688.918	36.14
689.105	36.35
689.291	36.52
689.477	36.39
689.663	36.29
689.849	36.4
690.035	36.14
690.221	36.34
690.407	36.22
690.593	36.15
690.779	35.61
690.965	35.72
691.151	35.44
691.337	35.54
691.523	35.48
691.709	35.73
691.895	35.32
692.081	35.23
692.267	34.98
692.453	34.81
692.639	34.88
692.825	35.19
693.011	35.04
693.196	35.05
693.382	34.96
693.568	35.09
693.754	34.9
693.94	34.92
694.125	35.28
694.311	35.51
694.497	35.73
694.682	35.57
694.868	35.57
695.054	35.94
695.239	36.05
695.425	36.15
695.611	36.24
695.796	36.02
695.982	36.32
696.168	36.3
696.353	36.38
696.539	35.92
696.724	36.05
696.91	35.92
697.095	35.66
697.281	35.62
697.466	35.56
697.652	35.57
697.837	35.47
698.023	35.21
698.208	35.27
698.393	35.24
698.579	35.47
698.764	35.29
698.949	35.51
699.135	35.45
699.32	35.42
699.505	35.49
699.691	35.48
699.876	35.84
700.061	35.97
700.246	35.81
700.432	35.76
700.617	35.79
700.802	35.95
700.987	35.79
701.172	35.84
701.358	35.97
701.543	35.84
701.728	35.51
701.913	35.48
702.098	35.59
702.283	35.37
702.468	35.26
702.653	35.4
702.838	35.34
703.023	35.63
703.208	35.8
703.393	35.89
703.578	36.04
703.763	36.25
703.948	36.31
704.133	36.57
704.318	37
704.503	37.1
704.688	37.44
704.873	37.7
705.057	38.01
705.242	37.97
705.427	38.21
705.612	38.54
705.797	38.97
705.981	39.04
706.166	38.76
706.351	39.14
706.536	39.59
706.72	39.26
706.905	39.17
707.09	39.1
707.274	39.29
707.459	39.52
707.644	39.23
707.828	39.2
708.013	39.55
708.197	40.11
708.382	40.18
708.567	40.09
708.751	40.14
708.936	40.21
709.12	39.8
709.305	40.15
709.489	40.07
709.673	39.99
709.858	39.93
710.042	39.56
710.227	39.2
710.411	38.78
710.596	38.82
710.78	38.78
710.964	38.84
711.149	38.94
711.333	38.63
711.517	38.31
711.702	38.62
711.886	38.63
712.07	38.43
712.254	38.31
712.438	38.35
712.623	38.38
712.807	38.11
712.991	37.79
713.175	37.72
713.359	37.71
713.544	37.88
713.728	37.36
713.912	37.01
714.096	37.02
714.28	36.88
714.464	36.4
714.648	35.96
714.832	36.03
715.016	36.58
715.2	36.39
715.384	36.11
715.568	35.97
715.752	35.86
715.936	35.98
716.12	35.69
716.304	35.76
716.488	36.01
716.671	36.01
716.855	36.27
717.039	35.95
717.223	35.86
717.407	35.6
717.59	35.09
717.774	35.33
717.958	35.24
718.142	34.97
718.325	34.91
718.509	34.6
718.693	34.47
718.877	34.21
719.06	34.1
719.244	34.04
719.428	34.4
719.611	34.84
719.795	35.04
719.978	34.66
720.162	35.25
720.345	35.03
720.529	35.45
720.713	35.11
720.896	34.99
721.08	35.04
721.263	35.14
721.446	35.08
721.63	34.81
721.813	34.38
721.997	34.8
722.18	34.57
722.364	34.89
722.547	34.68
722.73	35.19
722.914	35.32
723.097	34.63
723.28	34.55
723.464	34.87
723.647	35.08
723.83	34.67
724.013	34.49
724.197	34.42
724.38	34.09
724.563	34.41
724.746	34.49
724.929	34.14
725.112	34.94
725.296	35.24
725.479	35.14
725.662	34.9
725.845	35.59
726.028	35.94
726.211	36.31
726.394	36.27
726.577	35.96
726.76	35.53
726.943	35.4
727.126	34.98
727.309	34.82
727.492	34.73
727.675	35.15
727.858	34.91
728.041	34.91
728.224	35.3
728.407	35.38
728.589	35.42
728.772	35.9
728.955	36.43
729.138	36.63
729.321	36.47
729.503	36.7
729.686	36.4
729.869	36.37
730.052	36.16
730.234	36.02
730.417	35.99
730.6	35.82
730.782	35.9
730.965	35.83
731.148	35.79
731.33	36.13
731.513	35.31
731.695	35.58
731.878	35.78
732.061	35.84
732.243	35.14
732.426	35.2
732.608	35.21
732.791	35.17
732.973	35.13
733.156	35.03
733.338	34.96
733.52	35.17
733.703	34.91
733.885	34.98
734.068	34.9
734.25	35.58
734.432	35.6
734.615	35.97
734.797	35.73
734.979	35.96
735.162	36.03
735.344	35.61
735.526	35.88
735.708	36.38
735.891	35.8
736.073	36
736.255	35.79
736.437	35.54
736.619	35.28
736.802	35.63
736.984	35.5
737.166	35.28
737.348	35.88
737.53	35.91
737.712	35.95
737.894	36.46
738.076	36.27
738.258	35.78
738.44	36.26
738.622	36.2
738.804	35.71
738.986	35.63
739.168	35.59
739.35	35.18
739.532	34.85
739.714	34.59
739.896	34.65
740.078	34.32
740.259	34.83
740.441	34.56
740.623	34.95
740.805	35.54
740.987	35.55
741.168	35.7
741.35	35.1
741.532	35.46
741.714	35.39
741.895	35.3
742.077	35.37
742.259	35.16
742.44	35.1
742.622	35.07
742.804	34.53
742.985	34.41
743.167	34.6
743.348	35.45
743.53	35.41
743.711	35.41
743.893	35.17
744.075	35.44
744.256	35.38
744.438	35.62
744.619	35.4
744.8	35.58
744.982	35.85
745.163	35.39
745.345	36.16
745.526	36.3
745.707	35.73
745.889	35.64
746.07	35.91
746.252	36.02
746.433	35.96
746.614	36.33
746.795	36.1
746.977	35.63
747.158	36.51
747.339	36.09
747.52	35.42
747.702	35.45
747.883	35.83
748.064	35.37
748.245	35.02
748.426	35.36
748.607	35.12
748.788	35
748.97	34.74
749.151	33.47
749.332	32.89
749.513	33.76
749.694	34.33
749.875	34.21
750.056	34.38
750.237	34.89
750.418	34.24
750.599	34
750.78	33.61
750.96	34.29
751.141	35
751.322	34.62
751.503	34.48
751.684	34.42
751.865	34.65
752.046	34.22
752.226	34.47
752.407	33.94
752.588	34.12
752.769	34.13
752.949	33.68
753.13	33.3
753.311	33.67
753.492	33.32
753.672	32.99
753.853	32.34
754.034	32.43
754.214	32.66
754.395	33.47
754.575	33.26
754.756	33.98
754.937	34.03
755.117	34.83
755.298	35.17
755.478	34.93
755.659	34.81
755.839	35.19
756.02	35.14
756.2	33.53
756.381	33.17
756.561	32.63
756.741	32.26
756.922	32.17
757.102	32.16
757.283	32.13
757.463	32.39
757.643	32.96
757.823	32.76
758.004	32.97
758.184	33.48
758.364	34.19
758.545	35.42
758.725	36
758.905	35.76
759.085	35.04
759.265	34.43
759.446	34.88
759.626	34.23
759.806	34.17
759.986	34.21
760.166	34.31
760.346	33.73
760.526	33
760.706	32.73
760.886	32.95
761.066	33.44
761.246	34.5
761.426	34.44
761.606	34.69
761.786	34.93
761.966	34.53
762.146	34.68
762.326	34.92
762.506	34.98
762.686	35
762.866	35.44
763.046	35.56
763.225	35.02
763.405	34.85
763.585	35.11
763.765	35.19
763.945	35.7
764.124	35.86
764.304	36.07
764.484	36.01
764.664	36.14
764.843	36.07
765.023	35.45
765.203	35.37
765.382	35.03
765.562	34.75
765.741	34.71
765.921	35.11
766.101	35.1
766.28	34.88
766.46	34.82
766.639	34.8
766.819	34.74
766.998	35.57
767.178	35.87
767.357	36.53
767.537	36.35
767.716	36.46
767.896	35.39
768.075	35.39
768.254	35.27
768.434	35.22
768.613	34.64
768.792	34.88
768.972	34.01
769.151	34.09
769.33	32.96
769.51	33.63
769.689	34.22
769.868	34.85
770.047	34.39
770.226	34.46
770.406	34.19
770.585	34.41
770.764	33.55
770.943	33.67
771.122	33.33
771.301	34.08
771.48	33.64
771.66	33.03
771.839	33.19
772.018	32.78
772.197	31.97
772.376	31.92
772.555	31.69
772.734	31.87
772.913	32.18
773.092	31.98
773.271	31.77
773.449	31.94
773.628	30.92
773.807	30.43
773.986	30.56
774.165	31.29
774.344	31.41
774.523	31.8
774.701	31.95
774.88	32.12
775.059	32.94
775.238	33.05
775.417	32.52
775.595	33.27
775.774	33.95
775.953	34.51
776.131	33.73
776.31	33.82
776.489	33.28
776.667	33.91
776.846	33.17
777.025	32.53
777.203	31.85
777.382	31.86
777.56	32.22
777.739	31.41
777.917	29.75
778.096	30.47
778.274	30.7
778.453	31.41
778.631	30.09
778.81	30.31
778.988	30.8
779.166	31.39
779.345	32.5
779.523	31.51
779.702	31.72
779.88	32.7
780.058	32.74
780.237	32.81
780.415	32.88
780.593	33.41
780.771	33.72
780.95	33.31
781.128	33.08
781.306	32.38
781.484	32.61
781.662	32.13
781.841	32.14
782.019	31.99
782.197	31.86
782.375	31.52
782.553	31.19
782.731	31.04
782.909	30.74
783.087	31.1
783.265	31
783.443	30.98
783.621	31.2
783.799	31.51
783.977	31.95
784.155	31.67
784.333	32.28
784.511	33.07
784.689	33.17
784.867	33.41
785.045	32.61
785.223	32.88
785.4	33.58
785.578	33.56
785.756	33.92
785.934	33.6
786.112	34.44
786.289	34.62
786.467	33.14
786.645	33.76
786.823	33.66
787	34.44
787.178	33.78
787.356	33.23
787.533	33.57
787.711	33.08
787.889	32.64
788.066	32.19
788.244	31.44
788.421	32.1
788.599	31.75
788.776	32.78
788.954	32.82
789.131	33.97
789.309	32.92
789.486	32.57
789.664	33.04
789.841	32.97
790.019	32.37
790.196	32.08
790.373	31.98
790.551	31.85
790.728	30.15
790.906	29.57
791.083	27.56
791.26	28.52
791.437	28.57
791.615	28.78
791.792	29.34
791.969	29.57
792.146	29.69
792.324	29.54
792.501	28.85
792.678	30.23
792.855	30.91
793.032	32.16
793.209	32.99
793.387	34.21
793.564	34.33
793.741	33.79
793.918	33.96
794.095	34.11
794.272	34.74
794.449	35.6
794.626	35.18
794.803	35.13
794.98	34.12
795.157	33.31
795.334	32.27
795.511	31.64
795.688	32.21
795.864	32.17
796.041	32.11
796.218	31.52
796.395	31.01
796.572	31.24
796.749	31.07
796.925	31.59
797.102	32.49
797.279	32.58
797.456	32.05
797.632	32.83
797.809	33.55
797.986	34.02
798.162	33.53
798.339	33.45
798.516	32.57
798.692	33.31
798.869	34.36
799.046	34.98
799.222	34.68
799.399	35.1
799.575	33.89
799.752	33.83
799.928	33.5
800.105	34.48
800.281	34.62
800.458	34.21
800.634	33.4
800.811	32.55
800.987	31.21
801.163	30.56
801.34	31.12
801.516	30.63
801.692	30.46
801.869	30.83
802.045	30.8
802.221	31.42
802.398	31.25
802.574	32.31
802.75	33.38
802.926	32.73
803.103	34.51
803.279	34.02
803.455	34.31
803.631	32.48
803.807	31.53
803.983	32.74
804.16	32.73
804.336	33.23
804.512	31.81
804.688	29.75
804.864	30.96
805.04	29.86
805.216	29.54
805.392	30.21
805.568	31.66
805.744	31.13
805.92	30.41
806.096	31.18
806.272	32.11
806.448	32.08
806.623	33.71
806.799	31.26
806.975	32.7
807.151	31.93
807.327	31.68
807.503	32.13
807.678	33.53
807.854	33.88
808.03	32.44
808.206	31.84
808.381	33.44
808.557	31.94
808.733	34.07
808.908	33.16
809.084	33.96
809.26	34.84
809.435	34.24
809.611	34.83
809.787	33.78
809.962	33.26
810.138	33.23
810.313	32.38
810.489	32.73
810.664	33.1
810.84	31.72
811.015	33.14
811.191	32.46
811.366	32.98
811.542	32.1
811.717	32.27
811.892	32.84
812.068	31.92
812.243	31.22
812.419	31.98
812.594	31.02
812.769	32.28
812.944	30.76
813.12	29.96
813.295	29.35
813.47	29.31
813.645	29.76
813.821	28.7
813.996	30.42
814.171	30.75
814.346	29.95
814.521	30.29
814.697	30.08
814.872	31.35
815.047	32.6
815.222	32.66
815.397	32.27
815.572	32.6
815.747	33.51
815.922	33.01
816.097	33.48
816.272	33.79
816.447	31.99
816.622	31.37
816.797	30.36
816.972	29.72
817.147	31.31
817.322	31.08
817.496	29.93
817.671	30.11
817.846	29.55
818.021	29.47
818.196	29.61
818.371	30.88
818.545	32.44
818.72	33.25
818.895	32.69
819.069	31.44
819.244	31.84
819.419	32.62
819.594	32.5
819.768	33.04
819.943	32.24
820.117	32.36
820.292	32.91
820.467	32.58
820.641	31.71
820.816	32.63
820.99	33.26
821.165	33.83
821.339	33.76
821.514	33.75
821.688	33.68
821.863	33.76
822.037	33.85
822.212	33.99
822.386	33.85
822.56	34.21
822.735	34.18
822.909	34.04
823.084	33.92
823.258	33.76
823.432	33.71
823.606	33.66
823.781	33.66
823.955	33.55
824.129	33.3
824.303	33.48
824.478	33.2
824.652	32.97
824.826	32.81
825	32.83
825.174	32.94
825.348	32.92
825.523	33.21
825.697	33.65
825.871	33.46
826.045	33.59
826.219	33.22
826.393	33.45
826.567	33.14
826.741	33.12
826.915	32.83
827.089	33.03
827.263	32.82
827.437	32.8
827.611	32.47
827.784	32.66
827.958	32.45
828.132	32.69
828.306	32.68
828.48	32.67
828.654	32.89
828.827	32.71
829.001	32.32
829.175	32.39
829.349	31.9
829.522	32.01
829.696	31.36
829.87	32.04
830.044	31.14
830.217	29.97
830.391	29.53
830.565	29.15
830.738	29.39
830.912	29.41
831.085	29.92
831.259	30.47
831.432	29.52
831.606	30.58
831.779	29.3
831.953	30.27
832.126	31.28
832.3	32.84
832.473	31.83
832.647	31.33
832.82	31.73
832.994	32.12
833.167	32.5
833.34	33.33
833.514	32.84
833.687	33.31
833.86	33.35
834.034	33.27
834.207	32.15
834.38	32.81
834.553	33.41
834.727	33.07
834.9	32.12
835.073	31.87
835.246	31.28
835.419	31.63
835.593	30.73
835.766	31.62
835.939	31.51
836.112	32.85
836.285	32.66
836.458	31.96
836.631	32.87
836.804	33.6
836.977	33.24
837.15	32.31
837.323	32.44
837.496	33.76
837.669	30.59
837.842	31.52
838.015	30.59
838.188	28.97
838.361	29.31
838.533	28.38
838.706	28.48
838.879	28.98
839.052	28.85
839.225	29.04
839.398	27.83
839.57	28.28
839.743	26.89
839.916	27.24
840.088	29.3
840.261	29.56
840.434	29.3
840.607	28.41
840.779	28.05
840.952	28.99
841.124	27.89
841.297	28.03
841.47	29.86
841.642	29.22
841.815	27.38
841.987	27.68
842.16	27.67
842.332	27.01
842.505	27.65
842.677	26.79
842.85	25.06
843.022	25.61
843.194	27.11
843.367	25.86
843.539	25.94
843.712	26.25
843.884	25.43
844.056	23.05
844.229	22.94
844.401	25.18
844.573	25.84
844.745	28.63
844.918	30.21
845.09	27.51
845.262	26.83
845.434	27.29
845.606	25.74
845.779	26.72
845.951	24.98
846.123	23.25
846.295	19.87
846.467	20.09
846.639	23.48
846.811	21.32
846.983	24.33
847.155	21.58
847.327	24.02
847.499	27.88
847.671	24.11
847.843	26.53
848.015	30.72
848.187	32.76
848.359	30.62
848.531	29.19
848.703	30.04
848.875	31.95
849.047	37.27
849.218	35.14
849.39	36.83
849.562	38.9
849.734	37.84
849.905	36.42
850.077	37.29
850.249	39.62
850.421	36.81
850.592	34.42
850.764	30.48
850.936	28.38
851.107	29.22
851.279	24.43
851.451	23.8
851.622	23.11
851.794	21.94
851.965	19.99
852.137	23.55
852.308	20.9
852.48	23.32
852.651	23.53
852.823	25.7
852.994	26.05
853.166	30.81
853.337	30.44
853.509	29.1
853.68	28.31
853.851	30.96
854.023	25.03
854.194	25.73
854.365	23.74
854.537	25.57
854.708	20.98
854.879	20.39
855.05	18.87
855.222	18.47
855.393	17.48
855.564	17.86
855.735	16.57
855.906	19.95
856.078	22.91
856.249	23.23
856.42	24.25
856.591	27.66
856.762	25.28
856.933	26.02
857.104	21.91
857.275	26.21
857.446	28.09
857.617	27.44
857.788	26.51
857.959	27.12
858.13	26.9
858.301	25.07
858.472	21.12
858.643	24.32
858.814	23.42
858.985	21.65
859.155	21.97
859.326	23.76
859.497	21.91
859.668	22.2
859.839	20.01
860.009	18.65
860.18	17.09
860.351	18.46
860.522	16.92
860.692	17.65
860.863	24.58
861.034	21.86
861.204	14.46
861.375	17
861.546	14.71
861.716	16.25
861.887	16.22
862.057	22.29
862.228	19.87
862.398	24.64
862.569	22.1
862.739	23.32
862.91	23.84
863.08	29.04
863.251	25.7
863.421	28.16
863.592	32.42
863.762	30.03
863.932	26.15
864.103	26.28
864.273	22.29
864.443	22.83
864.614	17.46
864.784	17.31
864.954	17.31
865.125	18.66
865.295	16.17
865.465	9.37
865.635	14.02
865.805	16.21
865.976	17.3
866.146	19.6
866.316	21.5
866.486	28.06
866.656	27.49
866.826	25.99
866.996	22.36
867.166	27.19
867.336	26.51
867.506	29.59
867.676	26.44
867.846	27.53
868.016	25.53
868.186	20.2
868.356	15.48
868.526	14.04
868.696	14.26
868.866	15.95
869.036	15.12
869.206	20.58
869.376	15.41
869.545	13.61
869.715	12.83
869.885	14.98
870.055	20.26
870.224	20.76
870.394	22.03
870.564	25.4
870.734	28.68
870.903	23.37
871.073	21.74
871.243	25.92
871.412	26.42
871.582	25.01
871.751	21.28
871.921	20.8
872.091	19.11
872.26	14.05
872.43	12.39
872.599	10.02
872.769	10.61
872.938	12.82
873.108	8.69
873.277	10.35
873.446	12.83
873.616	12.3
873.785	13.46
873.955	15.17
874.124	22.05
874.293	22.07
874.463	26.34
874.632	32.01
874.801	27.87
874.971	28.45
875.14	30.17
875.309	29.64
875.478	33.68
875.647	33.67
875.817	35.59
875.986	32.98
876.155	33.04
876.324	32.12
876.493	30.28
876.662	31.26
876.831	32.11
877	27.61
877.17	30.31
877.339	28.29
877.508	24.75
877.677	27.97
877.846	28.6
878.015	27.01
878.184	23.74
878.352	22.5
878.521	24.43
878.69	24.66
878.859	28.63
879.028	27.73
879.197	26.51
879.366	28.19
879.534	24.97
879.703	23.83
879.872	24.08
880.041	26.52
880.21	23
880.378	23.43
880.547	25.29
880.716	24.65
880.884	25.23
881.053	26.31
881.222	27.62
881.39	27.13
881.559	28.03
881.727	28.05
881.896	27.75
882.065	29.61
882.233	30.05
882.402	29.14
882.57	29.44
882.739	29.23
882.907	29.34
883.076	29.11
883.244	30.03
883.412	29.77
883.581	30.2
883.749	30.17
883.918	29.53
884.086	29.16
884.254	30.49
884.423	30.85
884.591	31.23
884.759	31.45
884.927	30.39
885.096	29.25
885.264	29.24
885.432	29.35
885.6	29.91
885.769	30.34
885.937	28.72
886.105	26.43
886.273	26.19
886.441	28.18
886.609	26.53
886.777	26.51
886.945	28.81
887.113	28.95
887.281	26.93
887.449	24.89
887.617	27.1
887.785	31.12
887.953	32.09
888.121	29.34
888.289	24.13
888.457	27.8
888.625	34.52
888.793	32.74
888.961	34.8
889.129	32.78
889.296	33.85
889.464	32.58
889.632	30.93
889.8	32.36
889.967	36.49
890.135	38.99
