Data from 2938792__Reflection_02.txt Node
Date: Fri Mar 13 11:05:07 EDT 2015
User: robert
Spectrometer: USB4E03002
Autoset integration time: false
Trigger mode: 4
Integration Time (sec): 1.000000E-1
Scans to average: 10
Electric dark correction enabled: false
Nonlinearity correction enabled: false
Boxcar width: 5
Stray light correction enabled: false
XAxis mode: Wavelengths
Stop averaging: false
Number of Pixels in Spectrum: 3648
>>>>>Begin Spectral Data<<<<<
177.575	-500.83
177.794	-5142.86
178.014	-677.39
178.233	-470.88
178.452	-302.92
178.672	-219.47
178.891	-234.83
179.11	-253.77
179.33	-261.15
179.549	-271.89
179.768	-286.87
179.987	-459.19
180.207	-298.62
180.426	-545.59
180.645	-994.23
180.864	-3880.49
181.084	1188.06
181.303	1849.44
181.522	864.41
181.741	1847.3
181.96	839.77
182.179	402.43
182.398	383.83
182.618	306.35
182.837	317.72
183.056	257.12
183.275	269.1
183.494	314.96
183.713	288.98
183.932	299.17
184.151	293.22
184.37	344.43
184.589	410.56
184.808	486.3
185.027	479.46
185.246	487.23
185.465	1624.79
185.684	807.63
185.903	857.64
186.122	1024.02
186.341	3764.71
186.56	1563.79
186.779	2034.94
186.998	1006.32
187.216	-2265.63
187.435	-566.41
187.654	-607.97
187.873	-886.36
188.092	-2124.64
188.311	12069.23
188.53	-1679.01
188.748	4156.25
188.967	-654.36
189.186	-774.42
189.405	-345.48
189.623	-1278.43
189.842	3259.57
190.061	1216.92
190.28	1677.17
190.498	-992.35
190.717	-748.62
190.936	-645.93
191.154	-362.32
191.373	-1186.58
191.592	-980.81
191.81	-811.43
192.029	-662.8
192.248	-620.48
192.466	-2423.94
192.685	-11964.29
192.904	-574.03
193.122	-2865.45
193.341	688
193.559	430.67
193.778	476.8
193.996	381.4
194.215	402.53
194.433	408.26
194.652	370.72
194.87	676.98
195.089	509.73
195.307	265.51
195.526	278.9
195.744	303.89
195.963	252.12
196.181	213.69
196.399	220.99
196.618	198.98
196.836	209.55
197.055	217.12
197.273	221.14
197.491	273.88
197.71	263.96
197.928	404.71
198.146	404.82
198.365	3793.75
198.583	-2294.34
198.801	-1050.76
199.019	-1183.59
199.238	-3166
199.456	1110.07
199.674	608.97
199.892	492.53
200.111	739.06
200.329	677.22
200.547	629.68
200.765	430.45
200.983	435.16
201.202	408.58
201.42	493.26
201.638	501.52
201.856	836.73
202.074	984.08
202.292	-2312.9
202.51	9556.25
202.728	5341.38
202.946	-1792.21
203.165	-1832.5
203.383	2446.15
203.601	1028.89
203.819	2365.45
204.037	511.51
204.255	540
204.473	630.88
204.691	384
204.909	342.07
205.127	330.6
205.345	379.02
205.562	490.65
205.78	631.98
205.998	609.36
206.216	360.89
206.434	561.6
206.652	359.78
206.87	363.37
207.088	302.83
207.306	431.25
207.523	379.84
207.741	304.23
207.959	292.13
208.177	398.18
208.395	446.13
208.612	674.23
208.83	467.84
209.048	562.15
209.266	746.37
209.483	709.12
209.701	732.55
209.919	1122.42
210.136	856.05
210.354	655.43
210.572	496.3
210.79	374.14
211.007	344.44
211.225	420.19
211.442	404.56
211.66	292.27
211.878	300.18
212.095	-742.21
212.313	-1997.87
212.53	-1263.33
212.748	-885.85
212.966	-1534.19
213.183	-1011.45
213.401	-1687.5
213.618	3520
213.836	-11052.94
214.053	-6254.84
214.271	7850
214.488	204.62
214.705	202.57
214.923	169.85
215.14	187.74
215.358	209.63
215.575	235.61
215.793	222.42
216.01	304.06
216.227	288.07
216.445	307.9
216.662	334.31
216.879	417.93
217.097	379.47
217.314	343.78
217.531	237.36
217.749	197.74
217.966	165.23
218.183	136.76
218.4	143.1
218.618	140.69
218.835	111.35
219.052	110.17
219.269	93.02
219.487	87.06
219.704	96.58
219.921	93.34
220.138	94.67
220.355	91.15
220.572	88.76
220.79	68.72
221.007	74.45
221.224	85.33
221.441	77.4
221.658	85.91
221.875	89.21
222.092	85.19
222.309	78.2
222.526	81.48
222.743	78.98
222.96	79.17
223.177	87.74
223.394	79.89
223.611	73.95
223.828	73.86
224.045	69.6
224.262	64.72
224.479	57.9
224.696	59.49
224.913	50
225.13	50.1
225.347	48.9
225.564	45.29
225.781	45.12
225.997	41.25
226.214	38.36
226.431	34.47
226.648	32.27
226.865	29.56
227.082	25.17
227.298	22.63
227.515	18.6
227.732	15.92
227.949	14.45
228.165	13.26
228.382	12.39
228.599	12.98
228.816	12.42
229.032	10.58
229.249	10.2
229.466	9.82
229.682	10.48
229.899	11.61
230.116	11.66
230.332	11.38
230.549	11.28
230.765	11.76
230.982	10.19
231.199	11.59
231.415	14.32
231.632	16.75
231.848	18.41
232.065	18.76
232.281	18.71
232.498	18.43
232.714	19.12
232.931	19.58
233.147	19.79
233.364	20.62
233.58	19.04
233.797	18.06
234.013	17.1
234.23	16.56
234.446	16.65
234.662	16.29
234.879	15.8
235.095	16.32
235.312	15.95
235.528	17.78
235.744	15.99
235.961	15.6
236.177	15.53
236.393	15.32
236.61	15.09
236.826	14.64
237.042	15.16
237.258	15.03
237.475	15.43
237.691	15.87
237.907	14.48
238.123	16.13
238.339	17.84
238.556	18.46
238.772	17.8
238.988	18.86
239.204	17.5
239.42	16.32
239.636	16.91
239.853	16.83
240.069	15.9
240.285	14.67
240.501	13.81
240.717	11.99
240.933	10
241.149	9.42
241.365	8.37
241.581	8.65
241.797	8.34
242.013	7.88
242.229	7.16
242.445	6.87
242.661	6.97
242.877	7.38
243.093	7.78
243.309	7.87
243.525	7.99
243.741	7.79
243.957	7.51
244.173	8.05
244.388	8.15
244.604	8.15
244.82	8.87
245.036	8.56
245.252	7.49
245.468	6.25
245.683	6.84
245.899	6.36
246.115	6.14
246.331	5.94
246.547	5.57
246.762	5.25
246.978	4.98
247.194	4.62
247.409	4.58
247.625	4.69
247.841	4.69
248.057	4.56
248.272	4.68
248.488	4.74
248.703	4.5
248.919	4.78
249.135	5.1
249.35	5.74
249.566	6.22
249.782	6.21
249.997	6.31
250.213	6.94
250.428	7.63
250.644	8.1
250.859	8.29
251.075	8.92
251.29	8.94
251.506	9.14
251.721	8.8
251.937	8.23
252.152	8.64
252.368	8.97
252.583	8.81
252.798	8.23
253.014	8.08
253.229	8.35
253.445	8.52
253.66	8.26
253.875	8.24
254.091	8.95
254.306	9.7
254.521	10.12
254.737	11.18
254.952	11.57
255.167	11.12
255.383	11.34
255.598	11.79
255.813	11.51
256.028	11.1
256.244	10.17
256.459	9.6
256.674	9.12
256.889	8.27
257.104	7.9
257.32	7.85
257.535	7.56
257.75	6.78
257.965	6.23
258.18	5.94
258.395	5.85
258.61	5.41
258.826	4.8
259.041	4.37
259.256	4.02
259.471	3.52
259.686	3.5
259.901	3.35
260.116	3.26
260.331	3.23
260.546	3.43
260.761	3.1
260.976	3.32
261.191	3.16
261.406	3.36
261.621	3.74
261.836	3.8
262.05	3.7
262.265	4.07
262.48	4.56
262.695	4.85
262.91	4.97
263.125	6.03
263.34	6.26
263.555	7.32
263.769	7.7
263.984	7.6
264.199	7.59
264.414	7.61
264.629	7.75
264.843	8.01
265.058	7.93
265.273	7.65
265.488	6.99
265.702	6.59
265.917	5.83
266.132	5.94
266.346	5.69
266.561	5.71
266.776	6.07
266.99	6.2
267.205	5.85
267.42	5.83
267.634	5.13
267.849	5.34
268.063	5.63
268.278	6
268.492	5.91
268.707	6.13
268.922	6.02
269.136	5.9
269.351	5.48
269.565	5.25
269.78	4.95
269.994	5.32
270.209	5
270.423	4.59
270.637	4.12
270.852	3.99
271.066	3.68
271.281	3.55
271.495	3.43
271.709	3.53
271.924	3.81
272.138	3.87
272.353	3.9
272.567	4.17
272.781	4.61
272.996	4.76
273.21	4.75
273.424	4.75
273.638	4.56
273.853	4.47
274.067	4.5
274.281	4.55
274.495	4.84
274.71	5.54
274.924	5.42
275.138	4.99
275.352	4.85
275.566	5.02
275.781	4.85
275.995	5.46
276.209	5.91
276.423	5.88
276.637	5.79
276.851	5.67
277.065	4.68
277.279	4.37
277.493	4.42
277.707	4.9
277.921	4.79
278.135	4.98
278.349	4.55
278.563	4.32
278.777	4.52
278.991	4
279.205	3.97
279.419	4.22
279.633	4.13
279.847	4.31
280.061	4.57
280.275	3.61
280.489	3.79
280.703	4.04
280.917	3.7
281.131	3.58
281.344	3.83
281.558	3.71
281.772	3.88
281.986	4.1
282.2	4.07
282.414	3.79
282.627	4.18
282.841	4.19
283.055	4.59
283.269	4.98
283.482	4.66
283.696	4.58
283.91	4.52
284.123	3.91
284.337	3.78
284.551	3.78
284.764	3.58
284.978	3.71
285.192	3.68
285.405	3.35
285.619	2.99
285.833	3.33
286.046	3.47
286.26	3.53
286.473	4
286.687	3.94
286.9	3.87
287.114	3.74
287.327	3.84
287.541	3.93
287.754	3.87
287.968	4.2
288.181	3.86
288.395	3.97
288.608	3.97
288.822	3.96
289.035	4.1
289.248	4.16
289.462	4.31
289.675	4.21
289.889	4.21
290.102	4.37
290.315	4.31
290.529	4.41
290.742	4.18
290.955	4.45
291.169	4.51
291.382	4.94
291.595	4.81
291.808	5.22
292.022	5.69
292.235	5.92
292.448	5.91
292.661	5.92
292.875	6.21
293.088	6.4
293.301	6.08
293.514	6.01
293.727	5.65
293.94	5.94
294.153	5.77
294.367	5.4
294.58	4.83
294.793	4.73
295.006	4.84
295.219	4.78
295.432	4.97
295.645	4.95
295.858	5.04
296.071	4.98
296.284	4.91
296.497	4.95
296.71	4.81
296.923	5.2
297.136	5.52
297.349	5.42
297.562	5.37
297.775	5.08
297.988	5.26
298.201	5.26
298.414	5.49
298.626	5.46
298.839	5.39
299.052	5.68
299.265	5.87
299.478	5.63
299.691	6.12
299.903	6.59
300.116	7.1
300.329	7
300.542	6.85
300.755	6.89
300.967	7.12
301.18	7.26
301.393	7.46
301.605	7.48
301.818	7.62
302.031	7.39
302.243	7.29
302.456	6.87
302.669	7.41
302.881	7.4
303.094	7.64
303.307	7.78
303.519	7.76
303.732	7.71
303.944	7.72
304.157	7.88
304.37	7.52
304.582	7.43
304.795	7.87
305.007	7.63
305.22	8.21
305.432	7.83
305.645	7.72
305.857	8.05
306.069	8.22
306.282	8.04
306.494	8.08
306.707	8.53
306.919	8.66
307.132	8.33
307.344	8.39
307.556	8.34
307.769	8.77
307.981	8.75
308.193	8.52
308.406	8.19
308.618	8.04
308.83	7.97
309.043	8
309.255	7.87
309.467	8.13
309.679	7.95
309.892	8.09
310.104	8.15
310.316	8.25
310.528	8.14
310.74	8.26
310.953	8.39
311.165	8.32
311.377	8.37
311.589	8.71
311.801	8.78
312.013	8.93
312.225	8.85
312.437	8.65
312.649	8.96
312.862	9.08
313.074	9.37
313.286	9.67
313.498	9.9
313.71	9.58
313.922	9.33
314.134	9.19
314.346	9.54
314.558	9.62
314.77	9.76
314.982	9.76
315.193	10.09
315.405	10.2
315.617	10.11
315.829	10.1
316.041	10.83
316.253	10.88
316.465	10.92
316.677	10.61
316.888	10.33
317.1	10.57
317.312	10.05
317.524	10.26
317.736	10.19
317.947	10.38
318.159	10.65
318.371	10.52
318.583	10.76
318.794	11.45
319.006	11.35
319.218	11.41
319.43	11.42
319.641	11.62
319.853	11.48
320.064	11.64
320.276	11.58
320.488	11.89
320.699	11.88
320.911	11.97
321.123	11.93
321.334	12
321.546	12.48
321.757	12.87
321.969	13.27
322.18	13.61
322.392	13.78
322.603	14.08
322.815	13.65
323.026	14.14
323.238	14.13
323.449	13.53
323.661	14.04
323.872	14.09
324.083	13.53
324.295	13.56
324.506	13.24
324.718	12.87
324.929	13
325.14	13.59
325.352	13.28
325.563	13.76
325.774	14.31
325.986	14.3
326.197	14.61
326.408	15.25
326.62	15.73
326.831	16.04
327.042	16.6
327.253	17.27
327.464	17.27
327.676	17.36
327.887	17.43
328.098	17.79
328.309	17.87
328.52	17.93
328.732	18.1
328.943	18.52
329.154	19.12
329.365	19.72
329.576	19.71
329.787	20.3
329.998	21.26
330.209	21.53
330.42	21.89
330.631	22.49
330.842	22.7
331.053	23.11
331.264	22.89
331.475	22.88
331.686	22.75
331.897	22.7
332.108	22.73
332.319	22.84
332.53	22.93
332.741	23.05
332.952	23.38
333.163	23.75
333.374	23.74
333.585	24.13
333.795	24.38
334.006	24.52
334.217	24.75
334.428	24.48
334.639	24.51
334.849	24.36
335.06	24.37
335.271	24.48
335.482	24.88
335.692	24.92
335.903	24.92
336.114	24.82
336.325	25.05
336.535	25.24
336.746	25.52
336.957	25.82
337.167	26.28
337.378	26.61
337.589	26.41
337.799	26.02
338.01	25.92
338.22	25.94
338.431	25.97
338.642	25.65
338.852	25.54
339.063	25.53
339.273	25.24
339.484	25.08
339.694	25
339.905	25.19
340.115	25.44
340.326	25.76
340.536	25.43
340.746	25.68
340.957	25.97
341.167	26.09
341.378	26.35
341.588	26.19
341.799	26.21
342.009	25.95
342.219	25.68
342.43	25.63
342.64	25.58
342.85	25.68
343.061	25.35
343.271	25.44
343.481	25.32
343.691	25.02
343.902	25.14
344.112	25.43
344.322	25.42
344.532	25.42
344.743	25.22
344.953	25.06
345.163	24.95
345.373	24.79
345.583	24.62
345.793	24.56
346.004	24.58
346.214	24.46
346.424	24.22
346.634	24.28
346.844	24.63
347.054	24.69
347.264	24.64
347.474	24.69
347.684	25.08
347.894	25.14
348.104	25.12
348.314	24.91
348.524	24.99
348.734	25.19
348.944	25.11
349.154	24.77
349.364	24.79
349.574	24.9
349.784	25.05
349.994	25.02
350.204	24.88
350.413	24.7
350.623	24.8
350.833	24.67
351.043	24.37
351.253	24.29
351.463	23.97
351.672	23.9
351.882	23.84
352.092	23.64
352.302	23.56
352.511	23.75
352.721	24.02
352.931	23.93
353.141	24.1
353.35	24.14
353.56	24.08
353.77	24.24
353.979	24.2
354.189	24.23
354.399	24.29
354.608	24.27
354.818	23.89
355.027	23.86
355.237	24.14
355.447	24.27
355.656	24.19
355.866	24.36
356.075	24.4
356.285	24.27
356.494	24.24
356.704	24.31
356.913	24.23
357.123	24.36
357.332	24.22
357.542	23.97
357.751	23.79
357.96	24
358.17	23.77
358.379	23.97
358.589	23.93
358.798	23.85
359.007	23.93
359.217	23.8
359.426	23.74
359.635	23.5
359.845	23.56
360.054	23.41
360.263	23.16
360.472	23.22
360.682	22.97
360.891	23.06
361.1	22.89
361.309	22.62
361.519	22.62
361.728	22.43
361.937	22.42
362.146	22.16
362.355	22.16
362.564	22.2
362.774	22.08
362.983	21.91
363.192	21.84
363.401	21.81
363.61	21.86
363.819	22.05
364.028	22.4
364.237	22.6
364.446	22.78
364.655	22.72
364.864	22.37
365.073	22.49
365.282	22.7
365.491	22.74
365.7	22.88
365.909	22.53
366.118	22.41
366.327	22.23
366.536	22.17
366.745	22.3
366.954	22.3
367.162	22.6
367.371	22.68
367.58	22.75
367.789	22.73
367.998	22.61
368.207	22.87
368.415	22.75
368.624	22.85
368.833	22.82
369.042	22.67
369.25	22.68
369.459	22.69
369.668	22.38
369.877	22.04
370.085	21.64
370.294	21.77
370.503	21.85
370.711	21.75
370.92	21.36
371.129	21.29
371.337	21.08
371.546	20.94
371.754	20.94
371.963	20.9
372.171	20.93
372.38	21.28
372.589	21.13
372.797	21
373.006	21.07
373.214	20.96
373.423	20.89
373.631	20.8
373.84	20.9
374.048	20.73
374.256	20.65
374.465	20.62
374.673	20.56
374.882	20.65
375.09	20.73
375.298	20.69
375.507	20.83
375.715	20.8
375.923	20.89
376.132	20.91
376.34	20.74
376.548	20.48
376.757	20.52
376.965	20.41
377.173	20.26
377.381	20.07
377.59	20.04
377.798	20.14
378.006	20.18
378.214	20.24
378.423	20.08
378.631	19.98
378.839	20.34
379.047	20.21
379.255	20.1
379.463	19.87
379.671	19.83
379.879	19.77
380.088	19.47
380.296	19.33
380.504	19.03
380.712	18.74
380.92	18.81
381.128	18.74
381.336	18.55
381.544	18.46
381.752	18.64
381.96	18.51
382.168	18.39
382.376	18.42
382.584	18.42
382.791	18.57
382.999	18.66
383.207	18.62
383.415	18.69
383.623	18.69
383.831	18.62
384.039	18.58
384.247	18.66
384.454	18.76
384.662	18.84
384.87	18.71
385.078	18.85
385.285	18.73
385.493	18.78
385.701	18.39
385.909	18.29
386.116	18.36
386.324	18.32
386.532	18.24
386.739	18.06
386.947	17.93
387.155	18.06
387.362	17.77
387.57	17.66
387.778	17.44
387.985	17.45
388.193	17.62
388.4	17.56
388.608	17.63
388.816	17.53
389.023	17.6
389.231	17.57
389.438	17.45
389.646	17.37
389.853	17.59
390.061	17.58
390.268	17.68
390.475	17.36
390.683	17.16
390.89	16.93
391.098	16.9
391.305	17.03
391.512	16.93
391.72	16.97
391.927	17.08
392.135	17.03
392.342	17.08
392.549	17
392.756	17.08
392.964	17.16
393.171	17.31
393.378	17.35
393.586	16.96
393.793	16.91
394	16.65
394.207	16.67
394.414	16.61
394.622	16.58
394.829	16.59
395.036	16.81
395.243	16.76
395.45	16.56
395.657	16.41
395.864	16.48
396.072	16.5
396.279	16.8
396.486	16.74
396.693	16.69
396.9	16.74
397.107	16.66
397.314	16.65
397.521	16.46
397.728	16.42
397.935	16.43
398.142	16.48
398.349	16.44
398.556	16.45
398.763	16.27
398.97	16.22
399.177	16.07
399.383	16.07
399.59	16.03
399.797	16.24
400.004	16.18
400.211	16.48
400.418	16.38
400.625	16.38
400.831	16.14
401.038	16.27
401.245	16.25
401.452	16.23
401.658	16.24
401.865	16.13
402.072	16.13
402.279	16.15
402.485	15.88
402.692	15.96
402.899	15.91
403.105	15.78
403.312	15.78
403.519	15.74
403.725	15.8
403.932	15.65
404.138	15.53
404.345	15.5
404.552	15.41
404.758	15.48
404.965	15.19
405.171	15.15
405.378	15.09
405.584	15.05
405.791	15.13
405.997	15.11
406.204	15.32
406.41	15.32
406.617	15.25
406.823	15.34
407.029	15.27
407.236	15.41
407.442	15.51
407.649	15.84
407.855	15.84
408.061	15.82
408.268	15.85
408.474	15.6
408.68	15.64
408.887	15.76
409.093	15.79
409.299	15.74
409.505	15.91
409.712	15.83
409.918	15.62
410.124	15.63
410.33	15.7
410.537	15.53
410.743	15.72
410.949	15.81
411.155	15.8
411.361	15.79
411.567	15.84
411.773	15.7
411.98	15.7
412.186	15.58
412.392	15.7
412.598	15.68
412.804	15.7
413.01	15.69
413.216	15.64
413.422	15.55
413.628	15.5
413.834	15.48
414.04	15.51
414.246	15.52
414.452	15.53
414.658	15.31
414.864	15.19
415.07	15.08
415.275	14.91
415.481	14.85
415.687	14.66
415.893	14.65
416.099	14.73
416.305	14.73
416.511	14.82
416.716	14.85
416.922	14.9
417.128	14.84
417.334	14.86
417.539	14.95
417.745	14.79
417.951	14.95
418.157	14.9
418.362	14.75
418.568	14.66
418.774	14.46
418.979	14.44
419.185	14.32
419.391	14.28
419.596	14.24
419.802	14.17
420.008	14.33
420.213	14.95
420.419	14.95
420.624	14.95
420.83	14.97
421.035	15.06
421.241	15.05
421.446	15
421.652	14.96
421.857	14.98
422.063	15
422.268	14.85
422.474	14.2
422.679	14.16
422.885	14.16
423.09	14.12
423.295	13.97
423.501	13.92
423.706	13.99
423.911	13.97
424.117	13.94
424.322	13.89
424.527	13.94
424.733	13.87
424.938	13.88
425.143	13.83
425.349	13.83
425.554	13.82
425.759	13.84
425.964	13.82
426.169	13.9
426.375	13.93
426.58	13.97
426.785	13.98
426.99	14.08
427.195	14.08
427.4	14.08
427.605	14.1
427.811	14.28
428.016	14.33
428.221	14.52
428.426	14.56
428.631	14.55
428.836	14.56
429.041	14.55
429.246	14.53
429.451	14.55
429.656	14.59
429.861	14.64
430.066	14.49
430.271	14.47
430.476	14.38
430.681	14.36
430.886	14.45
431.09	14.4
431.295	14.42
431.5	14.52
431.705	14.51
431.91	14.61
432.115	14.54
432.32	14.66
432.524	14.62
432.729	14.65
432.934	14.68
433.139	14.54
433.343	14.53
433.548	14.48
433.753	14.45
433.958	14.37
434.162	14.38
434.367	14.54
434.572	14.59
434.776	14.64
434.981	14.65
435.186	14.65
435.39	14.75
435.595	14.8
435.799	14.84
436.004	14.77
436.209	14.88
436.413	14.83
436.618	14.72
436.822	14.72
437.027	14.74
437.231	14.75
437.436	14.69
437.64	14.64
437.845	14.67
438.049	14.72
438.253	14.74
438.458	14.63
438.662	14.62
438.867	14.63
439.071	14.59
439.275	14.47
439.48	14.42
439.684	14.41
439.888	14.45
440.093	14.44
440.297	14.34
440.501	14.34
440.706	14.37
440.91	14.4
441.114	14.42
441.318	14.47
441.523	14.51
441.727	14.49
441.931	14.57
442.135	14.67
442.339	14.68
442.543	14.85
442.748	14.87
442.952	14.88
443.156	14.86
443.36	14.7
443.564	14.64
443.768	14.74
443.972	14.78
444.176	14.73
444.38	14.6
444.584	14.54
444.788	14.4
444.992	14.44
445.196	14.43
445.4	14.38
445.604	14.57
445.808	14.62
446.012	14.56
446.216	14.5
446.42	14.45
446.624	14.44
446.828	14.4
447.032	14.4
447.235	14.37
447.439	14.35
447.643	14.41
447.847	14.28
448.051	14.22
448.254	14.24
448.458	14.27
448.662	14.27
448.866	14.3
449.069	14.51
449.273	14.57
449.477	14.57
449.681	14.62
449.884	14.66
450.088	14.86
450.292	14.88
450.495	14.85
450.699	14.83
450.902	14.78
451.106	14.74
451.31	14.63
451.513	14.75
451.717	14.72
451.92	14.71
452.124	14.65
452.327	14.49
452.531	14.44
452.734	14.44
452.938	14.5
453.141	14.7
453.345	14.79
453.548	14.74
453.752	14.58
453.955	14.68
454.158	14.67
454.362	14.66
454.565	14.64
454.769	14.61
454.972	14.72
455.175	14.74
455.379	14.63
455.582	14.58
455.785	14.62
455.988	14.7
456.192	14.69
456.395	14.57
456.598	14.64
456.801	14.75
457.005	14.76
457.208	14.73
457.411	14.68
457.614	14.65
457.817	14.57
458.021	14.53
458.224	14.54
458.427	14.45
458.63	14.55
458.833	14.44
459.036	14.39
459.239	14.33
459.442	14.22
459.645	14.18
459.848	14.21
460.051	14.25
460.254	14.33
460.457	14.29
460.66	14.31
460.863	14.28
461.066	14.33
461.269	14.35
461.472	14.5
461.675	14.59
461.878	14.65
462.081	14.74
462.284	14.7
462.486	14.57
462.689	14.57
462.892	14.56
463.095	14.55
463.298	14.56
463.5	14.63
463.703	14.51
463.906	14.51
464.109	14.49
464.311	14.42
464.514	14.36
464.717	14.43
464.92	14.52
465.122	14.59
465.325	14.72
465.528	14.79
465.73	14.8
465.933	14.86
466.135	14.82
466.338	14.75
466.541	14.71
466.743	14.81
466.946	14.8
467.148	14.87
467.351	14.89
467.553	14.93
467.756	14.88
467.958	14.84
468.161	14.88
468.363	14.9
468.566	14.94
468.768	15
468.971	14.99
469.173	15.03
469.375	15
469.578	14.95
469.78	14.88
469.983	14.93
470.185	14.92
470.387	15.03
470.59	15.06
470.792	15.09
470.994	15.11
471.196	15.17
471.399	15.22
471.601	15.18
471.803	15.13
472.005	15.11
472.208	15.06
472.41	15.12
472.612	15.01
472.814	15.06
473.016	15.13
473.218	15.13
473.421	15.15
473.623	15.11
473.825	15.15
474.027	15.28
474.229	15.18
474.431	15.24
474.633	15.16
474.835	15.19
475.037	15.2
475.239	15.06
475.441	15.03
475.643	14.97
475.845	14.97
476.047	14.9
476.249	14.84
476.451	14.96
476.653	14.88
476.855	14.9
477.057	14.86
477.258	14.77
477.46	14.85
477.662	14.88
477.864	15.02
478.066	15.07
478.268	15.03
478.469	15.02
478.671	14.95
478.873	15.07
479.075	15
479.276	15
479.478	15.06
479.68	14.97
479.882	14.96
480.083	14.87
480.285	14.76
480.487	14.75
480.688	14.77
480.89	14.74
481.091	14.63
481.293	14.55
481.495	14.47
481.696	14.45
481.898	14.43
482.099	14.36
482.301	14.3
482.502	14.25
482.704	14.25
482.905	14.22
483.107	14.17
483.308	14.17
483.51	14.19
483.711	14.19
483.913	14.14
484.114	14.17
484.315	14.17
484.517	14.16
484.718	14.17
484.92	14.15
485.121	14.13
485.322	14.17
485.524	14.14
485.725	14.14
485.926	14.14
486.127	14.2
486.329	14.21
486.53	14.2
486.731	14.22
486.932	14.21
487.134	14.22
487.335	14.23
487.536	14.2
487.737	14.24
487.938	14.23
488.139	14.26
488.341	14.28
488.542	14.27
488.743	14.31
488.944	14.33
489.145	14.37
489.346	14.4
489.547	14.4
489.748	14.44
489.949	14.46
490.15	14.51
490.351	14.51
490.552	14.44
490.753	14.48
490.954	14.49
491.155	14.46
491.356	14.47
491.557	14.48
491.758	14.49
491.959	14.5
492.159	14.46
492.36	14.46
492.561	14.49
492.762	14.56
492.963	14.56
493.164	14.51
493.364	14.56
493.565	14.55
493.766	14.54
493.967	14.52
494.167	14.6
494.368	14.69
494.569	14.8
494.769	14.81
494.97	14.8
495.171	14.82
495.371	14.91
495.572	14.93
495.773	14.95
495.973	15.09
496.174	15.22
496.375	15.29
496.575	15.3
496.776	15.36
496.976	15.33
497.177	15.35
497.377	15.33
497.578	15.44
497.778	15.54
497.979	15.62
498.179	15.62
498.38	15.67
498.58	15.65
498.78	15.66
498.981	15.67
499.181	15.78
499.382	15.91
499.582	15.99
499.782	16
499.983	16.08
500.183	16.14
500.383	16.15
500.584	16.19
500.784	16.22
500.984	16.33
501.184	16.33
501.385	16.43
501.585	16.38
501.785	16.44
501.985	16.43
502.185	16.46
502.386	16.53
502.586	16.56
502.786	16.59
502.986	16.64
503.186	16.65
503.386	16.66
503.586	16.6
503.786	16.63
503.987	16.63
504.187	16.63
504.387	16.64
504.587	16.63
504.787	16.71
504.987	16.8
505.187	16.86
505.387	16.89
505.587	16.99
505.786	17.07
505.986	17.17
506.186	17.26
506.386	17.35
506.586	17.47
506.786	17.49
506.986	17.6
507.186	17.66
507.386	17.76
507.585	17.88
507.785	17.89
507.985	18.02
508.185	18.1
508.384	18.21
508.584	18.34
508.784	18.25
508.984	18.4
509.183	18.38
509.383	18.41
509.583	18.44
509.782	18.41
509.982	18.53
510.182	18.55
510.381	18.64
510.581	18.74
510.781	18.74
510.98	18.9
511.18	18.9
511.379	19.04
511.579	19.1
511.778	19.17
511.978	19.33
512.177	19.45
512.377	19.46
512.576	19.52
512.776	19.44
512.975	19.52
513.175	19.63
513.374	19.71
513.573	19.77
513.773	19.9
513.972	20.03
514.172	20.09
514.371	20.17
514.57	20.3
514.77	20.44
514.969	20.55
515.168	20.73
515.367	20.84
515.567	21
515.766	21.07
515.965	21.15
516.164	21.16
516.364	21.23
516.563	21.14
516.762	21.24
516.961	21.25
517.16	21.41
517.359	21.47
517.559	21.52
517.758	21.55
517.957	21.59
518.156	21.58
518.355	21.68
518.554	21.67
518.753	21.84
518.952	21.94
519.151	22.03
519.35	22.08
519.549	22.12
519.748	22.2
519.947	22.31
520.146	22.45
520.345	22.57
520.544	22.66
520.743	22.87
520.942	22.93
521.141	23.01
521.339	23.14
521.538	23.14
521.737	23.28
521.936	23.34
522.135	23.37
522.333	23.47
522.532	23.6
522.731	23.68
522.93	23.71
523.129	23.84
523.327	23.93
523.526	23.99
523.725	24.14
523.923	24.11
524.122	24.14
524.321	24.26
524.519	24.24
524.718	24.3
524.917	24.35
525.115	24.36
525.314	24.43
525.512	24.52
525.711	24.57
525.909	24.63
526.108	24.7
526.306	24.78
526.505	24.84
526.703	24.95
526.902	24.97
527.1	25.01
527.299	25.11
527.497	25.1
527.696	25.13
527.894	25.12
528.092	25.14
528.291	25.19
528.489	25.22
528.688	25.22
528.886	25.23
529.084	25.24
529.283	25.27
529.481	25.27
529.679	25.34
529.877	25.38
530.076	25.46
530.274	25.51
530.472	25.6
530.67	25.71
530.869	25.82
531.067	25.89
531.265	26.03
531.463	26.06
531.661	26.16
531.859	26.18
532.057	26.2
532.255	26.26
532.454	26.33
532.652	26.32
532.85	26.3
533.048	26.33
533.246	26.38
533.444	26.43
533.642	26.53
533.84	26.6
534.038	26.7
534.236	26.73
534.434	26.78
534.632	26.8
534.83	26.94
535.027	27.06
535.225	27.06
535.423	27.12
535.621	27.15
535.819	27.15
536.017	27.21
536.215	27.17
536.412	27.22
536.61	27.26
536.808	27.27
537.006	27.25
537.203	27.23
537.401	27.36
537.599	27.36
537.797	27.41
537.994	27.48
538.192	27.55
538.39	27.7
538.587	27.75
538.785	27.8
538.983	27.94
539.18	27.93
539.378	27.99
539.575	28.04
539.773	28.16
539.97	28.14
540.168	28.14
540.366	28.09
540.563	28.1
540.761	28.08
540.958	28.08
541.155	28.05
541.353	28.04
541.55	28
541.748	27.96
541.945	27.89
542.143	27.94
542.34	27.99
542.537	28.03
542.735	28.05
542.932	28.11
543.129	28.2
543.327	28.23
543.524	28.35
543.721	28.48
543.919	28.61
544.116	28.72
544.313	28.78
544.51	28.84
544.708	28.93
544.905	29.04
545.102	29.16
545.299	29.19
545.496	29.26
545.693	29.3
545.891	29.29
546.088	29.3
546.285	29.33
546.482	29.31
546.679	29.3
546.876	29.21
547.073	29.12
547.27	29.07
547.467	28.97
547.664	28.98
547.861	28.98
548.058	29.03
548.255	29.04
548.452	29.04
548.649	29.12
548.846	29.1
549.043	29.16
549.24	29.22
549.437	29.21
549.633	29.44
549.83	29.5
550.027	29.47
550.224	29.36
550.421	29.26
550.618	29.15
550.814	29.14
551.011	29.25
551.208	29.32
551.405	29.29
551.601	29.36
551.798	29.22
551.995	29.08
552.191	29.09
552.388	29.24
552.585	29.31
552.781	29.35
552.978	29.4
553.175	29.36
553.371	29.39
553.568	29.4
553.764	29.31
553.961	29.35
554.157	29.43
554.354	29.51
554.55	29.41
554.747	29.39
554.943	29.43
555.14	29.31
555.336	29.31
555.533	29.27
555.729	29.35
555.926	29.4
556.122	29.47
556.318	29.54
556.515	29.49
556.711	29.5
556.907	29.63
557.104	29.68
557.3	29.85
557.496	29.95
557.693	29.91
557.889	29.94
558.085	29.98
558.281	29.99
558.478	29.96
558.674	29.87
558.87	29.92
559.066	29.87
559.262	29.96
559.459	29.84
559.655	29.77
559.851	29.75
560.047	29.75
560.243	29.78
560.439	29.77
560.635	29.77
560.831	29.9
561.027	30.01
561.223	29.97
561.419	29.89
561.615	29.86
561.811	29.9
562.007	30.03
562.203	30.1
562.399	30
562.595	29.91
562.791	29.95
562.987	29.95
563.183	29.75
563.379	29.66
563.575	29.69
563.771	29.75
563.966	29.71
564.162	29.63
564.358	29.51
564.554	29.6
564.75	29.61
564.945	29.49
565.141	29.51
565.337	29.56
565.533	29.59
565.728	29.47
565.924	29.43
566.12	29.42
566.315	29.4
566.511	29.45
566.707	29.39
566.902	29.41
567.098	29.44
567.293	29.33
567.489	29.34
567.684	29.4
567.88	29.4
568.076	29.5
568.271	29.59
568.467	29.62
568.662	29.5
568.858	29.52
569.053	29.55
569.248	29.54
569.444	29.54
569.639	29.45
569.835	29.49
570.03	29.54
570.225	29.34
570.421	29.24
570.616	29.25
570.812	29.24
571.007	29.21
571.202	29.23
571.397	29.22
571.593	29.21
571.788	29.4
571.983	29.4
572.178	29.44
572.374	29.56
572.569	29.66
572.764	29.77
572.959	29.93
573.154	29.98
573.35	29.97
573.545	30.08
573.74	30.04
573.935	29.99
574.13	29.87
574.325	29.89
574.52	30
574.715	30.01
574.91	29.89
575.105	29.81
575.3	29.86
575.495	29.87
575.69	29.83
575.885	29.93
576.08	29.9
576.275	30.14
576.47	30.26
576.665	30.14
576.86	30.04
577.055	30.03
577.25	30.25
577.444	30.24
577.639	30.42
577.834	30.45
578.029	30.6
578.224	30.73
578.418	30.55
578.613	30.47
578.808	30.6
579.003	30.68
579.197	30.85
579.392	30.52
579.587	30.63
579.781	30.51
579.976	30.57
580.171	30.55
580.365	30.47
580.56	30.66
580.755	30.8
580.949	30.76
581.144	30.83
581.338	30.76
581.533	30.97
581.727	30.94
581.922	30.9
582.116	30.99
582.311	30.92
582.505	30.96
582.7	30.92
582.894	30.99
583.089	31.08
583.283	31.01
583.478	31.09
583.672	31.18
583.866	31.23
584.061	31.38
584.255	31.22
584.449	31.33
584.644	31.44
584.838	31.4
585.032	31.31
585.226	31.26
585.421	31.48
585.615	31.56
585.809	31.48
586.003	31.41
586.198	31.46
586.392	31.62
586.586	31.6
586.78	31.61
586.974	31.69
587.168	31.53
587.363	31.6
587.557	31.43
587.751	31.32
587.945	31.28
588.139	31.34
588.333	31.21
588.527	31.31
588.721	31.2
588.915	31.02
589.109	31.06
589.303	31.15
589.497	31.03
589.691	30.97
589.885	30.99
590.079	31.01
590.273	31.02
590.466	31.14
590.66	30.97
590.854	31.21
591.048	31.3
591.242	31.29
591.436	31.39
591.629	31.54
591.823	31.67
592.017	31.72
592.211	31.74
592.404	31.75
592.598	31.7
592.792	31.71
592.986	31.56
593.179	31.51
593.373	31.54
593.567	31.49
593.76	31.29
593.954	31.29
594.147	31.24
594.341	31.33
594.535	31.26
594.728	31.26
594.922	31.28
595.115	31.36
595.309	31.28
595.502	31.24
595.696	31.22
595.889	31.31
596.083	31.28
596.276	31.17
596.47	31.22
596.663	31.22
596.856	31.14
597.05	31.15
597.243	31.09
597.437	31.28
597.63	31.28
597.823	31.3
598.017	31.39
598.21	31.47
598.403	31.66
598.596	31.57
598.79	31.63
598.983	31.74
599.176	31.8
599.369	31.88
599.563	31.8
599.756	31.91
599.949	31.89
600.142	31.74
600.335	31.79
600.528	31.72
600.722	31.84
600.915	31.9
601.108	31.9
601.301	31.99
601.494	32.1
601.687	32.15
601.88	32.08
602.073	32.1
602.266	32.3
602.459	32
602.652	31.93
602.845	31.74
603.038	31.73
603.231	31.75
603.424	31.59
603.617	31.49
603.809	31.39
604.002	31.23
604.195	31.16
604.388	31.12
604.581	31.27
604.774	31.25
604.966	31.33
605.159	31.4
605.352	31.36
605.545	31.56
605.737	31.54
605.93	31.72
606.123	31.95
606.316	32.12
606.508	32.25
606.701	32.43
606.894	32.65
607.086	32.88
607.279	32.9
607.471	33.01
607.664	32.95
607.857	33.17
608.049	33.31
608.242	33.41
608.434	33.77
608.627	34.11
608.819	34.42
609.012	34.84
609.204	35.32
609.397	35.97
609.589	36.73
609.782	37.56
609.974	38.3
610.166	39.07
610.359	39.82
610.551	40.48
610.743	41.02
610.936	41.67
611.128	42.16
611.32	42.43
611.513	42.65
611.705	42.59
611.897	42.49
612.09	42.41
612.282	42.19
612.474	42.06
612.666	41.61
612.858	41.2
613.051	40.69
613.243	40.18
613.435	39.83
613.627	39.49
613.819	39.31
614.011	39.11
614.203	38.59
614.395	38.23
614.588	37.88
614.78	37.64
614.972	37.4
615.164	37.28
615.356	37.22
615.548	36.98
615.74	36.86
615.932	36.49
616.124	36.2
616.315	36.26
616.507	36.06
616.699	35.85
616.891	35.75
617.083	35.74
617.275	35.43
617.467	35.32
617.659	35.27
617.85	34.98
618.042	34.98
618.234	34.92
618.426	34.66
618.618	34.65
618.809	34.72
619.001	34.54
619.193	34.34
619.384	34.54
619.576	34.66
619.768	34.86
619.959	34.83
620.151	34.77
620.343	34.68
620.534	34.79
620.726	34.85
620.917	34.7
621.109	35.01
621.301	35.23
621.492	35.2
621.684	35.02
621.875	34.88
622.067	34.95
622.258	35.16
622.45	35.18
622.641	35.09
622.832	35.27
623.024	35.54
623.215	35.4
623.407	35.15
623.598	35.15
623.789	35.17
623.981	35.07
624.172	35.05
624.363	34.89
624.555	34.97
624.746	35.02
624.937	34.8
625.129	34.55
625.32	34.45
625.511	34.47
625.702	34.4
625.893	34.36
626.085	34.31
626.276	34.32
626.467	34.31
626.658	34.25
626.849	34.19
627.04	34.05
627.231	34.02
627.422	34.16
627.614	34.19
627.805	34.08
627.996	34.14
628.187	34.32
628.378	34.25
628.569	34.34
628.76	34.51
628.951	34.7
629.142	35.07
629.332	35.32
629.523	35.3
629.714	35.49
629.905	35.81
630.096	35.95
630.287	35.96
630.478	36.04
630.669	36.04
630.859	35.89
631.05	35.74
631.241	35.44
631.432	35.31
631.623	35.19
631.813	34.87
632.004	34.6
632.195	34.22
632.385	33.95
632.576	34.03
632.767	33.88
632.957	33.92
633.148	33.87
633.339	33.82
633.529	33.69
633.72	33.75
633.91	33.71
634.101	33.85
634.292	34.02
634.482	34.12
634.673	34.12
634.863	34.09
635.054	34.05
635.244	33.89
635.435	34.1
635.625	34.16
635.815	34.17
636.006	34.35
636.196	34.16
636.387	34.05
636.577	34.07
636.767	34.04
636.958	34.15
637.148	34.06
637.338	34.16
637.529	34.11
637.719	34.26
637.909	34.2
638.099	34.12
638.29	34.22
638.48	34.54
638.67	34.46
638.86	34.25
639.05	34.26
639.241	34.48
639.431	34.62
639.621	34.64
639.811	34.57
640.001	34.66
640.191	34.7
640.381	34.74
640.571	34.74
640.761	34.79
640.951	35.03
641.141	34.83
641.331	34.8
641.521	34.8
641.711	34.89
641.901	34.93
642.091	34.99
642.281	35.07
642.471	34.98
642.661	34.82
642.851	35
643.041	34.9
643.231	35.19
643.42	35.3
643.61	35.47
643.8	35.19
643.99	35.12
644.18	35.16
644.369	35.11
644.559	35.29
644.749	35.36
644.939	35.23
645.128	35.4
645.318	35.13
645.508	35.13
645.697	34.87
645.887	35.2
646.076	35.14
646.266	35.04
646.456	35.19
646.645	35.07
646.835	35.1
647.024	35.11
647.214	34.91
647.403	35.26
647.593	35.14
647.782	35.31
647.972	35.07
648.161	35.05
648.351	35.08
648.54	35.06
648.73	35.14
648.919	35.13
649.108	35.15
649.298	35.42
649.487	35.33
649.677	35.41
649.866	35.46
650.055	35.58
650.244	35.84
650.434	35.9
650.623	35.97
650.812	35.98
651.002	36.08
651.191	36.3
651.38	36.25
651.569	36.42
651.758	36.32
651.947	36.19
652.137	35.98
652.326	35.91
652.515	35.92
652.704	35.73
652.893	35.9
653.082	35.6
653.271	35.52
653.46	35.48
653.649	35.44
653.838	35.42
654.027	35.48
654.216	35.54
654.405	35.65
654.594	35.76
654.783	35.89
654.972	35.79
655.161	35.98
655.35	35.7
655.539	35.58
655.728	35.36
655.916	35.36
656.105	35.23
656.294	35.48
656.483	35.34
656.672	35.22
656.86	35.1
657.049	34.91
657.238	34.82
657.427	34.96
657.615	35
657.804	35.08
657.993	34.88
658.181	34.97
658.37	34.83
658.559	34.99
658.747	34.97
658.936	35.02
659.125	35.09
659.313	35.16
659.502	35.24
659.69	35.26
659.879	35.28
660.067	35.55
660.256	35.55
660.444	35.62
660.633	35.67
660.821	35.54
661.01	35.82
661.198	35.9
661.387	35.91
661.575	36.04
661.763	36.07
661.952	36.26
662.14	36.38
662.328	36.47
662.517	36.59
662.705	36.46
662.893	36.64
663.082	36.47
663.27	36.62
663.458	36.9
663.646	37.01
663.834	37.23
664.023	37.07
664.211	37.12
664.399	37.38
664.587	37.58
664.775	37.53
664.963	37.83
665.152	37.95
665.34	37.65
665.528	37.84
665.716	37.55
665.904	37.51
666.092	37.72
666.28	37.57
666.468	37.37
666.656	37.32
666.844	37.49
667.032	37.43
667.22	37.29
667.408	37.61
667.596	37.41
667.784	37.37
667.971	37.29
668.159	37.17
668.347	37.25
668.535	37.05
668.723	37.29
668.911	37.25
669.098	37.21
669.286	37.21
669.474	37.12
669.662	37.04
669.849	37.13
670.037	37.31
670.225	37.43
670.413	37.59
670.6	38.02
670.788	37.78
670.976	37.74
671.163	37.59
671.351	37.54
671.538	37.91
671.726	37.92
671.913	37.73
672.101	37.57
672.289	37.63
672.476	37.46
672.664	37.36
672.851	37.48
673.039	37.48
673.226	37.74
673.413	37.84
673.601	37.49
673.788	37.92
673.976	38.29
674.163	38.39
674.35	38.44
674.538	38.51
674.725	38.7
674.912	38.53
675.1	38.68
675.287	38.48
675.474	38.54
675.662	38.59
675.849	38.4
676.036	38.53
676.223	38.62
676.411	38.47
676.598	38.31
676.785	38.05
676.972	38.17
677.159	37.89
677.346	37.8
677.533	37.85
677.721	37.68
677.908	37.52
678.095	37.36
678.282	37.17
678.469	36.99
678.656	37.11
678.843	37.31
679.03	37.33
679.217	37.67
679.404	37.83
679.591	37.55
679.778	37.6
679.964	37.57
680.151	37.59
680.338	37.66
680.525	37.98
680.712	37.85
680.899	37.82
681.086	37.82
681.272	37.77
681.459	37.79
681.646	38.18
681.833	38.25
682.02	38.25
682.206	38.42
682.393	38.58
682.58	38.47
682.766	38.87
682.953	39.05
683.14	38.78
683.326	39.03
683.513	39.37
683.7	39.25
683.886	39.37
684.073	39.65
684.259	39.28
684.446	39.48
684.632	39.39
684.819	39.24
685.005	39.29
685.192	39.68
685.378	39.51
685.565	39.2
685.751	39.35
685.938	39.29
686.124	39.08
686.31	39.31
686.497	38.97
686.683	39.06
686.87	39.07
687.056	38.85
687.242	38.61
687.429	38.63
687.615	38.62
687.801	38.53
687.987	38.64
688.174	38.68
688.36	38.73
688.546	39.06
688.732	39.07
688.918	39.03
689.105	39.14
689.291	39.44
689.477	39.4
689.663	39.49
689.849	39.5
690.035	39.35
690.221	39.59
690.407	39.75
690.593	39.6
690.779	39.56
690.965	39.56
691.151	39.65
691.337	39.67
691.523	39.78
691.709	39.7
691.895	39.8
692.081	40.02
692.267	40.21
692.453	40.21
692.639	40.25
692.825	40.51
693.011	40.53
693.196	40.21
693.382	40.08
693.568	40.29
693.754	40.68
693.94	40.65
694.125	40.64
694.311	40.29
694.497	40.26
694.682	40.1
694.868	39.87
695.054	40.15
695.239	40.49
695.425	40.66
695.611	40.41
695.796	40.1
695.982	40.05
696.168	39.91
696.353	39.73
696.539	39.36
696.724	39.29
696.91	39.12
697.095	38.69
697.281	38.53
697.466	38.35
697.652	38.12
697.837	37.96
698.023	37.87
698.208	37.64
698.393	37.81
698.579	37.95
698.764	37.93
698.949	38.04
699.135	38.06
699.32	38.07
699.505	37.96
699.691	38.2
699.876	38.39
700.061	38.53
700.246	38.73
700.432	38.71
700.617	38.65
700.802	38.81
700.987	39.1
701.172	39.31
701.358	39.59
701.543	39.74
701.728	39.75
701.913	39.76
702.098	40.07
702.283	40.53
702.468	40.64
702.653	41.16
702.838	41.36
703.023	41.61
703.208	41.96
703.393	42.13
703.578	42.57
703.763	42.97
703.948	43.27
704.133	43.37
704.318	43.63
704.503	43.77
704.688	44.01
704.873	44.35
705.057	44.43
705.242	44.75
705.427	44.47
705.612	44.59
705.797	44.79
705.981	44.65
706.166	45.14
706.351	45.28
706.536	45.54
706.72	45.28
706.905	45.49
707.09	45.51
707.274	45.34
707.459	45.64
707.644	45.76
707.828	45.44
708.013	45.8
708.197	45.36
708.382	45.01
708.567	45.08
708.751	45.01
708.936	44.74
709.12	44.5
709.305	44.6
709.489	44.28
709.673	43.92
709.858	43.88
710.042	43.9
710.227	43.61
710.411	43.64
710.596	43.67
710.78	44.31
710.964	44.48
711.149	44.55
711.333	44.56
711.517	44.54
711.702	44.67
711.886	44.33
712.07	44.05
712.254	44.23
712.438	44.35
712.623	44.15
712.807	43.4
712.991	43.06
713.175	42.85
713.359	42.52
713.544	42.69
713.728	42.7
713.912	42.92
714.096	42.62
714.28	42.16
714.464	41.71
714.648	41.51
714.832	41.57
715.016	41.19
715.2	41.36
715.384	41.48
715.568	41.44
715.752	41.27
715.936	41.32
716.12	41.08
716.304	41.7
716.488	41.75
716.671	41.77
716.855	41.71
717.039	42.15
717.223	41.83
717.407	41.52
717.59	41.45
717.774	41.55
717.958	41.57
718.142	41.94
718.325	41.33
718.509	41.59
718.693	41.27
718.877	41.31
719.06	41.37
719.244	41.38
719.428	41.85
719.611	41.93
719.795	41.92
719.978	42.17
720.162	42.37
720.345	42.74
720.529	42.95
720.713	43.5
720.896	43.46
721.08	43.38
721.263	43.54
721.446	43.57
721.63	43.43
721.813	43.81
721.997	43.85
722.18	43.97
722.364	44.15
722.547	43.96
722.73	43.99
722.914	44.4
723.097	44.2
723.28	44.71
723.464	44.61
723.647	44.87
723.83	44.48
724.013	44.06
724.197	43.94
724.38	44.06
724.563	43.99
724.746	43.96
724.929	43.36
725.112	43.3
725.296	42.57
725.479	42.24
725.662	42.31
725.845	42.52
726.028	42.81
726.211	42.8
726.394	42.21
726.577	42.39
726.76	42.42
726.943	42.47
727.126	42.3
727.309	42.62
727.492	42.68
727.675	42.96
727.858	42.73
728.041	42.31
728.224	42.19
728.407	42.57
728.589	42.32
728.772	41.9
728.955	41.87
729.138	42.04
729.321	41.89
729.503	41.95
729.686	41.61
729.869	41.63
730.052	41.75
730.234	41.61
730.417	41.82
730.6	41.86
730.782	42.15
730.965	42.25
731.148	42.31
731.33	42.4
731.513	42.33
731.695	42.14
731.878	42.01
732.061	42.06
732.243	42.33
732.426	42.1
732.608	42.32
732.791	42.18
732.973	42.17
733.156	42.38
733.338	42.35
733.52	42.66
733.703	42.51
733.885	42.64
734.068	42.7
734.25	43.11
734.432	43.65
734.615	43.63
734.797	43.61
734.979	43.84
735.162	43.77
735.344	43.69
735.526	44.05
735.708	45.02
735.891	45.27
736.073	45.86
736.255	45.82
736.437	45.5
736.619	45.57
736.802	45.94
736.984	45.92
737.166	46.77
737.348	47.14
737.53	46.44
737.712	46
737.894	45.81
738.076	45.27
738.258	44.9
738.44	44.86
738.622	44.32
738.804	44.51
738.986	44.76
739.168	44.03
739.35	44.47
739.532	45.03
739.714	45.2
739.896	45.17
740.078	46.01
740.259	46.19
740.441	46.26
740.623	47.29
740.805	47.35
740.987	46.9
741.168	47.14
741.35	46.7
741.532	46.65
741.714	46.46
741.895	46.83
742.077	46.46
742.259	46.94
742.44	46.69
742.622	46.16
742.804	45.89
742.985	46.59
743.167	46.42
743.348	45.8
743.53	45.54
743.711	46.14
743.893	46.16
744.075	45.94
744.256	45.89
744.438	46.54
744.619	47.04
744.8	46.94
744.982	47.42
745.163	47.5
745.345	48.01
745.526	48.24
745.707	47.97
745.889	48.35
746.07	48.36
746.252	48.09
746.433	47.61
746.614	46.79
746.795	46.84
746.977	46.13
747.158	46.67
747.339	47.11
747.52	47.26
747.702	47.14
747.883	46.69
748.064	46.36
748.245	46.65
748.426	46.71
748.607	48.06
748.788	48.41
748.97	48.82
749.151	48.48
749.332	48.45
749.513	47.93
749.694	47.77
749.875	48.32
750.056	48.8
750.237	48.85
750.418	48.94
750.599	48.18
750.78	47.79
750.96	47.8
751.141	47.48
751.322	47.74
751.503	47.88
751.684	48.05
751.865	47.59
752.046	47.83
752.226	47.51
752.407	47.76
752.588	47.83
752.769	48
752.949	47.8
753.13	48.41
753.311	47.72
753.492	48.07
753.672	48.28
753.853	48.32
754.034	48.46
754.214	48.78
754.395	48.63
754.575	48.8
754.756	49.47
754.937	49.09
755.117	48.93
755.298	49.85
755.478	49.39
755.659	49.3
755.839	49.26
756.02	49.06
756.2	48.61
756.381	48.17
756.561	47.75
756.741	46.84
756.922	46.87
757.102	46.58
757.283	46.3
757.463	46.91
757.643	46.92
757.823	46.34
758.004	45.59
758.184	45.96
758.364	46.59
758.545	45.64
758.725	45.66
758.905	46.02
759.085	46.32
759.265	45.48
759.446	44.94
759.626	44.32
759.806	44.59
759.986	44.57
760.166	44.02
760.346	43.26
760.526	43.76
760.706	43.75
760.886	43.08
761.066	43.09
761.246	43.6
761.426	43.94
761.606	44.35
761.786	44.2
761.966	44
762.146	43.56
762.326	43.62
762.506	43.66
762.686	43.49
762.866	42.97
763.046	42.47
763.225	42.23
763.405	42.38
763.585	41.41
763.765	41.42
763.945	41.27
764.124	40.7
764.304	40.58
764.484	40.59
764.664	40.82
764.843	41.13
765.023	41.1
765.203	41.62
765.382	41.53
765.562	42.36
765.741	42.14
765.921	42.71
766.101	44.17
766.28	44.3
766.46	44.76
766.639	44.64
766.819	45.61
766.998	45.87
767.178	45.98
767.357	45.69
767.537	46.28
767.716	46.98
767.896	47.19
768.075	46.91
768.254	47.89
768.434	48.24
768.613	49
768.792	48.85
768.972	49.78
769.151	49.38
769.33	49.37
769.51	48.74
769.689	49.39
769.868	49.71
770.047	49.98
770.226	49.45
770.406	49.02
770.585	48.74
770.764	48.99
770.943	48.46
771.122	48.14
771.301	48.41
771.48	49.79
771.66	48.62
771.839	48
772.018	48.8
772.197	48.58
772.376	49.52
772.555	50.39
772.734	49.17
772.913	49.01
773.092	49.32
773.271	50.14
773.449	49.09
773.628	50.03
773.807	50.42
773.986	50.07
774.165	50.87
774.344	49.86
774.523	49.33
774.701	50.54
774.88	51.93
775.059	52.79
775.238	51.56
775.417	51.52
775.595	51.91
775.774	51.78
775.953	51.47
776.131	51.2
776.31	51.4
776.489	50.72
776.667	50.86
776.846	49.86
777.025	49.55
777.203	49.63
777.382	50.04
777.56	49.69
777.739	49.82
777.917	49.8
778.096	50.75
778.274	51.09
778.453	52.29
778.631	52.12
778.81	52.55
778.988	51.63
779.166	52.08
779.345	51.93
779.523	51.44
779.702	52.02
779.88	52.04
780.058	50.86
780.237	51.39
780.415	51.24
780.593	51.29
780.771	51.11
780.95	51.5
781.128	52.12
781.306	52.8
781.484	53.68
781.662	52.26
781.841	52.49
782.019	52.26
782.197	51.14
782.375	50.44
782.553	50.16
782.731	50.84
782.909	52.23
783.087	51.88
783.265	51.29
783.443	50.79
783.621	52.39
783.799	52.11
783.977	52.79
784.155	53.91
784.333	54.65
784.511	54.64
784.689	53.51
784.867	52.69
785.045	52.38
785.223	53.04
785.4	53.02
785.578	52.72
785.756	52.82
785.934	52.71
786.112	51.28
786.289	50.98
786.467	50.77
786.645	50.7
786.823	49.99
787	49.19
787.178	48.66
787.356	48.64
787.533	47.9
787.711	47.66
787.889	47.3
788.066	47.64
788.244	46.97
788.421	46.97
788.599	46.15
788.776	46.87
788.954	47.89
789.131	47.62
789.309	47.91
789.486	49.21
789.664	50.53
789.841	50.58
790.019	50.46
790.196	50.85
790.373	50.52
790.551	51.7
790.728	51.79
790.906	51.84
791.083	52.31
791.26	52.4
791.437	51.65
791.615	51.18
791.792	52.25
791.969	53.55
792.146	53.67
792.324	54.8
792.501	54.28
792.678	54.43
792.855	54.34
793.032	53.92
793.209	53.98
793.387	53.28
793.564	52.67
793.741	53.5
793.918	52.97
794.095	52.78
794.272	51.86
794.449	52.45
794.626	52.59
794.803	52.64
794.98	52.93
795.157	52.15
795.334	52.81
795.511	52.37
795.688	50.07
795.864	50.16
796.041	49.97
796.218	49.75
796.395	49.23
796.572	48.49
796.749	48.31
796.925	48.01
797.102	47.6
797.279	47.95
797.456	48.27
797.632	48.05
797.809	47.61
797.986	48.03
798.162	49.08
798.339	48.45
798.516	49.01
798.692	49.37
798.869	49.43
799.046	49.9
799.222	49.34
799.399	49.64
799.575	50.8
799.752	51.57
799.928	50.74
800.105	50.06
800.281	51.12
800.458	50.84
800.634	50.49
800.811	50.22
800.987	50.71
801.163	50.06
801.34	50.11
801.516	50.2
801.692	48.95
801.869	50.02
802.045	50.72
802.221	50.25
802.398	49.82
802.574	49.79
802.75	49.94
802.926	49.93
803.103	50.11
803.279	49.15
803.455	49.14
803.631	50.2
803.807	51.05
803.983	50.61
804.16	51.61
804.336	52.04
804.512	52.04
804.688	53.44
804.864	53.17
805.04	54.33
805.216	53.75
805.392	54.32
805.568	53.88
805.744	53.13
805.92	53.1
806.096	52.51
806.272	51.79
806.448	52.17
806.623	50.5
806.799	50.95
806.975	50.82
807.151	52.11
807.327	51.71
807.503	52.93
807.678	52.22
807.854	51.84
808.03	52.55
808.206	54.14
808.381	54.86
808.557	55.93
808.733	56.44
808.908	55.32
809.084	55.15
809.26	54.4
809.435	54.62
809.611	54.96
809.787	54.63
809.962	55.69
810.138	54.98
810.313	54.68
810.489	54.66
810.664	53.67
810.84	55.07
811.015	54.43
811.191	54.79
811.366	52.83
811.542	52.27
811.717	53.53
811.892	51.83
812.068	52.03
812.243	50.66
812.419	51.04
812.594	50.73
812.769	50.65
812.944	51.01
813.12	50.39
813.295	49.58
813.47	50.02
813.645	47.93
813.821	47.73
813.996	45.96
814.171	46.65
814.346	45.62
814.521	46.99
814.697	46.93
814.872	47.33
815.047	48.61
815.222	49.26
815.397	49
815.572	50.86
815.747	49.94
815.922	50.41
816.097	50.44
816.272	50.16
816.447	50.25
816.622	49.64
816.797	49.8
816.972	48.06
817.147	49.62
817.322	48.32
817.496	48.05
817.671	48.34
817.846	49.1
818.021	47.76
818.196	47.72
818.371	47.17
818.545	47.35
818.72	46.05
818.895	47.74
819.069	44.41
819.244	44.23
819.419	42.67
819.594	42.56
819.768	41.46
819.943	41.86
820.117	40.59
820.292	39.28
820.467	38.03
820.641	38.15
820.816	36.72
820.99	37.16
821.165	36.62
821.339	36.33
821.514	35.52
821.688	35.3
821.863	34.51
822.037	34.21
822.212	33.64
822.386	33.49
822.56	33
822.735	32.89
822.909	32.9
823.084	32.85
823.258	32.85
823.432	32.71
823.606	32.4
823.781	32.69
823.955	32.88
824.129	33.25
824.303	33.36
824.478	33.44
824.652	33.72
824.826	33.53
825	33.98
825.174	34.24
825.348	34.98
825.523	35.13
825.697	35.2
825.871	35.21
826.045	35.5
826.219	35.75
826.393	36.09
826.567	35.64
826.741	35.63
826.915	34.95
827.089	34.95
827.263	34.54
827.437	34.92
827.611	34.85
827.784	34.85
827.958	34.56
828.132	34.39
828.306	34.37
828.48	34.56
828.654	35.16
828.827	36.58
829.001	36.35
829.175	37.99
829.349	38.73
829.522	39.23
829.696	40.06
829.87	40.26
830.044	41.24
830.217	42.4
830.391	43.87
830.565	43.1
830.738	42.65
830.912	44.15
831.085	43.02
831.259	42.62
831.432	43.82
831.606	43.36
831.779	44.15
831.953	43.86
832.126	42.02
832.3	41.28
832.473	41.31
832.647	39.85
832.82	39.23
832.994	38.51
833.167	39.15
833.34	37.8
833.514	37.62
833.687	37.55
833.86	37.12
834.034	37.54
834.207	37.76
834.38	38.19
834.553	38.52
834.727	38.33
834.9	38.42
835.073	37.88
835.246	38.27
835.419	39.23
835.593	39.64
835.766	39.95
835.939	40.51
836.112	40.84
836.285	41.1
836.458	42.96
836.631	44.23
836.804	45.34
836.977	46.89
837.15	48.74
837.323	49.49
837.496	50.11
837.669	50.42
837.842	51.16
838.015	51.17
838.188	51.89
838.361	51.03
838.533	50.94
838.706	50.03
838.879	49.24
839.052	48.95
839.225	47.51
839.398	47.75
839.57	49.74
839.743	48.97
839.916	50.64
840.088	49.17
840.261	47.88
840.434	49.25
840.607	50.4
840.779	49.24
840.952	48.61
841.124	48.06
841.297	47.7
841.47	47.33
841.642	48.27
841.815	46.52
841.987	48.9
842.16	51.12
842.332	51.29
842.505	53.6
842.677	54.94
842.85	54.54
843.022	56.05
843.194	60.78
843.367	63.33
843.539	64.53
843.712	67.31
843.884	66.16
844.056	65.33
844.229	64.36
844.401	63.22
844.573	66.66
844.745	71.15
844.918	73.17
845.09	70.19
845.262	70.57
845.434	73.22
845.606	72.88
845.779	75.81
845.951	76.63
846.123	74.04
846.295	74.58
846.467	72.12
846.639	72.28
846.811	69.79
846.983	68.93
847.155	66.46
847.327	66.01
847.499	66.85
847.671	67.12
847.843	69.03
848.015	73.21
848.187	71.39
848.359	71.94
848.531	72.09
848.703	72.2
848.875	72.81
849.047	74.39
849.218	72.97
849.39	72.39
849.562	71.34
849.734	68.15
849.905	68.03
850.077	69.79
850.249	72.12
850.421	71.46
850.592	76.89
850.764	80.86
850.936	83.48
851.107	84.82
851.279	84.79
851.451	84.3
851.622	87.79
851.794	90.52
851.965	93.61
852.137	93.77
852.308	96.1
852.48	93.7
852.651	88.73
852.823	87
852.994	87.16
853.166	85.69
853.337	86.41
853.509	85.08
853.68	85.59
853.851	80.67
854.023	84.52
854.194	80.25
854.365	78.35
854.537	81.77
854.708	83
854.879	80.21
855.05	84.81
855.222	82.83
855.393	84.6
855.564	84.19
855.735	86.88
855.906	82.23
856.078	81.32
856.249	79.84
856.42	77.01
856.591	73.05
856.762	77.86
856.933	74.04
857.104	77.33
857.275	75.44
857.446	71.47
857.617	75.3
857.788	78.17
857.959	79.15
858.13	82.63
858.301	80.36
858.472	80.54
858.643	75.62
858.814	78.94
858.985	80.15
859.155	81.46
859.326	84.14
859.497	81.4
859.668	78.79
859.839	83.23
860.009	81.34
860.18	83.42
860.351	80.94
860.522	86.22
860.692	83.03
860.863	77.95
861.034	78.55
861.204	75.55
861.375	74.93
861.546	71.92
861.716	73.65
861.887	74.84
862.057	76.89
862.228	80.49
862.398	78.7
862.569	76.19
862.739	80.86
862.91	80.7
863.08	80.27
863.251	78.08
863.421	78.19
863.592	71.42
863.762	72.17
863.932	69.42
864.103	68.43
864.273	68.19
864.443	69.83
864.614	68.15
864.784	66.64
864.954	69.77
865.125	71.46
865.295	72.45
865.465	76.66
865.635	79.22
865.805	81.76
865.976	81.77
866.146	81.05
866.316	83.59
866.486	85.29
866.656	84.98
866.826	85.32
866.996	87.65
867.166	90.73
867.336	94.44
867.506	93.29
867.676	95.29
867.846	97.88
868.016	97.19
868.186	89.13
868.356	83.46
868.526	80.45
868.696	79.83
868.866	77.12
869.036	79.57
869.206	77.96
869.376	76.67
869.545	70.2
869.715	70.01
869.885	70.21
870.055	75.02
870.224	71.75
870.394	79.91
870.564	80.32
870.734	81.39
870.903	76.51
871.073	76.93
871.243	76.91
871.412	81.89
871.582	83.02
871.751	83.72
871.921	81.92
872.091	84.28
872.26	79.22
872.43	79.4
872.599	74.34
872.769	75.54
872.938	74.08
873.108	73.53
873.277	70.72
873.446	67.61
873.616	69.69
873.785	73.69
873.955	74.83
874.124	76.86
874.293	76.3
874.463	81.13
874.632	80.07
874.801	78.6
874.971	82.24
875.14	84.22
875.309	77.37
875.478	77.51
875.647	70.83
875.817	73.99
875.986	71.78
876.155	75.56
876.324	70.63
876.493	72.79
876.662	73.02
876.831	72.69
877	69.63
877.17	76.22
877.339	74.69
877.508	76.4
877.677	72.52
877.846	71.99
878.015	67.98
878.184	70.01
878.352	70.55
878.521	69.06
878.69	67.25
878.859	68.78
879.028	68.11
879.197	66.58
879.366	65.09
879.534	62.41
879.703	58.8
879.872	55.22
880.041	52.55
880.21	46.92
880.378	45.01
880.547	41.23
880.716	39.1
880.884	37.64
881.053	35.14
881.222	33.52
881.39	31.84
881.559	31.64
881.727	30.33
881.896	30.53
882.065	30.53
882.233	29.47
882.402	28.87
882.57	29.32
882.739	29.13
882.907	29.98
883.076	30.33
883.244	31.17
883.412	31.28
883.581	31.79
883.749	31.5
883.918	31.63
884.086	32.98
884.254	34.66
884.423	34.45
884.591	34.88
884.759	35.2
884.927	37.3
885.096	38.03
885.264	38.46
885.432	39.54
885.6	40.91
885.769	44.3
885.937	45.93
886.105	49.52
886.273	52.46
886.441	56.01
886.609	56.04
886.777	55.8
886.945	57.92
887.113	63.78
887.281	66.59
887.449	68.69
887.617	67.87
887.785	69.59
887.953	66.96
888.121	67.21
888.289	65.25
888.457	66.94
888.625	68.79
888.793	70.13
888.961	69.24
889.129	73.22
889.296	72.62
889.464	72.16
889.632	71.58
889.8	70.87
889.967	72.61
890.135	78.86
