Data from 2938849__Reflection_03.txt Node
Date: Wed Mar 11 13:25:51 EDT 2015
User: robert
Spectrometer: USB4E03002
Autoset integration time: false
Trigger mode: 4
Integration Time (sec): 1.000000E-1
Scans to average: 10
Electric dark correction enabled: false
Nonlinearity correction enabled: false
Boxcar width: 5
Stray light correction enabled: false
XAxis mode: Wavelengths
Stop averaging: false
Number of Pixels in Spectrum: 3648
>>>>>Begin Spectral Data<<<<<
177.575	1511.11
177.794	-820.83
178.014	-260.27
178.233	-702.94
178.452	-474.45
178.672	-184.15
178.891	-140.05
179.11	-82.79
179.33	-87.99
179.549	-115.62
179.768	-178.37
179.987	-160.73
180.207	-91.34
180.426	-121.08
180.645	-75.42
180.864	14.56
181.084	-72.87
181.303	-402.38
181.522	-216.81
181.741	-201.78
181.96	-296.45
182.179	-1017.24
182.398	-621.18
182.618	871.43
182.837	1266.15
183.056	1995.74
183.275	368.21
183.494	297.97
183.713	528.48
183.932	285.47
184.151	281.87
184.37	300
184.589	511.92
184.808	633.58
185.027	-1590.48
185.246	-646.67
185.465	-167.53
185.684	-77.1
185.903	-152.94
186.122	-109.11
186.341	-103.97
186.56	-79.26
186.779	-48.84
186.998	-21.56
187.216	10.4
187.435	3.83
187.654	-4.98
187.873	-4
188.092	-13.67
188.311	3.24
188.53	16.64
188.748	15.75
188.967	15.67
189.186	10.48
189.405	6.51
189.623	-2.47
189.842	-5.71
190.061	7.39
190.28	5.21
190.498	4.72
190.717	-4.35
190.936	-19.65
191.154	-5.32
191.373	-9.39
191.592	-25.61
191.81	-29.45
192.029	-42.22
192.248	-83.19
192.466	-137.94
192.685	-133.67
192.904	-144.44
193.122	-71.63
193.341	-98.6
193.559	-172
193.778	-432.1
193.996	-182.84
194.215	-190.85
194.433	-84.47
194.652	-67.71
194.87	-67.35
195.089	-64.33
195.307	-52.75
195.526	-130.86
195.744	-53.79
195.963	-42.93
196.181	-19.67
196.399	-22.47
196.618	-24.62
196.836	-38.62
197.055	-3.4
197.273	19.12
197.491	-7.38
197.71	-26.71
197.928	-5.15
198.146	-29.79
198.365	-53.76
198.583	-53.29
198.801	-36.37
199.019	-22.4
199.238	-14.39
199.456	-38.68
199.674	-62.03
199.892	-18.68
200.111	-6.88
200.329	-10.7
200.547	-0.13
200.765	2.36
200.983	10.41
201.202	-10.14
201.42	0
201.638	-3.91
201.856	-10.7
202.074	-53.04
202.292	-70.86
202.51	-96.84
202.728	-137.14
202.946	-119.62
203.165	-118.87
203.383	-74.77
203.601	-102.04
203.819	-129.62
204.037	-157.91
204.255	-63.95
204.473	-50.74
204.691	-49.4
204.909	-41.87
205.127	-43.65
205.345	-64.06
205.562	-26.89
205.78	-63.62
205.998	-132.64
206.216	-151.46
206.434	-61.59
206.652	-51.24
206.87	-17.04
207.088	6.52
207.306	4.95
207.523	1.4
207.741	-5.07
207.959	-16.23
208.177	-17.11
208.395	3.54
208.612	8.95
208.83	-11.02
209.048	-31.47
209.266	-29.13
209.483	-60.26
209.701	-86.6
209.919	-37.69
210.136	-22.43
210.354	-18.79
210.572	-17.31
210.79	-10.08
211.007	-24.95
211.225	-20.36
211.442	-9.29
211.66	-44.59
211.878	-40.2
212.095	-6.91
212.313	-34.3
212.53	-26.55
212.748	-22.66
212.966	-23.52
213.183	-20.55
213.401	-3.05
213.618	-15.21
213.836	-9.83
214.053	-2.02
214.271	-1.07
214.488	-11.84
214.705	-21.67
214.923	-35.14
215.14	-51.12
215.358	-38.4
215.575	-35.64
215.793	-54.09
216.01	-63.59
216.227	-70.34
216.445	-56.94
216.662	-53.04
216.879	-47.04
217.097	-24.43
217.314	-15.32
217.531	-13.4
217.749	-12.25
217.966	-12.26
218.183	-0.68
218.4	5.4
218.618	2.58
218.835	-1.7
219.052	-2.02
219.269	-0.2
219.487	-7.84
219.704	-5.88
219.921	5.16
220.138	5.77
220.355	8.93
220.572	4.93
220.79	3.94
221.007	1.6
221.224	-6.67
221.441	-6.44
221.658	1.51
221.875	1.95
222.092	2.45
222.309	-8.08
222.526	-8.48
222.743	-13.12
222.96	-16.88
223.177	-19.27
223.394	-20.79
223.611	-13.87
223.828	-9.22
224.045	-12
224.262	-3.88
224.479	-4.75
224.696	-0.2
224.913	3.05
225.13	4.71
225.347	3.5
225.564	6.4
225.781	8.3
225.997	10.09
226.214	11.44
226.431	9.77
226.648	5.83
226.865	5.4
227.082	7.43
227.298	5.49
227.515	5.27
227.732	6.75
227.949	6.41
228.165	6.95
228.382	6.5
228.599	5.62
228.816	5.99
229.032	6.38
229.249	6.3
229.466	5.58
229.682	5.04
229.899	5.02
230.116	4.62
230.332	3.96
230.549	3.38
230.765	2.54
230.982	2.18
231.199	1.31
231.415	0.66
231.632	0.45
231.848	-1.26
232.065	0.95
232.281	1.93
232.498	1.56
232.714	2.71
232.931	2.95
233.147	3.02
233.364	2.79
233.58	3.71
233.797	3.26
234.013	3.91
234.23	5.91
234.446	5.11
234.662	3
234.879	1.73
235.095	1.24
235.312	1.75
235.528	1.32
235.744	2.16
235.961	1.44
236.177	1.34
236.393	0.83
236.61	0.93
236.826	2
237.042	3.53
237.258	4.15
237.475	5.01
237.691	4.52
237.907	6.55
238.123	6.86
238.339	7.58
238.556	8.02
238.772	6.55
238.988	5.64
239.204	3.82
239.42	3.88
239.636	5.59
239.853	5.06
240.069	5.45
240.285	5.8
240.501	5.87
240.717	5.92
240.933	5.78
241.149	6.53
241.365	6.93
241.581	6.8
241.797	6.68
242.013	6.63
242.229	6.84
242.445	7.21
242.661	6.82
242.877	6.89
243.093	6.8
243.309	6.92
243.525	7.22
243.741	7.24
243.957	7.31
244.173	7.35
244.388	7.2
244.604	6.86
244.82	5.8
245.036	6.06
245.252	5.55
245.468	5.88
245.683	6.36
245.899	6.38
246.115	6.42
246.331	6.81
246.547	6.73
246.762	6.81
246.978	6.9
247.194	6.87
247.409	6.83
247.625	7
247.841	6.74
248.057	6.63
248.272	6.4
248.488	6.22
248.703	6.31
248.919	6.22
249.135	5.73
249.35	5.41
249.566	5.28
249.782	5.38
249.997	4.9
250.213	4.9
250.428	4.29
250.644	4.5
250.859	4.71
251.075	4.61
251.29	5
251.506	5.55
251.721	6.21
251.937	6.82
252.152	6.54
252.368	6.95
252.583	6.95
252.798	7.21
253.014	7.37
253.229	7.5
253.445	6.99
253.66	6.56
253.875	6.84
254.091	6.05
254.306	5.82
254.521	5.08
254.737	5.16
254.952	4.74
255.167	4.66
255.383	4.45
255.598	4.86
255.813	4.9
256.028	5.34
256.244	5.29
256.459	5.62
256.674	5.46
256.889	5.8
257.104	5.37
257.32	5.89
257.535	5.35
257.75	5.41
257.965	4.74
258.18	4.64
258.395	4.86
258.61	4.91
258.826	4.83
259.041	4.94
259.256	4.98
259.471	4.99
259.686	5.05
259.901	5.21
260.116	5.37
260.331	5.35
260.546	5.58
260.761	5.44
260.976	5.02
261.191	5.07
261.406	4.9
261.621	5.19
261.836	5.23
262.05	4.82
262.265	4.79
262.48	4.08
262.695	3.75
262.91	3.31
263.125	3.49
263.34	3.92
263.555	3.58
263.769	3.38
263.984	1.85
264.199	1.21
264.414	1.37
264.629	1.21
264.843	1.66
265.058	2.69
265.273	2.66
265.488	1.78
265.702	2.07
265.917	3.05
266.132	3.14
266.346	4.27
266.561	4.82
266.776	4.91
266.99	4.74
267.205	4.3
267.42	3.95
267.634	3.96
267.849	4.59
268.063	4.45
268.278	4
268.492	4.41
268.707	3.9
268.922	3.4
269.136	3.44
269.351	3.5
269.565	3.72
269.78	3.51
269.994	3.72
270.209	3.75
270.423	3.56
270.637	3.86
270.852	3.89
271.066	4.09
271.281	4.44
271.495	4.33
271.709	4.27
271.924	4.37
272.138	4.5
272.353	4.43
272.567	4.2
272.781	4.71
272.996	4.31
273.21	4.04
273.424	4.25
273.638	4.11
273.853	4.32
274.067	4.72
274.281	4.9
274.495	5.08
274.71	4.97
274.924	4.83
275.138	4.71
275.352	5.33
275.566	5.52
275.781	5.12
275.995	5.36
276.209	5.25
276.423	4.95
276.637	4.54
276.851	4.68
277.065	4.78
277.279	5.13
277.493	4.91
277.707	4.44
277.921	4.63
278.135	4.7
278.349	4.53
278.563	4.44
278.777	4.72
278.991	5.01
279.205	4.51
279.419	5.05
279.633	5.05
279.847	5.49
280.061	5.64
280.275	5.39
280.489	5.21
280.703	5.46
280.917	5.81
281.131	5.64
281.344	5.63
281.558	5.62
281.772	5.12
281.986	4.98
282.2	4.58
282.414	4.48
282.627	4.43
282.841	4.82
283.055	4.77
283.269	4.66
283.482	4.7
283.696	4.66
283.91	4.9
284.123	4.96
284.337	4.93
284.551	5.21
284.764	5.22
284.978	5.34
285.192	5.12
285.405	4.94
285.619	4.66
285.833	4.73
286.046	4.91
286.26	4.8
286.473	4.71
286.687	4.85
286.9	4.7
287.114	4.86
287.327	4.84
287.541	4.94
287.754	5.13
287.968	5.31
288.181	5.67
288.395	5.4
288.608	5.25
288.822	5.37
289.035	5.22
289.248	5.16
289.462	5.16
289.675	5.28
289.889	5.36
290.102	5.35
290.315	5.29
290.529	4.99
290.742	5.19
290.955	5.39
291.169	5.35
291.382	5.66
291.595	5.64
291.808	5.49
292.022	5.48
292.235	5.05
292.448	4.88
292.661	4.82
292.875	4.66
293.088	4.68
293.301	4.67
293.514	4.83
293.727	4.43
293.94	4.67
294.153	4.64
294.367	4.57
294.58	5.11
294.793	5.28
295.006	5.49
295.219	5.6
295.432	5.66
295.645	5.77
295.858	5.69
296.071	5.99
296.284	6.17
296.497	6.33
296.71	6.52
296.923	6.46
297.136	6.4
297.349	6.33
297.562	6.48
297.775	6.65
297.988	6.81
298.201	6.92
298.414	6.98
298.626	6.83
298.839	6.7
299.052	6.76
299.265	6.63
299.478	6.73
299.691	6.96
299.903	6.91
300.116	6.74
300.329	6.68
300.542	6.82
300.755	7
300.967	7.08
301.18	7.26
301.393	7.12
301.605	7.59
301.818	7.59
302.031	7.85
302.243	7.94
302.456	7.94
302.669	7.66
302.881	7.96
303.094	8.18
303.307	7.99
303.519	7.86
303.732	7.71
303.944	7.33
304.157	7.38
304.37	7.14
304.582	6.96
304.795	6.99
305.007	7.3
305.22	7.37
305.432	7.07
305.645	7.16
305.857	7.29
306.069	7.45
306.282	7.71
306.494	7.91
306.707	7.92
306.919	8.27
307.132	8.22
307.344	8.43
307.556	7.95
307.769	7.83
307.981	8.15
308.193	8.37
308.406	8.55
308.618	8.63
308.83	8.67
309.043	8.94
309.255	8.85
309.467	8.93
309.679	8.87
309.892	8.92
310.104	9.17
310.316	9.08
310.528	9.3
310.74	9.23
310.953	9.11
311.165	9.15
311.377	9.09
311.589	9.03
311.801	8.99
312.013	8.99
312.225	9.18
312.437	9
312.649	9.15
312.862	8.81
313.074	8.86
313.286	8.74
313.498	8.82
313.71	8.65
313.922	8.95
314.134	9.04
314.346	8.95
314.558	8.74
314.77	8.57
314.982	8.18
315.193	8.17
315.405	7.95
315.617	8.21
315.829	7.72
316.041	7.62
316.253	7.02
316.465	6.9
316.677	6.79
316.888	6.81
317.1	7.03
317.312	7.31
317.524	7.65
317.736	7.28
317.947	7.68
318.159	8.07
318.371	8.21
318.583	8.75
318.794	9
319.006	9.39
319.218	9.49
319.43	9.47
319.641	9.35
319.853	8.97
320.064	9.45
320.276	8.67
320.488	8.61
320.699	8.37
320.911	8.81
321.123	8.84
321.334	8.88
321.546	9.06
321.757	8.89
321.969	9.16
322.18	9.22
322.392	9.33
322.603	9.77
322.815	9.85
323.026	9.95
323.238	9.13
323.449	9.17
323.661	9.19
323.872	9.18
324.083	9.43
324.295	9.44
324.506	9.46
324.718	9.3
324.929	9.28
325.14	9.19
325.352	9.35
325.563	9.81
325.774	9.8
325.986	9.5
326.197	9.33
326.408	9.19
326.62	9.08
326.831	9.42
327.042	9.52
327.253	9.43
327.464	9.54
327.676	9.41
327.887	9.29
328.098	9.35
328.309	9.55
328.52	9.58
328.732	9.5
328.943	9.58
329.154	9.5
329.365	9.65
329.576	9.91
329.787	10
329.998	10.19
330.209	10.12
330.42	10.01
330.631	9.99
330.842	10.22
331.053	10.4
331.264	10.22
331.475	10.41
331.686	10.59
331.897	10.51
332.108	10.18
332.319	10.04
332.53	10.12
332.741	10.07
332.952	9.81
333.163	10.19
333.374	10.29
333.585	10.1
333.795	10.29
334.006	10.06
334.217	9.87
334.428	10.43
334.639	10.49
334.849	10.39
335.06	10.47
335.271	10.52
335.482	10.03
335.692	9.81
335.903	10.1
336.114	9.8
336.325	9.9
336.535	10.14
336.746	9.92
336.957	10.06
337.167	10.45
337.378	10.51
337.589	10.77
337.799	10.99
338.01	11.28
338.22	10.92
338.431	11.11
338.642	10.81
338.852	10.71
339.063	10.36
339.273	10.43
339.484	10.11
339.694	10.03
339.905	9.78
340.115	9.79
340.326	9.71
340.536	10.05
340.746	9.8
340.957	10.05
341.167	9.92
341.378	10.39
341.588	10.05
341.799	10.39
342.009	10.44
342.219	10.53
342.43	10.57
342.64	10.44
342.85	10.36
343.061	10.55
343.271	10.51
343.481	10.7
343.691	10.43
343.902	10.88
344.112	10.6
344.322	10.63
344.532	10.72
344.743	10.54
344.953	10.62
345.163	10.63
345.373	10.47
345.583	10.61
345.793	10.76
346.004	11.1
346.214	10.95
346.424	10.86
346.634	10.78
346.844	10.95
347.054	10.64
347.264	10.61
347.474	10.77
347.684	10.65
347.894	10.49
348.104	10.21
348.314	9.82
348.524	9.41
348.734	9.48
348.944	9.33
349.154	8.92
349.364	9.29
349.574	9.22
349.784	9.16
349.994	8.92
350.204	8.8
350.413	8.85
350.623	8.69
350.833	8.89
351.043	8.81
351.253	8.73
351.463	8.93
351.672	8.66
351.882	8.64
352.092	8.62
352.302	9.08
352.511	9.17
352.721	9.07
352.931	9.39
353.141	9.35
353.35	9.5
353.56	9.77
353.77	9.76
353.979	10.07
354.189	10.2
354.399	9.97
354.608	10.01
354.818	10.2
355.027	10.27
355.237	10.16
355.447	10.27
355.656	10.28
355.866	9.85
356.075	9.79
356.285	9.71
356.494	9.66
356.704	9.89
356.913	9.85
357.123	9.56
357.332	9.73
357.542	9.76
357.751	9.66
357.96	9.71
358.17	10.1
358.379	10.19
358.589	10.04
358.798	10.04
359.007	9.9
359.217	9.79
359.426	9.98
359.635	9.9
359.845	9.72
360.054	9.83
360.263	9.81
360.472	9.87
360.682	9.66
360.891	9.73
361.1	9.78
361.309	9.85
361.519	9.92
361.728	9.8
361.937	9.69
362.146	9.85
362.355	9.89
362.564	9.76
362.774	9.77
362.983	9.95
363.192	9.92
363.401	9.97
363.61	10.02
363.819	9.82
364.028	9.93
364.237	10.05
364.446	10.15
364.655	10.09
364.864	10.06
365.073	9.93
365.282	9.81
365.491	9.94
365.7	9.79
365.909	9.77
366.118	9.91
366.327	9.98
366.536	9.91
366.745	9.61
366.954	9.59
367.162	9.62
367.371	9.36
367.58	9.2
367.789	9.22
367.998	9.29
368.207	9.27
368.415	8.97
368.624	8.83
368.833	8.91
369.042	8.91
369.25	8.73
369.459	8.64
369.668	8.81
369.877	8.92
370.085	8.69
370.294	8.68
370.503	8.77
370.711	9.02
370.92	8.97
371.129	8.85
371.337	8.88
371.546	8.97
371.754	8.92
371.963	8.89
372.171	8.9
372.38	8.65
372.589	8.54
372.797	8.32
373.006	8.2
373.214	8.31
373.423	8.24
373.631	8.17
373.84	8.15
374.048	8.16
374.256	8.27
374.465	8.24
374.673	8.44
374.882	8.55
375.09	8.52
375.298	8.44
375.507	8.15
375.715	8.14
375.923	8.01
376.132	8.15
376.34	8.23
376.548	8.08
376.757	7.97
376.965	8
377.173	8.01
377.381	8.13
377.59	8.2
377.798	8.26
378.006	8.3
378.214	8.48
378.423	8.39
378.631	8.3
378.839	8.26
379.047	8.27
379.255	8.3
379.463	8.19
379.671	8.2
379.879	8.04
380.088	8.07
380.296	8.04
380.504	8.07
380.712	7.94
380.92	7.77
381.128	7.55
381.336	7.75
381.544	7.88
381.752	7.78
381.96	7.63
382.168	7.69
382.376	7.5
382.584	7.51
382.791	7.43
382.999	7.14
383.207	7.23
383.415	7.35
383.623	6.96
383.831	6.75
384.039	6.74
384.247	6.61
384.454	6.78
384.662	6.85
384.87	6.7
385.078	6.52
385.285	6.77
385.493	6.67
385.701	6.57
385.909	6.97
386.116	6.94
386.324	7.01
386.532	7.14
386.739	6.95
386.947	6.91
387.155	7.01
387.362	7.14
387.57	7.07
387.778	6.97
387.985	7.01
388.193	6.91
388.4	6.72
388.608	6.6
388.816	6.58
389.023	6.43
389.231	6.47
389.438	6.42
389.646	6.4
389.853	6.38
390.061	6.57
390.268	6.66
390.475	6.58
390.683	6.63
390.89	6.67
391.098	6.6
391.305	6.61
391.512	6.63
391.72	6.67
391.927	6.44
392.135	6.49
392.342	6.41
392.549	6.36
392.756	6.34
392.964	6.4
393.171	6.39
393.378	6.42
393.586	6.34
393.793	6.03
394	5.97
394.207	6.13
394.414	5.98
394.622	5.88
394.829	5.79
395.036	5.61
395.243	5.65
395.45	5.6
395.657	5.55
395.864	5.58
396.072	5.73
396.279	5.63
396.486	5.61
396.693	5.6
396.9	5.7
397.107	5.64
397.314	5.75
397.521	5.49
397.728	5.33
397.935	5.25
398.142	5.2
398.349	5.26
398.556	5.12
398.763	4.97
398.97	4.89
399.177	4.88
399.383	4.94
399.59	5.05
399.797	5.17
400.004	5.31
400.211	5.37
400.418	5.36
400.625	5.4
400.831	5.49
401.038	5.35
401.245	5.43
401.452	5.39
401.658	5.38
401.865	5
402.072	5.09
402.279	4.88
402.485	4.75
402.692	4.78
402.899	4.73
403.105	4.82
403.312	5.04
403.519	5.17
403.725	4.97
403.932	4.89
404.138	4.94
404.345	4.91
404.552	4.93
404.758	4.9
404.965	4.94
405.171	4.88
405.378	4.81
405.584	4.74
405.791	4.64
405.997	4.87
406.204	4.96
406.41	4.93
406.617	4.84
406.823	4.86
407.029	4.96
407.236	4.95
407.442	4.94
407.649	4.86
407.855	4.8
408.061	4.68
408.268	4.55
408.474	4.42
408.68	4.64
408.887	4.48
409.093	4.48
409.299	4.49
409.505	4.41
409.712	4.4
409.918	4.48
410.124	4.56
410.33	4.56
410.537	4.49
410.743	4.54
410.949	4.53
411.155	4.61
411.361	4.66
411.567	4.65
411.773	4.74
411.98	4.75
412.186	4.67
412.392	4.76
412.598	4.95
412.804	5.06
413.01	5.02
413.216	5.08
413.422	5.12
413.628	4.93
413.834	4.74
414.04	4.6
414.246	4.64
414.452	4.71
414.658	4.68
414.864	4.55
415.07	4.58
415.275	4.64
415.481	4.56
415.687	4.64
415.893	4.77
416.099	4.82
416.305	4.84
416.511	4.73
416.716	4.65
416.922	4.66
417.128	4.65
417.334	4.72
417.539	4.71
417.745	4.67
417.951	4.6
418.157	4.6
418.362	4.69
418.568	4.57
418.774	4.62
418.979	4.63
419.185	4.53
419.391	4.57
419.596	4.55
419.802	4.52
420.008	4.53
420.213	3.92
420.419	3.89
420.624	3.83
420.83	3.9
421.035	3.85
421.241	3.86
421.446	3.84
421.652	3.83
421.857	3.74
422.063	3.73
422.268	3.68
422.474	4.29
422.679	4.37
422.885	4.33
423.09	4.4
423.295	4.43
423.501	4.42
423.706	4.41
423.911	4.36
424.117	4.4
424.322	4.51
424.527	4.57
424.733	4.59
424.938	4.52
425.143	4.51
425.349	4.47
425.554	4.51
425.759	4.5
425.964	4.5
426.169	4.54
426.375	4.4
426.58	4.31
426.785	4.23
426.99	4.14
427.195	4.18
427.4	4.22
427.605	4.15
427.811	4.09
428.016	4.12
428.221	4.14
428.426	4.17
428.631	4.42
428.836	4.41
429.041	4.41
429.246	4.4
429.451	4.38
429.656	4.36
429.861	4.45
430.066	4.4
430.271	4.32
430.476	4.37
430.681	4.31
430.886	4.22
431.09	4.15
431.295	4.14
431.5	4.16
431.705	4.21
431.91	4.18
432.115	4.19
432.32	4.31
432.524	4.41
432.729	4.34
432.934	4.29
433.139	4.24
433.343	4.39
433.548	4.44
433.753	4.42
433.958	4.42
434.162	4.51
434.367	4.44
434.572	4.42
434.776	4.38
434.981	4.43
435.186	4.43
435.39	4.46
435.595	4.34
435.799	4.28
436.004	4.23
436.209	4.25
436.413	4.12
436.618	4.15
436.822	4.14
437.027	4.13
437.231	4.22
437.436	4.33
437.64	4.32
437.845	4.32
438.049	4.27
438.253	4.32
438.458	4.19
438.662	4.27
438.867	4.24
439.071	4.29
439.275	4.32
439.48	4.26
439.684	4.19
439.888	4.19
440.093	4.19
440.297	4.25
440.501	4.21
440.706	4.26
440.91	4.23
441.114	4.26
441.318	4.13
441.523	4.07
441.727	4.08
441.931	4.08
442.135	4.06
442.339	4.05
442.543	3.99
442.748	3.87
442.952	3.85
443.156	3.73
443.36	3.71
443.564	3.8
443.768	3.83
443.972	3.81
444.176	3.91
444.38	3.86
444.584	3.87
444.788	3.86
444.992	3.99
445.196	4
445.4	4.03
445.604	4.11
445.808	4.09
446.012	4.08
446.216	4.02
446.42	3.94
446.624	3.97
446.828	3.89
447.032	3.91
447.235	3.86
447.439	3.92
447.643	3.95
447.847	3.91
448.051	3.92
448.254	3.88
448.458	3.9
448.662	3.91
448.866	3.95
449.069	4.04
449.273	4.05
449.477	4.05
449.681	4.02
449.884	4.06
450.088	4.05
450.292	4.05
450.495	4.06
450.699	4.08
450.902	4.12
451.106	4.15
451.31	4.12
451.513	4.17
451.717	4.23
451.92	4.2
452.124	4.16
452.327	4.11
452.531	4.16
452.734	4.17
452.938	4.18
453.141	4.18
453.345	4.08
453.548	4.17
453.752	4.11
453.955	4
454.158	4.01
454.362	3.97
454.565	4.04
454.769	3.96
454.972	4.09
455.175	4.11
455.379	4.07
455.582	4.09
455.785	3.92
455.988	3.96
456.192	4.04
456.395	4.02
456.598	4.16
456.801	4.08
457.005	4.11
457.208	4.02
457.411	3.94
457.614	4.04
457.817	4.08
458.021	4.16
458.224	4.1
458.427	4.06
458.63	4.03
458.833	3.95
459.036	3.99
459.239	3.93
459.442	3.96
459.645	3.95
459.848	3.96
460.051	3.91
460.254	3.91
460.457	3.95
460.66	3.96
460.863	4.01
461.066	4.06
461.269	3.99
461.472	4.03
461.675	3.96
461.878	3.96
462.081	3.87
462.284	3.96
462.486	3.99
462.689	4.01
462.892	4.07
463.095	4.05
463.298	4.04
463.5	4.16
463.703	4.19
463.906	4.13
464.109	4.16
464.311	4.11
464.514	3.99
464.717	3.82
464.92	3.76
465.122	3.81
465.325	3.86
465.528	3.8
465.73	3.83
465.933	3.72
466.135	3.74
466.338	3.82
466.541	3.82
466.743	3.85
466.946	3.92
467.148	3.97
467.351	3.96
467.553	3.93
467.756	4.01
467.958	3.93
468.161	3.95
468.363	4.02
468.566	3.9
468.768	3.96
468.971	4.06
469.173	4.12
469.375	4.14
469.578	4.14
469.78	4.09
469.983	4.13
470.185	4.11
470.387	4.07
470.59	4.12
470.792	4.22
470.994	4.14
471.196	3.99
471.399	4.01
471.601	4.02
471.803	3.99
472.005	4.03
472.208	3.94
472.41	3.94
472.612	3.96
472.814	3.94
473.016	3.9
473.218	3.92
473.421	4.04
473.623	3.91
473.825	3.87
474.027	3.93
474.229	3.89
474.431	3.86
474.633	3.87
474.835	3.96
475.037	3.95
475.239	4.03
475.441	4.03
475.643	3.92
475.845	4.05
476.047	4.1
476.249	4.03
476.451	4.07
476.653	4.16
476.855	4.18
477.057	4.16
477.258	4.14
477.46	4.1
477.662	4.12
477.864	4.12
478.066	4.15
478.268	4.17
478.469	4.12
478.671	4.17
478.873	4.12
479.075	4.1
479.276	4.07
479.478	4.04
479.68	4.02
479.882	4.03
480.083	4.06
480.285	4.03
480.487	3.97
480.688	4.02
480.89	4.01
481.091	4
481.293	4.06
481.495	4.02
481.696	4.1
481.898	4.14
482.099	4.13
482.301	4.13
482.502	4.11
482.704	4.13
482.905	4.11
483.107	4.09
483.308	4.09
483.51	4.04
483.711	4.05
483.913	4.06
484.114	4.05
484.315	4.05
484.517	4.04
484.718	4.05
484.92	4.03
485.121	4.03
485.322	4.02
485.524	4.02
485.725	4.02
485.926	4.03
486.127	3.99
486.329	3.96
486.53	3.94
486.731	3.94
486.932	3.95
487.134	3.95
487.335	3.96
487.536	3.98
487.737	3.98
487.938	3.98
488.139	3.97
488.341	3.95
488.542	3.96
488.743	4.01
488.944	4.02
489.145	4.04
489.346	4.06
489.547	4.03
489.748	4.04
489.949	4.06
490.15	4.1
490.351	4.12
490.552	4.16
490.753	4.21
490.954	4.19
491.155	4.2
491.356	4.17
491.557	4.14
491.758	4.2
491.959	4.2
492.159	4.18
492.36	4.17
492.561	4.15
492.762	4.13
492.963	4.08
493.164	4.09
493.364	4.09
493.565	4.14
493.766	4.19
493.967	4.14
494.167	4.1
494.368	4.13
494.569	4.15
494.769	4.17
494.97	4.16
495.171	4.19
495.371	4.24
495.572	4.22
495.773	4.18
495.973	4.13
496.174	4.14
496.375	4.18
496.575	4.2
496.776	4.23
496.976	4.27
497.177	4.29
497.377	4.28
497.578	4.2
497.778	4.16
497.979	4.19
498.179	4.22
498.38	4.22
498.58	4.27
498.78	4.26
498.981	4.21
499.181	4.11
499.382	4.2
499.582	4.19
499.782	4.27
499.983	4.37
500.183	4.4
500.383	4.4
500.584	4.49
500.784	4.47
500.984	4.53
501.184	4.7
501.385	4.91
501.585	4.95
501.785	5.03
501.985	5.04
502.185	5.05
502.386	5.06
502.586	5.16
502.786	5.15
502.986	5.16
503.186	5.1
503.386	5.08
503.586	5.08
503.786	5.1
503.987	5.1
504.187	5.08
504.387	5.17
504.587	5.15
504.787	5.19
504.987	5.31
505.187	5.41
505.387	5.5
505.587	5.52
505.786	5.49
505.986	5.52
506.186	5.55
506.386	5.6
506.586	5.54
506.786	5.62
506.986	5.59
507.186	5.55
507.386	5.63
507.585	5.66
507.785	5.75
507.985	5.84
508.185	5.85
508.384	5.97
508.584	6.06
508.784	6.16
508.984	6.26
509.183	6.37
509.383	6.4
509.583	6.4
509.782	6.49
509.982	6.48
510.182	6.44
510.381	6.52
510.581	6.58
510.781	6.61
510.98	6.64
511.18	6.67
511.379	6.71
511.579	6.75
511.778	6.82
511.978	6.85
512.177	6.94
512.377	7.05
512.576	7.09
512.776	7.08
512.975	7.17
513.175	7.27
513.374	7.31
513.573	7.32
513.773	7.45
513.972	7.53
514.172	7.57
514.371	7.59
514.57	7.59
514.77	7.69
514.969	7.74
515.168	7.83
515.367	7.89
515.567	7.98
515.766	8.08
515.965	8.14
516.164	8.16
516.364	8.26
516.563	8.34
516.762	8.55
516.961	8.56
517.16	8.64
517.359	8.68
517.559	8.74
517.758	8.71
517.957	8.77
518.156	8.8
518.355	8.85
518.554	8.91
518.753	8.96
518.952	8.94
519.151	9.03
519.35	9.09
519.549	9.06
519.748	9.06
519.947	9.14
520.146	9.27
520.345	9.32
520.544	9.34
520.743	9.4
520.942	9.46
521.141	9.49
521.339	9.48
521.538	9.5
521.737	9.68
521.936	9.72
522.135	9.79
522.333	9.81
522.532	9.92
522.731	10
522.93	10.06
523.129	10.14
523.327	10.26
523.526	10.38
523.725	10.41
523.923	10.36
524.122	10.49
524.321	10.56
524.519	10.57
524.718	10.61
524.917	10.66
525.115	10.69
525.314	10.73
525.512	10.82
525.711	10.81
525.909	10.9
526.108	11.01
526.306	11.05
526.505	11.1
526.703	11.14
526.902	11.2
527.1	11.25
527.299	11.33
527.497	11.42
527.696	11.42
527.894	11.48
528.092	11.57
528.291	11.63
528.489	11.65
528.688	11.7
528.886	11.76
529.084	11.81
529.283	11.85
529.481	11.9
529.679	11.92
529.877	11.99
530.076	12.06
530.274	12.08
530.472	12.09
530.67	12.22
530.869	12.24
531.067	12.25
531.265	12.3
531.463	12.35
531.661	12.37
531.859	12.4
532.057	12.47
532.255	12.58
532.454	12.66
532.652	12.68
532.85	12.66
533.048	12.71
533.246	12.76
533.444	12.78
533.642	12.85
533.84	12.86
534.038	12.94
534.236	12.93
534.434	12.88
534.632	12.9
534.83	12.94
535.027	12.99
535.225	13.06
535.423	13.11
535.621	13.17
535.819	13.19
536.017	13.29
536.215	13.25
536.412	13.33
536.61	13.4
536.808	13.47
537.006	13.49
537.203	13.58
537.401	13.55
537.599	13.65
537.797	13.71
537.994	13.76
538.192	13.76
538.39	13.83
538.587	13.84
538.785	13.89
538.983	13.98
539.18	14.07
539.378	14.06
539.575	14.17
539.773	14.2
539.97	14.21
540.168	14.22
540.366	14.27
540.563	14.33
540.761	14.38
540.958	14.4
541.155	14.35
541.353	14.35
541.55	14.36
541.748	14.38
541.945	14.39
542.143	14.43
542.34	14.45
542.537	14.47
542.735	14.47
542.932	14.49
543.129	14.49
543.327	14.57
543.524	14.59
543.721	14.63
543.919	14.72
544.116	14.76
544.313	14.75
544.51	14.81
544.708	14.9
544.905	14.95
545.102	15.02
545.299	15.03
545.496	14.98
545.693	15.02
545.891	15.04
546.088	14.99
546.285	15.02
546.482	15.05
546.679	15.11
546.876	15.1
547.073	15.1
547.27	15.1
547.467	15.08
547.664	15.16
547.861	15.2
548.058	15.25
548.255	15.32
548.452	15.39
548.649	15.45
548.846	15.41
549.043	15.37
549.24	15.37
549.437	15.43
549.633	15.59
549.83	15.6
550.027	15.59
550.224	15.63
550.421	15.7
550.618	15.62
550.814	15.63
551.011	15.7
551.208	15.84
551.405	15.83
551.601	15.81
551.798	15.75
551.995	15.71
552.191	15.84
552.388	15.85
552.585	15.77
552.781	15.87
552.978	15.89
553.175	15.87
553.371	15.87
553.568	16.01
553.764	16
553.961	16.07
554.157	16.16
554.354	16.09
554.55	16.08
554.747	16.13
554.943	16.22
555.14	16.26
555.336	16.33
555.533	16.43
555.729	16.38
555.926	16.33
556.122	16.32
556.318	16.23
556.515	16.31
556.711	16.33
556.907	16.41
557.104	16.3
557.3	16.35
557.496	16.34
557.693	16.3
557.889	16.36
558.085	16.47
558.281	16.68
558.478	16.88
558.674	16.89
558.87	16.97
559.066	16.96
559.262	17.04
559.459	17.09
559.655	17.08
559.851	17.16
560.047	17.17
560.243	17.33
560.439	17.09
560.635	17.02
560.831	17.1
561.027	17.18
561.223	17.34
561.419	17.39
561.615	17.33
561.811	17.34
562.007	17.35
562.203	17.33
562.399	17.25
562.595	17.43
562.791	17.55
562.987	17.52
563.183	17.45
563.379	17.35
563.575	17.24
563.771	17.2
563.966	17.23
564.162	17.29
564.358	17.37
564.554	17.45
564.75	17.41
564.945	17.39
565.141	17.37
565.337	17.43
565.533	17.44
565.728	17.47
565.924	17.55
566.12	17.54
566.315	17.48
566.511	17.51
566.707	17.53
566.902	17.58
567.098	17.58
567.293	17.56
567.489	17.54
567.684	17.55
567.88	17.63
568.076	17.65
568.271	17.71
568.467	17.73
568.662	17.64
568.858	17.61
569.053	17.61
569.248	17.59
569.444	17.73
569.639	17.76
569.835	17.75
570.03	17.75
570.225	17.76
570.421	17.79
570.616	17.83
570.812	17.84
571.007	17.87
571.202	17.9
571.397	17.95
571.593	17.88
571.788	17.91
571.983	17.99
572.178	17.95
572.374	18.04
572.569	18.05
572.764	17.96
572.959	18.04
573.154	18.06
573.35	18.06
573.545	18
573.74	18.09
573.935	18.06
574.13	18.06
574.325	18.11
574.52	18.08
574.715	18.11
574.91	18.18
575.105	18.23
575.3	18.22
575.495	18.14
575.69	18.17
575.885	18.13
576.08	18.17
576.275	18.14
576.47	18.12
576.665	18.18
576.86	18.15
577.055	18.21
577.25	18.12
577.444	18.17
577.639	18.37
577.834	18.51
578.029	18.49
578.224	18.42
578.418	18.5
578.613	18.54
578.808	18.51
579.003	18.55
579.197	18.52
579.392	18.64
579.587	18.65
579.781	18.53
579.976	18.39
580.171	18.4
580.365	18.43
580.56	18.42
580.755	18.46
580.949	18.45
581.144	18.34
581.338	18.38
581.533	18.29
581.727	18.23
581.922	18.34
582.116	18.35
582.311	18.47
582.505	18.37
582.7	18.26
582.894	18.24
583.089	18.16
583.283	18.17
583.478	18.13
583.672	18.11
583.866	18.15
584.061	18.06
584.255	18.14
584.449	18.07
584.644	18.19
584.838	18.23
585.032	18.23
585.226	18.33
585.421	18.33
585.615	18.32
585.809	18.35
586.003	18.42
586.198	18.49
586.392	18.5
586.586	18.62
586.78	18.62
586.974	18.71
587.168	18.73
587.363	18.6
587.557	18.68
587.751	18.77
587.945	18.81
588.139	18.84
588.333	18.75
588.527	18.76
588.721	18.63
588.915	18.68
589.109	18.65
589.303	18.68
589.497	18.79
589.691	18.83
589.885	18.84
590.079	18.76
590.273	18.63
590.466	18.67
590.66	18.69
590.854	18.82
591.048	18.89
591.242	18.92
591.436	18.88
591.629	18.91
591.823	18.87
592.017	18.91
592.211	19.01
592.404	19.06
592.598	19.05
592.792	19.1
592.986	18.98
593.179	18.93
593.373	18.95
593.567	19.05
593.76	18.99
593.954	19.09
594.147	19.02
594.341	18.99
594.535	18.99
594.728	19.08
594.922	19.22
595.115	19.33
595.309	19.34
595.502	19.33
595.696	19.33
595.889	19.24
596.083	19.23
596.276	19.31
596.47	19.34
596.663	19.37
596.856	19.3
597.05	19.16
597.243	19.01
597.437	19.01
597.63	18.93
597.823	18.91
598.017	19.06
598.21	19.04
598.403	18.91
598.596	18.94
598.79	18.93
598.983	18.97
599.176	19.05
599.369	19.17
599.563	19.16
599.756	19.19
599.949	19.17
600.142	19.06
600.335	18.99
600.528	19
600.722	18.91
600.915	18.99
601.108	18.81
601.301	18.85
601.494	18.81
601.687	18.8
601.88	18.8
602.073	18.75
602.266	18.82
602.459	18.81
602.652	18.92
602.845	19.03
603.038	18.95
603.231	18.99
603.424	18.92
603.617	18.96
603.809	18.98
604.002	19.01
604.195	19.07
604.388	19.02
604.581	19.14
604.774	19.11
604.966	19.03
605.159	19.07
605.352	19.19
605.545	19.23
605.737	19.23
605.93	19.13
606.123	19.07
606.316	19.16
606.508	19.08
606.701	19.03
606.894	19.12
607.086	19.19
607.279	19.2
607.471	19.24
607.664	19.25
607.857	19.22
608.049	19.41
608.242	19.51
608.434	19.49
608.627	19.67
608.819	19.62
609.012	19.56
609.204	19.6
609.397	19.67
609.589	19.69
609.782	19.74
609.974	19.85
610.166	19.84
610.359	19.85
610.551	19.91
610.743	19.91
610.936	19.97
611.128	20.02
611.32	19.89
611.513	19.77
611.705	19.79
611.897	19.57
612.09	19.47
612.282	19.3
612.474	19.39
612.666	19.26
612.858	19.14
613.051	19
613.243	19.07
613.435	19.13
613.627	19.04
613.819	18.97
614.011	19.1
614.203	19.04
614.395	19.19
614.588	19.11
614.78	19.3
614.972	19.35
615.164	19.43
615.356	19.25
615.548	19.3
615.74	19.56
615.932	19.41
616.124	19.5
616.315	19.6
616.507	19.66
616.699	19.69
616.891	19.54
617.083	19.6
617.275	19.62
617.467	19.64
617.659	19.84
617.85	19.72
618.042	19.76
618.234	19.67
618.426	19.64
618.618	19.56
618.809	19.54
619.001	19.56
619.193	19.38
619.384	19.48
619.576	19.55
619.768	19.39
619.959	19.47
620.151	19.61
620.343	19.63
620.534	19.7
620.726	19.85
620.917	19.76
621.109	19.69
621.301	19.89
621.492	19.76
621.684	19.64
621.875	19.61
622.067	19.48
622.258	19.48
622.45	19.55
622.641	19.43
622.832	19.22
623.024	19.34
623.215	19.36
623.407	19.44
623.598	19.55
623.789	19.57
623.981	19.55
624.172	19.6
624.363	19.67
624.555	19.57
624.746	19.67
624.937	19.71
625.129	19.62
625.32	19.73
625.511	19.52
625.702	19.65
625.893	19.74
626.085	19.73
626.276	19.76
626.467	19.67
626.658	19.78
626.849	19.76
627.04	19.9
627.231	19.86
627.422	19.89
627.614	20.06
627.805	20.07
627.996	20
628.187	20.01
628.378	20.02
628.569	20.14
628.76	20.15
628.951	20.14
629.142	20.07
629.332	20.13
629.523	20.05
629.714	20.04
629.905	20
630.096	20.1
630.287	20.11
630.478	20.14
630.669	19.92
630.859	19.82
631.05	19.78
631.241	20.02
631.432	20.07
631.623	19.92
631.813	19.78
632.004	19.7
632.195	19.62
632.385	19.67
632.576	19.68
632.767	19.82
632.957	19.86
633.148	19.85
633.339	19.5
633.529	19.5
633.72	19.58
633.91	19.58
634.101	19.46
634.292	19.43
634.482	19.56
634.673	19.54
634.863	19.42
635.054	19.32
635.244	19.52
635.435	19.76
635.625	19.8
635.815	19.8
636.006	19.9
636.196	20.07
636.387	20.23
636.577	20.13
636.767	20.12
636.958	20.37
637.148	20.43
637.338	20.38
637.529	20.33
637.719	20.21
637.909	20.28
638.099	20.41
638.29	20.22
638.48	20.13
638.67	20.06
638.86	19.98
639.05	19.87
639.241	19.84
639.431	19.89
639.621	19.78
639.811	19.75
640.001	19.73
640.191	19.57
640.381	19.81
640.571	19.9
640.761	20.1
640.951	20.16
641.141	20.08
641.331	20.13
641.521	19.99
641.711	20.05
641.901	20.24
642.091	20.38
642.281	20.5
642.471	20.41
642.661	20.3
642.851	20.23
643.041	20.17
643.231	20.15
643.42	20.34
643.61	20.4
643.8	20.53
643.99	20.41
644.18	20.1
644.369	20
644.559	20.05
644.749	20.18
644.939	20.12
645.128	20.19
645.318	20.19
645.508	20.07
645.697	20.12
645.887	19.92
646.076	20.03
646.266	20.05
646.456	20.05
646.645	19.92
646.835	19.6
647.024	19.78
647.214	19.81
647.403	19.99
647.593	19.91
647.782	19.63
647.972	19.61
648.161	19.52
648.351	19.74
648.54	19.66
648.73	19.67
648.919	19.94
649.108	19.93
649.298	19.92
649.487	19.86
649.677	20.03
649.866	20.31
650.055	20.5
650.244	20.51
650.434	20.43
650.623	20.67
650.812	20.85
651.002	20.8
651.191	20.7
651.38	20.6
651.569	20.53
651.758	20.38
651.947	20.35
652.137	20.43
652.326	20.57
652.515	20.58
652.704	20.48
652.893	20.38
653.082	20.57
653.271	20.6
653.46	20.68
653.649	20.79
653.838	20.96
654.027	20.77
654.216	20.6
654.405	20.63
654.594	20.62
654.783	20.75
654.972	20.84
655.161	20.72
655.35	20.66
655.539	20.77
655.728	20.71
655.916	20.59
656.105	20.73
656.294	20.58
656.483	20.35
656.672	20.36
656.86	20.07
657.049	20.04
657.238	19.84
657.427	19.72
657.615	19.65
657.804	19.57
657.993	19.73
658.181	19.67
658.37	19.78
658.559	20.18
658.747	20.24
658.936	20.24
659.125	20.02
659.313	20.06
659.502	20.1
659.69	20.15
659.879	20.13
660.067	20.18
660.256	20.21
660.444	20.24
660.633	19.9
660.821	19.81
661.01	19.93
661.198	20.14
661.387	20.24
661.575	20.27
661.763	20.1
661.952	20.08
662.14	19.98
662.328	20.1
662.517	20
662.705	20.18
662.893	20.33
663.082	20.58
663.27	20.67
663.458	20.82
663.646	20.86
663.834	20.95
664.023	21.12
664.211	20.89
664.399	20.65
664.587	20.56
664.775	20.53
664.963	20.3
665.152	19.9
665.34	19.83
665.528	19.79
665.716	19.73
665.904	19.85
666.092	19.95
666.28	20.16
666.468	20.4
666.656	20.67
666.844	20.7
667.032	20.93
667.22	21.04
667.408	20.99
667.596	21.22
667.784	21.34
667.971	21.5
668.159	21.45
668.347	21.26
668.535	21.1
668.723	21.03
668.911	21.02
669.098	20.73
669.286	20.77
669.474	20.9
669.662	20.77
669.849	20.67
670.037	20.52
670.225	20.41
670.413	20.39
670.6	20.57
670.788	20.48
670.976	20.53
671.163	20.79
671.351	20.77
671.538	20.78
671.726	20.61
671.913	20.61
672.101	20.52
672.289	20.58
672.476	20.54
672.664	20.67
672.851	20.71
673.039	20.43
673.226	20.38
673.413	20.6
673.601	20.26
673.788	19.98
673.976	19.95
674.163	20.16
674.35	20.19
674.538	20.13
674.725	20.06
674.912	19.81
675.1	19.99
675.287	19.91
675.474	19.74
675.662	20.04
675.849	20.22
676.036	20.33
676.223	20.03
676.411	20.17
676.598	20.55
676.785	20.18
676.972	20.39
677.159	20.43
677.346	20.6
677.533	20.59
677.721	20.68
677.908	20.9
678.095	20.98
678.282	21.07
678.469	20.97
678.656	20.96
678.843	20.87
679.03	20.83
679.217	20.72
679.404	20.59
679.591	20.7
679.778	20.78
679.964	20.69
680.151	20.46
680.338	20.62
680.525	20.52
680.712	20.45
680.899	20.8
681.086	21.03
681.272	21.13
681.459	21.15
681.646	21.16
681.833	21.04
682.02	20.96
682.206	21.12
682.393	20.83
682.58	20.94
682.766	21.04
682.953	20.93
683.14	20.74
683.326	20.64
683.513	20.7
683.7	20.6
683.886	20.33
684.073	20.43
684.259	20.5
684.446	20.7
684.632	20.61
684.819	20.44
685.005	20.4
685.192	20.41
685.378	20.62
685.565	20.76
685.751	20.92
685.938	20.98
686.124	20.86
686.31	20.79
686.497	20.85
686.683	20.92
686.87	20.95
687.056	21.02
687.242	20.99
687.429	20.62
687.615	20.54
687.801	20.42
687.987	20.47
688.174	20.62
688.36	20.79
688.546	20.69
688.732	20.43
688.918	20.3
689.105	20.43
689.291	20.59
689.477	20.95
689.663	21.09
689.849	21.11
690.035	21.11
690.221	20.84
690.407	20.78
690.593	20.67
690.779	20.97
690.965	21.13
691.151	21.05
691.337	20.88
691.523	20.54
691.709	20.29
691.895	20.38
692.081	20.45
692.267	20.63
692.453	20.55
692.639	20.71
692.825	20.58
693.011	20.63
693.196	20.31
693.382	20.19
693.568	20.53
693.754	20.69
693.94	20.73
694.125	20.63
694.311	20.85
694.497	20.8
694.682	20.99
694.868	21.06
695.054	21.25
695.239	21.48
695.425	21.45
695.611	21.39
695.796	21.38
695.982	21.14
696.168	21.18
696.353	20.85
696.539	20.49
696.724	20.83
696.91	20.87
697.095	20.56
697.281	20.72
697.466	20.74
697.652	20.63
697.837	20.54
698.023	20.59
698.208	20.68
698.393	20.94
698.579	21.31
698.764	20.95
698.949	20.91
699.135	20.77
699.32	20.69
699.505	20.96
699.691	21.12
699.876	21.26
700.061	21.43
700.246	21.45
700.432	21.24
700.617	21.34
700.802	21.41
700.987	21.45
701.172	21.76
701.358	21.69
701.543	21.72
701.728	21.85
701.913	21.8
702.098	21.61
702.283	21.78
702.468	21.87
702.653	21.73
702.838	21.77
703.023	21.59
703.208	21.65
703.393	21.54
703.578	21.54
703.763	21.39
703.948	21.14
704.133	21.22
704.318	21.33
704.503	21.27
704.688	21.13
704.873	20.97
705.057	20.89
705.242	21.02
705.427	21.04
705.612	20.75
705.797	20.56
705.981	20.6
706.166	20.38
706.351	20.05
706.536	20.33
706.72	20.34
706.905	20.12
707.09	20.16
707.274	20.05
707.459	20.33
707.644	20.56
707.828	20.99
708.013	21.51
708.197	21.7
708.382	21.8
708.567	21.52
708.751	21.85
708.936	21.89
709.12	21.85
709.305	21.66
709.489	21.76
709.673	21.49
709.858	21.28
710.042	20.72
710.227	20.84
710.411	20.51
710.596	20.74
710.78	20.62
710.964	20.99
711.149	21.23
711.333	21.16
711.517	21.28
711.702	21.38
711.886	21.4
712.07	21.49
712.254	21.49
712.438	21.84
712.623	21.83
712.807	21.74
712.991	21.7
713.175	21.63
713.359	21.86
713.544	21.56
713.728	21.57
713.912	21.39
714.096	21.61
714.28	21.71
714.464	21.71
714.648	21.6
714.832	21.43
715.016	21.27
715.2	21.45
715.384	21.21
715.568	21.24
715.752	21.3
715.936	21.22
716.12	20.97
716.304	20.72
716.488	20.51
716.671	20.28
716.855	20.28
717.039	20.4
717.223	20.08
717.407	20.28
717.59	20.3
717.774	20.44
717.958	20.63
718.142	20.63
718.325	20.8
718.509	21
718.693	20.92
718.877	20.77
719.06	20.47
719.244	20.61
719.428	20.8
719.611	20.87
719.795	20.7
719.978	20.33
720.162	20.2
720.345	20.09
720.529	19.75
720.713	19.85
720.896	20.41
721.08	20.54
721.263	20.8
721.446	20.72
721.63	20.47
721.813	19.96
721.997	20.29
722.18	20.49
722.364	20.28
722.547	20.41
722.73	20.24
722.914	19.63
723.097	19.95
723.28	19.62
723.464	19.57
723.647	19.92
723.83	20.49
724.013	20.23
724.197	20.4
724.38	20.13
724.563	20.39
724.746	20.97
724.929	21.49
725.112	21.26
725.296	21.65
725.479	21.57
725.662	21.02
725.845	20.74
726.028	20.99
726.211	20.8
726.394	20.84
726.577	20.96
726.76	20.81
726.943	20.76
727.126	20.72
727.309	20.27
727.492	20.45
727.675	20.64
727.858	20.63
728.041	20.68
728.224	21.04
728.407	21.14
728.589	20.69
728.772	20.53
728.955	20.44
729.138	20.27
729.321	20.47
729.503	20.19
729.686	20.39
729.869	20.78
730.052	20.69
730.234	20.32
730.417	20.53
730.6	20.62
730.782	20.79
730.965	21.06
731.148	21.17
731.33	21.18
731.513	21.13
731.695	20.98
731.878	20.51
732.061	20.8
732.243	20.77
732.426	20.41
732.608	20.62
732.791	20.7
732.973	20.45
733.156	20.44
733.338	20.45
733.52	20.74
733.703	20.62
733.885	21.02
734.068	20.79
734.25	20.97
734.432	21.23
734.615	21.09
734.797	20.85
734.979	20.96
735.162	20.92
735.344	20.97
735.526	20.9
735.708	21.09
735.891	20.82
736.073	21
736.255	20.59
736.437	20.86
736.619	20.91
736.802	20.91
736.984	20.09
737.166	20.78
737.348	20.8
737.53	20.88
737.712	20.48
737.894	20.6
738.076	20.41
738.258	20.99
738.44	21
738.622	20.22
738.804	20.63
738.986	21.33
739.168	21.07
739.35	21.34
739.532	21.69
739.714	22.16
739.896	22.12
740.078	22.04
740.259	21.95
740.441	21.63
740.623	22.43
740.805	22.58
740.987	22.18
741.168	22.34
741.35	21.37
741.532	20.56
741.714	20.43
741.895	20.79
742.077	21.21
742.259	21.15
742.44	21.4
742.622	21.24
742.804	21.25
742.985	21.56
743.167	20.76
743.348	21.28
743.53	21.48
743.711	21.56
743.893	21.45
744.075	21.23
744.256	21.1
744.438	20.93
744.619	21.26
744.8	20.84
744.982	20.92
745.163	21.37
745.345	21.07
745.526	21.57
745.707	22.31
745.889	22.36
746.07	22.16
746.252	22.49
746.433	22.63
746.614	22.13
746.795	22.19
746.977	22.24
747.158	22.76
747.339	23.7
747.52	23.33
747.702	22.36
747.883	22.34
748.064	22.32
748.245	21.63
748.426	21.58
748.607	21.92
748.788	21.82
748.97	21.86
749.151	20.74
749.332	20.16
749.513	20.73
749.694	21.22
749.875	20.54
750.056	20.57
750.237	21.14
750.418	21.37
750.599	20.74
750.78	20.55
750.96	20.16
751.141	20.94
751.322	21.56
751.503	21.54
751.684	21.24
751.865	21.7
752.046	21.42
752.226	21.08
752.407	21.24
752.588	22.23
752.769	22.96
752.949	22.62
753.13	21.86
753.311	22.04
753.492	21.39
753.672	21.35
753.853	21.54
754.034	21.93
754.214	22.23
754.395	21.59
754.575	21.29
754.756	20.59
754.937	21.17
755.117	22.01
755.298	20.93
755.478	21.43
755.659	21.43
755.839	21.45
756.02	21.64
756.2	21.75
756.381	22.27
756.561	22.2
756.741	22.68
756.922	22.56
757.102	22.2
757.283	22.1
757.463	22.12
757.643	22.14
757.823	22.25
758.004	21.14
758.184	20.6
758.364	20.04
758.545	19.5
758.725	18.74
758.905	18.63
759.085	18.47
759.265	18.6
759.446	17.95
759.626	17.71
759.806	16.94
759.986	17.72
760.166	18.18
760.346	18.19
760.526	18.57
760.706	19.2
760.886	19.05
761.066	19.68
761.246	19.41
761.426	19.33
761.606	19.56
761.786	19.66
761.966	19.22
762.146	18.97
762.326	18.95
762.506	19.29
762.686	19.32
762.866	19.71
763.046	19.53
763.225	19.96
763.405	19.94
763.585	19.93
763.765	20.13
763.945	20.92
764.124	20.94
764.304	21.1
764.484	20.97
764.664	21.09
764.843	20.77
765.023	20.83
765.203	20.51
765.382	20.7
765.562	20.07
765.741	20.23
765.921	19.66
766.101	19.68
766.28	19.35
766.46	19.27
766.639	19.08
766.819	19.54
766.998	19.2
767.178	20.3
767.357	20.44
767.537	21.62
767.716	21.5
767.896	21.51
768.075	22.06
768.254	22.52
768.434	22.9
768.613	22.78
768.792	22.47
768.972	22.64
769.151	21.91
769.33	21.45
769.51	21.3
769.689	20.74
769.868	20.64
770.047	20.93
770.226	21.08
770.406	20.86
770.585	20.92
770.764	21.14
770.943	20.83
771.122	20.16
771.301	20.7
771.48	19.95
771.66	20.36
771.839	20.11
772.018	19.96
772.197	19.75
772.376	19.87
772.555	19.67
772.734	19.96
772.913	19.94
773.092	20.51
773.271	20.5
773.449	20.84
773.628	20.93
773.807	21.75
773.986	21.55
774.165	21.76
774.344	21.93
774.523	22.06
774.701	21.22
774.88	22.17
775.059	22.36
775.238	22.32
775.417	22.9
775.595	22.98
775.774	22.34
775.953	21.83
776.131	22.27
776.31	21.42
776.489	20.92
776.667	21.09
776.846	20.47
777.025	20.9
777.203	20.96
777.382	20.8
777.56	20.62
777.739	21.15
777.917	20.59
778.096	20.21
778.274	20.53
778.453	21.52
778.631	21.57
778.81	21.86
778.988	20.92
779.166	21.87
779.345	22.19
779.523	23.05
779.702	22.71
779.88	23.1
780.058	23.57
780.237	23.59
780.415	22.92
780.593	23.25
780.771	22.87
780.95	23.47
781.128	21.83
781.306	21.72
781.484	21.39
781.662	21.37
781.841	21.25
782.019	19.45
782.197	19.08
782.375	18.81
782.553	17.85
782.731	18.19
782.909	18.47
783.087	19.26
783.265	18.94
783.443	18.97
783.621	19.73
783.799	20.36
783.977	20.76
784.155	20.78
784.333	20.81
784.511	20.93
784.689	20.08
784.867	19.93
785.045	20.11
785.223	21.21
785.4	19.74
785.578	19.69
785.756	18.87
785.934	19.43
786.112	19.95
786.289	19.62
786.467	20.06
786.645	20.83
786.823	20.86
787	20.38
787.178	19.38
787.356	20.18
787.533	19.84
787.711	20.03
787.889	20.26
788.066	19.28
788.244	19.26
788.421	19.46
788.599	19.65
788.776	19.16
788.954	19.88
789.131	19.8
789.309	19.34
789.486	19.2
789.664	20.28
789.841	20.37
790.019	21.42
790.196	21.18
790.373	22.4
790.551	22.06
790.728	22.1
790.906	20.91
791.083	20.45
791.26	21.47
791.437	22.18
791.615	21.34
791.792	21.62
791.969	22.18
792.146	22.46
792.324	19.86
792.501	19.94
792.678	19.94
792.855	20.96
793.032	20.91
793.209	20.94
793.387	20.63
793.564	20.5
793.741	20.61
793.918	19.49
794.095	20.94
794.272	22.32
794.449	22.13
794.626	21.72
794.803	20.71
794.98	21.2
795.157	20.62
795.334	20.68
795.511	20.82
795.688	20.65
795.864	20.75
796.041	20.28
796.218	20.09
796.395	19.73
796.572	19.38
796.749	20.68
796.925	19.99
797.102	20.74
797.279	20.13
797.456	19.63
797.632	19.06
797.809	19.8
797.986	20.03
798.162	20.47
798.339	21.48
798.516	23.16
798.692	22.15
798.869	22.74
799.046	22.26
799.222	21.58
799.399	21.94
799.575	21.66
799.752	21.45
799.928	20.65
800.105	20.32
800.281	19.33
800.458	17.63
800.634	18.04
800.811	16.71
800.987	16.65
801.163	18.02
801.34	18.11
801.516	18.76
801.692	18.58
801.869	18.14
802.045	17.93
802.221	18.9
802.398	20.39
802.574	20.89
802.75	22.24
802.926	21.88
803.103	20.13
803.279	19.82
803.455	19.74
803.631	18.88
803.807	20.62
803.983	20.58
804.16	21.23
804.336	19.39
804.512	19.79
804.688	18.69
804.864	17.92
805.04	18.9
805.216	18
805.392	18.19
805.568	18.56
805.744	16.94
805.92	18.12
806.096	16.4
806.272	16.43
806.448	15.2
806.623	16.14
806.799	17.81
806.975	18.12
807.151	18.38
807.327	18.2
807.503	16.99
807.678	18.05
807.854	16.07
808.03	16.16
808.206	16.07
808.381	15.29
808.557	14.96
808.733	14.49
808.908	14.42
809.084	14.42
809.26	14.47
809.435	16.16
809.611	15.52
809.787	17.59
809.962	17.99
810.138	19.83
810.313	20.72
810.489	21.02
810.664	20.89
810.84	20.06
811.015	21.61
811.191	21.53
811.366	21.27
811.542	21.16
811.717	19.6
811.892	18.7
812.068	18.04
812.243	17.75
812.419	17.98
812.594	17.79
812.769	19.07
812.944	17.05
813.12	16.29
813.295	16.01
813.47	15.94
813.645	15.94
813.821	18.02
813.996	18.31
814.171	19.03
814.346	18.72
814.521	18.24
814.697	17.99
814.872	18.05
815.047	19.87
815.222	21.56
815.397	20.8
815.572	20.24
815.747	18.44
815.922	17.55
816.097	17.11
816.272	17.28
816.447	18.12
816.622	18.14
816.797	17.26
816.972	16.65
817.147	15.36
817.322	15.89
817.496	17.8
817.671	17.99
817.846	17.68
818.021	17.68
818.196	16.51
818.371	16.23
818.545	15.48
818.72	17.36
818.895	16.76
819.069	16.49
819.244	16.3
819.419	16.2
819.594	16.8
819.768	17.8
819.943	17.49
820.117	18.96
820.292	18.98
820.467	19.41
820.641	19.32
820.816	19.11
820.99	19.57
821.165	19.88
821.339	19.69
821.514	19.7
821.688	19.51
821.863	19.51
822.037	19.41
822.212	19.69
822.386	19.98
822.56	20.22
822.735	20.48
822.909	20.35
823.084	20.51
823.258	20.27
823.432	20.3
823.606	20.43
823.781	20.62
823.955	20.8
824.129	20.54
824.303	20.36
824.478	20.41
824.652	20.32
824.826	20.52
825	20.36
825.174	20.67
825.348	20.75
825.523	20.38
825.697	20.46
825.871	20.08
826.045	20.2
826.219	19.73
826.393	19.52
826.567	19.35
826.741	19.02
826.915	19.23
827.089	19.55
827.263	19.07
827.437	19.61
827.611	19.5
827.784	19.51
827.958	19.58
828.132	20.05
828.306	19.75
828.48	20.08
828.654	20.2
828.827	19.49
829.001	19.75
829.175	20.02
829.349	19.91
829.522	20.25
829.696	20.21
829.87	20.08
830.044	19.4
830.217	20.03
830.391	20.13
830.565	19.32
830.738	19.81
830.912	18.99
831.085	19.44
831.259	18.88
831.432	17.43
831.606	17.78
831.779	17.45
831.953	18.23
832.126	18.09
832.3	17.62
832.473	18.95
832.647	19.54
832.82	18.85
832.994	18.83
833.167	18.62
833.34	18.64
833.514	19
833.687	18.94
833.86	19.56
834.034	19.02
834.207	18.93
834.38	19.37
834.553	19.1
834.727	19.66
834.9	19.35
835.073	19.23
835.246	19.66
835.419	19.11
835.593	19.58
835.766	18.73
835.939	19.28
836.112	19.55
836.285	18.72
836.458	18.76
836.631	17.97
836.804	18.01
836.977	19.62
837.15	19.85
837.323	20.17
837.496	20.01
837.669	18.39
837.842	16.36
838.015	16.55
838.188	16.61
838.361	16.85
838.533	17.56
838.706	19.06
838.879	18.33
839.052	18.44
839.225	17.07
839.398	16.72
839.57	16.89
839.743	19.64
839.916	18.37
840.088	20.2
840.261	18.41
840.434	19.19
840.607	17.78
840.779	17.36
840.952	16.56
841.124	18.05
841.297	18.11
841.47	20.68
841.642	19.13
841.815	19.48
841.987	17.42
842.16	18.3
842.332	17.83
842.505	18.76
842.677	17.96
842.85	18.5
843.022	17.68
843.194	17.38
843.367	16.57
843.539	17.11
843.712	15.4
843.884	12.4
844.056	14.58
844.229	13.68
844.401	11.13
844.573	12.07
844.745	10.57
844.918	13.16
845.09	11.89
845.262	10.2
845.434	7.96
845.606	8.12
845.779	13.68
845.951	9.61
846.123	11.3
846.295	11.94
846.467	12.23
846.639	11.65
846.811	9.02
846.983	9.38
847.155	13.26
847.327	14.25
847.499	15.21
847.671	13.07
847.843	17.35
848.015	16.27
848.187	15.02
848.359	14.48
848.531	15.16
848.703	14.71
848.875	14.18
849.047	9.68
849.218	10.89
849.39	10.9
849.562	10.13
849.734	11.08
849.905	9.03
850.077	10.84
850.249	9.83
850.421	9.08
850.592	12.52
850.764	15.28
850.936	20.61
851.107	19.4
851.279	21.97
851.451	20.65
851.622	17.38
851.794	21.34
851.965	23.75
852.137	24.16
852.308	22.12
852.48	17.7
852.651	17.79
852.823	12.06
852.994	10.84
853.166	8.5
853.337	9.45
853.509	9.99
853.68	10.3
853.851	10.69
854.023	10.45
854.194	14.18
854.365	14.98
854.537	14.18
854.708	15.82
854.879	15.3
855.05	15.51
855.222	17.89
855.393	18.11
855.564	13.21
855.735	8.28
855.906	7.97
856.078	8.13
856.249	5.64
856.42	5.16
856.591	9.89
856.762	13.39
856.933	12.84
857.104	10.21
857.275	12.58
857.446	14.77
857.617	15.5
857.788	16.28
857.959	14.83
858.13	19.96
858.301	19.33
858.472	14
858.643	14.1
858.814	16.24
858.985	15.84
859.155	14.63
859.326	13.46
859.497	15.96
859.668	14.43
859.839	14.95
860.009	15.17
860.18	16.51
860.351	17.65
860.522	15.62
860.692	14.49
860.863	14.82
861.034	14.69
861.204	16.33
861.375	16
861.546	18.67
861.716	19.38
861.887	18.98
862.057	21.41
862.228	18.83
862.398	16.21
862.569	16.27
862.739	14.75
862.91	15.12
863.08	11.43
863.251	8.94
863.421	7.09
863.592	4.84
863.762	0.35
863.932	-1.46
864.103	-0.98
864.273	6.83
864.443	5.23
864.614	2.51
864.784	-1.97
864.954	-1.19
865.125	-0.46
865.295	1.69
865.465	0.16
865.635	3.23
865.805	2.67
865.976	5.68
866.146	5.45
866.316	4.02
866.486	5.56
866.656	5.16
866.826	6.05
866.996	6.29
867.166	8.68
867.336	6.57
867.506	5.21
867.676	4.41
867.846	3.9
868.016	0.29
868.186	1.86
868.356	1.92
868.526	7.75
868.696	8.78
868.866	10.12
869.036	5.67
869.206	11.99
869.376	14.2
869.545	16.93
869.715	17.04
869.885	17.75
870.055	22.67
870.224	24.34
870.394	19.53
870.564	23.39
870.734	18.94
870.903	22.46
871.073	22.4
871.243	14.57
871.412	9.2
871.582	8.96
871.751	9.09
871.921	4.08
872.091	3.99
872.26	1.63
872.43	-1.35
872.599	2.53
872.769	-0.2
872.938	-4.27
873.108	2.9
873.277	5.9
873.446	4.61
873.616	4.45
873.785	9.78
873.955	12.15
874.124	20.42
874.293	22.72
874.463	23.86
874.632	22.46
874.801	25.51
874.971	23.78
875.14	21.38
875.309	19.62
875.478	19.35
875.647	14.88
875.817	15.25
875.986	7.9
876.155	3.28
876.324	1.94
876.493	5.92
876.662	5.74
876.831	7.78
877	10.55
877.17	13.61
877.339	14.1
877.508	15.18
877.677	15.35
877.846	16.79
878.015	19.23
878.184	16.67
878.352	14.71
878.521	9.48
878.69	10.54
878.859	12.18
879.028	14.47
879.197	13.99
879.366	14.91
879.534	14.82
879.703	16.67
879.872	19.6
880.041	21.46
880.21	21.37
880.378	23.18
880.547	22.08
880.716	21.1
880.884	20.57
881.053	20.73
881.222	20.83
881.39	20.48
881.559	20.11
881.727	19.53
881.896	18.82
882.065	19.85
882.233	19.9
882.402	19.82
882.57	20
882.739	19.5
882.907	19.86
883.076	19.88
883.244	20.14
883.412	20
883.581	20.29
883.749	20.2
883.918	19.86
884.086	19.63
884.254	20.13
884.423	19.87
884.591	20.36
884.759	20.05
884.927	19.99
885.096	19.24
885.264	19.36
885.432	19.44
885.6	18.67
885.769	17.42
885.937	17.41
886.105	16.5
886.273	17.51
886.441	16.43
886.609	16.64
886.777	15.92
886.945	15.68
887.113	16.01
887.281	13.87
887.449	16
887.617	19.78
887.785	19.48
887.953	23.12
888.121	20.25
888.289	18.55
888.457	16.94
888.625	16.59
888.793	15.86
888.961	14.94
889.129	14.51
889.296	12.68
889.464	6.07
889.632	6.75
889.8	-3.14
889.967	-4.02
890.135	1.14
