Data from 2938821__Reflection_07.txt Node
Date: Thu Mar 12 14:34:33 EDT 2015
User: robert
Spectrometer: USB4E03002
Autoset integration time: false
Trigger mode: 4
Integration Time (sec): 1.000000E-1
Scans to average: 10
Electric dark correction enabled: false
Nonlinearity correction enabled: false
Boxcar width: 5
Stray light correction enabled: false
XAxis mode: Wavelengths
Stop averaging: false
Number of Pixels in Spectrum: 3648
>>>>>Begin Spectral Data<<<<<
177.575	-178.83
177.794	-167.46
178.014	-69.88
178.233	-33.13
178.452	-29.57
178.672	-34.61
178.891	-27
179.11	-44.67
179.33	-37.52
179.549	-54.34
179.768	-102.96
179.987	-90.56
180.207	-126.68
180.426	-266.04
180.645	-751.88
180.864	-998.06
181.084	-2500
181.303	793.55
181.522	9209.09
181.741	-2871.05
181.96	-726.92
182.179	-1762.32
182.398	-4800
182.618	-3500
182.837	2885
183.056	1045.22
183.275	454.86
183.494	517.24
183.713	537.08
183.932	362.2
184.151	339.28
184.37	264.25
184.589	302.97
184.808	341.08
185.027	354.9
185.246	320.45
185.465	495.26
185.684	631.22
185.903	415.03
186.122	407.3
186.341	530.43
186.56	464.43
186.779	522.65
186.998	405.51
187.216	287.57
187.435	318.13
187.654	370.49
187.873	269.89
188.092	258.85
188.311	340.36
188.53	296.78
188.748	265.16
188.967	385.36
189.186	245.09
189.405	329.63
189.623	443.02
189.842	445.53
190.061	573.79
190.28	561.61
190.498	465.17
190.717	369.63
190.936	574.89
191.154	589.52
191.373	293.05
191.592	378.11
191.81	271.14
192.029	300.2
192.248	307.71
192.466	251.75
192.685	293.6
192.904	287.96
193.122	403.65
193.341	375.24
193.559	399.28
193.778	935.48
193.996	-633.63
194.215	-421.84
194.433	-4152.94
194.652	382.97
194.87	874.71
195.089	636.42
195.307	810.09
195.526	787.93
195.744	693.23
195.963	691.09
196.181	382.74
196.399	379.75
196.618	666.97
196.836	1258.18
197.055	-393.33
197.273	1404.17
197.491	1194.83
197.71	2273.33
197.928	1724.39
198.146	1145.9
198.365	383.64
198.583	418.8
198.801	290.25
199.019	434.52
199.238	534.21
199.456	346.44
199.674	569.08
199.892	643.01
200.111	660.36
200.329	561.88
200.547	531.84
200.765	-42150
200.983	2328.95
201.202	-5033.33
201.42	4621.43
201.638	593.4
201.856	5908.33
202.074	-4713.33
202.292	1211.76
202.51	1973.47
202.728	586.56
202.946	745.14
203.165	422.97
203.383	484.62
203.601	320
203.819	232.99
204.037	359.33
204.255	391.82
204.473	417.77
204.691	968.42
204.909	682.98
205.127	912
205.345	769.44
205.562	-11250
205.78	645.31
205.998	393.51
206.216	321.91
206.434	180.68
206.652	156.39
206.87	161.8
207.088	143.44
207.306	114.49
207.523	110.33
207.741	95.73
207.959	92.96
208.177	96.1
208.395	119.18
208.612	142.1
208.83	159.1
209.048	188.27
209.266	135.15
209.483	147.06
209.701	185.32
209.919	179.92
210.136	172.88
210.354	198.21
210.572	213.08
210.79	179.34
211.007	170.5
211.225	146.45
211.442	142.15
211.66	156.88
211.878	139.03
212.095	123.26
212.313	114.09
212.53	132.61
212.748	121.93
212.966	121.49
213.183	127.31
213.401	123.25
213.618	144.73
213.836	143.44
214.053	148.63
214.271	146.59
214.488	193.84
214.705	208.49
214.923	199.05
215.14	201.45
215.358	201.72
215.575	186.06
215.793	236.44
216.01	197.01
216.227	233.14
216.445	194.16
216.662	186.58
216.879	144.19
217.097	164.53
217.314	177
217.531	172.2
217.749	213.23
217.966	182.99
218.183	171.58
218.4	183.8
218.618	163.52
218.835	158.83
219.052	138.21
219.269	135.67
219.487	130.27
219.704	124.61
219.921	114.16
220.138	99.94
220.355	120.62
220.572	112.21
220.79	104.83
221.007	97.89
221.224	92.97
221.441	96.72
221.658	88.64
221.875	70.6
222.092	56.02
222.309	60.56
222.526	60.69
222.743	53.02
222.96	50.94
223.177	52.93
223.394	52.03
223.611	51.31
223.828	49.3
224.045	45.82
224.262	59.67
224.479	66.47
224.696	58.39
224.913	53.49
225.13	53.46
225.347	51.08
225.564	41.79
225.781	36.13
225.997	39.47
226.214	32.1
226.431	30.86
226.648	24.27
226.865	19.43
227.082	15.71
227.298	14.69
227.515	12.76
227.732	11.71
227.949	12.46
228.165	11.88
228.382	10.73
228.599	10.88
228.816	10.69
229.032	10.61
229.249	9.54
229.466	9.33
229.682	8.91
229.899	8.83
230.116	9.08
230.332	8.63
230.549	10.36
230.765	9.67
230.982	9.78
231.199	9.17
231.415	9.97
231.632	12.14
231.848	15.29
232.065	16.35
232.281	16.83
232.498	16.44
232.714	17.49
232.931	16.53
233.147	15.14
233.364	15.54
233.58	16.92
233.797	14.6
234.013	14.73
234.23	12.95
234.446	11.73
234.662	10.48
234.879	10.13
235.095	10.72
235.312	9.85
235.528	11.9
235.744	12.29
235.961	12.75
236.177	13.6
236.393	13.2
236.61	13.15
236.826	12.19
237.042	13.01
237.258	13.96
237.475	15.2
237.691	17.06
237.907	16.68
238.123	16.5
238.339	16.07
238.556	16.09
238.772	16.51
238.988	16.69
239.204	19.42
239.42	18.05
239.636	17.18
239.853	15.47
240.069	13.58
240.285	13.44
240.501	13.13
240.717	12.71
240.933	12.21
241.149	11.36
241.365	10.97
241.581	9.4
241.797	10.19
242.013	9.84
242.229	8.97
242.445	9.05
242.661	8.65
242.877	8.41
243.093	8.22
243.309	8.97
243.525	8.82
243.741	8.87
243.957	9.99
244.173	9.5
244.388	10
244.604	10.67
244.82	10
245.036	9.54
245.252	9.54
245.468	8.63
245.683	7.29
245.899	6.88
246.115	6.53
246.331	6
246.547	5.72
246.762	5.52
246.978	5.68
247.194	5.96
247.409	6
247.625	6
247.841	6.48
248.057	6.89
248.272	7.06
248.488	7.31
248.703	7.51
248.919	8.07
249.135	8.3
249.35	8.02
249.566	8
249.782	8.24
249.997	7.99
250.213	7.68
250.428	7.33
250.644	7.26
250.859	7.16
251.075	6.55
251.29	6.01
251.506	5.74
251.721	6.02
251.937	6.62
252.152	6.96
252.368	7.26
252.583	6.77
252.798	6.89
253.014	7.27
253.229	7.6
253.445	8.55
253.66	8.73
253.875	9.53
254.091	9.56
254.306	8.95
254.521	9.13
254.737	9.15
254.952	9.4
255.167	9.09
255.383	9.29
255.598	9.08
255.813	8.35
256.028	8.29
256.244	8.18
256.459	8.3
256.674	7.46
256.889	6.98
257.104	6.71
257.32	7.25
257.535	7
257.75	6.46
257.965	6.22
258.18	5.8
258.395	5.04
258.61	4.53
258.826	4.36
259.041	4.35
259.256	4.3
259.471	4.43
259.686	4.21
259.901	4.07
260.116	4.18
260.331	4.07
260.546	4.25
260.761	4.8
260.976	5.16
261.191	5.51
261.406	6.07
261.621	6.23
261.836	6.11
262.05	6.3
262.265	6.74
262.48	6.74
262.695	6.93
262.91	7.31
263.125	6.95
263.34	6.76
263.555	6.31
263.769	6.4
263.984	6.77
264.199	6.69
264.414	6.89
264.629	6.78
264.843	6.65
265.058	6.58
265.273	5.74
265.488	5.6
265.702	5.6
265.917	5.14
266.132	4.83
266.346	4.62
266.561	4.84
266.776	4.87
266.99	4.88
267.205	4.89
267.42	5.27
267.634	5.74
267.849	5.35
268.063	5.36
268.278	6.11
268.492	6.27
268.707	6.1
268.922	6.21
269.136	6.13
269.351	6.58
269.565	6.29
269.78	5.79
269.994	6.17
270.209	6.77
270.423	6.57
270.637	6.09
270.852	5.87
271.066	6.03
271.281	5.27
271.495	5.04
271.709	4.61
271.924	4.55
272.138	4.66
272.353	4.19
272.567	4.15
272.781	4.35
272.996	4.52
273.21	4.41
273.424	4.64
273.638	5.19
273.853	5.41
274.067	5.21
274.281	5.91
274.495	5.9
274.71	6.08
274.924	5.78
275.138	4.92
275.352	4.8
275.566	4.86
275.781	4.59
275.995	4.24
276.209	4.37
276.423	4.59
276.637	4.37
276.851	4.21
277.065	3.85
277.279	3.89
277.493	4.62
277.707	4.28
277.921	3.97
278.135	3.55
278.349	3.79
278.563	3.23
278.777	3.12
278.991	2.91
279.205	3.5
279.419	3.87
279.633	4.03
279.847	4.32
280.061	4.58
280.275	4.58
280.489	5.02
280.703	5.02
280.917	5.25
281.131	4.94
281.344	4.86
281.558	4.48
281.772	4.24
281.986	3.99
282.2	3.49
282.414	3.52
282.627	3.51
282.841	3.55
283.055	3.48
283.269	3.58
283.482	3.87
283.696	3.86
283.91	3.75
284.123	3.97
284.337	4.07
284.551	4.06
284.764	4.08
284.978	4.36
285.192	4.19
285.405	4.2
285.619	4.28
285.833	4.44
286.046	4.49
286.26	4.61
286.473	4.33
286.687	4.33
286.9	4.65
287.114	4.58
287.327	4.74
287.541	4.51
287.754	4.86
287.968	4.73
288.181	4.57
288.395	4.6
288.608	4.69
288.822	4.98
289.035	5.15
289.248	5.03
289.462	5.12
289.675	4.72
289.889	4.92
290.102	4.56
290.315	4.51
290.529	4.47
290.742	4.4
290.955	4.23
291.169	4.03
291.382	3.95
291.595	4.04
291.808	4.05
292.022	4.55
292.235	4.53
292.448	4.6
292.661	4.41
292.875	4.64
293.088	4.86
293.301	5.01
293.514	5.2
293.727	5.77
293.94	5.73
294.153	5.83
294.367	5.54
294.58	5.75
294.793	5.87
295.006	5.93
295.219	5.9
295.432	6.04
295.645	6.23
295.858	6.3
296.071	5.98
296.284	6.06
296.497	6.14
296.71	5.89
296.923	5.81
297.136	5.98
297.349	6.52
297.562	6.76
297.775	6.76
297.988	6.46
298.201	6.3
298.414	6.41
298.626	6.2
298.839	6.3
299.052	6.73
299.265	6.73
299.478	6.63
299.691	6.42
299.903	6.32
300.116	6.29
300.329	6.92
300.542	7.27
300.755	7.4
300.967	7.86
301.18	7.8
301.393	7.99
301.605	8.16
301.818	8.25
302.031	8.38
302.243	8.55
302.456	8.68
302.669	8.42
302.881	8.31
303.094	8.67
303.307	8.43
303.519	8.24
303.732	8.04
303.944	8
304.157	7.85
304.37	7.52
304.582	7.38
304.795	7.29
305.007	7.61
305.22	7.74
305.432	7.28
305.645	7.47
305.857	7.79
306.069	8.22
306.282	8.43
306.494	8.48
306.707	8.76
306.919	8.85
307.132	8.97
307.344	8.79
307.556	9.1
307.769	9.23
307.981	9.41
308.193	9.31
308.406	9.11
308.618	9.42
308.83	9.59
309.043	9.48
309.255	9.17
309.467	8.96
309.679	8.9
309.892	8.75
310.104	8.88
310.316	9.17
310.528	9.29
310.74	9.21
310.953	9.07
311.165	9.22
311.377	9.15
311.589	9.41
311.801	9.88
312.013	9.89
312.225	9.92
312.437	9.86
312.649	9.7
312.862	9.8
313.074	9.87
313.286	9.93
313.498	9.6
313.71	10.04
313.922	10.1
314.134	9.69
314.346	9.65
314.558	9.83
314.77	9.93
314.982	9.76
315.193	9.61
315.405	9.53
315.617	9.23
315.829	9.33
316.041	8.78
316.253	8.79
316.465	8.95
316.677	9.72
316.888	9.45
317.1	9.12
317.312	8.81
317.524	8.88
317.736	9.47
317.947	9.86
318.159	9.73
318.371	10.33
318.583	10.63
318.794	10.65
319.006	9.6
319.218	9.86
319.43	10.02
319.641	10.38
319.853	10.53
320.064	10.14
320.276	9.98
320.488	10.4
320.699	10.07
320.911	9.74
321.123	9.81
321.334	10.24
321.546	10.27
321.757	10.16
321.969	10.04
322.18	9.68
322.392	9.57
322.603	9.92
322.815	9.94
323.026	10.34
323.238	10.23
323.449	10.07
323.661	10.08
323.872	9.86
324.083	10.28
324.295	10.07
324.506	9.93
324.718	10.16
324.929	10.02
325.14	9.89
325.352	9.68
325.563	9.73
325.774	9.79
325.986	10.04
326.197	10.09
326.408	9.91
326.62	10.27
326.831	10.27
327.042	10.29
327.253	10.12
327.464	10.4
327.676	10.27
327.887	10.48
328.098	10.45
328.309	10.06
328.52	10.2
328.732	10.27
328.943	10.34
329.154	10.87
329.365	10.96
329.576	10.77
329.787	10.88
329.998	11.28
330.209	11.54
330.42	11.58
330.631	12.05
330.842	12.01
331.053	12.2
331.264	12.09
331.475	12.06
331.686	11.67
331.897	11.91
332.108	11.9
332.319	11.93
332.53	11.78
332.741	11.81
332.952	11.71
333.163	11.86
333.374	12.14
333.585	11.95
333.795	11.82
334.006	12.25
334.217	12.49
334.428	12.4
334.639	11.95
334.849	11.51
335.06	11.66
335.271	11.79
335.482	11.59
335.692	11.46
335.903	11.63
336.114	11.59
336.325	11.48
336.535	11.6
336.746	11.59
336.957	11.99
337.167	12.5
337.378	12.28
337.589	12.13
337.799	12.15
338.01	11.88
338.22	11.9
338.431	12.36
338.642	12.17
338.852	12.1
339.063	11.79
339.273	11.81
339.484	11.61
339.694	11.67
339.905	11.5
340.115	11.55
340.326	11.57
340.536	11.45
340.746	10.79
340.957	10.92
341.167	10.76
341.378	10.72
341.588	10.67
341.799	10.66
342.009	10.84
342.219	11.08
342.43	10.98
342.64	10.89
342.85	10.66
343.061	10.77
343.271	10.4
343.481	10.43
343.691	10.52
343.902	10.48
344.112	10.52
344.322	10.55
344.532	10.41
344.743	10.66
344.953	10.81
345.163	10.95
345.373	10.75
345.583	11
345.793	10.99
346.004	11.19
346.214	11.15
346.424	11.18
346.634	11.14
346.844	11.31
347.054	10.86
347.264	10.49
347.474	10.54
347.684	10.95
347.894	10.79
348.104	10.85
348.314	10.95
348.524	10.96
348.734	11
348.944	10.75
349.154	10.7
349.364	10.97
349.574	11.13
349.784	11.46
349.994	11.14
350.204	11.23
350.413	10.97
350.623	11.09
350.833	10.87
351.043	10.68
351.253	10.76
351.463	10.63
351.672	10.35
351.882	10.57
352.092	10.28
352.302	10.51
352.511	10.36
352.721	10.72
352.931	10.39
353.141	10.28
353.35	10.27
353.56	10.37
353.77	10.73
353.979	10.92
354.189	10.79
354.399	11.01
354.608	10.97
354.818	10.94
355.027	10.75
355.237	10.52
355.447	10.82
355.656	10.79
355.866	10.45
356.075	10.03
356.285	10
356.494	9.69
356.704	9.62
356.913	9.52
357.123	9.57
357.332	9.48
357.542	9.7
357.751	9.67
357.96	9.97
358.17	10.09
358.379	10.29
358.589	10.21
358.798	10.13
359.007	10.21
359.217	10.38
359.426	10.27
359.635	10.19
359.845	9.9
360.054	9.89
360.263	9.63
360.472	9.66
360.682	9.43
360.891	9.33
361.1	9.33
361.309	9.05
361.519	8.92
361.728	9.09
361.937	9.03
362.146	9.09
362.355	9
362.564	8.98
362.774	8.96
362.983	9.11
363.192	9.24
363.401	9.39
363.61	9.5
363.819	9.5
364.028	9.69
364.237	9.77
364.446	9.85
364.655	9.69
364.864	9.71
365.073	9.73
365.282	9.54
365.491	9.53
365.7	9.57
365.909	9.68
366.118	9.78
366.327	9.44
366.536	9.5
366.745	9.41
366.954	9.81
367.162	9.75
367.371	9.58
367.58	9.73
367.789	9.47
367.998	9.13
368.207	8.91
368.415	8.72
368.624	8.87
368.833	8.93
369.042	8.79
369.25	8.65
369.459	8.61
369.668	8.62
369.877	8.53
370.085	8.83
370.294	9.27
370.503	9.07
370.711	9.11
370.92	8.91
371.129	8.95
371.337	8.92
371.546	8.68
371.754	8.69
371.963	8.63
372.171	8.54
372.38	8.42
372.589	8.43
372.797	8.68
373.006	8.51
373.214	8.55
373.423	8.24
373.631	8.66
373.84	8.73
374.048	8.56
374.256	8.77
374.465	8.75
374.673	8.62
374.882	8.41
375.09	7.97
375.298	8.08
375.507	8.12
375.715	8.32
375.923	8.1
376.132	7.81
376.34	7.89
376.548	7.66
376.757	7.59
376.965	7.47
377.173	7.41
377.381	7.65
377.59	7.53
377.798	7.49
378.006	7.17
378.214	7.17
378.423	7.3
378.631	7.18
378.839	7.2
379.047	7.17
379.255	7.29
379.463	7.43
379.671	7.34
379.879	7.46
380.088	7.32
380.296	7.4
380.504	7.48
380.712	7.63
380.92	7.71
381.128	7.56
381.336	7.58
381.544	7.57
381.752	7.31
381.96	7.14
382.168	6.97
382.376	7.19
382.584	7.22
382.791	7
382.999	7.03
383.207	6.84
383.415	7.05
383.623	6.94
383.831	6.99
384.039	6.99
384.247	7.13
384.454	7.14
384.662	6.89
384.87	6.77
385.078	6.86
385.285	6.69
385.493	6.67
385.701	6.62
385.909	6.47
386.116	6.45
386.324	6.47
386.532	6.43
386.739	6.46
386.947	6.46
387.155	6.32
387.362	6.17
387.57	6.08
387.778	6.2
387.985	6.3
388.193	6.6
388.4	6.59
388.608	6.54
388.816	6.69
389.023	6.58
389.231	6.36
389.438	6.52
389.646	6.66
389.853	6.65
390.061	6.57
390.268	6.34
390.475	6.25
390.683	6.14
390.89	5.95
391.098	5.83
391.305	5.77
391.512	5.97
391.72	5.89
391.927	5.62
392.135	5.52
392.342	5.44
392.549	5.48
392.756	5.27
392.964	5.31
393.171	5.6
393.378	5.58
393.586	5.72
393.793	5.59
394	5.66
394.207	5.76
394.414	5.82
394.622	5.91
394.829	5.95
395.036	5.91
395.243	6.06
395.45	5.81
395.657	5.77
395.864	5.62
396.072	5.68
396.279	5.59
396.486	5.56
396.693	5.59
396.9	5.4
397.107	5.18
397.314	5.29
397.521	5.39
397.728	5.53
397.935	5.43
398.142	5.48
398.349	5.55
398.556	5.56
398.763	5.63
398.97	5.61
399.177	5.7
399.383	5.84
399.59	5.93
399.797	5.64
400.004	5.72
400.211	5.88
400.418	5.83
400.625	5.87
400.831	5.81
401.038	5.78
401.245	5.76
401.452	5.77
401.658	5.62
401.865	5.61
402.072	5.52
402.279	5.36
402.485	5.24
402.692	5.18
402.899	5.12
403.105	5.21
403.312	5.25
403.519	5.24
403.725	5.14
403.932	5.23
404.138	5.4
404.345	5.45
404.552	5.38
404.758	5.44
404.965	5.47
405.171	5.23
405.378	5.15
405.584	5.19
405.791	5.18
405.997	5.13
406.204	5.2
406.41	5.11
406.617	5.22
406.823	5.15
407.029	5.13
407.236	5.18
407.442	5.53
407.649	5.63
407.855	5.55
408.061	5.59
408.268	5.72
408.474	5.43
408.68	5.35
408.887	5.12
409.093	5.34
409.299	5.32
409.505	5.18
409.712	5.17
409.918	5.22
410.124	5.21
410.33	5.34
410.537	5.47
410.743	5.65
410.949	5.58
411.155	5.81
411.361	5.7
411.567	5.6
411.773	5.75
411.98	5.52
412.186	5.3
412.392	5.19
412.598	5.04
412.804	4.93
413.01	4.84
413.216	4.82
413.422	4.52
413.628	4.69
413.834	4.74
414.04	4.68
414.246	4.89
414.452	5.05
414.658	4.99
414.864	4.9
415.07	5.07
415.275	5.19
415.481	5.28
415.687	5.35
415.893	5.25
416.099	5.2
416.305	5.19
416.511	5.1
416.716	4.98
416.922	5.06
417.128	5.07
417.334	4.93
417.539	4.78
417.745	4.66
417.951	4.59
418.157	4.63
418.362	4.64
418.568	4.61
418.774	4.53
418.979	4.49
419.185	4.44
419.391	4.36
419.596	4.35
419.802	4.38
420.008	4.38
420.213	4.4
420.419	4.39
420.624	4.38
420.83	4.38
421.035	4.4
421.241	4.52
421.446	4.53
421.652	4.56
421.857	4.57
422.063	4.6
422.268	4.62
422.474	4.61
422.679	4.61
422.885	4.58
423.09	4.54
423.295	4.47
423.501	4.39
423.706	4.42
423.911	4.37
424.117	4.29
424.322	4.24
424.527	4.24
424.733	4.19
424.938	4.15
425.143	4.1
425.349	4.17
425.554	4.18
425.759	4.25
425.964	4.28
426.169	4.36
426.375	4.42
426.58	4.57
426.785	4.64
426.99	4.73
427.195	4.77
427.4	4.96
427.605	4.96
427.811	5
428.016	4.97
428.221	4.97
428.426	4.91
428.631	4.95
428.836	4.79
429.041	4.76
429.246	4.73
429.451	4.69
429.656	4.57
429.861	4.69
430.066	4.76
430.271	4.8
430.476	4.74
430.681	4.72
430.886	4.65
431.09	4.73
431.295	4.66
431.5	4.62
431.705	4.64
431.91	4.61
432.115	4.56
432.32	4.53
432.524	4.49
432.729	4.56
432.934	4.58
433.139	4.55
433.343	4.63
433.548	4.61
433.753	4.69
433.958	4.73
434.162	4.9
434.367	4.89
434.572	4.9
434.776	4.94
434.981	4.83
435.186	4.97
435.39	4.95
435.595	4.88
435.799	4.86
436.004	4.81
436.209	4.65
436.413	4.53
436.618	4.51
436.822	4.49
437.027	4.38
437.231	4.44
437.436	4.3
437.64	4.36
437.845	4.32
438.049	4.36
438.253	4.41
438.458	4.56
438.662	4.48
438.867	4.49
439.071	4.41
439.275	4.36
439.48	4.23
439.684	4.24
439.888	4.27
440.093	4.3
440.297	4.27
440.501	4.3
440.706	4.29
440.91	4.3
441.114	4.21
441.318	4.23
441.523	4.36
441.727	4.5
441.931	4.56
442.135	4.53
442.339	4.6
442.543	4.62
442.748	4.57
442.952	4.52
443.156	4.65
443.36	4.69
443.564	4.81
443.768	4.73
443.972	4.65
444.176	4.6
444.38	4.67
444.584	4.56
444.788	4.55
444.992	4.6
445.196	4.54
445.4	4.45
445.604	4.49
445.808	4.4
446.012	4.39
446.216	4.37
446.42	4.32
446.624	4.26
446.828	4.32
447.032	4.31
447.235	4.28
447.439	4.31
447.643	4.35
447.847	4.29
448.051	4.25
448.254	4.25
448.458	4.34
448.662	4.47
448.866	4.39
449.069	4.29
449.273	4.3
449.477	4.25
449.681	4.29
449.884	4.2
450.088	4.25
450.292	4.27
450.495	4.2
450.699	4.26
450.902	4.15
451.106	4.24
451.31	4.26
451.513	4.34
451.717	4.4
451.92	4.39
452.124	4.47
452.327	4.52
452.531	4.58
452.734	4.6
452.938	4.49
453.141	4.49
453.345	4.55
453.548	4.64
453.752	4.7
453.955	4.71
454.158	4.67
454.362	4.68
454.565	4.66
454.769	4.66
454.972	4.72
455.175	4.85
455.379	5.01
455.582	4.97
455.785	4.98
455.988	4.87
456.192	4.75
456.395	4.8
456.598	4.86
456.801	4.86
457.005	4.72
457.208	4.71
457.411	4.62
457.614	4.41
457.817	4.44
458.021	4.37
458.224	4.38
458.427	4.41
458.63	4.37
458.833	4.32
459.036	4.23
459.239	4.34
459.442	4.36
459.645	4.29
459.848	4.26
460.051	4.23
460.254	4.22
460.457	4.17
460.66	4.18
460.863	4.21
461.066	4.24
461.269	4.3
461.472	4.27
461.675	4.26
461.878	4.28
462.081	4.47
462.284	4.43
462.486	4.41
462.689	4.45
462.892	4.43
463.095	4.42
463.298	4.37
463.5	4.5
463.703	4.5
463.906	4.51
464.109	4.58
464.311	4.58
464.514	4.7
464.717	4.77
464.92	4.84
465.122	4.89
465.325	4.94
465.528	4.92
465.73	4.78
465.933	4.66
466.135	4.63
466.338	4.61
466.541	4.68
466.743	4.62
466.946	4.59
467.148	4.58
467.351	4.59
467.553	4.7
467.756	4.7
467.958	4.74
468.161	4.93
468.363	4.9
468.566	4.94
468.768	4.79
468.971	4.69
469.173	4.62
469.375	4.62
469.578	4.56
469.78	4.46
469.983	4.57
470.185	4.63
470.387	4.53
470.59	4.54
470.792	4.51
470.994	4.52
471.196	4.52
471.399	4.56
471.601	4.63
471.803	4.69
472.005	4.74
472.208	4.72
472.41	4.68
472.612	4.82
472.814	4.79
473.016	4.81
473.218	4.83
473.421	4.87
473.623	4.91
473.825	4.79
474.027	4.73
474.229	4.66
474.431	4.49
474.633	4.5
474.835	4.39
475.037	4.4
475.239	4.35
475.441	4.39
475.643	4.44
475.845	4.39
476.047	4.39
476.249	4.36
476.451	4.39
476.653	4.4
476.855	4.39
477.057	4.31
477.258	4.29
477.46	4.25
477.662	4.15
477.864	4.1
478.066	4.09
478.268	4.13
478.469	4.14
478.671	4.1
478.873	4.18
479.075	4.12
479.276	4.17
479.478	4.21
479.68	4.25
479.882	4.31
480.083	4.32
480.285	4.33
480.487	4.29
480.688	4.32
480.89	4.35
481.091	4.32
481.293	4.36
481.495	4.35
481.696	4.31
481.898	4.28
482.099	4.23
482.301	4.16
482.502	4.1
482.704	4.09
482.905	4.07
483.107	4.01
483.308	4
483.51	3.98
483.711	3.94
483.913	3.93
484.114	3.9
484.315	3.9
484.517	3.91
484.718	3.96
484.92	3.96
485.121	3.98
485.322	3.99
485.524	3.97
485.725	3.99
485.926	4.01
486.127	4.02
486.329	4.07
486.53	4.07
486.731	4.08
486.932	4.07
487.134	4.1
487.335	4.07
487.536	4.09
487.737	4.11
487.938	4.09
488.139	4.12
488.341	4.16
488.542	4.18
488.743	4.18
488.944	4.19
489.145	4.2
489.346	4.2
489.547	4.24
489.748	4.25
489.949	4.26
490.15	4.29
490.351	4.29
490.552	4.26
490.753	4.18
490.954	4.19
491.155	4.21
491.356	4.21
491.557	4.17
491.758	4.17
491.959	4.16
492.159	4.16
492.36	4.15
492.561	4.14
492.762	4.21
492.963	4.28
493.164	4.32
493.364	4.35
493.565	4.37
493.766	4.45
493.967	4.43
494.167	4.48
494.368	4.5
494.569	4.6
494.769	4.67
494.97	4.64
495.171	4.68
495.371	4.65
495.572	4.72
495.773	4.74
495.973	4.76
496.174	4.85
496.375	4.93
496.575	4.9
496.776	4.84
496.976	4.8
497.177	4.74
497.377	4.71
497.578	4.84
497.778	4.85
497.979	4.88
498.179	4.86
498.38	4.9
498.58	4.86
498.78	4.92
498.981	4.88
499.181	4.94
499.382	5.02
499.582	5.06
499.782	4.96
499.983	4.93
500.183	4.94
500.383	5.01
500.584	5.01
500.784	4.9
500.984	4.99
501.184	5.18
501.385	5.16
501.585	5.16
501.785	5.2
501.985	5.31
502.185	5.35
502.386	5.35
502.586	5.39
502.786	5.48
502.986	5.66
503.186	5.6
503.386	5.5
503.586	5.59
503.786	5.66
503.987	5.64
504.187	5.63
504.387	5.67
504.587	5.76
504.787	5.77
504.987	5.73
505.187	5.76
505.387	5.83
505.587	5.93
505.786	5.96
505.986	5.94
506.186	6.08
506.386	6.14
506.586	6.17
506.786	6.12
506.986	6.21
507.186	6.26
507.386	6.34
507.585	6.39
507.785	6.46
507.985	6.52
508.185	6.61
508.384	6.6
508.584	6.62
508.784	6.65
508.984	6.68
509.183	6.68
509.383	6.67
509.583	6.73
509.782	6.75
509.982	6.7
510.182	6.75
510.381	6.81
510.581	6.91
510.781	6.91
510.98	7
511.18	7.09
511.379	7.15
511.579	7.22
511.778	7.26
511.978	7.37
512.177	7.53
512.377	7.56
512.576	7.59
512.776	7.55
512.975	7.71
513.175	7.78
513.374	7.82
513.573	7.8
513.773	7.89
513.972	7.93
514.172	8.01
514.371	8.02
514.57	8.05
514.77	8.14
514.969	8.26
515.168	8.35
515.367	8.39
515.567	8.49
515.766	8.68
515.965	8.84
516.164	9.08
516.364	9.13
516.563	9.17
516.762	9.34
516.961	9.44
517.16	9.52
517.359	9.56
517.559	9.68
517.758	9.75
517.957	9.82
518.156	9.81
518.355	9.81
518.554	9.91
518.753	10.01
518.952	10.1
519.151	10.2
519.35	10.28
519.549	10.36
519.748	10.47
519.947	10.57
520.146	10.69
520.345	10.79
520.544	10.81
520.743	10.96
520.942	11.1
521.141	11.25
521.339	11.35
521.538	11.55
521.737	11.69
521.936	11.83
522.135	11.99
522.333	12.12
522.532	12.28
522.731	12.49
522.93	12.49
523.129	12.61
523.327	12.63
523.526	12.73
523.725	12.83
523.923	12.91
524.122	13
524.321	13.09
524.519	13.16
524.718	13.29
524.917	13.38
525.115	13.53
525.314	13.62
525.512	13.69
525.711	13.81
525.909	13.86
526.108	14.01
526.306	14.1
526.505	14.19
526.703	14.27
526.902	14.38
527.1	14.46
527.299	14.56
527.497	14.64
527.696	14.71
527.894	14.72
528.092	14.81
528.291	14.84
528.489	14.86
528.688	14.92
528.886	14.99
529.084	15.02
529.283	15.08
529.481	15.1
529.679	15.15
529.877	15.24
530.076	15.38
530.274	15.46
530.472	15.57
530.67	15.74
530.869	15.85
531.067	16.03
531.265	16.14
531.463	16.29
531.661	16.5
531.859	16.66
532.057	16.78
532.255	16.89
532.454	16.91
532.652	16.98
532.85	17.04
533.048	17.14
533.246	17.22
533.444	17.35
533.642	17.44
533.84	17.46
534.038	17.52
534.236	17.62
534.434	17.66
534.632	17.83
534.83	17.92
535.027	17.98
535.225	18.09
535.423	18.12
535.621	18.21
535.819	18.22
536.017	18.28
536.215	18.37
536.412	18.44
536.61	18.57
536.808	18.64
537.006	18.77
537.203	18.88
537.401	18.95
537.599	19.1
537.797	19.14
537.994	19.24
538.192	19.29
538.39	19.41
538.587	19.47
538.785	19.53
538.983	19.64
539.18	19.65
539.378	19.77
539.575	19.85
539.773	19.86
539.97	19.88
540.168	19.98
540.366	20.04
540.563	20.05
540.761	20.07
540.958	20.09
541.155	20.11
541.353	20.17
541.55	20.2
541.748	20.26
541.945	20.32
542.143	20.42
542.34	20.44
542.537	20.54
542.735	20.56
542.932	20.62
543.129	20.67
543.327	20.75
543.524	20.83
543.721	20.87
543.919	20.91
544.116	20.99
544.313	21.04
544.51	21.11
544.708	21.18
544.905	21.33
545.102	21.51
545.299	21.64
545.496	21.72
545.693	21.78
545.891	21.85
546.088	21.95
546.285	22.03
546.482	22.11
546.679	22.12
546.876	22.14
547.073	22.18
547.27	22.14
547.467	22.16
547.664	22.2
547.861	22.23
548.058	22.37
548.255	22.42
548.452	22.43
548.649	22.45
548.846	22.66
549.043	22.65
549.24	22.7
549.437	22.77
549.633	22.81
549.83	22.82
550.027	22.85
550.224	22.74
550.421	22.68
550.618	22.69
550.814	22.69
551.011	22.71
551.208	22.83
551.405	22.83
551.601	22.81
551.798	22.91
551.995	23
552.191	23.07
552.388	23.16
552.585	23.19
552.781	23.17
552.978	23.15
553.175	23.13
553.371	23.14
553.568	23.24
553.764	23.27
553.961	23.27
554.157	23.26
554.354	23.31
554.55	23.31
554.747	23.34
554.943	23.42
555.14	23.49
555.336	23.29
555.533	23.18
555.729	23.18
555.926	23.23
556.122	23.16
556.318	23.07
556.515	22.89
556.711	22.89
556.907	22.86
557.104	22.78
557.3	22.79
557.496	23.04
557.693	23.11
557.889	23.05
558.085	23.15
558.281	23.28
558.478	23.45
558.674	23.67
558.87	23.67
559.066	23.63
559.262	23.68
559.459	23.72
559.655	23.66
559.851	23.77
560.047	23.79
560.243	23.82
560.439	23.79
560.635	23.69
560.831	23.54
561.027	23.65
561.223	23.74
561.419	23.76
561.615	23.8
561.811	23.93
562.007	23.82
562.203	23.83
562.399	23.74
562.595	23.85
562.791	23.86
562.987	24.04
563.183	23.96
563.379	24.05
563.575	24.18
563.771	24.11
563.966	24.03
564.162	24.15
564.358	24.29
564.554	24.34
564.75	24.23
564.945	24.24
565.141	24.2
565.337	24.21
565.533	24.16
565.728	24.02
565.924	24.08
566.12	24.17
566.315	24.07
566.511	24.01
566.707	24.03
566.902	24.04
567.098	24.06
567.293	24.11
567.489	24.11
567.684	24.09
567.88	24.22
568.076	24.15
568.271	24.1
568.467	24.17
568.662	24.16
568.858	24.18
569.053	24.33
569.248	24.39
569.444	24.36
569.639	24.34
569.835	24.37
570.03	24.29
570.225	24.39
570.421	24.42
570.616	24.51
570.812	24.57
571.007	24.46
571.202	24.38
571.397	24.29
571.593	24.28
571.788	24.34
571.983	24.36
572.178	24.45
572.374	24.41
572.569	24.38
572.764	24.34
572.959	24.25
573.154	24.34
573.35	24.25
573.545	24.3
573.74	24.29
573.935	24.29
574.13	24.25
574.325	24.2
574.52	24.23
574.715	24.2
574.91	24.16
575.105	24.31
575.3	24.4
575.495	24.48
575.69	24.59
575.885	24.73
576.08	24.63
576.275	24.81
576.47	24.89
576.665	25.01
576.86	25.05
577.055	25.25
577.25	25.16
577.444	25.14
577.639	25.37
577.834	25.41
578.029	25.42
578.224	25.7
578.418	25.63
578.613	25.74
578.808	25.75
579.003	25.86
579.197	25.74
579.392	25.82
579.587	25.84
579.781	25.59
579.976	25.43
580.171	25.46
580.365	25.38
580.56	25.31
580.755	25.26
580.949	25.2
581.144	25.29
581.338	25.33
581.533	25.27
581.727	25.25
581.922	25.25
582.116	25.39
582.311	25.48
582.505	25.39
582.7	25.43
582.894	25.42
583.089	25.5
583.283	25.41
583.478	25.36
583.672	25.55
583.866	25.66
584.061	25.79
584.255	25.79
584.449	25.7
584.644	25.77
584.838	25.88
585.032	25.85
585.226	25.84
585.421	25.88
585.615	26.15
585.809	26.3
586.003	26.32
586.198	26.41
586.392	26.47
586.586	26.53
586.78	26.56
586.974	26.56
587.168	26.47
587.363	26.57
587.557	26.6
587.751	26.39
587.945	26.11
588.139	26
588.333	25.81
588.527	25.76
588.721	25.8
588.915	25.85
589.109	25.87
589.303	26.04
589.497	26.02
589.691	25.97
589.885	26.01
590.079	26.2
590.273	26.28
590.466	26.31
590.66	26.3
590.854	26.16
591.048	26.13
591.242	26.05
591.436	25.98
591.629	25.98
591.823	25.98
592.017	26.03
592.211	26.03
592.404	26.04
592.598	26.18
592.792	26.19
592.986	26.29
593.179	26.3
593.373	26.47
593.567	26.52
593.76	26.6
593.954	26.65
594.147	26.57
594.341	26.58
594.535	26.41
594.728	26.4
594.922	26.27
595.115	26.31
595.309	26.39
595.502	26.3
595.696	26.24
595.889	26.07
596.083	25.93
596.276	25.83
596.47	25.8
596.663	25.89
596.856	25.93
597.05	26.02
597.243	25.99
597.437	26.04
597.63	26.03
597.823	26.11
598.017	26.24
598.21	26.42
598.403	26.67
598.596	26.74
598.79	26.77
598.983	26.73
599.176	26.83
599.369	26.88
599.563	26.93
599.756	27
599.949	27.03
600.142	26.99
600.335	27.05
600.528	26.87
600.722	26.93
600.915	26.97
601.108	27.05
601.301	27.1
601.494	27
601.687	26.95
601.88	26.94
602.073	26.85
602.266	26.72
602.459	26.61
602.652	26.77
602.845	26.68
603.038	26.69
603.231	26.53
603.424	26.44
603.617	26.44
603.809	26.35
604.002	26.32
604.195	26.42
604.388	26.67
604.581	26.67
604.774	26.6
604.966	26.64
605.159	26.69
605.352	26.84
605.545	26.99
605.737	27.07
605.93	27.2
606.123	27.31
606.316	27.38
606.508	27.21
606.701	27.34
606.894	27.39
607.086	27.34
607.279	27.21
607.471	27.22
607.664	27.16
607.857	27.33
608.049	27.34
608.242	27.29
608.434	27.37
608.627	27.68
608.819	27.73
609.012	27.9
609.204	28.09
609.397	28.31
609.589	28.46
609.782	28.71
609.974	28.93
610.166	29.12
610.359	29.41
610.551	29.64
610.743	29.78
610.936	30.08
611.128	30.36
611.32	30.59
611.513	30.82
611.705	30.93
611.897	30.94
612.09	30.69
612.282	30.77
612.474	30.67
612.666	30.52
612.858	30.41
613.051	30.29
613.243	30.07
613.435	29.97
613.627	29.72
613.819	29.65
614.011	29.9
614.203	29.97
614.395	29.73
614.588	29.57
614.78	29.4
614.972	29.12
615.164	29.06
615.356	29.05
615.548	28.87
615.74	28.89
615.932	28.71
616.124	28.09
616.315	28.04
616.507	27.83
616.699	27.81
616.891	27.85
617.083	28.02
617.275	27.94
617.467	27.81
617.659	27.84
617.85	27.86
618.042	28.19
618.234	28.5
618.426	28.48
618.618	28.7
618.809	28.84
619.001	28.8
619.193	28.75
619.384	28.67
619.576	28.75
619.768	28.73
619.959	28.8
620.151	28.64
620.343	28.61
620.534	28.58
620.726	28.54
620.917	28.5
621.109	28.5
621.301	28.39
621.492	28.48
621.684	28.44
621.875	28.42
622.067	28.25
622.258	28.06
622.45	28.06
622.641	27.96
622.832	28.05
623.024	27.99
623.215	28.05
623.407	28.1
623.598	28.09
623.789	28.1
623.981	28.12
624.172	28.19
624.363	28.22
624.555	28.26
624.746	28.35
624.937	28.29
625.129	28.25
625.32	28.02
625.511	27.96
625.702	27.92
625.893	27.93
626.085	27.83
626.276	27.81
626.467	27.86
626.658	27.79
626.849	27.74
627.04	27.62
627.231	27.58
627.422	27.78
627.614	27.8
627.805	27.78
627.996	27.71
628.187	27.73
628.378	27.77
628.569	27.85
628.76	27.87
628.951	27.89
629.142	28.1
629.332	28.21
629.523	28.14
629.714	28.2
629.905	28.28
630.096	28.45
630.287	28.6
630.478	28.62
630.669	28.67
630.859	28.72
631.05	28.55
631.241	28.55
631.432	28.57
631.623	28.52
631.813	28.54
632.004	28.53
632.195	28.32
632.385	28.11
632.576	27.99
632.767	27.9
632.957	27.75
633.148	27.94
633.339	27.77
633.529	27.69
633.72	27.82
633.91	27.65
634.101	27.54
634.292	27.65
634.482	27.58
634.673	27.61
634.863	27.57
635.054	27.78
635.244	27.82
635.435	27.91
635.625	28.18
635.815	28.15
636.006	28.2
636.196	28.29
636.387	28.03
636.577	28.37
636.767	28.39
636.958	28.47
637.148	28.32
637.338	28.36
637.529	28.37
637.719	28.22
637.909	28.21
638.099	28.4
638.29	28.41
638.48	28.68
638.67	28.64
638.86	28.67
639.05	28.64
639.241	28.7
639.431	28.79
639.621	28.87
639.811	29.12
640.001	29.06
640.191	28.97
640.381	28.96
640.571	29.02
640.761	28.84
640.951	28.94
641.141	29
641.331	28.91
641.521	28.67
641.711	28.86
641.901	28.65
642.091	28.84
642.281	28.81
642.471	28.68
642.661	28.51
642.851	28.67
643.041	28.63
643.231	28.52
643.42	28.65
643.61	28.68
643.8	28.4
643.99	28.41
644.18	28.26
644.369	28.34
644.559	28.59
644.749	28.82
644.939	28.79
645.128	29.06
645.318	29.13
645.508	29.05
645.697	29
645.887	29.13
646.076	29.23
646.266	29.51
646.456	29.49
646.645	29.35
646.835	29.14
647.024	29.01
647.214	28.87
647.403	28.95
647.593	29.09
647.782	29.17
647.972	29.06
648.161	28.83
648.351	28.62
648.54	28.63
648.73	28.55
648.919	28.68
649.108	28.59
649.298	28.35
649.487	28.39
649.677	28.3
649.866	28.48
650.055	28.28
650.244	28.3
650.434	28.3
650.623	28.3
650.812	28.41
651.002	28.27
651.191	28.38
651.38	28.44
651.569	28.19
651.758	28.3
651.947	28
652.137	28.33
652.326	28.44
652.515	28.27
652.704	28.48
652.893	28.58
653.082	28.68
653.271	28.97
653.46	28.98
653.649	29.25
653.838	29.1
654.027	29.43
654.216	29.34
654.405	29.2
654.594	29.32
654.783	29.02
654.972	28.9
655.161	28.81
655.35	28.78
655.539	28.8
655.728	28.37
655.916	28.46
656.105	28.48
656.294	28.44
656.483	28.54
656.672	28.52
656.86	28.6
657.049	28.69
657.238	28.77
657.427	28.69
657.615	28.5
657.804	28.82
657.993	28.52
658.181	28.32
658.37	28.18
658.559	28.08
658.747	28.18
658.936	28.05
659.125	28.13
659.313	27.98
659.502	27.79
659.69	27.68
659.879	27.65
660.067	27.93
660.256	27.96
660.444	28.17
660.633	28.29
660.821	28.28
661.01	28.53
661.198	28.29
661.387	28.48
661.575	28.76
661.763	29.06
661.952	29.22
662.14	29.38
662.328	29.56
662.517	29.54
662.705	29.7
662.893	29.7
663.082	29.6
663.27	29.8
663.458	29.62
663.646	29.75
663.834	30
664.023	29.7
664.211	29.48
664.399	29.34
664.587	29.37
664.775	29.33
664.963	29.22
665.152	29.35
665.34	29.1
665.528	29.15
665.716	29.04
665.904	28.9
666.092	29.12
666.28	29
666.468	29.1
666.656	29.25
666.844	29.33
667.032	29.38
667.22	29.19
667.408	29.49
667.596	29.57
667.784	29.37
667.971	29.37
668.159	29.25
668.347	29.15
668.535	28.94
668.723	28.73
668.911	28.56
669.098	28.68
669.286	28.85
669.474	28.94
669.662	29.06
669.849	29.08
670.037	29.08
670.225	28.89
670.413	29.04
670.6	29.42
670.788	29.42
670.976	29.47
671.163	29.2
671.351	29.07
671.538	28.84
671.726	28.8
671.913	28.92
672.101	28.83
672.289	29.01
672.476	29.05
672.664	28.81
672.851	29.03
673.039	29.06
673.226	29.26
673.413	29.61
673.601	29.67
673.788	29.31
673.976	29.11
674.163	29.07
674.35	29.15
674.538	29.26
674.725	29.32
674.912	29.18
675.1	29.15
675.287	29.09
675.474	28.97
675.662	28.88
675.849	29.27
676.036	29.58
676.223	29.79
676.411	29.98
676.598	29.75
676.785	29.88
676.972	29.91
677.159	29.78
677.346	29.86
677.533	29.79
677.721	29.98
677.908	29.93
678.095	29.55
678.282	29.21
678.469	29.13
678.656	29.24
678.843	28.91
679.03	28.93
679.217	28.99
679.404	29.04
679.591	29.05
679.778	28.94
679.964	28.89
680.151	29.27
680.338	29.3
680.525	29.15
680.712	28.99
680.899	28.97
681.086	28.93
681.272	28.86
681.459	28.8
681.646	28.88
681.833	28.89
682.02	28.86
682.206	28.68
682.393	28.71
682.58	28.59
682.766	28.87
682.953	28.94
683.14	28.81
683.326	28.93
683.513	29.04
683.7	29.05
683.886	29.04
684.073	29.27
684.259	29.07
684.446	29.43
684.632	29.79
684.819	29.65
685.005	29.81
685.192	30.11
685.378	29.96
685.565	29.78
685.751	29.67
685.938	29.58
686.124	29.56
686.31	29.55
686.497	29.22
686.683	29.23
686.87	29.31
687.056	29.12
687.242	28.95
687.429	29.12
687.615	29.18
687.801	29.22
687.987	29.37
688.174	29.27
688.36	29.42
688.546	29.52
688.732	29.44
688.918	29.25
689.105	29.4
689.291	29.38
689.477	29.46
689.663	29.42
689.849	29.33
690.035	29.05
690.221	29.27
690.407	29.49
690.593	29.64
690.779	29.56
690.965	29.59
691.151	29.57
691.337	29.49
691.523	29.59
691.709	29.84
691.895	29.73
692.081	29.98
692.267	29.84
692.453	29.69
692.639	29.51
692.825	29.78
693.011	29.99
693.196	29.7
693.382	29.85
693.568	29.32
693.754	29.11
693.94	29.11
694.125	29.2
694.311	28.87
694.497	28.68
694.682	28.7
694.868	28.71
695.054	28.73
695.239	29.05
695.425	29.16
695.611	29.35
695.796	29.1
695.982	28.96
696.168	29.01
696.353	29.33
696.539	29.25
696.724	29.16
696.91	28.79
697.095	28.55
697.281	28.35
697.466	28.16
697.652	28.25
697.837	28.21
698.023	28.14
698.208	28.06
698.393	27.96
698.579	28.11
698.764	28.11
698.949	28.25
699.135	28.41
699.32	28.6
699.505	28.62
699.691	28.59
699.876	28.71
700.061	29.09
700.246	29.12
700.432	29.33
700.617	29.07
700.802	29.33
700.987	29.39
701.172	29.5
701.358	29.65
701.543	29.66
701.728	29.99
701.913	30.22
702.098	29.91
702.283	29.89
702.468	29.68
702.653	30.02
702.838	29.91
703.023	30.18
703.208	30.03
703.393	29.87
703.578	29.92
703.763	29.74
703.948	29.62
704.133	29.49
704.318	29.74
704.503	29.95
704.688	30.35
704.873	30.02
705.057	29.86
705.242	30.02
705.427	30.34
705.612	30.19
705.797	30.18
705.981	30.36
706.166	30.81
706.351	30.59
706.536	30.25
706.72	30.08
706.905	30.4
707.09	30.28
707.274	30.54
707.459	30.4
707.644	30.68
707.828	30.73
708.013	30.92
708.197	30.51
708.382	30.54
708.567	30.68
708.751	30.63
708.936	30.6
709.12	30.69
709.305	30.27
709.489	30.42
709.673	30.81
709.858	30.89
710.042	30.95
710.227	30.94
710.411	31.05
710.596	31.32
710.78	31.6
710.964	31.6
711.149	31.61
711.333	31.39
711.517	31.5
711.702	31.13
711.886	30.96
712.07	30.87
712.254	31.43
712.438	31.48
712.623	31.38
712.807	31.23
712.991	31.23
713.175	31
713.359	31.03
713.544	30.61
713.728	30.39
713.912	30.45
714.096	30.21
714.28	29.95
714.464	29.83
714.648	29.54
714.832	29.17
715.016	29
715.2	28.88
715.384	29.14
715.568	29.27
715.752	29.18
715.936	28.87
716.12	28.92
716.304	29.07
716.488	28.65
716.671	28.6
716.855	28.72
717.039	28.93
717.223	29.2
717.407	28.92
717.59	29.08
717.774	29.44
717.958	29.52
718.142	29.31
718.325	29.22
718.509	29.61
718.693	29.86
718.877	30.14
719.06	30.09
719.244	30.12
719.428	30.47
719.611	30.27
719.795	29.94
719.978	30.16
720.162	30.27
720.345	30.17
720.529	30.56
720.713	30.99
720.896	30.69
721.08	30.87
721.263	31.18
721.446	31.33
721.63	31.24
721.813	31.53
721.997	31.81
722.18	32.1
722.364	31.9
722.547	31.34
722.73	31.07
722.914	30.83
723.097	30.81
723.28	30.27
723.464	30.34
723.647	30.43
723.83	30.61
724.013	30.46
724.197	30.59
724.38	30.86
724.563	30.86
724.746	30.9
724.929	31.66
725.112	31.77
725.296	32.2
725.479	31.58
725.662	31.58
725.845	31.33
726.028	31.39
726.211	31.06
726.394	31.21
726.577	31.18
726.76	30.92
726.943	30.62
727.126	30.16
727.309	30.05
727.492	30.01
727.675	29.79
727.858	29.83
728.041	30.02
728.224	30.3
728.407	30.24
728.589	29.98
728.772	29.79
728.955	29.72
729.138	29.98
729.321	29.83
729.503	30.03
729.686	30.26
729.869	30.26
730.052	29.9
730.234	29.85
730.417	29.43
730.6	29.92
730.782	30.33
730.965	30.72
731.148	30.45
731.33	30.62
731.513	30.66
731.695	30.6
731.878	30.57
732.061	30.53
732.243	29.69
732.426	29.98
732.608	30.05
732.791	29.84
732.973	29.36
733.156	29.43
733.338	29.23
733.52	29.03
733.703	28.76
733.885	28.78
734.068	28.97
734.25	29.64
734.432	29.44
734.615	29.35
734.797	29.42
734.979	29.43
735.162	29.2
735.344	29.3
735.526	29.33
735.708	29.74
735.891	29.63
736.073	29.56
736.255	29.69
736.437	29.44
736.619	29.35
736.802	29.13
736.984	29.36
737.166	29.66
737.348	29.78
737.53	29.97
737.712	29.83
737.894	29.95
738.076	30.08
738.258	30.23
738.44	30.73
738.622	30.98
738.804	31.07
738.986	30.91
739.168	31.86
739.35	31.61
739.532	31.6
739.714	31.6
739.896	31.45
740.078	31.34
740.259	31.49
740.441	31.18
740.623	31.12
740.805	31.53
740.987	31.5
741.168	30.46
741.35	30.54
741.532	30.99
741.714	31.14
741.895	31.41
742.077	31.66
742.259	31.46
742.44	31.84
742.622	31.59
742.804	31.47
742.985	31.72
743.167	32.29
743.348	32.85
743.53	32.35
743.711	32.4
743.893	32.48
744.075	32.72
744.256	32.7
744.438	32.77
744.619	33.38
744.8	33.27
744.982	33.08
745.163	32.42
745.345	31.73
745.526	32.59
745.707	32.58
745.889	32.23
746.07	31.94
746.252	31.6
746.433	31.64
746.614	31.88
746.795	31.79
746.977	31.8
747.158	32.1
747.339	32.19
747.52	31.69
747.702	31.68
747.883	31.68
748.064	31.85
748.245	32.3
748.426	31.95
748.607	31.3
748.788	31.02
748.97	30.96
749.151	31.39
749.332	31.76
749.513	31.56
749.694	31.39
749.875	31.46
750.056	31.27
750.237	31.25
750.418	31.34
750.599	31.36
750.78	32.07
750.96	32
751.141	31.67
751.322	31.8
751.503	31.96
751.684	31.83
751.865	32.1
752.046	31.83
752.226	31.59
752.407	31.44
752.588	32.22
752.769	32.48
752.949	32.26
753.13	32.7
753.311	32.1
753.492	31.66
753.672	32.2
753.853	31.93
754.034	32.38
754.214	32.91
754.395	33
754.575	32.5
754.756	31.66
754.937	31.96
755.117	31.74
755.298	31.55
755.478	32.32
755.659	32.34
755.839	32.63
756.02	32.68
756.2	32.41
756.381	32.39
756.561	32.5
756.741	32.35
756.922	32.62
757.102	32.71
757.283	33.01
757.463	31.99
757.643	31.27
757.823	31.41
758.004	30.58
758.184	30.4
758.364	30.56
758.545	30.68
758.725	31.28
758.905	30.61
759.085	30.27
759.265	29.87
759.446	30.14
759.626	30.42
759.806	29.81
759.986	30.38
760.166	30.11
760.346	30.25
760.526	29.79
760.706	29.13
760.886	29.04
761.066	28.84
761.246	29.58
761.426	29.92
761.606	29.79
761.786	29.63
761.966	29.61
762.146	29.44
762.326	28.92
762.506	28.53
762.686	28.67
762.866	28.84
763.046	29.12
763.225	28.97
763.405	29.16
763.585	28.85
763.765	28.84
763.945	28.52
764.124	28.45
764.304	28.37
764.484	28.37
764.664	28.51
764.843	28.76
765.023	28.84
765.203	28.81
765.382	28.34
765.562	28.77
765.741	29.24
765.921	29.44
766.101	30.15
766.28	30.43
766.46	31.07
766.639	30.7
766.819	31.13
766.998	30.87
767.178	31.2
767.357	31.06
767.537	31.14
767.716	31.16
767.896	31.56
768.075	30.87
768.254	31.26
768.434	31.68
768.613	32.47
768.792	32.38
768.972	32.38
769.151	32.59
769.33	33.43
769.51	33.2
769.689	33.3
769.868	32.77
770.047	33.02
770.226	33.43
770.406	33.35
770.585	32.31
770.764	32.16
770.943	32.25
771.122	31.48
771.301	30.94
771.48	31.47
771.66	30.93
771.839	31.7
772.018	32.05
772.197	31.66
772.376	31.61
772.555	32.57
772.734	32.99
772.913	33.4
773.092	33.88
773.271	34.29
773.449	34.35
773.628	34.68
773.807	34.09
773.986	34.24
774.165	35.5
774.344	35.22
774.523	35.16
774.701	35.06
774.88	35.12
775.059	34.91
775.238	34.9
775.417	34.76
775.595	35.13
775.774	35.57
775.953	35.62
776.131	34.64
776.31	34.91
776.489	34.67
776.667	34.13
776.846	34.23
777.025	34.39
777.203	34.55
777.382	34.47
777.56	34.09
777.739	33.4
777.917	33.25
778.096	33.49
778.274	33.01
778.453	33.49
778.631	33.19
778.81	32.94
778.988	32.35
779.166	32.09
779.345	33.24
779.523	34.01
779.702	35.31
779.88	35.95
780.058	35.64
780.237	35.45
780.415	35.57
780.593	36
780.771	35.8
780.95	36.53
781.128	36.65
781.306	34.7
781.484	34.8
781.662	34.05
781.841	33.57
782.019	33.39
782.197	33.57
782.375	33.38
782.553	32.9
782.731	32.85
782.909	32.08
783.087	32.44
783.265	32.93
783.443	32.42
783.621	32.71
783.799	33.01
783.977	32.69
784.155	33.53
784.333	33.37
784.511	34.02
784.689	34.32
784.867	35.02
785.045	34.2
785.223	34.43
785.4	34.43
785.578	34.85
785.756	34.13
785.934	35.02
786.112	34.22
786.289	33.75
786.467	33.81
786.645	33.97
786.823	33.26
787	34.05
787.178	34.26
787.356	34.18
787.533	33.56
787.711	34.59
787.889	34.27
788.066	34.34
788.244	34.28
788.421	34.08
788.599	34.21
788.776	34.42
788.954	33.55
789.131	32.78
789.309	32.89
789.486	33.37
789.664	31.91
789.841	31.64
790.019	31.47
790.196	32.25
790.373	32.6
790.551	32.33
790.728	32.42
790.906	33
791.083	33.44
791.26	32.18
791.437	31.76
791.615	32.28
791.792	32.76
791.969	33.5
792.146	33.6
792.324	33.04
792.501	33.1
792.678	34.14
792.855	34.91
793.032	35.05
793.209	36.16
793.387	36.92
793.564	36.27
793.741	35.86
793.918	36.48
794.095	36.7
794.272	36.35
794.449	35.49
794.626	34.82
794.803	33.59
794.98	33.78
795.157	33.93
795.334	32.98
795.511	33.86
795.688	34.23
795.864	32.76
796.041	33.24
796.218	32.85
796.395	32.77
796.572	32.59
796.749	32.96
796.925	33.03
797.102	33.08
797.279	32.73
797.456	32.59
797.632	32.5
797.809	33.44
797.986	32.77
798.162	34.65
798.339	35.35
798.516	35.35
798.692	35.49
798.869	34.94
799.046	34.36
799.222	34.91
799.399	35.36
799.575	34.77
799.752	33.92
799.928	33.07
800.105	31.94
800.281	32.36
800.458	32.92
800.634	33.44
800.811	33.73
800.987	33.66
801.163	34.14
801.34	34.15
801.516	33.94
801.692	34.18
801.869	35.57
802.045	36.45
802.221	36.79
802.398	36.35
802.574	35.37
802.75	35.3
802.926	36.3
803.103	35.57
803.279	35.07
803.455	35.53
803.631	35.71
803.807	34.09
803.983	32.4
804.16	30.93
804.336	31.46
804.512	32.17
804.688	33.62
804.864	33.06
805.04	32.99
805.216	34.18
805.392	34.65
805.568	34.91
805.744	36.5
805.92	36.94
806.096	37.34
806.272	36.72
806.448	36.68
806.623	35.67
806.799	35.27
806.975	36.1
807.151	36.31
807.327	35.69
807.503	35.51
807.678	34.4
807.854	35.54
808.03	36.14
808.206	36.28
808.381	36.52
808.557	37.42
808.733	37.93
808.908	37.86
809.084	37.19
809.26	37.78
809.435	38.46
809.611	37.69
809.787	36.82
809.962	36.92
810.138	36.29
810.313	35.75
810.489	34.46
810.664	35.24
810.84	35.13
811.015	35.23
811.191	35.76
811.366	35.06
811.542	35.34
811.717	36.38
811.892	37.2
812.068	38.1
812.243	36.86
812.419	36.66
812.594	35.64
812.769	35.47
812.944	35.55
813.12	35.15
813.295	36.12
813.47	36.07
813.645	35.82
813.821	34.69
813.996	34.12
814.171	35.34
814.346	35.97
814.521	35.53
814.697	36.26
814.872	36.06
815.047	34.87
815.222	35.47
815.397	36.46
815.572	36.85
815.747	36.3
815.922	36.57
816.097	35.87
816.272	36.37
816.447	36.04
816.622	35.77
816.797	34.97
816.972	34.88
817.147	32.99
817.322	31.74
817.496	30.31
817.671	31.43
817.846	31.02
818.021	31.49
818.196	30.61
818.371	32.53
818.545	32.14
818.72	32.61
818.895	32.4
819.069	31.87
819.244	32.46
819.419	33.25
819.594	31.87
819.768	32.05
819.943	32.29
820.117	31.56
820.292	30.2
820.467	28.84
820.641	27.93
820.816	27.27
820.99	26.8
821.165	25.95
821.339	25.26
821.514	24.99
821.688	24.83
821.863	24.4
822.037	24.16
822.212	24.3
822.386	24.38
822.56	24.31
822.735	24.44
822.909	24.4
823.084	24.48
823.258	24.46
823.432	24.34
823.606	24.15
823.781	24.32
823.955	24.44
824.129	24.34
824.303	24.42
824.478	24.22
824.652	24.27
824.826	24.38
825	24.65
825.174	24.7
825.348	25.09
825.523	25.34
825.697	25.43
825.871	25.56
826.045	25.48
826.219	25.57
826.393	25.92
826.567	25.93
826.741	25.51
826.915	25.58
827.089	26.05
827.263	26
827.437	26.09
827.611	25.76
827.784	25.61
827.958	25.72
828.132	25.48
828.306	25.8
828.48	26.36
828.654	27.47
828.827	27.73
829.001	27.29
829.175	27.75
829.349	27.66
829.522	27.7
829.696	29.15
829.87	28.82
830.044	29.44
830.217	29.83
830.391	29.46
830.565	29.14
830.738	28.94
830.912	30.66
831.085	30.15
831.259	30.57
831.432	31.75
831.606	31.28
831.779	30.76
831.953	30.87
832.126	30.23
832.3	30.34
832.473	29.28
832.647	28.72
832.82	27.27
832.994	27.79
833.167	27.98
833.34	27.46
833.514	26.82
833.687	26.89
833.86	26.06
834.034	25.97
834.207	25.31
834.38	25.79
834.553	26.34
834.727	26.62
834.9	26.64
835.073	26.8
835.246	26.64
835.419	26.98
835.593	28.02
835.766	28.94
835.939	30.32
836.112	30.99
836.285	31.25
836.458	31.78
836.631	32.96
836.804	33.06
836.977	33.38
837.15	36.26
837.323	36.11
837.496	35.84
837.669	36.41
837.842	34.57
838.015	35.03
838.188	35.73
838.361	34.78
838.533	35.25
838.706	35.49
838.879	36.34
839.052	34.01
839.225	35.07
839.398	34.91
839.57	34.63
839.743	34.98
839.916	35.76
840.088	34.48
840.261	34.87
840.434	33.88
840.607	33.41
840.779	33.11
840.952	33.37
841.124	31.72
841.297	32.22
841.47	31.65
841.642	31.41
841.815	32.36
841.987	35.21
842.16	34.87
842.332	37.14
842.505	39.06
842.677	40.8
842.85	42.57
843.022	47.9
843.194	47.46
843.367	49.75
843.539	51.87
843.712	52.9
843.884	52.97
844.056	56.62
844.229	54.22
844.401	56.6
844.573	54.76
844.745	52.47
844.918	49.56
845.09	52.43
845.262	50.09
845.434	51.44
845.606	50.92
845.779	49.2
845.951	48.24
846.123	48.67
846.295	48
846.467	45.01
846.639	49.6
846.811	48.87
846.983	50.56
847.155	52.92
847.327	52.06
847.499	51.51
847.671	53.73
847.843	51.25
848.015	52.9
848.187	51.32
848.359	54.19
848.531	50.55
848.703	50.6
848.875	46.7
849.047	49.61
849.218	51.5
849.39	53.05
849.562	52.34
849.734	56.59
849.905	57.04
850.077	57.82
850.249	52.21
850.421	48.93
850.592	49.9
850.764	45.87
850.936	42.71
851.107	37.69
851.279	35.81
851.451	37.32
851.622	36.71
851.794	33.63
851.965	36.27
852.137	41.82
852.308	42.76
852.48	45.71
852.651	54.32
852.823	53.74
852.994	57.47
853.166	58.56
853.337	57.86
853.509	56
853.68	56.5
853.851	51.12
854.023	49.54
854.194	55.26
854.365	51.57
854.537	54.37
854.708	56.53
854.879	51.66
855.05	53.92
855.222	51.25
855.393	53.83
855.564	54.61
855.735	55.79
855.906	57.85
856.078	52.77
856.249	54.22
856.42	51.01
856.591	48.9
856.762	56.27
856.933	53.14
857.104	56.22
857.275	55.42
857.446	56.55
857.617	58.41
857.788	58.64
857.959	60.12
858.13	61.4
858.301	58.7
858.472	59.42
858.643	54.19
858.814	55.5
858.985	57.29
859.155	57.48
859.326	57.63
859.497	58.91
859.668	59.02
859.839	53.81
860.009	54.38
860.18	53.15
860.351	54.32
860.522	58.58
860.692	57.28
860.863	56.98
861.034	56.21
861.204	54.8
861.375	53.37
861.546	53.79
861.716	60.46
861.887	58.25
862.057	59.14
862.228	59.61
862.398	59.3
862.569	62.4
862.739	57.02
862.91	56.34
863.08	58.71
863.251	56.93
863.421	58.06
863.592	57.26
863.762	61.23
863.932	64.63
864.103	65.68
864.273	63.54
864.443	60.09
864.614	65.81
864.784	65.53
864.954	65.84
865.125	67.43
865.295	67
865.465	64.68
865.635	60.94
865.805	59.64
865.976	57.85
866.146	61.38
866.316	62.39
866.486	59.47
866.656	62.27
866.826	57.03
866.996	56.77
867.166	55.1
867.336	59.29
867.506	61
867.676	62.16
867.846	60.81
868.016	60.29
868.186	65.3
868.356	62.67
868.526	60.25
868.696	60.89
868.866	61.5
869.036	62.17
869.206	57.98
869.376	52.51
869.545	52.92
869.715	54.56
869.885	57.32
870.055	53.75
870.224	57.44
870.394	60.4
870.564	59.86
870.734	60.34
870.903	57.5
871.073	60.05
871.243	64.82
871.412	61.16
871.582	57.97
871.751	51.84
871.921	52.12
872.091	53.4
872.26	49.36
872.43	51.44
872.599	53.19
872.769	57.78
872.938	57.42
873.108	56.89
873.277	62.34
873.446	67.31
873.616	67.22
873.785	64.84
873.955	61.47
874.124	66.66
874.293	65.87
874.463	61.87
874.632	57.99
874.801	56.6
874.971	55.97
875.14	54.23
875.309	56.15
875.478	58.04
875.647	56.07
875.817	57.81
875.986	56.54
876.155	55.4
876.324	53.43
876.493	54.24
876.662	52.72
876.831	51.79
877	51.31
877.17	47.49
877.339	49.27
877.508	53.58
877.677	52.1
877.846	47.5
878.015	48.19
878.184	52.15
878.352	51.72
878.521	53.25
878.69	52.35
878.859	49.69
879.028	47.41
879.197	47.35
879.366	46.56
879.534	43.86
879.703	43.99
879.872	42.51
880.041	38.93
880.21	36.24
880.378	34.1
880.547	32.27
880.716	31.03
880.884	30.24
881.053	28.61
881.222	27.86
881.39	27.16
881.559	26.57
881.727	26.05
881.896	25.84
882.065	26.27
882.233	26.12
882.402	26.09
882.57	25.75
882.739	25.88
882.907	26.3
883.076	25.79
883.244	25.39
883.412	25.15
883.581	24.76
883.749	25.09
883.918	24.7
884.086	24.45
884.254	25.3
884.423	25.89
884.591	25.26
884.759	25.4
884.927	25.86
885.096	27.8
885.264	29.17
885.432	30.81
885.6	32.44
885.769	34.82
885.937	36.54
886.105	36.25
886.273	37.67
886.441	41.01
886.609	41.79
886.777	41.89
886.945	42.93
887.113	46.19
887.281	49.27
887.449	49.67
887.617	50.41
887.785	50.15
887.953	52.28
888.121	55
888.289	56.86
888.457	53.81
888.625	55.2
888.793	53.47
888.961	51.16
889.129	49.79
889.296	50.95
889.464	49.86
889.632	52.34
889.8	52.09
889.967	47.81
890.135	47.06
