Data from 2937896_Reflection_1.txt Node
Date: Wed Jul 15 13:51:12 EDT 2015
User: robert
Spectrometer: USB4E03001
Autoset integration time: false
Trigger mode: 4
Integration Time (sec): 1.000000E-1
Scans to average: 10
Electric dark correction enabled: true
Nonlinearity correction enabled: false
Boxcar width: 5
Stray light correction enabled: false
XAxis mode: Wavelengths
Stop averaging: false
Number of Pixels in Spectrum: 3648
>>>>>Begin Spectral Data<<<<<
177.566	27.85
177.785	36.91
178.005	63.06
178.225	3.89
178.445	19.14
178.665	-39.32
178.885	-262.55
179.105	-350
179.324	-138.08
179.544	-5.99
179.764	38.96
179.984	44.74
180.204	31.78
180.423	12.03
180.643	47.47
180.863	49.01
181.083	19.06
181.302	-88.76
181.522	23.03
181.742	45
181.961	94.39
182.181	143.41
182.401	474.97
182.621	883.58
182.84	422.97
183.06	255.39
183.279	-227.51
183.499	6827.96
183.719	490.43
183.938	-676.71
184.158	-518.36
184.377	-373.36
184.597	-480.62
184.816	-205.46
185.036	-595.41
185.256	-189.67
185.475	-78.35
185.695	-263.06
185.914	-258.11
186.134	-107.41
186.353	-54.81
186.572	-117.84
186.792	-9.07
187.011	-96.31
187.231	119.71
187.45	-79.3
187.67	177.18
187.889	71.93
188.108	-25
188.328	-119.83
188.547	165.14
188.766	146.94
188.986	-607.99
189.205	-324.09
189.424	-91.82
189.644	-71.59
189.863	-50.78
190.082	-61.04
190.302	-199.17
190.521	-221.22
190.74	-118.65
190.959	17.52
191.178	-14.57
191.398	51.01
191.617	-33.94
191.836	35.79
192.055	30.19
192.274	30.74
192.494	48.92
192.713	12.03
192.932	52.05
193.151	190.31
193.37	66.5
193.589	48.7
193.808	70.12
194.027	78.01
194.246	121.87
194.465	93.86
194.685	132.08
194.904	77.25
195.123	11.19
195.342	-39.55
195.561	-178.78
195.78	-1219.43
195.999	461.92
196.218	174.6
196.436	126.88
196.655	159.34
196.874	132.03
197.093	147.72
197.312	94.61
197.531	97.88
197.75	96.11
197.969	57.15
198.188	45.21
198.407	54.15
198.625	60.26
198.844	69.52
199.063	14.96
199.282	-68.52
199.501	-106.75
199.719	-23.67
199.938	-41.29
200.157	9.59
200.376	37.44
200.594	67.55
200.813	27.64
201.032	1.82
201.251	2.75
201.469	16.15
201.688	71.45
201.907	46.25
202.125	7.13
202.344	-25.91
202.563	269.53
202.781	16.26
203	243.56
203.218	252.73
203.437	98.53
203.656	-176.83
203.874	-170.21
204.093	-719.47
204.311	-302.34
204.53	-115.01
204.748	-85.96
204.967	-166.16
205.185	-165.05
205.404	-92.73
205.622	-144.72
205.841	-203.45
206.059	-123.33
206.278	-217.03
206.496	-1191.8
206.715	-211.87
206.933	749.29
207.151	265.13
207.37	37.98
207.588	96.38
207.806	-144.47
208.025	-141.68
208.243	-28.69
208.461	40.1
208.68	9.18
208.898	-9.81
209.116	-175.91
209.335	-147.82
209.553	-2373.24
209.771	-2325.16
209.989	-476.3
210.208	4285.85
210.426	-1288.89
210.644	649.01
210.862	286.86
211.081	173.89
211.299	176.96
211.517	185.25
211.735	157.03
211.953	104.38
212.171	91.05
212.39	96.71
212.608	287.75
212.826	214.39
213.044	553.35
213.262	-9.31
213.48	-109.08
213.698	-16.85
213.916	8.19
214.134	-54.75
214.352	17.85
214.57	13.4
214.788	-0.91
215.006	18.05
215.224	47.45
215.442	58.18
215.66	17.93
215.878	35.66
216.096	43.7
216.314	60.28
216.532	65.6
216.75	19.2
216.968	-3.55
217.185	9.61
217.403	47.6
217.621	66.29
217.839	53.02
218.057	-95.22
218.275	-64.58
218.492	-194.96
218.71	-568.46
218.928	-224.54
219.146	-194.6
219.363	-521.32
219.581	11.36
219.799	-9.96
220.017	-137.6
220.234	-53.44
220.452	-46.77
220.67	-265.07
220.887	-962.86
221.105	-1331.11
221.323	-1027.66
221.54	-456.07
221.758	1759.86
221.976	250.03
222.193	338.71
222.411	609.8
222.629	553.14
222.846	2107.17
223.064	-597.94
223.281	-69.25
223.499	-25.5
223.716	-104.48
223.934	0.72
224.151	-26.25
224.369	-36.83
224.586	-70.55
224.804	-111.96
225.021	-64.82
225.239	-104.85
225.456	-101.68
225.674	-102.68
225.891	-81.19
226.108	-39.36
226.326	-79.42
226.543	-66.7
226.76	-41.92
226.978	-18.81
227.195	-8.6
227.413	1.08
227.63	5.35
227.847	13.71
228.064	16.85
228.282	14.02
228.499	16.29
228.716	17.15
228.934	22.2
229.151	22.44
229.368	22.68
229.585	27.57
229.802	25.61
230.02	27.05
230.237	24.77
230.454	24.62
230.671	24.36
230.888	19.83
231.105	23.03
231.323	23.18
231.54	23.74
231.757	19.32
231.974	17.65
232.191	13.58
232.408	9.53
232.625	5.21
232.842	4.51
233.059	4.1
233.276	7.79
233.493	3.46
233.71	-3.45
233.927	-7.13
234.144	2.38
234.361	-6.06
234.578	-4.38
234.795	-0.83
235.012	-2.79
235.229	-5.4
235.446	-1.61
235.663	1.56
235.879	3.14
236.096	2.53
236.313	3.44
236.53	-1.22
236.747	3.98
236.964	9.01
237.181	8.19
237.397	9.99
237.614	9.06
237.831	5.28
238.048	6.59
238.264	7.61
238.481	13.96
238.698	15.24
238.915	14.01
239.131	17.47
239.348	12.48
239.565	9.43
239.781	12.41
239.998	14.33
240.215	20.75
240.431	22.09
240.648	20.07
240.865	19.14
241.081	17.01
241.298	17.49
241.514	15.1
241.731	15.59
241.947	16.14
242.164	16.83
242.38	19.02
242.597	17.3
242.814	15.19
243.03	15.91
243.246	15.56
243.463	16.3
243.679	18.56
243.896	18.14
244.112	18.89
244.329	21.03
244.545	18.8
244.762	17.23
244.978	16.4
245.194	16.48
245.411	16.44
245.627	15.75
245.843	16.76
246.06	14.49
246.276	15.82
246.492	16.08
246.709	16.28
246.925	15.56
247.141	15.94
247.357	16.62
247.574	15.49
247.79	15.23
248.006	14.56
248.222	14.93
248.439	14.73
248.655	14.41
248.871	13.37
249.087	11.9
249.303	11.66
249.519	10.24
249.736	7.58
249.952	7.87
250.168	6.28
250.384	7.08
250.6	4.07
250.816	5.53
251.032	7.05
251.248	7.07
251.464	7.31
251.68	10.31
251.896	11.17
252.112	12.41
252.328	14.03
252.544	16.23
252.76	14.62
252.976	15.56
253.192	13.86
253.408	15.37
253.624	13.77
253.84	14.51
254.056	16.15
254.272	13.65
254.487	14.45
254.703	13.72
254.919	13.86
255.135	18.34
255.351	17.51
255.567	16.71
255.782	9.57
255.998	14.6
256.214	13.29
256.43	10.32
256.646	13.58
256.861	10.96
257.077	9.91
257.293	3.26
257.508	2.36
257.724	0.59
257.94	2.81
258.155	2.68
258.371	4.39
258.587	5.92
258.802	7.12
259.018	7.15
259.234	8.82
259.449	9.59
259.665	12.67
259.88	12.68
260.096	13.43
260.312	12.84
260.527	14.06
260.743	13.54
260.958	14.23
261.174	14.14
261.389	14.54
261.605	14.68
261.82	15.46
262.036	13.87
262.251	13.82
262.466	13.74
262.682	13.93
262.897	12.74
263.113	12.58
263.328	13.58
263.543	12.48
263.759	11.97
263.974	13.05
264.189	11.24
264.405	8.25
264.62	10.38
264.835	10.28
265.051	12.64
265.266	12.23
265.481	10.92
265.696	6.98
265.912	7.84
266.127	9.53
266.342	3.09
266.557	3.19
266.773	5.05
266.988	4.56
267.203	3.68
267.418	1.56
267.633	1.82
267.848	2.29
268.064	4
268.279	4.2
268.494	2.68
268.709	7.58
268.924	6.7
269.139	8.14
269.354	7.78
269.569	7.33
269.784	8.83
269.999	7.95
270.214	8.15
270.429	8.38
270.644	10.19
270.859	8.91
271.074	7.57
271.289	9.11
271.504	8.34
271.719	7.22
271.934	9.32
272.149	9.24
272.363	11.12
272.578	10.81
272.793	10.18
273.008	8.74
273.223	9.39
273.438	10.19
273.653	9.07
273.867	9.46
274.082	11.55
274.297	9.71
274.512	9.79
274.726	8.76
274.941	9.56
275.156	12.55
275.371	10.65
275.585	13.44
275.8	12.77
276.015	13.39
276.229	12.81
276.444	11.32
276.659	13.45
276.873	12.83
277.088	13.63
277.302	14.59
277.517	13.28
277.732	14.7
277.946	11.48
278.161	12.44
278.375	11.51
278.59	11.16
278.804	11.59
279.019	9.45
279.233	10.48
279.448	8.87
279.662	7.7
279.877	5.78
280.091	7.48
280.306	8.97
280.52	7.91
280.735	9.94
280.949	10.31
281.163	11.25
281.378	10.49
281.592	9.98
281.806	11.3
282.021	10.32
282.235	10.08
282.449	7.95
282.664	8.02
282.878	8.36
283.092	6.67
283.307	4.76
283.521	2.56
283.735	2.1
283.949	2.2
284.164	2.31
284.378	4.91
284.592	5.26
284.806	7.18
285.02	6.59
285.234	6.75
285.449	7.94
285.663	9.07
285.877	9.69
286.091	10.56
286.305	10.3
286.519	9.77
286.733	8.63
286.947	8.45
287.161	7.19
287.375	7.88
287.589	7.94
287.803	9.05
288.017	10.86
288.231	11.48
288.445	13.59
288.659	13.27
288.873	12.51
289.087	14.12
289.301	14.99
289.515	15.04
289.729	13.64
289.943	13.68
290.157	13.46
290.371	12.38
290.584	11.56
290.798	9.44
291.012	9.69
291.226	11.34
291.44	9.99
291.654	9.81
291.867	10.45
292.081	10.99
292.295	9.82
292.509	8.47
292.722	9.6
292.936	10.82
293.15	12.62
293.364	13.52
293.577	11.94
293.791	11.77
294.005	11.8
294.218	11.04
294.432	10.84
294.645	10.82
294.859	11.61
295.073	11.28
295.286	10.8
295.5	10.82
295.713	10.47
295.927	9.94
296.14	10.81
296.354	10.64
296.568	11.43
296.781	11.63
296.994	11.83
297.208	11.92
297.421	11.32
297.635	11.72
297.848	11.44
298.062	11.51
298.275	12.63
298.489	13.45
298.702	14.4
298.915	14.18
299.129	14.26
299.342	15.07
299.555	14.25
299.769	14.2
299.982	14.86
300.195	14.23
300.409	13.79
300.622	12.69
300.835	11.21
301.048	9.87
301.262	11.87
301.475	11.02
301.688	12.52
301.901	11.32
302.115	12.02
302.328	10.74
302.541	10.18
302.754	11.48
302.967	12.27
303.18	13.21
303.393	12.31
303.607	10.51
303.82	11.11
304.033	10.17
304.246	13.61
304.459	14.24
304.672	14.63
304.885	17.4
305.098	16.64
305.311	17.27
305.524	15.45
305.737	16.51
305.95	17.42
306.163	18.28
306.376	18.17
306.589	16.14
306.802	16.03
307.015	14.75
307.228	14.02
307.44	13.63
307.653	12.78
307.866	14.07
308.079	13.77
308.292	13.31
308.505	13.34
308.718	13.64
308.93	13.39
309.143	12.26
309.356	13.19
309.569	14.37
309.781	16.1
309.994	17.42
310.207	17.5
310.42	17.84
310.632	17.49
310.845	16.58
311.058	15.54
311.27	16.09
311.483	15.89
311.696	15.93
311.908	14.35
312.121	13.99
312.333	14.46
312.546	13.43
312.759	13.6
312.971	12.97
313.184	13.55
313.396	14.14
313.609	13.84
313.821	13.64
314.034	14.82
314.246	15.02
314.459	14.11
314.671	12.85
314.884	13.18
315.096	14.11
315.309	16.68
315.521	17.86
315.733	17.12
315.946	16.58
316.158	18.99
316.371	17.72
316.583	18.16
316.795	20.58
317.008	21.82
317.22	21.77
317.432	22.82
317.644	21.67
317.857	20.42
318.069	20.59
318.281	21.74
318.494	20.86
318.706	19.35
318.918	19.54
319.13	16.15
319.342	14.91
319.555	17.46
319.767	15.83
319.979	16.51
320.191	16.45
320.403	17.1
320.615	15.89
320.827	16.91
321.039	18.93
321.252	20
321.464	22.77
321.676	21.28
321.888	19.65
322.1	18.91
322.312	18.09
322.524	18.63
322.736	18.51
322.948	19.42
323.16	17.88
323.372	17.94
323.584	17.01
323.796	17.37
324.007	18.26
324.219	20.18
324.431	21.14
324.643	21.7
324.855	20.7
325.067	20.75
325.279	20.67
325.491	21.24
325.702	21.54
325.914	20.32
326.126	19.92
326.338	19.89
326.55	17.94
326.761	17.84
326.973	16.59
327.185	17.36
327.396	16.87
327.608	17.59
327.82	18.09
328.032	18.31
328.243	18.65
328.455	16.44
328.666	15.2
328.878	15.32
329.09	15.37
329.301	14.29
329.513	14.53
329.725	14
329.936	11.92
330.148	10.71
330.359	8.68
330.571	10.4
330.782	12.62
330.994	12.18
331.205	10.93
331.417	9.91
331.628	10.31
331.84	7.86
332.051	9.24
332.262	9.85
332.474	10.3
332.685	9.52
332.897	7.78
333.108	5.72
333.319	6.57
333.531	6.29
333.742	7.39
333.953	8.92
334.165	11.49
334.376	13.05
334.587	13.89
334.799	14.23
335.01	15.77
335.221	17.77
335.432	18.45
335.644	19.71
335.855	20.82
336.066	19.64
336.277	19.18
336.488	18.76
336.7	17.66
336.911	17.69
337.122	16.68
337.333	17.04
337.544	13.63
337.755	14.51
337.966	14.85
338.177	15.3
338.388	15.05
338.599	15.52
338.811	16.02
339.022	15.2
339.233	16.05
339.444	15.1
339.655	13.91
339.866	16.41
340.076	14.76
340.287	14.42
340.498	13.98
340.709	13.99
340.92	13.34
341.131	12.6
341.342	13.21
341.553	12.17
341.764	13.23
341.975	13.73
342.185	14.13
342.396	14.52
342.607	14.2
342.818	14.61
343.029	14.99
343.239	16.81
343.45	15.75
343.661	14.14
343.872	13.77
344.082	14.13
344.293	13.74
344.504	13.21
344.714	13.2
344.925	13.36
345.136	13.1
345.346	13.71
345.557	12.91
345.768	13.24
345.978	14.27
346.189	12.79
346.399	13.22
346.61	13.33
346.821	12.39
347.031	11.73
347.242	11.19
347.452	11.33
347.663	10.64
347.873	9.5
348.084	10.5
348.294	10.01
348.504	11.71
348.715	13.09
348.925	13.09
349.136	13.24
349.346	13.65
349.557	15.17
349.767	15.36
349.977	14.45
350.188	14.31
350.398	14.56
350.608	14.1
350.819	14.72
351.029	13.81
351.239	13.04
351.449	14.59
351.66	14.58
351.87	14.59
352.08	14.08
352.29	16.71
352.501	17.37
352.711	16.44
352.921	17.93
353.131	16.94
353.341	16.48
353.552	16.49
353.762	15.51
353.972	15.98
354.182	14.62
354.392	13.53
354.602	11.96
354.812	11.56
355.022	11.83
355.232	11.39
355.442	11.77
355.652	11.04
355.862	12.73
356.072	12.43
356.282	12.32
356.492	12.18
356.702	12.79
356.912	12.79
357.122	12.66
357.332	12.47
357.542	12.38
357.752	12.25
357.962	12.26
358.171	11.83
358.381	11.79
358.591	11.65
358.801	12.11
359.011	11.38
359.221	11.15
359.43	11.7
359.64	11.91
359.85	12.27
360.06	11.2
360.269	12.19
360.479	12.16
360.689	12.25
360.899	11.52
361.108	11.2
361.318	11.6
361.528	11.69
361.737	11.82
361.947	11.48
362.156	10.97
362.366	11.8
362.576	11.21
362.785	11.45
362.995	11.41
363.204	12.12
363.414	12.02
363.623	12.84
363.833	12.63
364.042	12
364.252	11.74
364.461	11.25
364.671	11.09
364.88	11.42
365.09	10.08
365.299	9.98
365.509	10.26
365.718	10.28
365.927	9.95
366.137	11.15
366.346	11.3
366.555	10.76
366.765	11.54
366.974	11.63
367.183	11.48
367.393	12.35
367.602	12.34
367.811	11.75
368.021	12.1
368.23	11.42
368.439	9.99
368.648	9.94
368.857	10.93
369.067	10.74
369.276	10.38
369.485	9.68
369.694	9.27
369.903	9.55
370.112	10.12
370.321	10.02
370.531	10.55
370.74	11.05
370.949	10.45
371.158	9.92
371.367	9.82
371.576	10.05
371.785	9.92
371.994	10.62
372.203	10.26
372.412	9.85
372.621	9.58
372.83	9.44
373.039	9.43
373.248	9.75
373.457	10.48
373.666	10.06
373.874	10.08
374.083	10.72
374.292	9.5
374.501	9.96
374.71	10.3
374.919	10.33
375.128	9.87
375.336	9.57
375.545	9.42
375.754	8.48
375.963	8.76
376.171	8.1
376.38	7.78
376.589	8.36
376.798	7.39
377.006	7.16
377.215	6.91
377.424	7.16
377.632	7.62
377.841	8.44
378.05	8.67
378.258	8.03
378.467	8.24
378.675	8.09
378.884	7.83
379.093	8.31
379.301	8.39
379.51	8.37
379.718	7.5
379.927	7.06
380.135	6.46
380.344	6.44
380.552	7.1
380.761	7.28
380.969	6.79
381.177	6.22
381.386	5.7
381.594	5.55
381.803	5.8
382.011	6.35
382.219	6.5
382.428	6.09
382.636	6.69
382.845	6.4
383.053	6.38
383.261	6.6
383.469	7.03
383.678	7.39
383.886	7.32
384.094	7.35
384.302	7.47
384.511	7.3
384.719	7.39
384.927	7.12
385.135	6.94
385.343	6.64
385.552	6.35
385.76	6.15
385.968	6.41
386.176	6.28
386.384	6.05
386.592	5.83
386.8	5.72
387.008	6.04
387.216	5.63
387.424	5.81
387.633	6.23
387.841	6.47
388.049	6.49
388.257	5.86
388.465	6.05
388.672	6.24
388.88	6.42
389.088	6.41
389.296	6.26
389.504	6.51
389.712	6.19
389.92	5.79
390.128	5.5
390.336	5.73
390.544	5.89
390.751	5.53
390.959	5.54
391.167	5.29
391.375	5.38
391.583	5.01
391.79	4.94
391.998	4.86
392.206	5.44
392.414	6.02
392.621	5.73
392.829	5.94
393.037	5.98
393.244	5.92
393.452	6.23
393.66	6.41
393.867	6.02
394.075	6.11
394.283	6.04
394.49	5.6
394.698	5.37
394.905	5.7
395.113	5.76
395.32	5.65
395.528	5.51
395.735	4.98
395.943	4.77
396.15	5.14
396.358	4.8
396.565	5.1
396.773	5.03
396.98	4.77
397.188	4.66
397.395	4.22
397.602	4.28
397.81	3.96
398.017	4.13
398.225	4.17
398.432	4.48
398.639	4.8
398.847	5
399.054	5.07
399.261	4.82
399.468	4.69
399.676	4.5
399.883	4.75
400.09	4.74
400.297	4.94
400.505	5.18
400.712	5.06
400.919	4.57
401.126	3.7
401.333	3.66
401.54	3.92
401.748	3.87
401.955	4.12
402.162	4.04
402.369	4.17
402.576	3.98
402.783	3.76
402.99	3.66
403.197	4.04
403.404	4.75
403.611	4.86
403.818	4.94
404.025	5.07
404.232	5.2
404.439	4.94
404.646	4.89
404.853	4.61
405.06	4.62
405.267	4.74
405.474	4.88
405.681	4.99
405.887	4.63
406.094	4.72
406.301	4.67
406.508	4.42
406.715	4.31
406.922	4.63
407.128	5.13
407.335	4.89
407.542	4.88
407.749	4.78
407.955	4.23
408.162	4.39
408.369	3.96
408.575	3.69
408.782	3.91
408.989	4.12
409.195	4.08
409.402	3.81
409.609	3.82
409.815	3.39
410.022	3.08
410.228	3.5
410.435	3.36
410.642	3.72
410.848	3.73
411.055	3.52
411.261	3.66
411.468	3.55
411.674	3.69
411.881	3.98
412.087	4.22
412.294	4.28
412.5	4.04
412.706	4.5
412.913	4.34
413.119	4.35
413.326	4.68
413.532	4.68
413.738	4.56
413.945	4.47
414.151	4.01
414.357	4.3
414.564	4.35
414.77	4.11
414.976	3.96
415.182	4.01
415.389	4.16
415.595	3.89
415.801	3.91
416.007	3.85
416.214	3.83
416.42	3.99
416.626	3.86
416.832	3.93
417.038	4.11
417.244	3.95
417.45	4.32
417.657	4.38
417.863	4.63
418.069	4.66
418.275	4.73
418.481	4.5
418.687	4.34
418.893	4.22
419.099	4.34
419.305	4.38
419.511	4.36
419.717	4.02
419.923	3.89
420.129	3.68
420.335	3.56
420.541	3.5
420.746	3.76
420.952	3.75
421.158	3.89
421.364	3.75
421.57	3.77
421.776	3.81
421.982	3.86
422.187	4.03
422.393	4.02
422.599	4.09
422.805	4.09
423.01	4.07
423.216	4.22
423.422	4.07
423.628	4.04
423.833	4.12
424.039	4.2
424.245	4.25
424.45	4.21
424.656	4.41
424.862	4.32
425.067	4.32
425.273	4.09
425.478	4.09
425.684	4.2
425.889	4.26
426.095	4.08
426.301	3.85
426.506	3.84
426.712	3.67
426.917	3.38
427.123	3.33
427.328	3.42
427.533	3.77
427.739	3.85
427.944	3.87
428.15	3.54
428.355	3.7
428.561	3.83
428.766	3.75
428.971	3.67
429.177	3.7
429.382	3.79
429.587	3.89
429.793	3.64
429.998	3.49
430.203	3.39
430.408	3.62
430.614	3.57
430.819	3.84
431.024	4.01
431.229	4.19
431.434	4.33
431.64	4.45
431.845	4.19
432.05	4.16
432.255	4.06
432.46	4.23
432.665	4.39
432.87	4.48
433.076	4.33
433.281	4.05
433.486	4.08
433.691	3.97
433.896	3.88
434.101	4.02
434.306	4.08
434.511	4.23
434.716	4.04
434.921	3.89
435.126	3.79
435.331	3.6
435.535	3.74
435.74	3.66
435.945	3.75
436.15	3.66
436.355	3.35
436.56	3.34
436.765	3.18
436.97	3.07
437.174	3.3
437.379	3.27
437.584	3.23
437.789	3.43
437.993	3.53
438.198	3.61
438.403	3.64
438.608	3.67
438.812	3.83
439.017	3.88
439.222	4.1
439.426	3.85
439.631	3.71
439.836	3.86
440.04	3.71
440.245	3.67
440.45	3.67
440.654	3.8
440.859	3.77
441.063	3.66
441.268	3.72
441.472	3.61
441.677	3.73
441.881	3.87
442.086	3.76
442.29	3.76
442.495	3.75
442.699	3.67
442.904	3.42
443.108	3.55
443.312	3.52
443.517	3.5
443.721	3.56
443.925	3.61
444.13	3.72
444.334	3.72
444.538	3.89
444.743	3.9
444.947	3.86
445.151	4.03
445.356	4.04
445.56	3.99
445.764	3.98
445.968	3.99
446.173	3.87
446.377	3.84
446.581	4.01
446.785	3.81
446.989	3.73
447.193	3.72
447.398	3.72
447.602	3.6
447.806	3.7
448.01	3.73
448.214	3.7
448.418	3.75
448.622	3.75
448.826	3.63
449.03	3.61
449.234	3.77
449.438	3.83
449.642	3.77
449.846	3.86
450.05	3.75
450.254	3.64
450.458	3.53
450.662	3.38
450.866	3.5
451.069	3.48
451.273	3.58
451.477	3.45
451.681	3.5
451.885	3.57
452.089	3.6
452.292	3.75
452.496	3.77
452.7	3.9
452.904	4.1
453.107	3.84
453.311	3.81
453.515	3.8
453.719	3.7
453.922	3.44
454.126	3.34
454.33	3.45
454.533	3.36
454.737	3.18
454.94	2.96
455.144	2.82
455.348	2.83
455.551	2.86
455.755	2.84
455.958	2.87
456.162	2.97
456.365	2.98
456.569	2.98
456.772	2.8
456.976	2.86
457.179	3.06
457.383	3.13
457.586	3.24
457.79	3.38
457.993	3.5
458.196	3.63
458.4	3.76
458.603	3.83
458.807	3.71
459.01	3.81
459.213	3.84
459.417	3.84
459.62	3.9
459.823	3.84
460.026	3.73
460.23	3.65
460.433	3.53
460.636	3.57
460.839	3.7
461.042	3.77
461.246	3.81
461.449	3.98
461.652	3.97
461.855	3.86
462.058	3.81
462.261	3.84
462.464	3.84
462.668	4
462.871	3.85
463.074	3.64
463.277	3.61
463.48	3.49
463.683	3.34
463.886	3.34
464.089	3.32
464.292	3.42
464.495	3.47
464.698	3.4
464.901	3.46
465.104	3.59
465.306	3.52
465.509	3.47
465.712	3.57
465.915	3.54
466.118	3.56
466.321	3.68
466.524	3.6
466.726	3.53
466.929	3.55
467.132	3.37
467.335	3.21
467.538	3.26
467.74	3.31
467.943	3.31
468.146	3.37
468.348	3.23
468.551	3.12
468.754	3.22
468.956	3.29
469.159	3.26
469.362	3.25
469.564	3.17
469.767	3.09
469.969	3.22
470.172	3.34
470.375	3.29
470.577	3.3
470.78	3.36
470.982	3.33
471.185	3.3
471.387	3.41
471.59	3.38
471.792	3.55
471.995	3.58
472.197	3.76
472.399	3.62
472.602	3.5
472.804	3.5
473.007	3.42
473.209	3.6
473.411	3.66
473.614	3.61
473.816	3.73
474.018	3.75
474.22	3.72
474.423	3.46
474.625	3.3
474.827	3.46
475.03	3.54
475.232	3.53
475.434	3.21
475.636	3.26
475.838	3.48
476.04	3.41
476.243	3.28
476.445	3.22
476.647	3.39
476.849	3.49
477.051	3.44
477.253	3.44
477.455	3.29
477.657	3.43
477.859	3.22
478.061	3.2
478.263	3.08
478.465	3.14
478.667	3.3
478.869	3.22
479.071	3.11
479.273	3.15
479.475	3.17
479.677	3.32
479.879	3.41
480.081	3.4
480.283	3.2
480.485	3.45
480.686	3.6
480.888	3.6
481.09	3.67
481.292	3.77
481.494	3.76
481.695	3.67
481.897	3.63
482.099	3.58
482.301	3.67
482.502	3.69
482.704	3.58
482.906	3.49
483.107	3.48
483.309	3.45
483.511	3.41
483.712	3.39
483.914	3.41
484.115	3.42
484.317	3.38
484.519	3.39
484.72	3.37
484.922	3.35
485.123	3.35
485.325	3.36
485.526	3.34
485.728	3.4
485.929	3.4
486.131	3.32
486.332	3.31
486.534	3.35
486.735	3.33
486.936	3.4
487.138	3.45
487.339	3.48
487.541	3.42
487.742	3.35
487.943	3.32
488.144	3.31
488.346	3.41
488.547	3.45
488.748	3.39
488.95	3.36
489.151	3.36
489.352	3.31
489.553	3.33
489.755	3.23
489.956	3.37
490.157	3.42
490.358	3.4
490.559	3.41
490.76	3.4
490.961	3.54
491.163	3.47
491.364	3.46
491.565	3.49
491.766	3.44
491.967	3.5
492.168	3.42
492.369	3.39
492.57	3.36
492.771	3.35
492.972	3.45
493.173	3.44
493.374	3.55
493.575	3.55
493.776	3.59
493.976	3.63
494.177	3.7
494.378	3.75
494.579	3.75
494.78	3.86
494.981	3.81
495.182	3.64
495.382	3.65
495.583	3.64
495.784	3.66
495.985	3.72
496.185	3.64
496.386	3.53
496.587	3.49
496.788	3.4
496.988	3.46
497.189	3.39
497.39	3.36
497.59	3.28
497.791	3.23
497.992	3.16
498.192	3.16
498.393	3.16
498.593	3.16
498.794	3.13
498.994	3.25
499.195	3.25
499.395	3.39
499.596	3.55
499.796	3.44
499.997	3.31
500.197	3.35
500.398	3.27
500.598	3.24
500.799	3.36
500.999	3.24
501.199	3.15
501.4	3.02
501.6	2.92
501.801	2.83
502.001	2.86
502.201	3.02
502.402	2.95
502.602	2.97
502.802	3.14
503.002	3.12
503.203	3.33
503.403	3.39
503.603	3.41
503.803	3.57
504.003	3.69
504.204	3.55
504.404	3.51
504.604	3.4
504.804	3.39
505.004	3.28
505.204	3.27
505.404	3.16
505.604	3.19
505.804	3.25
506.005	3.07
506.205	2.86
506.405	3
506.605	2.89
506.805	3.1
507.005	3.04
507.204	3.04
507.404	3.09
507.604	3.06
507.804	2.96
508.004	2.9
508.204	2.96
508.404	3.02
508.604	3.09
508.804	3.24
509.003	3.12
509.203	3.31
509.403	3.31
509.603	3.26
509.803	3.3
510.002	3.33
510.202	3.33
510.402	3.38
510.602	3.38
510.801	3.41
511.001	3.56
511.201	3.65
511.4	3.49
511.6	3.56
511.8	3.59
511.999	3.64
512.199	3.67
512.398	3.73
512.598	3.76
512.797	3.76
512.997	3.66
513.197	3.49
513.396	3.43
513.596	3.58
513.795	3.68
513.994	3.67
514.194	3.61
514.393	3.71
514.593	3.65
514.792	3.57
514.992	3.66
515.191	3.7
515.39	3.73
515.59	3.9
515.789	3.84
515.988	3.7
516.188	3.67
516.387	3.83
516.586	3.67
516.786	3.78
516.985	3.81
517.184	3.72
517.383	3.81
517.582	3.8
517.782	3.64
517.981	3.66
518.18	3.63
518.379	3.58
518.578	3.62
518.777	3.75
518.976	3.64
519.176	3.55
519.375	3.54
519.574	3.39
519.773	3.47
519.972	3.6
520.171	3.61
520.37	3.69
520.569	3.86
520.768	3.74
520.967	3.66
521.166	3.78
521.365	3.98
521.564	3.99
521.762	4.04
521.961	4.07
522.16	4.08
522.359	4.14
522.558	4.01
522.757	3.98
522.956	3.92
523.154	3.87
523.353	3.83
523.552	3.74
523.751	3.68
523.949	3.72
524.148	3.62
524.347	3.69
524.546	3.56
524.744	3.58
524.943	3.59
525.142	3.73
525.34	3.81
525.539	3.86
525.737	3.83
525.936	3.89
526.135	3.9
526.333	3.88
526.532	3.82
526.73	3.9
526.929	3.89
527.127	3.85
527.326	3.84
527.524	3.87
527.723	3.85
527.921	3.87
528.12	3.89
528.318	3.93
528.516	3.94
528.715	3.92
528.913	3.92
529.112	3.91
529.31	3.94
529.508	3.89
529.707	3.89
529.905	3.89
530.103	3.89
530.301	3.93
530.5	4.02
530.698	4.04
530.896	4.08
531.094	4.12
531.293	4.2
531.491	4.19
531.689	4.26
531.887	4.25
532.085	4.29
532.283	4.36
532.481	4.25
532.68	4.12
532.878	4.09
533.076	4.09
533.274	4.05
533.472	4.05
533.67	4.11
533.868	4.19
534.066	4.18
534.264	4.13
534.462	4.12
534.66	4.2
534.858	4.16
535.056	4.2
535.253	4.18
535.451	4.18
535.649	4.09
535.847	4.06
536.045	3.97
536.243	4.01
536.441	4.07
536.638	4.05
536.836	4.04
537.034	4.13
537.232	4.1
537.43	4.13
537.627	4.34
537.825	4.48
538.023	4.48
538.22	4.57
538.418	4.56
538.616	4.64
538.813	4.62
539.011	4.75
539.209	4.8
539.406	4.86
539.604	4.95
539.801	4.73
539.999	4.61
540.196	4.68
540.394	4.6
540.591	4.65
540.789	4.66
540.986	4.77
541.184	4.77
541.381	4.84
541.579	4.86
541.776	4.92
541.974	4.94
542.171	5.07
542.368	5.13
542.566	5.21
542.763	5.29
542.96	5.28
543.158	5.27
543.355	5.28
543.552	5.27
543.75	5.23
543.947	5.15
544.144	5.25
544.341	5.21
544.539	5.22
544.736	5.27
544.933	5.26
545.13	5.39
545.327	5.47
545.524	5.53
545.722	5.54
545.919	5.62
546.116	5.51
546.313	5.4
546.51	5.45
546.707	5.4
546.904	5.47
547.101	5.56
547.298	5.47
547.495	5.42
547.692	5.49
547.889	5.44
548.086	5.53
548.283	5.82
548.48	6.01
548.677	6.07
548.874	6.15
549.07	5.87
549.267	5.82
549.464	5.87
549.661	6.01
549.858	5.9
550.055	5.88
550.251	5.83
550.448	5.83
550.645	5.79
550.842	5.9
551.038	5.82
551.235	6.11
551.432	6.08
551.628	6.11
551.825	6.24
552.022	6.12
552.218	6.38
552.415	6.5
552.612	6.42
552.808	6.39
553.005	6.45
553.201	6.52
553.398	6.4
553.594	6.52
553.791	6.51
553.987	6.26
554.184	6.49
554.38	6.66
554.577	6.48
554.773	6.8
554.97	6.98
555.166	7.04
555.362	7.24
555.559	7.42
555.755	7.18
555.952	7.44
556.148	7.69
556.344	7.73
556.541	7.38
556.737	7.73
556.933	7.47
557.129	7.42
557.326	7.25
557.522	7.34
557.718	7.46
557.914	7.66
558.11	7.58
558.307	7.76
558.503	7.66
558.699	7.8
558.895	7.66
559.091	7.79
559.287	7.95
559.483	7.98
559.679	7.83
559.876	7.82
560.072	8.02
560.268	8.12
560.464	8.02
560.66	8.44
560.856	8.51
561.052	8.64
561.247	8.82
561.443	8.97
561.639	9.22
561.835	9.34
562.031	9.21
562.227	9.29
562.423	9.25
562.619	9.26
562.815	9.25
563.01	9.37
563.206	9.59
563.402	9.42
563.598	9.39
563.793	9.37
563.989	9.58
564.185	9.83
564.381	9.85
564.576	10.04
564.772	9.99
564.968	9.8
565.163	9.82
565.359	9.81
565.555	10.12
565.75	10.1
565.946	10.23
566.141	10.12
566.337	10.27
566.532	10.35
566.728	10.38
566.923	10.55
567.119	10.75
567.314	10.78
567.51	10.72
567.705	10.66
567.901	10.76
568.096	10.44
568.292	10.39
568.487	10.25
568.682	10.37
568.878	10.3
569.073	10.38
569.268	10.29
569.464	10.48
569.659	10.67
569.854	10.59
570.05	10.75
570.245	11.4
570.44	11.57
570.635	11.73
570.831	11.66
571.026	11.82
571.221	11.88
571.416	11.99
571.611	11.95
571.806	11.86
572.002	11.98
572.197	11.82
572.392	11.66
572.587	11.73
572.782	11.65
572.977	11.65
573.172	11.56
573.367	11.48
573.562	11.44
573.757	11.5
573.952	11.54
574.147	11.47
574.342	11.62
574.537	11.51
574.732	11.76
574.927	11.92
575.121	11.96
575.316	12.08
575.511	12.2
575.706	12.3
575.901	12.31
576.096	12.42
576.29	12.62
576.485	12.71
576.68	12.87
576.875	12.61
577.069	12.76
577.264	12.82
577.459	12.83
577.654	13.11
577.848	13.3
578.043	13.48
578.238	13.58
578.432	13.38
578.627	13.47
578.821	13.56
579.016	13.67
579.21	13.47
579.405	13.88
579.6	13.9
579.794	13.69
579.989	13.45
580.183	13.24
580.378	13.11
580.572	13.29
580.766	13.37
580.961	13.38
581.155	13.46
581.35	13.79
581.544	13.52
581.738	13.49
581.933	13.44
582.127	13.76
582.321	13.94
582.516	13.96
582.71	13.87
582.904	13.57
583.099	13.4
583.293	13.56
583.487	13.1
583.681	13.04
583.875	13.29
584.07	13.36
584.264	13.21
584.458	13.19
584.652	13.51
584.846	13.84
585.04	13.95
585.234	14.19
585.428	14.13
585.623	14.32
585.817	14.42
586.011	14.12
586.205	14.28
586.399	14.35
586.593	14.33
586.787	14.17
586.981	14.03
587.174	13.93
587.368	14.03
587.562	13.87
587.756	14.02
587.95	13.77
588.144	13.94
588.338	14.1
588.532	14.04
588.725	14.47
588.919	14.39
589.113	14.17
589.307	14.23
589.501	13.96
589.694	14.44
589.888	14.44
590.082	14.43
590.275	14.58
590.469	14.48
590.663	14.52
590.856	14.32
591.05	14.38
591.244	14.63
591.437	14.76
591.631	15.01
591.824	14.64
592.018	14.5
592.212	14.72
592.405	14.65
592.599	14.43
592.792	14.28
592.986	14.2
593.179	14.48
593.372	14.54
593.566	14.73
593.759	14.71
593.953	14.89
594.146	15.23
594.339	15.28
594.533	15.36
594.726	15.53
594.92	15.63
595.113	15.65
595.306	15.54
595.499	15.51
595.693	15.47
595.886	15.6
596.079	15.47
596.272	15.3
596.466	15.47
596.659	15.51
596.852	15.57
597.045	15.69
597.238	15.58
597.431	15.45
597.624	15.48
597.818	15.49
598.011	15.26
598.204	15.19
598.397	15.17
598.59	15.06
598.783	15.06
598.976	14.93
599.169	14.52
599.362	14.83
599.555	14.97
599.748	14.82
599.941	14.72
600.134	14.92
600.326	15.02
600.519	15.1
600.712	14.99
600.905	15.13
601.098	15.14
601.291	15.57
601.483	15.37
601.676	15.25
601.869	15.43
602.062	15.48
602.255	15.29
602.447	15.05
602.64	15.21
602.833	15.33
603.025	15.15
603.218	15.24
603.411	15.15
603.603	15.1
603.796	15.28
603.989	15.36
604.181	15.24
604.374	15.34
604.566	15.54
604.759	15.38
604.951	15.29
605.144	15.26
605.336	15.26
605.529	15.15
605.721	15.1
605.914	15.05
606.106	15.03
606.299	15
606.491	15.13
606.683	15.15
606.876	15.16
607.068	15.28
607.26	15.18
607.453	15.28
607.645	15.47
607.837	15.5
608.03	15.52
608.222	15.56
608.414	15.69
608.606	15.57
608.799	15.4
608.991	15.47
609.183	15.41
609.375	15.44
609.567	15
609.759	14.89
609.952	15.05
610.144	15.08
610.336	15.1
610.528	15
610.72	14.94
610.912	15.12
611.104	14.87
611.296	14.68
611.488	14.61
611.68	14.89
611.872	15.01
612.064	14.86
612.256	14.78
612.448	14.72
612.64	14.77
612.832	14.85
613.023	14.93
613.215	14.99
613.407	15.33
613.599	15.5
613.791	15.44
613.983	15.48
614.174	15.52
614.366	15.4
614.558	15.31
614.75	15.24
614.941	15.49
615.133	15.25
615.325	15.21
615.516	15.04
615.708	14.95
615.9	15.19
616.091	15.04
616.283	15.19
616.475	15.16
616.666	15.2
616.858	15.36
617.049	14.88
617.241	15.09
617.432	15.24
617.624	15.3
617.815	15.33
618.007	15.68
618.198	15.83
618.39	15.65
618.581	15.79
618.773	15.81
618.964	15.91
619.155	16.06
619.347	15.79
619.538	15.69
619.729	15.83
619.921	15.9
620.112	15.91
620.303	15.84
620.494	15.9
620.686	16.13
620.877	16.27
621.068	15.94
621.259	16.24
621.451	16.6
621.642	16.56
621.833	16.45
622.024	16.29
622.215	15.61
622.406	15.89
622.597	15.94
622.788	15.54
622.98	15.25
623.171	15.42
623.362	15.16
623.553	15.12
623.744	15.53
623.935	15.16
624.126	15.2
624.317	15.39
624.508	14.88
624.698	14.58
624.889	14.88
625.08	14.8
625.271	14.78
625.462	14.74
625.653	14.59
625.844	14.45
626.034	14.78
626.225	14.92
626.416	14.89
626.607	15.1
626.798	15.22
626.988	14.92
627.179	14.96
627.37	14.71
627.56	15.02
627.751	15.02
627.942	15.15
628.132	15.11
628.323	15.16
628.514	15.42
628.704	15.43
628.895	15.91
629.085	16.04
629.276	16.06
629.466	16.44
629.657	16.4
629.847	16.56
630.038	16.41
630.228	16.41
630.419	16.29
630.609	16.16
630.8	16.29
630.99	15.98
631.181	15.93
631.371	16.02
631.561	16.05
631.752	15.61
631.942	15.38
632.132	15.37
632.323	15.54
632.513	15.48
632.703	15.51
632.893	15.25
633.084	15.2
633.274	15.31
633.464	15.26
633.654	15.21
633.844	15.54
634.034	15.49
634.225	15.65
634.415	15.48
634.605	15.55
634.795	15.59
634.985	15.48
635.175	15.6
635.365	15.5
635.555	15.64
635.745	15.91
635.935	15.7
636.125	15.79
636.315	15.48
636.505	15.54
636.695	15.52
636.885	15.71
637.075	16.17
637.265	16.23
637.455	16.49
637.644	16.6
637.834	16.41
638.024	16.36
638.214	16.2
638.404	16.42
638.593	16.71
638.783	16.82
638.973	16.66
639.163	16.47
639.352	16.31
639.542	16.49
639.732	16.45
639.921	16.17
640.111	16.33
640.301	16.56
640.49	16.53
640.68	16.21
640.87	15.98
641.059	15.76
641.249	15.93
641.438	15.77
641.628	15.86
641.817	15.78
642.007	15.62
642.196	15.57
642.386	15.61
642.575	15.79
642.764	15.8
642.954	16.18
643.143	15.97
643.333	15.56
643.522	15.88
643.711	15.28
643.901	15.49
644.09	15.85
644.279	16.05
644.469	15.83
644.658	15.66
644.847	15.79
645.036	15.66
645.226	15.67
645.415	16
645.604	15.67
645.793	16.02
645.982	15.77
646.171	15.81
646.361	15.7
646.55	15.61
646.739	15.67
646.928	15.7
647.117	15.42
647.306	15.84
647.495	15.71
647.684	15.82
647.873	15.76
648.062	15.65
648.251	15.29
648.44	15.52
648.629	15.6
648.818	15.03
649.007	15.06
649.196	15.36
649.384	15.31
649.573	15.37
649.762	15.77
649.951	15.84
650.14	15.94
650.328	15.97
650.517	15.58
650.706	15.62
650.895	16.14
651.083	15.97
651.272	16.13
651.461	15.51
651.65	15.51
651.838	15.56
652.027	15.5
652.216	15.35
652.404	16.06
652.593	16.08
652.781	16.48
652.97	16.22
653.158	16.31
653.347	16
653.535	16.51
653.724	16.69
653.912	16.42
654.101	16.23
654.289	16.19
654.478	15.62
654.666	15.48
654.855	15.34
655.043	15.21
655.231	15.21
655.42	15.84
655.608	15.98
655.796	15.51
655.985	15.47
656.173	15.4
656.361	15.8
656.55	15.8
656.738	16.46
656.926	16.44
657.114	16.81
657.302	16.74
657.491	16.68
657.679	16.28
657.867	16.31
658.055	15.91
658.243	15.76
658.431	15.41
658.619	15.47
658.807	14.97
658.996	14.92
659.184	14.55
659.372	14.42
659.56	13.62
659.748	13.85
659.936	14.15
660.124	14.35
660.311	14.73
660.499	15.03
660.687	15.14
660.875	15.45
661.063	15.54
661.251	16.08
661.439	16.1
661.627	16.93
661.814	17.21
662.002	16.88
662.19	17.21
662.378	17.13
662.565	16.83
662.753	16.72
662.941	16.75
663.129	16.43
663.316	16.13
663.504	16.62
663.692	16.44
663.879	15.97
664.067	16.01
664.254	15.12
664.442	15.01
664.63	15.28
664.817	14.91
665.005	14.42
665.192	14.57
665.38	15.13
665.567	14.55
665.755	14.27
665.942	14.39
666.13	14.62
666.317	15.54
666.504	15.28
666.692	15.21
666.879	15.62
667.067	15.96
667.254	16.05
667.441	15.32
667.629	15.49
667.816	16.12
668.003	15.87
668.19	16.08
668.378	15.63
668.565	15.77
668.752	15.74
668.939	15.59
669.127	15.63
669.314	15.71
669.501	16.08
669.688	16.08
669.875	15.58
670.062	15.77
670.249	15.3
670.436	15.18
670.623	15.66
670.81	15.41
670.997	15.31
671.184	15.48
671.371	15.67
671.558	15.71
671.745	15.89
671.932	16.06
672.119	16.09
672.306	16.76
672.493	16.81
672.68	16.28
672.867	16.2
673.054	16.11
673.24	15.91
673.427	15.64
673.614	15.55
673.801	15.82
673.988	15.58
674.174	15.51
674.361	15.18
674.548	15.53
674.734	15.87
674.921	16.14
675.108	16.56
675.294	16.77
675.481	17.09
675.668	16.58
675.854	15.84
676.041	15.84
676.227	16.37
676.414	16.73
676.601	16.67
676.787	16.63
676.974	16.73
677.16	16.67
677.347	16.35
677.533	16.01
677.719	16.38
677.906	16.65
678.092	16.87
678.279	16.66
678.465	16.13
678.651	15.99
678.838	15.85
679.024	15.73
679.21	15.24
679.397	15.03
679.583	14.76
679.769	14.77
679.955	14.54
680.142	14.14
680.328	14.22
680.514	14.15
680.7	14.11
680.886	14.32
681.073	14.53
681.259	15.07
681.445	15.55
681.631	15.87
681.817	16.07
682.003	16.85
682.189	16.98
682.375	16.61
682.561	16.8
682.747	17.11
682.933	17.08
683.119	16.77
683.305	16.76
683.491	16.51
683.677	16.39
683.863	16.36
684.049	15.96
684.235	16.18
684.42	15.7
684.606	15.59
684.792	15.52
684.978	15.09
685.164	14.99
685.349	14.83
685.535	14.88
685.721	14.91
685.907	14.16
686.092	13.92
686.278	13.63
686.464	14.44
686.649	14.93
686.835	15.18
687.021	15.52
687.206	15.33
687.392	15.12
687.577	15.11
687.763	15.21
687.948	15.62
688.134	15.34
688.319	15.43
688.505	15.43
688.69	14.56
688.876	13.71
689.061	13.43
689.247	13.94
689.432	14.32
689.618	14.18
689.803	13.87
689.988	14.19
690.174	13.89
690.359	13.98
690.544	13.93
690.73	14.27
690.915	14.65
691.1	15.23
691.285	15.07
691.471	15.19
691.656	14.89
691.841	15.23
692.026	14.77
692.211	15.19
692.396	15.71
692.582	15.57
692.767	16.09
692.952	15.88
693.137	15.51
693.322	15.6
693.507	15.28
693.692	15.57
693.877	15.49
694.062	15.83
694.247	15.93
694.432	15.44
694.617	15.02
694.802	14.75
694.987	14.68
695.172	14.45
695.357	14.1
695.541	14.2
695.726	14.9
695.911	15.17
696.096	15.11
696.281	15.08
696.466	14.44
696.65	14.96
696.835	14.49
697.02	15.01
697.204	15.69
697.389	16.18
697.574	16.49
697.759	15.35
697.943	15.46
698.128	15.28
698.312	15.36
698.497	15.88
698.682	16.1
698.866	16.32
699.051	16.46
699.235	16.34
699.42	16.21
699.604	15.8
699.789	16.55
699.973	16.3
700.158	16.27
700.342	16.57
700.527	16.48
700.711	16.18
700.895	16.62
701.08	16.63
701.264	16.22
701.448	15.82
701.633	15.78
701.817	16.07
702.001	16.47
702.186	17.4
702.37	16.75
702.554	16.69
702.738	16.66
702.923	15.91
703.107	15.02
703.291	15.15
703.475	15.72
703.659	15.83
703.843	14.59
704.027	13.73
704.212	12.97
704.396	13.02
704.58	12.42
704.764	12.5
704.948	12.22
705.132	13.08
705.316	13
705.5	12.66
705.684	12.39
705.868	13.11
706.052	13.37
706.235	14.23
706.419	14.26
706.603	14.99
706.787	15.11
706.971	15.82
707.155	15.43
707.339	15.53
707.522	15.42
707.706	16.28
707.89	16.04
708.074	15.87
708.257	15.19
708.441	15.58
708.625	15.23
708.808	14.7
708.992	14.27
709.176	15.05
709.359	14.87
709.543	14.87
709.727	14.75
709.91	14.67
710.094	14.61
710.277	14.06
710.461	13.6
710.644	13.8
710.828	14.28
711.011	14.71
711.195	13.85
711.378	14.6
711.562	15.95
711.745	15.54
711.928	16.03
712.112	15.97
712.295	17.06
712.478	17.01
712.662	16.88
712.845	16.83
713.028	16.88
713.212	17.04
713.395	17.07
713.578	16.54
713.761	16.58
713.945	16.19
714.128	16.16
714.311	15.57
714.494	15.78
714.677	16.24
714.86	16.89
715.043	16.53
715.227	16.58
715.41	15.77
715.593	16.38
715.776	16.59
715.959	15.98
716.142	16.86
716.325	16.8
716.508	16.34
716.691	17.15
716.874	16.55
717.057	15.99
717.239	16.2
717.422	16.86
717.605	14.81
717.788	14.63
717.971	15.39
718.154	14.64
718.337	14.21
718.519	15.33
718.702	14.24
718.885	14.03
719.068	15.28
719.25	14.18
719.433	13.42
719.616	13.9
719.798	14.09
719.981	14.18
720.164	14.36
720.346	15.51
720.529	13.89
720.712	13.42
720.894	14.16
721.077	13.55
721.259	14.29
721.442	14.95
721.624	16.33
721.807	16.39
721.989	16.54
722.172	16.79
722.354	16.56
722.537	17.7
722.719	18.36
722.901	17.19
723.084	16.76
723.266	16.24
723.448	16.64
723.631	16.58
723.813	16.04
723.995	15.78
724.178	15.33
724.36	15.3
724.542	15.4
724.724	14.59
724.907	15.71
725.089	16.4
725.271	16.96
725.453	15.8
725.635	14.85
725.817	14.35
725.999	14.33
726.181	14.55
726.364	13.39
726.546	13.31
726.728	13.11
726.91	12.44
727.092	12.6
727.274	12.33
727.456	11.84
727.638	12.35
727.819	13.53
728.001	13.67
728.183	13.68
728.365	14.41
728.547	15.17
728.729	15.82
728.911	15.86
729.093	15.9
729.274	16.42
729.456	17.36
729.638	18.06
729.82	17.05
730.001	17.78
730.183	17.52
730.365	17.3
730.546	17.43
730.728	17.81
730.91	17.56
731.091	17.42
731.273	16.81
731.455	17.25
731.636	15.3
731.818	15.77
731.999	15.03
732.181	15.32
732.362	16.16
732.544	15.02
732.725	14.71
732.907	15.27
733.088	14.83
733.27	15.22
733.451	14.44
733.633	15.01
733.814	15.03
733.995	14.98
734.177	14.6
734.358	14.22
734.539	14.59
734.721	15.11
734.902	13.8
735.083	12.97
735.264	13.45
735.446	13.47
735.627	14.85
735.808	14.55
735.989	14.46
736.17	14.42
736.351	13.74
736.533	13.21
736.714	12.03
736.895	13.11
737.076	14.8
737.257	13.71
737.438	14.51
737.619	12.57
737.8	12.5
737.981	11.92
738.162	11.58
738.343	11.02
738.524	12.21
738.705	14.3
738.886	14.55
739.067	14.29
739.247	15.86
739.428	14.57
739.609	14.87
739.79	14.69
739.971	15.77
740.151	17.29
740.332	18.37
740.513	17.12
740.694	16.52
740.874	15.39
741.055	15.57
741.236	14.22
741.417	15.68
741.597	17.02
741.778	18.64
741.958	17.94
742.139	17.36
742.32	16.78
742.5	17.13
742.681	15.86
742.861	15.95
743.042	15.09
743.222	16.81
743.403	16.1
743.583	16.24
743.764	14.17
743.944	15.11
744.124	14.83
744.305	14.16
744.485	14.51
744.666	14.57
744.846	15.31
745.026	14.03
745.207	12.92
745.387	12.2
745.567	12.87
745.747	13.01
745.928	11.55
746.108	11.8
746.288	12.15
746.468	12.11
746.648	11.32
746.829	12.52
747.009	14.11
747.189	13.22
747.369	14.56
747.549	13.79
747.729	14.51
747.909	14.37
748.089	13.71
748.269	13.94
748.449	15.19
748.629	16.77
748.809	15.95
748.989	16.16
749.169	15.95
749.349	14.86
749.529	13.95
749.709	13.83
749.889	14.62
750.068	15.36
750.248	15.5
750.428	13.48
750.608	13.49
750.788	13.83
750.967	14.21
751.147	14.26
751.327	14.6
751.507	15.72
751.686	15.83
751.866	16
752.046	15.52
752.225	16.52
752.405	18
752.585	17.18
752.764	16.82
752.944	14.37
753.123	14.64
753.303	15.31
753.482	15.51
753.662	14.85
753.841	14.15
754.021	15.87
754.2	16.23
754.38	14.85
754.559	13.8
754.739	13.09
754.918	15.04
755.097	15.4
755.277	15.52
755.456	14.65
755.635	15.27
755.815	15.6
755.994	13.09
756.173	12.66
756.352	13.31
756.532	14.2
756.711	15.29
756.89	15.88
757.069	17.54
757.248	15.96
757.427	15.64
757.607	16.53
757.786	16.75
757.965	17.78
758.144	17.16
758.323	18.1
758.502	18.07
758.681	16.87
758.86	15.95
759.039	14.77
759.218	15.58
759.397	15.96
759.576	14.87
759.755	14.19
759.934	13.43
760.113	13.47
760.291	12.38
760.47	13.33
760.649	14.49
760.828	15.62
761.007	15.09
761.186	14.63
761.364	13.94
761.543	14.43
761.722	14.11
761.901	14.88
762.079	15.07
762.258	16.04
762.437	14.54
762.615	13.65
762.794	13.27
762.972	13.71
763.151	15.06
763.33	15.82
763.508	16.34
763.687	16.86
763.865	16.88
764.044	16.42
764.222	16.02
764.401	16.78
764.579	17.54
764.758	17.44
764.936	17.39
765.114	16.51
765.293	15.83
765.471	15.17
765.65	14.98
765.828	15.11
766.006	15.46
766.184	15.14
766.363	15.55
766.541	14.55
766.719	15.73
766.898	16.21
767.076	15.86
767.254	16.84
767.432	16.29
767.61	16.96
767.788	16.85
767.967	17.45
768.145	18.31
768.323	17.75
768.501	18.87
768.679	18.77
768.857	18.16
769.035	17.66
769.213	17.04
769.391	15.98
769.569	17.59
769.747	17.86
769.925	17.93
770.103	15.87
770.281	14.92
770.459	14.54
770.636	14.16
770.814	14.38
770.992	16.19
771.17	16.82
771.348	18.24
771.525	15.93
771.703	14.74
771.881	14.48
772.059	15.69
772.236	16.51
772.414	16.73
772.592	16.45
772.769	14.58
772.947	14.25
773.125	14.13
773.302	15.18
773.48	14.13
773.657	13.48
773.835	13.55
774.013	14.62
774.19	15.73
774.368	15.25
774.545	14.37
774.723	16.73
774.9	19.31
775.077	18.7
775.255	18.22
775.432	20.99
775.61	21.12
775.787	21.62
775.964	20.8
776.142	19.56
776.319	20.74
776.496	19.37
776.674	18.06
776.851	13.5
777.028	11.89
777.205	11.08
777.382	10.5
777.56	11.92
777.737	12.15
777.914	12.9
778.091	12.33
778.268	9.84
778.445	12.6
778.622	11.38
778.8	10.8
778.977	11.28
779.154	12.64
779.331	11.79
779.508	11.94
779.685	10.15
779.862	9.14
780.038	11.42
780.215	13.13
780.392	10.78
780.569	11.66
780.746	12.22
780.923	15.8
781.1	16.79
781.277	17.27
781.453	16.22
781.63	15.42
781.807	16.07
781.984	14.73
782.16	14.46
782.337	13.56
782.514	14.62
782.691	15.51
782.867	11.63
783.044	8.29
783.221	8.58
783.397	6.93
783.574	7.94
783.75	8.61
783.927	7.4
784.103	7.01
784.28	11.35
784.456	11.44
784.633	13.3
784.809	12.48
784.986	13.06
785.162	10.54
785.339	13.24
785.515	15.34
785.692	14.12
785.868	15.94
786.044	18.11
786.221	16.78
786.397	16.93
786.573	17.18
786.749	20.14
786.926	19.9
787.102	22.64
787.278	22.85
787.454	18.95
787.631	20.36
787.807	19.76
787.983	18.62
788.159	17.13
788.335	17.98
788.511	17.39
788.687	16.71
788.863	14.49
789.039	16.72
789.216	17.98
789.392	18.79
789.568	19.01
789.744	17.39
789.919	19.47
790.095	20.21
790.271	19.38
790.447	18.99
790.623	19.9
790.799	22.61
790.975	18.17
791.151	16.57
791.327	18.41
791.502	15.74
791.678	18.06
791.854	13.38
792.03	12.92
792.205	11.48
792.381	9.67
792.557	7.89
792.733	10.52
792.908	9.24
793.084	9.55
793.259	9.05
793.435	9.76
793.611	9.2
793.786	11.14
793.962	10.84
794.137	9.62
794.313	11.63
794.488	15.02
794.664	12.71
794.839	14.03
795.015	11.94
795.19	12.99
795.366	11.15
795.541	11.36
795.716	8.72
795.892	7.06
796.067	8.7
796.242	5.59
796.418	2.64
796.593	4.81
796.768	4.02
796.944	5.16
797.119	5.29
797.294	9.85
797.469	10.14
797.644	12.3
797.82	13.7
797.995	14.36
798.17	18.02
798.345	19.44
798.52	19.6
798.695	19.34
798.87	22.47
799.045	22.47
799.22	19.62
799.395	14.08
799.57	12.12
799.745	12.91
799.92	13.2
800.095	11.47
800.27	10.07
800.445	7.2
800.62	9.02
800.795	4.01
800.97	4.5
801.145	6.39
801.319	12.33
801.494	14.85
801.669	13.57
801.844	12.66
802.018	12.34
802.193	12.85
802.368	15.36
802.543	13.73
802.717	18.1
802.892	14.38
803.067	15.55
803.241	13.49
803.416	13.31
803.59	13.34
803.765	12.12
803.94	13.26
804.114	14.93
804.289	14.9
804.463	18.47
804.638	14.52
804.812	18.97
804.986	13.78
805.161	16.27
805.335	13.62
805.51	18.69
805.684	20.41
805.858	20.95
806.033	16
806.207	12.71
806.381	11.04
806.556	12.9
806.73	13.15
806.904	15.05
807.078	18.73
807.253	22.26
807.427	21
807.601	19.82
807.775	18.95
807.949	19.22
808.123	20.26
808.298	18.47
808.472	17.56
808.646	14.18
808.82	15.71
808.994	13.23
809.168	14.15
809.342	11.05
809.516	13.35
809.69	9.89
809.864	11.72
810.038	9.84
810.212	8.3
810.385	9.92
810.559	16.42
810.733	14.62
810.907	8.08
811.081	5.67
811.255	6.19
811.428	6.56
811.602	10.99
811.776	11.94
811.95	18.13
812.123	18.8
812.297	20.28
812.471	15.38
812.644	21.48
812.818	29.18
812.992	29.53
813.165	30.65
813.339	29.57
813.512	24.83
813.686	21.44
813.86	14.56
814.033	17.11
814.207	12.79
814.38	15.77
814.554	13.95
814.727	6.75
814.9	9.52
815.074	8.31
815.247	7.68
815.421	10.06
815.594	11.19
815.767	13.07
815.941	13.24
816.114	12.12
816.287	8.46
816.46	8.82
816.634	7.42
816.807	4.13
816.98	0.85
817.153	2
817.327	2.39
817.5	-1.4
817.673	-1.19
817.846	-0.38
818.019	-2.39
818.192	3.43
818.365	-0.95
818.538	5.85
818.711	0.84
818.884	10.27
819.057	4.99
819.23	1.87
819.403	8.44
819.576	9.21
819.749	7.95
819.922	9.51
820.095	5.33
820.268	9.79
820.441	5.72
820.614	8.95
820.786	4.54
820.959	10.45
821.132	12.76
821.305	12.71
821.477	12.47
821.65	13.64
821.823	15.97
821.996	16.76
822.168	15.56
822.341	16.93
822.514	16.81
822.686	16.87
822.859	16.11
823.031	15.69
823.204	15.35
823.376	16.01
823.549	15.54
823.722	15.33
823.894	15.35
824.067	15.61
824.239	15
824.411	14.92
824.584	15.85
824.756	16.57
824.929	17.11
825.101	16.62
825.273	16.27
825.446	17.58
825.618	16.32
825.79	15.62
825.963	16.34
826.135	16.92
826.307	17.12
826.479	16.74
826.652	15.43
826.824	15.96
826.996	17.68
827.168	16.45
827.34	16.09
827.512	16.25
827.684	16.08
827.856	15.06
828.029	13.76
828.201	11.89
828.373	11.8
828.545	11.17
828.717	9.79
828.889	7.46
829.061	8.55
829.232	6.09
829.404	6.66
829.576	7.74
829.748	6.23
829.92	5.86
830.092	10.33
830.264	6.95
830.436	8.11
830.607	9.29
830.779	9.14
830.951	8.7
831.123	10.46
831.294	9.38
831.466	6.62
831.638	5.49
831.809	6.47
831.981	1.23
832.153	6.03
832.324	3.3
832.496	-2.01
832.667	-5.43
832.839	-6.22
833.011	-7.81
833.182	-5.36
833.354	-1.53
833.525	1.28
833.697	1.98
833.868	4.97
834.039	5.22
834.211	8.37
834.382	11.08
834.554	13.52
834.725	12.55
834.896	13.64
835.068	15.86
835.239	14.95
835.41	16.87
835.581	18.56
835.753	20.32
835.924	18.28
836.095	16.39
836.266	18.19
836.438	19.27
836.609	24.11
836.78	24.66
836.951	21.31
837.122	22.8
837.293	20.96
837.464	19.03
837.635	19.05
837.806	21.43
837.977	26.18
838.148	24.25
838.319	27.66
838.49	24.38
838.661	22.55
838.832	25.69
839.003	21.51
839.174	22.84
839.345	17.61
839.516	9.48
839.687	14.57
839.857	13.5
840.028	9.98
840.199	9.12
840.37	10.38
840.54	10.23
840.711	9.18
840.882	19.48
841.053	14.46
841.223	21.6
841.394	23.85
841.564	16.27
841.735	16.78
841.906	16.91
842.076	11.47
842.247	10.59
842.417	9.39
842.588	7.33
842.758	-3.45
842.929	3.24
843.099	0.68
843.27	1.78
843.44	2.73
843.611	-3.48
843.781	-2.02
843.951	5.98
844.122	-9.33
844.292	-7.15
844.462	-7.99
844.633	10.38
844.803	-0.76
844.973	-9.66
845.144	-14.95
845.314	-6.68
845.484	-7.29
845.654	-16.52
845.824	-5.7
845.995	-2.41
846.165	1.78
846.335	3.05
846.505	-2.72
846.675	-4.44
846.845	5.14
847.015	5.67
847.185	-3.83
847.355	-11.7
847.525	-0.03
847.695	-20.9
847.865	-30.74
848.035	-11.7
848.205	-9.13
848.375	-19.26
848.545	-4.8
848.715	-16.5
848.884	-27.13
849.054	-28.12
849.224	-32.18
849.394	-50.95
849.564	-32.25
849.733	-36.71
849.903	-115.53
850.073	-154.99
850.243	-152.53
850.412	-147.24
850.582	-103.85
850.752	-79.37
850.921	-32.84
851.091	-13.78
851.26	5.84
851.43	-19.35
851.599	-5.31
851.769	3.3
851.939	9.02
852.108	14.94
852.278	10.92
852.447	1.99
852.616	-9.4
852.786	-19.79
852.955	-10.09
853.125	-20.31
853.294	-5.29
853.463	-4.83
853.633	-10.21
853.802	0.63
853.971	-0.58
854.141	2.3
854.31	8.68
854.479	16.9
854.648	14.71
854.818	10.32
854.987	21.72
855.156	7.29
855.325	13.32
855.494	8.94
855.663	-11.63
855.832	-14.29
856.001	-6.6
856.171	3.87
856.34	10.43
856.509	27.46
856.678	23.75
856.847	5.59
857.016	35.34
857.185	27.89
857.353	32.57
857.522	42.42
857.691	34.73
857.86	43.15
858.029	32.58
858.198	26.16
858.367	12.09
858.535	11.15
858.704	6.62
858.873	7.9
859.042	6.09
859.21	8.75
859.379	6.28
859.548	5.85
859.717	1.92
859.885	12.67
860.054	20.23
860.222	16.4
860.391	18.52
860.56	19.33
860.728	19.64
860.897	21.1
861.065	18.37
861.234	24.85
861.402	29.35
861.571	30.82
861.739	30.6
861.908	35.76
862.076	63.05
862.244	64.43
862.413	88.76
862.581	108.55
862.749	98.17
862.918	104.72
863.086	82.26
863.254	88
863.423	106.17
863.591	97.97
863.759	77.05
863.927	56.08
864.096	55.9
864.264	53.16
864.432	45.34
864.6	69.62
864.768	67.27
864.936	65.98
865.104	55.42
865.272	33.18
865.44	40.86
865.608	49.9
865.776	59.4
865.944	49.84
866.112	50.8
866.28	49.78
866.448	43.67
866.616	41.2
866.784	38.55
866.952	29.06
867.12	40.8
867.288	32.96
867.455	22.39
867.623	21.57
867.791	24.54
867.959	7.31
868.127	15.64
868.294	-0.17
868.462	9.75
868.63	-8.1
868.797	-16.29
868.965	-22.61
869.133	-18.45
869.3	-12.47
869.468	-38.76
869.636	-22.63
869.803	-14.88
869.971	-19.88
870.138	-14.96
870.306	-25
870.473	-16.68
870.641	-8.65
870.808	-12.11
870.975	-7.21
871.143	-6.61
871.31	17.94
871.478	12.13
871.645	21.79
871.812	10.89
871.98	21.96
872.147	34.12
872.314	14.31
872.482	12.78
872.649	17.54
872.816	24.31
872.983	31.65
873.15	23.27
873.318	30.47
873.485	12.13
873.652	6.74
873.819	2.64
873.986	1.2
874.153	15.19
874.32	17.23
874.487	-7.77
874.654	-9.02
874.821	-33.68
874.988	-60.46
875.155	-98.34
875.322	-59.82
875.489	-38.86
875.656	-7.12
875.823	-38.25
875.99	-42.44
876.157	-39.66
876.324	-28.28
876.49	-40.11
876.657	-32.79
876.824	0.16
876.991	1.65
877.157	4.16
877.324	10.91
877.491	10.93
877.658	30.05
877.824	40.7
877.991	35.59
878.157	32.04
878.324	50.93
878.491	44.04
878.657	18.51
878.824	16.46
878.99	25.91
879.157	15.7
879.323	-10.87
879.49	-30.39
879.656	-34.94
879.823	-49.47
879.989	-24.52
880.156	-29.49
880.322	23.17
880.488	34.9
880.655	2.1
880.821	-44.26
880.987	-49.24
881.154	-38.73
881.32	-28.44
881.486	-17.12
881.652	2.31
881.819	4.55
881.985	2.12
882.151	-4.92
882.317	-3.48
882.483	0.02
882.649	5.76
882.816	5
882.982	6.81
883.148	7.98
883.314	6.48
883.48	4.88
883.646	7.9
883.812	8.2
883.978	7.09
884.144	6.52
884.31	7.16
884.476	7.65
884.642	7.54
884.807	8.66
884.973	10.81
885.139	14.05
885.305	16.47
885.471	12.31
885.637	8.95
885.802	12.82
885.968	13.31
886.134	16.19
886.3	15.55
886.465	19.48
886.631	22.17
886.797	22.25
886.962	19.7
887.128	19.11
887.293	18.37
887.459	21.01
887.625	29.99
887.79	30.79
887.956	26.63
888.121	29.28
888.287	29.79
888.452	21.3
888.618	9.61
888.783	10.7
