Data from 2937891_Reflection_3.txt Node
Date: Wed Jul 15 14:23:39 EDT 2015
User: robert
Spectrometer: USB4E03001
Autoset integration time: false
Trigger mode: 4
Integration Time (sec): 1.000000E-1
Scans to average: 10
Electric dark correction enabled: true
Nonlinearity correction enabled: false
Boxcar width: 5
Stray light correction enabled: false
XAxis mode: Wavelengths
Stop averaging: false
Number of Pixels in Spectrum: 3648
>>>>>Begin Spectral Data<<<<<
177.566	-3362.22
177.785	300.56
178.005	144.71
178.225	120.29
178.445	87.9
178.665	27.23
178.885	-250.48
179.105	331.69
179.324	450.2
179.544	2635.16
179.764	-250.89
179.984	196.53
180.204	139.61
180.423	92.4
180.643	66.61
180.863	52.73
181.083	41
181.302	48.31
181.522	36.42
181.742	-12.26
181.961	10.96
182.181	16.82
182.401	19.3
182.621	18.89
182.84	29.59
183.06	37.4
183.279	52.93
183.499	51.68
183.719	45.31
183.938	58.29
184.158	76.71
184.377	62.76
184.597	47.52
184.816	48.16
185.036	47.93
185.256	45.44
185.475	33.75
185.695	26.28
185.914	27.63
186.134	24.91
186.353	38.2
186.572	37.46
186.792	29.66
187.011	64.89
187.231	100.51
187.45	97.31
187.67	94.4
187.889	120.27
188.108	126.19
188.328	93.78
188.547	102.84
188.766	36.42
188.986	17.09
189.205	26.87
189.424	19.61
189.644	21.52
189.863	12.96
190.082	-10.16
190.302	-17.52
190.521	17
190.74	25.13
190.959	18.09
191.178	22.25
191.398	14.92
191.617	-35.04
191.836	-116.21
192.055	-136.27
192.274	-50.35
192.494	-37.42
192.713	-76
192.932	-106.63
193.151	-170.04
193.37	-97.38
193.589	-87.07
193.808	-30.33
194.027	13.44
194.246	35.53
194.465	47.57
194.685	58.2
194.904	97.36
195.123	113.7
195.342	51.85
195.561	66.72
195.78	51.67
195.999	78.37
196.218	59.3
196.436	69.98
196.655	58.16
196.874	67.1
197.093	60.72
197.312	62.72
197.531	64.64
197.75	74.62
197.969	77.43
198.188	93.79
198.407	95.04
198.625	114.43
198.844	128.46
199.063	149.51
199.282	110.68
199.501	123.91
199.719	137.37
199.938	191.26
200.157	217.35
200.376	155.4
200.594	153.92
200.813	65.05
201.032	48.42
201.251	25.39
201.469	-42.65
201.688	225.53
201.907	886.55
202.125	1866.67
202.344	415.18
202.563	327.55
202.781	324.08
203	429.17
203.218	488.03
203.437	-220.05
203.656	279850
203.874	-353.42
204.093	-404.43
204.311	-200.41
204.53	-312.51
204.748	-63.15
204.967	-52.5
205.185	-45.39
205.404	-55.37
205.622	-58.04
205.841	-106.91
206.059	-56.3
206.278	-17.57
206.496	-39.58
206.715	-27.13
206.933	-21.84
207.151	-41.7
207.37	-29.85
207.588	-22.27
207.806	-41.18
208.025	-2.78
208.243	24.64
208.461	-1.05
208.68	29.27
208.898	64.15
209.116	57.64
209.335	55.81
209.553	77.08
209.771	83.06
209.989	106.25
210.208	107.45
210.426	695.74
210.644	828.18
210.862	616.84
211.081	-25.17
211.299	-282.86
211.517	-11.11
211.735	80.86
211.953	97.33
212.171	-25.85
212.39	-825.17
212.608	-121.63
212.826	-104.87
213.044	-38.09
213.262	-32.09
213.48	-131.05
213.698	-168.72
213.916	-288.13
214.134	-95.19
214.352	-42.77
214.57	-53.57
214.788	-12.65
215.006	50.27
215.224	-5.9
215.442	-15.42
215.66	30.24
215.878	48.53
216.096	104.58
216.314	1105.05
216.532	-192.48
216.75	-49.9
216.968	-182.23
217.185	-92.82
217.403	100.48
217.621	53.07
217.839	101.97
218.057	-8.02
218.275	231.32
218.492	107.12
218.71	57.45
218.928	150.58
219.146	203.29
219.363	443.5
219.581	186
219.799	260.72
220.017	193.88
220.234	281.28
220.452	327.21
220.67	-63.25
220.887	-463.07
221.105	376.14
221.323	168.7
221.54	104.33
221.758	127.69
221.976	174.61
222.193	192.47
222.411	200.99
222.629	203.2
222.846	149.11
223.064	292.18
223.281	472.67
223.499	-791.89
223.716	-581.52
223.934	-192.15
224.151	-76.38
224.369	-74.1
224.586	-42.69
224.804	-16.24
225.021	-9.01
225.239	-36.38
225.456	-42.11
225.674	-21.07
225.891	-15.39
226.108	-11.6
226.326	-33.86
226.543	-47.61
226.76	-44.52
226.978	-33.73
227.195	-56.11
227.413	-42.47
227.63	-33.43
227.847	-25.6
228.064	-25.29
228.282	-20.98
228.499	-18.95
228.716	-10.81
228.934	-11.67
229.151	-7.27
229.368	-6.71
229.585	-3.09
229.802	-2.46
230.02	-4.16
230.237	-1.63
230.454	2.75
230.671	3.02
230.888	7.46
231.105	7.16
231.323	9.71
231.54	3.64
231.757	-3.45
231.974	2.92
232.191	-4.57
232.408	1.59
232.625	-6.87
232.842	-13.33
233.059	-18.44
233.276	-25.72
233.493	-33.96
233.71	-37.04
233.927	-25.3
234.144	-19.25
234.361	-19.75
234.578	-9.56
234.795	-8.68
235.012	-11
235.229	-9.86
235.446	-4.63
235.663	-0.32
235.879	-0.6
236.096	-2.39
236.313	-9.05
236.53	-14.02
236.747	-12.32
236.964	-14.26
237.181	-13.97
237.397	-11.06
237.614	-14.29
237.831	-15.86
238.048	-19.49
238.264	-11.43
238.481	-7.92
238.698	-6.07
238.915	2.15
239.131	-0.5
239.348	-2.81
239.565	-7.87
239.781	-6.78
239.998	-2.79
240.215	-4.61
240.431	-6.58
240.648	-9.92
240.865	-7.05
241.081	-3.17
241.298	-4.65
241.514	-3.17
241.731	-2.82
241.947	-1.44
242.164	-0.62
242.38	-1.04
242.597	-0.14
242.814	0.8
243.03	0.4
243.246	0.8
243.463	-1.06
243.679	0.28
243.896	-0.76
244.112	1.95
244.329	0.38
244.545	-0.98
244.762	-0.16
244.978	-0.44
245.194	3.06
245.411	4.88
245.627	0.94
245.843	2.62
246.06	3.29
246.276	2.12
246.492	0.05
246.709	1.54
246.925	2.14
247.141	2.13
247.357	2.04
247.574	1.32
247.79	0.61
248.006	2.49
248.222	2.47
248.439	1.25
248.655	2.32
248.871	2.22
249.087	2.72
249.303	2.15
249.519	1.01
249.736	2.06
249.952	0.89
250.168	1.78
250.384	0.74
250.6	-1.16
250.816	-1.05
251.032	-1.81
251.248	-1.12
251.464	-1.7
251.68	-0.41
251.896	-1.16
252.112	-3.24
252.328	-2.89
252.544	-2.92
252.76	-3.79
252.976	-2.66
253.192	-1.53
253.408	0.67
253.624	1.46
253.84	0.88
254.056	-0.37
254.272	-0.45
254.487	-1.2
254.703	-0.3
254.919	0.51
255.135	-1.92
255.351	-4.69
255.567	-4.08
255.782	-9.69
255.998	-11.19
256.214	-17.19
256.43	-17.25
256.646	-13.29
256.861	-10.32
257.077	-10.28
257.293	-11.32
257.508	-5.71
257.724	-4.43
257.94	-4.66
258.155	-2.81
258.371	-1
258.587	2.86
258.802	3.86
259.018	4.7
259.234	4.59
259.449	3.96
259.665	4.65
259.88	3.89
260.096	4.71
260.312	4.95
260.527	4.63
260.743	4.5
260.958	3.56
261.174	3.73
261.389	2.81
261.605	2.19
261.82	2.72
262.036	2.92
262.251	2.81
262.466	0.97
262.682	0.15
262.897	1.83
263.113	0.71
263.328	0.97
263.543	0.21
263.759	1.35
263.974	2.81
264.189	1.74
264.405	-1.45
264.62	-1.28
264.835	0.26
265.051	-1.39
265.266	-1.88
265.481	-1.41
265.696	1.55
265.912	1.94
266.127	1.24
266.342	0.03
266.557	-0.95
266.773	-0.13
266.988	-0.49
267.203	-1.86
267.418	-0.88
267.633	-1.92
267.848	-2.39
268.064	-2.89
268.279	-1.75
268.494	-3.5
268.709	-2.17
268.924	-1.54
269.139	0.14
269.354	0.98
269.569	-0.25
269.784	-1.38
269.999	-0.29
270.214	0.01
270.429	-1.07
270.644	-3.5
270.859	-2.11
271.074	-2.55
271.289	0.48
271.504	0.85
271.719	1.35
271.934	3.05
272.149	2.8
272.363	2.13
272.578	2.62
272.793	3.97
273.008	5.09
273.223	5.64
273.438	5.31
273.653	3.36
273.867	1.41
274.082	0.09
274.297	0.7
274.512	2.53
274.726	1.7
274.941	1.27
275.156	-0.17
275.371	-0.46
275.585	-0.99
275.8	-0.74
276.015	-0.41
276.229	0.94
276.444	-0.43
276.659	-0.67
276.873	-1.75
277.088	0.1
277.302	1.22
277.517	2
277.732	2.12
277.946	0.96
278.161	3.29
278.375	3.57
278.59	2.04
278.804	4.2
279.019	4.56
279.233	5.4
279.448	4.9
279.662	4.42
279.877	4.35
280.091	3.3
280.306	2.18
280.52	0.49
280.735	0.64
280.949	2.44
281.163	1.2
281.378	1.29
281.592	1.44
281.806	0.31
282.021	-0.31
282.235	-2.18
282.449	-0.11
282.664	1.99
282.878	1.02
283.092	0.84
283.307	-0.3
283.521	-0.67
283.735	-0.27
283.949	-0.78
284.164	1.01
284.378	0.57
284.592	1.52
284.806	-0.22
285.02	-1.25
285.234	-0.19
285.449	-0.07
285.663	0.16
285.877	1.19
286.091	0.94
286.305	1.82
286.519	0.48
286.733	0.47
286.947	0.46
287.161	1.76
287.375	2.17
287.589	1.7
287.803	0.58
288.017	0.99
288.231	-0.7
288.445	-1.4
288.659	-1.28
288.873	-0.58
289.087	-1.94
289.301	-1.21
289.515	-1.49
289.729	-0.72
289.943	-0.77
290.157	0.64
290.371	0.08
290.584	2.66
290.798	3.86
291.012	3.83
291.226	3.79
291.44	5.71
291.654	5.07
291.867	2.82
292.081	2.19
292.295	2.63
292.509	1.41
292.722	1.13
292.936	-0.2
293.15	-0.61
293.364	-2.27
293.577	-2.84
293.791	-2.16
294.005	-0.78
294.218	0.76
294.432	0.74
294.645	0.65
294.859	1.09
295.073	2.06
295.286	1.89
295.5	0.76
295.713	1.01
295.927	1.08
296.14	0.69
296.354	-0.66
296.568	0.14
296.781	0.75
296.994	0.92
297.208	1.34
297.421	1.02
297.635	1.86
297.848	1.99
298.062	2.38
298.275	2.83
298.489	2.19
298.702	3.61
298.915	3.75
299.129	3.68
299.342	3.61
299.555	2.84
299.769	3.13
299.982	3.14
300.195	3.92
300.409	3.18
300.622	2.38
300.835	4
301.048	2.97
301.262	3.18
301.475	3.65
301.688	4.28
301.901	6.25
302.115	5.56
302.328	4.33
302.541	3.35
302.754	5.06
302.967	5.98
303.18	6.82
303.393	8.5
303.607	7.9
303.82	8.31
304.033	7.96
304.246	6.87
304.459	7.07
304.672	7.54
304.885	9.55
305.098	8.82
305.311	9.13
305.524	7.2
305.737	5.47
305.95	5.62
306.163	4.91
306.376	5.02
306.589	4.87
306.802	6.19
307.015	6.11
307.228	4.76
307.44	4.66
307.653	6.04
307.866	5.8
308.079	6.05
308.292	7.02
308.505	8.33
308.718	8.59
308.93	9.16
309.143	8.99
309.356	10.52
309.569	10.32
309.781	10.59
309.994	11.02
310.207	12.22
310.42	12.97
310.632	12.56
310.845	12.6
311.058	12.5
311.27	13.61
311.483	13.7
311.696	12.48
311.908	12.65
312.121	11.47
312.333	9.61
312.546	9.42
312.759	8.99
312.971	9.45
313.184	9.08
313.396	8.63
313.609	7.44
313.821	8.55
314.034	8.29
314.246	8.17
314.459	9.9
314.671	10.93
314.884	9.85
315.096	9.28
315.309	9.02
315.521	7.52
315.733	6.75
315.946	6.4
316.158	4.28
316.371	4.63
316.583	4.18
316.795	3.12
317.008	3.6
317.22	4.54
317.432	4.9
317.644	4.76
317.857	6.63
318.069	7.83
318.281	7.08
318.494	9.62
318.706	9.76
318.918	10.4
319.13	11
319.342	9.47
319.555	9.92
319.767	10
319.979	9
320.191	7.18
320.403	7.14
320.615	8.07
320.827	7.25
321.039	7.97
321.252	7.53
321.464	7.18
321.676	7.31
321.888	5.99
322.1	6.17
322.312	6.59
322.524	7.78
322.736	7.28
322.948	7.45
323.16	5.62
323.372	4.32
323.584	5.06
323.796	6.6
324.007	6.93
324.219	8.78
324.431	7.75
324.643	7.71
324.855	6.44
325.067	6.71
325.279	6.12
325.491	7.69
325.702	7.36
325.914	7.54
326.126	6.06
326.338	7.16
326.55	6.97
326.761	8.88
326.973	9.82
327.185	11.13
327.396	11.64
327.608	12.65
327.82	12.68
328.032	13.72
328.243	13.52
328.455	13.6
328.666	12.91
328.878	12.48
329.09	10.72
329.301	10.39
329.513	10.39
329.725	12.04
329.936	13.64
330.148	13.78
330.359	14.48
330.571	14.8
330.782	16.92
330.994	17.54
331.205	18.36
331.417	19.88
331.628	20.43
331.84	20.28
332.051	19.64
332.262	19.66
332.474	18.96
332.685	19.6
332.897	19.54
333.108	18.38
333.319	18.15
333.531	17.45
333.742	17.62
333.953	16.05
334.165	16.56
334.376	16.37
334.587	15.57
334.799	16.11
335.01	15.01
335.221	14.64
335.432	14.5
335.644	15.06
335.855	15.14
336.066	14.03
336.277	15.14
336.488	15.68
336.7	15.6
336.911	15.23
337.122	15.47
337.333	15.6
337.544	16.75
337.755	17.63
337.966	17.1
338.177	17.27
338.388	18.24
338.599	19.58
338.811	18.18
339.022	18.46
339.233	18.61
339.444	19.17
339.655	18.15
339.866	17.07
340.076	17.09
340.287	17.85
340.498	18.33
340.709	17.31
340.92	16.24
341.131	18.04
341.342	17.55
341.553	17.56
341.764	17.05
341.975	18.92
342.185	18.39
342.396	18.98
342.607	18.05
342.818	17.58
343.029	18.55
343.239	18.78
343.45	18.11
343.661	18.94
343.872	18.8
344.082	18.9
344.293	18.91
344.504	19.62
344.714	18.72
344.925	19.29
345.136	18.99
345.346	19.33
345.557	19.46
345.768	19.41
345.978	18.93
346.189	19.32
346.399	18.57
346.61	18.01
346.821	18.75
347.031	20.24
347.242	19.83
347.452	20.07
347.663	20.98
347.873	20.97
348.084	21.34
348.294	22.37
348.504	21.47
348.715	22.24
348.925	23.05
349.136	22.55
349.346	21.65
349.557	22
349.767	21.69
349.977	20.39
350.188	20.24
350.398	20.69
350.608	20.01
350.819	21.01
351.029	20.56
351.239	20.54
351.449	20.62
351.66	20.24
351.87	21.07
352.08	21.48
352.29	21.4
352.501	21.68
352.711	21.67
352.921	21.94
353.131	22.19
353.341	22.54
353.552	21.82
353.762	21.61
353.972	21.55
354.182	21.3
354.392	21.4
354.602	21.71
354.812	20.93
355.022	21.15
355.232	20.58
355.442	21.11
355.652	20.96
355.862	22.4
356.072	22.79
356.282	22.9
356.492	22.9
356.702	22.94
356.912	23.24
357.122	24.62
357.332	23.75
357.542	22.98
357.752	22.84
357.962	23.31
358.171	22.79
358.381	21.75
358.591	21.7
358.801	21.13
359.011	21.51
359.221	20.95
359.43	20.06
359.64	19.94
359.85	20.23
360.06	19.26
360.269	18.59
360.479	18.38
360.689	19.12
360.899	19.16
361.108	19.42
361.318	19.06
361.528	18.99
361.737	19.04
361.947	18.41
362.156	18.9
362.366	19
362.576	19.22
362.785	19.33
362.995	19.41
363.204	19.05
363.414	18.75
363.623	19.32
363.833	19.51
364.042	19.83
364.252	21.15
364.461	21
364.671	21.1
364.88	21.74
365.09	21.24
365.299	21.54
365.509	22.27
365.718	22.76
365.927	22.12
366.137	21.83
366.346	20.68
366.555	20.83
366.765	20.22
366.974	19.95
367.183	20.01
367.393	19.97
367.602	19.43
367.811	19.13
368.021	18.85
368.23	19.02
368.439	19.31
368.648	20.29
368.857	19.24
369.067	19.99
369.276	20.47
369.485	19.33
369.694	20.33
369.903	20.41
370.112	20.3
370.321	20.3
370.531	20.06
370.74	19.85
370.949	19.3
371.158	20.3
371.367	19.95
371.576	19.56
371.785	20.56
371.994	19.61
372.203	19.88
372.412	19.9
372.621	19.88
372.83	19.87
373.039	20
373.248	20.37
373.457	19
373.666	19.29
373.874	19.33
374.083	19.1
374.292	19.57
374.501	19.54
374.71	19.63
374.919	20.29
375.128	19.86
375.336	20.01
375.545	20.2
375.754	20.6
375.963	20.89
376.171	21.43
376.38	20.98
376.589	21.27
376.798	20.81
377.006	20.78
377.215	20.73
377.424	21.91
377.632	21.99
377.841	21.53
378.05	22.58
378.258	22.32
378.467	22.16
378.675	22.28
378.884	21.94
379.093	22.12
379.301	22.2
379.51	21.58
379.718	20.48
379.927	20.27
380.135	20.57
380.344	19.87
380.552	19.98
380.761	19.26
380.969	19.53
381.177	19.01
381.386	19.25
381.594	19.53
381.803	19.56
382.011	19.91
382.219	19.49
382.428	19.42
382.636	19.45
382.845	19.21
383.053	19.42
383.261	19.16
383.469	19.46
383.678	19.08
383.886	18.98
384.094	19.36
384.302	19.57
384.511	19.81
384.719	20.09
384.927	20.46
385.135	20.88
385.343	21.43
385.552	21.02
385.76	21.51
385.968	21.75
386.176	21.67
386.384	21.31
386.592	20.92
386.8	21.4
387.008	21.35
387.216	20.88
387.424	20.52
387.633	20.17
387.841	20.73
388.049	20.63
388.257	20.4
388.465	20.79
388.672	20.98
388.88	21.61
389.088	21.3
389.296	21.14
389.504	21.08
389.712	21.67
389.92	21.54
390.128	21.62
390.336	21.44
390.544	22.05
390.751	21.77
390.959	21.91
391.167	21.71
391.375	21.81
391.583	21.96
391.79	22.33
391.998	22.05
392.206	22.18
392.414	22.11
392.621	22.33
392.829	22.21
393.037	22.25
393.244	22.23
393.452	22.23
393.66	22.43
393.867	22.56
394.075	22.61
394.283	22.69
394.49	22.9
394.698	23
394.905	23.05
395.113	23.05
395.32	23.1
395.528	23.2
395.735	23.26
395.943	23.06
396.15	23.14
396.358	23.32
396.565	23.41
396.773	23.75
396.98	23.9
397.188	23.92
397.395	24.16
397.602	24.39
397.81	24.09
398.017	23.89
398.225	23.92
398.432	24.16
398.639	24.23
398.847	24.35
399.054	24.22
399.261	24.18
399.468	24.1
399.676	24.14
399.883	24.59
400.09	24.84
400.297	25.37
400.505	26.07
400.712	25.91
400.919	25.8
401.126	25.75
401.333	25.8
401.54	25.93
401.748	25.94
401.955	25.73
402.162	25.34
402.369	25.56
402.576	25.94
402.783	25.56
402.99	25.51
403.197	25.6
403.404	25.7
403.611	25.83
403.818	25.88
404.025	25.79
404.232	26.05
404.439	26.18
404.646	26.19
404.853	25.96
405.06	26.37
405.267	26.37
405.474	26.56
405.681	26.38
405.887	26.27
406.094	26.44
406.301	26.79
406.508	26.4
406.715	26.49
406.922	26.71
407.128	26.43
407.335	26
407.542	25.89
407.749	25.88
407.955	26.24
408.162	26.2
408.369	25.95
408.575	25.98
408.782	26.13
408.989	25.75
409.195	25.63
409.402	25.93
409.609	25.83
409.815	26.19
410.022	26.31
410.228	26.26
410.435	26.38
410.642	26.49
410.848	26.08
411.055	26.11
411.261	26.19
411.468	25.83
411.674	25.67
411.881	25.65
412.087	25.47
412.294	25.14
412.5	24.85
412.706	24.85
412.913	24.84
413.119	24.95
413.326	25.03
413.532	25.16
413.738	25.54
413.945	25.57
414.151	25.74
414.357	25.93
414.564	26.18
414.77	26.05
414.976	25.97
415.182	25.55
415.389	25.81
415.595	25.6
415.801	25.61
416.007	25.61
416.214	25.66
416.42	25.6
416.626	25.5
416.832	25.4
417.038	25.66
417.244	25.73
417.45	26.09
417.657	25.99
417.863	26.16
418.069	26.18
418.275	26
418.481	25.98
418.687	26.09
418.893	26.13
419.099	26.01
419.305	25.82
419.511	25.72
419.717	25.6
419.923	25.65
420.129	25.61
420.335	25.54
420.541	25.74
420.746	25.74
420.952	25.62
421.158	25.42
421.364	25.39
421.57	25.53
421.776	25.71
421.982	25.56
422.187	25.41
422.393	25.31
422.599	25.28
422.805	25.17
423.01	25.14
423.216	25.15
423.422	25.23
423.628	25.18
423.833	25.15
424.039	24.95
424.245	25.32
424.45	25.52
424.656	25.71
424.862	25.66
425.067	25.72
425.273	25.61
425.478	25.61
425.684	25.56
425.889	25.61
426.095	25.75
426.301	25.86
426.506	25.57
426.712	25.44
426.917	25.27
427.123	25.46
427.328	25.37
427.533	25.26
427.739	25.08
427.944	25.17
428.15	25.21
428.355	24.99
428.561	24.99
428.766	24.87
428.971	24.79
429.177	24.79
429.382	24.51
429.587	24.44
429.793	24.78
429.998	25.12
430.203	25.18
430.408	25.19
430.614	25.31
430.819	25.2
431.024	25.52
431.229	25.51
431.434	25.48
431.64	25.65
431.845	25.65
432.05	25.5
432.255	25.4
432.46	25.35
432.665	25.37
432.87	25.19
433.076	25.27
433.281	25.22
433.486	25.21
433.691	25.33
433.896	25.34
434.101	25.27
434.306	25.28
434.511	25.33
434.716	25.38
434.921	25.47
435.126	25.58
435.331	25.44
435.535	25.39
435.74	25.56
435.945	25.55
436.15	25.78
436.355	25.93
436.56	25.94
436.765	26.05
436.97	26.05
437.174	25.75
437.379	25.68
437.584	25.83
437.789	25.86
437.993	25.76
438.198	25.87
438.403	25.48
438.608	25.47
438.812	25.46
439.017	25.57
439.222	25.43
439.426	25.62
439.631	25.67
439.836	25.74
440.04	25.64
440.245	25.55
440.45	25.45
440.654	25.63
440.859	25.57
441.063	25.78
441.268	25.47
441.472	25.45
441.677	25.47
441.881	25.49
442.086	25.35
442.29	25.48
442.495	25.37
442.699	25.37
442.904	25.3
443.108	25.32
443.312	25.15
443.517	25.29
443.721	25.13
443.925	25
444.13	25.13
444.334	25.21
444.538	25.04
444.743	25.24
444.947	25.13
445.151	25.11
445.356	25.19
445.56	25.3
445.764	25.25
445.968	25.44
446.173	25.47
446.377	25.38
446.581	25.43
446.785	25.41
446.989	25.34
447.193	25.62
447.398	25.66
447.602	25.58
447.806	25.43
448.01	25.55
448.214	25.49
448.418	25.49
448.622	25.43
448.826	25.24
449.03	25.27
449.234	25.54
449.438	25.34
449.642	25.31
449.846	25.33
450.05	25.33
450.254	25.12
450.458	25.06
450.662	25.02
450.866	24.92
451.069	24.95
451.273	24.81
451.477	24.52
451.681	24.54
451.885	24.42
452.089	24.4
452.292	24.43
452.496	24.53
452.7	24.58
452.904	24.71
453.107	24.64
453.311	24.56
453.515	24.7
453.719	24.77
453.922	24.61
454.126	24.76
454.33	24.75
454.533	24.75
454.737	24.63
454.94	24.69
455.144	24.59
455.348	24.76
455.551	24.81
455.755	24.82
455.958	24.84
456.162	24.8
456.365	24.76
456.569	24.81
456.772	24.61
456.976	24.61
457.179	24.59
457.383	24.62
457.586	24.76
457.79	24.82
457.993	24.77
458.196	24.47
458.4	24.59
458.603	24.65
458.807	24.65
459.01	24.64
459.213	24.87
459.417	24.9
459.62	24.93
459.823	24.95
460.026	24.99
460.23	25.04
460.433	25.2
460.636	25.23
460.839	25.16
461.042	25.11
461.246	25.24
461.449	25.23
461.652	25.22
461.855	25.16
462.058	24.99
462.261	24.81
462.464	24.94
462.668	25.08
462.871	25.09
463.074	25.25
463.277	25.28
463.48	25.33
463.683	25.26
463.886	25.44
464.089	25.43
464.292	25.45
464.495	25.73
464.698	25.57
464.901	25.18
465.104	25.07
465.306	24.95
465.509	25.02
465.712	25.02
465.915	24.94
466.118	24.78
466.321	24.96
466.524	24.96
466.726	24.93
466.929	24.99
467.132	25.21
467.335	25.15
467.538	25.18
467.74	25.08
467.943	25.23
468.146	25.28
468.348	25.4
468.551	25.36
468.754	25.45
468.956	25.49
469.159	25.26
469.362	25.34
469.564	25.59
469.767	25.57
469.969	25.83
470.172	25.85
470.375	25.81
470.577	25.79
470.78	25.67
470.982	25.54
471.185	25.66
471.387	26.05
471.59	25.95
471.792	25.77
471.995	25.79
472.197	25.58
472.399	25.31
472.602	25.23
472.804	25.19
473.007	25.39
473.209	25.51
473.411	25.62
473.614	25.47
473.816	25.69
474.018	25.75
474.22	25.91
474.423	25.97
474.625	26.18
474.827	26.34
475.03	26.37
475.232	26.33
475.434	26.3
475.636	25.92
475.838	26.01
476.04	26.01
476.243	25.98
476.445	25.89
476.647	25.86
476.849	25.72
477.051	25.78
477.253	25.95
477.455	25.83
477.657	25.84
477.859	25.83
478.061	25.69
478.263	25.67
478.465	25.55
478.667	25.51
478.869	25.57
479.071	25.7
479.273	25.57
479.475	25.46
479.677	25.47
479.879	25.34
480.081	25.54
480.283	25.59
480.485	25.49
480.686	25.81
480.888	25.76
481.09	25.77
481.292	25.86
481.494	25.94
481.695	25.9
481.897	25.83
482.099	25.98
482.301	25.95
482.502	25.87
482.704	25.85
482.906	25.73
483.107	25.78
483.309	25.72
483.511	25.7
483.712	25.66
483.914	25.62
484.115	25.71
484.317	25.68
484.519	25.64
484.72	25.66
484.922	25.65
485.123	25.68
485.325	25.66
485.526	25.62
485.728	25.59
485.929	25.56
486.131	25.65
486.332	25.63
486.534	25.56
486.735	25.5
486.936	25.51
487.138	25.54
487.339	25.51
487.541	25.5
487.742	25.57
487.943	25.51
488.144	25.55
488.346	25.49
488.547	25.45
488.748	25.48
488.95	25.63
489.151	25.63
489.352	25.66
489.553	25.65
489.755	25.7
489.956	25.74
490.157	25.86
490.358	25.9
490.559	25.88
490.76	25.81
490.961	25.88
491.163	25.86
491.364	25.85
491.565	25.87
491.766	25.99
491.967	25.99
492.168	25.97
492.369	25.94
492.57	25.9
492.771	25.98
492.972	26.03
493.173	26.02
493.374	25.97
493.575	25.99
493.776	25.95
493.976	25.85
494.177	25.73
494.378	25.78
494.579	25.71
494.78	25.69
494.981	25.67
495.182	25.76
495.382	25.68
495.583	25.68
495.784	25.64
495.985	25.67
496.185	25.67
496.386	25.67
496.587	25.57
496.788	25.67
496.988	25.68
497.189	25.62
497.39	25.73
497.59	25.87
497.791	25.88
497.992	25.98
498.192	25.97
498.393	26.05
498.593	26.15
498.794	26.35
498.994	26.36
499.195	26.42
499.395	26.4
499.596	26.27
499.796	26.2
499.997	26.12
500.197	26.07
500.398	26.04
500.598	26.01
500.799	26.14
500.999	26.05
501.199	25.93
501.4	25.87
501.6	25.91
501.801	25.98
502.001	26.05
502.201	26.14
502.402	26.12
502.602	26.18
502.802	26.06
503.002	26.03
503.203	26.02
503.403	26.35
503.603	26.43
503.803	26.54
504.003	26.38
504.204	26.32
504.404	26.37
504.604	26.39
504.804	26.44
505.004	26.67
505.204	26.7
505.404	26.76
505.604	26.66
505.804	26.57
506.005	26.61
506.205	26.8
506.405	26.92
506.605	26.83
506.805	26.88
507.005	26.98
507.204	26.88
507.404	26.76
507.604	26.86
507.804	26.85
508.004	27.02
508.204	27.16
508.404	27.17
508.604	27.22
508.804	27.35
509.003	27.45
509.203	27.46
509.403	27.49
509.603	27.54
509.803	27.52
510.002	27.5
510.202	27.48
510.402	27.37
510.602	27.44
510.801	27.44
511.001	27.4
511.201	27.4
511.4	27.4
511.6	27.43
511.8	27.51
511.999	27.29
512.199	27.18
512.398	27.23
512.598	27.43
512.797	27.35
512.997	27.39
513.197	27.47
513.396	27.57
513.596	27.6
513.795	27.67
513.994	27.73
514.194	27.85
514.393	27.95
514.593	27.99
514.792	27.93
514.992	27.87
515.191	27.86
515.39	27.89
515.59	27.78
515.789	27.78
515.988	27.72
516.188	27.72
516.387	28.04
516.586	28.12
516.786	28.11
516.985	27.92
517.184	28.25
517.383	28.18
517.582	28.13
517.782	28.22
517.981	28.27
518.18	28.4
518.379	28.45
518.578	28.28
518.777	28.44
518.976	28.49
519.176	28.56
519.375	28.47
519.574	28.57
519.773	28.66
519.972	28.61
520.171	28.59
520.37	28.49
520.569	28.45
520.768	28.61
520.967	28.47
521.166	28.49
521.365	28.65
521.564	28.8
521.762	28.82
521.961	28.7
522.16	28.73
522.359	28.89
522.558	28.81
522.757	28.79
522.956	28.75
523.154	28.81
523.353	28.68
523.552	28.6
523.751	28.46
523.949	28.43
524.148	28.55
524.347	28.64
524.546	28.59
524.744	28.67
524.943	28.71
525.142	28.84
525.34	28.86
525.539	28.83
525.737	28.89
525.936	28.94
526.135	28.99
526.333	29.14
526.532	29.15
526.73	29.18
526.929	29.3
527.127	29.35
527.326	29.25
527.524	29.34
527.723	29.49
527.921	29.55
528.12	29.62
528.318	29.56
528.516	29.46
528.715	29.48
528.913	29.42
529.112	29.37
529.31	29.4
529.508	29.38
529.707	29.36
529.905	29.27
530.103	29.18
530.301	29.14
530.5	29.22
530.698	29.25
530.896	29.26
531.094	29.45
531.293	29.45
531.491	29.48
531.689	29.53
531.887	29.57
532.085	29.64
532.283	29.75
532.481	29.81
532.68	29.76
532.878	29.89
533.076	29.84
533.274	29.78
533.472	29.84
533.67	29.8
533.868	29.83
534.066	29.74
534.264	29.79
534.462	29.8
534.66	29.8
534.858	29.79
535.056	29.69
535.253	29.77
535.451	29.76
535.649	29.81
535.847	29.91
536.045	29.87
536.243	29.91
536.441	29.76
536.638	29.77
536.836	29.68
537.034	29.64
537.232	29.75
537.43	29.81
537.627	29.83
537.825	29.8
538.023	29.71
538.22	29.87
538.418	29.95
538.616	30.08
538.813	29.97
539.011	29.91
539.209	30.16
539.406	29.95
539.604	29.78
539.801	29.73
539.999	29.81
540.196	29.93
540.394	29.96
540.591	29.93
540.789	30.02
540.986	30.03
541.184	30.1
541.381	29.98
541.579	29.99
541.776	30.02
541.974	30.07
542.171	30.01
542.368	30.04
542.566	30.05
542.763	29.99
542.96	29.97
543.158	30.02
543.355	30.02
543.552	30.05
543.75	30.16
543.947	30.24
544.144	30.21
544.341	30.22
544.539	30.1
544.736	30
544.933	30.12
545.13	30.04
545.327	30.06
545.524	29.96
545.722	30.02
545.919	30.05
546.116	29.97
546.313	29.99
546.51	29.98
546.707	30.01
546.904	29.88
547.101	29.92
547.298	30.02
547.495	29.94
547.692	29.98
547.889	29.88
548.086	29.96
548.283	29.94
548.48	30.01
548.677	30.13
548.874	30.13
549.07	30.26
549.267	30.18
549.464	30.14
549.661	30.13
549.858	30.27
550.055	30.19
550.251	29.93
550.448	30.01
550.645	30.08
550.842	30.06
551.038	29.97
551.235	30.12
551.432	30.19
551.628	30.26
551.825	30.19
552.022	30.01
552.218	30.09
552.415	30.1
552.612	30.06
552.808	29.97
553.005	30.1
553.201	30.26
553.398	30.13
553.594	30.18
553.791	30.25
553.987	30.48
554.184	30.54
554.38	30.74
554.577	30.77
554.773	31.09
554.97	31.09
555.166	30.83
555.362	30.72
555.559	30.77
555.755	30.54
555.952	30.42
556.148	30.3
556.344	30.46
556.541	30.44
556.737	30.53
556.933	30.17
557.129	30.13
557.326	30.24
557.522	30.38
557.718	30.46
557.914	30.73
558.11	30.86
558.307	30.94
558.503	30.93
558.699	30.85
558.895	30.89
559.091	31.17
559.287	31.25
559.483	31.17
559.679	31.06
559.876	30.95
560.072	30.72
560.268	30.57
560.464	30.52
560.66	30.57
560.856	30.51
561.052	30.68
561.247	30.67
561.443	30.61
561.639	30.75
561.835	30.9
562.031	31.12
562.227	31.28
562.423	31.24
562.619	31.28
562.815	31.14
563.01	31.16
563.206	30.77
563.402	30.67
563.598	30.66
563.793	30.35
563.989	30.24
564.185	30.23
564.381	30.32
564.576	30.66
564.772	30.72
564.968	30.67
565.163	30.69
565.359	30.88
565.555	30.87
565.75	30.81
565.946	30.99
566.141	31.14
566.337	31.02
566.532	30.85
566.728	30.81
566.923	30.79
567.119	30.99
567.314	31.11
567.51	31.01
567.705	30.87
567.901	30.83
568.096	30.94
568.292	30.75
568.487	30.78
568.682	30.91
568.878	30.63
569.073	30.64
569.268	30.55
569.464	30.48
569.659	30.48
569.854	30.66
570.05	30.9
570.245	30.77
570.44	30.69
570.635	30.69
570.831	30.72
571.026	30.85
571.221	30.64
571.416	30.64
571.611	30.52
571.806	30.55
572.002	30.39
572.197	30.27
572.392	30.09
572.587	30.12
572.782	30.1
572.977	29.98
573.172	29.95
573.367	29.94
573.562	29.8
573.757	29.76
573.952	29.78
574.147	29.9
574.342	29.9
574.537	30.01
574.732	29.95
574.927	30
575.121	29.7
575.316	29.77
575.511	29.9
575.706	30.19
575.901	30.08
576.096	29.98
576.29	30.03
576.485	30.1
576.68	30.2
576.875	30.39
577.069	30.31
577.264	30.61
577.459	30.43
577.654	30.33
577.848	30.15
578.043	30.35
578.238	30.54
578.432	30.28
578.627	30.17
578.821	30.25
579.016	30.22
579.21	30.21
579.405	30.12
579.6	30.04
579.794	30.05
579.989	29.9
580.183	29.79
580.378	29.74
580.572	29.76
580.766	29.73
580.961	29.36
581.155	29.34
581.35	29.18
581.544	29.47
581.738	29.78
581.933	29.84
582.127	29.87
582.321	29.67
582.516	29.73
582.71	29.84
582.904	30.02
583.099	30.31
583.293	30.12
583.487	30.33
583.681	30.22
583.875	29.97
584.07	30
584.264	30.12
584.458	30.57
584.652	30.57
584.846	30.58
585.04	30.54
585.234	30.67
585.428	30.81
585.623	30.77
585.817	30.8
586.011	30.86
586.205	30.88
586.399	30.88
586.593	30.96
586.787	30.62
586.981	30.87
587.174	30.8
587.368	31.04
587.562	30.89
587.756	31.02
587.95	31.1
588.144	31.38
588.338	31.33
588.532	31.43
588.725	31.22
588.919	31.52
589.113	31.47
589.307	31.34
589.501	30.85
589.694	31.12
589.888	31.23
590.082	31.05
590.275	30.77
590.469	30.89
590.663	31.08
590.856	31.28
591.05	31.34
591.244	31.24
591.437	31.46
591.631	31.68
591.824	31.66
592.018	31.36
592.212	31.55
592.405	31.73
592.599	31.62
592.792	31.16
592.986	31.1
593.179	31.14
593.372	30.96
593.566	31
593.759	31.18
593.953	31.1
594.146	31.27
594.339	31.39
594.533	31.5
594.726	31.37
594.92	31.59
595.113	31.47
595.306	31.54
595.499	31.71
595.693	31.85
595.886	31.79
596.079	31.89
596.272	31.81
596.466	31.6
596.659	31.5
596.852	31.87
597.045	31.92
597.238	31.96
597.431	31.82
597.624	32
597.818	31.72
598.011	31.58
598.204	31.61
598.397	31.66
598.59	31.79
598.783	31.57
598.976	31.32
599.169	30.98
599.362	31.11
599.555	31.27
599.748	30.98
599.941	31.12
600.134	31.36
600.326	31.43
600.519	31.64
600.712	31.98
600.905	32.34
601.098	32.3
601.291	32.69
601.483	32.6
601.676	32.37
601.869	32.46
602.062	32.41
602.255	32.33
602.447	32.03
602.64	31.83
602.833	31.56
603.025	31.38
603.218	31.6
603.411	31.62
603.603	31.67
603.796	31.62
603.989	31.59
604.181	31.48
604.374	31.39
604.566	31.58
604.759	31.6
604.951	31.62
605.144	31.79
605.336	31.79
605.529	31.64
605.721	31.65
605.914	31.76
606.106	31.81
606.299	31.94
606.491	31.99
606.683	32.1
606.876	32.13
607.068	32.13
607.26	32.07
607.453	31.95
607.645	32.21
607.837	31.92
608.03	31.79
608.222	31.69
608.414	31.89
608.606	31.69
608.799	31.58
608.991	31.67
609.183	31.54
609.375	31.5
609.567	31.39
609.759	31.15
609.952	31.48
610.144	31.69
610.336	31.84
610.528	31.52
610.72	31.71
610.912	31.64
611.104	31.57
611.296	31.64
611.488	31.68
611.68	31.63
611.872	31.89
612.064	31.55
612.256	31.23
612.448	31.05
612.64	31.34
612.832	31.17
613.023	31.49
613.215	31.35
613.407	31.38
613.599	31.21
613.791	31.44
613.983	31.33
614.174	31.66
614.366	31.8
614.558	31.72
614.75	31.66
614.941	31.96
615.133	31.75
615.325	31.67
615.516	31.67
615.708	31.72
615.9	31.67
616.091	31.46
616.283	31.37
616.475	31.46
616.666	31.33
616.858	31.18
617.049	30.99
617.241	31.07
617.432	31.53
617.624	31.46
617.815	31.72
618.007	31.59
618.198	31.92
618.39	31.73
618.581	31.61
618.773	31.77
618.964	32.08
619.155	32.38
619.347	32.39
619.538	31.91
619.729	31.92
619.921	31.62
620.112	31.45
620.303	31.11
620.494	31.23
620.686	31.5
620.877	31.66
621.068	31.4
621.259	31.15
621.451	30.63
621.642	31.02
621.833	30.94
622.024	31.32
622.215	31.51
622.406	31.63
622.597	31.81
622.788	31.79
622.98	31.85
623.171	31.91
623.362	32.07
623.553	32.51
623.744	32.42
623.935	32.27
624.126	31.91
624.317	31.93
624.508	31.73
624.698	31.73
624.889	31.42
625.08	31.35
625.271	31.42
625.462	31.37
625.653	31.39
625.844	31.32
626.034	31.65
626.225	31.93
626.416	31.67
626.607	32.03
626.798	31.87
626.988	31.93
627.179	31.79
627.37	31.66
627.56	31.41
627.751	31.04
627.942	31.22
628.132	31.34
628.323	31.32
628.514	31.68
628.704	31.44
628.895	31.6
629.085	31.73
629.276	32.04
629.466	31.97
629.657	32.39
629.847	32.58
630.038	32.51
630.228	32.33
630.419	32.12
630.609	32.42
630.8	32.7
630.99	32.52
631.181	32.66
631.371	32.17
631.561	32.56
631.752	32.19
631.942	32.06
632.132	31.8
632.323	31.72
632.513	31.61
632.703	31.07
632.893	30.71
633.084	30.66
633.274	30.77
633.464	31.2
633.654	31.31
633.844	31.51
634.034	31.71
634.225	32.12
634.415	32.14
634.605	32.19
634.795	32.46
634.985	32.97
635.175	33.22
635.365	32.99
635.555	32.65
635.745	32.27
635.935	32.18
636.125	32.3
636.315	32.03
636.505	32.01
636.695	32.25
636.885	32.2
637.075	31.81
637.265	31.44
637.455	31.25
637.644	31.2
637.834	30.97
638.024	31.04
638.214	30.71
638.404	30.51
638.593	30.51
638.783	30.53
638.973	30.51
639.163	30.56
639.352	30.35
639.542	30.41
639.732	30.85
639.921	31.3
640.111	31.6
640.301	31.97
640.49	32.18
640.68	31.89
640.87	31.49
641.059	31.47
641.249	31.41
641.438	31.84
641.628	31.84
641.817	31.59
642.007	31.28
642.196	30.97
642.386	30.86
642.575	30.66
642.764	30.97
642.954	31.46
643.143	31.34
643.333	31.06
643.522	31.27
643.711	30.78
643.901	30.94
644.09	30.96
644.279	30.89
644.469	30.82
644.658	30.9
644.847	30.98
645.036	30.63
645.226	30.71
645.415	31.02
645.604	30.86
645.793	31.95
645.982	31.16
646.171	31.46
646.361	31.46
646.55	31.47
646.739	31.5
646.928	31.45
647.117	31.66
647.306	31.14
647.495	30.94
647.684	31.18
647.873	30.43
648.062	30.85
648.251	30.95
648.44	30.89
648.629	31.05
648.818	30.76
649.007	30.96
649.196	30.51
649.384	30.97
649.573	31.28
649.762	31.04
649.951	31.03
650.14	31.55
650.328	31.31
650.517	31.31
650.706	31.01
650.895	31.22
651.083	30.52
651.272	30.99
651.461	31.31
651.65	31.38
651.838	31.55
652.027	31.65
652.216	31.03
652.404	30.79
652.593	30.85
652.781	31.15
652.97	31.23
653.158	31.35
653.347	31.16
653.535	30.84
653.724	30.65
653.912	30.32
654.101	30.43
654.289	30.8
654.478	30.94
654.666	30.82
654.855	30.73
655.043	30.35
655.231	31.09
655.42	31.64
655.608	31.73
655.796	31.33
655.985	31.9
656.173	31.69
656.361	32
656.55	31.88
656.738	32.07
656.926	32.37
657.114	32.99
657.302	32.93
657.491	32.75
657.679	32.73
657.867	33.28
658.055	33.04
658.243	33.09
658.431	32.88
658.619	32.9
658.807	32.63
658.996	32.59
659.184	32.08
659.372	31.65
659.56	31.25
659.748	31.19
659.936	30.97
660.124	30.72
660.311	30.79
660.499	30.88
660.687	30.96
660.875	31.3
661.063	30.71
661.251	30.86
661.439	31.45
661.627	31.62
661.814	31.79
662.002	31.87
662.19	32.41
662.378	32.27
662.565	32.14
662.753	32.75
662.941	32.34
663.129	32.81
663.316	33.18
663.504	32.8
663.692	32.99
663.879	32.8
664.067	32.26
664.254	31.72
664.442	32.06
664.63	31.82
664.817	31.02
665.005	30.61
665.192	30.32
665.38	29.97
665.567	29.7
665.755	28.99
665.942	29.39
666.13	29.79
666.317	29.91
666.504	29.68
666.692	29.19
666.879	29.46
667.067	29.87
667.254	29.92
667.441	30
667.629	30.51
667.816	30.96
668.003	30.97
668.19	30.97
668.378	30.96
668.565	30.74
668.752	31.49
668.939	31.57
669.127	31.82
669.314	32.02
669.501	32.58
669.688	32.16
669.875	32.23
670.062	32.58
670.249	32.55
670.436	32.49
670.623	32.43
670.81	32.32
670.997	32.33
671.184	32.66
671.371	32.96
671.558	32.82
671.745	33.04
671.932	33.73
672.119	32.91
672.306	33.29
672.493	33.36
672.68	34.29
672.867	33.98
673.054	33.7
673.24	33.26
673.427	32.45
673.614	32.11
673.801	31.72
673.988	31.01
674.174	31.09
674.361	30.63
674.548	30.65
674.734	30.14
674.921	30.51
675.108	31.17
675.294	30.92
675.481	31.26
675.668	31.38
675.854	31.57
676.041	31.42
676.227	31.4
676.414	32.06
676.601	32.11
676.787	32.06
676.974	31.88
677.16	30.67
677.347	31.03
677.533	31.14
677.719	31.11
677.906	31.53
678.092	31.86
678.279	31.48
678.465	30.99
678.651	30.81
678.838	30.94
679.024	31.28
679.21	31.51
679.397	31.25
679.583	31.27
679.769	31.29
679.955	30.99
680.142	30.88
680.328	31.15
680.514	31.33
680.7	31.44
680.886	31.46
681.073	31.29
681.259	31.4
681.445	31.81
681.631	31.8
681.817	31.92
682.003	31.81
682.189	31.81
682.375	31.87
682.561	31.72
682.747	31.5
682.933	31.4
683.119	31.31
683.305	31.92
683.491	31.71
683.677	32.22
683.863	32.04
684.049	32.09
684.235	32.56
684.42	32.62
684.606	32.3
684.792	32.4
684.978	32.61
685.164	32.63
685.349	32.26
685.535	32.55
685.721	32.04
685.907	31.7
686.092	31.87
686.278	31.06
686.464	31.17
686.649	31.1
686.835	30.82
687.021	30.58
687.206	30.43
687.392	30.17
687.577	30.33
687.763	30.35
687.948	30.5
688.134	30.6
688.319	31.04
688.505	31.01
688.69	31.36
688.876	31.54
689.061	31.74
689.247	32
689.432	31.97
689.618	31.64
689.803	31.43
689.988	31.1
690.174	31.36
690.359	30.56
690.544	31.02
690.73	31.04
690.915	31.54
691.1	31.41
691.285	30.99
691.471	31.47
691.656	31.24
691.841	30.9
692.026	31.75
692.211	30.95
692.396	31.16
692.582	30.53
692.767	30.56
692.952	30.46
693.137	30.27
693.322	30.53
693.507	30.59
693.692	30.77
693.877	31.18
694.062	31.1
694.247	32
694.432	32.28
694.617	31.71
694.802	31.38
694.987	31.17
695.172	30.36
695.357	30.83
695.541	30.19
695.726	30.19
695.911	29.55
696.096	29.41
696.281	28.56
696.466	28.61
696.65	29.03
696.835	29.62
697.02	30.02
697.204	30.74
697.389	30.02
697.574	30.2
697.759	29.97
697.943	30.65
698.128	30.69
698.312	30.85
698.497	30.81
698.682	30.68
698.866	30.75
699.051	30.56
699.235	30.69
699.42	31.38
699.604	31.23
699.789	31.48
699.973	31.64
700.158	31.37
700.342	31.4
700.527	31.93
700.711	32.3
700.895	32.05
701.08	32.04
701.264	32.24
701.448	31.26
701.633	31.42
701.817	31.51
702.001	30.78
702.186	30.88
702.37	30.38
702.554	29.38
702.738	29.37
702.923	28.99
703.107	28.8
703.291	28.7
703.475	29.24
703.659	29.2
703.843	28.67
704.027	28.68
704.212	28.39
704.396	29.29
704.58	29.55
704.764	29.84
704.948	30.38
705.132	31.25
705.316	30.84
705.5	31.03
705.684	32.02
705.868	32.66
706.052	33.61
706.235	33.77
706.419	33.01
706.603	33.58
706.787	33.17
706.971	33
707.155	32.18
707.339	31.95
707.522	31.72
707.706	31.4
707.89	30.48
708.074	30.1
708.257	30.41
708.441	31.18
708.625	30.72
708.808	31.45
708.992	31.81
709.176	32.2
709.359	32.18
709.543	32.33
709.727	31.47
709.91	32.47
710.094	32.55
710.277	32.16
710.461	31.77
710.644	30.88
710.828	30.24
711.011	30.06
711.195	29.51
711.378	29.84
711.562	29.5
711.745	29.42
711.928	28.15
712.112	28.4
712.295	28.5
712.478	28.61
712.662	29.91
712.845	30.28
713.028	30.51
713.212	30.99
713.395	31.39
713.578	31.85
713.761	32.21
713.945	33.34
714.128	32.67
714.311	31.98
714.494	32.22
714.677	32.32
714.86	31.16
715.043	30.12
715.227	30.67
715.41	30.61
715.593	29.99
715.776	30.17
715.959	30.52
716.142	31.31
716.325	32.06
716.508	32.27
716.691	31.51
716.874	32.4
717.057	33.21
717.239	32.54
717.422	32.04
717.605	32.67
717.788	32.09
717.971	31.57
718.154	31.36
718.337	30.82
718.519	30.32
718.702	30.72
718.885	30.78
719.068	30.82
719.25	30.59
719.433	30.41
719.616	29.8
719.798	30.87
719.981	30.48
720.164	29.68
720.346	31.02
720.529	31.65
720.712	31.66
720.894	31.02
721.077	30.89
721.259	31.52
721.442	31.23
721.624	32.28
721.807	31.51
721.989	31.55
722.172	31.77
722.354	31.12
722.537	30.74
722.719	29.81
722.901	30.47
723.084	29.91
723.266	28.83
723.448	29.34
723.631	29.19
723.813	28.37
723.995	27.76
724.178	27.19
724.36	28.74
724.542	28.41
724.724	29.1
724.907	29.49
725.089	30.03
725.271	31.08
725.453	31.78
725.635	31.75
725.817	32.78
725.999	33.89
726.181	35.31
726.364	33.84
726.546	33.82
726.728	34.55
726.91	34.48
727.092	32.53
727.274	31.77
727.456	31.55
727.638	30.78
727.819	31.17
728.001	30.03
728.183	28.81
728.365	27.7
728.547	27.67
728.729	27.22
728.911	25.99
729.093	26.71
729.274	26.7
729.456	26.53
729.638	26.67
729.82	25.82
730.001	26.07
730.183	26.53
730.365	27.78
730.546	27.59
730.728	28.04
730.91	28.6
731.091	30.01
731.273	30.38
731.455	30.25
731.636	31.41
731.818	32.14
731.999	32.44
732.181	31.97
732.362	31.4
732.544	31.69
732.725	30.6
732.907	30.45
733.088	29.97
733.27	29.54
733.451	29.38
733.633	28.95
733.814	27.8
733.995	26.84
734.177	26.24
734.358	27.24
734.539	28.17
734.721	28.19
734.902	27.56
735.083	26.35
735.264	25.95
735.446	26.4
735.627	25.57
735.808	25.44
735.989	26.51
736.17	27.94
736.351	27.2
736.533	25.96
736.714	25.04
736.895	24.48
737.076	25.76
737.257	26.92
737.438	26.4
737.619	25.99
737.8	26.98
737.981	26.82
738.162	27.12
738.343	26.46
738.524	25.28
738.705	26.79
738.886	28.36
739.067	28.47
739.247	27.22
739.428	27.37
739.609	26.67
739.79	27.06
739.971	27.3
740.151	27.05
740.332	27.69
740.513	28.61
740.694	27.8
740.874	27.11
741.055	26.55
741.236	26.41
741.417	25.83
741.597	27.4
741.778	26.88
741.958	27.76
742.139	27.49
742.32	27
742.5	26.93
742.681	28.55
742.861	29.28
743.042	29.52
743.222	30.06
743.403	31.51
743.583	31.1
743.764	31.22
743.944	31.14
744.124	30.74
744.305	31.78
744.485	32.8
744.666	32.32
744.846	32.24
745.026	33.49
745.207	32.7
745.387	32.54
745.567	32.84
745.747	32.74
745.928	31.24
746.108	32.11
746.288	32.28
746.468	32.69
746.648	33.43
746.829	33.54
747.009	32.96
747.189	33.3
747.369	31.92
747.549	31.4
747.729	30.93
747.909	31.11
748.089	30.66
748.269	30.4
748.449	30.22
748.629	29.57
748.809	29.46
748.989	28.42
749.169	29.71
749.349	29.89
749.529	30.38
749.709	30.75
749.889	30
750.068	28.76
750.248	29.17
750.428	28.85
750.608	28.16
750.788	28.13
750.967	28.41
751.147	29.72
751.327	29.03
751.507	28.46
751.686	29.27
751.866	29.88
752.046	30.63
752.225	29.6
752.405	28.43
752.585	28.14
752.764	27.65
752.944	29.35
753.123	28.17
753.303	27.91
753.482	27.81
753.662	27.42
753.841	27.97
754.021	28.69
754.2	28.88
754.38	28.01
754.559	28.21
754.739	27.28
754.918	24.63
755.097	23.69
755.277	24.35
755.456	25.85
755.635	24.41
755.815	23.9
755.994	24.19
756.173	23.18
756.352	24.39
756.532	24.14
756.711	24.88
756.89	26.3
757.069	27.09
757.248	27.57
757.427	27.24
757.607	29.44
757.786	29.38
757.965	29.97
758.144	31.4
758.323	32.13
758.502	32.29
758.681	31.48
758.86	32.72
759.039	31.91
759.218	33.43
759.397	33.35
759.576	32.54
759.755	32.4
759.934	30.94
760.113	29.53
760.291	29.09
760.47	28.91
760.649	30.56
760.828	29.39
761.007	29.77
761.186	27.35
761.364	26.6
761.543	27.37
761.722	27.2
761.901	27.35
762.079	27.78
762.258	27.99
762.437	29.51
762.615	28.68
762.794	29.18
762.972	28.62
763.151	29.6
763.33	29.75
763.508	29.32
763.687	29.9
763.865	29.76
764.044	30.56
764.222	30.24
764.401	28.84
764.579	29.74
764.758	29.11
764.936	30.48
765.114	29.82
765.293	29.19
765.471	28.81
765.65	28.53
765.828	28.19
766.006	28.45
766.184	28.38
766.363	29.14
766.541	27.7
766.719	28.23
766.898	27.75
767.076	27.62
767.254	29.24
767.432	29.28
767.61	28.69
767.788	28.74
767.967	27.85
768.145	27.14
768.323	26.1
768.501	27.08
768.679	25.27
768.857	24.21
769.035	24.4
769.213	23.47
769.391	22.74
769.569	22.66
769.747	24.72
769.925	23.73
770.103	24.76
770.281	24.84
770.459	24.48
770.636	25.97
770.814	27.22
770.992	28.36
771.17	26.43
771.348	27.5
771.525	27.27
771.703	27.39
771.881	26.37
772.059	26.27
772.236	28.84
772.414	26.94
772.592	25.93
772.769	26.41
772.947	25.99
773.125	28.33
773.302	27.55
773.48	28.75
773.657	26.37
773.835	28.38
774.013	27.54
774.19	27.94
774.368	30.26
774.545	31.07
774.723	30.4
774.9	30.64
775.077	28.14
775.255	27.04
775.432	27.49
775.61	27.28
775.787	25.58
775.964	28.29
776.142	25.44
776.319	25.9
776.496	25.45
776.674	25.04
776.851	25.04
777.028	26.21
777.205	26.15
777.382	23.42
777.56	24.66
777.737	26.28
777.914	25.82
778.091	25.94
778.268	24.87
778.445	25.36
778.622	23.08
778.8	22.62
778.977	23.09
779.154	23.08
779.331	25.46
779.508	22.69
779.685	23.36
779.862	23.57
780.038	20.45
780.215	20.25
780.392	20.8
780.569	21.7
780.746	21.29
780.923	24.82
781.1	25.02
781.277	26.06
781.453	28.83
781.63	27.81
781.807	29.63
781.984	32.97
782.16	33.25
782.337	33.15
782.514	32.78
782.691	33.17
782.867	30.64
783.044	31.6
783.221	29.77
783.397	28.94
783.574	27.68
783.75	26.03
783.927	25.05
784.103	24.75
784.28	23.53
784.456	24.21
784.633	25.81
784.809	26.22
784.986	26.89
785.162	27.03
785.339	28.82
785.515	30.01
785.692	27.73
785.868	29.48
786.044	27.83
786.221	27.79
786.397	28.17
786.573	27.09
786.749	26.07
786.926	25.54
787.102	23.66
787.278	23.05
787.454	22.42
787.631	24.6
787.807	24.74
787.983	27.73
788.159	27.96
788.335	28.61
788.511	25.42
788.687	24.78
788.863	25.12
789.039	25.96
789.216	25.7
789.392	26.8
789.568	26.27
789.744	27.53
789.919	25.4
790.095	25.04
790.271	24.3
790.447	27.26
790.623	26.33
790.799	25.31
790.975	24.95
791.151	25.42
791.327	22.5
791.502	23.59
791.678	24.37
791.854	23.12
792.03	23.3
792.205	27.9
792.381	28.85
792.557	29.26
792.733	29.86
792.908	31.96
793.084	31.18
793.259	32.83
793.435	31.55
793.611	31.85
793.786	38.11
793.962	38.11
794.137	35.55
794.313	34.93
794.488	37.22
794.664	37.1
794.839	35.75
795.015	36.15
795.19	37.03
795.366	35.46
795.541	30.25
795.716	27.61
795.892	28.27
796.067	26.78
796.242	26.82
796.418	23.67
796.593	23.43
796.768	25.26
796.944	26.08
797.119	24.52
797.294	23.76
797.469	25.39
797.644	26.1
797.82	26.25
797.995	24.59
798.17	27.23
798.345	28.32
798.52	29.34
798.695	28.13
798.87	24.27
799.045	26.82
799.22	30.98
799.395	27.57
799.57	28.57
799.745	26.46
799.92	27.52
800.095	24.16
800.27	25.07
800.445	23.62
800.62	26.22
800.795	28.45
800.97	27.64
801.145	25.51
801.319	28.17
801.494	26.49
801.669	26.88
801.844	25.44
802.018	27.5
802.193	28.61
802.368	28.77
802.543	24.47
802.717	24.06
802.892	17.64
803.067	13.36
803.241	11.88
803.416	9.66
803.59	10.96
803.765	14.21
803.94	13.61
804.114	14.79
804.289	16.39
804.463	13.56
804.638	10.4
804.812	16.37
804.986	18.46
805.161	22.29
805.335	20.5
805.51	20.52
805.684	20.79
805.858	15.89
806.033	7.35
806.207	6.35
806.381	11.26
806.556	13.92
806.73	16.79
806.904	16.09
807.078	13.68
807.253	15.12
807.427	12.98
807.601	8.32
807.775	11.78
807.949	16.13
808.123	16.03
808.298	19.62
808.472	17
808.646	14.88
808.82	14.48
808.994	15.83
809.168	13.57
809.342	13.61
809.516	19.29
809.69	21.75
809.864	22.32
810.038	22.86
810.212	18.98
810.385	20.67
810.559	16.14
810.733	15.01
810.907	12.66
811.081	19.29
811.255	22.14
811.428	22.98
811.602	18.49
811.776	17.34
811.95	20.01
812.123	15.36
812.297	18.19
812.471	20.79
812.644	25.4
812.818	20.21
812.992	16.1
813.165	16.04
813.339	13.78
813.512	20
813.686	20.63
813.86	12.12
814.033	15.96
814.207	13.53
814.38	12.76
814.554	9.11
814.727	19.21
814.9	18.2
815.074	13.94
815.247	11.83
815.421	2.93
815.594	2.69
815.767	14.61
815.941	11.53
816.114	14.01
816.287	19.92
816.46	16.11
816.634	13.21
816.807	20.38
816.98	21.79
817.153	25.03
817.327	26.24
817.5	29.56
817.673	31.68
817.846	36.03
818.019	36.42
818.192	33.52
818.365	34.72
818.538	31.95
818.711	30.23
818.884	26.61
819.057	28.11
819.23	27.13
819.403	24.54
819.576	21.4
819.749	22.59
819.922	24
820.095	25.41
820.268	30.68
820.441	33.29
820.614	30.16
820.786	32.57
820.959	29.86
821.132	32.04
821.305	32.66
821.477	32.57
821.65	31.44
821.823	30.75
821.996	29.8
822.168	29.07
822.341	29.67
822.514	30.2
822.686	30.58
822.859	30.78
823.031	30.55
823.204	30.24
823.376	29.96
823.549	29.17
823.722	29.07
823.894	29.27
824.067	29.57
824.239	29.37
824.411	29.58
824.584	30.11
824.756	29.42
824.929	28.65
825.101	29.16
825.273	29.32
825.446	30.73
825.618	30.94
825.79	31.68
825.963	31.7
826.135	30.3
826.307	29.66
826.479	28.05
826.652	29.02
826.824	28.99
826.996	27.62
827.168	27.22
827.34	27.84
827.512	27.87
827.684	28.57
827.856	28.31
828.029	29.03
828.201	29.53
828.373	31.05
828.545	31.39
828.717	33.47
828.889	34.54
829.061	34.13
829.232	33.49
829.404	34.23
829.576	33.29
829.748	35.17
829.92	37.34
830.092	37.9
830.264	35.89
830.436	35.01
830.607	31.83
830.779	30.66
830.951	31.02
831.123	30.54
831.294	26.91
831.466	23.33
831.638	15.91
831.809	12.07
831.981	7.75
832.153	2.12
832.324	6.79
832.496	8.58
832.667	7.37
832.839	9.23
833.011	8.49
833.182	13.29
833.354	14.09
833.525	15.22
833.697	15.86
833.868	18.69
834.039	21.8
834.211	20.71
834.382	20.58
834.554	23.25
834.725	19.45
834.896	18.31
835.068	19.67
835.239	22.08
835.41	24.58
835.581	25.27
835.753	27.29
835.924	25.93
836.095	23.57
836.266	22.58
836.438	20.87
836.609	26.43
836.78	25.66
836.951	22.51
837.122	20.3
837.293	16.04
837.464	12.62
837.635	13.97
837.806	16.85
837.977	18.84
838.148	20.8
838.319	21.45
838.49	22.97
838.661	35.05
838.832	36.98
839.003	34.85
839.174	35.74
839.345	36.64
839.516	30.33
839.687	17.53
839.857	20.08
840.028	22.85
840.199	24.76
840.37	27.79
840.54	16.65
840.711	16.72
840.882	15.38
841.053	25.77
841.223	25.63
841.394	24.71
841.564	31.27
841.735	27.63
841.906	26.69
842.076	22.69
842.247	19.37
842.417	29.18
842.588	23.97
842.758	32.26
842.929	19.81
843.099	23.83
843.27	23.78
843.44	27.72
843.611	30.48
843.781	30.65
843.951	41.34
844.122	39.39
844.292	29.62
844.462	30.79
844.633	12.84
844.803	20.98
844.973	25.02
845.144	31.51
845.314	38.89
845.484	32.93
845.654	20.82
845.824	9.34
845.995	-0.5
846.165	-4.55
846.335	-10.85
846.505	26.05
846.675	18.64
846.845	28.3
847.015	26.05
847.185	20.29
847.355	35.86
847.525	58.07
847.695	64.52
847.865	48.6
848.035	54.67
848.205	67.39
848.375	33.26
848.545	23.96
848.715	-34.3
848.884	-48.41
849.054	21.67
849.224	19.76
849.394	-10.99
849.564	13.32
849.733	22.8
849.903	34.72
850.073	26.29
850.243	36.71
850.412	44.84
850.582	43.71
850.752	37.11
850.921	15.23
851.091	-2.67
851.26	21.64
851.43	-14.26
851.599	12.29
851.769	-5.75
851.939	24.57
852.108	33.28
852.278	12.81
852.447	23.17
852.616	46.47
852.786	11.41
852.955	7.35
853.125	-18.96
853.294	1.32
853.463	-10.79
853.633	-25.55
853.802	-53.66
853.971	-41.54
854.141	-69.89
854.31	-42.74
854.479	-39.58
854.648	-25.73
854.818	-33.56
854.987	-8.49
855.156	1.38
855.325	-3.62
855.494	-0.15
855.663	2.84
855.832	13.48
856.001	26.96
856.171	20.12
856.34	58.32
856.509	63.7
856.678	109.88
856.847	274.89
857.016	80.95
857.185	193.3
857.353	99.64
857.522	44.12
857.691	28.53
857.86	10.58
858.029	2.51
858.198	-12.63
858.367	-7.34
858.535	-2.02
858.704	-1.55
858.873	7.13
859.042	10.84
859.21	28.55
859.379	37.17
859.548	47.78
859.717	68.44
859.885	67.83
860.054	70.56
860.222	72.49
860.391	84.31
860.56	72.81
860.728	66.24
860.897	74.49
861.065	64.89
861.234	56.18
861.402	41.4
861.571	27.67
861.739	-5.85
861.908	-18.47
862.076	-37.35
862.244	-142.64
862.413	-39.64
862.581	-21.39
862.749	-46.47
862.918	-7.64
863.086	-8.51
863.254	8.67
863.423	22.45
863.591	44.94
863.759	74.6
863.927	75.48
864.096	36.89
864.264	10.52
864.432	-5.77
864.6	5.79
864.768	-65.4
864.936	-69.02
865.104	-52.27
865.272	-59.27
865.44	-35.8
865.608	-49.02
865.776	-58.34
865.944	-47.61
866.112	-58.32
866.28	-68.27
866.448	-102.32
866.616	-87.05
866.784	-74.66
866.952	-79.53
867.12	-88.15
867.288	-102.73
867.455	-77.04
867.623	-69.79
867.791	-91.54
867.959	-85.07
868.127	-98.36
868.294	-82.71
868.462	-79.99
868.63	-185.53
868.797	-91.63
868.965	-198.53
869.133	-163.42
869.3	-122.66
869.468	-209.52
869.636	-436.43
869.803	-107.43
869.971	-0.93
870.138	-2.46
870.306	-9.23
870.473	26.27
870.641	-493.62
870.808	12.15
870.975	202.41
871.143	71.43
871.31	-19.2
871.478	831.93
871.645	100.28
871.812	7.11
871.98	23.09
872.147	34.99
872.314	-17.19
872.482	6.68
872.649	20.99
872.816	23
872.983	35.27
873.15	13.67
873.318	5.37
873.485	-13.81
873.652	-13.86
873.819	-6.72
873.986	12.83
874.153	39.29
874.32	55.67
874.487	38.14
874.654	24.81
874.821	29.84
874.988	54.83
875.155	32.86
875.322	56.66
875.489	46.6
875.656	28.6
875.823	-30.21
875.99	-305.78
876.157	639.47
876.324	469.74
876.49	3656.52
876.657	943.29
876.824	-121.09
876.991	-29.53
877.157	-150.43
877.324	-25.57
877.491	-25.5
877.658	-15.65
877.824	-26.32
877.991	0.22
878.157	24.61
878.324	36.12
878.491	42.3
878.657	49.33
878.824	50.49
878.99	57.49
879.157	26.71
879.323	34.99
879.49	-78
879.656	-571.49
879.823	284.66
879.989	-2066.45
880.156	591.19
880.322	849.29
880.488	-2310.02
880.655	-494.43
880.821	-162.94
880.987	-66.31
881.154	-56.44
881.32	-32.18
881.486	-20.97
881.652	-12.16
881.819	-2.93
881.985	10.22
882.151	18.77
882.317	19.3
882.483	21.01
882.649	19.44
882.816	18.87
882.982	17.25
883.148	20.49
883.314	21.28
883.48	23.05
883.646	21.98
883.812	22.96
883.978	19.1
884.144	18.48
884.31	18.94
884.476	18.81
884.642	20.68
884.807	23.12
884.973	20.25
885.139	20.98
885.305	20.81
885.471	22.5
885.637	20.59
885.802	26.31
885.968	24.91
886.134	26.35
886.3	27.35
886.465	25.52
886.631	21.82
886.797	25
886.962	24.66
887.128	25.8
887.293	24.21
887.459	17.89
887.625	14.43
887.79	22.68
887.956	17.91
888.121	16.75
888.287	16.86
888.452	32.95
888.618	29.38
888.783	26.72
