Data from 2937890_Reflection_3.txt Node
Date: Wed Jul 15 14:21:12 EDT 2015
User: robert
Spectrometer: USB4E03001
Autoset integration time: false
Trigger mode: 4
Integration Time (sec): 1.000000E-1
Scans to average: 10
Electric dark correction enabled: true
Nonlinearity correction enabled: false
Boxcar width: 5
Stray light correction enabled: false
XAxis mode: Wavelengths
Stop averaging: false
Number of Pixels in Spectrum: 3648
>>>>>Begin Spectral Data<<<<<
177.566	63.41
177.785	74.41
178.005	112.46
178.225	86.53
178.445	75.1
178.665	76.84
178.885	-173.84
179.105	103.71
179.324	48.78
179.544	32.61
179.764	62.56
179.984	96.45
180.204	101.28
180.423	109.99
180.643	100.07
180.863	89.56
181.083	88.88
181.302	117.56
181.522	105.75
181.742	150.07
181.961	297.57
182.181	1157.01
182.401	-1028.09
182.621	-169.7
182.84	-383.83
183.06	-857.24
183.279	557.38
183.499	-330.97
183.719	516.89
183.938	568.22
184.158	879.41
184.377	282.66
184.597	284.13
184.816	209.64
185.036	301.36
185.256	392.93
185.475	437.71
185.695	1532.58
185.914	611.21
186.134	-4667.14
186.353	-461.53
186.572	1495.29
186.792	-2415.52
187.011	684.88
187.231	859.31
187.45	3535.86
187.67	1319.95
187.889	1006.13
188.108	6452.5
188.328	979.13
188.547	333.46
188.766	261.68
188.986	275.82
189.205	398.05
189.424	298.27
189.644	219.08
189.863	145.79
190.082	78.97
190.302	52.07
190.521	104.46
190.74	114.94
190.959	180.43
191.178	146.57
191.398	102.18
191.617	78.16
191.836	61.25
192.055	70.41
192.274	-46.91
192.494	-74.35
192.713	-81.69
192.932	4.64
193.151	-122.92
193.37	24.12
193.589	12.72
193.808	0.8
194.027	-214.73
194.246	486.71
194.465	211.9
194.685	193.84
194.904	112.15
195.123	125.57
195.342	107.82
195.561	64.32
195.78	59.32
195.999	44.04
196.218	-30.57
196.436	-217.23
196.655	-496.96
196.874	-449.28
197.093	-361.95
197.312	341.53
197.531	-187.44
197.75	-4130.86
197.969	183.72
198.188	687.38
198.407	163.67
198.625	-111.97
198.844	188.84
199.063	193.13
199.282	293.63
199.501	170.85
199.719	753.13
199.938	1.73
200.157	5.87
200.376	-37.64
200.594	1149.73
200.813	1157.6
201.032	611.83
201.251	-2460.78
201.469	5145.68
201.688	332.52
201.907	198.94
202.125	129.22
202.344	131.66
202.563	132.27
202.781	128.79
203	133.48
203.218	91.2
203.437	69.89
203.656	62.41
203.874	51.99
204.093	65.42
204.311	49.54
204.53	38.25
204.748	-1.21
204.967	42.81
205.185	46.44
205.404	48.88
205.622	65.84
205.841	102.99
206.059	113.14
206.278	96.27
206.496	118.12
206.715	125.62
206.933	164.5
207.151	189.36
207.37	251.86
207.588	232.8
207.806	273.46
208.025	278.22
208.243	199.44
208.461	216.08
208.68	362.2
208.898	222.16
209.116	215.04
209.335	65.14
209.553	57.76
209.771	157.24
209.989	212.61
210.208	152.31
210.426	35.84
210.644	9.04
210.862	-104.03
211.081	233.41
211.299	168.53
211.517	96.16
211.735	140.21
211.953	103.13
212.171	59.79
212.39	54.14
212.608	41.06
212.826	52.72
213.044	56.93
213.262	87.85
213.48	73.69
213.698	62.22
213.916	94.92
214.134	74.17
214.352	-678.45
214.57	306.29
214.788	-124.55
215.006	-72.17
215.224	-197.07
215.442	-64.81
215.66	-237.67
215.878	369.86
216.096	214.11
216.314	187.92
216.532	224.91
216.75	96.47
216.968	102.02
217.185	85.09
217.403	71.73
217.621	50.57
217.839	41.12
218.057	14.79
218.275	4.94
218.492	25.82
218.71	39.53
218.928	33.88
219.146	28.02
219.363	43.31
219.581	63.38
219.799	19.57
220.017	34.3
220.234	62.26
220.452	88.62
220.67	88.41
220.887	118.83
221.105	204.39
221.323	368.6
221.54	128.15
221.758	179.61
221.976	32.84
222.193	65.51
222.411	42.49
222.629	-55.95
222.846	-38.12
223.064	-105.07
223.281	-8.96
223.499	-105.57
223.716	-84.89
223.934	-73.24
224.151	-109.13
224.369	12.14
224.586	-60.43
224.804	-55.84
225.021	1044.9
225.239	1272.48
225.456	-395.52
225.674	-218.34
225.891	-88.6
226.108	-108.01
226.326	-53.11
226.543	-27.92
226.76	-38.98
226.978	-20.96
227.195	-19.65
227.413	-17.35
227.63	-1.5
227.847	14
228.064	23.84
228.282	22.5
228.499	24.79
228.716	16.22
228.934	16.7
229.151	20.24
229.368	20.22
229.585	17.11
229.802	25.85
230.02	26.77
230.237	22.76
230.454	20.28
230.671	20.28
230.888	18.93
231.105	20.37
231.323	21.37
231.54	22.07
231.757	19.11
231.974	21.1
232.191	10.39
232.408	3.51
232.625	2.44
232.842	-4.49
233.059	0.95
233.276	-3.24
233.493	3.39
233.71	13.45
233.927	16.42
234.144	20.68
234.361	23.79
234.578	24.01
234.795	28.1
235.012	25.54
235.229	29.79
235.446	29.54
235.663	28.51
235.879	27.98
236.096	23.34
236.313	19.72
236.53	11.9
236.747	7.5
236.964	4.73
237.181	7.07
237.397	13.97
237.614	9.27
237.831	8.87
238.048	8.58
238.264	12.33
238.481	12.12
238.698	10.07
238.915	13.96
239.131	18.9
239.348	29.33
239.565	28.02
239.781	27.09
239.998	29.94
240.215	25.69
240.431	23.23
240.648	22.26
240.865	20.8
241.081	22.46
241.298	24.82
241.514	25.21
241.731	20.13
241.947	19.79
242.164	17.76
242.38	15.96
242.597	16.65
242.814	17.89
243.03	16.97
243.246	16.71
243.463	17.89
243.679	19.41
243.896	19.29
244.112	20.61
244.329	20.97
244.545	23.26
244.762	24.79
244.978	25.15
245.194	27.05
245.411	29.79
245.627	29.38
245.843	27.43
246.06	24.26
246.276	22.61
246.492	21.53
246.709	19.59
246.925	19.38
247.141	20.21
247.357	20.05
247.574	19.31
247.79	17.56
248.006	17.74
248.222	18.6
248.439	18.19
248.655	19.09
248.871	19.71
249.087	21.63
249.303	21.22
249.519	20.98
249.736	20.19
249.952	20.33
250.168	23.34
250.384	23.55
250.6	20.55
250.816	22.39
251.032	20.1
251.248	17.98
251.464	15.75
251.68	14.94
251.896	13.04
252.112	12.37
252.328	10.13
252.544	8.41
252.76	8.85
252.976	8
253.192	5.88
253.408	7.43
253.624	7.1
253.84	6.89
254.056	6.96
254.272	7.42
254.487	9.7
254.703	15.05
254.919	15.15
255.135	14.91
255.351	12.62
255.567	19.38
255.782	15.31
255.998	18.82
256.214	18.62
256.43	19.09
256.646	18.09
256.861	17.9
257.077	13.97
257.293	12.8
257.508	10.66
257.724	13.77
257.94	9.58
258.155	12.97
258.371	11.56
258.587	11.74
258.802	12.52
259.018	12.63
259.234	13.71
259.449	14.27
259.665	14.77
259.88	14.94
260.096	14.2
260.312	14.77
260.527	14.19
260.743	14.36
260.958	14.16
261.174	13.63
261.389	11.99
261.605	11.02
261.82	11.13
262.036	11.04
262.251	10.76
262.466	11.46
262.682	10.19
262.897	9.48
263.113	9.59
263.328	10.6
263.543	13.65
263.759	16.41
263.974	17.6
264.189	17.68
264.405	17.21
264.62	19.14
264.835	20.71
265.051	21.22
265.266	20.46
265.481	21.38
265.696	22.74
265.912	21.06
266.127	21.2
266.342	19.33
266.557	18.2
266.773	19.19
266.988	16.93
267.203	15.88
267.418	15.14
267.633	15.11
267.848	12.93
268.064	10.77
268.279	11.75
268.494	12.83
268.709	12.82
268.924	13.13
269.139	11.83
269.354	13.9
269.569	15.2
269.784	17.21
269.999	17.04
270.214	16.54
270.429	17.45
270.644	16.45
270.859	14.86
271.074	14.35
271.289	14.3
271.504	14.7
271.719	13.3
271.934	12.86
272.149	11.36
272.363	11.26
272.578	11.03
272.793	10.88
273.008	10.93
273.223	10.79
273.438	11.4
273.653	12.08
273.867	11.15
274.082	11.2
274.297	10.32
274.512	10.48
274.726	10.96
274.941	13.23
275.156	12.06
275.371	12.07
275.585	12.45
275.8	11.99
276.015	11.54
276.229	13.14
276.444	12.47
276.659	11.69
276.873	13.61
277.088	12.99
277.302	13.43
277.517	12.98
277.732	12.69
277.946	12.49
278.161	13.2
278.375	13.14
278.59	13.25
278.804	14.45
279.019	16.36
279.233	14.44
279.448	15.62
279.662	13.5
279.877	14.99
280.091	15.81
280.306	16.67
280.52	15.78
280.735	16.39
280.949	14.88
281.163	13.9
281.378	13.75
281.592	13.62
281.806	13.49
282.021	14.38
282.235	13.12
282.449	12.85
282.664	12.76
282.878	12.82
283.092	11.63
283.307	11.78
283.521	12.55
283.735	10.93
283.949	10.24
284.164	9.79
284.378	9.21
284.592	8.5
284.806	7.7
285.02	7.02
285.234	7.04
285.449	7.39
285.663	8.4
285.877	8.69
286.091	9.14
286.305	9.86
286.519	9.86
286.733	9.72
286.947	11.78
287.161	11.23
287.375	10.04
287.589	9.47
287.803	10.94
288.017	10.41
288.231	9.93
288.445	10.09
288.659	10.09
288.873	11.28
289.087	10.87
289.301	10.84
289.515	11.79
289.729	13.58
289.943	14.3
290.157	12.26
290.371	12.46
290.584	12.31
290.798	12.24
291.012	11.66
291.226	10.73
291.44	12.8
291.654	13.26
291.867	13.29
292.081	12.03
292.295	11.61
292.509	12.33
292.722	12.83
292.936	13.09
293.15	13.35
293.364	13.47
293.577	13.54
293.791	12.77
294.005	13.21
294.218	12.93
294.432	13.65
294.645	14
294.859	13.4
295.073	13.3
295.286	12.81
295.5	13.62
295.713	14.1
295.927	15.04
296.14	14.48
296.354	13.39
296.568	13.76
296.781	13.73
296.994	13.58
297.208	13.84
297.421	13.42
297.635	13.11
297.848	13.14
298.062	13.04
298.275	12.7
298.489	12.51
298.702	13.37
298.915	13.53
299.129	13.87
299.342	15.13
299.555	15.82
299.769	15.3
299.982	16.21
300.195	16.26
300.409	17.42
300.622	17.46
300.835	20.24
301.048	19.6
301.262	19.39
301.475	20.94
301.688	20.88
301.901	20.48
302.115	21.66
302.328	23.06
302.541	23.36
302.754	23.2
302.967	24.31
303.18	22.58
303.393	21.83
303.607	20.77
303.82	19.71
304.033	19.96
304.246	19.93
304.459	20.11
304.672	19.42
304.885	18.74
305.098	19.01
305.311	18.81
305.524	17.7
305.737	18.19
305.95	19.58
306.163	19.33
306.376	18.37
306.589	19.16
306.802	19.07
307.015	20.28
307.228	19.14
307.44	18.62
307.653	17.69
307.866	17.06
308.079	17.38
308.292	18.23
308.505	16.26
308.718	16.78
308.93	14.9
309.143	15.61
309.356	14.78
309.569	16.41
309.781	17.14
309.994	16.41
310.207	18.03
310.42	18.58
310.632	18.42
310.845	20.93
311.058	21.41
311.27	22.74
311.483	22.15
311.696	22.42
311.908	21.74
312.121	20.75
312.333	22.08
312.546	22.09
312.759	22.23
312.971	21.87
313.184	20.72
313.396	19.9
313.609	19.56
313.821	19.56
314.034	20.07
314.246	20.86
314.459	22.34
314.671	21.96
314.884	21.18
315.096	20.87
315.309	21.92
315.521	21.75
315.733	21.22
315.946	22.57
316.158	23.2
316.371	21.36
316.583	21.38
316.795	20.3
317.008	19.73
317.22	19.42
317.432	20.36
317.644	18.37
317.857	17.75
318.069	16.95
318.281	17.81
318.494	16.68
318.706	18.84
318.918	17.98
319.13	18.82
319.342	18.42
319.555	21.76
319.767	20.88
319.979	23.73
320.191	25.77
320.403	26.58
320.615	23.49
320.827	24.51
321.039	22.38
321.252	23.49
321.464	22.99
321.676	23.07
321.888	22.02
322.1	21.79
322.312	18.52
322.524	17.21
322.736	17.35
322.948	18.37
323.16	18.6
323.372	18.96
323.584	18.87
323.796	20.14
324.007	20.74
324.219	20.21
324.431	19.69
324.643	21.63
324.855	22.14
325.067	23.09
325.279	24.09
325.491	23.93
325.702	25.19
325.914	24.7
326.126	22.87
326.338	22.12
326.55	22.75
326.761	23.88
326.973	23.51
327.185	23.13
327.396	22.99
327.608	23.08
327.82	24.25
328.032	24.1
328.243	25.46
328.455	28.01
328.666	28.41
328.878	27.86
329.09	29.04
329.301	28.85
329.513	29.55
329.725	28.78
329.936	28.11
330.148	27.02
330.359	27.03
330.571	24.9
330.782	22.45
330.994	22.42
331.205	21.57
331.417	19.43
331.628	18.95
331.84	19.61
332.051	20.31
332.262	20.44
332.474	19.87
332.685	19.24
332.897	20.68
333.108	23.01
333.319	22.15
333.531	23.29
333.742	24.32
333.953	25.16
334.165	24.73
334.376	25.43
334.587	25.61
334.799	26.93
335.01	27.89
335.221	27.67
335.432	26.61
335.644	26.89
335.855	26.8
336.066	25.45
336.277	25.58
336.488	25.87
336.7	25.48
336.911	24.26
337.122	22.74
337.333	22.42
337.544	23.36
337.755	23.1
337.966	24.21
338.177	24.31
338.388	26.06
338.599	25.72
338.811	26.08
339.022	26.7
339.233	28.02
339.444	29.04
339.655	29.66
339.866	29.97
340.076	31.73
340.287	31.32
340.498	31.9
340.709	31
340.92	31.2
341.131	31.26
341.342	30.65
341.553	31.62
341.764	31.51
341.975	30.82
342.185	31.05
342.396	30.52
342.607	31.38
342.818	30.12
343.029	29.94
343.239	30.5
343.45	29.32
343.661	28.89
343.872	28.13
344.082	28.04
344.293	27.87
344.504	28.24
344.714	27.54
344.925	27.62
345.136	28.1
345.346	29.45
345.557	28.34
345.768	28.63
345.978	28.86
346.189	28.32
346.399	27.99
346.61	27.9
346.821	26.64
347.031	26.5
347.242	25.27
347.452	25.45
347.663	25.09
347.873	26.27
348.084	26.98
348.294	27.34
348.504	27.49
348.715	28.27
348.925	28.69
349.136	28.86
349.346	28.82
349.557	29.15
349.767	28.79
349.977	27.69
350.188	27.62
350.398	26.26
350.608	26.64
350.819	26.27
351.029	25.72
351.239	26.31
351.449	27.68
351.66	27.75
351.87	27.92
352.08	28.25
352.29	28.52
352.501	28.32
352.711	29.63
352.921	28.74
353.131	28.93
353.341	30.19
353.552	30.01
353.762	29.47
353.972	30.6
354.182	31.12
354.392	31.06
354.602	31.77
354.812	32.35
355.022	32.24
355.232	32.4
355.442	32.44
355.652	31.26
355.862	32.26
356.072	31.58
356.282	31.22
356.492	31.17
356.702	30.94
356.912	30.62
357.122	30.29
357.332	29.56
357.542	30.7
357.752	31.03
357.962	31.71
358.171	30.9
358.381	31.49
358.591	31.15
358.801	30.48
359.011	30.04
359.221	29.51
359.43	29.8
359.64	30.81
359.85	30.06
360.06	29.99
360.269	29.36
360.479	29.62
360.689	28.87
360.899	28.99
361.108	29.24
361.318	29.82
361.528	29.41
361.737	29.09
361.947	29.12
362.156	29.1
362.366	29.02
362.576	29.08
362.785	28.82
362.995	28.77
363.204	28.29
363.414	28.02
363.623	27.5
363.833	28.17
364.042	27.52
364.252	27.01
364.461	25.73
364.671	25.94
364.88	26.05
365.09	26.32
365.299	25.88
365.509	26
365.718	25.77
365.927	25.8
366.137	25.74
366.346	25.83
366.555	26.56
366.765	27.42
366.974	27.23
367.183	27.29
367.393	26.87
367.602	28.03
367.811	28.1
368.021	28.27
368.23	28.69
368.439	28.72
368.648	28.72
368.857	27.51
369.067	27.81
369.276	27.14
369.485	26.87
369.694	26.57
369.903	26.04
370.112	25.8
370.321	25.95
370.531	26.34
370.74	26.45
370.949	26.36
371.158	26.75
371.367	26.55
371.576	27.33
371.785	27.37
371.994	27.29
372.203	26.96
372.412	27.14
372.621	27.16
372.83	26.62
373.039	26.48
373.248	27.17
373.457	26.88
373.666	26.71
373.874	26.44
374.083	26.4
374.292	26.22
374.501	25.72
374.71	25.04
374.919	24.94
375.128	24.68
375.336	24.09
375.545	23.84
375.754	24.08
375.963	24.43
376.171	24.68
376.38	24.15
376.589	24.19
376.798	24.5
377.006	25.11
377.215	25.27
377.424	25.81
377.632	26.4
377.841	25.82
378.05	25.96
378.258	24.97
378.467	24.55
378.675	24.51
378.884	24.62
379.093	24.95
379.301	25.12
379.51	24.89
379.718	24.74
379.927	24.68
380.135	25.08
380.344	24.93
380.552	24.86
380.761	24.79
380.969	24.4
381.177	24.27
381.386	23.61
381.594	23.24
381.803	23.06
382.011	22.76
382.219	22.4
382.428	22.71
382.636	22.78
382.845	23.41
383.053	23.27
383.261	23.9
383.469	23.92
383.678	24.22
383.886	23.86
384.094	24.43
384.302	24.26
384.511	24.03
384.719	23.61
384.927	23.85
385.135	23.79
385.343	23.73
385.552	24.18
385.76	24.49
385.968	24.33
386.176	24.61
386.384	24.22
386.592	24.56
386.8	24.75
387.008	24.63
387.216	24.42
387.424	24.95
387.633	25.42
387.841	25.09
388.049	25.11
388.257	25.79
388.465	25.71
388.672	25.62
388.88	25.48
389.088	25.2
389.296	25.66
389.504	25.51
389.712	25.37
389.92	25.12
390.128	25.1
390.336	24.79
390.544	24.19
390.751	24.66
390.959	24.33
391.167	24.46
391.375	25.01
391.583	24.84
391.79	25
391.998	24.47
392.206	24.7
392.414	24.86
392.621	24.99
392.829	25.15
393.037	24.89
393.244	25.33
393.452	25.33
393.66	25.17
393.867	25.26
394.075	25.22
394.283	25.54
394.49	25.22
394.698	25.35
394.905	25.35
395.113	25.09
395.32	24.7
395.528	24.47
395.735	24.55
395.943	24.44
396.15	24.22
396.358	23.96
396.565	23.97
396.773	24.3
396.98	24.36
397.188	24.75
397.395	25.35
397.602	25.69
397.81	26.06
398.017	25.83
398.225	25.78
398.432	26.28
398.639	26.44
398.847	26.23
399.054	25.91
399.261	25.75
399.468	25.5
399.676	25.2
399.883	25.56
400.09	25.56
400.297	25.66
400.505	26.17
400.712	26.2
400.919	26.64
401.126	27.08
401.333	27.2
401.54	27.25
401.748	27.19
401.955	26.95
402.162	26.79
402.369	27.08
402.576	26.92
402.783	26.94
402.99	26.51
403.197	26.13
403.404	26.02
403.611	26.34
403.818	26.66
404.025	26.68
404.232	26.81
404.439	26.96
404.646	26.7
404.853	26.56
405.06	26.37
405.267	26.55
405.474	26.73
405.681	26.89
405.887	26.96
406.094	26.71
406.301	26.76
406.508	26.96
406.715	26.79
406.922	26.99
407.128	27.37
407.335	27.55
407.542	27.51
407.749	27.65
407.955	27.69
408.162	27.57
408.369	27.29
408.575	27.29
408.782	27.52
408.989	27.2
409.195	27.06
409.402	27.12
409.609	27.02
409.815	26.95
410.022	26.9
410.228	26.94
410.435	26.92
410.642	27.17
410.848	27.21
411.055	26.93
411.261	27.38
411.468	27.36
411.674	27.22
411.881	27.02
412.087	26.86
412.294	26.92
412.5	26.8
412.706	26.82
412.913	26.75
413.119	27.15
413.326	27.19
413.532	26.91
413.738	27.2
413.945	27.25
414.151	27.3
414.357	27.84
414.564	27.79
414.77	27.93
414.976	27.87
415.182	27.68
415.389	27.37
415.595	27.57
415.801	27.26
416.007	26.97
416.214	27.13
416.42	27.08
416.626	26.86
416.832	26.93
417.038	26.52
417.244	26.48
417.45	26.64
417.657	26.43
417.863	26.42
418.069	26.51
418.275	26.36
418.481	26.04
418.687	26.2
418.893	26.19
419.099	26.09
419.305	26.32
419.511	26.28
419.717	26.16
419.923	26.24
420.129	26.02
420.335	26.1
420.541	26.14
420.746	26.34
420.952	26.3
421.158	26.27
421.364	26.1
421.57	25.9
421.776	26.02
421.982	26.11
422.187	25.97
422.393	25.96
422.599	25.99
422.805	26.01
423.01	25.92
423.216	25.9
423.422	25.91
423.628	26.02
423.833	26.18
424.039	25.95
424.245	25.86
424.45	25.91
424.656	25.86
424.862	25.89
425.067	25.94
425.273	26.07
425.478	26.11
425.684	26.09
425.889	25.88
426.095	25.95
426.301	26.21
426.506	26.36
426.712	26.31
426.917	26.54
427.123	26.5
427.328	26.4
427.533	26.26
427.739	25.9
427.944	25.96
428.15	26.33
428.355	26.2
428.561	26.07
428.766	25.77
428.971	26.07
429.177	26
429.382	26.05
429.587	25.94
429.793	25.79
429.998	26.09
430.203	25.82
430.408	25.92
430.614	25.91
430.819	25.78
431.024	25.97
431.229	25.67
431.434	25.45
431.64	25.4
431.845	25.32
432.05	25.54
432.255	25.57
432.46	25.61
432.665	25.57
432.87	25.72
433.076	25.84
433.281	25.86
433.486	25.97
433.691	26.17
433.896	26.02
434.101	26.18
434.306	25.9
434.511	25.93
434.716	26.18
434.921	26.01
435.126	26.05
435.331	26.01
435.535	25.9
435.74	25.88
435.945	26.09
436.15	26.19
436.355	26.04
436.56	26.38
436.765	26.29
436.97	26.1
437.174	26.02
437.379	25.64
437.584	25.63
437.789	25.66
437.993	25.82
438.198	25.62
438.403	25.81
438.608	26.08
438.812	25.99
439.017	26
439.222	25.95
439.426	26.03
439.631	25.91
439.836	25.81
440.04	25.98
440.245	25.96
440.45	26.01
440.654	25.81
440.859	25.58
441.063	25.61
441.268	25.61
441.472	25.69
441.677	25.63
441.881	25.87
442.086	25.92
442.29	25.68
442.495	25.66
442.699	25.59
442.904	25.65
443.108	25.68
443.312	25.53
443.517	25.5
443.721	25.42
443.925	25.62
444.13	25.6
444.334	25.61
444.538	25.71
444.743	25.56
444.947	25.57
445.151	25.56
445.356	25.62
445.56	25.65
445.764	25.66
445.968	25.56
446.173	25.35
446.377	25.3
446.581	25.33
446.785	25.23
446.989	25.2
447.193	25.12
447.398	25.03
447.602	24.96
447.806	24.96
448.01	24.95
448.214	24.97
448.418	24.99
448.622	24.94
448.826	24.82
449.03	24.87
449.234	25
449.438	24.92
449.642	25.04
449.846	25.11
450.05	25.07
450.254	25.02
450.458	24.93
450.662	24.93
450.866	24.95
451.069	25.06
451.273	25.04
451.477	25.02
451.681	25.23
451.885	25.02
452.089	24.87
452.292	24.71
452.496	24.59
452.7	24.71
452.904	24.77
453.107	24.69
453.311	24.91
453.515	24.78
453.719	24.84
453.922	24.53
454.126	24.67
454.33	24.71
454.533	24.89
454.737	24.88
454.94	24.98
455.144	24.97
455.348	24.94
455.551	24.56
455.755	24.79
455.958	24.68
456.162	24.86
456.365	24.87
456.569	24.72
456.772	24.73
456.976	24.92
457.179	24.9
457.383	24.93
457.586	25.09
457.79	25.17
457.993	25.06
458.196	24.95
458.4	24.98
458.603	25.05
458.807	25.3
459.01	25.37
459.213	25.38
459.417	25.35
459.62	25.35
459.823	25.5
460.026	25.37
460.23	25.33
460.433	25.39
460.636	25.39
460.839	25.44
461.042	25.17
461.246	24.87
461.449	24.92
461.652	24.84
461.855	24.97
462.058	24.8
462.261	25.04
462.464	25.05
462.668	25.05
462.871	25.02
463.074	24.96
463.277	25.22
463.48	25.27
463.683	25.04
463.886	25.05
464.089	24.84
464.292	24.84
464.495	24.8
464.698	24.88
464.901	24.77
465.104	24.98
465.306	24.79
465.509	24.84
465.712	25.04
465.915	25.18
466.118	25.23
466.321	25.25
466.524	25.26
466.726	25.17
466.929	25.06
467.132	24.99
467.335	24.7
467.538	24.75
467.74	24.66
467.943	24.76
468.146	24.63
468.348	24.65
468.551	24.66
468.754	24.51
468.956	24.72
469.159	24.87
469.362	24.94
469.564	25.05
469.767	24.99
469.969	25.12
470.172	25.08
470.375	25.09
470.577	25.25
470.78	25.08
470.982	25.25
471.185	24.87
471.387	24.83
471.59	25.08
471.792	25.18
471.995	25.36
472.197	25.45
472.399	25.62
472.602	25.68
472.804	25.56
473.007	25.67
473.209	25.63
473.411	25.79
473.614	25.74
473.816	25.54
474.018	25.4
474.22	25.42
474.423	25.18
474.625	25.12
474.827	25.19
475.03	25.2
475.232	25.12
475.434	25.11
475.636	24.95
475.838	25.21
476.04	25.1
476.243	25.11
476.445	25.04
476.647	25.19
476.849	25.05
477.051	24.95
477.253	25.02
477.455	25.1
477.657	25
477.859	25.23
478.061	24.94
478.263	25.04
478.465	25.11
478.667	25.15
478.869	24.98
479.071	25.25
479.273	25.25
479.475	25.21
479.677	25.26
479.879	25.33
480.081	25.17
480.283	25.3
480.485	25.32
480.686	25.33
480.888	25.36
481.09	25.45
481.292	25.27
481.494	25.31
481.695	25.23
481.897	25.17
482.099	25.2
482.301	25.25
482.502	25.35
482.704	25.4
482.906	25.42
483.107	25.44
483.309	25.42
483.511	25.36
483.712	25.37
483.914	25.39
484.115	25.38
484.317	25.44
484.519	25.53
484.72	25.44
484.922	25.4
485.123	25.37
485.325	25.28
485.526	25.32
485.728	25.36
485.929	25.32
486.131	25.34
486.332	25.38
486.534	25.26
486.735	25.2
486.936	25.25
487.138	25.3
487.339	25.35
487.541	25.35
487.742	25.33
487.943	25.36
488.144	25.43
488.346	25.46
488.547	25.46
488.748	25.56
488.95	25.52
489.151	25.53
489.352	25.56
489.553	25.59
489.755	25.69
489.956	25.64
490.157	25.59
490.358	25.47
490.559	25.28
490.76	25.18
490.961	25.13
491.163	25.22
491.364	25.17
491.565	25.06
491.766	24.98
491.967	24.89
492.168	24.91
492.369	25.02
492.57	25.03
492.771	25.16
492.972	25.16
493.173	25.16
493.374	25.12
493.575	25.13
493.776	25.11
493.976	25.14
494.177	25.32
494.378	25.4
494.579	25.42
494.78	25.56
494.981	25.58
495.182	25.74
495.382	25.54
495.583	25.5
495.784	25.48
495.985	25.61
496.185	25.63
496.386	25.37
496.587	25.26
496.788	25.23
496.988	25.12
497.189	25.09
497.39	25.11
497.59	25.37
497.791	25.35
497.992	25.43
498.192	25.59
498.393	25.58
498.593	25.82
498.794	25.95
498.994	25.88
499.195	25.9
499.395	26.01
499.596	26.07
499.796	25.89
499.997	26.06
500.197	26.1
500.398	26
500.598	25.82
500.799	25.77
500.999	25.8
501.199	25.66
501.4	25.62
501.6	25.47
501.801	25.43
502.001	25.52
502.201	25.36
502.402	25.21
502.602	25.1
502.802	25.36
503.002	25.32
503.203	25.23
503.403	25.42
503.603	25.48
503.803	25.42
504.003	25.38
504.204	25.23
504.404	25.21
504.604	25.29
504.804	25.34
505.004	25.31
505.204	25.41
505.404	25.58
505.604	25.43
505.804	25.55
506.005	25.64
506.205	25.68
506.405	25.76
506.605	25.75
506.805	25.9
507.005	25.77
507.204	25.71
507.404	25.56
507.604	25.53
507.804	25.69
508.004	25.67
508.204	25.61
508.404	25.5
508.604	25.35
508.804	25.51
509.003	25.43
509.203	25.62
509.403	25.72
509.603	25.7
509.803	25.76
510.002	25.71
510.202	25.74
510.402	25.84
510.602	25.91
510.801	26.15
511.001	25.99
511.201	26.07
511.4	26.08
511.6	25.96
511.8	26.06
511.999	25.98
512.199	26.09
512.398	26.01
512.598	26.1
512.797	26.22
512.997	26.24
513.197	26.44
513.396	26.36
513.596	26.48
513.795	26.57
513.994	26.63
514.194	26.53
514.393	26.57
514.593	26.69
514.792	26.71
514.992	26.86
515.191	26.96
515.39	26.92
515.59	26.81
515.789	26.52
515.988	26.67
516.188	26.6
516.387	26.68
516.586	26.6
516.786	26.65
516.985	26.59
517.184	26.55
517.383	26.63
517.582	26.55
517.782	26.7
517.981	26.9
518.18	26.85
518.379	26.86
518.578	26.95
518.777	27.17
518.976	27.07
519.176	27
519.375	27.05
519.574	26.89
519.773	26.94
519.972	26.91
520.171	26.98
520.37	26.91
520.569	26.97
520.768	26.88
520.967	26.65
521.166	26.71
521.365	26.86
521.564	26.72
521.762	26.77
521.961	26.84
522.16	26.74
522.359	26.67
522.558	26.73
522.757	26.85
522.956	27.16
523.154	27.09
523.353	27.1
523.552	27.13
523.751	27.2
523.949	27.3
524.148	27.31
524.347	27.58
524.546	27.64
524.744	27.72
524.943	27.58
525.142	27.61
525.34	27.77
525.539	27.76
525.737	27.75
525.936	27.66
526.135	27.71
526.333	27.61
526.532	27.61
526.73	27.55
526.929	27.56
527.127	27.63
527.326	27.49
527.524	27.5
527.723	27.52
527.921	27.47
528.12	27.52
528.318	27.47
528.516	27.59
528.715	27.54
528.913	27.52
529.112	27.52
529.31	27.54
529.508	27.61
529.707	27.6
529.905	27.61
530.103	27.67
530.301	27.76
530.5	27.77
530.698	27.77
530.896	27.81
531.094	27.8
531.293	27.78
531.491	27.77
531.689	27.75
531.887	27.7
532.085	27.74
532.283	27.73
532.481	27.74
532.68	27.71
532.878	27.72
533.076	27.68
533.274	27.82
533.472	27.84
533.67	27.96
533.868	27.93
534.066	27.94
534.264	27.92
534.462	27.9
534.66	27.85
534.858	27.97
535.056	27.93
535.253	28.03
535.451	28.04
535.649	28.12
535.847	28.01
536.045	28.03
536.243	28.06
536.441	28.08
536.638	28.07
536.836	27.92
537.034	27.88
537.232	27.94
537.43	27.98
537.627	27.96
537.825	27.83
538.023	27.92
538.22	27.87
538.418	27.97
538.616	28.1
538.813	28.2
539.011	28.44
539.209	28.32
539.406	28.3
539.604	28.26
539.801	28.21
539.999	28.38
540.196	28.2
540.394	28.39
540.591	28.35
540.789	28.14
540.986	28.16
541.184	28.14
541.381	28.26
541.579	28.29
541.776	28.21
541.974	28.26
542.171	28.28
542.368	28.33
542.566	28.17
542.763	28.21
542.96	28.31
543.158	28.41
543.355	28.45
543.552	28.37
543.75	28.46
543.947	28.5
544.144	28.45
544.341	28.3
544.539	28.2
544.736	28.31
544.933	28.34
545.13	28.3
545.327	28.26
545.524	28.13
545.722	28.3
545.919	28.12
546.116	28.18
546.313	28.28
546.51	28.43
546.707	28.56
546.904	28.63
547.101	28.45
547.298	28.55
547.495	28.55
547.692	28.65
547.889	28.52
548.086	28.78
548.283	28.8
548.48	28.8
548.677	28.75
548.874	28.73
549.07	28.7
549.267	28.92
549.464	28.97
549.661	28.86
549.858	28.83
550.055	28.97
550.251	28.79
550.448	28.83
550.645	28.92
550.842	28.88
551.038	28.86
551.235	28.82
551.432	28.57
551.628	28.34
551.825	28.5
552.022	28.46
552.218	28.28
552.415	28.21
552.612	28.31
552.808	28.1
553.005	28.33
553.201	28.42
553.398	28.34
553.594	28.5
553.791	28.67
553.987	28.44
554.184	28.4
554.38	28.68
554.577	28.73
554.773	28.71
554.97	28.81
555.166	28.52
555.362	28.55
555.559	28.38
555.755	28.37
555.952	28.29
556.148	28.44
556.344	28.45
556.541	28.27
556.737	28.34
556.933	28.34
557.129	28.52
557.326	28.88
557.522	28.88
557.718	29.23
557.914	29.27
558.11	29.4
558.307	29.6
558.503	29.48
558.699	29.58
558.895	29.6
559.091	29.6
559.287	29.45
559.483	29.15
559.679	29.06
559.876	29.11
560.072	29.05
560.268	29.07
560.464	28.96
560.66	29.37
560.856	29.3
561.052	29.27
561.247	29.2
561.443	29.11
561.639	29.15
561.835	29.39
562.031	29.49
562.227	29.48
562.423	29.58
562.619	29.44
562.815	29.44
563.01	29.55
563.206	29.62
563.402	29.57
563.598	29.83
563.793	29.95
563.989	30.07
564.185	29.78
564.381	29.9
564.576	29.83
564.772	29.87
564.968	29.71
565.163	29.64
565.359	29.67
565.555	29.63
565.75	29.35
565.946	29.28
566.141	29.13
566.337	29.09
566.532	28.88
566.728	28.7
566.923	28.7
567.119	28.57
567.314	28.64
567.51	28.71
567.705	28.85
567.901	28.85
568.096	28.78
568.292	28.64
568.487	28.88
568.682	29.09
568.878	29.24
569.073	29.5
569.268	29.83
569.464	29.82
569.659	29.7
569.854	29.6
570.05	29.68
570.245	29.74
570.44	29.66
570.635	29.62
570.831	29.64
571.026	29.48
571.221	29.33
571.416	29.31
571.611	29.19
571.806	29.06
572.002	29.16
572.197	29.46
572.392	29.6
572.587	29.84
572.782	29.96
572.977	29.84
573.172	30.12
573.367	30.04
573.562	30.01
573.757	29.93
573.952	30.09
574.147	30.08
574.342	29.74
574.537	29.63
574.732	29.49
574.927	29.22
575.121	29.4
575.316	29.34
575.511	29.39
575.706	29.42
575.901	29.41
576.096	29.14
576.29	29.25
576.485	29.31
576.68	29.39
576.875	29.47
577.069	29.66
577.264	29.73
577.459	29.47
577.654	29.7
577.848	29.58
578.043	29.79
578.238	30
578.432	29.84
578.627	29.86
578.821	30.02
579.016	29.99
579.21	30.07
579.405	30
579.6	30.19
579.794	30.1
579.989	30.29
580.183	30.19
580.378	30.22
580.572	30.23
580.766	29.98
580.961	29.75
581.155	29.5
581.35	29.23
581.544	29.27
581.738	29.33
581.933	29.23
582.127	29.04
582.321	29.21
582.516	29.24
582.71	29.38
582.904	29.51
583.099	29.37
583.293	29.59
583.487	29.74
583.681	29.37
583.875	29.26
584.07	29.36
584.264	29.38
584.458	29.11
584.652	29.34
584.846	29.07
585.04	29.19
585.234	29.23
585.428	29.2
585.623	29.24
585.817	29.25
586.011	29.37
586.205	29.28
586.399	29.37
586.593	29.71
586.787	29.35
586.981	29.4
587.174	29.44
587.368	29.35
587.562	29.66
587.756	29.73
587.95	29.94
588.144	29.91
588.338	30.05
588.532	29.86
588.725	29.47
588.919	29.57
589.113	29.77
589.307	29.64
589.501	29.98
589.694	29.97
589.888	30.07
590.082	30.23
590.275	30.36
590.469	30.22
590.663	30.49
590.856	30.79
591.05	30.85
591.244	30.97
591.437	31.24
591.631	31.27
591.824	30.98
592.018	30.76
592.212	30.7
592.405	30.61
592.599	30.81
592.792	30.77
592.986	30.8
593.179	31.02
593.372	30.77
593.566	30.52
593.759	30.57
593.953	31.03
594.146	31.09
594.339	30.98
594.533	30.78
594.726	30.35
594.92	30.15
595.113	29.99
595.306	29.88
595.499	30.05
595.693	30.17
595.886	30.05
596.079	29.8
596.272	29.89
596.466	29.98
596.659	30.2
596.852	30.48
597.045	30.45
597.238	30.41
597.431	30.32
597.624	30.08
597.818	30.14
598.011	30
598.204	29.94
598.397	29.8
598.59	29.69
598.783	29.6
598.976	29.64
599.169	29.67
599.362	29.72
599.555	29.56
599.748	29.8
599.941	29.77
600.134	30.08
600.326	30.17
600.519	30.4
600.712	30.76
600.905	30.84
601.098	30.41
601.291	30.52
601.483	30.63
601.676	30.82
601.869	30.93
602.062	30.85
602.255	30.78
602.447	30.66
602.64	30.42
602.833	30.2
603.025	30.39
603.218	30.74
603.411	30.64
603.603	30.53
603.796	30.67
603.989	30.64
604.181	30.82
604.374	30.98
604.566	31.08
604.759	31.17
604.951	31.03
605.144	30.96
605.336	30.77
605.529	30.7
605.721	30.91
605.914	30.68
606.106	30.4
606.299	30.22
606.491	30.01
606.683	29.75
606.876	29.74
607.068	29.85
607.26	29.74
607.453	29.7
607.645	29.98
607.837	29.84
608.03	29.98
608.222	30.23
608.414	30.16
608.606	30.1
608.799	30.19
608.991	30.18
609.183	30.15
609.375	30.08
609.567	29.95
609.759	29.66
609.952	29.74
610.144	29.48
610.336	29.36
610.528	29.5
610.72	29.38
610.912	29.28
611.104	29.27
611.296	29.38
611.488	29.57
611.68	29.83
611.872	29.97
612.064	29.72
612.256	29.85
612.448	29.97
612.64	29.8
612.832	30.02
613.023	30.02
613.215	29.99
613.407	29.77
613.599	29.49
613.791	29.36
613.983	29.28
614.174	29.36
614.366	29.63
614.558	29.4
614.75	29.49
614.941	29.55
615.133	29.92
615.325	30.09
615.516	30.26
615.708	30.05
615.9	30.4
616.091	30.45
616.283	30.25
616.475	29.99
616.666	30.29
616.858	30.23
617.049	30.06
617.241	30.03
617.432	29.81
617.624	29.73
617.815	29.78
618.007	29.42
618.198	29.56
618.39	29.87
618.581	30.01
618.773	30.03
618.964	30.21
619.155	29.97
619.347	29.84
619.538	29.86
619.729	29.75
619.921	29.84
620.112	30.03
620.303	30.19
620.494	30.22
620.686	30.63
620.877	30.53
621.068	30.38
621.259	30.74
621.451	30.67
621.642	30.83
621.833	31.22
622.024	31.46
622.215	31.61
622.406	31.48
622.597	31.41
622.788	31.04
622.98	30.96
623.171	31.3
623.362	31.29
623.553	31.4
623.744	31.14
623.935	30.98
624.126	30.53
624.317	30.26
624.508	30.06
624.698	30.16
624.889	30.09
625.08	29.83
625.271	29.76
625.462	29.36
625.653	29.31
625.844	29.77
626.034	30.05
626.225	30.32
626.416	30.32
626.607	30.6
626.798	30.39
626.988	30.56
627.179	30.99
627.37	30.68
627.56	31.07
627.751	31.21
627.942	30.84
628.132	30.57
628.323	30.25
628.514	30.27
628.704	30.09
628.895	30.18
629.085	30.13
629.276	29.69
629.466	29.73
629.657	29.25
629.847	28.96
630.038	29.02
630.228	28.78
630.419	29.19
630.609	29.21
630.8	29.14
630.99	29.04
631.181	28.86
631.371	29.24
631.561	29.58
631.752	29.63
631.942	29.61
632.132	29.75
632.323	29.66
632.513	29.81
632.703	29.72
632.893	29.57
633.084	29.59
633.274	29.46
633.464	29.35
633.654	29.09
633.844	29.04
634.034	29.32
634.225	29.15
634.415	29.36
634.605	29.34
634.795	29.39
634.985	29.37
635.175	29.49
635.365	29.82
635.555	29.9
635.745	29.95
635.935	30.2
636.125	30.18
636.315	30.46
636.505	30.64
636.695	30.31
636.885	30.69
637.075	31.07
637.265	30.91
637.455	30.88
637.644	30.63
637.834	30.44
638.024	30.18
638.214	30.02
638.404	29.6
638.593	29.25
638.783	29.36
638.973	29.03
639.163	29
639.352	29.35
639.542	28.96
639.732	28.98
639.921	29.47
640.111	30.17
640.301	30.39
640.49	30.43
640.68	30.67
640.87	30.8
641.059	30.79
641.249	30.5
641.438	29.98
641.628	30.47
641.817	30.66
642.007	30.32
642.196	29.87
642.386	29.75
642.575	29.68
642.764	29.47
642.954	29.49
643.143	29.71
643.333	29.91
643.522	29.76
643.711	29.29
643.901	29.23
644.09	29.07
644.279	28.67
644.469	28.34
644.658	28.29
644.847	28.56
645.036	28.11
645.226	27.84
645.415	27.83
645.604	28.71
645.793	28.91
645.982	28.6
646.171	28.88
646.361	29.51
646.55	29.84
646.739	30.27
646.928	29.73
647.117	30.23
647.306	30.14
647.495	29.86
647.684	29.73
647.873	29.89
648.062	30.29
648.251	30.07
648.44	30.26
648.629	30.08
648.818	29.62
649.007	30.19
649.196	29.75
649.384	29.67
649.573	29.91
649.762	29.54
649.951	29.5
650.14	29.57
650.328	29.88
650.517	29.3
650.706	29.37
650.895	29.84
651.083	29.4
651.272	29.71
651.461	29.78
651.65	30.01
651.838	30.19
652.027	30.38
652.216	30.04
652.404	29.63
652.593	29.87
652.781	29.7
652.97	29.46
653.158	29.27
653.347	28.63
653.535	29.06
653.724	28.54
653.912	28.18
654.101	27.46
654.289	27.44
654.478	27.64
654.666	27.9
654.855	27.75
655.043	27.8
655.231	28.22
655.42	28.88
655.608	28.26
655.796	28.7
655.985	28.7
656.173	29.35
656.361	29.26
656.55	29.66
656.738	29.3
656.926	30.07
657.114	30.02
657.302	30.35
657.491	30.09
657.679	30.32
657.867	30.4
658.055	30.8
658.243	30.67
658.431	31.05
658.619	30.74
658.807	30.85
658.996	30.41
659.184	30.41
659.372	30.23
659.56	30.7
659.748	30.68
659.936	30.36
660.124	29.94
660.311	29.99
660.499	30.11
660.687	30.36
660.875	30.12
661.063	30.63
661.251	30.77
661.439	30.98
661.627	30.59
661.814	30.6
662.002	30.84
662.19	31.32
662.378	31.32
662.565	31.13
662.753	31.09
662.941	31.01
663.129	30.58
663.316	30.97
663.504	30.69
663.692	30.72
663.879	31.27
664.067	31.5
664.254	31.46
664.442	31.46
664.63	31.01
664.817	30.81
665.005	30.93
665.192	30.63
665.38	29.85
665.567	29.72
665.755	29.78
665.942	29.69
666.13	29.26
666.317	28.83
666.504	28.58
666.692	28.77
666.879	28.91
667.067	29.39
667.254	29.36
667.441	29.54
667.629	29.54
667.816	29.71
668.003	29.35
668.19	29.63
668.378	29.75
668.565	29.56
668.752	29.84
668.939	29.59
669.127	29.02
669.314	28.88
669.501	28.87
669.688	28.9
669.875	29.27
670.062	29.53
670.249	29.07
670.436	29.28
670.623	29.72
670.81	29.78
670.997	29.83
671.184	30.31
671.371	30.87
671.558	31.31
671.745	31.44
671.932	30.48
672.119	29.72
672.306	30
672.493	30.18
672.68	29.91
672.867	30.07
673.054	30
673.24	29.55
673.427	29.47
673.614	28.72
673.801	28.83
673.988	29.2
674.174	30.21
674.361	30.13
674.548	30.38
674.734	30.68
674.921	30.8
675.108	31.21
675.294	31.09
675.481	31.07
675.668	31.64
675.854	31.47
676.041	31.25
676.227	30.78
676.414	30.94
676.601	30.37
676.787	29.45
676.974	28.69
677.16	28.94
677.347	29.41
677.533	29.39
677.719	28.67
677.906	28.89
678.092	28.52
678.279	28.6
678.465	28.66
678.651	29
678.838	29.64
679.024	29.89
679.21	29.62
679.397	29.53
679.583	30.1
679.769	30.8
679.955	30.66
680.142	31.38
680.328	31.53
680.514	31.59
680.7	31.52
680.886	31.56
681.073	31.45
681.259	31.33
681.445	31.15
681.631	30.16
681.817	29.56
682.003	29.58
682.189	28.85
682.375	28.48
682.561	28.38
682.747	28.11
682.933	28.28
683.119	28.39
683.305	28.4
683.491	29.01
683.677	29.08
683.863	29.94
684.049	29.82
684.235	30.4
684.42	30.68
684.606	30.52
684.792	30.42
684.978	30.37
685.164	30.46
685.349	30.66
685.535	29.97
685.721	30.5
685.907	30.4
686.092	30.25
686.278	30.56
686.464	30.45
686.649	30.36
686.835	30.44
687.021	30.08
687.206	29.85
687.392	29.4
687.577	29.13
687.763	29.62
687.948	29.5
688.134	30.05
688.319	29.12
688.505	28.57
688.69	28.5
688.876	28.41
689.061	28.41
689.247	28.31
689.432	28.25
689.618	28.89
689.803	28.39
689.988	28.41
690.174	27.8
690.359	28.28
690.544	28.71
690.73	29.17
690.915	29.28
691.1	29.25
691.285	29.07
691.471	29.23
691.656	29.45
691.841	29.33
692.026	29.07
692.211	29.2
692.396	29.19
692.582	29.68
692.767	29.18
692.952	29.58
693.137	29.92
693.322	30.66
693.507	30.91
693.692	30.23
693.877	29.83
694.062	29.43
694.247	30.04
694.432	30.57
694.617	29.98
694.802	30.57
694.987	30.58
695.172	31.32
695.357	30.99
695.541	30.7
695.726	31.2
695.911	31.32
696.096	31.91
696.281	31.58
696.466	31.28
696.65	31.42
696.835	31.02
697.02	31.1
697.204	29.97
697.389	30.26
697.574	30.13
697.759	29.97
697.943	30
698.128	29.94
698.312	29.92
698.497	29.62
698.682	29.78
698.866	29.96
699.051	29.55
699.235	29.53
699.42	29.6
699.604	29.93
699.789	29.87
699.973	29.98
700.158	29.89
700.342	29.83
700.527	29.87
700.711	29.64
700.895	28.83
701.08	29.16
701.264	29.35
701.448	29.26
701.633	29.23
701.817	29.48
702.001	29.48
702.186	29.39
702.37	29.19
702.554	29.41
702.738	29.24
702.923	29.73
703.107	29.79
703.291	30.07
703.475	29.11
703.659	28.42
703.843	28.5
704.027	28.1
704.212	28.09
704.396	27.98
704.58	28.74
704.764	29.28
704.948	29.61
705.132	28.52
705.316	28.96
705.5	29.45
705.684	30.28
705.868	29.91
706.052	30.21
706.235	31.36
706.419	31.97
706.603	31.33
706.787	30.61
706.971	30.92
707.155	31.22
707.339	31.31
707.522	32.06
707.706	32.12
707.89	32.04
708.074	31.67
708.257	30.95
708.441	30.43
708.625	29.92
708.808	30.24
708.992	30.15
709.176	30.66
709.359	30.32
709.543	29.72
709.727	29.49
709.91	29.23
710.094	30.08
710.277	30.09
710.461	30.39
710.644	30.7
710.828	30.41
711.011	30.64
711.195	30.69
711.378	31.06
711.562	30.95
711.745	30.91
711.928	31.29
712.112	31.35
712.295	31.11
712.478	30.84
712.662	30.75
712.845	31
713.028	30.94
713.212	31.02
713.395	30.54
713.578	30.39
713.761	29.76
713.945	30.44
714.128	30.24
714.311	30.47
714.494	31.12
714.677	31.5
714.86	31.85
715.043	31.46
715.227	31.33
715.41	30.67
715.593	30.94
715.776	31.77
715.959	31.36
716.142	31.54
716.325	31.18
716.508	30.98
716.691	30.35
716.874	30.49
717.057	30.62
717.239	30.88
717.422	31.4
717.605	30.83
717.788	30.32
717.971	29.29
718.154	29.38
718.337	29.85
718.519	29.48
718.702	29.92
718.885	29.2
719.068	29.34
719.25	29.41
719.433	29.2
719.616	29.45
719.798	30.43
719.981	30.78
720.164	30.76
720.346	29.86
720.529	28.99
720.712	29.37
720.894	29.66
721.077	29.24
721.259	27.93
721.442	28.34
721.624	28.6
721.807	27.99
721.989	28.86
722.172	27.18
722.354	27.83
722.537	29.01
722.719	28.71
722.901	29.38
723.084	29.21
723.266	30.01
723.448	29.49
723.631	29.76
723.813	29.67
723.995	30.11
724.178	31.36
724.36	31.97
724.542	31.91
724.724	31.91
724.907	30.73
725.089	30.76
725.271	30.94
725.453	31.41
725.635	31.33
725.817	30.89
725.999	29.16
726.181	28.04
726.364	26.89
726.546	27.19
726.728	26.83
726.91	26.89
727.092	27.71
727.274	27.84
727.456	27.31
727.638	27.06
727.819	27.43
728.001	28.95
728.183	30.13
728.365	30.34
728.547	29.62
728.729	30.18
728.911	30.01
729.093	29.5
729.274	29.96
729.456	29.59
729.638	30.44
729.82	30.58
730.001	29.31
730.183	28.72
730.365	28.85
730.546	29.64
730.728	29.21
730.91	29.27
731.091	29.76
731.273	29.33
731.455	29.09
731.636	27.9
731.818	27.74
731.999	28.42
732.181	29.26
732.362	28.28
732.544	28.49
732.725	28.18
732.907	29.04
733.088	28.6
733.27	28.3
733.451	30.03
733.633	30.67
733.814	30.97
733.995	31.9
734.177	31.07
734.358	32.15
734.539	32.3
734.721	33.78
734.902	33.24
735.083	33.15
735.264	33.12
735.446	32.94
735.627	33.85
735.808	33.67
735.989	32.21
736.17	32.13
736.351	32.1
736.533	30.65
736.714	30.12
736.895	30.16
737.076	30.27
737.257	29.94
737.438	28.01
737.619	26.64
737.8	27.09
737.981	27.16
738.162	27.5
738.343	26.39
738.524	26.73
738.705	27.42
738.886	27.33
739.067	27.5
739.247	27.82
739.428	29.27
739.609	28.7
739.79	28.36
739.971	29.42
740.151	29.03
740.332	29.5
740.513	29.84
740.694	28.42
740.874	29.6
741.055	28.81
741.236	28.91
741.417	29.16
741.597	30.24
741.778	30.45
741.958	30.61
742.139	31.44
742.32	33.26
742.5	34.13
742.681	34.4
742.861	33.53
743.042	34.02
743.222	34.63
743.403	34.59
743.583	34.49
743.764	33.87
743.944	33.42
744.124	34.24
744.305	34.54
744.485	34.72
744.666	35.68
744.846	35.31
745.026	35.73
745.207	33.74
745.387	31.7
745.567	32.74
745.747	32.96
745.928	32.36
746.108	31.99
746.288	31.11
746.468	28.82
746.648	27.81
746.829	27.8
747.009	27.9
747.189	30.52
747.369	32.9
747.549	30.85
747.729	31.03
747.909	31.11
748.089	31.55
748.269	30
748.449	32.26
748.629	30.87
748.809	30.81
748.989	29.97
749.169	29.94
749.349	28.21
749.529	29.45
749.709	28.71
749.889	28.76
750.068	27.06
750.248	27.49
750.428	26.3
750.608	27.18
750.788	26.89
750.967	27.7
751.147	27.68
751.327	29.94
751.507	29.64
751.686	30.94
751.866	31.74
752.046	31.97
752.225	32.6
752.405	33.95
752.585	35.24
752.764	35.35
752.944	35.7
753.123	35
753.303	33.58
753.482	32.2
753.662	31.65
753.841	32.64
754.021	32.06
754.2	32.53
754.38	31.7
754.559	30.79
754.739	30.72
754.918	29.23
755.097	29.07
755.277	30.09
755.456	30.49
755.635	29.82
755.815	27.76
755.994	27.91
756.173	27.94
756.352	27.96
756.532	26.97
756.711	27.18
756.89	28.23
757.069	28.19
757.248	27.72
757.427	30.35
757.607	29.84
757.786	29.14
757.965	31.08
758.144	29.79
758.323	29.43
758.502	29.75
758.681	31.06
758.86	31.53
759.039	31.15
759.218	30.23
759.397	28.66
759.576	29.36
759.755	30.33
759.934	28.84
760.113	29
760.291	28.58
760.47	28.74
760.649	27.61
760.828	27
761.007	26.66
761.186	27.01
761.364	26.65
761.543	26.48
761.722	26.38
761.901	25.82
762.079	26.35
762.258	27.36
762.437	28.05
762.615	28.99
762.794	27.11
762.972	28.49
763.151	30.1
763.33	30.09
763.508	31.24
763.687	31.25
763.865	31.59
764.044	31.31
764.222	30.73
764.401	30.42
764.579	30.07
764.758	31.91
764.936	32.04
765.114	30.77
765.293	30.74
765.471	30.09
765.65	29.79
765.828	29.45
766.006	29.75
766.184	30.31
766.363	31.1
766.541	30.16
766.719	29.89
766.898	30.38
767.076	30.69
767.254	30.11
767.432	29.13
767.61	29.57
767.788	30.36
767.967	30.9
768.145	30.19
768.323	29.3
768.501	31.57
768.679	31.22
768.857	29.54
769.035	29.12
769.213	31.26
769.391	33.47
769.569	32.42
769.747	32.93
769.925	32.75
770.103	33.36
770.281	31.96
770.459	30.3
770.636	30.05
770.814	30.99
770.992	32.84
771.17	34.41
771.348	33.14
771.525	34.13
771.703	34
771.881	33.77
772.059	32.36
772.236	34.97
772.414	36.6
772.592	38.1
772.769	36.66
772.947	35.29
773.125	32.28
773.302	32.63
773.48	34.22
773.657	32.44
773.835	30.97
774.013	30.96
774.19	30.15
774.368	29.75
774.545	29.83
774.723	29.6
774.9	28.91
775.077	28.78
775.255	27.4
775.432	25.86
775.61	26.81
775.787	27.75
775.964	28.37
776.142	27.47
776.319	26.56
776.496	26.01
776.674	27.07
776.851	26.23
777.028	28.26
777.205	30.06
777.382	29.81
777.56	31.78
777.737	32.06
777.914	34.81
778.091	36.82
778.268	38.42
778.445	39.93
778.622	39.56
778.8	40.97
778.977	39.48
779.154	38.15
779.331	38.67
779.508	37.2
779.685	38.81
779.862	37.98
780.038	37.91
780.215	36.59
780.392	34.61
780.569	35.49
780.746	35.62
780.923	36.01
781.1	37.44
781.277	37.06
781.453	36.07
781.63	33.16
781.807	32.95
781.984	30.58
782.16	30.68
782.337	30.34
782.514	27.12
782.691	27.18
782.867	27.88
783.044	27.19
783.221	27.43
783.397	30.02
783.574	33.25
783.75	32.66
783.927	33.16
784.103	32.39
784.28	31.03
784.456	34.41
784.633	33.24
784.809	32.4
784.986	32.84
785.162	34
785.339	31.02
785.515	29.79
785.692	29.56
785.868	30.69
786.044	33.26
786.221	34.1
786.397	31.61
786.573	31.2
786.749	30.06
786.926	30.56
787.102	29.62
787.278	29.99
787.454	29.21
787.631	28.65
787.807	27.64
787.983	25.5
788.159	27.04
788.335	28.18
788.511	29.17
788.687	32.27
788.863	32
789.039	31.31
789.216	33.89
789.392	34.76
789.568	36.07
789.744	36.76
789.919	36.62
790.095	37.08
790.271	40.2
790.447	40.95
790.623	38.69
790.799	37.09
790.975	37.62
791.151	35.18
791.327	32.97
791.502	31.29
791.678	33.28
791.854	33.56
792.03	34.03
792.205	32.06
792.381	31.91
792.557	35.13
792.733	37.43
792.908	38.98
793.084	39.18
793.259	42.29
793.435	42.51
793.611	41.17
793.786	43.15
793.962	41.06
794.137	40.56
794.313	43.83
794.488	44.76
794.664	44.98
794.839	41.81
795.015	42.98
795.19	42.28
795.366	43.7
795.541	41.33
795.716	36.89
795.892	36.76
796.067	37.75
796.242	36.59
796.418	33.95
796.593	33.86
796.768	35.12
796.944	32.92
797.119	34.98
797.294	33.53
797.469	35.09
797.644	37.52
797.82	39.41
797.995	36.69
798.17	34.44
798.345	33.41
798.52	34.75
798.695	35.7
798.87	37.59
799.045	34.31
799.22	34.32
799.395	32.98
799.57	30.24
799.745	28.76
799.92	29.37
800.095	27.06
800.27	25.49
800.445	25.09
800.62	24.73
800.795	25.63
800.97	27.31
801.145	26.84
801.319	26.71
801.494	28.35
801.669	28.85
801.844	27.47
802.018	33.58
802.193	34.89
802.368	33.61
802.543	31.98
802.717	28.45
802.892	29.57
803.067	28.29
803.241	31.15
803.416	29.36
803.59	28.9
803.765	32.25
803.94	28.39
804.114	29.82
804.289	25.61
804.463	29.11
804.638	28.83
804.812	28.44
804.986	31.84
805.161	30.77
805.335	31.86
805.51	33.95
805.684	33.43
805.858	30.83
806.033	32.19
806.207	35.84
806.381	33.29
806.556	35.46
806.73	34.1
806.904	32.76
807.078	33.4
807.253	35.86
807.427	35.84
807.601	38.99
807.775	41.71
807.949	40.76
808.123	40.25
808.298	43.01
808.472	40.24
808.646	43.48
808.82	42.5
808.994	41.76
809.168	42.17
809.342	43.84
809.516	42.1
809.69	44.11
809.864	42.58
810.038	41.74
810.212	43.46
810.385	48.47
810.559	46.9
810.733	49.03
810.907	46.48
811.081	44.89
811.255	44.85
811.428	42.87
811.602	39.6
811.776	39.02
811.95	42.02
812.123	36.48
812.297	29.7
812.471	29.58
812.644	28.08
812.818	30.36
812.992	29.01
813.165	27.34
813.339	30.85
813.512	35.03
813.686	33.22
813.86	32.67
814.033	37.27
814.207	43.19
814.38	40.72
814.554	40.4
814.727	41.1
814.9	46.88
815.074	43.98
815.247	37.48
815.421	37.76
815.594	33.88
815.767	28.48
815.941	24.52
816.114	22.61
816.287	24.32
816.46	25.51
816.634	23.29
816.807	16.97
816.98	15.34
817.153	15.48
817.327	11
817.5	12.63
817.673	16.44
817.846	18.97
818.019	21.72
818.192	23.66
818.365	20.59
818.538	25.67
818.711	25.4
818.884	30.02
819.057	34.46
819.23	39.47
819.403	38.29
819.576	38.33
819.749	35.68
819.922	33.5
820.095	31.6
820.268	32.66
820.441	31.12
820.614	31.32
820.786	29.62
820.959	28.76
821.132	29.27
821.305	31.29
821.477	29.71
821.65	31.42
821.823	32.1
821.996	31.65
822.168	31.98
822.341	31.36
822.514	31.71
822.686	32.12
822.859	32.58
823.031	32.01
823.204	31.44
823.376	31.92
823.549	31.97
823.722	31.77
823.894	32.32
824.067	32.65
824.239	32.07
824.411	31.41
824.584	30.14
824.756	29.14
824.929	28.01
825.101	27.87
825.273	28.46
825.446	27.51
825.618	26.48
825.79	26.31
825.963	26.65
826.135	27.09
826.307	28.77
826.479	29.2
826.652	30.3
826.824	31.74
826.996	33.33
827.168	33.39
827.34	32.02
827.512	33.27
827.684	34.35
827.856	34.67
828.029	34.33
828.201	33.5
828.373	33.94
828.545	33.86
828.717	32.49
828.889	32.5
829.061	31.97
829.232	33.25
829.404	34.08
829.576	33.33
829.748	32.59
829.92	34.41
830.092	33.27
830.264	34.58
830.436	31.99
830.607	33.77
830.779	34.64
830.951	36.1
831.123	37.34
831.294	33.43
831.466	32.82
831.638	33.54
831.809	33.14
831.981	36.47
832.153	34.93
832.324	37.79
832.496	34.63
832.667	33.18
832.839	33.61
833.011	32.71
833.182	34.39
833.354	36.7
833.525	36.36
833.697	38.1
833.868	37.27
834.039	39.48
834.211	36.48
834.382	38.61
834.554	39.83
834.725	38.2
834.896	38.59
835.068	39.25
835.239	37.95
835.41	36.57
835.581	33.78
835.753	32.97
835.924	30.91
836.095	34.08
836.266	34.25
836.438	32.53
836.609	34.33
836.78	33.95
836.951	36.51
837.122	33.65
837.293	32.22
837.464	36.1
837.635	36.41
837.806	35
837.977	33.05
838.148	36.6
838.319	40.52
838.49	40.24
838.661	42.74
838.832	39.36
839.003	46.4
839.174	54.25
839.345	51.84
839.516	53.53
839.687	56.03
839.857	56.81
840.028	56.33
840.199	52.31
840.37	53.93
840.54	55.16
840.711	56.18
840.882	50.66
841.053	45.36
841.223	44.21
841.394	42.7
841.564	42.6
841.735	46.31
841.906	47.12
842.076	46.88
842.247	46.23
842.417	42.65
842.588	42.32
842.758	45.81
842.929	51.83
843.099	54.59
843.27	59.25
843.44	62.47
843.611	50.29
843.781	41.02
843.951	44.71
844.122	35.91
844.292	40.46
844.462	39.78
844.633	40.47
844.803	27.64
844.973	37.73
845.144	24.86
845.314	42.57
845.484	42.98
845.654	54.95
845.824	53.91
845.995	61.3
846.165	62.75
846.335	57.25
846.505	59.32
846.675	54.68
846.845	48.37
847.015	58.79
847.185	46.75
847.355	65.8
847.525	52.1
847.695	65.61
847.865	63.36
848.035	62.66
848.205	89.81
848.375	96.06
848.545	121.55
848.715	153.18
848.884	148.08
849.054	112.52
849.224	91.99
849.394	108.47
849.564	70.79
849.733	67.22
849.903	62.8
850.073	52.04
850.243	30.91
850.412	31.74
850.582	25.62
850.752	39.19
850.921	48.45
851.091	60.39
851.26	58.96
851.43	70.06
851.599	78.79
851.769	72.58
851.939	74.94
852.108	83.23
852.278	77.94
852.447	78.03
852.616	64.07
852.786	71.16
852.955	62.8
853.125	63.02
853.294	68.93
853.463	66.13
853.633	72.01
853.802	62.25
853.971	65.53
854.141	64.21
854.31	71.34
854.479	68.34
854.648	59.99
854.818	71.52
854.987	66.72
855.156	66.6
855.325	66.71
855.494	59.85
855.663	90.69
855.832	82.26
856.001	78.84
856.171	70.13
856.34	60.52
856.509	59.43
856.678	58.37
856.847	57.27
857.016	50.23
857.185	45.25
857.353	55.74
857.522	43.07
857.691	33.6
857.86	31.84
858.029	24.84
858.198	41.54
858.367	45.25
858.535	39.39
858.704	41.93
858.873	39.07
859.042	49.03
859.21	41.24
859.379	44.03
859.548	45
859.717	44.95
859.885	49.62
860.054	48.57
860.222	48.52
860.391	44.27
860.56	39.68
860.728	43.02
860.897	42.03
861.065	41.94
861.234	44.05
861.402	45.89
861.571	62.29
861.739	53.39
861.908	56.02
862.076	52.26
862.244	43.96
862.413	64.94
862.581	92.03
862.749	93.09
862.918	107.52
863.086	85.92
863.254	79.3
863.423	64.7
863.591	64.86
863.759	63.73
863.927	63.31
864.096	66.39
864.264	51.98
864.432	22.7
864.6	2.62
864.768	12.16
864.936	-1.69
865.104	-4.32
865.272	-17.63
865.44	2.1
865.608	7.06
865.776	7.02
865.944	14.36
866.112	12.91
866.28	16.15
866.448	18.31
866.616	14.25
866.784	19
866.952	30.26
867.12	59.71
867.288	55.61
867.455	39.66
867.623	42.36
867.791	66.83
867.959	56.34
868.127	57.83
868.294	59.91
868.462	67.46
868.63	60.58
868.797	58.56
868.965	43.83
869.133	46.35
869.3	56.09
869.468	58.49
869.636	31.52
869.803	47.97
869.971	39.9
870.138	28.72
870.306	-9.17
870.473	-36.57
870.641	-31.15
870.808	-24.52
870.975	-14.33
871.143	-16.57
871.31	-50.2
871.478	-48.14
871.645	-42.61
871.812	-52.93
871.98	-10.4
872.147	1.81
872.314	14.19
872.482	23.11
872.649	-6.24
872.816	2.15
872.983	18.72
873.15	73.87
873.318	75.09
873.485	61.27
873.652	43.25
873.819	33.23
873.986	26.97
874.153	32.81
874.32	24.38
874.487	42.34
874.654	54.1
874.821	53.49
874.988	40.1
875.155	44
875.322	49.34
875.489	58.86
875.656	72.19
875.823	81.15
875.99	96.71
876.157	130.1
876.324	82.25
876.49	58.15
876.657	47.66
876.824	104.9
876.991	64.38
877.157	135.88
877.324	132.77
877.491	104.27
877.658	95.33
877.824	94.64
877.991	95.92
878.157	132.07
878.324	118.02
878.491	117.42
878.657	92.67
878.824	111.65
878.99	76.93
879.157	67.95
879.323	52.87
879.49	60.02
879.656	50.62
879.823	35.76
879.989	30.22
880.156	12.15
880.322	45.83
880.488	37.27
880.655	30.28
880.821	35.26
880.987	40.45
881.154	56.71
881.32	45.64
881.486	46.56
881.652	41.23
881.819	39.4
881.985	43.08
882.151	36.63
882.317	40.29
882.483	35.41
882.649	39.48
882.816	38.09
882.982	35.96
883.148	29.55
883.314	24.57
883.48	25.14
883.646	26.67
883.812	23.93
883.978	27.17
884.144	27.92
884.31	31.27
884.476	27.12
884.642	28.76
884.807	29.76
884.973	32.38
885.139	34.65
885.305	34.78
885.471	31.14
885.637	35.18
885.802	33.71
885.968	34.21
886.134	29.25
886.3	34.28
886.465	36.3
886.631	30.46
886.797	31.57
886.962	33.76
887.128	37.43
887.293	42.26
887.459	48.52
887.625	48.97
887.79	50.6
887.956	59.65
888.121	57.4
888.287	52.1
888.452	57.59
888.618	64.5
888.783	68.24
