Data from 2937896_Reflection_2.txt Node
Date: Wed Jul 15 13:51:22 EDT 2015
User: robert
Spectrometer: USB4E03001
Autoset integration time: false
Trigger mode: 4
Integration Time (sec): 1.000000E-1
Scans to average: 10
Electric dark correction enabled: true
Nonlinearity correction enabled: false
Boxcar width: 5
Stray light correction enabled: false
XAxis mode: Wavelengths
Stop averaging: false
Number of Pixels in Spectrum: 3648
>>>>>Begin Spectral Data<<<<<
177.566	122.99
177.785	101.73
178.005	138.21
178.225	303.33
178.445	44.35
178.665	11.45
178.885	472.73
179.105	692.39
179.324	318.77
179.544	89.89
179.764	129.91
179.984	85.51
180.204	66.24
180.423	112.53
180.643	94.43
180.863	55.37
181.083	53.35
181.302	-111.96
181.522	77.09
181.742	70.55
181.961	51.2
182.181	24.3
182.401	302.52
182.621	289.42
182.84	35.14
183.06	84.82
183.279	-56.33
183.499	1579.57
183.719	127.8
183.938	-26.18
184.158	72.46
184.377	-1.67
184.597	51.63
184.816	69.33
185.036	-116.68
185.256	-14.68
185.475	10.52
185.695	-13.14
185.914	-25.45
186.134	27.47
186.353	53.38
186.572	16.75
186.792	40.94
187.011	-55.53
187.231	-28.47
187.45	230.17
187.67	-303.57
187.889	-142.35
188.108	469.44
188.328	-802.83
188.547	21.29
188.766	31.2
188.986	114.87
189.205	264.84
189.424	186.79
189.644	129.77
189.863	154.37
190.082	125.39
190.302	215.09
190.521	274.37
190.74	120.16
190.959	212.48
191.178	116.98
191.398	226.47
191.617	208.8
191.836	98.36
192.055	59.71
192.274	50.49
192.494	89.17
192.713	60.3
192.932	111.03
193.151	669.84
193.37	-27.15
193.589	-57.16
193.808	-44.46
194.027	3.78
194.246	31.32
194.465	-4.71
194.685	-83.78
194.904	-64.04
195.123	-85.01
195.342	-117.39
195.561	-271.89
195.78	-1995.54
195.999	561.47
196.218	201.44
196.436	143.05
196.655	138.53
196.874	100.75
197.093	84.32
197.312	39.44
197.531	39.7
197.75	39.79
197.969	36.2
198.188	3.51
198.407	16.7
198.625	7.36
198.844	-3.19
199.063	10.06
199.282	-49.33
199.501	-31.58
199.719	1114.29
199.938	179.38
200.157	84.23
200.376	62.27
200.594	94.42
200.813	61.34
201.032	60.58
201.251	66.1
201.469	71.47
201.688	11.68
201.907	-2.84
202.125	-54.94
202.344	18.27
202.563	-670.31
202.781	151.28
203	165.56
203.218	-321.45
203.437	-14.85
203.656	190.73
203.874	129.65
204.093	321.58
204.311	117.74
204.53	2.47
204.748	-40.6
204.967	-54.29
205.185	-18.79
205.404	-18.38
205.622	-69.09
205.841	-102.18
206.059	-58.44
206.278	-77.78
206.496	-444.5
206.715	-14.9
206.933	-405.1
207.151	-286.4
207.37	206.25
207.588	265.05
207.806	619.92
208.025	400.7
208.243	254.86
208.461	267.75
208.68	110.52
208.898	154.1
209.116	229.05
209.335	201.01
209.553	723.24
209.771	243.23
209.989	145.9
210.208	-968.87
210.426	180.56
210.644	306.53
210.862	202.66
211.081	174.05
211.299	193.03
211.517	207.5
211.735	146.69
211.953	210.19
212.171	238.8
212.39	199.85
212.608	387.17
212.826	172.38
213.044	388.98
213.262	61.26
213.48	208.66
213.698	107.52
213.916	42.38
214.134	24.64
214.352	67.61
214.57	73.01
214.788	64.92
215.006	58.51
215.224	35.61
215.442	84.79
215.66	53.22
215.878	30.04
216.096	10.9
216.314	48.63
216.532	43.66
216.75	32.34
216.968	52.26
217.185	22.87
217.403	79.23
217.621	112.44
217.839	111.97
218.057	90.34
218.275	104.95
218.492	52
218.71	-247.11
218.928	-27.88
219.146	-61.95
219.363	-362.79
219.581	28.27
219.799	9.46
220.017	8.9
220.234	19.06
220.452	49.76
220.67	-44.61
220.887	-27.86
221.105	198.12
221.323	-13.83
221.54	144.26
221.758	-319.72
221.976	39.29
222.193	57.55
222.411	312.09
222.629	355
222.846	1807.17
223.064	-706.96
223.281	-113.17
223.499	-54.99
223.716	-130.71
223.934	-93.84
224.151	-95.88
224.369	-89.08
224.586	-129.61
224.804	-116.81
225.021	-78.89
225.239	-83.98
225.456	-96.87
225.674	-108.27
225.891	-89.81
226.108	-50.25
226.326	-63.68
226.543	-49.48
226.76	-1.84
226.978	17.86
227.195	14.15
227.413	26.6
227.63	19.18
227.847	25.42
228.064	25.06
228.282	22.35
228.499	21.35
228.716	19.49
228.934	21.84
229.151	18.57
229.368	17.29
229.585	21.52
229.802	19.44
230.02	20.26
230.237	19.28
230.454	18.61
230.671	21
230.888	17.13
231.105	19.18
231.323	24.38
231.54	24.13
231.757	28.51
231.974	27.25
232.191	25.66
232.408	22.93
232.625	18
232.842	23.23
233.059	22.91
233.276	31.03
233.493	28.8
233.71	20.62
233.927	20.26
234.144	19.47
234.361	15.31
234.578	16.54
234.795	19.9
235.012	20.46
235.229	13.55
235.446	5.78
235.663	-0.36
235.879	2.26
236.096	-1.4
236.313	1.17
236.53	1.75
236.747	3.39
236.964	4.52
237.181	5.54
237.397	12.24
237.614	14.52
237.831	22.77
238.048	24.3
238.264	18.5
238.481	25.29
238.698	20.77
238.915	18.12
239.131	20.85
239.348	17.62
239.565	12.69
239.781	7.77
239.998	6.7
240.215	5.41
240.431	3.91
240.648	9.78
240.865	10.72
241.081	12.01
241.298	13.59
241.514	13.67
241.731	15.4
241.947	16.99
242.164	17.59
242.38	18.16
242.597	20.27
242.814	18.37
243.03	16.4
243.246	15.33
243.463	14.72
243.679	13.1
243.896	11.56
244.112	10.17
244.329	12.53
244.545	12.65
244.762	10.97
244.978	6.52
245.194	9.88
245.411	11.32
245.627	8.86
245.843	10.66
246.06	12.24
246.276	13.32
246.492	13.51
246.709	11.95
246.925	11.82
247.141	14
247.357	15.29
247.574	14.78
247.79	14.65
248.006	15.83
248.222	16.3
248.439	15.89
248.655	16.06
248.871	16.07
249.087	16.22
249.303	16.87
249.519	14.53
249.736	12.91
249.952	11
250.168	10.96
250.384	10.57
250.6	9.76
250.816	9.95
251.032	10.88
251.248	8.64
251.464	10.07
251.68	9.15
251.896	8.87
252.112	8.74
252.328	12.09
252.544	13.02
252.76	9.49
252.976	9.22
253.192	10
253.408	8.85
253.624	9.57
253.84	9.39
254.056	10.09
254.272	9.64
254.487	11.34
254.703	9.72
254.919	8.88
255.135	15.06
255.351	14.42
255.567	14.25
255.782	12.79
255.998	15.2
256.214	16.28
256.43	15.3
256.646	19.01
256.861	18.05
257.077	20.7
257.293	16.8
257.508	14.8
257.724	12.82
257.94	12.77
258.155	12.66
258.371	12.26
258.587	11.32
258.802	11.61
259.018	11.99
259.234	12.03
259.449	10.81
259.665	12.24
259.88	11.79
260.096	12.19
260.312	10.91
260.527	11.46
260.743	11.53
260.958	11.38
261.174	11.93
261.389	11.17
261.605	10.63
261.82	10.64
262.036	9.77
262.251	9.98
262.466	10.28
262.682	9.82
262.897	9.49
263.113	8.32
263.328	7.61
263.543	6.99
263.759	6.04
263.974	7.85
264.189	9.22
264.405	8.87
264.62	10.97
264.835	10.48
265.051	12.63
265.266	11.37
265.481	11.38
265.696	11.14
265.912	12.84
266.127	13.3
266.342	11.16
266.557	9.34
266.773	8.61
266.988	8.34
267.203	8.14
267.418	8.25
267.633	7.79
267.848	7.19
268.064	8.28
268.279	7.32
268.494	5.42
268.709	5.98
268.924	7.74
269.139	10.89
269.354	11.6
269.569	11.62
269.784	11.47
269.999	10.39
270.214	11.14
270.429	10.36
270.644	10.98
270.859	11.74
271.074	10.69
271.289	9.11
271.504	7.83
271.719	6.27
271.934	6.48
272.149	6.94
272.363	8.85
272.578	9.71
272.793	10.22
273.008	8.75
273.223	8.13
273.438	10.22
273.653	9.61
273.867	9.08
274.082	8.16
274.297	8.03
274.512	8.34
274.726	6.98
274.941	5.65
275.156	7.72
275.371	8.51
275.585	10.49
275.8	8.74
276.015	9.19
276.229	11.62
276.444	14.02
276.659	14.04
276.873	12.72
277.088	14.67
277.302	14.29
277.517	13.29
277.732	12.63
277.946	13.4
278.161	14.96
278.375	13.6
278.59	11.09
278.804	8.8
279.019	7.55
279.233	10.22
279.448	7.52
279.662	8.28
279.877	5.96
280.091	6.57
280.306	7.87
280.52	6.96
280.735	10.66
280.949	10.23
281.163	11.53
281.378	12.28
281.592	10.67
281.806	12.65
282.021	12.45
282.235	13.07
282.449	13.35
282.664	10.9
282.878	10.76
283.092	9.24
283.307	9.02
283.521	9.03
283.735	7.7
283.949	6.9
284.164	6.18
284.378	6.24
284.592	6.68
284.806	8.28
285.02	8.37
285.234	8.57
285.449	8.79
285.663	9.92
285.877	10.08
286.091	12
286.305	12.26
286.519	12.68
286.733	13.09
286.947	11.07
287.161	8.81
287.375	8.72
287.589	9.35
287.803	11.53
288.017	11.56
288.231	11.69
288.445	12.65
288.659	11.24
288.873	11.34
289.087	12.18
289.301	15.4
289.515	16.51
289.729	17.11
289.943	17.05
290.157	14.99
290.371	14.62
290.584	13.48
290.798	10.39
291.012	11.01
291.226	9.57
291.44	8.59
291.654	8.67
291.867	8.33
292.081	7.74
292.295	4.82
292.509	3.75
292.722	4.1
292.936	4.78
293.15	7.88
293.364	8.44
293.577	7.97
293.791	9.01
294.005	9.09
294.218	9.34
294.432	9.32
294.645	12.89
294.859	14.33
295.073	13.45
295.286	14.2
295.5	13.19
295.713	14
295.927	13.26
296.14	13.56
296.354	13.12
296.568	12.38
296.781	12.22
296.994	11.23
297.208	11.12
297.421	11.86
297.635	12.1
297.848	12.48
298.062	11.4
298.275	12.29
298.489	12.07
298.702	12.57
298.915	13.42
299.129	13.53
299.342	12.6
299.555	12
299.769	10.69
299.982	10.8
300.195	10.78
300.409	12.09
300.622	12.49
300.835	11.77
301.048	11.77
301.262	10.47
301.475	9.3
301.688	9.58
301.901	8.35
302.115	9.91
302.328	9.74
302.541	8.96
302.754	10.21
302.967	10.62
303.18	10.12
303.393	10.11
303.607	11.35
303.82	12.61
304.033	12.48
304.246	15.96
304.459	17.01
304.672	16.32
304.885	16.86
305.098	16.85
305.311	17.31
305.524	16.96
305.737	16.6
305.95	16.85
306.163	15.39
306.376	16.79
306.589	13.75
306.802	12.08
307.015	12.49
307.228	13.45
307.44	11.85
307.653	11.39
307.866	12.97
308.079	12.2
308.292	13.44
308.505	15.99
308.718	15.08
308.93	15.95
309.143	16.23
309.356	15.73
309.569	14.35
309.781	15.63
309.994	15.8
310.207	16.58
310.42	17.16
310.632	15.66
310.845	14.35
311.058	14.62
311.27	13.36
311.483	13.5
311.696	13.94
311.908	13.93
312.121	13.54
312.333	14.89
312.546	13.39
312.759	14.06
312.971	13.24
313.184	13.24
313.396	13.65
313.609	14.45
313.821	13.52
314.034	13.76
314.246	15.91
314.459	15.29
314.671	12.78
314.884	14.63
315.096	13.15
315.309	15.72
315.521	15.94
315.733	16.22
315.946	16.39
316.158	16.97
316.371	16.58
316.583	14.06
316.795	14.5
317.008	14.86
317.22	12.98
317.432	13.45
317.644	12.8
317.857	12.97
318.069	13.2
318.281	12.81
318.494	14.21
318.706	13.92
318.918	15.75
319.13	14.99
319.342	15.46
319.555	17.36
319.767	17.06
319.979	17.62
320.191	18.5
320.403	17.62
320.615	18.11
320.827	17.53
321.039	18.74
321.252	20.42
321.464	22.38
321.676	21.42
321.888	19.73
322.1	19.76
322.312	18
322.524	17.67
322.736	19.51
322.948	19.69
323.16	17.31
323.372	17.8
323.584	15.92
323.796	14.7
324.007	16.33
324.219	17.49
324.431	17.63
324.643	18.79
324.855	18.35
325.067	17.56
325.279	16.57
325.491	18.5
325.702	17.97
325.914	16.84
326.126	16.31
326.338	15.81
326.55	14.76
326.761	15.39
326.973	13.31
327.185	14.28
327.396	13.65
327.608	14.57
327.82	15.02
328.032	15.21
328.243	15.11
328.455	16.27
328.666	14.7
328.878	15
329.09	13.7
329.301	13.63
329.513	11.87
329.725	11.89
329.936	10.26
330.148	7.34
330.359	5.26
330.571	6.44
330.782	6.22
330.994	8.03
331.205	7.35
331.417	7.37
331.628	7.91
331.84	6.72
332.051	7.21
332.262	7.36
332.474	10.32
332.685	11.08
332.897	10.9
333.108	9.77
333.319	10.19
333.531	12.12
333.742	12.99
333.953	13.83
334.165	15.69
334.376	14.91
334.587	15.81
334.799	14.8
335.01	16.63
335.221	17.35
335.432	19.39
335.644	18.49
335.855	17.52
336.066	16.62
336.277	15.94
336.488	14.34
336.7	15.45
336.911	15.3
337.122	14.99
337.333	14.13
337.544	13
337.755	11.8
337.966	12.83
338.177	12.61
338.388	11.97
338.599	12.97
338.811	15.03
339.022	14.81
339.233	15.15
339.444	14.38
339.655	12.61
339.866	13.13
340.076	12.58
340.287	10.76
340.498	10.5
340.709	12.35
340.92	12.02
341.131	11.77
341.342	11.42
341.553	11.71
341.764	13.53
341.975	14.16
342.185	15.25
342.396	14.68
342.607	16.66
342.818	17.44
343.029	16.34
343.239	16.36
343.45	15.72
343.661	15.45
343.872	15.25
344.082	14.46
344.293	13.32
344.504	12.12
344.714	12.72
344.925	11.45
345.136	11.02
345.346	11.05
345.557	11.88
345.768	11.54
345.978	12.05
346.189	11.23
346.399	12.21
346.61	14.91
346.821	13.85
347.031	14.22
347.242	15.26
347.452	15.17
347.663	15.88
347.873	14.29
348.084	13.89
348.294	13.14
348.504	14.65
348.715	15.34
348.925	12.91
349.136	14.07
349.346	12.16
349.557	12.48
349.767	12.99
349.977	12.01
350.188	12.91
350.398	14.41
350.608	13.8
350.819	12.73
351.029	11.37
351.239	11.56
351.449	12.58
351.66	13.91
351.87	12.42
352.08	11.86
352.29	13.12
352.501	12.71
352.711	12.34
352.921	14.03
353.131	14.59
353.341	14.61
353.552	14.96
353.762	14.58
353.972	14.84
354.182	14.86
354.392	14.67
354.602	13.4
354.812	13.56
355.022	13.42
355.232	13.09
355.442	13.77
355.652	13.56
355.862	13.74
356.072	13.1
356.282	12.78
356.492	12.86
356.702	12.4
356.912	12.62
357.122	12.7
357.332	11.72
357.542	10.62
357.752	10.41
357.962	10.28
358.171	10.5
358.381	10.76
358.591	11.03
358.801	10.52
359.011	10.64
359.221	10.67
359.43	10.82
359.64	11.23
359.85	12.33
360.06	11.44
360.269	11.26
360.479	11.14
360.689	10.92
360.899	10.26
361.108	11.01
361.318	11.3
361.528	12
361.737	11.65
361.947	11.84
362.156	11.84
362.366	12.25
362.576	12.29
362.785	12.05
362.995	12.48
363.204	13.45
363.414	13.51
363.623	14.32
363.833	13.59
364.042	12.72
364.252	12.55
364.461	12.1
364.671	12.03
364.88	13.02
365.09	12.55
365.299	11.92
365.509	10.52
365.718	9.59
365.927	8.54
366.137	7.98
366.346	8.58
366.555	7.67
366.765	7.96
366.974	7.49
367.183	6.94
367.393	7.84
367.602	7.72
367.811	8.81
368.021	9.11
368.23	8.65
368.439	9.25
368.648	9.54
368.857	9.47
369.067	9.4
369.276	9.82
369.485	9.28
369.694	8.94
369.903	7.88
370.112	7.35
370.321	7.56
370.531	8.58
370.74	8.5
370.949	7.85
371.158	8.45
371.367	8.13
371.576	8.66
371.785	8.43
371.994	9.15
372.203	10.28
372.412	10.01
372.621	10.55
372.83	10.74
373.039	10.52
373.248	11.1
373.457	11.55
373.666	11.56
373.874	10.87
374.083	11.23
374.292	10.27
374.501	10.28
374.71	10.89
374.919	10.13
375.128	9.68
375.336	9.9
375.545	9.52
375.754	8.87
375.963	8.29
376.171	7.81
376.38	7.67
376.589	8
376.798	7.87
377.006	7.84
377.215	7.8
377.424	7.26
377.632	7.24
377.841	7.97
378.05	7.95
378.258	8.16
378.467	8.72
378.675	8.52
378.884	7.96
379.093	7.79
379.301	7.67
379.51	7.78
379.718	7.24
379.927	7.41
380.135	7.24
380.344	7.17
380.552	7.64
380.761	7.88
380.969	7.32
381.177	6.94
381.386	6.89
381.594	6.56
381.803	6.34
382.011	7.49
382.219	6.94
382.428	6.43
382.636	6.98
382.845	6.36
383.053	5.45
383.261	6.07
383.469	6.79
383.678	7.21
383.886	7.79
384.094	7.79
384.302	7.04
384.511	7.44
384.719	7.31
384.927	6.86
385.135	6.76
385.343	6.84
385.552	6.91
385.76	6.44
385.968	6.5
386.176	5.83
386.384	5.96
386.592	6.21
386.8	6.22
387.008	6.65
387.216	6.65
387.424	6.51
387.633	6.67
387.841	6.27
388.049	6.71
388.257	6.29
388.465	6.38
388.672	6.14
388.88	6.03
389.088	5.61
389.296	5.54
389.504	5.46
389.712	5.62
389.92	5.22
390.128	5.71
390.336	5.42
390.544	5.44
390.751	5.34
390.959	5.53
391.167	5.57
391.375	5.73
391.583	5.32
391.79	5.62
391.998	5.72
392.206	6.08
392.414	5.4
392.621	5.13
392.829	5.02
393.037	4.97
393.244	4.74
393.452	4.67
393.66	4.52
393.867	4.55
394.075	4.7
394.283	4.39
394.49	4.28
394.698	4.76
394.905	5.2
395.113	5.43
395.32	5.25
395.528	5.22
395.735	5.18
395.943	5.2
396.15	5.17
396.358	4.35
396.565	4.29
396.773	4.36
396.98	3.93
397.188	3.76
397.395	3.53
397.602	3.7
397.81	3.87
398.017	3.77
398.225	3.78
398.432	3.84
398.639	4.43
398.847	4.63
399.054	4.57
399.261	4.54
399.468	4.54
399.676	4.29
399.883	4.21
400.09	3.97
400.297	4.16
400.505	4.31
400.712	4.45
400.919	3.97
401.126	3.47
401.333	3.29
401.54	3.36
401.748	3.17
401.955	3.3
402.162	3.35
402.369	3.19
402.576	2.98
402.783	2.89
402.99	2.52
403.197	2.81
403.404	3.7
403.611	3.86
403.818	3.86
404.025	3.99
404.232	4.01
404.439	3.95
404.646	4.18
404.853	4.1
405.06	4.32
405.267	4.62
405.474	4.76
405.681	4.76
405.887	4.62
406.094	4.87
406.301	4.78
406.508	4.71
406.715	4.75
406.922	4.92
407.128	5.29
407.335	5.18
407.542	4.85
407.749	5.06
407.955	4.3
408.162	4.4
408.369	4.09
408.575	3.98
408.782	4.14
408.989	4.15
409.195	4.04
409.402	3.76
409.609	3.68
409.815	3.79
410.022	3.27
410.228	3.7
410.435	3.55
410.642	3.63
410.848	3.76
411.055	3.8
411.261	4.04
411.468	4.07
411.674	4.03
411.881	3.85
412.087	3.94
412.294	4.1
412.5	4.14
412.706	4.53
412.913	4.79
413.119	4.52
413.326	4.6
413.532	4.68
413.738	4.62
413.945	4.86
414.151	4.84
414.357	5.23
414.564	5.07
414.77	4.4
414.976	4.22
415.182	4.27
415.389	4.53
415.595	4.34
415.801	4.03
416.007	3.85
416.214	3.66
416.42	3.58
416.626	3.24
416.832	3.46
417.038	3.8
417.244	3.53
417.45	3.39
417.657	3.49
417.863	3.66
418.069	3.81
418.275	3.87
418.481	3.87
418.687	3.98
418.893	3.91
419.099	3.95
419.305	4.01
419.511	4.16
419.717	4.03
419.923	3.72
420.129	3.48
420.335	3.23
420.541	3.15
420.746	3.31
420.952	3.31
421.158	3.47
421.364	3.33
421.57	3.3
421.776	3.3
421.982	3.24
422.187	3.36
422.393	3.46
422.599	3.65
422.805	3.77
423.01	3.66
423.216	3.59
423.422	3.4
423.628	3.48
423.833	3.68
424.039	3.75
424.245	3.89
424.45	3.89
424.656	3.86
424.862	3.73
425.067	3.79
425.273	3.73
425.478	3.81
425.684	3.84
425.889	3.84
426.095	3.79
426.301	3.61
426.506	3.58
426.712	3.73
426.917	3.76
427.123	3.79
427.328	3.59
427.533	3.83
427.739	3.85
427.944	3.77
428.15	3.71
428.355	3.44
428.561	3.51
428.766	3.46
428.971	3.09
429.177	3.21
429.382	3.32
429.587	3.48
429.793	3.33
429.998	3.29
430.203	3.28
430.408	3.3
430.614	3.32
430.819	3.53
431.024	3.55
431.229	3.83
431.434	3.73
431.64	3.65
431.845	3.36
432.05	3.24
432.255	3.08
432.46	3.4
432.665	3.5
432.87	3.82
433.076	3.55
433.281	3.46
433.486	3.36
433.691	3.26
433.896	3.36
434.101	3.56
434.306	3.65
434.511	3.87
434.716	3.81
434.921	3.76
435.126	3.47
435.331	3.52
435.535	3.55
435.74	3.49
435.945	3.57
436.15	3.36
436.355	3.18
436.56	3.07
436.765	2.85
436.97	2.72
437.174	2.89
437.379	2.93
437.584	3.05
437.789	3.22
437.993	3.29
438.198	3.36
438.403	3.43
438.608	3.49
438.812	3.53
439.017	3.57
439.222	3.65
439.426	3.3
439.631	3.14
439.836	3.06
440.04	2.94
440.245	2.77
440.45	2.79
440.654	2.91
440.859	2.82
441.063	2.82
441.268	2.97
441.472	2.87
441.677	3.01
441.881	3.24
442.086	3.26
442.29	3.33
442.495	3.62
442.699	3.5
442.904	3.23
443.108	3.46
443.312	3.44
443.517	3.39
443.721	3.45
443.925	3.44
444.13	3.52
444.334	3.47
444.538	3.56
444.743	3.4
444.947	3.37
445.151	3.71
445.356	3.71
445.56	3.83
445.764	3.8
445.968	3.83
446.173	3.77
446.377	3.78
446.581	3.95
446.785	3.79
446.989	3.89
447.193	3.89
447.398	3.83
447.602	3.55
447.806	3.47
448.01	3.45
448.214	3.35
448.418	3.34
448.622	3.21
448.826	3.04
449.03	3.16
449.234	3.05
449.438	3.04
449.642	2.98
449.846	3.22
450.05	3.25
450.254	3.24
450.458	3.23
450.662	3.15
450.866	3.16
451.069	3.26
451.273	3.2
451.477	3.29
451.681	3.2
451.885	3.13
452.089	3.24
452.292	3.29
452.496	3.31
452.7	3.37
452.904	3.66
453.107	3.55
453.311	3.49
453.515	3.53
453.719	3.47
453.922	3.52
454.126	3.46
454.33	3.54
454.533	3.5
454.737	3.25
454.94	3.29
455.144	3.18
455.348	3.19
455.551	3.14
455.755	3.23
455.958	3.34
456.162	3.51
456.365	3.59
456.569	3.38
456.772	3.17
456.976	3.33
457.179	3.2
457.383	3.1
457.586	3.06
457.79	3.24
457.993	3.17
458.196	3.08
458.4	3.06
458.603	3.13
458.807	3.18
459.01	3.24
459.213	3.33
459.417	3.42
459.62	3.48
459.823	3.58
460.026	3.58
460.23	3.51
460.433	3.47
460.636	3.45
460.839	3.5
461.042	3.44
461.246	3.35
461.449	3.4
461.652	3.41
461.855	3.34
462.058	3.23
462.261	2.88
462.464	2.9
462.668	2.98
462.871	3.06
463.074	2.83
463.277	2.97
463.48	3.04
463.683	2.97
463.886	2.83
464.089	2.61
464.292	2.64
464.495	3.02
464.698	2.85
464.901	2.86
465.104	2.74
465.306	2.85
465.509	2.85
465.712	2.87
465.915	2.79
466.118	3.06
466.321	3.26
466.524	3.28
466.726	3.06
466.929	3.19
467.132	3.13
467.335	3.14
467.538	3.25
467.74	3.39
467.943	3.46
468.146	3.45
468.348	3.24
468.551	3.26
468.754	3.32
468.956	3.52
469.159	3.67
469.362	3.7
469.564	3.88
469.767	3.81
469.969	3.68
470.172	3.88
470.375	4.01
470.577	4.02
470.78	4.23
470.982	4.24
471.185	4.1
471.387	3.91
471.59	3.95
471.792	3.83
471.995	3.59
472.197	3.56
472.399	3.34
472.602	3.24
472.804	3.29
473.007	3.1
473.209	3.17
473.411	3.21
473.614	3.37
473.816	3.22
474.018	3.16
474.22	3.39
474.423	3.32
474.625	3.17
474.827	3.32
475.03	3.24
475.232	3.38
475.434	3.13
475.636	3.13
475.838	3.06
476.04	3.13
476.243	3
476.445	2.85
476.647	3.08
476.849	3.36
477.051	3.17
477.253	3.18
477.455	2.91
477.657	3.14
477.859	2.93
478.061	2.97
478.263	2.96
478.465	3.11
478.667	3.23
478.869	3.16
479.071	2.97
479.273	2.94
479.475	3.06
479.677	3.15
479.879	3.03
480.081	3.1
480.283	3.03
480.485	3.02
480.686	2.96
480.888	2.93
481.09	2.97
481.292	3.05
481.494	3.1
481.695	3.02
481.897	2.97
482.099	3.06
482.301	3.18
482.502	3.2
482.704	3.24
482.906	3.32
483.107	3.35
483.309	3.21
483.511	3.25
483.712	3.27
483.914	3.3
484.115	3.3
484.317	3.25
484.519	3.22
484.72	3.21
484.922	3.14
485.123	3.06
485.325	3.04
485.526	3.11
485.728	3.08
485.929	3.08
486.131	3
486.332	2.99
486.534	3.08
486.735	3.15
486.936	3.19
487.138	3.3
487.339	3.37
487.541	3.36
487.742	3.34
487.943	3.36
488.144	3.32
488.346	3.38
488.547	3.42
488.748	3.34
488.95	3.3
489.151	3.29
489.352	3.28
489.553	3.28
489.755	3.21
489.956	3.23
490.157	3.15
490.358	3.2
490.559	3.17
490.76	3.21
490.961	3.3
491.163	3.22
491.364	3.2
491.565	3.21
491.766	3.28
491.967	3.35
492.168	3.31
492.369	3.37
492.57	3.3
492.771	3.27
492.972	3.31
493.173	3.28
493.374	3.38
493.575	3.33
493.776	3.27
493.976	3.2
494.177	3.05
494.378	3.08
494.579	3.06
494.78	3.08
494.981	3.06
495.182	2.93
495.382	3.03
495.583	2.98
495.784	3.14
495.985	3.22
496.185	3.15
496.386	3.19
496.587	3.22
496.788	3.13
496.988	3.29
497.189	3.4
497.39	3.46
497.59	3.42
497.791	3.35
497.992	3.26
498.192	3.29
498.393	3.28
498.593	3.36
498.794	3.34
498.994	3.41
499.195	3.28
499.395	3.29
499.596	3.12
499.796	2.99
499.997	3.08
500.197	3.09
500.398	2.82
500.598	2.87
500.799	2.93
500.999	2.92
501.199	2.94
501.4	2.91
501.6	2.84
501.801	2.95
502.001	2.89
502.201	3.02
502.402	2.96
502.602	3.2
502.802	3.3
503.002	3.22
503.203	3.36
503.403	3.35
503.603	3.53
503.803	3.61
504.003	3.75
504.204	3.7
504.404	3.47
504.604	3.57
504.804	3.5
505.004	3.45
505.204	3.43
505.404	3.39
505.604	3.42
505.804	3.38
506.005	3.2
506.205	3.04
506.405	3.23
506.605	3.2
506.805	3.04
507.005	3.01
507.204	2.87
507.404	2.96
507.604	2.7
507.804	2.6
508.004	2.65
508.204	2.96
508.404	2.95
508.604	2.84
508.804	2.91
509.003	3
509.203	3.17
509.403	3.27
509.603	3.17
509.803	3.33
510.002	3.41
510.202	3.3
510.402	3.18
510.602	3.18
510.801	3.29
511.001	3.43
511.201	3.5
511.4	3.31
511.6	3.22
511.8	3.17
511.999	3.16
512.199	3.07
512.398	3.11
512.598	3.02
512.797	3.01
512.997	2.96
513.197	2.86
513.396	2.82
513.596	3.1
513.795	3.31
513.994	3.4
514.194	3.42
514.393	3.52
514.593	3.49
514.792	3.49
514.992	3.54
515.191	3.68
515.39	3.76
515.59	3.76
515.789	3.63
515.988	3.54
516.188	3.62
516.387	3.68
516.586	3.63
516.786	3.63
516.985	3.76
517.184	3.87
517.383	3.74
517.582	3.74
517.782	3.65
517.981	3.56
518.18	3.58
518.379	3.56
518.578	3.65
518.777	3.72
518.976	3.75
519.176	3.64
519.375	3.53
519.574	3.51
519.773	3.41
519.972	3.61
520.171	3.63
520.37	3.63
520.569	3.58
520.768	3.4
520.967	3.35
521.166	3.18
521.365	3.3
521.564	3.37
521.762	3.29
521.961	3.37
522.16	3.29
522.359	3.39
522.558	3.24
522.757	3.2
522.956	3.25
523.154	3.18
523.353	3.27
523.552	3.34
523.751	3.32
523.949	3.56
524.148	3.54
524.347	3.65
524.546	3.61
524.744	3.75
524.943	3.8
525.142	3.71
525.34	3.83
525.539	3.93
525.737	3.75
525.936	3.78
526.135	3.73
526.333	3.75
526.532	3.71
526.73	3.65
526.929	3.64
527.127	3.59
527.326	3.64
527.524	3.67
527.723	3.67
527.921	3.67
528.12	3.68
528.318	3.69
528.516	3.67
528.715	3.62
528.913	3.65
529.112	3.66
529.31	3.71
529.508	3.7
529.707	3.66
529.905	3.65
530.103	3.71
530.301	3.71
530.5	3.71
530.698	3.79
530.896	3.83
531.094	3.96
531.293	3.99
531.491	3.93
531.689	4.06
531.887	4.1
532.085	4.12
532.283	4.1
532.481	4.08
532.68	4.12
532.878	4.05
533.076	4
533.274	3.94
533.472	3.9
533.67	3.95
533.868	4
534.066	4
534.264	3.96
534.462	3.94
534.66	3.94
534.858	3.87
535.056	3.89
535.253	3.91
535.451	3.94
535.649	3.95
535.847	4.01
536.045	3.91
536.243	3.87
536.441	3.92
536.638	3.87
536.836	3.97
537.034	4.08
537.232	4.08
537.43	4.15
537.627	4.26
537.825	4.26
538.023	4.24
538.22	4.21
538.418	4.29
538.616	4.27
538.813	4.41
539.011	4.49
539.209	4.39
539.406	4.47
539.604	4.53
539.801	4.42
539.999	4.33
540.196	4.39
540.394	4.5
540.591	4.49
540.789	4.57
540.986	4.58
541.184	4.48
541.381	4.55
541.579	4.5
541.776	4.45
541.974	4.42
542.171	4.59
542.368	4.65
542.566	4.73
542.763	4.76
542.96	4.78
543.158	4.83
543.355	4.93
543.552	5
543.75	5.01
543.947	5.12
544.144	5.2
544.341	5.23
544.539	5.2
544.736	5.15
544.933	5.13
545.13	5.18
545.327	5.35
545.524	5.36
545.722	5.32
545.919	5.46
546.116	5.39
546.313	5.48
546.51	5.4
546.707	5.43
546.904	5.44
547.101	5.54
547.298	5.5
547.495	5.34
547.692	5.34
547.889	5.33
548.086	5.31
548.283	5.53
548.48	5.65
548.677	5.67
548.874	5.55
549.07	5.41
549.267	5.44
549.464	5.37
549.661	5.49
549.858	5.44
550.055	5.45
550.251	5.68
550.448	5.51
550.645	5.31
550.842	5.43
551.038	5.52
551.235	5.81
551.432	5.78
551.628	6.05
551.825	6.18
552.022	6.28
552.218	6.39
552.415	6.19
552.612	6.28
552.808	6.33
553.005	6.27
553.201	6.48
553.398	6.55
553.594	6.68
553.791	6.45
553.987	6.45
554.184	6.49
554.38	6.64
554.577	6.74
554.773	6.91
554.97	6.96
555.166	7.2
555.362	7.21
555.559	7.18
555.755	6.93
555.952	7.26
556.148	7.21
556.344	7.33
556.541	7.18
556.737	7.14
556.933	6.98
557.129	6.98
557.326	6.73
557.522	6.78
557.718	6.88
557.914	7.12
558.11	6.99
558.307	7.13
558.503	7.17
558.699	7.12
558.895	7.29
559.091	7.26
559.287	7.68
559.483	7.92
559.679	7.95
559.876	7.93
560.072	8.38
560.268	8.69
560.464	8.46
560.66	8.64
560.856	8.85
561.052	9
561.247	9.3
561.443	9.28
561.639	9.3
561.835	9.17
562.031	9.24
562.227	8.93
562.423	8.59
562.619	8.86
562.815	8.77
563.01	8.92
563.206	8.96
563.402	8.99
563.598	8.98
563.793	9.01
563.989	9.18
564.185	9.19
564.381	9.17
564.576	9.42
564.772	9.39
564.968	9.31
565.163	9.21
565.359	9.36
565.555	9.52
565.75	9.45
565.946	9.54
566.141	9.66
566.337	9.83
566.532	9.95
566.728	10.07
566.923	10.11
567.119	10.35
567.314	10.44
567.51	10.46
567.705	10.4
567.901	10.55
568.096	10.56
568.292	10.6
568.487	10.52
568.682	10.78
568.878	10.76
569.073	11.06
569.268	10.94
569.464	11.04
569.659	11.04
569.854	11.09
570.05	11.11
570.245	11.28
570.44	11.22
570.635	11.38
570.831	11.32
571.026	11.46
571.221	11.31
571.416	11.62
571.611	11.69
571.806	11.72
572.002	11.88
572.197	11.9
572.392	11.91
572.587	12.25
572.782	12.08
572.977	11.97
573.172	11.9
573.367	12.1
573.562	11.89
573.757	11.98
573.952	11.98
574.147	11.78
574.342	11.74
574.537	11.69
574.732	11.78
574.927	12.06
575.121	12.23
575.316	12.37
575.511	12.44
575.706	12.49
575.901	12.54
576.096	12.5
576.29	12.71
576.485	12.95
576.68	13.07
576.875	12.69
577.069	12.78
577.264	12.91
577.459	12.84
577.654	12.87
577.848	13.11
578.043	13.21
578.238	13.45
578.432	13.21
578.627	13.26
578.821	13.36
579.016	13.67
579.21	13.51
579.405	13.62
579.6	13.58
579.794	13.65
579.989	13.45
580.183	13.32
580.378	13.3
580.572	13.63
580.766	13.72
580.961	14.03
581.155	13.92
581.35	14.12
581.544	14.06
581.738	14.19
581.933	13.98
582.127	14.18
582.321	14.26
582.516	14.19
582.71	14.05
582.904	13.81
583.099	13.59
583.293	13.82
583.487	13.63
583.681	13.63
583.875	13.76
584.07	13.82
584.264	13.63
584.458	13.6
584.652	13.8
584.846	14.04
585.04	14.28
585.234	14.23
585.428	14.04
585.623	14.03
585.817	14.13
586.011	14.01
586.205	14.03
586.399	14.25
586.593	14.31
586.787	14.33
586.981	13.96
587.174	13.78
587.368	13.84
587.562	13.83
587.756	14.19
587.95	14.18
588.144	14.25
588.338	14.51
588.532	14.34
588.725	14.44
588.919	14.39
589.113	14.47
589.307	14.4
589.501	14.33
589.694	14.62
589.888	14.42
590.082	14.33
590.275	14.53
590.469	14.73
590.663	14.62
590.856	14.51
591.05	14.49
591.244	14.81
591.437	15.15
591.631	15.38
591.824	15.23
592.018	15.21
592.212	15.35
592.405	15.3
592.599	14.67
592.792	14.88
592.986	15.08
593.179	15.36
593.372	15.25
593.566	15.1
593.759	15.24
593.953	15.45
594.146	15.47
594.339	15.51
594.533	15.51
594.726	15.77
594.92	15.86
595.113	15.69
595.306	15.38
595.499	15.55
595.693	15.52
595.886	15.3
596.079	15.2
596.272	15.29
596.466	15.23
596.659	15.32
596.852	15.4
597.045	15.41
597.238	15.29
597.431	15.28
597.624	15.07
597.818	14.9
598.011	14.81
598.204	14.58
598.397	14.64
598.59	14.45
598.783	14.2
598.976	14.2
599.169	13.97
599.362	14.04
599.555	14.18
599.748	14.12
599.941	14.32
600.134	14.81
600.326	15.03
600.519	14.85
600.712	15.04
600.905	15.27
601.098	15.12
601.291	15.5
601.483	15.5
601.676	15.61
601.869	15.86
602.062	15.97
602.255	15.4
602.447	15.15
602.64	15.22
602.833	15.18
603.025	15.04
603.218	15.16
603.411	15
603.603	14.93
603.796	15.03
603.989	15.09
604.181	14.92
604.374	15.24
604.566	15.41
604.759	15.38
604.951	15.37
605.144	15.45
605.336	15.3
605.529	15.36
605.721	15.43
605.914	15.26
606.106	15.3
606.299	15.36
606.491	15.3
606.683	15.37
606.876	15.21
607.068	15.22
607.26	15.09
607.453	15.13
607.645	15.27
607.837	15.31
608.03	15.33
608.222	15.12
608.414	15.36
608.606	15.36
608.799	15.16
608.991	15.33
609.183	15.5
609.375	15.57
609.567	15.5
609.759	15.34
609.952	15.34
610.144	15.53
610.336	15.62
610.528	15.34
610.72	15.26
610.912	15.52
611.104	15.5
611.296	15.17
611.488	15.19
611.68	15.27
611.872	15.23
612.064	14.88
612.256	14.71
612.448	14.69
612.64	14.81
612.832	14.59
613.023	14.49
613.215	14.24
613.407	14.5
613.599	14.5
613.791	14.4
613.983	14.56
614.174	15.1
614.366	15.13
614.558	14.94
614.75	14.74
614.941	14.97
615.133	14.93
615.325	15.24
615.516	15.17
615.708	14.95
615.9	15.13
616.091	15.32
616.283	15.33
616.475	15.14
616.666	15.22
616.858	15.22
617.049	14.97
617.241	14.97
617.432	14.75
617.624	14.78
617.815	14.88
618.007	14.91
618.198	14.79
618.39	14.8
618.581	14.54
618.773	14.68
618.964	15.1
619.155	15.18
619.347	15.16
619.538	15.35
619.729	15.6
619.921	15.31
620.112	15.37
620.303	15.2
620.494	15.03
620.686	15.34
620.877	15.49
621.068	15.08
621.259	15.39
621.451	15.4
621.642	15.31
621.833	15.18
622.024	15.53
622.215	15.18
622.406	15.57
622.597	15.54
622.788	15.58
622.98	15.4
623.171	15.9
623.362	15.43
623.553	15.63
623.744	15.7
623.935	15.33
624.126	15.18
624.317	15.61
624.508	15.18
624.698	14.88
624.889	14.69
625.08	14.55
625.271	14.29
625.462	14.51
625.653	14.48
625.844	14.77
626.034	14.94
626.225	15.24
626.416	15.15
626.607	15.2
626.798	15.48
626.988	15.53
627.179	15.72
627.37	15.39
627.56	15.37
627.751	15.25
627.942	15.04
628.132	15.07
628.323	14.96
628.514	14.98
628.704	15.01
628.895	14.95
629.085	15.1
629.276	14.95
629.466	15.25
629.657	15.38
629.847	15.52
630.038	15.67
630.228	15.76
630.419	15.52
630.609	15.69
630.8	15.7
630.99	16.09
631.181	15.87
631.371	15.99
631.561	16.2
631.752	16.03
631.942	15.95
632.132	15.63
632.323	15.83
632.513	16.14
632.703	15.91
632.893	15.76
633.084	15.45
633.274	15.49
633.464	15.49
633.654	15.24
633.844	15.23
634.034	15.09
634.225	15.52
634.415	15.25
634.605	15.06
634.795	14.97
634.985	14.96
635.175	15.04
635.365	14.93
635.555	14.96
635.745	15.24
635.935	15.29
636.125	15.31
636.315	14.73
636.505	14.93
636.695	15.13
636.885	15.41
637.075	15.61
637.265	15.66
637.455	15.91
637.644	15.75
637.834	15.74
638.024	15.66
638.214	15.56
638.404	16.09
638.593	16.37
638.783	16.21
638.973	15.96
639.163	15.85
639.352	15.59
639.542	15.52
639.732	15.53
639.921	15.28
640.111	15.4
640.301	15.49
640.49	15.12
640.68	14.61
640.87	14.91
641.059	15.11
641.249	15.46
641.438	15.58
641.628	15.69
641.817	15.59
642.007	15.51
642.196	15.74
642.386	15.79
642.575	15.86
642.764	16.05
642.954	16.01
643.143	15.88
643.333	15.32
643.522	15.45
643.711	15.54
643.901	15.77
644.09	16.04
644.279	15.94
644.469	15.86
644.658	15.9
644.847	15.85
645.036	15.74
645.226	15.49
645.415	15.6
645.604	15.45
645.793	15.22
645.982	15.11
646.171	15.09
646.361	14.85
646.55	14.63
646.739	14.69
646.928	14.61
647.117	14.72
647.306	15.11
647.495	14.91
647.684	14.82
647.873	14.76
648.062	14.68
648.251	14.78
648.44	14.94
648.629	15.15
648.818	15.11
649.007	15.36
649.196	15.21
649.384	14.84
649.573	15.06
649.762	15.56
649.951	15.84
650.14	15.86
650.328	15.43
650.517	15.35
650.706	15.47
650.895	15.33
651.083	14.85
651.272	14.97
651.461	15.31
651.65	15.44
651.838	15.07
652.027	14.88
652.216	14.87
652.404	15.26
652.593	15
652.781	14.77
652.97	14.97
653.158	15.23
653.347	15.19
653.535	15.22
653.724	15.02
653.912	15.18
654.101	15.34
654.289	15.45
654.478	15.42
654.666	15.73
654.855	15.89
655.043	15.49
655.231	15.5
655.42	15.52
655.608	15.41
655.796	15.83
655.985	15.44
656.173	15.11
656.361	15.38
656.55	15.63
656.738	15.96
656.926	16.2
657.114	16.63
657.302	16.71
657.491	16.66
657.679	16.34
657.867	15.98
658.055	15.84
658.243	15.57
658.431	15.35
658.619	15.29
658.807	15.14
658.996	14.99
659.184	14.75
659.372	14.71
659.56	14.63
659.748	14.96
659.936	15.22
660.124	15.68
660.311	15.96
660.499	15.86
660.687	15.68
660.875	15.76
661.063	16.22
661.251	16.31
661.439	16.45
661.627	16.44
661.814	16.18
662.002	15.96
662.19	16.03
662.378	16.19
662.565	16.19
662.753	16.3
662.941	15.76
663.129	15.32
663.316	15.45
663.504	15.55
663.692	15.41
663.879	15.56
664.067	15.53
664.254	14.71
664.442	14.79
664.63	14.54
664.817	14.39
665.005	14.48
665.192	14.13
665.38	14.11
665.567	13.54
665.755	13.58
665.942	13.49
666.13	13.51
666.317	14.26
666.504	14.25
666.692	14.48
666.879	14.52
667.067	14.63
667.254	14.99
667.441	14.7
667.629	14.48
667.816	14.8
668.003	14.65
668.19	14.65
668.378	14.66
668.565	14.2
668.752	14.52
668.939	14.19
669.127	14.12
669.314	14.06
669.501	14.37
669.688	14.18
669.875	13.88
670.062	13.89
670.249	13.55
670.436	13.35
670.623	13.61
670.81	13.47
670.997	13.87
671.184	13.86
671.371	13.92
671.558	13.94
671.745	14.49
671.932	14.9
672.119	14.87
672.306	15.34
672.493	15.21
672.68	15.12
672.867	14.63
673.054	14.31
673.24	14.53
673.427	14.8
673.614	14.62
673.801	14.34
673.988	14.14
674.174	14.26
674.361	14.24
674.548	14.45
674.734	14.31
674.921	14.35
675.108	14.4
675.294	14.61
675.481	14.25
675.668	13.99
675.854	14.65
676.041	14.54
676.227	14.83
676.414	15.11
676.601	15.06
676.787	15.63
676.974	16.19
677.16	16.48
677.347	15.96
677.533	16.02
677.719	16.43
677.906	16.55
678.092	16.87
678.279	16.3
678.465	16.18
678.651	16.09
678.838	15.76
679.024	15.35
679.21	15
679.397	14.85
679.583	14.69
679.769	14.45
679.955	13.68
680.142	13.22
680.328	13.56
680.514	12.98
680.7	13.02
680.886	13.03
681.073	13.35
681.259	13.58
681.445	14.11
681.631	14.46
681.817	14.71
682.003	15.77
682.189	15.52
682.375	15.52
682.561	15.98
682.747	15.79
682.933	16.05
683.119	16.24
683.305	16.2
683.491	16.16
683.677	16.27
683.863	16.03
684.049	15.93
684.235	16.82
684.42	16.82
684.606	16.51
684.792	16.64
684.978	15.96
685.164	15.84
685.349	15.61
685.535	15.66
685.721	15.04
685.907	14.46
686.092	14.1
686.278	13.73
686.464	14.03
686.649	14.43
686.835	14.34
687.021	15.12
687.206	14.7
687.392	14.43
687.577	14.54
687.763	14.96
687.948	15.78
688.134	15.29
688.319	15.28
688.505	15.43
688.69	15.33
688.876	15.39
689.061	14.94
689.247	14.77
689.432	15.52
689.618	14.49
689.803	14.13
689.988	13.79
690.174	13.61
690.359	13.91
690.544	13.5
690.73	13.24
690.915	13.23
691.1	13.63
691.285	14.23
691.471	14.1
691.656	15.39
691.841	15.15
692.026	15.16
692.211	15.19
692.396	15.23
692.582	15.21
692.767	16.11
692.952	16.22
693.137	15.84
693.322	15.72
693.507	15.58
693.692	14.69
693.877	15.54
694.062	15.88
694.247	16.34
694.432	16.45
694.617	16.42
694.802	16.14
694.987	15.78
695.172	16.29
695.357	15.92
695.541	16.13
695.726	16.78
695.911	16.36
696.096	16.39
696.281	16.3
696.466	15.65
696.65	15.73
696.835	15.32
697.02	15.67
697.204	15.36
697.389	15.77
697.574	15.55
697.759	15.18
697.943	15.46
698.128	15.56
698.312	15.7
698.497	15.5
698.682	15.38
698.866	15.23
699.051	15.11
699.235	15.08
699.42	14.81
699.604	14.94
699.789	15.04
699.973	14.58
700.158	13.91
700.342	13.68
700.527	14.1
700.711	14.58
700.895	14.36
701.08	14.75
701.264	14.86
701.448	15
701.633	14.68
701.817	14.61
702.001	15.22
702.186	15.61
702.37	14.98
702.554	14.69
702.738	13.83
702.923	14.65
703.107	14.29
703.291	14.23
703.475	15.18
703.659	14.98
703.843	15.21
704.027	14.86
704.212	14.79
704.396	14.83
704.58	14.49
704.764	14.78
704.948	14.64
705.132	14.63
705.316	14.29
705.5	13.16
705.684	13.86
705.868	14.15
706.052	14.12
706.235	14.66
706.419	15.53
706.603	16.04
706.787	16.25
706.971	15.41
707.155	15.51
707.339	15.65
707.522	15.5
707.706	15.3
707.89	14.74
708.074	14.24
708.257	13.87
708.441	13.81
708.625	13.62
708.808	13.12
708.992	13.68
709.176	13.35
709.359	13.06
709.543	13.18
709.727	13.86
709.91	14.1
710.094	14.79
710.277	14.7
710.461	14.87
710.644	15.03
710.828	14.68
711.011	14.49
711.195	14.34
711.378	15.16
711.562	15.24
711.745	14.69
711.928	14.8
712.112	14.11
712.295	14.38
712.478	14.51
712.662	14.76
712.845	15.22
713.028	15.6
713.212	16.1
713.395	15.74
713.578	16.03
713.761	16.29
713.945	16.22
714.128	16.64
714.311	16.27
714.494	15.84
714.677	15.87
714.86	16.92
715.043	16.8
715.227	17.1
715.41	16.95
715.593	17.53
715.776	17.28
715.959	16.89
716.142	16.49
716.325	16.87
716.508	17.27
716.691	17.73
716.874	16.65
717.057	16.17
717.239	15.6
717.422	16.51
717.605	15.2
717.788	14.73
717.971	15.03
718.154	15.18
718.337	14.46
718.519	14.13
718.702	13.08
718.885	13.35
719.068	14.17
719.25	13.77
719.433	12.07
719.616	12.69
719.798	12.5
719.981	12.6
720.164	12.98
720.346	14.54
720.529	13.96
720.712	12.92
720.894	13.1
721.077	12.65
721.259	12.44
721.442	13.19
721.624	13.37
721.807	14.67
721.989	14.76
722.172	15.41
722.354	15.36
722.537	16.39
722.719	17.51
722.901	17.92
723.084	18.48
723.266	18.81
723.448	18.12
723.631	18.52
723.813	17.49
723.995	17.66
724.178	17.35
724.36	16.84
724.542	16.29
724.724	16.58
724.907	15.5
725.089	15.48
725.271	16.2
725.453	17.29
725.635	16.13
725.817	15.61
725.999	15.78
726.181	15.41
726.364	14.91
726.546	14.52
726.728	13.54
726.91	13.09
727.092	13.62
727.274	13.35
727.456	12.58
727.638	13.66
727.819	14.67
728.001	14.31
728.183	14.48
728.365	15.08
728.547	15.86
728.729	16.89
728.911	18.71
729.093	17.82
729.274	17.42
729.456	18.29
729.638	18.38
729.82	17.84
730.001	18.65
730.183	17.66
730.365	17.7
730.546	17.97
730.728	17.83
730.91	15.68
731.091	15.81
731.273	15.62
731.455	14.73
731.636	13.39
731.818	14.2
731.999	13.52
732.181	14.87
732.362	15.08
732.544	14.2
732.725	13.99
732.907	15.75
733.088	15.22
733.27	14.83
733.451	14.81
733.633	15.65
733.814	14.97
733.995	15.06
734.177	14.72
734.358	14.28
734.539	14.39
734.721	14.95
734.902	13.83
735.083	14.73
735.264	15.54
735.446	15.42
735.627	16
735.808	16.61
735.989	16.63
736.17	15.97
736.351	15.61
736.533	15.8
736.714	14.66
736.895	14.52
737.076	14.44
737.257	13.85
737.438	14.8
737.619	13.81
737.8	11.99
737.981	10.79
738.162	10.82
738.343	10.53
738.524	11.31
738.705	12.2
738.886	12.74
739.067	12.01
739.247	13.13
739.428	12.19
739.609	11.76
739.79	12.13
739.971	13.14
740.151	14.53
740.332	15.11
740.513	14.6
740.694	14.88
740.874	14.77
741.055	15.62
741.236	14.59
741.417	14.95
741.597	16.73
741.778	17.86
741.958	17.05
742.139	15.84
742.32	16.09
742.5	15.36
742.681	14.09
742.861	13.3
743.042	13.3
743.222	14.88
743.403	15.34
743.583	14.11
743.764	13.68
743.944	14.81
744.124	16.22
744.305	15.39
744.485	16.37
744.666	15.95
744.846	16.68
745.026	15.42
745.207	15.42
745.387	15.63
745.567	15.57
745.747	15.24
745.928	15.05
746.108	14.14
746.288	13.43
746.468	12.68
746.648	13.11
746.829	14.28
747.009	14.38
747.189	13.58
747.369	12.94
747.549	13.27
747.729	13.08
747.909	12.88
748.089	12.79
748.269	14.75
748.449	15.88
748.629	17.16
748.809	16.84
748.989	17.81
749.169	17.42
749.349	16.97
749.529	17.23
749.709	17.4
749.889	17.42
750.068	17.55
750.248	16.88
750.428	16.1
750.608	15.52
750.788	15.83
750.967	14.99
751.147	15.59
751.327	16.58
751.507	16.37
751.686	18.13
751.866	19.16
752.046	18.94
752.225	19.41
752.405	19.14
752.585	19.7
752.764	18.81
752.944	18.35
753.123	17.52
753.303	18.09
753.482	18.19
753.662	16.87
753.841	15.15
754.021	16.13
754.2	16.25
754.38	15.71
754.559	14.37
754.739	15.08
754.918	16.33
755.097	17.36
755.277	16.25
755.456	15.56
755.635	15.43
755.815	16.14
755.994	14.67
756.173	13.84
756.352	14.66
756.532	14.42
756.711	14.7
756.89	14.32
757.069	14.76
757.248	15
757.427	14.96
757.607	16.18
757.786	16.49
757.965	16.97
758.144	16.84
758.323	16.86
758.502	18.14
758.681	19.29
758.86	19.53
759.039	18.67
759.218	18.57
759.397	19.11
759.576	18.52
759.755	17.03
759.934	16.23
760.113	16.94
760.291	17.72
760.47	18.16
760.649	15.6
760.828	15.7
761.007	17.04
761.186	17.46
761.364	17.36
761.543	16.28
761.722	17.03
761.901	16.84
762.079	16.41
762.258	15.5
762.437	13.63
762.615	13.65
762.794	14.21
762.972	13.48
763.151	13.9
763.33	14.14
763.508	14.24
763.687	14.52
763.865	14.52
764.044	14.17
764.222	14.28
764.401	14.5
764.579	14.32
764.758	13.98
764.936	13.83
765.114	13.34
765.293	12.83
765.471	12.1
765.65	12.67
765.828	13.41
766.006	12.94
766.184	12.67
766.363	13.96
766.541	13.94
766.719	13.16
766.898	13.39
767.076	12.32
767.254	11.92
767.432	12.95
767.61	12.63
767.788	12.4
767.967	14.05
768.145	14.45
768.323	14.11
768.501	15.4
768.679	16.26
768.857	15.23
769.035	16.12
769.213	16.61
769.391	15.7
769.569	15.77
769.747	16.22
769.925	14.45
770.103	12.97
770.281	12.35
770.459	13.19
770.636	12.98
770.814	15.01
770.992	15.94
771.17	15.92
771.348	16.18
771.525	14.73
771.703	12.87
771.881	14.17
772.059	17.64
772.236	19.4
772.414	18.68
772.592	18.35
772.769	15.26
772.947	15.81
773.125	16.33
773.302	16.64
773.48	15.86
773.657	16.42
773.835	16.19
774.013	15.11
774.19	14.24
774.368	14.24
774.545	12.81
774.723	15.02
774.9	13.32
775.077	13.43
775.255	14.8
775.432	17.13
775.61	17.17
775.787	17.98
775.964	14.54
776.142	13.61
776.319	14.32
776.496	13.35
776.674	15.18
776.851	14.91
777.028	12.31
777.205	11.51
777.382	9.69
777.56	11.1
777.737	9.43
777.914	11.61
778.091	12.16
778.268	12.58
778.445	13.85
778.622	9.31
778.8	9.54
778.977	10.83
779.154	10.95
779.331	12.73
779.508	12.81
779.685	14.46
779.862	16
780.038	17.14
780.215	15.18
780.392	16.81
780.569	18.56
780.746	17.7
780.923	20.73
781.1	22.14
781.277	21.82
781.453	21.44
781.63	21.14
781.807	17.66
781.984	15.78
782.16	16.07
782.337	14.97
782.514	16.03
782.691	16.37
782.867	14.74
783.044	14.82
783.221	14.77
783.397	13.21
783.574	11.66
783.75	14.08
783.927	15.65
784.103	15.77
784.28	17.33
784.456	18.42
784.633	22.4
784.809	17.05
784.986	17.68
785.162	17.01
785.339	18.84
785.515	21.71
785.692	20.4
785.868	21.14
786.044	21.61
786.221	22.44
786.397	20.54
786.573	20.63
786.749	25.78
786.926	22.03
787.102	22.82
787.278	23.63
787.454	22.85
787.631	23.57
787.807	19.24
787.983	17.94
788.159	16.35
788.335	15.22
788.511	12.63
788.687	12
788.863	13.13
789.039	13.32
789.216	13.64
789.392	13.08
789.568	13.32
789.744	12.99
789.919	15.43
790.095	14.32
790.271	16.61
790.447	14.38
790.623	11.79
790.799	11.71
790.975	10.62
791.151	9.63
791.327	7.06
791.502	5.73
791.678	8.73
791.854	6.11
792.03	6.85
792.205	4.57
792.381	7.47
792.557	11.03
792.733	10.06
792.908	8.98
793.084	6.08
793.259	8.56
793.435	12.37
793.611	12.25
793.786	12.69
793.962	11.76
794.137	10.57
794.313	11.15
794.488	10.73
794.664	10.72
794.839	10.61
795.015	13.13
795.19	12.5
795.366	8.01
795.541	9.07
795.716	9.61
795.892	10.29
796.067	11.4
796.242	10.93
796.418	10.03
796.593	13
796.768	12.97
796.944	14.53
797.119	16.99
797.294	18.81
797.469	17.99
797.644	18.61
797.82	18.34
797.995	19.57
798.17	19.76
798.345	21.84
798.52	21.79
798.695	19.23
798.87	17.57
799.045	13.39
799.22	13.88
799.395	12.91
799.57	10.63
799.745	13.87
799.92	12.63
800.095	12.52
800.27	11.22
800.445	7.74
800.62	12.08
800.795	12.34
800.97	14.29
801.145	15.74
801.319	13.15
801.494	12.86
801.669	12.21
801.844	11.46
802.018	9.05
802.193	6.46
802.368	6.73
802.543	6.44
802.717	9.13
802.892	7.3
803.067	9.28
803.241	8.12
803.416	9.71
803.59	6.25
803.765	9.57
803.94	10.59
804.114	15.38
804.289	18.16
804.463	20.54
804.638	16.8
804.812	20.38
804.986	14.74
805.161	20.89
805.335	19.4
805.51	21.69
805.684	20.8
805.858	21.44
806.033	15.7
806.207	10.67
806.381	10.21
806.556	10.87
806.73	13.45
806.904	16.68
807.078	16.01
807.253	17.08
807.427	16.24
807.601	14.06
807.775	18.09
807.949	22.16
808.123	24.33
808.298	20.91
808.472	20.57
808.646	15.54
808.82	13.62
808.994	14.17
809.168	14.4
809.342	10.26
809.516	12.91
809.69	7.28
809.864	4.24
810.038	3.96
810.212	5.06
810.385	9.53
810.559	17.44
810.733	18.96
810.907	10.67
811.081	12.99
811.255	18.06
811.428	18.46
811.602	19.82
811.776	19.39
811.95	19.97
812.123	22.56
812.297	20.97
812.471	13.64
812.644	12.67
812.818	18.34
812.992	17.51
813.165	20.72
813.339	19.54
813.512	17.58
813.686	17.88
813.86	18.78
814.033	15.03
814.207	12.8
814.38	18.38
814.554	18.11
814.727	22.09
814.9	24.54
815.074	20.24
815.247	20.43
815.421	25.63
815.594	27.64
815.767	29.78
815.941	34.55
816.114	32.41
816.287	28.14
816.46	29.21
816.634	25.31
816.807	17.54
816.98	14.79
817.153	14.44
817.327	13.94
817.5	11.37
817.673	5.79
817.846	3.57
818.019	6.23
818.192	7.23
818.365	3
818.538	4.54
818.711	5.03
818.884	14.97
819.057	10.73
819.23	4.43
819.403	6.21
819.576	12.61
819.749	11.04
819.922	8.01
820.095	7.87
820.268	13.4
820.441	13.56
820.614	15.93
820.786	11.16
820.959	14.8
821.132	16.06
821.305	14.93
821.477	14.18
821.65	14.61
821.823	16.8
821.996	16.15
822.168	14.89
822.341	15.57
822.514	15.55
822.686	15.45
822.859	14.89
823.031	14.3
823.204	14.84
823.376	14.93
823.549	15.23
823.722	14.56
823.894	15.15
824.067	14.79
824.239	14.02
824.411	13.19
824.584	13.35
824.756	14.22
824.929	15.08
825.101	14.71
825.273	13.51
825.446	14.17
825.618	14.61
825.79	13.44
825.963	14.52
826.135	16.1
826.307	16.88
826.479	16.65
826.652	15.92
826.824	15.64
826.996	16.36
827.168	16.69
827.34	15.72
827.512	14.88
827.684	15.98
827.856	16.66
828.029	14.07
828.201	14.25
828.373	15.99
828.545	15.36
828.717	15.27
828.889	14
829.061	14.27
829.232	12.57
829.404	11.62
829.576	11.54
829.748	8.65
829.92	9.42
830.092	10.32
830.264	6.6
830.436	7.48
830.607	8.32
830.779	7.34
830.951	5.23
831.123	5.61
831.294	6.65
831.466	2.24
831.638	1.97
831.809	1.6
831.981	-5.93
832.153	0.9
832.324	-0.95
832.496	-4.43
832.667	-7.32
832.839	-6.87
833.011	-1.64
833.182	2.64
833.354	8.72
833.525	9.59
833.697	11.29
833.868	11.46
834.039	9.53
834.211	12.15
834.382	13.64
834.554	17.49
834.725	18.14
834.896	16.89
835.068	15.49
835.239	14.09
835.41	15.8
835.581	15.31
835.753	21.14
835.924	22.26
836.095	19.47
836.266	19.4
836.438	19.45
836.609	24.49
836.78	25.59
836.951	27.37
837.122	30.66
837.293	29.83
837.464	30.5
837.635	24.29
837.806	20.35
837.977	21.2
838.148	22.94
838.319	18.96
838.49	11.26
838.661	10.53
838.832	9
839.003	3.4
839.174	3.33
839.345	-4.6
839.516	-1.2
839.687	11.19
839.857	8.62
840.028	4.16
840.199	12.3
840.37	15.76
840.54	18.15
840.711	13.9
840.882	10.96
841.053	6.23
841.223	13.57
841.394	15.4
841.564	9.97
841.735	21.37
841.906	23.1
842.076	21.41
842.247	23.41
842.417	20.63
842.588	22.86
842.758	26.97
842.929	34.97
843.099	40.01
843.27	41.72
843.44	37.74
843.611	32.17
843.781	29.51
843.951	23.24
844.122	12.42
844.292	0.15
844.462	6.44
844.633	20.68
844.803	22.3
844.973	1.37
845.144	2.86
845.314	11.94
845.484	13.67
845.654	17.06
845.824	22.31
845.995	25.04
846.165	41.08
846.335	37.53
846.505	26.03
846.675	15.78
846.845	21.21
847.015	19.54
847.185	14.1
847.355	16.23
847.525	29.44
847.695	31.98
847.865	30.16
848.035	31.42
848.205	27.28
848.375	33.6
848.545	46.22
848.715	36.61
848.884	28.99
849.054	8.55
849.224	-24.47
849.394	-55.24
849.564	-78.64
849.733	-73.31
849.903	-197.46
850.073	-213.83
850.243	-245.82
850.412	-238.25
850.582	-202.61
850.752	-181.46
850.921	-75.8
851.091	-34.9
851.26	-18.24
851.43	-15.9
851.599	-13.26
851.769	3.41
851.939	2.46
852.108	9.52
852.278	11.18
852.447	11.89
852.616	-3.7
852.786	-14.42
852.955	-3.93
853.125	-23.1
853.294	-26.1
853.463	-23.67
853.633	-30.8
853.802	-8.79
853.971	2.89
854.141	-1.41
854.31	-11.14
854.479	1.35
854.648	-0.74
854.818	-6.38
854.987	15.99
855.156	3.86
855.325	12.85
855.494	23.79
855.663	2.44
855.832	-11.92
856.001	6.06
856.171	14.86
856.34	22.86
856.509	26.98
856.678	16.77
856.847	-12
857.016	16.3
857.185	14.42
857.353	11.63
857.522	29.11
857.691	27.54
857.86	25.42
858.029	21.36
858.198	19.09
858.367	18.69
858.535	25.43
858.704	39.62
858.873	37.99
859.042	34.41
859.21	25.82
859.379	20.87
859.548	19.74
859.717	16.22
859.885	23.37
860.054	32.63
860.222	26.22
860.391	29.71
860.56	30.47
860.728	28.73
860.897	26.2
861.065	34.34
861.234	35.01
861.402	26.5
861.571	29.74
861.739	30.18
861.908	26.09
862.076	38.73
862.244	34.88
862.413	40.39
862.581	39.47
862.749	43.1
862.918	49.94
863.086	46.77
863.254	57.59
863.423	47.5
863.591	40.41
863.759	38.98
863.927	28.78
864.096	6.77
864.264	12.88
864.432	23.31
864.6	26.58
864.768	11.16
864.936	-14.79
865.104	15.33
865.272	27.8
865.44	21.4
865.608	20.6
865.776	23.64
865.944	24.81
866.112	7.42
866.28	10.2
866.448	21.94
866.616	9.01
866.784	16.37
866.952	6.2
867.12	0.23
867.288	-2.98
867.455	-3.31
867.623	-7.39
867.791	-8.4
867.959	0.86
868.127	-0.29
868.294	-16.61
868.462	10.25
868.63	0.36
868.797	1.94
868.965	15.57
869.133	23.12
869.3	15.36
869.468	7.36
869.636	21.11
869.803	27.33
869.971	32.1
870.138	24.8
870.306	16.04
870.473	7.31
870.641	6.97
870.808	-0.47
870.975	1.39
871.143	13.83
871.31	14.51
871.478	12.53
871.645	14.35
871.812	-28.83
871.98	-14.74
872.147	-11.66
872.314	-22.64
872.482	-5.94
872.649	-6.2
872.816	-2.34
872.983	4.47
873.15	24.09
873.318	12.35
873.485	-5.65
873.652	3.59
873.819	16.8
873.986	18.28
874.153	32.66
874.32	35.36
874.487	45.38
874.654	45.18
874.821	21.22
874.988	-24.06
875.155	-27.49
875.322	-2.28
875.489	-4.71
875.656	-13.84
875.823	-27.03
875.99	-34.88
876.157	-39.06
876.324	-29.71
876.49	-36.94
876.657	-25.45
876.824	21.8
876.991	21.46
877.157	20.06
877.324	26.76
877.491	30.75
877.658	28.41
877.824	42.67
877.991	32.76
878.157	9.77
878.324	-1.94
878.491	-18.24
878.657	-44.76
878.824	-68.14
878.99	-67.32
879.157	-99.1
879.323	-117.61
879.49	-92.84
879.656	-147.37
879.823	-192.18
879.989	-150.48
880.156	-154.56
880.322	-95.38
880.488	-30.05
880.655	-25.1
880.821	-13.51
880.987	-53.98
881.154	-62.48
881.32	-44.28
881.486	-7.93
881.652	4.27
881.819	7.09
881.985	9.27
882.151	4.52
882.317	0.99
882.483	6.07
882.649	7.44
882.816	8.43
882.982	10.53
883.148	9.52
883.314	8.04
883.48	8.72
883.646	8.42
883.812	10.6
883.978	12.08
884.144	12.49
884.31	8.55
884.476	9.14
884.642	13.44
884.807	14.69
884.973	17.32
885.139	17.88
885.305	18.55
885.471	20.14
885.637	20.07
885.802	20.25
885.968	20.62
886.134	25.95
886.3	26.97
886.465	23.07
886.631	20.35
886.797	21.48
886.962	23.29
887.128	25.56
887.293	16.33
887.459	4.14
887.625	3.6
887.79	-3.67
887.956	-14.77
888.121	-18.77
888.287	-15.38
888.452	-13.12
888.618	-32.73
888.783	-49.52
