Data from 2937893_Reflection_3.txt Node
Date: Wed Jul 15 14:00:34 EDT 2015
User: robert
Spectrometer: USB4E03001
Autoset integration time: false
Trigger mode: 4
Integration Time (sec): 1.000000E-1
Scans to average: 10
Electric dark correction enabled: true
Nonlinearity correction enabled: false
Boxcar width: 5
Stray light correction enabled: false
XAxis mode: Wavelengths
Stop averaging: false
Number of Pixels in Spectrum: 3648
>>>>>Begin Spectral Data<<<<<
177.566	-250
177.785	-0.67
178.005	222.11
178.225	-156.73
178.445	383.95
178.665	297.54
178.885	1916.67
179.105	29.93
179.324	59.06
179.544	40.21
179.764	40.44
179.984	-8.68
180.204	19.6
180.423	72.95
180.643	146.08
180.863	138.88
181.083	159.28
181.302	225.4
181.522	188.7
181.742	260.22
181.961	-83.89
182.181	93.98
182.401	21.97
182.621	80.46
182.84	756.55
183.06	279.09
183.279	741.41
183.499	1640.64
183.719	-283.28
183.938	-133.45
184.158	-176.42
184.377	-280.81
184.597	-68.92
184.816	-95.87
185.036	-151.31
185.256	-145.38
185.475	-110.41
185.695	-148.54
185.914	-61.88
186.134	-38.41
186.353	-104.35
186.572	-60.6
186.792	-83.89
187.011	-174.06
187.231	-105.84
187.45	-32.49
187.67	-41.25
187.889	-177.48
188.108	-111.94
188.328	-184.59
188.547	-116.63
188.766	-154.1
188.986	-298.7
189.205	-56.92
189.424	-65.45
189.644	-60.99
189.863	-73.97
190.082	-71.05
190.302	-26.6
190.521	-50.54
190.74	-61.33
190.959	-128.71
191.178	-84.58
191.398	-45.5
191.617	-115.59
191.836	-88.26
192.055	-145.62
192.274	-145.93
192.494	-104.84
192.713	-36.55
192.932	-27.12
193.151	-38.19
193.37	12.79
193.589	27.98
193.808	-22.14
194.027	-37.06
194.246	-67.37
194.465	9.57
194.685	3.81
194.904	44.11
195.123	-38.28
195.342	39.86
195.561	157.81
195.78	272.84
195.999	209.79
196.218	146.97
196.436	102.98
196.655	80.39
196.874	46.3
197.093	54.37
197.312	47.34
197.531	15.32
197.75	-10.61
197.969	-4.84
198.188	-47.56
198.407	-47.33
198.625	-20.02
198.844	-72.83
199.063	-82.08
199.282	-77.05
199.501	-124.08
199.719	-119.32
199.938	-70.76
200.157	-35.1
200.376	2.01
200.594	19.43
200.813	15.22
201.032	4.22
201.251	28.92
201.469	44.14
201.688	37.64
201.907	54
202.125	93.74
202.344	112.48
202.563	90.44
202.781	86.67
203	53.62
203.218	42.33
203.437	41.15
203.656	36.07
203.874	24.69
204.093	14.9
204.311	-24.18
204.53	-102.41
204.748	-42.98
204.967	-212.69
205.185	-80.68
205.404	473.18
205.622	974.52
205.841	190.36
206.059	311.83
206.278	-2351.16
206.496	-231.68
206.715	269.8
206.933	6.06
207.151	-834.53
207.37	75
207.588	653.1
207.806	46.23
208.025	54.72
208.243	28.17
208.461	36
208.68	-22.28
208.898	-9.29
209.116	6.26
209.335	1.48
209.553	-43.84
209.771	7.57
209.989	0.45
210.208	15.8
210.426	36.78
210.644	17.81
210.862	14.15
211.081	23.9
211.299	62.57
211.517	40.09
211.735	53.39
211.953	49.81
212.171	46.21
212.39	71.86
212.608	36.29
212.826	44.7
213.044	50.5
213.262	43.29
213.48	30.66
213.698	30.54
213.916	46.22
214.134	40.62
214.352	40.04
214.57	31.13
214.788	22.85
215.006	27.9
215.224	5.73
215.442	-3.81
215.66	35.44
215.878	32.6
216.096	-6.41
216.314	-25.61
216.532	-15.01
216.75	0.82
216.968	28.89
217.185	25.73
217.403	45.4
217.621	68.85
217.839	68.4
218.057	53.27
218.275	45.64
218.492	31.05
218.71	12.79
218.928	-5.91
219.146	-12.66
219.363	-15.03
219.581	23.62
219.799	18.44
220.017	22.95
220.234	12.75
220.452	-0.15
220.67	20.43
220.887	33.83
221.105	42.18
221.323	55.32
221.54	48.01
221.758	26.21
221.976	0.24
222.193	2.22
222.411	-4.67
222.629	1.65
222.846	14.08
223.064	13.82
223.281	0.4
223.499	-12.54
223.716	-17.91
223.934	-26.53
224.151	-8.67
224.369	-5.02
224.586	-7.34
224.804	-15.17
225.021	-19.48
225.239	-16.97
225.456	-28.94
225.674	-9.76
225.891	6.73
226.108	4.3
226.326	14.01
226.543	13.99
226.76	14
226.978	16.25
227.195	15.7
227.413	11.34
227.63	10.07
227.847	9.06
228.064	6.42
228.282	3.27
228.499	4.6
228.716	3.44
228.934	-3.45
229.151	-4.28
229.368	-4.38
229.585	-2.58
229.802	-1.97
230.02	-2.05
230.237	-4.24
230.454	-5.42
230.671	-2.96
230.888	-1.13
231.105	-4.75
231.323	0.89
231.54	10.24
231.757	4.65
231.974	0.17
232.191	0.81
232.408	2.33
232.625	11.09
232.842	16.82
233.059	9.43
233.276	3.23
233.493	5.14
233.71	9.64
233.927	-4.01
234.144	0.68
234.361	0.57
234.578	10.23
234.795	10.27
235.012	12.17
235.229	11.99
235.446	14.03
235.663	19.36
235.879	21.57
236.096	15.73
236.313	12.09
236.53	16.44
236.747	11.55
236.964	-0.37
237.181	-1.66
237.397	-4.38
237.614	-8.52
237.831	-12.42
238.048	-10.45
238.264	-8.29
238.481	-7.02
238.698	-1.45
238.915	-4.1
239.131	0.84
239.348	6.32
239.565	7
239.781	5.04
239.998	5.16
240.215	7.23
240.431	3.93
240.648	2.4
240.865	2.16
241.081	0.76
241.298	3.07
241.514	4.56
241.731	1.87
241.947	0.03
242.164	1.46
242.38	3.18
242.597	3.59
242.814	3.08
243.03	3.31
243.246	1.97
243.463	1.83
243.679	1.2
243.896	2.48
244.112	2.89
244.329	3.42
244.545	3.11
244.762	0.09
244.978	0.61
245.194	2.82
245.411	2.29
245.627	5.96
245.843	7.84
246.06	7.71
246.276	6.8
246.492	6.79
246.709	8.48
246.925	9.44
247.141	9.63
247.357	9.42
247.574	8.15
247.79	8.2
248.006	7.65
248.222	6.69
248.439	6.09
248.655	5.94
248.871	5.21
249.087	4.43
249.303	3.26
249.519	1.62
249.736	0.82
249.952	2.06
250.168	3.33
250.384	4.77
250.6	6.77
250.816	6.51
251.032	6.98
251.248	8.48
251.464	8.4
251.68	6.51
251.896	9.99
252.112	10.68
252.328	9.31
252.544	7.33
252.76	5.8
252.976	5.29
253.192	7.57
253.408	7.12
253.624	7.69
253.84	5.92
254.056	5.09
254.272	4.01
254.487	4.35
254.703	6.48
254.919	5.07
255.135	5.13
255.351	3.21
255.567	0.34
255.782	0.24
255.998	-4.09
256.214	-1.15
256.43	1.33
256.646	0.87
256.861	3.96
257.077	0.38
257.293	1.85
257.508	3.18
257.724	1.63
257.94	0.69
258.155	0.41
258.371	2.8
258.587	2.56
258.802	3.66
259.018	3.56
259.234	2.33
259.449	4.64
259.665	4.95
259.88	5.14
260.096	5.71
260.312	5.65
260.527	5.51
260.743	4.87
260.958	4.7
261.174	4.24
261.389	3.39
261.605	3.57
261.82	2.21
262.036	2.21
262.251	0.78
262.466	0.5
262.682	1
262.897	0.09
263.113	1.77
263.328	1.25
263.543	0.88
263.759	2.69
263.974	1.36
264.189	0.17
264.405	-2.34
264.62	0.56
264.835	-0.6
265.051	0.32
265.266	0.61
265.481	0.22
265.696	-0.21
265.912	-1.04
266.127	-2.19
266.342	-2.74
266.557	0.25
266.773	-1.05
266.988	-2.05
267.203	-0.72
267.418	-1.57
267.633	-2.06
267.848	-2.03
268.064	-0.82
268.279	1.03
268.494	2.07
268.709	1.44
268.924	-0.02
269.139	2.52
269.354	2.2
269.569	0.81
269.784	0.32
269.999	2.56
270.214	1.81
270.429	2.71
270.644	1.53
270.859	1.71
271.074	2.48
271.289	4.01
271.504	3.33
271.719	3.28
271.934	5.38
272.149	4.12
272.363	2.91
272.578	3.94
272.793	3.9
273.008	3.66
273.223	3.7
273.438	3.63
273.653	2.08
273.867	3.06
274.082	3.36
274.297	1.15
274.512	3.06
274.726	2.47
274.941	0.88
275.156	-0.18
275.371	-0.24
275.585	-1.16
275.8	-0.02
276.015	0.54
276.229	-0.79
276.444	-0.24
276.659	0.05
276.873	-1.12
277.088	1.55
277.302	0.51
277.517	0.48
277.732	-0.6
277.946	0.26
278.161	0.06
278.375	1.39
278.59	1.01
278.804	-0.54
279.019	0.24
279.233	1.15
279.448	1.06
279.662	1.88
279.877	1.75
280.091	2.1
280.306	3.7
280.52	3.63
280.735	2.66
280.949	3.91
281.163	5.12
281.378	5.85
281.592	6.61
281.806	5.91
282.021	7.43
282.235	8.41
282.449	11.06
282.664	10.47
282.878	10.09
283.092	10.73
283.307	9.83
283.521	9.4
283.735	9.29
283.949	7.61
284.164	7.18
284.378	5.86
284.592	5.4
284.806	3.41
285.02	2.68
285.234	3
285.449	2.68
285.663	2.52
285.877	2.47
286.091	1.96
286.305	2.34
286.519	2.58
286.733	2.99
286.947	2.96
287.161	3.26
287.375	3.81
287.589	3.94
287.803	3.24
288.017	3.98
288.231	4.49
288.445	4.78
288.659	5.3
288.873	4.67
289.087	4.21
289.301	4.53
289.515	6.1
289.729	4.96
289.943	5.09
290.157	5.04
290.371	5.35
290.584	5.03
290.798	5.02
291.012	5.94
291.226	7.65
291.44	9.82
291.654	10.02
291.867	8.91
292.081	9.29
292.295	8.72
292.509	9.8
292.722	10.32
292.936	10.51
293.15	12.06
293.364	11.7
293.577	10.4
293.791	9.28
294.005	9.79
294.218	10.87
294.432	11.39
294.645	12.32
294.859	11.46
295.073	11.02
295.286	11.44
295.5	9.96
295.713	9.69
295.927	9.43
296.14	8.91
296.354	9.07
296.568	9.18
296.781	9.24
296.994	9.11
297.208	9.63
297.421	8.95
297.635	7.81
297.848	8.79
298.062	9.41
298.275	9.15
298.489	8.93
298.702	7.83
298.915	7.65
299.129	7.93
299.342	7.31
299.555	8.32
299.769	8.79
299.982	10.93
300.195	10.99
300.409	10.16
300.622	11.2
300.835	11.93
301.048	12.85
301.262	12.64
301.475	12.46
301.688	12.01
301.901	10.85
302.115	11.68
302.328	11.33
302.541	10.06
302.754	10.13
302.967	10.32
303.18	10.04
303.393	10.12
303.607	11.1
303.82	11.56
304.033	12.76
304.246	12.8
304.459	12.72
304.672	13.07
304.885	13.53
305.098	13.86
305.311	12.69
305.524	13.37
305.737	12.16
305.95	11.29
306.163	10.59
306.376	11.05
306.589	10.34
306.802	10.54
307.015	9.36
307.228	10.08
307.44	9.89
307.653	10.5
307.866	9.74
308.079	11.65
308.292	9.74
308.505	8.83
308.718	9.02
308.93	9.45
309.143	9.52
309.356	9.63
309.569	9.67
309.781	10.87
309.994	11.93
310.207	12.19
310.42	11.99
310.632	13.2
310.845	13.21
311.058	13.38
311.27	14.88
311.483	14.07
311.696	12.8
311.908	12.91
312.121	11.6
312.333	10.17
312.546	9.17
312.759	8.54
312.971	9.5
313.184	10.8
313.396	10.08
313.609	8.58
313.821	10.37
314.034	11.14
314.246	9.69
314.459	10.71
314.671	10.27
314.884	12.38
315.096	12.87
315.309	10.35
315.521	8.93
315.733	9.02
315.946	9.18
316.158	7.95
316.371	9.77
316.583	10.75
316.795	12.64
317.008	14.99
317.22	14.7
317.432	12.38
317.644	14.51
317.857	16.06
318.069	15.46
318.281	17.01
318.494	18.23
318.706	15.98
318.918	16.54
319.13	13.56
319.342	13.23
319.555	11.8
319.767	12.16
319.979	11.29
320.191	10.56
320.403	10.73
320.615	9.79
320.827	7.31
321.039	9
321.252	8.21
321.464	9.38
321.676	9.28
321.888	10.36
322.1	11.4
322.312	10.08
322.524	9.36
322.736	8.2
322.948	7.29
323.16	10.35
323.372	10.83
323.584	10.68
323.796	8.67
324.007	7.47
324.219	5.67
324.431	6.92
324.643	8.97
324.855	9.9
325.067	11.68
325.279	12.05
325.491	10.99
325.702	10.48
325.914	12.05
326.126	14.47
326.338	15.18
326.55	17.89
326.761	17.52
326.973	17.24
327.185	17.83
327.396	17.47
327.608	18.29
327.82	17.69
328.032	18.65
328.243	18.48
328.455	17.76
328.666	17.53
328.878	17.47
329.09	16.48
329.301	15.13
329.513	15.86
329.725	16.88
329.936	15.5
330.148	14.21
330.359	14.91
330.571	14.68
330.782	16.2
330.994	17.14
331.205	16.13
331.417	16.92
331.628	17.42
331.84	17.76
332.051	16.96
332.262	18.84
332.474	21.22
332.685	21.94
332.897	22.34
333.108	21.77
333.319	23.06
333.531	25.49
333.742	25.83
333.953	27.23
334.165	26.65
334.376	27.74
334.587	27.14
334.799	26.43
335.01	25.24
335.221	24.53
335.432	25.04
335.644	24.87
335.855	23.08
336.066	23.18
336.277	21.67
336.488	22.48
336.7	22.29
336.911	22.22
337.122	21.94
337.333	22.51
337.544	22.56
337.755	22.42
337.966	22.15
338.177	22.5
338.388	22.55
338.599	23.5
338.811	23.04
339.022	22.27
339.233	22.36
339.444	22.92
339.655	22.97
339.866	22.76
340.076	22.15
340.287	23.23
340.498	22.76
340.709	22.64
340.92	22.8
341.131	22.95
341.342	23.4
341.553	23.52
341.764	23.38
341.975	23.02
342.185	23.9
342.396	24.23
342.607	23.36
342.818	23.79
343.029	24.01
343.239	23.98
343.45	24.16
343.661	24.37
343.872	24.66
344.082	25.32
344.293	25.74
344.504	26.81
344.714	27.05
344.925	26.26
345.136	26.38
345.346	27.19
345.557	28.59
345.768	28.32
345.978	28.87
346.189	28.72
346.399	27.02
346.61	25.72
346.821	23.64
347.031	23.46
347.242	24.76
347.452	26.1
347.663	26.18
347.873	24.92
348.084	23.86
348.294	22.75
348.504	23.48
348.715	25.38
348.925	27.9
349.136	28.25
349.346	28.5
349.557	27.8
349.767	26.35
349.977	24.41
350.188	25.14
350.398	27.3
350.608	28.72
350.819	28.26
351.029	27.11
351.239	26.41
351.449	26.91
351.66	26.67
351.87	28.64
352.08	28.43
352.29	29.43
352.501	29.18
352.711	28.05
352.921	26.86
353.131	27.21
353.341	28.25
353.552	26.88
353.762	25.9
353.972	26.96
354.182	25.23
354.392	26.14
354.602	26.18
354.812	25.33
355.022	25.55
355.232	26.18
355.442	26.4
355.652	26.94
355.862	26.71
356.072	27.13
356.282	26.25
356.492	26.58
356.702	26.56
356.912	26.81
357.122	26.96
357.332	27.24
357.542	27.42
357.752	26.93
357.962	27.02
358.171	27.55
358.381	27.34
358.591	27.93
358.801	27.71
359.011	27.6
359.221	27.51
359.43	28.19
359.64	27.96
359.85	28.16
360.06	28.16
360.269	28
360.479	28.87
360.689	29.33
360.899	29.03
361.108	29.22
361.318	29.65
361.528	29.88
361.737	29.66
361.947	29.69
362.156	30.22
362.366	29.59
362.576	29.89
362.785	29.02
362.995	29.2
363.204	28.92
363.414	28.9
363.623	28.14
363.833	28.16
364.042	27.76
364.252	27.18
364.461	25.78
364.671	26.54
364.88	25.29
365.09	25.53
365.299	24.99
365.509	25.3
365.718	24.69
365.927	24.72
366.137	24.55
366.346	24.63
366.555	24.13
366.765	24.69
366.974	24.77
367.183	24.8
367.393	25.79
367.602	26.29
367.811	25.7
368.021	26.65
368.23	26.71
368.439	26.64
368.648	26.55
368.857	27.2
369.067	26.74
369.276	26.77
369.485	27.38
369.694	26.73
369.903	25.95
370.112	26.29
370.321	24.93
370.531	25.25
370.74	25.51
370.949	25.59
371.158	25.64
371.367	25.58
371.576	25.05
371.785	24.7
371.994	24.3
372.203	24.21
372.412	24.36
372.621	25.35
372.83	25.26
373.039	25.13
373.248	24.89
373.457	25.19
373.666	25.51
373.874	25.18
374.083	25.19
374.292	24.74
374.501	25.22
374.71	25.36
374.919	25.14
375.128	24.64
375.336	24.19
375.545	24.24
375.754	23.77
375.963	23.68
376.171	23.94
376.38	23.55
376.589	23.75
376.798	23.79
377.006	23.25
377.215	22.83
377.424	23.18
377.632	22.93
377.841	22.78
378.05	22.74
378.258	22.46
378.467	23.01
378.675	23.36
378.884	23.74
379.093	24.04
379.301	24.22
379.51	24.68
379.718	24.31
379.927	24.56
380.135	24.77
380.344	24.48
380.552	24.82
380.761	24.43
380.969	24.26
381.177	24.25
381.386	23.75
381.594	23.68
381.803	23.39
382.011	23.41
382.219	23.53
382.428	23.51
382.636	23.4
382.845	23.03
383.053	23.14
383.261	23.55
383.469	22.96
383.678	22.83
383.886	22.42
384.094	22.51
384.302	21.9
384.511	21.89
384.719	21.69
384.927	21.64
385.135	21.45
385.343	21.24
385.552	21.29
385.76	21.68
385.968	21.62
386.176	21.92
386.384	21.97
386.592	22.45
386.8	22.3
387.008	22.22
387.216	22.11
387.424	22.1
387.633	22.01
387.841	21.67
388.049	21.37
388.257	21.49
388.465	21.43
388.672	21.09
388.88	21.26
389.088	21.02
389.296	20.98
389.504	21.04
389.712	21.08
389.92	20.79
390.128	20.94
390.336	21.24
390.544	20.98
390.751	21.05
390.959	21.21
391.167	20.83
391.375	21.23
391.583	21.37
391.79	21.75
391.998	21.83
392.206	21.99
392.414	21.62
392.621	21.28
392.829	21.56
393.037	21.55
393.244	21.57
393.452	21.86
393.66	21.66
393.867	21.64
394.075	21.61
394.283	21.64
394.49	21.82
394.698	22.08
394.905	22.19
395.113	21.8
395.32	21.7
395.528	21.85
395.735	21.86
395.943	22.02
396.15	22.11
396.358	22.05
396.565	22.27
396.773	22.36
396.98	22.38
397.188	22.63
397.395	22.92
397.602	23.2
397.81	23.2
398.017	23.38
398.225	23.64
398.432	23.66
398.639	23.58
398.847	23.5
399.054	23.33
399.261	23.4
399.468	23.44
399.676	24
399.883	24.1
400.09	24.22
400.297	23.97
400.505	23.6
400.712	23.44
400.919	23.73
401.126	23.87
401.333	23.95
401.54	23.8
401.748	23.69
401.955	23.45
402.162	23.51
402.369	23.11
402.576	23.11
402.783	23.4
402.99	23.84
403.197	23.72
403.404	23.52
403.611	23.48
403.818	23.69
404.025	23.86
404.232	23.8
404.439	23.83
404.646	24.14
404.853	24.36
405.06	24.26
405.267	24.1
405.474	23.97
405.681	24.2
405.887	24.49
406.094	24.54
406.301	24.48
406.508	24.4
406.715	24.41
406.922	24.41
407.128	24.38
407.335	24.43
407.542	24.5
407.749	24.52
407.955	24.14
408.162	23.82
408.369	23.6
408.575	23.99
408.782	23.95
408.989	23.49
409.195	23
409.402	22.83
409.609	22.86
409.815	23.13
410.022	23.44
410.228	23.62
410.435	23.84
410.642	23.75
410.848	23.64
411.055	23.58
411.261	23.69
411.468	24.28
411.674	24.3
411.881	24.24
412.087	24.02
412.294	24.03
412.5	23.8
412.706	23.6
412.913	23.87
413.119	23.56
413.326	23.51
413.532	23.55
413.738	23.59
413.945	23.62
414.151	23.51
414.357	23.31
414.564	23.03
414.77	23.22
414.976	23.35
415.182	23.35
415.389	23.12
415.595	23.32
415.801	23.47
416.007	23.14
416.214	23.22
416.42	23.62
416.626	23.77
416.832	24.04
417.038	24.12
417.244	23.93
417.45	23.97
417.657	24.22
417.863	24.17
418.069	24.27
418.275	24.38
418.481	24.36
418.687	24.09
418.893	24.16
419.099	24.14
419.305	24.13
419.511	24.18
419.717	24.01
419.923	23.96
420.129	23.96
420.335	23.66
420.541	23.57
420.746	23.6
420.952	23.68
421.158	23.46
421.364	23.24
421.57	23.21
421.776	23.19
421.982	23.29
422.187	23.21
422.393	23.24
422.599	23.42
422.805	23.45
423.01	23.4
423.216	23.28
423.422	23.39
423.628	23.31
423.833	23.37
424.039	23.34
424.245	23.27
424.45	23.29
424.656	23.22
424.862	23.15
425.067	23.11
425.273	22.95
425.478	22.98
425.684	22.92
425.889	23.06
426.095	22.88
426.301	23
426.506	22.86
426.712	22.81
426.917	22.65
427.123	22.64
427.328	22.41
427.533	22.57
427.739	22.47
427.944	22.35
428.15	22.14
428.355	22.23
428.561	21.97
428.766	22.11
428.971	22.29
429.177	22.3
429.382	22.42
429.587	22.6
429.793	22.67
429.998	22.74
430.203	22.74
430.408	22.98
430.614	23.05
430.819	23.06
431.024	22.8
431.229	22.7
431.434	23.01
431.64	22.65
431.845	22.74
432.05	22.61
432.255	22.53
432.46	22.8
432.665	22.86
432.87	22.73
433.076	22.78
433.281	22.94
433.486	22.94
433.691	22.95
433.896	23.04
434.101	23.04
434.306	23.1
434.511	23.05
434.716	22.91
434.921	22.92
435.126	22.89
435.331	22.99
435.535	23.06
435.74	23.1
435.945	22.85
436.15	23.01
436.355	23.14
436.56	23.13
436.765	23.15
436.97	23.07
437.174	23
437.379	23.11
437.584	23.14
437.789	23.23
437.993	23.18
438.198	22.99
438.403	23.06
438.608	22.95
438.812	22.93
439.017	22.84
439.222	22.86
439.426	22.72
439.631	22.62
439.836	22.43
440.04	22.38
440.245	22.45
440.45	22.55
440.654	22.51
440.859	22.42
441.063	22.5
441.268	22.62
441.472	22.5
441.677	22.56
441.881	22.59
442.086	22.56
442.29	22.47
442.495	22.31
442.699	22.3
442.904	22.17
443.108	22.27
443.312	22.11
443.517	21.95
443.721	21.93
443.925	21.86
444.13	22.05
444.334	22.22
444.538	22.2
444.743	22.3
444.947	22.34
445.151	22.43
445.356	22.46
445.56	22.45
445.764	22.53
445.968	22.68
446.173	22.75
446.377	22.71
446.581	22.61
446.785	22.7
446.989	22.64
447.193	22.64
447.398	22.62
447.602	22.48
447.806	22.57
448.01	22.59
448.214	22.58
448.418	22.58
448.622	22.46
448.826	22.48
449.03	22.23
449.234	22.27
449.438	22.28
449.642	22.27
449.846	22.18
450.05	22.11
450.254	22.13
450.458	22.12
450.662	22.11
450.866	22.02
451.069	22.33
451.273	22.36
451.477	22.37
451.681	22.38
451.885	22.21
452.089	22.28
452.292	22.16
452.496	22.18
452.7	21.98
452.904	21.67
453.107	21.69
453.311	21.37
453.515	21.56
453.719	21.37
453.922	21.33
454.126	21.45
454.33	21.48
454.533	21.46
454.737	21.2
454.94	21.3
455.144	21.52
455.348	21.55
455.551	21.66
455.755	21.49
455.958	21.59
456.162	21.5
456.365	21.5
456.569	21.54
456.772	21.53
456.976	21.75
457.179	21.8
457.383	21.93
457.586	21.86
457.79	21.91
457.993	21.99
458.196	22.11
458.4	22.24
458.603	22.19
458.807	22.23
459.01	22.35
459.213	22.24
459.417	22.11
459.62	22.1
459.823	22.22
460.026	22.15
460.23	22.19
460.433	22.05
460.636	22.11
460.839	22.18
461.042	22.33
461.246	22.29
461.449	22.38
461.652	22.51
461.855	22.52
462.058	22.41
462.261	22.51
462.464	22.47
462.668	22.49
462.871	22.43
463.074	22.34
463.277	22.11
463.48	22.22
463.683	22.39
463.886	22.58
464.089	22.52
464.292	22.51
464.495	22.55
464.698	22.61
464.901	22.83
465.104	22.74
465.306	22.73
465.509	22.89
465.712	22.72
465.915	22.54
466.118	22.38
466.321	22.5
466.524	22.68
466.726	22.76
466.929	22.88
467.132	22.85
467.335	23.17
467.538	23.2
467.74	23.03
467.943	23.2
468.146	23.33
468.348	23.33
468.551	23.26
468.754	23.21
468.956	22.99
469.159	23.02
469.362	23.06
469.564	22.76
469.767	22.78
469.969	23.12
470.172	23.15
470.375	22.98
470.577	23.08
470.78	23.17
470.982	23.3
471.185	23.65
471.387	23.57
471.59	23.54
471.792	23.65
471.995	23.56
472.197	23.25
472.399	23.24
472.602	23.36
472.804	23.19
473.007	23.23
473.209	23.01
473.411	22.86
473.614	22.6
473.816	22.59
474.018	22.52
474.22	22.53
474.423	22.54
474.625	22.29
474.827	22.32
475.03	22.48
475.232	22.36
475.434	22.42
475.636	22.35
475.838	22.54
476.04	22.49
476.243	22.64
476.445	22.89
476.647	23.05
476.849	23.4
477.051	23.43
477.253	23.32
477.455	23.31
477.657	23.44
477.859	23.48
478.061	23.5
478.263	23.54
478.465	23.42
478.667	23.13
478.869	23.13
479.071	23
479.273	22.75
479.475	22.89
479.677	22.86
479.879	22.85
480.081	22.8
480.283	22.89
480.485	22.89
480.686	22.97
480.888	23.2
481.09	23.09
481.292	23.11
481.494	23.33
481.695	23.22
481.897	23.36
482.099	23.31
482.301	23.32
482.502	23.3
482.704	23.3
482.906	23.23
483.107	23.17
483.309	23.12
483.511	23.06
483.712	23.01
483.914	23.01
484.115	22.98
484.317	22.91
484.519	22.91
484.72	22.82
484.922	22.8
485.123	22.77
485.325	22.75
485.526	22.78
485.728	22.77
485.929	22.73
486.131	22.72
486.332	22.67
486.534	22.73
486.735	22.71
486.936	22.83
487.138	22.84
487.339	22.85
487.541	22.86
487.742	22.86
487.943	22.9
488.144	22.91
488.346	22.89
488.547	22.94
488.748	22.92
488.95	22.94
489.151	22.87
489.352	22.85
489.553	22.96
489.755	22.89
489.956	22.88
490.157	22.87
490.358	23.03
490.559	23.11
490.76	23.06
490.961	22.99
491.163	23
491.364	22.96
491.565	22.87
491.766	22.79
491.967	22.87
492.168	22.91
492.369	22.88
492.57	22.79
492.771	22.73
492.972	22.75
493.173	22.87
493.374	22.8
493.575	22.86
493.776	23.03
493.976	22.95
494.177	22.98
494.378	22.83
494.579	22.77
494.78	22.69
494.981	22.63
495.182	22.71
495.382	22.68
495.583	22.95
495.784	22.94
495.985	22.9
496.185	23.15
496.386	23.13
496.587	23.18
496.788	23.19
496.988	23.22
497.189	23.34
497.39	23.22
497.59	23.39
497.791	23.25
497.992	23.29
498.192	23.08
498.393	23.12
498.593	23.05
498.794	23.14
498.994	23.29
499.195	23.4
499.395	23.5
499.596	23.68
499.796	23.45
499.997	23.5
500.197	23.55
500.398	23.85
500.598	23.72
500.799	23.81
500.999	23.77
501.199	23.76
501.4	23.78
501.6	23.67
501.801	23.54
502.001	23.61
502.201	23.54
502.402	23.6
502.602	23.49
502.802	23.63
503.002	23.64
503.203	23.63
503.403	23.53
503.603	23.71
503.803	23.77
504.003	23.73
504.204	23.66
504.404	23.77
504.604	23.7
504.804	23.85
505.004	23.68
505.204	23.88
505.404	24.08
505.604	24.19
505.804	24
506.005	23.98
506.205	24.23
506.405	24.44
506.605	24.49
506.805	24.56
507.005	24.55
507.204	24.72
507.404	24.73
507.604	24.78
507.804	24.99
508.004	24.98
508.204	25.16
508.404	25.19
508.604	25.2
508.804	25.18
509.003	25.34
509.203	25.34
509.403	25.31
509.603	25.37
509.803	25.47
510.002	25.42
510.202	25.56
510.402	25.7
510.602	25.73
510.801	25.76
511.001	25.86
511.201	25.95
511.4	26.08
511.6	26.18
511.8	26.28
511.999	26.21
512.199	26.32
512.398	26.38
512.598	26.33
512.797	26.4
512.997	26.59
513.197	26.74
513.396	26.63
513.596	26.53
513.795	26.58
513.994	26.56
514.194	26.76
514.393	26.78
514.593	26.72
514.792	26.88
514.992	27.01
515.191	27.02
515.39	27.03
515.59	27.07
515.789	27.27
515.988	27.56
516.188	27.57
516.387	27.47
516.586	27.48
516.786	27.68
516.985	27.83
517.184	27.75
517.383	27.8
517.582	27.94
517.782	28.2
517.981	28.26
518.18	28.14
518.379	28.22
518.578	28.41
518.777	28.54
518.976	28.66
519.176	28.67
519.375	28.8
519.574	28.86
519.773	28.92
519.972	28.86
520.171	29.02
520.37	29.36
520.569	29.42
520.768	29.37
520.967	29.51
521.166	29.46
521.365	29.39
521.564	29.4
521.762	29.6
521.961	29.59
522.16	29.77
522.359	29.85
522.558	29.71
522.757	29.94
522.956	30.03
523.154	30.1
523.353	30.23
523.552	30.36
523.751	30.43
523.949	30.5
524.148	30.55
524.347	30.58
524.546	30.59
524.744	30.59
524.943	30.65
525.142	30.85
525.34	30.91
525.539	30.9
525.737	30.91
525.936	31.01
526.135	31.04
526.333	31.19
526.532	31.16
526.73	31.13
526.929	31.24
527.127	31.26
527.326	31.2
527.524	31.17
527.723	31.33
527.921	31.43
528.12	31.43
528.318	31.43
528.516	31.39
528.715	31.49
528.913	31.6
529.112	31.61
529.31	31.64
529.508	31.71
529.707	31.74
529.905	31.7
530.103	31.73
530.301	31.82
530.5	31.87
530.698	31.98
530.896	31.97
531.094	32.01
531.293	32.16
531.491	32.25
531.689	32.23
531.887	32.31
532.085	32.29
532.283	32.28
532.481	32.28
532.68	32.36
532.878	32.44
533.076	32.56
533.274	32.61
533.472	32.57
533.67	32.49
533.868	32.59
534.066	32.54
534.264	32.64
534.462	32.63
534.66	32.65
534.858	32.54
535.056	32.49
535.253	32.49
535.451	32.38
535.649	32.38
535.847	32.45
536.045	32.51
536.243	32.64
536.441	32.68
536.638	32.73
536.836	32.77
537.034	32.84
537.232	32.88
537.43	32.81
537.627	32.97
537.825	32.94
538.023	33.05
538.22	32.99
538.418	33.05
538.616	33
538.813	33.06
539.011	33.07
539.209	33.12
539.406	33.07
539.604	33.16
539.801	33.19
539.999	33.27
540.196	33.28
540.394	33.32
540.591	33.3
540.789	33.35
540.986	33.36
541.184	33.38
541.381	33.39
541.579	33.43
541.776	33.45
541.974	33.38
542.171	33.36
542.368	33.35
542.566	33.31
542.763	33.33
542.96	33.31
543.158	33.3
543.355	33.24
543.552	33.28
543.75	33.34
543.947	33.33
544.144	33.42
544.341	33.35
544.539	33.34
544.736	33.48
544.933	33.44
545.13	33.36
545.327	33.44
545.524	33.51
545.722	33.46
545.919	33.48
546.116	33.45
546.313	33.3
546.51	33.53
546.707	33.54
546.904	33.5
547.101	33.6
547.298	33.82
547.495	33.87
547.692	33.97
547.889	34.02
548.086	34.06
548.283	34.13
548.48	34.14
548.677	34.07
548.874	34.04
549.07	33.88
549.267	33.79
549.464	33.63
549.661	33.38
549.858	33.3
550.055	33.08
550.251	32.89
550.448	32.88
550.645	33.25
550.842	33.46
551.038	33.5
551.235	33.55
551.432	33.56
551.628	33.6
551.825	33.76
552.022	33.83
552.218	33.99
552.415	34.09
552.612	34.05
552.808	33.93
553.005	33.7
553.201	33.71
553.398	33.86
553.594	33.85
553.791	33.91
553.987	34.08
554.184	34.07
554.38	34.15
554.577	34.1
554.773	34.07
554.97	34.06
555.166	34.11
555.362	34.11
555.559	34.24
555.755	34.29
555.952	34.29
556.148	34.24
556.344	34.19
556.541	34.17
556.737	34.21
556.933	34.19
557.129	34.06
557.326	33.98
557.522	34.08
557.718	33.87
557.914	33.89
558.11	33.8
558.307	33.84
558.503	33.69
558.699	33.64
558.895	33.75
559.091	33.79
559.287	33.98
559.483	34.16
559.679	34.01
559.876	34.05
560.072	34.08
560.268	34.2
560.464	34
560.66	34.18
560.856	34.02
561.052	33.79
561.247	33.94
561.443	33.87
561.639	33.78
561.835	33.81
562.031	34.05
562.227	34.06
562.423	34.13
562.619	34.21
562.815	34.24
563.01	34.59
563.206	34.66
563.402	34.71
563.598	34.67
563.793	34.59
563.989	34.65
564.185	34.44
564.381	34.32
564.576	34.24
564.772	34.29
564.968	34.11
565.163	33.83
565.359	34.01
565.555	33.74
565.75	33.69
565.946	33.7
566.141	33.58
566.337	33.73
566.532	33.73
566.728	33.77
566.923	33.71
567.119	33.95
567.314	34.03
567.51	33.78
567.705	33.91
567.901	34.11
568.096	34.17
568.292	34.28
568.487	33.98
568.682	34.14
568.878	34.03
569.073	34.03
569.268	33.8
569.464	33.96
569.659	34.16
569.854	34.2
570.05	34.04
570.245	33.99
570.44	33.87
570.635	34.07
570.831	33.99
571.026	34
571.221	34.02
571.416	33.98
571.611	33.86
571.806	33.74
572.002	33.68
572.197	33.73
572.392	33.66
572.587	33.81
572.782	33.74
572.977	33.75
573.172	33.83
573.367	33.91
573.562	33.9
573.757	33.92
573.952	34.16
574.147	34.2
574.342	34.22
574.537	34.23
574.732	34.16
574.927	34.2
575.121	34.31
575.316	34.16
575.511	34.08
575.706	34.28
575.901	34.23
576.096	34.02
576.29	33.91
576.485	33.83
576.68	33.89
576.875	33.86
577.069	33.93
577.264	33.7
577.459	33.66
577.654	33.59
577.848	33.4
578.043	33.52
578.238	33.59
578.432	33.87
578.627	34.04
578.821	34.1
579.016	34.17
579.21	34.19
579.405	34.23
579.6	34.36
579.794	34.34
579.989	34.5
580.183	34.39
580.378	34.34
580.572	34.32
580.766	34
580.961	34.06
581.155	34.29
581.35	34.1
581.544	34.18
581.738	34.19
581.933	34.3
582.127	34.44
582.321	34.64
582.516	34.65
582.71	34.62
582.904	34.82
583.099	34.7
583.293	34.51
583.487	34.54
583.681	34.57
583.875	34.41
584.07	34.23
584.264	34.05
584.458	33.79
584.652	33.73
584.846	33.75
585.04	33.84
585.234	33.93
585.428	34.14
585.623	34.11
585.817	33.98
586.011	34.15
586.205	34.14
586.399	34.04
586.593	34.17
586.787	34.38
586.981	34.27
587.174	34.01
587.368	33.84
587.562	33.62
587.756	33.77
587.95	33.81
588.144	33.89
588.338	34.12
588.532	34.16
588.725	33.9
588.919	33.92
589.113	34.07
589.307	34.17
589.501	34.56
589.694	34.77
589.888	34.7
590.082	34.68
590.275	34.86
590.469	34.6
590.663	34.71
590.856	35.05
591.05	35.05
591.244	34.92
591.437	34.93
591.631	34.77
591.824	34.7
592.018	34.61
592.212	34.79
592.405	34.47
592.599	34.84
592.792	34.78
592.986	34.85
593.179	34.66
593.372	34.67
593.566	34.71
593.759	34.4
593.953	34.26
594.146	34.19
594.339	34.31
594.533	34.5
594.726	34.3
594.92	34.53
595.113	34.39
595.306	34.62
595.499	34.62
595.693	34.9
595.886	35.12
596.079	35.13
596.272	35.32
596.466	35.4
596.659	35.48
596.852	35.34
597.045	35.31
597.238	35.3
597.431	35.18
597.624	35.36
597.818	35.12
598.011	35.07
598.204	35.1
598.397	34.91
598.59	34.67
598.783	34.51
598.976	34.78
599.169	34.65
599.362	34.59
599.555	34.45
599.748	34.12
599.941	34.2
600.134	34.37
600.326	34.41
600.519	34.67
600.712	34.72
600.905	34.74
601.098	34.76
601.291	34.67
601.483	34.71
601.676	35.01
601.869	35.31
602.062	35.36
602.255	35.33
602.447	35.32
602.64	35.35
602.833	35.49
603.025	35.47
603.218	35.42
603.411	35.52
603.603	35.66
603.796	35.55
603.989	35.29
604.181	35.23
604.374	35.21
604.566	35.14
604.759	35.03
604.951	34.91
605.144	34.74
605.336	34.98
605.529	35.22
605.721	35.02
605.914	34.9
606.106	35.01
606.299	35.15
606.491	35.14
606.683	35.43
606.876	35.48
607.068	35.39
607.26	35.71
607.453	35.41
607.645	35.26
607.837	35.53
608.03	35.67
608.222	35.67
608.414	35.38
608.606	35.37
608.799	35.19
608.991	35.25
609.183	35.37
609.375	35.42
609.567	35.52
609.759	35.33
609.952	35.25
610.144	35.23
610.336	35.43
610.528	35.49
610.72	35.55
610.912	35.47
611.104	35.58
611.296	35.46
611.488	35.32
611.68	35.07
611.872	34.95
612.064	35.21
612.256	35.01
612.448	34.89
612.64	34.68
612.832	34.44
613.023	34.26
613.215	34
613.407	34.03
613.599	33.9
613.791	34.2
613.983	34.36
614.174	34.21
614.366	34.47
614.558	34.16
614.75	34.42
614.941	34.6
615.133	34.61
615.325	34.8
615.516	34.97
615.708	35.18
615.9	34.91
616.091	34.82
616.283	34.68
616.475	34.62
616.666	34.84
616.858	34.83
617.049	34.82
617.241	34.78
617.432	34.76
617.624	34.73
617.815	34.59
618.007	34.7
618.198	35.03
618.39	35.04
618.581	34.84
618.773	34.52
618.964	34.5
619.155	34.66
619.347	35.21
619.538	35.11
619.729	34.87
619.921	34.83
620.112	34.96
620.303	34.76
620.494	34.69
620.686	35.17
620.877	35.37
621.068	35.61
621.259	35.3
621.451	34.91
621.642	34.95
621.833	35.28
622.024	35.58
622.215	35.49
622.406	35.75
622.597	36.14
622.788	36.15
622.98	36.39
623.171	36.04
623.362	36.01
623.553	36.15
623.744	36.03
623.935	36.05
624.126	36.14
624.317	36.05
624.508	35.62
624.698	35.15
624.889	34.97
625.08	34.85
625.271	35.05
625.462	35.46
625.653	35.58
625.844	35.28
626.034	35.28
626.225	35.07
626.416	35.22
626.607	35.22
626.798	35.52
626.988	35.48
627.179	35.54
627.37	35.42
627.56	35.5
627.751	35.42
627.942	35.74
628.132	35.4
628.323	35.46
628.514	35.48
628.704	35.78
628.895	35.63
629.085	35.85
629.276	35.9
629.466	35.97
629.657	35.55
629.847	35.42
630.038	35.56
630.228	35.62
630.419	35.64
630.609	35.2
630.8	34.96
630.99	34.87
631.181	34.54
631.371	34.39
631.561	34.45
631.752	34.73
631.942	34.79
632.132	34.68
632.323	35.04
632.513	35.1
632.703	35.35
632.893	35.41
633.084	35.41
633.274	35.25
633.464	35.47
633.654	35.32
633.844	35.07
634.034	35.08
634.225	35.21
634.415	35.32
634.605	35.09
634.795	34.91
634.985	34.88
635.175	34.8
635.365	34.94
635.555	34.82
635.745	35.05
635.935	35.15
636.125	35.27
636.315	35.29
636.505	35.09
636.695	35.19
636.885	35.47
637.075	35.67
637.265	35.44
637.455	35.61
637.644	35.64
637.834	35.57
638.024	35.29
638.214	35.09
638.404	35.13
638.593	35.15
638.783	34.91
638.973	34.92
639.163	34.73
639.352	34.78
639.542	34.93
639.732	35.02
639.921	34.97
640.111	35.25
640.301	35.54
640.49	35.33
640.68	35.39
640.87	35.94
641.059	36.19
641.249	36.28
641.438	36.71
641.628	36.56
641.817	36.45
642.007	36.42
642.196	36.65
642.386	36.15
642.575	36.26
642.764	36.25
642.954	35.8
643.143	35.58
643.333	35.29
643.522	35.37
643.711	35.3
643.901	35.59
644.09	35.31
644.279	35.3
644.469	35.67
644.658	35.4
644.847	35.05
645.036	35.02
645.226	34.98
645.415	35.01
645.604	34.65
645.793	34.64
645.982	34.57
646.171	34.76
646.361	34.62
646.55	34.65
646.739	34.68
646.928	34.92
647.117	34.94
647.306	35.37
647.495	35.26
647.684	35.66
647.873	35.55
648.062	35.15
648.251	35.16
648.44	35.39
648.629	35.21
648.818	35.41
649.007	35.78
649.196	35.93
649.384	35.41
649.573	35.84
649.762	35.39
649.951	35.72
650.14	35.9
650.328	36.01
650.517	36.08
650.706	36.22
650.895	36.14
651.083	35.83
651.272	35.36
651.461	35.42
651.65	35.08
651.838	35.24
652.027	35.35
652.216	35.02
652.404	35.18
652.593	34.65
652.781	34.52
652.97	34.4
653.158	34.19
653.347	35.02
653.535	35.31
653.724	35.57
653.912	35.93
654.101	35.33
654.289	35.53
654.478	35.54
654.666	35.75
654.855	35.92
655.043	36.33
655.231	36.53
655.42	36.41
655.608	36.15
655.796	36.24
655.985	36.07
656.173	36.21
656.361	36.37
656.55	36.19
656.738	36.35
656.926	36.58
657.114	36.28
657.302	36.13
657.491	36.01
657.679	35.73
657.867	35.4
658.055	35.62
658.243	35.61
658.431	35.5
658.619	35.39
658.807	35.35
658.996	34.86
659.184	34.96
659.372	35.06
659.56	34.68
659.748	34.88
659.936	35.02
660.124	34.5
660.311	34.25
660.499	34.28
660.687	34.44
660.875	34.22
661.063	34.53
661.251	34.25
661.439	34.01
661.627	34.76
661.814	34.78
662.002	34.97
662.19	35.11
662.378	35.44
662.565	34.97
662.753	34.68
662.941	35.2
663.129	34.92
663.316	34.86
663.504	34.97
663.692	34.64
663.879	34.94
664.067	34.76
664.254	35.3
664.442	35.06
664.63	35.17
664.817	35.35
665.005	35
665.192	35.06
665.38	35.17
665.567	35.35
665.755	35.39
665.942	35.15
666.13	34.92
666.317	34.3
666.504	34.73
666.692	35.4
666.879	35.37
667.067	35.51
667.254	35.46
667.441	36.09
667.629	35.99
667.816	35.26
668.003	35.24
668.19	35.24
668.378	35.52
668.565	35.34
668.752	35.27
668.939	35.31
669.127	35.69
669.314	35.95
669.501	35.75
669.688	35.77
669.875	36.56
670.062	36.78
670.249	36.69
670.436	36.34
670.623	36.48
670.81	36.4
670.997	36.38
671.184	35.63
671.371	35.03
671.558	35.13
671.745	35.2
671.932	34.91
672.119	34.72
672.306	35.09
672.493	35.55
672.68	35.22
672.867	35.18
673.054	35.07
673.24	35.27
673.427	35.23
673.614	34.82
673.801	34.82
673.988	34.82
674.174	34.59
674.361	34.29
674.548	34
674.734	34.43
674.921	34.21
675.108	34.42
675.294	34.26
675.481	35.01
675.668	35.24
675.854	35.02
676.041	35.07
676.227	35.01
676.414	35.02
676.601	35.4
676.787	35.37
676.974	35.72
677.16	35.68
677.347	35.89
677.533	35.52
677.719	35.27
677.906	35.41
678.092	35.66
678.279	35.71
678.465	35.55
678.651	35.86
678.838	35.36
679.024	35.01
679.21	34.91
679.397	35.01
679.583	35.56
679.769	35.65
679.955	35.88
680.142	35.52
680.328	35.45
680.514	35.69
680.7	35.38
680.886	35.54
681.073	35.59
681.259	35.64
681.445	35.2
681.631	35.06
681.817	35.09
682.003	35.02
682.189	35.2
682.375	35.18
682.561	35.02
682.747	34.82
682.933	34.91
683.119	34.96
683.305	34.63
683.491	35.3
683.677	35.25
683.863	35.17
684.049	34.71
684.235	34.3
684.42	34.23
684.606	34.2
684.792	34.16
684.978	34.64
685.164	34.99
685.349	35.68
685.535	35.28
685.721	35.09
685.907	35.21
686.092	36
686.278	36.5
686.464	36.85
686.649	37.17
686.835	37.37
687.021	37.35
687.206	36.86
687.392	36.3
687.577	36.19
687.763	36.24
687.948	35.92
688.134	35.42
688.319	35.3
688.505	35.85
688.69	35.99
688.876	35.89
689.061	35.39
689.247	35.38
689.432	35.82
689.618	35.84
689.803	35.8
689.988	35.91
690.174	35.97
690.359	36.02
690.544	35
690.73	34.99
690.915	34.46
691.1	34.68
691.285	35.19
691.471	35.2
691.656	35.26
691.841	35.52
692.026	36.43
692.211	36.34
692.396	36.66
692.582	37.33
692.767	37.43
692.952	37.76
693.137	38.26
693.322	37.84
693.507	37.39
693.692	36.83
693.877	36.62
694.062	36.11
694.247	36.38
694.432	36.28
694.617	36.11
694.802	35.71
694.987	35.97
695.172	35.04
695.357	35.3
695.541	35.46
695.726	35.84
695.911	35.71
696.096	35.02
696.281	34.68
696.466	34.59
696.65	34.25
696.835	34.21
697.02	33.96
697.204	34.24
697.389	34.05
697.574	34.56
697.759	34.84
697.943	34.8
698.128	34.88
698.312	34.75
698.497	35.1
698.682	35.79
698.866	35.87
699.051	36.55
699.235	36.57
699.42	36.77
699.604	36.07
699.789	35.59
699.973	35.18
700.158	35.26
700.342	35.28
700.527	34.36
700.711	33.56
700.895	33.17
701.08	32.96
701.264	33.19
701.448	32.69
701.633	33.39
701.817	33.72
702.001	34.58
702.186	34.83
702.37	34.26
702.554	34.91
702.738	34.92
702.923	35.67
703.107	34.91
703.291	34.53
703.475	34.78
703.659	34.56
703.843	34.15
704.027	33.9
704.212	33.74
704.396	35.07
704.58	34.71
704.764	34.95
704.948	34.6
705.132	34.47
705.316	34.25
705.5	33.23
705.684	32.61
705.868	33.62
706.052	33.12
706.235	33.52
706.419	33.7
706.603	34.02
706.787	33.37
706.971	33.68
707.155	33.3
707.339	33.01
707.522	33.3
707.706	33.88
707.89	33.68
708.074	33.86
708.257	33.14
708.441	32.94
708.625	32.47
708.808	33.36
708.992	32.88
709.176	34.01
709.359	34.82
709.543	35.21
709.727	35.32
709.91	35.32
710.094	35.71
710.277	36.62
710.461	36.25
710.644	36.83
710.828	37.23
711.011	37.26
711.195	37.08
711.378	36.61
711.562	36.39
711.745	36
711.928	35.69
712.112	35.09
712.295	34.71
712.478	34.72
712.662	34.39
712.845	33.33
713.028	33.28
713.212	32.82
713.395	32.82
713.578	33.89
713.761	34.54
713.945	34.95
714.128	35.22
714.311	35.68
714.494	35.56
714.677	35.82
714.86	36.11
715.043	36.48
715.227	36.89
715.41	37.25
715.593	36.54
715.776	36.31
715.959	36.24
716.142	36.37
716.325	35.58
716.508	35.58
716.691	35.37
716.874	35.75
717.057	35.62
717.239	35.13
717.422	34.52
717.605	34.07
717.788	33.92
717.971	33.74
718.154	34.13
718.337	34.68
718.519	34.44
718.702	34.47
718.885	34.39
719.068	34.53
719.25	34.94
719.433	34.98
719.616	36
719.798	36.64
719.981	36.01
720.164	35.12
720.346	34.92
720.529	35.43
720.712	34.99
720.894	35.59
721.077	35.37
721.259	34.95
721.442	34.91
721.624	34.26
721.807	34.39
721.989	35.34
722.172	35.12
722.354	34.78
722.537	33.91
722.719	35.11
722.901	33.88
723.084	34.07
723.266	33.6
723.448	33.5
723.631	34.22
723.813	33.78
723.995	33.13
724.178	33.16
724.36	33.04
724.542	33.49
724.724	33.3
724.907	33.09
725.089	33.27
725.271	33.72
725.453	34.17
725.635	34.08
725.817	33.57
725.999	33.94
726.181	35.18
726.364	34.73
726.546	35.59
726.728	34.82
726.91	34.9
727.092	34.63
727.274	34.67
727.456	34.07
727.638	34.47
727.819	34.53
728.001	34.07
728.183	33.49
728.365	33.99
728.547	33.94
728.729	34.35
728.911	35.69
729.093	36.31
729.274	36.16
729.456	35.74
729.638	35.04
729.82	35.56
730.001	35.04
730.183	35.3
730.365	34.87
730.546	34.06
730.728	34.21
730.91	33.52
731.091	32.72
731.273	32.79
731.455	33.71
731.636	33.92
731.818	34.23
731.999	35.11
732.181	35.19
732.362	35.31
732.544	35.89
732.725	35.31
732.907	35.07
733.088	35.18
733.27	34.76
733.451	35.33
733.633	35.4
733.814	34.68
733.995	34.69
734.177	33.88
734.358	34.63
734.539	34.06
734.721	34.68
734.902	34.76
735.083	34.89
735.264	36.35
735.446	36.25
735.627	36.64
735.808	36.08
735.989	36.57
736.17	37.09
736.351	36.3
736.533	36.52
736.714	35.37
736.895	35.2
737.076	35.32
737.257	34.7
737.438	34.25
737.619	32.85
737.8	32.39
737.981	31.55
738.162	31.8
738.343	32.93
738.524	32.61
738.705	33.04
738.886	33.98
739.067	33.79
739.247	33.21
739.428	33.75
739.609	34.6
739.79	34.69
739.971	33.85
740.151	32.84
740.332	32.41
740.513	33
740.694	33.2
740.874	32.21
741.055	32.4
741.236	32.08
741.417	30.93
741.597	31.27
741.778	33.32
741.958	33.89
742.139	34.63
742.32	34.27
742.5	34.97
742.681	35.1
742.861	36.27
743.042	36.12
743.222	35.84
743.403	37.63
743.583	37.58
743.764	35.28
743.944	37.27
744.124	36.51
744.305	35.95
744.485	34.4
744.666	34.57
744.846	32.7
745.026	32.97
745.207	34.28
745.387	33.27
745.567	33.53
745.747	34.38
745.928	34.32
746.108	35.01
746.288	36.05
746.468	36.99
746.648	36.75
746.829	38.24
747.009	37.79
747.189	37.49
747.369	37.04
747.549	35.36
747.729	36.14
747.909	36.11
748.089	36.24
748.269	35.81
748.449	36.24
748.629	35.72
748.809	34.17
748.989	34.36
749.169	35.23
749.349	36.75
749.529	37.82
749.709	37.97
749.889	36.36
750.068	36.41
750.248	36.61
750.428	36.12
750.608	36
750.788	35.86
750.967	36.48
751.147	36.67
751.327	35.58
751.507	34.86
751.686	34.37
751.866	36.04
752.046	36.14
752.225	36.26
752.405	36.59
752.585	36.34
752.764	36.66
752.944	35.78
753.123	34.39
753.303	35.31
753.482	36.61
753.662	36.55
753.841	35.24
754.021	35.93
754.2	35.26
754.38	35.2
754.559	37.09
754.739	37.97
754.918	38.25
755.097	39.67
755.277	37.7
755.456	36.47
755.635	36.19
755.815	36.64
755.994	34.64
756.173	34.01
756.352	34.05
756.532	32.46
756.711	32.85
756.89	31.4
757.069	30.91
757.248	32.23
757.427	33.01
757.607	32.93
757.786	33
757.965	33.44
758.144	35.1
758.323	35.23
758.502	34.03
758.681	33.47
758.86	33.47
759.039	32.37
759.218	31.7
759.397	31.37
759.576	31.82
759.755	31.57
759.934	31.96
760.113	31.57
760.291	30.61
760.47	32.73
760.649	33.26
760.828	34.4
761.007	35.34
761.186	34.75
761.364	34.2
761.543	34.46
761.722	33.65
761.901	34.67
762.079	34.11
762.258	34.51
762.437	35.51
762.615	34.96
762.794	34.03
762.972	34.22
763.151	34.29
763.33	35.42
763.508	34.81
763.687	35.21
763.865	34.59
764.044	34.06
764.222	34.69
764.401	33.58
764.579	33.57
764.758	34.19
764.936	33.02
765.114	32.75
765.293	32.5
765.471	31.99
765.65	32.18
765.828	32.18
766.006	32.14
766.184	31.06
766.363	31.06
766.541	30.16
766.719	31.16
766.898	32.23
767.076	32.57
767.254	31.47
767.432	31.25
767.61	30.84
767.788	30.09
767.967	31.8
768.145	31.19
768.323	32.09
768.501	33.44
768.679	33.35
768.857	32.16
769.035	32.69
769.213	33.83
769.391	34.61
769.569	33.84
769.747	34.95
769.925	35.03
770.103	34.38
770.281	32.1
770.459	30.94
770.636	29.2
770.814	30.2
770.992	29.55
771.17	27.09
771.348	29.3
771.525	28.63
771.703	28
771.881	24.87
772.059	26.32
772.236	25.59
772.414	26.07
772.592	27.72
772.769	28.97
772.947	29.08
773.125	31.83
773.302	29.91
773.48	30.65
773.657	28.02
773.835	28.67
774.013	28.28
774.19	32.44
774.368	33.56
774.545	33.37
774.723	33.11
774.9	31.94
775.077	29.98
775.255	30.82
775.432	33.09
775.61	36.69
775.787	38.93
775.964	39.93
776.142	37.22
776.319	36.72
776.496	34.14
776.674	33.69
776.851	34.01
777.028	32.6
777.205	32.18
777.382	30.32
777.56	29.96
777.737	29.85
777.914	29.85
778.091	29.78
778.268	29.07
778.445	29.9
778.622	30.32
778.8	32.32
778.977	33.29
779.154	33.73
779.331	31.06
779.508	30.24
779.685	29.57
779.862	27.76
780.038	28.6
780.215	29.47
780.392	32.12
780.569	30.5
780.746	29.44
780.923	30.12
781.1	26.29
781.277	30.46
781.453	28.97
781.63	28.49
781.807	29.19
781.984	28.35
782.16	29.41
782.337	26.7
782.514	28.94
782.691	31.7
782.867	32.37
783.044	34.17
783.221	33.97
783.397	34.55
783.574	32.6
783.75	34.41
783.927	37.08
784.103	35.62
784.28	37.32
784.456	34.48
784.633	30.43
784.809	30.55
784.986	32.05
785.162	31.95
785.339	30.86
785.515	33.63
785.692	32.57
785.868	30.42
786.044	29.03
786.221	30.76
786.397	33.38
786.573	36.16
786.749	35.43
786.926	34.91
787.102	35.08
787.278	36.28
787.454	34.12
787.631	33.35
787.807	32.57
787.983	32.55
788.159	29.55
788.335	25.36
788.511	24.72
788.687	23.31
788.863	24.88
789.039	21.98
789.216	21.32
789.392	22.16
789.568	21.13
789.744	20.3
789.919	21.28
790.095	20.09
790.271	22.02
790.447	23.23
790.623	22.32
790.799	20.41
790.975	24.35
791.151	24.71
791.327	27.23
791.502	27.07
791.678	27.31
791.854	25.01
792.03	26.66
792.205	29.76
792.381	28.45
792.557	31.34
792.733	32.81
792.908	31.97
793.084	32.52
793.259	31.56
793.435	31.19
793.611	33.19
793.786	32.8
793.962	33.93
794.137	30.24
794.313	28.96
794.488	27.88
794.664	23.37
794.839	24.48
795.015	25.75
795.19	21.91
795.366	25.4
795.541	24.08
795.716	25.22
795.892	24.18
796.067	27.97
796.242	27.41
796.418	29.23
796.593	31.8
796.768	29.52
796.944	29.69
797.119	32.87
797.294	29.63
797.469	30.06
797.644	32.97
797.82	32.7
797.995	29.39
798.17	29.84
798.345	28.14
798.52	26.94
798.695	28.77
798.87	27.81
799.045	23.67
799.22	25.48
799.395	24.59
799.57	22.16
799.745	23.84
799.92	24.24
800.095	25.74
800.27	24.73
800.445	25.35
800.62	23.01
800.795	21.28
800.97	26.26
801.145	29.51
801.319	26.02
801.494	24.55
801.669	22.42
801.844	19.96
802.018	19.73
802.193	20.39
802.368	20.49
802.543	19.72
802.717	21.26
802.892	23.4
803.067	20.72
803.241	24.81
803.416	29.25
803.59	29.98
803.765	32.74
803.94	33.23
804.114	32.95
804.289	31.14
804.463	34.09
804.638	33.62
804.812	29.43
804.986	28.63
805.161	26.56
805.335	23.07
805.51	22.01
805.684	22.51
805.858	20.23
806.033	18.7
806.207	23.17
806.381	23.58
806.556	23.22
806.73	24.12
806.904	25.76
807.078	27.36
807.253	29.02
807.427	28.89
807.601	28.38
807.775	30.24
807.949	29.6
808.123	28.28
808.298	27.48
808.472	26.32
808.646	28.08
808.82	26.91
808.994	26.16
809.168	24.81
809.342	25.64
809.516	25.69
809.69	28.49
809.864	31.46
810.038	31.73
810.212	31.59
810.385	32.38
810.559	33.13
810.733	31.61
810.907	31.97
811.081	31.35
811.255	32.58
811.428	35.56
811.602	31.47
811.776	29.67
811.95	31.9
812.123	28.76
812.297	26.55
812.471	21.6
812.644	21.7
812.818	21.77
812.992	17.82
813.165	21.07
813.339	21.26
813.512	22.48
813.686	20.7
813.86	14.34
814.033	22.58
814.207	24.4
814.38	25.89
814.554	25.94
814.727	27.7
814.9	32.28
815.074	22
815.247	22.67
815.421	22.28
815.594	27.33
815.767	31.12
815.941	25.36
816.114	28.52
816.287	27.45
816.46	29.04
816.634	28.92
816.807	32.32
816.98	36.96
817.153	32.78
817.327	29.92
817.5	29.47
817.673	27.8
817.846	30.71
818.019	27.46
818.192	29.46
818.365	33.53
818.538	32.75
818.711	33.1
818.884	34.1
819.057	36
819.23	37.76
819.403	36.22
819.576	34.48
819.749	34.52
819.922	39.08
820.095	37.7
820.268	34.06
820.441	34.64
820.614	32.82
820.786	36.02
820.959	36.44
821.132	34.89
821.305	33.47
821.477	34.17
821.65	33.97
821.823	33.02
821.996	33.16
822.168	33.84
822.341	33.65
822.514	33.35
822.686	32.35
822.859	31.78
823.031	31.99
823.204	33.36
823.376	33.54
823.549	33.48
823.722	32.69
823.894	32.39
824.067	31.9
824.239	32.19
824.411	32.02
824.584	32.34
824.756	32.45
824.929	32.56
825.101	31.46
825.273	31.61
825.446	32.8
825.618	34.14
825.79	34.65
825.963	34.43
826.135	33.47
826.307	35.09
826.479	34.15
826.652	34.42
826.824	35.3
826.996	35.86
827.168	34.44
827.34	32.84
827.512	30.99
827.684	31.23
827.856	31.45
828.029	33.25
828.201	33.04
828.373	34.13
828.545	34.64
828.717	34.23
828.889	33.32
829.061	34.53
829.232	35.33
829.404	36.59
829.576	34.87
829.748	34.19
829.92	32.11
830.092	30.23
830.264	32.08
830.436	27.71
830.607	26.02
830.779	26.91
830.951	24.65
831.123	25.01
831.294	22.13
831.466	25.8
831.638	27.31
831.809	27.79
831.981	31.43
832.153	27.94
832.324	31.09
832.496	30.13
832.667	29.57
832.839	31.43
833.011	31.15
833.182	35.17
833.354	33.25
833.525	33.08
833.697	31.47
833.868	30.21
834.039	29
834.211	29.85
834.382	30.74
834.554	29.28
834.725	31.41
834.896	31.41
835.068	29.51
835.239	30.19
835.41	29.33
835.581	30.55
835.753	30.43
835.924	30.72
836.095	29.18
836.266	30.68
836.438	30.66
836.609	27.87
836.78	26.58
836.951	29.57
837.122	28.69
837.293	29.51
837.464	28.33
837.635	23.83
837.806	21.61
837.977	23.79
838.148	19.46
838.319	17.87
838.49	19.55
838.661	19.37
838.832	21.21
839.003	20.37
839.174	17.15
839.345	18.34
839.516	20.15
839.687	22.42
839.857	24.98
840.028	26.87
840.199	25.83
840.37	26.64
840.54	23.99
840.711	21.7
840.882	15.63
841.053	19.18
841.223	15.13
841.394	19.93
841.564	18.4
841.735	15.37
841.906	9
842.076	13.83
842.247	11.79
842.417	11.4
842.588	10.47
842.758	17.45
842.929	15.12
843.099	22.35
843.27	22.73
843.44	25.27
843.611	27.68
843.781	34.5
843.951	29.55
844.122	30.67
844.292	28.28
844.462	23.39
844.633	28.68
844.803	28.61
844.973	23.74
845.144	20.95
845.314	23.43
845.484	15.97
845.654	11.89
845.824	17.19
845.995	14.98
846.165	30.46
846.335	35.69
846.505	26.16
846.675	30.12
846.845	34.61
847.015	33.57
847.185	33.93
847.355	48.68
847.525	49.44
847.695	51.1
847.865	48.37
848.035	37.43
848.205	35.91
848.375	38.56
848.545	48.79
848.715	48.16
848.884	50.32
849.054	45.01
849.224	31.94
849.394	33.94
849.564	29.43
849.733	30.4
849.903	34.53
850.073	26.08
850.243	40.94
850.412	18.47
850.582	8.59
850.752	8.94
850.921	9.71
851.091	7.1
851.26	11.05
851.43	14.52
851.599	21.65
851.769	13.34
851.939	20.52
852.108	18.52
852.278	18.82
852.447	22.99
852.616	7.52
852.786	9.12
852.955	5.07
853.125	7.7
853.294	1.77
853.463	-5.05
853.633	-4.79
853.802	-15.46
853.971	-25.12
854.141	-21.82
854.31	-38.07
854.479	-9.77
854.648	-15.81
854.818	-8.54
854.987	-11.91
855.156	-9.06
855.325	-3.21
855.494	-5.77
855.663	3.76
855.832	8.89
856.001	8.49
856.171	4.91
856.34	2.65
856.509	9.18
856.678	1.44
856.847	-2.44
857.016	-1.64
857.185	2.09
857.353	7.43
857.522	12.79
857.691	8
857.86	8.12
858.029	10.72
858.198	16.51
858.367	16.37
858.535	30.53
858.704	40.91
858.873	40.86
859.042	41
859.21	38.71
859.379	37.69
859.548	49.71
859.717	52.76
859.885	51.77
860.054	39.03
860.222	35.53
860.391	30.18
860.56	32.98
860.728	37.45
860.897	31.46
861.065	31.18
861.234	23.21
861.402	8.26
861.571	13.46
861.739	14.2
861.908	8.47
862.076	16.85
862.244	30.4
862.413	15.65
862.581	25.1
862.749	19.15
862.918	9.83
863.086	18.3
863.254	39.87
863.423	41.62
863.591	48.31
863.759	64.42
863.927	53.47
864.096	30.63
864.264	25.08
864.432	28.82
864.6	11.64
864.768	58.7
864.936	57.98
865.104	12.59
865.272	-30.23
865.44	-7.07
865.608	-39.5
865.776	-38
865.944	-3.04
866.112	-32.77
866.28	-40.69
866.448	-13.59
866.616	-14.8
866.784	-9.11
866.952	-2.06
867.12	4.31
867.288	-12.8
867.455	-2.38
867.623	12.01
867.791	-6.49
867.959	5.11
868.127	4.9
868.294	7.24
868.462	-7.56
868.63	-4.39
868.797	-4.88
868.965	-0.45
869.133	0.65
869.3	-6.97
869.468	-15
869.636	-3.17
869.803	-14.1
869.971	-17.4
870.138	-46.68
870.306	-36.06
870.473	-17.15
870.641	-28.97
870.808	-26.6
870.975	-16.08
871.143	-1.19
871.31	5.48
871.478	-4.51
871.645	12.89
871.812	22.81
871.98	25.39
872.147	27.59
872.314	19.33
872.482	30.48
872.649	51.91
872.816	50.32
872.983	35.74
873.15	17.2
873.318	25.02
873.485	-6.59
873.652	0.42
873.819	9.84
873.986	3.17
874.153	8.5
874.32	20.26
874.487	-1.58
874.654	8.43
874.821	25.25
874.988	18.91
875.155	37.91
875.322	52.47
875.489	47.45
875.656	38.36
875.823	42.38
875.99	40.97
876.157	31.98
876.324	42.27
876.49	40.88
876.657	37.02
876.824	52.84
876.991	43.23
877.157	30
877.324	24.74
877.491	22.49
877.658	16.02
877.824	15.54
877.991	17.16
878.157	-0.83
878.324	5.64
878.491	8.15
878.657	-9.37
878.824	-9
878.99	0.86
879.157	4.2
879.323	12.54
879.49	17.86
879.656	23
879.823	30.82
879.989	35.67
880.156	28.61
880.322	27.48
880.488	32.94
880.655	30.3
880.821	19.57
880.987	23.18
881.154	21.16
881.32	7.43
881.486	3.11
881.652	5.11
881.819	20
881.985	20.28
882.151	22.95
882.317	28.32
882.483	29.44
882.649	31.4
882.816	30.96
882.982	33.85
883.148	36.13
883.314	34.62
883.48	35.34
883.646	31.45
883.812	30.88
883.978	29.75
884.144	26.15
884.31	26.96
884.476	27.11
884.642	24.83
884.807	21.66
884.973	21.14
885.139	21.99
885.305	20.66
885.471	17.49
885.637	21.3
885.802	21.08
885.968	25.58
886.134	26.43
886.3	28.17
886.465	31.53
886.631	31.04
886.797	30.47
886.962	34.7
887.128	33.85
887.293	42.96
887.459	39.27
887.625	31.25
887.79	19.88
887.956	15.74
888.121	12.23
888.287	11.25
888.452	14.71
888.618	18.73
888.783	4.96
