Data from 2937896_Reflection_3.txt Node
Date: Wed Jul 15 13:52:05 EDT 2015
User: robert
Spectrometer: USB4E03001
Autoset integration time: false
Trigger mode: 4
Integration Time (sec): 1.000000E-1
Scans to average: 10
Electric dark correction enabled: true
Nonlinearity correction enabled: false
Boxcar width: 5
Stray light correction enabled: false
XAxis mode: Wavelengths
Stop averaging: false
Number of Pixels in Spectrum: 3648
>>>>>Begin Spectral Data<<<<<
177.566	-8.47
177.785	-6.21
178.005	-13.06
178.225	-546.11
178.445	-119.01
178.665	-258.59
178.885	291.27
179.105	-815.22
179.324	-445.89
179.544	-9.75
179.764	32.89
179.984	29.05
180.204	9.65
180.423	-5.17
180.643	-134.71
180.863	-38.86
181.083	-97.04
181.302	-1229.67
181.522	-107.84
181.742	-101.19
181.961	-173
182.181	-312.1
182.401	-659.62
182.621	-883.39
182.84	-186.2
183.06	-32.29
183.279	112.1
183.499	-1095.7
183.719	-54.49
183.938	215.59
184.158	195.41
184.377	67.07
184.597	122.24
184.816	166.28
185.036	306.15
185.256	174.07
185.475	160.93
185.695	236.74
185.914	256.37
186.134	127.34
186.353	114.88
186.572	59.61
186.792	67.49
187.011	32.3
187.231	165.15
187.45	-416.96
187.67	161.32
187.889	101.94
188.108	12.81
188.328	400
188.547	167.95
188.766	137.76
188.986	-343.9
189.205	-202.21
189.424	13.07
189.644	1.82
189.863	74.08
190.082	47.85
190.302	-38.29
190.521	-30.28
190.74	-19.08
190.959	97.8
191.178	46.22
191.398	76.56
191.617	43.18
191.836	73.73
192.055	112.12
192.274	100.45
192.494	150.48
192.713	101.98
192.932	153.04
193.151	1051.17
193.37	-73.52
193.589	-62.33
193.808	-121.45
194.027	-120.7
194.246	-79.36
194.465	-59.59
194.685	-118.82
194.904	-91.43
195.123	-161.61
195.342	-162.69
195.561	-277.74
195.78	-2531.21
195.999	663.26
196.218	174.88
196.436	123.5
196.655	118.68
196.874	97.31
197.093	103.61
197.312	58.39
197.531	77.94
197.75	88.6
197.969	59.8
198.188	24.45
198.407	43.55
198.625	52.87
198.844	56.98
199.063	53.2
199.282	41.44
199.501	17.33
199.719	1413.47
199.938	133.28
200.157	98.04
200.376	129.27
200.594	193.23
200.813	172.42
201.032	164.9
201.251	211.94
201.469	258.28
201.688	205.6
201.907	225.47
202.125	269.51
202.344	364.92
202.563	5122.66
202.781	-262.31
203	-644.14
203.218	-1869.09
203.437	-929.69
203.656	1062.55
203.874	683.51
204.093	744.39
204.311	281.45
204.53	126.53
204.748	102.09
204.967	93.54
205.185	60.6
205.404	34.93
205.622	-5.1
205.841	9.33
206.059	8.26
206.278	61.99
206.496	311.71
206.715	251.04
206.933	-789.52
207.151	-643.49
207.37	376.49
207.588	546.41
207.806	1228.79
208.025	842.82
208.243	353.51
208.461	423.58
208.68	169.92
208.898	159.31
209.116	231.13
209.335	197.43
209.553	844.01
209.771	471.29
209.989	18.93
210.208	522.64
210.426	1028.33
210.644	-198.3
210.862	52.8
211.081	14.13
211.299	-16.01
211.517	-108.72
211.735	-205.89
211.953	-228.5
212.171	-148.88
212.39	-108.97
212.608	-179.35
212.826	8.76
213.044	-232.09
213.262	251.32
213.48	478.25
213.698	281.61
213.916	183.29
214.134	200.64
214.352	219.13
214.57	223.4
214.788	225.86
215.006	320.57
215.224	256.86
215.442	343.36
215.66	315.56
215.878	224.47
216.096	189.47
216.314	179.41
216.532	176.2
216.75	152.15
216.968	125.22
217.185	161.07
217.403	182.72
217.621	146.45
217.839	181.61
218.057	642.78
218.275	256.84
218.492	238.22
218.71	213.77
218.928	25.18
219.146	101.59
219.363	470.54
219.581	127.73
219.799	131.62
220.017	202.05
220.234	126.07
220.452	123.21
220.67	179.23
220.887	520.71
221.105	524.84
221.323	263.43
221.54	85.18
221.758	16.94
221.976	129.17
222.193	187.61
222.411	436.72
222.629	379.83
222.846	2201.35
223.064	-735.82
223.281	-100.56
223.499	-12.69
223.716	-28.62
223.934	0.11
224.151	7.14
224.369	21.23
224.586	2.75
224.804	3.09
225.021	4.08
225.239	11.52
225.456	18.81
225.674	24.25
225.891	40.62
226.108	61.25
226.326	79.54
226.543	58.64
226.76	52.96
226.978	53.78
227.195	45.45
227.413	40.68
227.63	41.78
227.847	32.42
228.064	30.94
228.282	27.17
228.499	25.69
228.716	20.66
228.934	28.04
229.151	27.62
229.368	27.08
229.585	28.62
229.802	28.22
230.02	28.11
230.237	29.95
230.454	24.5
230.671	21.84
230.888	20.74
231.105	24.96
231.323	21.71
231.54	13.93
231.757	17.75
231.974	17.32
232.191	16.45
232.408	14.94
232.625	13.17
232.842	25.64
233.059	29.97
233.276	33.39
233.493	29.31
233.71	30.38
233.927	33.94
234.144	33.38
234.361	29.28
234.578	27.78
234.795	19.39
235.012	17.38
235.229	10.88
235.446	-1.87
235.663	-6.57
235.879	-3.3
236.096	-4.04
236.313	4.56
236.53	-2.38
236.747	3.18
236.964	8.63
237.181	16.94
237.397	18.19
237.614	22.86
237.831	31.56
238.048	31.85
238.264	31.69
238.481	31.94
238.698	28.6
238.915	31.19
239.131	32.72
239.348	32.76
239.565	27.24
239.781	23.14
239.998	19.09
240.215	18.93
240.431	17.8
240.648	17.67
240.865	16.57
241.081	18.32
241.298	17.91
241.514	16.35
241.731	13.49
241.947	12.95
242.164	11.71
242.38	11.51
242.597	9.9
242.814	8.54
243.03	6.71
243.246	7.32
243.463	6.31
243.679	3.99
243.896	5.56
244.112	8.1
244.329	10.75
244.545	12.8
244.762	12.54
244.978	15.48
245.194	17.25
245.411	16.66
245.627	13.4
245.843	15.45
246.06	17.36
246.276	13.63
246.492	12.04
246.709	10.61
246.925	10.17
247.141	11.57
247.357	11
247.574	10.14
247.79	11.26
248.006	11.74
248.222	9.71
248.439	8.61
248.655	8.72
248.871	9.32
249.087	8.92
249.303	10.32
249.519	8.4
249.736	7.16
249.952	6.44
250.168	4.75
250.384	6.15
250.6	6.49
250.816	7.99
251.032	10.63
251.248	9.49
251.464	10.58
251.68	9.35
251.896	8.35
252.112	9.22
252.328	11.7
252.544	13.48
252.76	11.06
252.976	13.07
253.192	12.05
253.408	13.75
253.624	12.24
253.84	13.02
254.056	15.1
254.272	16.29
254.487	17.96
254.703	18.09
254.919	18.63
255.135	21.78
255.351	20.11
255.567	18.81
255.782	15.24
255.998	19.22
256.214	20.17
256.43	16.43
256.646	14.6
256.861	10.66
257.077	8.18
257.293	2.04
257.508	2.49
257.724	2.6
257.94	5.49
258.155	4.84
258.371	3.4
258.587	2.17
258.802	2.82
259.018	3.74
259.234	4.89
259.449	5.82
259.665	7.82
259.88	7.36
260.096	6.61
260.312	6.28
260.527	7.19
260.743	7.22
260.958	7.32
261.174	8.11
261.389	8.4
261.605	8.73
261.82	8.62
262.036	8.29
262.251	9.09
262.466	11.3
262.682	11.12
262.897	8.81
263.113	8.47
263.328	9.38
263.543	8.46
263.759	9.99
263.974	12.33
264.189	11.51
264.405	9.09
264.62	8.68
264.835	7.88
265.051	6.74
265.266	9.94
265.481	10.89
265.696	8.47
265.912	9.14
266.127	7.01
266.342	2.84
266.557	3.78
266.773	2.62
266.988	3.52
267.203	3.82
267.418	4.93
267.633	4.58
267.848	4.86
268.064	6.54
268.279	6.68
268.494	7.17
268.709	9.24
268.924	9.48
269.139	11.67
269.354	12.86
269.569	12.03
269.784	12.97
269.999	11.59
270.214	10.79
270.429	10.43
270.644	9.78
270.859	8.52
271.074	7.51
271.289	7.39
271.504	8.27
271.719	5.72
271.934	6.83
272.149	6.65
272.363	7.7
272.578	8.52
272.793	8.21
273.008	8.29
273.223	8.21
273.438	8.77
273.653	8.7
273.867	7.4
274.082	8.91
274.297	8.35
274.512	8.51
274.726	5.97
274.941	5.85
275.156	7.89
275.371	7.93
275.585	10.78
275.8	11.17
276.015	12.24
276.229	13.39
276.444	14.27
276.659	14.83
276.873	13.84
277.088	17.06
277.302	18.76
277.517	17.8
277.732	17.13
277.946	15.3
278.161	17.9
278.375	16.37
278.59	14.16
278.804	13.94
279.019	12.42
279.233	14.05
279.448	13.16
279.662	10.41
279.877	10.88
280.091	11.99
280.306	13.57
280.52	8.47
280.735	9.72
280.949	12.53
281.163	12.71
281.378	13.9
281.592	14.11
281.806	15.14
282.021	14.45
282.235	12.95
282.449	11.47
282.664	11.05
282.878	12.71
283.092	11.69
283.307	8.32
283.521	7.06
283.735	5.67
283.949	4.84
284.164	4.08
284.378	5.03
284.592	5.89
284.806	8.1
285.02	8.18
285.234	8.87
285.449	9.17
285.663	11.76
285.877	11.42
286.091	11.9
286.305	12.08
286.519	12.02
286.733	12.36
286.947	10.27
287.161	9.49
287.375	8.61
287.589	9.17
287.803	11.17
288.017	10
288.231	9.11
288.445	9.46
288.659	8.27
288.873	6.65
289.087	6.8
289.301	10.04
289.515	10.77
289.729	11.35
289.943	9.56
290.157	7.29
290.371	6.88
290.584	7.44
290.798	8.49
291.012	8.76
291.226	9.34
291.44	7.98
291.654	6.96
291.867	5.55
292.081	5.28
292.295	3.26
292.509	2.7
292.722	2.53
292.936	3.01
293.15	2.65
293.364	1.43
293.577	2.03
293.791	3.89
294.005	4.15
294.218	4.82
294.432	5.92
294.645	9.42
294.859	11.9
295.073	11.99
295.286	13.11
295.5	12.18
295.713	14.05
295.927	12.88
296.14	12.69
296.354	12.65
296.568	12.74
296.781	11.48
296.994	9.71
297.208	8.93
297.421	9.32
297.635	8.83
297.848	9.63
298.062	8.62
298.275	9.15
298.489	8.65
298.702	9.3
298.915	8.75
299.129	8.55
299.342	9.28
299.555	8.38
299.769	8.68
299.982	9.27
300.195	8.16
300.409	8.29
300.622	7.57
300.835	7.42
301.048	7.14
301.262	7.4
301.475	7.4
301.688	8.24
301.901	7
302.115	8.59
302.328	8.08
302.541	7.97
302.754	9.87
302.967	9.8
303.18	10.78
303.393	11.15
303.607	12.17
303.82	12.42
304.033	11.95
304.246	15.63
304.459	15.91
304.672	14.95
304.885	13.53
305.098	12.37
305.311	13.78
305.524	12.24
305.737	12.82
305.95	12.43
306.163	12.01
306.376	14.2
306.589	13.83
306.802	13.18
307.015	14.85
307.228	16.54
307.44	15.44
307.653	14.51
307.866	16.06
308.079	15.44
308.292	14.4
308.505	15.5
308.718	14.86
308.93	14.79
309.143	12.93
309.356	12.04
309.569	12.39
309.781	14.36
309.994	15.22
310.207	16.13
310.42	16.39
310.632	16.73
310.845	16.76
311.058	15.17
311.27	14.55
311.483	15.49
311.696	16.21
311.908	16.33
312.121	15.75
312.333	16.21
312.546	15.23
312.759	15.56
312.971	14.87
313.184	14.33
313.396	14.69
313.609	14.47
313.821	13.78
314.034	14.33
314.246	13.55
314.459	14.07
314.671	13.09
314.884	12.78
315.096	13.47
315.309	13.92
315.521	15.08
315.733	15.76
315.946	16.49
316.158	17.95
316.371	17.19
316.583	18.63
316.795	18.84
317.008	19.51
317.22	19.8
317.432	18.28
317.644	19.77
317.857	19.7
318.069	20.67
318.281	19.51
318.494	19.67
318.706	18.33
318.918	18.36
319.13	17.69
319.342	17.3
319.555	18.45
319.767	19.69
319.979	18.39
320.191	17.62
320.403	17.03
320.615	18.06
320.827	17.54
321.039	20.12
321.252	19.86
321.464	21.36
321.676	20.75
321.888	20.46
322.1	18.54
322.312	19.18
322.524	18.83
322.736	18.94
322.948	18.79
323.16	17.71
323.372	18.35
323.584	19.78
323.796	18.54
324.007	19.7
324.219	21.26
324.431	20.6
324.643	21.63
324.855	21.79
325.067	22.87
325.279	22.99
325.491	23.62
325.702	22.76
325.914	20.02
326.126	22.02
326.338	20.85
326.55	18.06
326.761	19.28
326.973	19
327.185	19.83
327.396	19.28
327.608	19.02
327.82	20.23
328.032	20.24
328.243	21.76
328.455	20.07
328.666	21.25
328.878	23.07
329.09	23.63
329.301	23.39
329.513	24.04
329.725	23.42
329.936	23.92
330.148	22.83
330.359	22.7
330.571	23.26
330.782	24.39
330.994	24.06
331.205	23.12
331.417	24.85
331.628	25.64
331.84	25.66
332.051	27.29
332.262	27.3
332.474	28.22
332.685	28.33
332.897	28.42
333.108	27.41
333.319	28.15
333.531	29.05
333.742	29.9
333.953	30.92
334.165	30.51
334.376	30.13
334.587	31.05
334.799	32.28
335.01	33.92
335.221	35.06
335.432	35.97
335.644	36.12
335.855	36.89
336.066	36.14
336.277	35.12
336.488	36.18
336.7	37.22
336.911	37.07
337.122	36.6
337.333	37.28
337.544	36.12
337.755	36.58
337.966	37.26
338.177	38.27
338.388	36.53
338.599	37.97
338.811	37.59
339.022	36.81
339.233	37.66
339.444	36.33
339.655	34.05
339.866	34.96
340.076	33.6
340.287	32.71
340.498	30.57
340.709	32.83
340.92	32.98
341.131	33.98
341.342	33.73
341.553	34.48
341.764	36.77
341.975	38.57
342.185	38.92
342.396	39.41
342.607	40.48
342.818	41.76
343.029	41.29
343.239	41.19
343.45	40.38
343.661	40.32
343.872	40.76
344.082	39.82
344.293	37.85
344.504	38.65
344.714	39.55
344.925	40.1
345.136	39.87
345.346	39.97
345.557	39.58
345.768	40.12
345.978	41.36
346.189	39.63
346.399	39.98
346.61	41.19
346.821	41.18
347.031	41.26
347.242	40.56
347.452	40.41
347.663	40.2
347.873	39.56
348.084	38.74
348.294	38.73
348.504	39.49
348.715	39.36
348.925	38.76
349.136	37.44
349.346	36.63
349.557	37.87
349.767	38.73
349.977	38.13
350.188	39.07
350.398	40.11
350.608	39.24
350.819	39.7
351.029	41.16
351.239	41.92
351.449	43.22
351.66	43.3
351.87	42.2
352.08	42.57
352.29	44.44
352.501	43.66
352.711	43.49
352.921	44.5
353.131	44.28
353.341	41.85
353.552	41.76
353.762	40.98
353.972	41.33
354.182	42.13
354.392	41.25
354.602	41.29
354.812	41.84
355.022	43.08
355.232	43.19
355.442	43.09
355.652	44.48
355.862	44.57
356.072	44.99
356.282	45.87
356.492	45.85
356.702	46.16
356.912	45.04
357.122	46.06
357.332	45.21
357.542	43.95
357.752	43.57
357.962	43.2
358.171	43.2
358.381	42.6
358.591	42.16
358.801	41.74
359.011	40.9
359.221	40.25
359.43	39.72
359.64	40.03
359.85	40.89
360.06	40.21
360.269	40.36
360.479	40.37
360.689	40.37
360.899	39.68
361.108	38.95
361.318	38.71
361.528	39.74
361.737	38.5
361.947	38.32
362.156	38.63
362.366	38.86
362.576	38.63
362.785	38.69
362.995	38.33
363.204	38.77
363.414	39.2
363.623	40.49
363.833	39.86
364.042	39.61
364.252	39.07
364.461	38.86
364.671	39.85
364.88	39.5
365.09	39.13
365.299	39.46
365.509	39.09
365.718	38.49
365.927	37.44
366.137	37.82
366.346	38.27
366.555	38.25
366.765	37.63
366.974	36.5
367.183	36.42
367.393	36.08
367.602	36.14
367.811	35.51
368.021	35.6
368.23	35.36
368.439	34.81
368.648	35.49
368.857	35.19
369.067	35.44
369.276	35.77
369.485	36.33
369.694	36.4
369.903	35.93
370.112	37.08
370.321	36.89
370.531	37.92
370.74	37.95
370.949	37.51
371.158	36.65
371.367	36.22
371.576	35.48
371.785	35.13
371.994	35.38
372.203	35.59
372.412	34.1
372.621	34.55
372.83	34.37
373.039	35.13
373.248	35.64
373.457	36.86
373.666	36.17
373.874	36.56
374.083	36.29
374.292	35.64
374.501	35.88
374.71	36.93
374.919	36.8
375.128	36.31
375.336	35.26
375.545	34.79
375.754	33.7
375.963	33.96
376.171	33.94
376.38	33.99
376.589	34.49
376.798	34.06
377.006	34.33
377.215	34.07
377.424	33.88
377.632	34.3
377.841	34.72
378.05	35.14
378.258	35.21
378.467	35.32
378.675	35.59
378.884	35.11
379.093	35.57
379.301	34.7
379.51	34.37
379.718	34.22
379.927	34.25
380.135	33.79
380.344	34.23
380.552	35.02
380.761	35.23
380.969	34.19
381.177	34.06
381.386	33.62
381.594	33.94
381.803	34.08
382.011	34.2
382.219	33.78
382.428	33.73
382.636	33.18
382.845	32.14
383.053	31.94
383.261	32.11
383.469	32.23
383.678	31.62
383.886	31.68
384.094	31.33
384.302	31.22
384.511	31.25
384.719	31.04
384.927	30.78
385.135	30.69
385.343	29.88
385.552	29.71
385.76	29.4
385.968	30
386.176	29.49
386.384	29.69
386.592	29.57
386.8	29.24
387.008	29.43
387.216	29.05
387.424	29.23
387.633	29.69
387.841	30.14
388.049	30.63
388.257	30.23
388.465	30.41
388.672	30.23
388.88	29.93
389.088	29.7
389.296	29.35
389.504	29.93
389.712	29.6
389.92	29.21
390.128	29.2
390.336	29.09
390.544	29.16
390.751	28.92
390.959	28.92
391.167	29.15
391.375	29.39
391.583	29.41
391.79	29.56
391.998	29.49
392.206	29.83
392.414	29.47
392.621	28.9
392.829	28.75
393.037	28.72
393.244	28.79
393.452	28.69
393.66	28.55
393.867	28.41
394.075	28.11
394.283	27.85
394.49	27.6
394.698	27.75
394.905	28.32
395.113	28.48
395.32	28.58
395.528	28.56
395.735	28.38
395.943	28.62
396.15	28.71
396.358	28.58
396.565	28.66
396.773	28.67
396.98	28.62
397.188	28.48
397.395	28.4
397.602	28.15
397.81	27.89
398.017	28.07
398.225	28.28
398.432	28.17
398.639	28.17
398.847	28.5
399.054	28.68
399.261	28.6
399.468	28.39
399.676	28.28
399.883	28.65
400.09	28.94
400.297	29.36
400.505	29.16
400.712	29.21
400.919	29.39
401.126	29.36
401.333	29.19
401.54	29.13
401.748	29.12
401.955	29.24
402.162	29.08
402.369	29.05
402.576	28.86
402.783	28.52
402.99	28.38
403.197	28.55
403.404	28.68
403.611	29
403.818	29.17
404.025	29.54
404.232	29.74
404.439	29.86
404.646	29.95
404.853	29.88
405.06	30.07
405.267	30.51
405.474	30.04
405.681	30.26
405.887	30.3
406.094	30.43
406.301	30.36
406.508	29.86
406.715	29.53
406.922	29.45
407.128	29.59
407.335	29.79
407.542	29.33
407.749	29.7
407.955	29.47
408.162	29.02
408.369	28.76
408.575	28.82
408.782	29.24
408.989	29.58
409.195	29.77
409.402	29.5
409.609	29.44
409.815	29.56
410.022	29.49
410.228	29.49
410.435	29.72
410.642	29.82
410.848	29.84
411.055	29.54
411.261	29.22
411.468	29.1
411.674	29.24
411.881	29.24
412.087	29.39
412.294	29.24
412.5	29.18
412.706	29.44
412.913	29.36
413.119	29.11
413.326	29.27
413.532	29.46
413.738	29.27
413.945	29.29
414.151	29.13
414.357	29.18
414.564	29.4
414.77	29.37
414.976	29
415.182	29.11
415.389	28.92
415.595	29.01
415.801	28.99
416.007	28.94
416.214	28.88
416.42	28.71
416.626	28.37
416.832	28.2
417.038	28.1
417.244	28.09
417.45	28.03
417.657	28.21
417.863	28.29
418.069	28.16
418.275	28.18
418.481	27.96
418.687	27.9
418.893	27.92
419.099	28.05
419.305	27.9
419.511	27.91
419.717	27.73
419.923	27.7
420.129	27.54
420.335	27.45
420.541	27.49
420.746	27.57
420.952	27.64
421.158	27.61
421.364	27.35
421.57	27.45
421.776	27.32
421.982	27.29
422.187	27.22
422.393	27.16
422.599	27.32
422.805	27.24
423.01	27.09
423.216	27.11
423.422	27.09
423.628	27.17
423.833	27.29
424.039	27.28
424.245	27.37
424.45	27.34
424.656	27.39
424.862	27.32
425.067	27.32
425.273	27.47
425.478	27.39
425.684	27.38
425.889	27.5
426.095	27.37
426.301	27.4
426.506	27.45
426.712	27.34
426.917	27.34
427.123	27.29
427.328	27.14
427.533	27.04
427.739	26.94
427.944	26.87
428.15	26.53
428.355	26.42
428.561	26.38
428.766	26.24
428.971	26.25
429.177	26.35
429.382	26.37
429.587	26.53
429.793	26.35
429.998	26.29
430.203	26.25
430.408	26.51
430.614	26.52
430.819	26.78
431.024	27.07
431.229	27.21
431.434	27.05
431.64	27.17
431.845	27.03
432.05	26.97
432.255	27.19
432.46	27.58
432.665	27.51
432.87	27.73
433.076	27.45
433.281	27.15
433.486	27.04
433.691	26.91
433.896	26.86
434.101	26.93
434.306	26.96
434.511	27.09
434.716	26.98
434.921	27.05
435.126	26.8
435.331	26.96
435.535	27.01
435.74	27.21
435.945	27.2
436.15	27.13
436.355	27.05
436.56	27.01
436.765	26.88
436.97	26.69
437.174	26.78
437.379	26.77
437.584	26.81
437.789	26.92
437.993	26.77
438.198	26.86
438.403	26.85
438.608	27.02
438.812	27.28
439.017	27.22
439.222	27.19
439.426	27.05
439.631	26.98
439.836	26.96
440.04	26.92
440.245	26.76
440.45	26.88
440.654	26.96
440.859	26.87
441.063	26.71
441.268	26.76
441.472	26.72
441.677	26.73
441.881	26.94
442.086	26.72
442.29	26.65
442.495	26.85
442.699	26.77
442.904	26.55
443.108	26.64
443.312	26.9
443.517	26.82
443.721	26.9
443.925	27.01
444.13	26.93
444.334	27.02
444.538	27.24
444.743	27.22
444.947	27.09
445.151	27.28
445.356	27.26
445.56	27.11
445.764	27.15
445.968	27.15
446.173	27
446.377	27
446.581	27.09
446.785	26.91
446.989	26.86
447.193	26.84
447.398	26.7
447.602	26.52
447.806	26.33
448.01	26.17
448.214	26.08
448.418	26.1
448.622	26.02
448.826	25.84
449.03	25.73
449.234	25.66
449.438	25.7
449.642	25.75
449.846	25.73
450.05	25.8
450.254	25.76
450.458	25.81
450.662	25.65
450.866	25.62
451.069	25.76
451.273	25.73
451.477	25.69
451.681	25.59
451.885	25.56
452.089	25.63
452.292	25.81
452.496	25.94
452.7	25.79
452.904	25.88
453.107	25.95
453.311	25.89
453.515	25.88
453.719	25.96
453.922	25.85
454.126	25.7
454.33	25.68
454.533	25.62
454.737	25.52
454.94	25.58
455.144	25.56
455.348	25.31
455.551	25.28
455.755	25.42
455.958	25.42
456.162	25.55
456.365	25.82
456.569	25.75
456.772	25.58
456.976	25.51
457.179	25.64
457.383	25.64
457.586	25.78
457.79	25.67
457.993	25.74
458.196	25.68
458.4	25.82
458.603	25.78
458.807	25.77
459.01	25.81
459.213	25.89
459.417	25.83
459.62	26.05
459.823	26.01
460.026	26.13
460.23	26.09
460.433	26.16
460.636	26.14
460.839	26.2
461.042	26.25
461.246	26.26
461.449	26.38
461.652	26.42
461.855	26.15
462.058	26.12
462.261	26.06
462.464	26.03
462.668	26.01
462.871	25.88
463.074	25.68
463.277	25.83
463.48	25.97
463.683	26
463.886	26.09
464.089	26.29
464.292	26.38
464.495	26.34
464.698	26.36
464.901	26.42
465.104	26.58
465.306	26.93
465.509	26.87
465.712	26.55
465.915	26.38
466.118	26.58
466.321	26.54
466.524	26.5
466.726	26.46
466.929	26.52
467.132	26.44
467.335	26.3
467.538	26.06
467.74	26.21
467.943	26.33
468.146	26.28
468.348	25.95
468.551	25.95
468.754	26.04
468.956	26.17
469.159	26.06
469.362	26.11
469.564	26.16
469.767	26.3
469.969	26.28
470.172	26.41
470.375	26.42
470.577	26.58
470.78	26.64
470.982	26.62
471.185	26.69
471.387	26.74
471.59	26.73
471.792	27
471.995	26.85
472.197	26.73
472.399	26.64
472.602	26.77
472.804	26.79
473.007	26.62
473.209	26.72
473.411	26.84
473.614	27.01
473.816	27.08
474.018	26.98
474.22	27
474.423	26.99
474.625	26.97
474.827	27.08
475.03	27.16
475.232	27.32
475.434	27.24
475.636	27.21
475.838	27.22
476.04	26.94
476.243	26.73
476.445	26.68
476.647	26.71
476.849	26.79
477.051	26.68
477.253	26.63
477.455	26.49
477.657	26.49
477.859	26.26
478.061	26.25
478.263	26.42
478.465	26.49
478.667	26.55
478.869	26.65
479.071	26.71
479.273	26.84
479.475	26.82
479.677	26.75
479.879	26.84
480.081	26.88
480.283	26.84
480.485	26.85
480.686	27.03
480.888	26.97
481.09	26.87
481.292	26.76
481.494	26.64
481.695	26.61
481.897	26.63
482.099	26.53
482.301	26.58
482.502	26.56
482.704	26.56
482.906	26.34
483.107	26.37
483.309	26.38
483.511	26.36
483.712	26.42
483.914	26.45
484.115	26.46
484.317	26.47
484.519	26.43
484.72	26.39
484.922	26.37
485.123	26.49
485.325	26.5
485.526	26.5
485.728	26.59
485.929	26.5
486.131	26.44
486.332	26.43
486.534	26.4
486.735	26.45
486.936	26.56
487.138	26.5
487.339	26.46
487.541	26.39
487.742	26.43
487.943	26.34
488.144	26.4
488.346	26.42
488.547	26.46
488.748	26.51
488.95	26.53
489.151	26.48
489.352	26.51
489.553	26.53
489.755	26.57
489.956	26.49
490.157	26.49
490.358	26.45
490.559	26.45
490.76	26.39
490.961	26.37
491.163	26.33
491.364	26.29
491.565	26.38
491.766	26.39
491.967	26.45
492.168	26.41
492.369	26.49
492.57	26.51
492.771	26.48
492.972	26.52
493.173	26.62
493.374	26.69
493.575	26.67
493.776	26.62
493.976	26.59
494.177	26.65
494.378	26.82
494.579	26.77
494.78	26.79
494.981	26.82
495.182	26.99
495.382	27.06
495.583	27.03
495.784	27.2
495.985	27.21
496.185	27.17
496.386	27.18
496.587	27.22
496.788	27.23
496.988	27.32
497.189	27.34
497.39	27.16
497.59	27.03
497.791	27.01
497.992	26.89
498.192	27.02
498.393	27.08
498.593	27.08
498.794	27.06
498.994	27.28
499.195	27.26
499.395	27.3
499.596	27.48
499.796	27.49
499.997	27.55
500.197	27.65
500.398	27.5
500.598	27.72
500.799	27.78
500.999	27.7
501.199	27.67
501.4	27.86
501.6	28.03
501.801	28.13
502.001	28.19
502.201	28.26
502.402	28.33
502.602	28.53
502.802	28.37
503.002	28.36
503.203	28.49
503.403	28.48
503.603	28.41
503.803	28.38
504.003	28.37
504.204	28.37
504.404	28.22
504.604	28.26
504.804	28.29
505.004	28.39
505.204	28.37
505.404	28.45
505.604	28.4
505.804	28.38
506.005	28.32
506.205	28.18
506.405	28.34
506.605	28.56
506.805	28.5
507.005	28.39
507.204	28.35
507.404	28.65
507.604	28.63
507.804	28.77
508.004	28.7
508.204	28.78
508.404	29.02
508.604	28.88
508.804	28.93
509.003	29
509.203	29.19
509.403	29.26
509.603	29.04
509.803	29.03
510.002	28.95
510.202	28.96
510.402	28.89
510.602	28.8
510.801	28.93
511.001	28.95
511.201	28.86
511.4	28.77
511.6	28.88
511.8	29.01
511.999	29.1
512.199	29.12
512.398	29.24
512.598	29.39
512.797	29.34
512.997	29.37
513.197	29.35
513.396	29.46
513.596	29.69
513.795	29.64
513.994	29.6
514.194	29.72
514.393	29.93
514.593	29.9
514.792	29.95
514.992	30.02
515.191	30.15
515.39	30.17
515.59	30.21
515.789	30.22
515.988	30.32
516.188	30.28
516.387	30.27
516.586	30.07
516.786	30.1
516.985	30.13
517.184	30.23
517.383	30.11
517.582	30.24
517.782	30.2
517.981	30.05
518.18	30.07
518.379	30.23
518.578	30.29
518.777	30.39
518.976	30.48
519.176	30.47
519.375	30.31
519.574	30.27
519.773	30.15
519.972	30.28
520.171	30.36
520.37	30.38
520.569	30.39
520.768	30.24
520.967	30.22
521.166	30.22
521.365	30.25
521.564	30.4
521.762	30.32
521.961	30.41
522.16	30.38
522.359	30.47
522.558	30.37
522.757	30.4
522.956	30.41
523.154	30.51
523.353	30.39
523.552	30.43
523.751	30.55
523.949	30.97
524.148	31
524.347	31.12
524.546	30.97
524.744	31.04
524.943	30.95
525.142	30.9
525.34	30.9
525.539	31.04
525.737	30.94
525.936	30.99
526.135	30.91
526.333	30.8
526.532	30.75
526.73	30.79
526.929	30.67
527.127	30.61
527.326	30.61
527.524	30.61
527.723	30.6
527.921	30.67
528.12	30.67
528.318	30.54
528.516	30.63
528.715	30.7
528.913	30.73
529.112	30.78
529.31	30.89
529.508	30.92
529.707	30.93
529.905	30.94
530.103	30.92
530.301	30.92
530.5	31.04
530.698	31.09
530.896	31.06
531.094	31.16
531.293	31.25
531.491	31.07
531.689	31.07
531.887	31.07
532.085	31.11
532.283	31.08
532.481	30.95
532.68	30.93
532.878	30.83
533.076	30.75
533.274	30.68
533.472	30.67
533.67	30.78
533.868	30.89
534.066	30.9
534.264	30.8
534.462	30.82
534.66	30.91
534.858	30.94
535.056	30.93
535.253	30.98
535.451	30.98
535.649	30.9
535.847	30.94
536.045	30.82
536.243	30.71
536.441	30.72
536.638	30.82
536.836	30.78
537.034	30.75
537.232	30.91
537.43	30.92
537.627	31
537.825	31.06
538.023	31.09
538.22	31.18
538.418	31.26
538.616	31.38
538.813	31.29
539.011	31.26
539.209	31.21
539.406	31.2
539.604	31.2
539.801	31
539.999	30.95
540.196	30.93
540.394	30.98
540.591	31.1
540.789	31.11
540.986	31.16
541.184	31.24
541.381	31.37
541.579	31.31
541.776	31.29
541.974	31.36
542.171	31.42
542.368	31.47
542.566	31.47
542.763	31.42
542.96	31.42
543.158	31.47
543.355	31.49
543.552	31.43
543.75	31.36
543.947	31.51
544.144	31.52
544.341	31.45
544.539	31.39
544.736	31.39
544.933	31.39
545.13	31.44
545.327	31.33
545.524	31.37
545.722	31.28
545.919	31.32
546.116	31.09
546.313	31.07
546.51	31.11
546.707	31.16
546.904	31.04
547.101	31.01
547.298	30.96
547.495	31.03
547.692	30.93
547.889	30.92
548.086	30.92
548.283	30.93
548.48	31.03
548.677	31.11
548.874	31.01
549.07	31.17
549.267	31.13
549.464	31.1
549.661	31.2
549.858	31.19
550.055	31.4
550.251	31.27
550.448	31.13
550.645	31.05
550.842	30.95
551.038	31.06
551.235	31.08
551.432	31.1
551.628	31.07
551.825	31
552.022	31.07
552.218	31.01
552.415	31.08
552.612	31.46
552.808	31.61
553.005	31.64
553.201	31.5
553.398	31.41
553.594	31.48
553.791	31.41
553.987	31.41
554.184	31.32
554.38	31.55
554.577	31.69
554.773	31.78
554.97	31.69
555.166	31.76
555.362	32.1
555.559	32.21
555.755	32.21
555.952	32.41
556.148	32.54
556.344	32.48
556.541	32.16
556.737	32.13
556.933	31.81
557.129	31.77
557.326	31.77
557.522	31.77
557.718	31.73
557.914	31.72
558.11	31.7
558.307	31.49
558.503	31.8
558.699	31.85
558.895	31.92
559.091	31.79
559.287	31.82
559.483	31.79
559.679	31.45
559.876	31.25
560.072	31.36
560.268	31.5
560.464	31.62
560.66	31.52
560.856	31.5
561.052	31.58
561.247	31.74
561.443	31.79
561.639	31.8
561.835	31.76
562.031	32.01
562.227	31.82
562.423	31.67
562.619	31.69
562.815	31.73
563.01	31.58
563.206	31.73
563.402	31.88
563.598	31.95
563.793	32.17
563.989	32.31
564.185	32.31
564.381	32.36
564.576	32.29
564.772	31.99
564.968	31.78
565.163	31.83
565.359	31.83
565.555	31.86
565.75	31.68
565.946	31.65
566.141	31.61
566.337	31.74
566.532	31.77
566.728	31.83
566.923	31.99
567.119	32.17
567.314	32.34
567.51	32.19
567.705	32.1
567.901	32.25
568.096	31.97
568.292	32.05
568.487	31.99
568.682	32.15
568.878	32.26
569.073	32.28
569.268	32.31
569.464	32.28
569.659	32.26
569.854	32.26
570.05	32.19
570.245	32.4
570.44	32.31
570.635	32.25
570.831	31.99
571.026	32.1
571.221	32.14
571.416	32.19
571.611	32.07
571.806	32.12
572.002	32.13
572.197	32.08
572.392	32
572.587	32.13
572.782	32.1
572.977	32.33
573.172	32.17
573.367	32.14
573.562	32.15
573.757	32.27
573.952	32.16
574.147	32.04
574.342	31.99
574.537	32.06
574.732	32.11
574.927	32.1
575.121	31.98
575.316	32.25
575.511	32.39
575.706	32.26
575.901	32.43
576.096	32.47
576.29	32.6
576.485	32.66
576.68	32.75
576.875	32.48
577.069	32.74
577.264	32.74
577.459	32.46
577.654	32.62
577.848	32.78
578.043	32.57
578.238	32.76
578.432	32.78
578.627	33.03
578.821	33.14
579.016	33.64
579.21	33.43
579.405	33.71
579.6	33.74
579.794	33.31
579.989	33.19
580.183	33.33
580.378	33.25
580.572	33.36
580.766	33.28
580.961	33.1
581.155	32.78
581.35	32.7
581.544	32.43
581.738	32.24
581.933	32.3
582.127	32.38
582.321	32.27
582.516	32.1
582.71	31.91
582.904	31.67
583.099	31.65
583.293	31.72
583.487	31.63
583.681	31.81
583.875	31.97
584.07	32.02
584.264	31.95
584.458	32.04
584.652	32.47
584.846	32.92
585.04	33
585.234	33.01
585.428	32.98
585.623	33
585.817	32.91
586.011	32.67
586.205	33.03
586.399	33.06
586.593	32.79
586.787	32.69
586.981	32.29
587.174	32.27
587.368	32.21
587.562	32.17
587.756	32.44
587.95	32.33
588.144	32.46
588.338	32.21
588.532	32.07
588.725	32.31
588.919	32.16
589.113	31.9
589.307	31.94
589.501	31.96
589.694	31.99
589.888	32.08
590.082	32.09
590.275	32.41
590.469	32.43
590.663	32.46
590.856	32.43
591.05	32.42
591.244	32.87
591.437	32.91
591.631	33.19
591.824	33.21
592.018	33
592.212	33.05
592.405	32.83
592.599	32.64
592.792	32.74
592.986	32.97
593.179	33.23
593.372	33.08
593.566	32.91
593.759	32.72
593.953	32.74
594.146	32.93
594.339	32.94
594.533	32.86
594.726	32.89
594.92	32.96
595.113	32.69
595.306	32.25
595.499	32.45
595.693	32.83
595.886	32.71
596.079	32.78
596.272	32.56
596.466	32.65
596.659	32.75
596.852	32.72
597.045	32.77
597.238	32.73
597.431	32.65
597.624	32.79
597.818	32.51
598.011	32.49
598.204	32.31
598.397	32.32
598.59	32.21
598.783	32.17
598.976	32.32
599.169	32.09
599.362	32.09
599.555	32.34
599.748	31.79
599.941	31.69
600.134	31.86
600.326	31.91
600.519	32.05
600.712	31.93
600.905	31.92
601.098	31.92
601.291	32.05
601.483	32.3
601.676	32.44
601.869	32.77
602.062	33.04
602.255	32.76
602.447	32.68
602.64	32.71
602.833	32.9
603.025	33.07
603.218	33.25
603.411	33.33
603.603	33.03
603.796	32.96
603.989	32.9
604.181	32.72
604.374	32.98
604.566	33.03
604.759	33
604.951	32.99
605.144	32.74
605.336	32.46
605.529	32.23
605.721	32.39
605.914	32.28
606.106	32.29
606.299	32.37
606.491	32.5
606.683	32.5
606.876	32.27
607.068	32.37
607.26	32.48
607.453	32.77
607.645	33.12
607.837	32.89
608.03	33.02
608.222	32.87
608.414	32.83
608.606	32.73
608.799	32.67
608.991	32.79
609.183	32.58
609.375	32.67
609.567	32.25
609.759	31.97
609.952	32.35
610.144	32.3
610.336	32.34
610.528	32.3
610.72	32.24
610.912	32.32
611.104	32.26
611.296	32.23
611.488	32.15
611.68	32.28
611.872	32.4
612.064	32.14
612.256	32.13
612.448	32.07
612.64	32.48
612.832	32.46
613.023	32.47
613.215	32.55
613.407	32.89
613.599	32.69
613.791	32.78
613.983	32.9
614.174	32.84
614.366	32.98
614.558	32.94
614.75	32.36
614.941	32.4
615.133	32.31
615.325	32.02
615.516	31.8
615.708	32.25
615.9	32.19
616.091	32.19
616.283	32.38
616.475	32.2
616.666	32.32
616.858	32.65
617.049	32.41
617.241	32.51
617.432	32.75
617.624	32.83
617.815	32.55
618.007	32.66
618.198	32.58
618.39	32.77
618.581	32.83
618.773	32.95
618.964	32.79
619.155	32.66
619.347	32.78
619.538	32.7
619.729	32.86
619.921	32.88
620.112	33.06
620.303	33.16
620.494	33
620.686	33
620.877	33.03
621.068	33.29
621.259	33.85
621.451	33.82
621.642	33.78
621.833	33.72
622.024	33.75
622.215	33.51
622.406	33.61
622.597	33.13
622.788	33.1
622.98	32.92
623.171	32.64
623.362	32.12
623.553	31.95
623.744	32.2
623.935	32.1
624.126	32.04
624.317	32.1
624.508	31.88
624.698	32.03
624.889	31.93
625.08	32.04
625.271	32.11
625.462	32.15
625.653	32
625.844	31.88
626.034	31.88
626.225	31.79
626.416	31.78
626.607	31.9
626.798	31.96
626.988	32.03
627.179	31.85
627.37	31.67
627.56	31.83
627.751	31.95
627.942	32.11
628.132	31.91
628.323	32.02
628.514	32.2
628.704	32.15
628.895	32.28
629.085	32.59
629.276	32.8
629.466	32.97
629.657	32.99
629.847	33.15
630.038	33.03
630.228	33.09
630.419	33.03
630.609	33.09
630.8	33.19
630.99	33.25
631.181	32.69
631.371	32.54
631.561	32.94
631.752	32.73
631.942	32.68
632.132	32.61
632.323	32.86
632.513	32.96
632.703	32.79
632.893	32.66
633.084	32.4
633.274	32.76
633.464	32.85
633.654	32.46
633.844	32.36
634.034	32.5
634.225	32.71
634.415	32.58
634.605	32.47
634.795	32.86
634.985	32.74
635.175	32.69
635.365	32.63
635.555	32.77
635.745	32.72
635.935	32.99
636.125	32.82
636.315	32.51
636.505	32.75
636.695	33.09
636.885	33.05
637.075	33.4
637.265	33.49
637.455	33.36
637.644	33.36
637.834	33.79
638.024	33.61
638.214	33.6
638.404	33.83
638.593	33.63
638.783	33.45
638.973	32.94
639.163	32.77
639.352	32.92
639.542	33.26
639.732	33.49
639.921	33.04
640.111	33.01
640.301	33.22
640.49	33.32
640.68	33.25
640.87	33.6
641.059	33.95
641.249	33.61
641.438	33.84
641.628	33.81
641.817	33.61
642.007	33.55
642.196	34.14
642.386	34.04
642.575	33.83
642.764	33.91
642.954	33.47
643.143	32.97
643.333	33.1
643.522	32.95
643.711	32.55
643.901	32.19
644.09	32.66
644.279	31.91
644.469	31.79
644.658	31.81
644.847	32.28
645.036	32.49
645.226	32.66
645.415	32.65
645.604	32.42
645.793	32.57
645.982	32.55
646.171	32.23
646.361	32.82
646.55	32.74
646.739	32.66
646.928	32.25
647.117	32.16
647.306	32.37
647.495	32.66
647.684	32.97
647.873	33.31
648.062	33.75
648.251	33.66
648.44	33.3
648.629	33.3
648.818	33.46
649.007	33.91
649.196	33.34
649.384	33.2
649.573	33.15
649.762	33.48
649.951	33.25
650.14	33.2
650.328	33.26
650.517	33.66
650.706	33.96
650.895	34.1
651.083	33.6
651.272	34.03
651.461	33.84
651.65	33.86
651.838	33.62
652.027	33.93
652.216	33.92
652.404	33.92
652.593	33.58
652.781	33.34
652.97	33.12
653.158	33.34
653.347	33.47
653.535	33.85
653.724	33.7
653.912	33.64
654.101	33.27
654.289	33.17
654.478	33.45
654.666	33.21
654.855	33.41
655.043	33
655.231	32.72
655.42	32.9
655.608	32.6
655.796	32.57
655.985	32.16
656.173	32.13
656.361	32.07
656.55	31.84
656.738	32.27
656.926	32.3
657.114	32.75
657.302	32.44
657.491	32.43
657.679	32.59
657.867	32.64
658.055	32.82
658.243	32.46
658.431	32.41
658.619	32.41
658.807	32.3
658.996	32.15
659.184	31.92
659.372	32.03
659.56	31.98
659.748	32.08
659.936	32.07
660.124	32.17
660.311	32.47
660.499	32.51
660.687	32.26
660.875	32.44
661.063	32.59
661.251	32.79
661.439	33.55
661.627	33.58
661.814	33.37
662.002	32.99
662.19	33.18
662.378	33.22
662.565	33.07
662.753	33.59
662.941	33.54
663.129	33.23
663.316	33.2
663.504	32.62
663.692	32.31
663.879	32.68
664.067	33.09
664.254	32.31
664.442	32.45
664.63	32.63
664.817	32.18
665.005	31.99
665.192	32.1
665.38	32.38
665.567	31.92
665.755	31.85
665.942	31.8
666.13	31.86
666.317	32.08
666.504	32.45
666.692	32.29
666.879	32.36
667.067	32.47
667.254	32.59
667.441	32.17
667.629	32.18
667.816	32.75
668.003	32.84
668.19	32.96
668.378	33.15
668.565	32.49
668.752	32.8
668.939	32.84
669.127	33.23
669.314	33.52
669.501	33.72
669.688	33.88
669.875	33.69
670.062	33.67
670.249	33.41
670.436	33.33
670.623	33.52
670.81	33.5
670.997	33.67
671.184	33.05
671.371	33.04
671.558	33.04
671.745	33.25
671.932	33.15
672.119	33.06
672.306	33.47
672.493	33.66
672.68	33.87
672.867	33.56
673.054	33.36
673.24	33.71
673.427	33.6
673.614	33.92
673.801	34.14
673.988	33.79
674.174	34.04
674.361	33.77
674.548	34.1
674.734	34.39
674.921	34.44
675.108	34.8
675.294	34.87
675.481	34.56
675.668	34.58
675.854	34.5
676.041	34.54
676.227	34.19
676.414	34.71
676.601	34.01
676.787	33.36
676.974	33.51
677.16	33.55
677.347	33.72
677.533	33.72
677.719	33.62
677.906	33.44
678.092	33.89
678.279	34.01
678.465	33.6
678.651	33.73
678.838	34.13
679.024	34.03
679.21	33.78
679.397	33.11
679.583	32.98
679.769	32.61
679.955	32.66
680.142	32.19
680.328	32.22
680.514	31.99
680.7	31.77
680.886	31.69
681.073	31.91
681.259	32.43
681.445	32.93
681.631	33.31
681.817	33.46
682.003	33.95
682.189	34.35
682.375	33.97
682.561	34.21
682.747	34.64
682.933	34.65
683.119	34.71
683.305	34.27
683.491	34.28
683.677	33.97
683.863	33.69
684.049	33.13
684.235	33
684.42	33.14
684.606	32.8
684.792	32.6
684.978	32.44
685.164	32.48
685.349	31.91
685.535	32.32
685.721	32.59
685.907	32.95
686.092	32.87
686.278	32.55
686.464	32.91
686.649	33.69
686.835	34.35
687.021	34.61
687.206	34.25
687.392	34.16
687.577	33.77
687.763	33.75
687.948	34.04
688.134	33.72
688.319	33.8
688.505	33.96
688.69	33.91
688.876	33.27
689.061	32.79
689.247	32.79
689.432	33.59
689.618	33.37
689.803	33.34
689.988	33.26
690.174	33.35
690.359	33.45
690.544	33.38
690.73	32.79
690.915	32.88
691.1	33.48
691.285	33.96
691.471	33.75
691.656	34.33
691.841	34.06
692.026	33.7
692.211	33.99
692.396	34.17
692.582	34.36
692.767	34.69
692.952	34.76
693.137	34.22
693.322	34.07
693.507	33.79
693.692	33.04
693.877	32.92
694.062	33.08
694.247	33.03
694.432	33.3
694.617	32.54
694.802	32.65
694.987	32.33
695.172	32.21
695.357	31.81
695.541	32.01
695.726	32.35
695.911	33.06
696.096	32.83
696.281	32.93
696.466	32.59
696.65	32.41
696.835	32.14
697.02	32.11
697.204	32.64
697.389	33
697.574	33
697.759	32.36
697.943	31.99
698.128	31.8
698.312	32.03
698.497	32.16
698.682	32.51
698.866	32.18
699.051	32.41
699.235	32.31
699.42	31.87
699.604	31.61
699.789	31.89
699.973	31.59
700.158	31.87
700.342	31.75
700.527	31.99
700.711	31.92
700.895	32.59
701.08	33.05
701.264	32.74
701.448	33.21
701.633	33.82
701.817	34.41
702.001	35.31
702.186	35.3
702.37	34.45
702.554	34.2
702.738	34.51
702.923	34.47
703.107	33.98
703.291	34.36
703.475	34.41
703.659	33.85
703.843	33.34
704.027	33.3
704.212	33.51
704.396	34.19
704.58	34.3
704.764	33.96
704.948	33.12
705.132	33.27
705.316	33.03
705.5	32.15
705.684	31.84
705.868	32.26
706.052	32.68
706.235	32.83
706.419	33.16
706.603	33.21
706.787	33.19
706.971	33.89
707.155	33.24
707.339	32.69
707.522	32.45
707.706	33.37
707.89	32.9
708.074	31.69
708.257	31.25
708.441	30.69
708.625	30.11
708.808	29.72
708.992	29.34
709.176	29.28
709.359	29.82
709.543	30.31
709.727	30.42
709.91	31.25
710.094	31.57
710.277	31.53
710.461	32.11
710.644	32.49
710.828	33
711.011	32.99
711.195	33.45
711.378	33.16
711.562	33.58
711.745	33.15
711.928	32.83
712.112	32.34
712.295	32.58
712.478	32.46
712.662	32.31
712.845	33.11
713.028	32.93
713.212	32.94
713.395	33.36
713.578	33.16
713.761	33.13
713.945	32.45
714.128	32.97
714.311	33.2
714.494	33.38
714.677	33.38
714.86	32.89
715.043	33.4
715.227	33.67
715.41	33.56
715.593	33.81
715.776	33.72
715.959	34.14
716.142	34.32
716.325	34.52
716.508	34.2
716.691	34.39
716.874	33.74
717.057	33.28
717.239	32.8
717.422	33.64
717.605	33.22
717.788	33.28
717.971	32.56
718.154	31.73
718.337	31.24
718.519	30.96
718.702	30.36
718.885	31.43
719.068	31.51
719.25	31.2
719.433	29.83
719.616	29.33
719.798	28.62
719.981	29.46
720.164	31.13
720.346	31.68
720.529	31.11
720.712	31.74
720.894	30.67
721.077	30.77
721.259	31.22
721.442	31.06
721.624	32.35
721.807	33.85
721.989	33.73
722.172	33.56
722.354	33.73
722.537	34.81
722.719	35.4
722.901	35.53
723.084	35.72
723.266	36.1
723.448	36.25
723.631	36.64
723.813	36.52
723.995	36.46
724.178	35.83
724.36	35.56
724.542	36.25
724.724	35.42
724.907	35.32
725.089	35.61
725.271	35.33
725.453	35.53
725.635	34.95
725.817	34.41
725.999	34.44
726.181	34.07
726.364	32.96
726.546	32.71
726.728	32.4
726.91	31.88
727.092	31.69
727.274	32.59
727.456	32.54
727.638	31.82
727.819	32.24
728.001	32.65
728.183	33.15
728.365	33.3
728.547	32.65
728.729	33.34
728.911	34.2
729.093	34.51
729.274	33.63
729.456	33.62
729.638	33.89
729.82	33.16
730.001	33.17
730.183	32.97
730.365	33.16
730.546	33.5
730.728	33.79
730.91	33.72
731.091	32.96
731.273	32.33
731.455	32.49
731.636	32.08
731.818	32.89
731.999	32.08
732.181	32.07
732.362	32.71
732.544	32.17
732.725	31.66
732.907	32.36
733.088	32.93
733.27	33.01
733.451	32.95
733.633	33
733.814	32.71
733.995	33.11
734.177	33.37
734.358	33.13
734.539	33.65
734.721	33.79
734.902	32.46
735.083	32.3
735.264	32.6
735.446	32.88
735.627	33.64
735.808	32.83
735.989	31.98
736.17	32.02
736.351	31.9
736.533	32.38
736.714	31.84
736.895	31.66
737.076	32.13
737.257	31.38
737.438	31.59
737.619	31.75
737.8	32.09
737.981	32.08
738.162	31.74
738.343	31.72
738.524	30.32
738.705	30.82
738.886	32.14
739.067	31.88
739.247	33.23
739.428	32.8
739.609	32.19
739.79	32.2
739.971	34.2
740.151	34.68
740.332	35.6
740.513	35.52
740.694	35.87
740.874	35.1
741.055	34.53
741.236	34.06
741.417	34.32
741.597	35.3
741.778	35.97
741.958	33.89
742.139	33.59
742.32	32.59
742.5	33.48
742.681	32.78
742.861	31.81
743.042	30.66
743.222	30.11
743.403	30.31
743.583	30.18
743.764	28.14
743.944	29.38
744.124	28.71
744.305	27.13
744.485	27.22
744.666	27.52
744.846	26.93
745.026	26.6
745.207	27.79
745.387	26.78
745.567	26.19
745.747	27.02
745.928	25.23
746.108	26.31
746.288	27.03
746.468	27.85
746.648	27.48
746.829	28.45
747.009	30.15
747.189	29.88
747.369	30.51
747.549	31.02
747.729	32.27
747.909	33.2
748.089	31.9
748.269	32.71
748.449	32.69
748.629	32.33
748.809	32.86
748.989	32.39
749.169	31.56
749.349	30.89
749.529	30.78
749.709	30.27
749.889	31.46
750.068	32.94
750.248	32.67
750.428	31.8
750.608	31.28
750.788	31.46
750.967	32.86
751.147	34.51
751.327	35.28
751.507	35.59
751.686	35.85
751.866	36.99
752.046	36.02
752.225	37.08
752.405	37
752.585	37.85
752.764	37.91
752.944	36.58
753.123	35.15
753.303	34.97
753.482	35.4
753.662	35.12
753.841	32.89
754.021	33.81
754.2	33.23
754.38	33.17
754.559	33.27
754.739	33.21
754.918	34.39
755.097	34.72
755.277	35.21
755.456	33.82
755.635	33.19
755.815	33.41
755.994	32.18
756.173	32.71
756.352	32.38
756.532	32.63
756.711	32.22
756.89	32.85
757.069	33.66
757.248	33.15
757.427	33.33
757.607	34.94
757.786	34.67
757.965	35.26
758.144	34.51
758.323	35.9
758.502	36.12
758.681	36.31
758.86	35.67
759.039	34.87
759.218	35
759.397	35.65
759.576	34.8
759.755	34.31
759.934	33.21
760.113	33.43
760.291	32.86
760.47	32.89
760.649	32.75
760.828	32.87
761.007	33.76
761.186	32.94
761.364	32.04
761.543	31.93
761.722	32.45
761.901	33.44
762.079	33.82
762.258	33.03
762.437	32.2
762.615	31.91
762.794	32.47
762.972	31.68
763.151	33
763.33	33.42
763.508	32.94
763.687	33.68
763.865	33.1
764.044	32.35
764.222	32.44
764.401	32.75
764.579	32.53
764.758	31.49
764.936	31.73
765.114	31.53
765.293	31.5
765.471	31.54
765.65	31.25
765.828	31.59
766.006	31.63
766.184	32.77
766.363	33.59
766.541	34.67
766.719	34.85
766.898	34.24
767.076	32.55
767.254	31.5
767.432	31.55
767.61	32.27
767.788	32.02
767.967	31.64
768.145	29.7
768.323	27.98
768.501	28.05
768.679	26.92
768.857	27.29
769.035	27.76
769.213	28.82
769.391	28.86
769.569	28.5
769.747	30.49
769.925	30.63
770.103	31.77
770.281	31.01
770.459	31.83
770.636	34.72
770.814	35.64
770.992	38.51
771.17	39.15
771.348	39.92
771.525	39.34
771.703	36.99
771.881	37.34
772.059	37.47
772.236	38.64
772.414	36.99
772.592	35.92
772.769	33.32
772.947	31.12
773.125	31.94
773.302	30.61
773.48	29.56
773.657	28.47
773.835	28.41
774.013	28.31
774.19	26.85
774.368	27.24
774.545	28.29
774.723	30.75
774.9	30.39
775.077	29.24
775.255	31.13
775.432	31.45
775.61	31.44
775.787	34.56
775.964	34.35
776.142	35.68
776.319	35.79
776.496	33.55
776.674	34.44
776.851	35.06
777.028	32.54
777.205	31.09
777.382	30
777.56	33.46
777.737	30.53
777.914	29.44
778.091	31.46
778.268	30.97
778.445	31.85
778.622	30.63
778.8	29.15
778.977	31.36
779.154	32.66
779.331	36.26
779.508	33.79
779.685	33.93
779.862	37.41
780.038	37.72
780.215	38.45
780.392	38.63
780.569	37.64
780.746	39.03
780.923	38.61
781.1	37.33
781.277	36.35
781.453	36.54
781.63	36.95
781.807	34.22
781.984	33.17
782.16	34.35
782.337	33.48
782.514	34.27
782.691	35.37
782.867	37.83
783.044	39.22
783.221	36.82
783.397	38.11
783.574	37.95
783.75	38.97
783.927	39.67
784.103	38.96
784.28	41.69
784.456	41.38
784.633	40.84
784.809	37.66
784.986	35.01
785.162	36.97
785.339	36.21
785.515	36.5
785.692	36.35
785.868	36.3
786.044	35.71
786.221	34
786.397	33.45
786.573	33.65
786.749	35.61
786.926	37.29
787.102	37.27
787.278	38.25
787.454	37.63
787.631	35.34
787.807	34.27
787.983	34.69
788.159	33.89
788.335	33.76
788.511	31.71
788.687	30.39
788.863	30.81
789.039	32.86
789.216	32.07
789.392	31.55
789.568	32.78
789.744	30.42
789.919	30.27
790.095	29.73
790.271	30.87
790.447	31.79
790.623	34.67
790.799	33.83
790.975	30.41
791.151	28.17
791.327	28.62
791.502	28.42
791.678	31.02
791.854	27.94
792.03	29.53
792.205	27.73
792.381	29.02
792.557	24.44
792.733	26.82
792.908	26.54
793.084	29.11
793.259	29.07
793.435	30.45
793.611	31.16
793.786	34.06
793.962	33.93
794.137	36.05
794.313	36.1
794.488	41.05
794.664	39.43
794.839	37.46
795.015	37.17
795.19	39.61
795.366	38.2
795.541	36.59
795.716	35.46
795.892	35.93
796.067	34.85
796.242	34.38
796.418	32.07
796.593	32.27
796.768	34.59
796.944	35.36
797.119	33.73
797.294	35.67
797.469	37.65
797.644	36.64
797.82	34.36
797.995	35.18
798.17	35.33
798.345	35.46
798.52	35.59
798.695	34.81
798.87	33.86
799.045	33.51
799.22	33.12
799.395	30.42
799.57	31.74
799.745	36.99
799.92	39.64
800.095	40.31
800.27	40.48
800.445	41.1
800.62	43.67
800.795	43.86
800.97	41.99
801.145	42.73
801.319	41.99
801.494	43.88
801.669	43.3
801.844	38.61
802.018	42.19
802.193	43.7
802.368	39.09
802.543	35.21
802.717	36.8
802.892	35.26
803.067	34.94
803.241	35.11
803.416	33.16
803.59	31.44
803.765	34.09
803.94	28.51
804.114	29.02
804.289	29.94
804.463	33.8
804.638	30.52
804.812	30.09
804.986	28.45
805.161	34.42
805.335	33.62
805.51	33.97
805.684	30.59
805.858	32.49
806.033	27.32
806.207	28.74
806.381	25.63
806.556	31.08
806.73	38.6
806.904	37.85
807.078	37.22
807.253	36.08
807.427	35.18
807.601	39.48
807.775	39.73
807.949	43.21
808.123	42.83
808.298	41.72
808.472	37.71
808.646	29.42
808.82	30.71
808.994	27.71
809.168	33.96
809.342	32.43
809.516	29.98
809.69	29.3
809.864	26.94
810.038	28.88
810.212	29.32
810.385	28.95
810.559	38.36
810.733	39.57
810.907	37.58
811.081	36.6
811.255	36.01
811.428	37.18
811.602	37.98
811.776	40.19
811.95	40.99
812.123	40.51
812.297	41.3
812.471	39.17
812.644	40
812.818	44.5
812.992	44.21
813.165	47.51
813.339	46.21
813.512	48.39
813.686	45.82
813.86	43.15
814.033	48.64
814.207	46.54
814.38	44.27
814.554	38.03
814.727	29.85
814.9	30.74
815.074	26.29
815.247	26.12
815.421	25.17
815.594	27.04
815.767	27.13
815.941	23.87
816.114	25.55
816.287	26.68
816.46	27.05
816.634	30.76
816.807	26.08
816.98	26.84
817.153	29.94
817.327	32.8
817.5	28.47
817.673	29.23
817.846	26.92
818.019	24.88
818.192	25.18
818.365	24.89
818.538	27.56
818.711	27
818.884	30.79
819.057	27.84
819.23	23.39
819.403	24.14
819.576	26.9
819.749	29.47
819.922	29.26
820.095	27.97
820.268	32.25
820.441	33.54
820.614	34.59
820.786	33.99
820.959	35.31
821.132	33.23
821.305	33.6
821.477	32.48
821.65	31.98
821.823	32.96
821.996	32.36
822.168	31.62
822.341	30.49
822.514	29.67
822.686	29.67
822.859	28.68
823.031	29.62
823.204	29.32
823.376	28.95
823.549	29.56
823.722	29.49
823.894	29.59
824.067	29.75
824.239	29.51
824.411	29.82
824.584	29.29
824.756	30.35
824.929	30.12
825.101	30.05
825.273	30.6
825.446	30.35
825.618	31.27
825.79	31.07
825.963	31.76
826.135	32.72
826.307	33.21
826.479	33.5
826.652	32.04
826.824	31.51
826.996	32.02
827.168	31.48
827.34	31.3
827.512	30.61
827.684	30.78
827.856	29.44
828.029	27.96
828.201	27
828.373	27.03
828.545	27.75
828.717	28.12
828.889	27.32
829.061	27.7
829.232	27.34
829.404	27.45
829.576	29.52
829.748	29.66
829.92	31.93
830.092	33.47
830.264	33.53
830.436	35.14
830.607	36.52
830.779	36.99
830.951	36.63
831.123	37.34
831.294	35.4
831.466	32.44
831.638	33.35
831.809	31.34
831.981	32.7
832.153	38.18
832.324	35.58
832.496	35.48
832.667	32.4
832.839	32.94
833.011	34.97
833.182	37.82
833.354	37.85
833.525	39.96
833.697	42.04
833.868	39.74
834.039	39.11
834.211	38.08
834.382	38.38
834.554	39.15
834.725	40
834.896	36.18
835.068	35.95
835.239	36.81
835.41	34.33
835.581	33.63
835.753	36.11
835.924	31.51
836.095	30.49
836.266	30.92
836.438	33.12
836.609	36.87
836.78	40.35
836.951	39.7
837.122	39.5
837.293	40.55
837.464	39.15
837.635	36.73
837.806	39.57
837.977	42.23
838.148	40.53
838.319	36.42
838.49	30.69
838.661	30.05
838.832	28.92
839.003	26.75
839.174	27.54
839.345	25.8
839.516	26.72
839.687	24.71
839.857	23.24
840.028	22.9
840.199	29.45
840.37	30.49
840.54	32.33
840.711	36.08
840.882	35.1
841.053	31.28
841.223	34.54
841.394	37.82
841.564	43.45
841.735	48.06
841.906	44.6
842.076	46.21
842.247	50
842.417	51.17
842.588	45.33
842.758	48.19
842.929	51.09
843.099	45.94
843.27	37.95
843.44	34.12
843.611	28.8
843.781	33.67
843.951	25.97
844.122	15.66
844.292	10.05
844.462	13.16
844.633	27.6
844.803	38.85
844.973	44.91
845.144	50.92
845.314	59.67
845.484	51.18
845.654	47.45
845.824	62.95
845.995	64.5
846.165	60.57
846.335	60.75
846.505	53.11
846.675	40.67
846.845	43.09
847.015	46.94
847.185	40.31
847.355	48.25
847.525	53.13
847.695	51.32
847.865	41.94
848.035	53.82
848.205	60.93
848.375	55.48
848.545	71.22
848.715	66.28
848.884	57.1
849.054	56.54
849.224	54.09
849.394	49.27
849.564	45.88
849.733	41.44
849.903	14.28
850.073	10.84
850.243	23.56
850.412	6.93
850.582	7.33
850.752	41.97
850.921	47.79
851.091	47.96
851.26	42.2
851.43	31.24
851.599	45.91
851.769	45.61
851.939	39.33
852.108	37.41
852.278	28.49
852.447	32.57
852.616	23.79
852.786	25.04
852.955	27.64
853.125	29.63
853.294	33.48
853.463	35.2
853.633	28.19
853.802	40.87
853.971	50.8
854.141	60.6
854.31	50.56
854.479	42.05
854.648	31.17
854.818	29.8
854.987	36.09
855.156	43.67
855.325	45.23
855.494	44.07
855.663	33.95
855.832	33.62
856.001	40.81
856.171	41
856.34	52.82
856.509	59.06
856.678	49.06
856.847	46.41
857.016	32.76
857.185	34.24
857.353	51.18
857.522	61.31
857.691	61.98
857.86	56.67
858.029	54.43
858.198	49.86
858.367	47.99
858.535	59.09
858.704	66.52
858.873	84.35
859.042	83.01
859.21	59.03
859.379	60.29
859.548	57.42
859.717	66.17
859.885	71.66
860.054	68.4
860.222	59.94
860.391	55.98
860.56	43.98
860.728	38.44
860.897	41.83
861.065	62.24
861.234	57.1
861.402	58.31
861.571	59.57
861.739	60.54
861.908	70.35
862.076	84.25
862.244	77.08
862.413	97.68
862.581	124.89
862.749	121.2
862.918	96.33
863.086	85
863.254	86.25
863.423	93.72
863.591	92.02
863.759	76.74
863.927	75.97
864.096	97.12
864.264	94.12
864.432	82.59
864.6	92.12
864.768	85.3
864.936	91.46
865.104	68.47
865.272	48.92
865.44	52.38
865.608	72.44
865.776	65.32
865.944	60.83
866.112	46.04
866.28	46.22
866.448	44.88
866.616	41.26
866.784	46.66
866.952	39.89
867.12	48.42
867.288	54.52
867.455	37.17
867.623	35.41
867.791	24.31
867.959	40.44
868.127	44.09
868.294	27.28
868.462	40.94
868.63	26.94
868.797	33.7
868.965	26.74
869.133	19.89
869.3	27.13
869.468	27.16
869.636	37.48
869.803	48.9
869.971	49.8
870.138	51.96
870.306	52.29
870.473	60.74
870.641	73.39
870.808	77.25
870.975	66.92
871.143	58.58
871.31	72.19
871.478	73.97
871.645	59.67
871.812	41.66
871.98	42.23
872.147	48
872.314	25.6
872.482	15.39
872.649	21.35
872.816	47.77
872.983	56.08
873.15	48.6
873.318	56.68
873.485	35.7
873.652	31.53
873.819	40.6
873.986	20.19
874.153	26.36
874.32	28.31
874.487	-2.77
874.654	8.58
874.821	14.11
874.988	-11.26
875.155	-38.21
875.322	-6.76
875.489	1.52
875.656	8.87
875.823	9.98
875.99	19.1
876.157	20.29
876.324	33.57
876.49	18.41
876.657	-3.88
876.824	17.95
876.991	22.74
877.157	39.67
877.324	48.24
877.491	47.83
877.658	56.47
877.824	57.79
877.991	58.28
878.157	46.51
878.324	25.48
878.491	38.72
878.657	17.65
878.824	8.05
878.99	-4.79
879.157	-16.17
879.323	-32.07
879.49	-25.33
879.656	-19.34
879.823	-31.52
879.989	9.81
880.156	77.07
880.322	86.44
880.488	130.78
880.655	108.83
880.821	134.6
880.987	101.88
881.154	59.54
881.32	52.6
881.486	35.4
881.652	32.61
881.819	39.47
881.985	33.94
882.151	28.97
882.317	23.94
882.483	25.35
882.649	26.03
882.816	29.49
882.982	33.42
883.148	34.99
883.314	34.29
883.48	35.17
883.646	30.8
883.812	32.79
883.978	32.41
884.144	31.98
884.31	32.9
884.476	32.81
884.642	32.51
884.807	28.78
884.973	28.22
885.139	27.8
885.305	26.95
885.471	29.08
885.637	27.93
885.802	29.34
885.968	30.37
886.134	34.53
886.3	34.65
886.465	32.53
886.631	38.36
886.797	37.87
886.962	42.46
887.128	53.34
887.293	57.37
887.459	61.5
887.625	59.47
887.79	56.74
887.956	47.82
888.121	47.27
888.287	56.12
888.452	56.05
888.618	60.44
888.783	59.61
