Data from 29378909_Reflection_3.txt Node
Date: Wed Jul 15 14:08:22 EDT 2015
User: robert
Spectrometer: USB4E03001
Autoset integration time: false
Trigger mode: 4
Integration Time (sec): 1.000000E-1
Scans to average: 10
Electric dark correction enabled: true
Nonlinearity correction enabled: false
Boxcar width: 5
Stray light correction enabled: false
XAxis mode: Wavelengths
Stop averaging: false
Number of Pixels in Spectrum: 3648
>>>>>Begin Spectral Data<<<<<
177.566	8266.67
177.785	-317.57
178.005	-2027.34
178.225	-896.82
178.445	-586.18
178.665	-27.51
178.885	362.39
179.105	-32250
179.324	-324.96
179.544	-238.83
179.764	-238.8
179.984	-128.28
180.204	-158.77
180.423	-218.27
180.643	-173.74
180.863	-193.38
181.083	-94.54
181.302	-96.75
181.522	-430.02
181.742	532.82
181.961	236.01
182.181	290.16
182.401	155.07
182.621	268.71
182.84	225.01
183.06	147.18
183.279	143.19
183.499	148.03
183.719	99.63
183.938	98.29
184.158	89.75
184.377	95.54
184.597	102.23
184.816	138.81
185.036	142.98
185.256	248.25
185.475	220.37
185.695	353.91
185.914	430.82
186.134	1203.4
186.353	-212.7
186.572	-274.05
186.792	-320.84
187.011	-200.58
187.231	-120.05
187.45	-152.86
187.67	-95.56
187.889	-72.93
188.108	-69.98
188.328	-143.7
188.547	-143.22
188.766	-1117.35
188.986	-261.78
189.205	-193.7
189.424	-178.91
189.644	-539.15
189.863	587.34
190.082	385.88
190.302	317.4
190.521	274.72
190.74	168.71
190.959	274.74
191.178	432.24
191.398	-3979.71
191.617	521.29
191.836	240.98
192.055	238.68
192.274	383.63
192.494	257.8
192.713	143.71
192.932	186.79
193.151	206.02
193.37	129.66
193.589	157.29
193.808	128.38
194.027	169.99
194.246	163.9
194.465	219.51
194.685	192.79
194.904	182.49
195.123	220.98
195.342	251.85
195.561	293.74
195.78	377.69
195.999	645.47
196.218	318.6
196.436	182.53
196.655	191.87
196.874	160.59
197.093	165.73
197.312	274.85
197.531	347.2
197.75	372.46
197.969	331.62
198.188	157.33
198.407	141.35
198.625	135.92
198.844	274.57
199.063	-866.8
199.282	-213.08
199.501	282.01
199.719	449400
199.938	277.16
200.157	185.91
200.376	352.86
200.594	-459.83
200.813	-235.69
201.032	-135.51
201.251	-233.47
201.469	2635.08
201.688	875.84
201.907	-320.51
202.125	1897.6
202.344	907.68
202.563	5060
202.781	5847.65
203	886.06
203.218	1608.04
203.437	1533.03
203.656	2579.74
203.874	-1091.6
204.093	-603.82
204.311	-386.74
204.53	-167.83
204.748	-117.47
204.967	-64.91
205.185	-69.85
205.404	-113.56
205.622	-407.62
205.841	-672.47
206.059	-141.09
206.278	-45.42
206.496	-49.69
206.715	-926.97
206.933	1811
207.151	-1934.08
207.37	970.51
207.588	456.59
207.806	665.65
208.025	1301.73
208.243	-948.03
208.461	720.84
208.68	446.1
208.898	2730.94
209.116	-703.37
209.335	-1639.43
209.553	-338
209.771	-147.54
209.989	-232.5
210.208	-51.11
210.426	-89.96
210.644	-0.48
210.862	5.07
211.081	-8.08
211.299	-67.51
211.517	-45.85
211.735	-11.53
211.953	-78.35
212.171	-119.43
212.39	-38.14
212.608	-100.77
212.826	-58.64
213.044	-86.75
213.262	-91.1
213.48	-123.94
213.698	-98.56
213.916	-182.61
214.134	-222.06
214.352	-114.67
214.57	-114.02
214.788	-265.23
215.006	-302.39
215.224	-387.78
215.442	-344.43
215.66	-262.03
215.878	-161.47
216.096	-153.12
216.314	-208.09
216.532	-236.52
216.75	-279.96
216.968	-501.5
217.185	-210.53
217.403	-456.52
217.621	-879.63
217.839	-1154.89
218.057	750.11
218.275	355.06
218.492	194.15
218.71	284.99
218.928	261.08
219.146	222.77
219.363	408.96
219.581	266.04
219.799	250.96
220.017	402.85
220.234	318.1
220.452	926.65
220.67	-1106.31
220.887	-211.07
221.105	-127.81
221.323	-94.4
221.54	-87.28
221.758	-85.61
221.976	-72.96
222.193	-37.18
222.411	-8.89
222.629	0.91
222.846	-9.75
223.064	-6.27
223.281	-2.39
223.499	-39.07
223.716	-39.11
223.934	-52.92
224.151	-49.97
224.369	-58.98
224.586	-89.44
224.804	-157.13
225.021	-132.49
225.239	-121.81
225.456	-96.89
225.674	-77.9
225.891	-46.23
226.108	-60.51
226.326	-57.11
226.543	-38.16
226.76	-23.74
226.978	-27.04
227.195	-24.54
227.413	-21.36
227.63	-10.73
227.847	-11.77
228.064	-15.43
228.282	-19.44
228.499	-17.13
228.716	-13.41
228.934	-15.36
229.151	-16.25
229.368	-15.7
229.585	-14.34
229.802	-13.79
230.02	-17.94
230.237	-19.64
230.454	-15.59
230.671	-11.58
230.888	-9.1
231.105	-13.99
231.323	-12.73
231.54	-9.89
231.757	-11.98
231.974	-16.95
232.191	-26.82
232.408	-19.57
232.625	-24.04
232.842	-36.74
233.059	-36.17
233.276	-39.17
233.493	-26.59
233.71	-22.3
233.927	-18.25
234.144	-15.22
234.361	-10.95
234.578	-2.16
234.795	-4.75
235.012	-2.42
235.229	-1.07
235.446	-5.92
235.663	-8.61
235.879	-13.56
236.096	-15.18
236.313	-18.76
236.53	-15.47
236.747	-15.15
236.964	-17.48
237.181	-13.6
237.397	-12.69
237.614	-10.23
237.831	-12.31
238.048	-10.27
238.264	-8.04
238.481	-7.82
238.698	-7.88
238.915	-10.95
239.131	-8.66
239.348	-7.6
239.565	-12.76
239.781	-12.79
239.998	-9.8
240.215	-7.11
240.431	-4.42
240.648	-3.24
240.865	-1.07
241.081	-0.99
241.298	-1.55
241.514	-2.31
241.731	-4.38
241.947	-2.71
242.164	-2.59
242.38	-2.61
242.597	-1.02
242.814	-1.68
243.03	-3.06
243.246	-4.52
243.463	-3.9
243.679	-3.75
243.896	-4.35
244.112	-2.83
244.329	-3.81
244.545	-3.47
244.762	-6.27
244.978	-8.26
245.194	-6.56
245.411	-5.02
245.627	-7.9
245.843	-7.42
246.06	-5.26
246.276	-4.01
246.492	-2.6
246.709	-2.57
246.925	-1.27
247.141	-0.19
247.357	-0.24
247.574	-1.51
247.79	-1.09
248.006	0.27
248.222	-0.41
248.439	-0.73
248.655	-0.64
248.871	-1.3
249.087	-1.86
249.303	-4.42
249.519	-4.98
249.736	-5.33
249.952	-5.43
250.168	-8.21
250.384	-9.86
250.6	-10.04
250.816	-12.15
251.032	-12.78
251.248	-13.57
251.464	-13.32
251.68	-12.11
251.896	-11.11
252.112	-10.72
252.328	-9.8
252.544	-8.92
252.76	-10.11
252.976	-10.3
253.192	-8.75
253.408	-8.72
253.624	-8.18
253.84	-5.54
254.056	-6.4
254.272	-6.14
254.487	-5.89
254.703	-7.82
254.919	-9.92
255.135	-6.43
255.351	-7.01
255.567	-9.18
255.782	-13.34
255.998	-12.15
256.214	-13.42
256.43	-13.63
256.646	-12.49
256.861	-10.65
257.077	-9.63
257.293	-6.4
257.508	-9.3
257.724	-10.11
257.94	-8.49
258.155	-3.45
258.371	-1.48
258.587	-1.98
258.802	-0.93
259.018	-1.82
259.234	-2.19
259.449	-1.56
259.665	-1.72
259.88	-1.39
260.096	-0.75
260.312	-1.61
260.527	-2.6
260.743	-3.97
260.958	-4.55
261.174	-4.62
261.389	-3.92
261.605	-4.14
261.82	-5.09
262.036	-5.38
262.251	-4.61
262.466	-4.69
262.682	-5.25
262.897	-4.22
263.113	-3.7
263.328	-3.23
263.543	-2.1
263.759	-5.35
263.974	-5.3
264.189	-4.3
264.405	-3.92
264.62	-6.74
264.835	-7.53
265.051	-5.82
265.266	-5.2
265.481	-5.83
265.696	-5.05
265.912	-4.88
266.127	-4.05
266.342	-5.54
266.557	-5.04
266.773	-4.85
266.988	-4.51
267.203	-4.96
267.418	-5.55
267.633	-7.15
267.848	-6.84
268.064	-6.84
268.279	-7.14
268.494	-5.18
268.709	-4.45
268.924	-4.85
269.139	-5.16
269.354	-4.57
269.569	-3.36
269.784	-1.52
269.999	0.05
270.214	0.85
270.429	1.32
270.644	1.57
270.859	-1.24
271.074	-1.27
271.289	-1.09
271.504	-0.51
271.719	-1.41
271.934	-2.63
272.149	-3.48
272.363	-4.45
272.578	-4.85
272.793	-5.28
273.008	-6.02
273.223	-4.17
273.438	-4.74
273.653	-4.55
273.867	-4.52
274.082	-1.88
274.297	-0.06
274.512	-0.29
274.726	1.17
274.941	2.52
275.156	2.87
275.371	2.37
275.585	1.85
275.8	3.44
276.015	3.49
276.229	3.15
276.444	1.46
276.659	2.07
276.873	2.61
277.088	2.22
277.302	1.04
277.517	0.33
277.732	0.25
277.946	-2.02
278.161	-3.06
278.375	-4.83
278.59	-6.55
278.804	-6.42
279.019	-8.25
279.233	-7.87
279.448	-10.21
279.662	-10.05
279.877	-9.47
280.091	-7.48
280.306	-5.07
280.52	-4.41
280.735	-4.28
280.949	-3.02
281.163	-3.02
281.378	-2.99
281.592	-2.9
281.806	-2.15
282.021	-1.98
282.235	-1.86
282.449	-1.6
282.664	-3.38
282.878	-4.44
283.092	-3.95
283.307	-4.8
283.521	-4.87
283.735	-4.22
283.949	-5.72
284.164	-4.65
284.378	-6.17
284.592	-5.3
284.806	-6.13
285.02	-4.96
285.234	-3.57
285.449	-3.01
285.663	-2.65
285.877	-1.78
286.091	-1.97
286.305	-0.82
286.519	-1.58
286.733	-1.7
286.947	-2.1
287.161	-1.31
287.375	-0.42
287.589	-1.06
287.803	-1.23
288.017	-0.88
288.231	-1.34
288.445	-2.32
288.659	-2.54
288.873	-2.63
289.087	-1.78
289.301	-2.2
289.515	-2.05
289.729	-2.24
289.943	-1.43
290.157	-0.48
290.371	-1.53
290.584	-0.91
290.798	-0.17
291.012	0.05
291.226	0.7
291.44	1.52
291.654	1.86
291.867	1.18
292.081	0.58
292.295	-0.15
292.509	-1.34
292.722	-0.09
292.936	-2.04
293.15	-2.03
293.364	-2.12
293.577	-1.94
293.791	-2.82
294.005	-2.85
294.218	-1.96
294.432	-2.69
294.645	-2.15
294.859	-1.09
295.073	-1
295.286	-0.03
295.5	-0.29
295.713	-0.69
295.927	-1.01
296.14	0.36
296.354	0.61
296.568	-0.14
296.781	0.85
296.994	0.68
297.208	0.38
297.421	0.42
297.635	-0.17
297.848	0.32
298.062	0.01
298.275	-0.53
298.489	-2.45
298.702	-2.94
298.915	-2.98
299.129	-2.43
299.342	-2.8
299.555	-2.62
299.769	-2.66
299.982	-1.23
300.195	-1.96
300.409	-0.35
300.622	-0.43
300.835	1.52
301.048	1.71
301.262	1.44
301.475	0.85
301.688	1.69
301.901	1.31
302.115	1.5
302.328	0.17
302.541	0.29
302.754	-0.95
302.967	-0.2
303.18	-0.43
303.393	-0.24
303.607	1.34
303.82	1.35
304.033	1.14
304.246	0.68
304.459	-0.29
304.672	-0.3
304.885	-0.37
305.098	1.54
305.311	1.42
305.524	0.67
305.737	2.32
305.95	1.54
306.163	0.76
306.376	-0.22
306.589	-0.64
306.802	0.74
307.015	2.23
307.228	2.59
307.44	1.7
307.653	1.04
307.866	0.88
308.079	-2.4
308.292	-3.67
308.505	-3.5
308.718	-1.97
308.93	-1.28
309.143	-2.65
309.356	-2.76
309.569	-3.15
309.781	-3.24
309.994	-1.78
310.207	-2.02
310.42	-1.38
310.632	-0.67
310.845	0.59
311.058	-0.15
311.27	1.38
311.483	2.6
311.696	2.55
311.908	2.66
312.121	2.72
312.333	0.72
312.546	1.7
312.759	2.51
312.971	2.09
313.184	1.77
313.396	2.75
313.609	0.52
313.821	-0.84
314.034	-1.45
314.246	-1.06
314.459	-2.26
314.671	-1.26
314.884	-1.09
315.096	-1.07
315.309	-2.22
315.521	-3.4
315.733	-5.29
315.946	-4.02
316.158	-1.8
316.371	-1.65
316.583	-0.58
316.795	-0.85
317.008	-0.35
317.22	-1.91
317.432	-2.94
317.644	0.2
317.857	0.84
318.069	1.88
318.281	0.97
318.494	-0.67
318.706	-1.81
318.918	-2.9
319.13	-2.61
319.342	-2.19
319.555	-2.21
319.767	-0.25
319.979	-0.71
320.191	-2.08
320.403	-2.97
320.615	-2.4
320.827	-4.22
321.039	-4.72
321.252	-5.29
321.464	-4.25
321.676	-3.99
321.888	-2.08
322.1	-2.96
322.312	-3.86
322.524	-2
322.736	-0.72
322.948	-1.56
323.16	0.06
323.372	0.57
323.584	0.8
323.796	1.26
324.007	0.83
324.219	0.24
324.431	-1.04
324.643	-1.06
324.855	-1.96
325.067	-2.38
325.279	-2.04
325.491	-1.12
325.702	-0.46
325.914	-0.21
326.126	-1.5
326.338	-1.9
326.55	-1.82
326.761	-0.58
326.973	0.05
327.185	-0.09
327.396	0.12
327.608	0.46
327.82	0
328.032	-0.32
328.243	-0.94
328.455	-1.01
328.666	-0.08
328.878	-0.65
329.09	-1.08
329.301	-2.12
329.513	-0.77
329.725	-0.46
329.936	-2.58
330.148	-2.23
330.359	0.01
330.571	0.47
330.782	0.93
330.994	1.24
331.205	1.87
331.417	2.38
331.628	3.76
331.84	2.99
332.051	3.06
332.262	5.78
332.474	5.81
332.685	4.55
332.897	3.9
333.108	4.13
333.319	4.75
333.531	5.02
333.742	5.01
333.953	5.36
334.165	5.95
334.376	6.13
334.587	6.14
334.799	5.02
335.01	4.77
335.221	6.18
335.432	7.85
335.644	6.87
335.855	7.39
336.066	6.66
336.277	5.07
336.488	5.72
336.7	6.32
336.911	6.1
337.122	7.96
337.333	8.44
337.544	8.6
337.755	8.21
337.966	9.52
338.177	8
338.388	8.21
338.599	8.44
338.811	7.11
339.022	6.68
339.233	5.58
339.444	4.05
339.655	3.97
339.866	3.8
340.076	3.13
340.287	2.06
340.498	3.25
340.709	4
340.92	4.08
341.131	4.41
341.342	4.15
341.553	4.71
341.764	5.5
341.975	5.67
342.185	5.3
342.396	4.96
342.607	5.35
342.818	5.66
343.029	5.72
343.239	6.45
343.45	7.45
343.661	7.22
343.872	8.27
344.082	8.05
344.293	7.14
344.504	7.47
344.714	7.79
344.925	7.49
345.136	7.84
345.346	7.32
345.557	6.99
345.768	6.44
345.978	6.73
346.189	5.55
346.399	5.37
346.61	6.63
346.821	6.86
347.031	7.36
347.242	7.59
347.452	6.87
347.663	7.29
347.873	7.26
348.084	7.87
348.294	6.75
348.504	7.68
348.715	8.84
348.925	7.77
349.136	7.61
349.346	7.05
349.557	6.88
349.767	6.96
349.977	8.04
350.188	8.84
350.398	8.76
350.608	10.05
350.819	9.86
351.029	9.34
351.239	10.08
351.449	9.41
351.66	9.99
351.87	9.9
352.08	8.84
352.29	9.1
352.501	8.42
352.711	9.39
352.921	8.77
353.131	8.98
353.341	7.93
353.552	7.54
353.762	8.34
353.972	7.45
354.182	7.8
354.392	8.89
354.602	7.13
354.812	7.82
355.022	6.56
355.232	6.94
355.442	7.2
355.652	7.46
355.862	7.44
356.072	7.78
356.282	8.77
356.492	9.08
356.702	9.74
356.912	9.81
357.122	9.44
357.332	9.6
357.542	10.28
357.752	9.19
357.962	8.72
358.171	8.45
358.381	7.59
358.591	8.14
358.801	7.5
359.011	6.69
359.221	7.48
359.43	7.66
359.64	7.66
359.85	7.71
360.06	8.61
360.269	9.55
360.479	10.31
360.689	10.54
360.899	10.26
361.108	9.94
361.318	9.54
361.528	9.12
361.737	9.04
361.947	8.72
362.156	8.16
362.366	8.11
362.576	8.27
362.785	7.68
362.995	7.49
363.204	6.77
363.414	7.62
363.623	8.52
363.833	8.09
364.042	8.89
364.252	9.03
364.461	9.23
364.671	8.82
364.88	8.45
365.09	8.69
365.299	8.86
365.509	9.2
365.718	8.24
365.927	8.06
366.137	9.18
366.346	9.02
366.555	9.57
366.765	9.66
366.974	10.25
367.183	11.37
367.393	12.02
367.602	11.15
367.811	10.87
368.021	10.46
368.23	10.19
368.439	10.3
368.648	10.09
368.857	10.7
369.067	10.58
369.276	10.94
369.485	9.92
369.694	9.71
369.903	11.08
370.112	11.63
370.321	12.4
370.531	12.51
370.74	12.16
370.949	12.61
371.158	12.75
371.367	12.43
371.576	11.49
371.785	11.69
371.994	12.02
372.203	11.72
372.412	11.18
372.621	12.15
372.83	12.35
373.039	12.57
373.248	11.62
373.457	10.46
373.666	11.13
373.874	11.89
374.083	11.59
374.292	11.38
374.501	11.71
374.71	11.46
374.919	10.87
375.128	11.22
375.336	11.4
375.545	11.47
375.754	12.01
375.963	11.58
376.171	12
376.38	12.13
376.589	12.27
376.798	12.26
377.006	12.65
377.215	12.55
377.424	12.52
377.632	12.69
377.841	12.99
378.05	13.25
378.258	13.5
378.467	13.6
378.675	13.66
378.884	14.23
379.093	14.42
379.301	14.5
379.51	14.84
379.718	14.86
379.927	14.94
380.135	15.09
380.344	14.85
380.552	14.83
380.761	14.13
380.969	14.47
381.177	13.69
381.386	13.71
381.594	13.7
381.803	13.51
382.011	13.37
382.219	13.23
382.428	13.2
382.636	13.49
382.845	13.98
383.053	13.91
383.261	13.96
383.469	13.92
383.678	14.11
383.886	14.68
384.094	14.7
384.302	15.29
384.511	15.39
384.719	15.67
384.927	15.72
385.135	15.93
385.343	16.31
385.552	16.58
385.76	16.53
385.968	16.62
386.176	16.81
386.384	17.05
386.592	16.93
386.8	16.9
387.008	16.77
387.216	16.87
387.424	16.89
387.633	17.11
387.841	17
388.049	17.5
388.257	17.47
388.465	17.26
388.672	17.34
388.88	17.19
389.088	17.59
389.296	17.77
389.504	17.78
389.712	17.88
389.92	17.72
390.128	17.76
390.336	18.19
390.544	18.61
390.751	18.95
390.959	19.22
391.167	19.82
391.375	19.54
391.583	19.88
391.79	19.96
391.998	19.89
392.206	19.94
392.414	20.03
392.621	20.16
392.829	20.22
393.037	20.45
393.244	20.48
393.452	20.2
393.66	20.76
393.867	20.79
394.075	21.05
394.283	21.29
394.49	21.61
394.698	21.96
394.905	21.82
395.113	21.75
395.32	21.87
395.528	22.02
395.735	22.24
395.943	22.68
396.15	22.62
396.358	22.53
396.565	22.52
396.773	22.89
396.98	23.02
397.188	23.55
397.395	23.7
397.602	23.52
397.81	23.69
398.017	23.91
398.225	23.62
398.432	23.78
398.639	24.07
398.847	24.45
399.054	24.05
399.261	23.94
399.468	23.76
399.676	24.17
399.883	24.51
400.09	24.32
400.297	24.48
400.505	24.64
400.712	24.55
400.919	24.8
401.126	24.68
401.333	25.08
401.54	25.59
401.748	25.67
401.955	25.6
402.162	25.74
402.369	26.19
402.576	26.06
402.783	25.96
402.99	26.42
403.197	26.25
403.404	26.47
403.611	26.71
403.818	26.7
404.025	26.76
404.232	26.68
404.439	26.48
404.646	26.42
404.853	26.51
405.06	26.52
405.267	26.48
405.474	26.75
405.681	26.82
405.887	26.74
406.094	26.72
406.301	26.81
406.508	26.82
406.715	27
406.922	26.84
407.128	27.1
407.335	27.01
407.542	27.06
407.749	26.94
407.955	26.81
408.162	26.88
408.369	26.87
408.575	26.94
408.782	26.9
408.989	26.99
409.195	27.17
409.402	27.03
409.609	27.33
409.815	27.17
410.022	27.22
410.228	27.46
410.435	27.29
410.642	27.3
410.848	27.28
411.055	27.36
411.261	27.13
411.468	27.38
411.674	27.3
411.881	27.17
412.087	27.42
412.294	27.45
412.5	27.45
412.706	27.63
412.913	27.74
413.119	27.5
413.326	27.38
413.532	27.65
413.738	27.32
413.945	27.4
414.151	27.32
414.357	27.15
414.564	27.08
414.77	27
414.976	27.03
415.182	26.82
415.389	27.05
415.595	27.28
415.801	27.22
416.007	27.56
416.214	27.43
416.42	27.6
416.626	27.59
416.832	27.67
417.038	27.43
417.244	27.54
417.45	27.68
417.657	27.55
417.863	27.65
418.069	27.83
418.275	27.57
418.481	27.54
418.687	27.49
418.893	27.48
419.099	27.34
419.305	27.46
419.511	27.19
419.717	27.21
419.923	27.22
420.129	27.19
420.335	27.26
420.541	27.29
420.746	27.51
420.952	27.52
421.158	27.5
421.364	27.63
421.57	27.68
421.776	27.71
421.982	27.64
422.187	27.62
422.393	27.7
422.599	27.46
422.805	27.57
423.01	27.42
423.216	27.54
423.422	27.64
423.628	27.56
423.833	27.59
424.039	27.66
424.245	27.67
424.45	27.63
424.656	27.5
424.862	27.58
425.067	27.48
425.273	27.45
425.478	27.33
425.684	27.24
425.889	27.13
426.095	27.04
426.301	26.93
426.506	26.84
426.712	26.98
426.917	26.99
427.123	26.93
427.328	26.86
427.533	26.85
427.739	26.8
427.944	26.76
428.15	26.65
428.355	26.62
428.561	26.79
428.766	26.88
428.971	26.78
429.177	26.79
429.382	26.72
429.587	26.67
429.793	26.85
429.998	26.71
430.203	26.83
430.408	26.97
430.614	27
430.819	26.89
431.024	26.91
431.229	27.18
431.434	27.24
431.64	27.13
431.845	27.15
432.05	26.98
432.255	27.08
432.46	27.07
432.665	27.14
432.87	27.09
433.076	27.33
433.281	27.41
433.486	27.23
433.691	27.14
433.896	27.22
434.101	27.18
434.306	27.15
434.511	27.2
434.716	27.18
434.921	27.15
435.126	27.16
435.331	26.8
435.535	26.74
435.74	26.64
435.945	26.8
436.15	26.71
436.355	26.74
436.56	26.69
436.765	26.65
436.97	26.62
437.174	26.71
437.379	26.58
437.584	26.79
437.789	26.64
437.993	26.79
438.198	26.56
438.403	26.64
438.608	26.74
438.812	26.96
439.017	27.13
439.222	27.08
439.426	27.11
439.631	27.11
439.836	27.01
440.04	27.18
440.245	26.99
440.45	27.02
440.654	27.02
440.859	27.12
441.063	27.09
441.268	26.92
441.472	26.81
441.677	26.7
441.881	26.9
442.086	26.92
442.29	26.74
442.495	27.01
442.699	27.05
442.904	27.11
443.108	26.91
443.312	26.71
443.517	26.68
443.721	26.83
443.925	26.87
444.13	26.64
444.334	26.61
444.538	26.73
444.743	26.65
444.947	26.64
445.151	26.51
445.356	26.62
445.56	26.72
445.764	26.82
445.968	26.9
446.173	26.83
446.377	26.71
446.581	26.74
446.785	26.75
446.989	26.7
447.193	26.63
447.398	26.61
447.602	26.53
447.806	26.44
448.01	26.4
448.214	26.25
448.418	26.3
448.622	26.33
448.826	26.36
449.03	26.16
449.234	26.02
449.438	26.08
449.642	26.21
449.846	26.22
450.05	26.22
450.254	25.92
450.458	25.99
450.662	25.9
450.866	25.93
451.069	25.77
451.273	25.89
451.477	25.85
451.681	25.95
451.885	25.85
452.089	25.78
452.292	25.85
452.496	25.91
452.7	25.92
452.904	25.91
453.107	25.97
453.311	25.99
453.515	25.85
453.719	25.86
453.922	25.72
454.126	25.68
454.33	25.72
454.533	25.75
454.737	26.01
454.94	25.89
455.144	26.02
455.348	26.03
455.551	26.05
455.755	26.16
455.958	26.1
456.162	26.1
456.365	25.93
456.569	25.73
456.772	25.55
456.976	25.21
457.179	25.23
457.383	24.96
457.586	25.08
457.79	25.13
457.993	25.15
458.196	25.36
458.4	25.26
458.603	25.41
458.807	25.58
459.01	25.82
459.213	26.03
459.417	26.32
459.62	26.44
459.823	26.5
460.026	26.6
460.23	26.77
460.433	26.76
460.636	26.94
460.839	27.06
461.042	27.14
461.246	27.06
461.449	27.1
461.652	26.93
461.855	26.99
462.058	26.92
462.261	26.92
462.464	26.86
462.668	26.82
462.871	26.78
463.074	26.76
463.277	26.6
463.48	26.84
463.683	26.84
463.886	26.99
464.089	27.1
464.292	27.13
464.495	27
464.698	26.94
464.901	27.04
465.104	27.07
465.306	27.19
465.509	27.42
465.712	27.2
465.915	27.27
466.118	27.38
466.321	27.19
466.524	27.37
466.726	27.48
466.929	27.59
467.132	27.59
467.335	27.6
467.538	27.62
467.74	27.58
467.943	27.69
468.146	27.51
468.348	27.47
468.551	27.57
468.754	27.41
468.956	27.48
469.159	27.34
469.362	27.25
469.564	27.12
469.767	26.99
469.969	27
470.172	26.94
470.375	27.24
470.577	27.14
470.78	27.18
470.982	27.17
471.185	27.13
471.387	27.27
471.59	27.41
471.792	27.66
471.995	27.62
472.197	27.49
472.399	27.46
472.602	27.24
472.804	27.24
473.007	27.19
473.209	27.13
473.411	27.15
473.614	27.23
473.816	27.16
474.018	27.06
474.22	26.95
474.423	27.03
474.625	27.06
474.827	27.21
475.03	27.18
475.232	27.28
475.434	27.25
475.636	27.11
475.838	27.12
476.04	27.27
476.243	27.36
476.445	27.57
476.647	27.69
476.849	27.7
477.051	27.5
477.253	27.51
477.455	27.49
477.657	27.67
477.859	27.78
478.061	27.6
478.263	27.52
478.465	27.45
478.667	27.52
478.869	27.56
479.071	27.41
479.273	27.52
479.475	27.73
479.677	27.67
479.879	27.61
480.081	27.66
480.283	27.69
480.485	27.62
480.686	27.56
480.888	27.48
481.09	27.37
481.292	27.56
481.494	27.58
481.695	27.48
481.897	27.6
482.099	27.65
482.301	27.58
482.502	27.57
482.704	27.62
482.906	27.71
483.107	27.78
483.309	27.82
483.511	27.79
483.712	27.81
483.914	27.86
484.115	27.87
484.317	27.86
484.519	27.89
484.72	27.95
484.922	27.99
485.123	27.95
485.325	27.93
485.526	27.92
485.728	27.91
485.929	27.82
486.131	27.73
486.332	27.72
486.534	27.74
486.735	27.75
486.936	27.75
487.138	27.75
487.339	27.71
487.541	27.7
487.742	27.65
487.943	27.69
488.144	27.79
488.346	27.83
488.547	27.84
488.748	27.81
488.95	27.78
489.151	27.73
489.352	27.75
489.553	27.9
489.755	27.88
489.956	27.99
490.157	27.89
490.358	27.91
490.559	27.8
490.76	27.73
490.961	27.7
491.163	27.79
491.364	27.83
491.565	27.74
491.766	27.69
491.967	27.63
492.168	27.57
492.369	27.66
492.57	27.5
492.771	27.59
492.972	27.6
493.173	27.65
493.374	27.62
493.575	27.52
493.776	27.53
493.976	27.48
494.177	27.63
494.378	27.65
494.579	27.59
494.78	27.7
494.981	27.79
495.182	27.82
495.382	27.77
495.583	27.8
495.784	27.68
495.985	27.79
496.185	27.94
496.386	27.74
496.587	27.82
496.788	27.83
496.988	27.91
497.189	27.66
497.39	27.64
497.59	27.62
497.791	27.74
497.992	27.79
498.192	27.69
498.393	27.63
498.593	27.72
498.794	27.62
498.994	27.69
499.195	27.67
499.395	27.72
499.596	27.61
499.796	27.77
499.997	27.53
500.197	27.62
500.398	27.7
500.598	27.7
500.799	27.67
500.999	27.77
501.199	27.59
501.4	27.56
501.6	27.66
501.801	27.91
502.001	27.72
502.201	27.81
502.402	27.75
502.602	27.8
502.802	27.71
503.002	27.78
503.203	27.65
503.403	27.75
503.603	27.84
503.803	27.93
504.003	27.86
504.204	28.03
504.404	28
504.604	27.93
504.804	27.73
505.004	27.69
505.204	27.73
505.404	27.77
505.604	27.78
505.804	27.7
506.005	27.55
506.205	27.41
506.405	27.29
506.605	27.27
506.805	27.25
507.005	27.31
507.204	27.34
507.404	27.4
507.604	27.51
507.804	27.53
508.004	27.46
508.204	27.51
508.404	27.63
508.604	27.69
508.804	27.79
509.003	27.99
509.203	28.01
509.403	28.14
509.603	27.98
509.803	28.01
510.002	27.96
510.202	28.04
510.402	28.07
510.602	27.91
510.801	27.77
511.001	27.68
511.201	27.61
511.4	27.68
511.6	27.63
511.8	27.72
511.999	27.64
512.199	27.61
512.398	27.67
512.598	27.71
512.797	27.85
512.997	28.03
513.197	28.1
513.396	28.26
513.596	28.34
513.795	28.27
513.994	28.3
514.194	28.26
514.393	28.4
514.593	28.46
514.792	28.4
514.992	28.53
515.191	28.41
515.39	28.39
515.59	28.24
515.789	28.19
515.988	28.33
516.188	28.27
516.387	28.43
516.586	28.43
516.786	28.32
516.985	28.41
517.184	28.37
517.383	28.36
517.582	28.34
517.782	28.24
517.981	28.09
518.18	27.84
518.379	28
518.578	27.93
518.777	27.95
518.976	27.95
519.176	27.92
519.375	27.85
519.574	27.89
519.773	27.92
519.972	27.96
520.171	28.04
520.37	28.28
520.569	28.02
520.768	27.98
520.967	27.74
521.166	27.68
521.365	27.7
521.564	27.72
521.762	27.91
521.961	27.73
522.16	27.79
522.359	27.72
522.558	27.62
522.757	27.89
522.956	27.99
523.154	28.16
523.353	28.18
523.552	28.27
523.751	28.26
523.949	28.01
524.148	28.26
524.347	28.21
524.546	28.34
524.744	28.41
524.943	28.36
525.142	28.32
525.34	28.46
525.539	28.4
525.737	28.25
525.936	28.28
526.135	28.3
526.333	28.29
526.532	28.33
526.73	28.27
526.929	28.23
527.127	28.22
527.326	28.18
527.524	28.13
527.723	28.28
527.921	28.37
528.12	28.39
528.318	28.43
528.516	28.31
528.715	28.34
528.913	28.4
529.112	28.39
529.31	28.45
529.508	28.49
529.707	28.49
529.905	28.43
530.103	28.36
530.301	28.37
530.5	28.34
530.698	28.46
530.896	28.42
531.094	28.35
531.293	28.4
531.491	28.4
531.689	28.49
531.887	28.48
532.085	28.46
532.283	28.56
532.481	28.48
532.68	28.54
532.878	28.48
533.076	28.49
533.274	28.51
533.472	28.44
533.67	28.43
533.868	28.23
534.066	28.3
534.264	28.25
534.462	28.24
534.66	28.31
534.858	28.25
535.056	28.32
535.253	28.29
535.451	28.25
535.649	28.33
535.847	28.28
536.045	28.35
536.243	28.27
536.441	28.39
536.638	28.32
536.836	28.33
537.034	28.38
537.232	28.27
537.43	28.26
537.627	28.28
537.825	28.3
538.023	28.31
538.22	28.47
538.418	28.41
538.616	28.44
538.813	28.4
539.011	28.38
539.209	28.39
539.406	28.55
539.604	28.63
539.801	28.63
539.999	28.62
540.196	28.67
540.394	28.58
540.591	28.57
540.789	28.55
540.986	28.55
541.184	28.5
541.381	28.45
541.579	28.4
541.776	28.32
541.974	28.37
542.171	28.33
542.368	28.27
542.566	28.33
542.763	28.33
542.96	28.29
543.158	28.33
543.355	28.33
543.552	28.29
543.75	28.29
543.947	28.35
544.144	28.29
544.341	28.27
544.539	28.39
544.736	28.39
544.933	28.58
545.13	28.54
545.327	28.45
545.524	28.42
545.722	28.54
545.919	28.54
546.116	28.56
546.313	28.62
546.51	28.63
546.707	28.56
546.904	28.51
547.101	28.45
547.298	28.49
547.495	28.58
547.692	28.54
547.889	28.43
548.086	28.44
548.283	28.3
548.48	28.4
548.677	28.52
548.874	28.41
549.07	28.3
549.267	28.22
549.464	28.23
549.661	28.16
549.858	28.46
550.055	28.48
550.251	28.52
550.448	28.67
550.645	28.53
550.842	28.27
551.038	28.39
551.235	28.44
551.432	28.62
551.628	28.61
551.825	28.79
552.022	28.8
552.218	28.65
552.415	28.53
552.612	28.59
552.808	28.62
553.005	28.89
553.201	28.85
553.398	28.87
553.594	28.84
553.791	28.77
553.987	28.53
554.184	28.22
554.38	28.52
554.577	28.72
554.773	28.72
554.97	28.72
555.166	28.47
555.362	28.31
555.559	28.42
555.755	28.19
555.952	28.27
556.148	28.26
556.344	28.4
556.541	28.34
556.737	28.36
556.933	28.38
557.129	28.55
557.326	28.43
557.522	28.59
557.718	28.35
557.914	28.47
558.11	28.52
558.307	28.82
558.503	28.77
558.699	28.81
558.895	28.62
559.091	28.43
559.287	28.24
559.483	28.47
559.679	28.61
559.876	28.59
560.072	28.34
560.268	28.27
560.464	28.16
560.66	28.42
560.856	28.27
561.052	28.35
561.247	28.5
561.443	28.42
561.639	28.35
561.835	28.05
562.031	28.12
562.227	28.24
562.423	28.33
562.619	28.2
562.815	28.14
563.01	28.02
563.206	28.09
563.402	28.01
563.598	28.04
563.793	27.97
563.989	28.2
564.185	28.27
564.381	28.57
564.576	28.56
564.772	28.87
564.968	28.92
565.163	29.23
565.359	29.15
565.555	29.12
565.75	29.18
565.946	29.34
566.141	29.31
566.337	29.23
566.532	29.12
566.728	29.2
566.923	29.14
567.119	29.08
567.314	28.96
567.51	28.8
567.705	28.91
567.901	28.92
568.096	28.83
568.292	28.83
568.487	28.93
568.682	28.87
568.878	28.81
569.073	28.75
569.268	28.7
569.464	28.68
569.659	28.74
569.854	28.64
570.05	28.51
570.245	28.63
570.44	28.43
570.635	28.34
570.831	28.62
571.026	28.4
571.221	28.49
571.416	28.4
571.611	28.53
571.806	28.48
572.002	28.57
572.197	28.82
572.392	28.91
572.587	29.05
572.782	29.21
572.977	28.96
573.172	29
573.367	28.85
573.562	28.95
573.757	28.69
573.952	28.71
574.147	28.67
574.342	28.74
574.537	28.67
574.732	28.73
574.927	28.54
575.121	28.72
575.316	29.05
575.511	29.03
575.706	29
575.901	29.15
576.096	29.32
576.29	29.44
576.485	29.31
576.68	29.01
576.875	28.93
577.069	29.03
577.264	28.83
577.459	28.49
577.654	28.57
577.848	28.46
578.043	28.44
578.238	28.5
578.432	28.47
578.627	28.5
578.821	28.79
579.016	28.82
579.21	28.84
579.405	28.91
579.6	29.05
579.794	29.15
579.989	29.08
580.183	29.16
580.378	29.18
580.572	29.17
580.766	29.08
580.961	28.91
581.155	29.05
581.35	29.02
581.544	28.91
581.738	28.93
581.933	28.63
582.127	28.97
582.321	29
582.516	28.77
582.71	28.7
582.904	28.64
583.099	28.84
583.293	28.54
583.487	28.5
583.681	28.78
583.875	28.76
584.07	28.81
584.264	28.59
584.458	28.83
584.652	28.95
584.846	28.97
585.04	28.83
585.234	28.69
585.428	28.87
585.623	28.73
585.817	28.62
586.011	28.7
586.205	29
586.399	28.98
586.593	28.56
586.787	28.54
586.981	28.59
587.174	28.62
587.368	28.53
587.562	28.58
587.756	28.81
587.95	28.88
588.144	28.91
588.338	28.71
588.532	28.98
588.725	29.14
588.919	29.3
589.113	29.29
589.307	29.41
589.501	29.54
589.694	29.65
589.888	29.6
590.082	29.5
590.275	29.36
590.469	29.56
590.663	29.48
590.856	29.5
591.05	29.41
591.244	29.29
591.437	29.22
591.631	29.25
591.824	29.23
592.018	29.25
592.212	29.07
592.405	28.98
592.599	28.83
592.792	28.61
592.986	28.35
593.179	28.37
593.372	28.49
593.566	28.5
593.759	28.35
593.953	28.23
594.146	28.35
594.339	28.56
594.533	28.58
594.726	28.62
594.92	28.71
595.113	28.82
595.306	28.55
595.499	28.43
595.693	28.54
595.886	28.69
596.079	28.53
596.272	28.64
596.466	28.43
596.659	28.57
596.852	28.47
597.045	28.42
597.238	28.37
597.431	28.6
597.624	28.85
597.818	28.99
598.011	28.94
598.204	29.11
598.397	29
598.59	29.12
598.783	29.23
598.976	29.32
599.169	29.33
599.362	29.38
599.555	29.41
599.748	29.19
599.941	29.04
600.134	29.1
600.326	28.91
600.519	29.19
600.712	29.47
600.905	29.23
601.098	29.32
601.291	29.64
601.483	29.88
601.676	29.76
601.869	29.64
602.062	29.43
602.255	29.43
602.447	29.51
602.64	29.34
602.833	29.19
603.025	29.35
603.218	29.28
603.411	29.17
603.603	29.13
603.796	29.15
603.989	29.36
604.181	29.26
604.374	29.39
604.566	29.55
604.759	29.49
604.951	29.61
605.144	29.49
605.336	29.41
605.529	29.27
605.721	29.2
605.914	29.07
606.106	28.75
606.299	29.05
606.491	28.87
606.683	28.7
606.876	28.7
607.068	28.5
607.26	28.6
607.453	28.83
607.645	28.81
607.837	28.69
608.03	28.73
608.222	28.84
608.414	28.79
608.606	28.94
608.799	28.94
608.991	29.05
609.183	29.07
609.375	29.1
609.567	28.93
609.759	28.85
609.952	28.95
610.144	28.98
610.336	29.09
610.528	28.95
610.72	28.82
610.912	28.92
611.104	28.58
611.296	28.53
611.488	28.42
611.68	28.55
611.872	28.65
612.064	28.71
612.256	28.94
612.448	29.02
612.64	29.21
612.832	29.35
613.023	29.41
613.215	29.3
613.407	29.46
613.599	29.65
613.791	29.56
613.983	29.74
614.174	29.69
614.366	29.58
614.558	29.55
614.75	29.56
614.941	29.46
615.133	29.31
615.325	29.63
615.516	29.59
615.708	29.38
615.9	29.13
616.091	29.02
616.283	28.96
616.475	29.17
616.666	29.17
616.858	28.95
617.049	28.79
617.241	28.8
617.432	28.91
617.624	28.89
617.815	28.8
618.007	28.87
618.198	29.23
618.39	29.47
618.581	29.15
618.773	29.17
618.964	29.4
619.155	29.49
619.347	29.85
619.538	29.85
619.729	29.74
619.921	29.77
620.112	29.83
620.303	29.38
620.494	29.34
620.686	29.25
620.877	29.4
621.068	29.37
621.259	29.41
621.451	28.77
621.642	28.47
621.833	28.79
622.024	28.53
622.215	28.46
622.406	28.9
622.597	28.7
622.788	29.2
622.98	28.7
623.171	28.87
623.362	28.76
623.553	29.17
623.744	29.36
623.935	29.06
624.126	29.23
624.317	29.38
624.508	29.27
624.698	29.25
624.889	28.88
625.08	28.95
625.271	28.59
625.462	28.34
625.653	28.21
625.844	28.02
626.034	27.96
626.225	28.37
626.416	28.34
626.607	28.02
626.798	28.2
626.988	28.17
627.179	28.06
627.37	28.07
627.56	28.57
627.751	28.47
627.942	28.46
628.132	28.43
628.323	28.41
628.514	28.41
628.704	28.59
628.895	28.52
629.085	28.56
629.276	28.76
629.466	28.95
629.657	28.65
629.847	29.03
630.038	29.18
630.228	29.39
630.419	28.78
630.609	28.93
630.8	28.61
630.99	28.64
631.181	28.83
631.371	28.58
631.561	28.33
631.752	28.55
631.942	28.32
632.132	28.2
632.323	28.09
632.513	28.55
632.703	28.57
632.893	29.2
633.084	29.18
633.274	28.79
633.464	29.08
633.654	29.36
633.844	29.17
634.034	29.36
634.225	29.32
634.415	29.23
634.605	29.41
634.795	29.21
634.985	29.08
635.175	28.77
635.365	29.01
635.555	28.53
635.745	28.33
635.935	28.24
636.125	27.84
636.315	28.23
636.505	28.42
636.695	28.41
636.885	28.91
637.075	28.67
637.265	28.97
637.455	28.78
637.644	29.15
637.834	29.08
638.024	29.01
638.214	28.91
638.404	28.89
638.593	28.95
638.783	28.69
638.973	28.27
639.163	28.09
639.352	28.2
639.542	28.57
639.732	28.59
639.921	29.05
640.111	29.12
640.301	29.21
640.49	29.07
640.68	28.84
640.87	28.99
641.059	29.14
641.249	29.7
641.438	29.31
641.628	28.97
641.817	29.15
642.007	28.8
642.196	29.04
642.386	29.35
642.575	29.33
642.764	29.61
642.954	29.3
643.143	29.28
643.333	29.11
643.522	29.77
643.711	29.64
643.901	29.7
644.09	29.82
644.279	29.53
644.469	29.86
644.658	29.91
644.847	29.69
645.036	30.03
645.226	29.84
645.415	29.33
645.604	28.84
645.793	29.33
645.982	29.24
646.171	29.09
646.361	29.27
646.55	28.77
646.739	28.83
646.928	28.87
647.117	28.98
647.306	29
647.495	29.27
647.684	29.33
647.873	29.18
648.062	28.8
648.251	28.94
648.44	28.88
648.629	28.92
648.818	28.78
649.007	28.58
649.196	28.1
649.384	28.06
649.573	28.28
649.762	28.21
649.951	28.23
650.14	28.54
650.328	28.22
650.517	28.42
650.706	28.46
650.895	28.25
651.083	28.52
651.272	28.1
651.461	28.15
651.65	28.24
651.838	28
652.027	27.82
652.216	27.72
652.404	27.78
652.593	27.58
652.781	27.73
652.97	27.76
653.158	27.63
653.347	28.26
653.535	28.28
653.724	28.07
653.912	28.41
654.101	28.57
654.289	28.61
654.478	28.91
654.666	28.76
654.855	28.49
655.043	28.63
655.231	28.5
655.42	28.29
655.608	28.12
655.796	28.16
655.985	28.08
656.173	27.94
656.361	27.83
656.55	27.55
656.738	27.9
656.926	27.99
657.114	28.45
657.302	28.52
657.491	28.73
657.679	29.02
657.867	28.75
658.055	28.69
658.243	28.75
658.431	29.04
658.619	29.04
658.807	28.99
658.996	29.1
659.184	29.01
659.372	29.04
659.56	28.89
659.748	28.87
659.936	28.92
660.124	28.85
660.311	28.84
660.499	28.61
660.687	28.37
660.875	28.38
661.063	28.07
661.251	27.86
661.439	27.91
661.627	28.03
661.814	28
662.002	27.92
662.19	27.72
662.378	27.39
662.565	27.54
662.753	27.97
662.941	27.73
663.129	28.29
663.316	28.54
663.504	28.57
663.692	28.39
663.879	28.68
664.067	29.13
664.254	29.59
664.442	29.85
664.63	29.92
664.817	29.92
665.005	29.4
665.192	29.06
665.38	28.88
665.567	29.06
665.755	29.46
665.942	28.75
666.13	28.84
666.317	29.02
666.504	29.01
666.692	28.83
666.879	28.89
667.067	29.56
667.254	29.71
667.441	29.24
667.629	28.64
667.816	28.51
668.003	28.85
668.19	28.37
668.378	28.15
668.565	28.04
668.752	28.04
668.939	28.07
669.127	27.84
669.314	27.48
669.501	28.16
669.688	28.22
669.875	28.02
670.062	27.79
670.249	27.82
670.436	27.7
670.623	27.71
670.81	27.75
670.997	27.49
671.184	27.69
671.371	27.98
671.558	28.22
671.745	28.29
671.932	28.52
672.119	28.71
672.306	28.72
672.493	28.81
672.68	29.12
672.867	29.26
673.054	29.25
673.24	28.86
673.427	28.55
673.614	27.95
673.801	27.91
673.988	27.37
674.174	27.52
674.361	27.96
674.548	28.11
674.734	28.34
674.921	28.48
675.108	29.04
675.294	29.62
675.481	29.89
675.668	29.8
675.854	29.85
676.041	30.4
676.227	30.02
676.414	29.71
676.601	29.49
676.787	29.09
676.974	29.23
677.16	29.14
677.347	28.71
677.533	28.58
677.719	28.7
677.906	28.62
678.092	28.55
678.279	28.41
678.465	28.4
678.651	28.5
678.838	28.61
679.024	28.49
679.21	27.9
679.397	28.06
679.583	28.25
679.769	28.57
679.955	28.98
680.142	28.56
680.328	29.05
680.514	29.47
680.7	29.43
680.886	29.47
681.073	29.39
681.259	29.62
681.445	29.61
681.631	29.27
681.817	28.8
682.003	28.73
682.189	29
682.375	28.69
682.561	28.35
682.747	28.76
682.933	28.57
683.119	28.59
683.305	29.09
683.491	29.31
683.677	29.8
683.863	30
684.049	30.38
684.235	30.73
684.42	31.11
684.606	31.06
684.792	30.75
684.978	30.92
685.164	31.01
685.349	30.88
685.535	31
685.721	30.78
685.907	30.77
686.092	30.34
686.278	29.96
686.464	29.62
686.649	29.43
686.835	28.71
687.021	27.8
687.206	27.53
687.392	27.43
687.577	26.89
687.763	26.25
687.948	26.44
688.134	26.37
688.319	26.73
688.505	26.95
688.69	26.81
688.876	27.3
689.061	28.29
689.247	28.09
689.432	27.87
689.618	28.09
689.803	29.32
689.988	29.15
690.174	29.38
690.359	29.18
690.544	28.99
690.73	28.76
690.915	28.73
691.1	27.98
691.285	28.74
691.471	28.93
691.656	28.81
691.841	28.02
692.026	28.19
692.211	27.68
692.396	28.3
692.582	28.3
692.767	28.8
692.952	28.7
693.137	28.65
693.322	27.92
693.507	28.16
693.692	27.61
693.877	27.47
694.062	26.42
694.247	26.37
694.432	25.13
694.617	24.93
694.802	24.86
694.987	25.73
695.172	26.07
695.357	26.69
695.541	26.34
695.726	27.39
695.911	27.4
696.096	28.58
696.281	28.64
696.466	29.42
696.65	29.59
696.835	30.12
697.02	29.84
697.204	30.04
697.389	29.81
697.574	30.1
697.759	30.16
697.943	30.56
698.128	30.33
698.312	30.29
698.497	30.01
698.682	29.94
698.866	29.37
699.051	29.49
699.235	29.61
699.42	29.07
699.604	28.64
699.789	28.32
699.973	28.39
700.158	28.25
700.342	28.58
700.527	28.43
700.711	28.5
700.895	28.82
701.08	28.14
701.264	28.06
701.448	28.69
701.633	28.97
701.817	29.08
702.001	28.9
702.186	29.32
702.37	29.22
702.554	29.21
702.738	29.25
702.923	29.09
703.107	29.12
703.291	29
703.475	29.16
703.659	29.17
703.843	29.26
704.027	29.01
704.212	28.6
704.396	27.92
704.58	27.78
704.764	28.32
704.948	28.48
705.132	28.72
705.316	28.33
705.5	28.77
705.684	29.15
705.868	29.18
706.052	28.84
706.235	29.05
706.419	29.44
706.603	29.88
706.787	29.5
706.971	30.09
707.155	29.89
707.339	30.62
707.522	29.86
707.706	29.53
707.89	29.27
708.074	29.27
708.257	29.09
708.441	28.74
708.625	28.95
708.808	28.43
708.992	28.26
709.176	28.4
709.359	27.5
709.543	27.29
709.727	27.28
709.91	26.56
710.094	27.14
710.277	27.19
710.461	28.24
710.644	27.92
710.828	28.36
711.011	27.91
711.195	27.97
711.378	28.71
711.562	28.35
711.745	27.96
711.928	28.43
712.112	27.7
712.295	27.43
712.478	25.97
712.662	25.89
712.845	25.13
713.028	24.98
713.212	25.28
713.395	24.93
713.578	25.63
713.761	26.08
713.945	25.8
714.128	26.37
714.311	25.78
714.494	26.6
714.677	26.38
714.86	27.15
715.043	27.43
715.227	26.84
715.41	26.8
715.593	26.83
715.776	26.19
715.959	26.28
716.142	26.18
716.325	26.71
716.508	26.66
716.691	27.36
716.874	26.95
717.057	27.15
717.239	27.55
717.422	27.49
717.605	26.93
717.788	26.97
717.971	27.01
718.154	27.27
718.337	27.01
718.519	27.11
718.702	26.49
718.885	26.15
719.068	25.19
719.25	25.4
719.433	26.21
719.616	26.5
719.798	26.75
719.981	27.76
720.164	26.8
720.346	27.17
720.529	27.26
720.712	26.27
720.894	26.95
721.077	27.48
721.259	27.02
721.442	27.14
721.624	27.34
721.807	27.32
721.989	26.47
722.172	26.83
722.354	27.08
722.537	26.15
722.719	27.2
722.901	27.15
723.084	27.18
723.266	28.15
723.448	27.64
723.631	27.84
723.813	28.12
723.995	27.11
724.178	26.96
724.36	26.06
724.542	26.77
724.724	26.79
724.907	26.31
725.089	26.26
725.271	24.88
725.453	23.7
725.635	23.82
725.817	23.33
725.999	25.1
726.181	25.25
726.364	26.1
726.546	25.75
726.728	24.79
726.91	25.1
727.092	24.52
727.274	25.34
727.456	26.13
727.638	25.9
727.819	25.71
728.001	25.72
728.183	25.6
728.365	25.15
728.547	25.73
728.729	26.82
728.911	26.06
729.093	26.66
729.274	27.18
729.456	26.86
729.638	26.03
729.82	26.54
730.001	25.03
730.183	24.76
730.365	24.3
730.546	23.69
730.728	23.13
730.91	23.85
731.091	22.86
731.273	22.32
731.455	23.09
731.636	23.21
731.818	23.79
731.999	24.58
732.181	24.94
732.362	25.74
732.544	26.16
732.725	26.05
732.907	25.97
733.088	26.95
733.27	26.69
733.451	25.36
733.633	26.03
733.814	25.18
733.995	25.42
734.177	25.95
734.358	25.74
734.539	25.53
734.721	25.56
734.902	26.26
735.083	26.7
735.264	26.69
735.446	27.8
735.627	28.01
735.808	28.63
735.989	28.98
736.17	29.25
736.351	28.55
736.533	28.67
736.714	28.84
736.895	28.13
737.076	27.68
737.257	27.08
737.438	27.34
737.619	27.22
737.8	27.72
737.981	27
738.162	25.78
738.343	26.62
738.524	27.29
738.705	27.06
738.886	26.86
739.067	27.26
739.247	28
739.428	27.25
739.609	25.85
739.79	25.44
739.971	26.02
740.151	26.02
740.332	25.83
740.513	25.3
740.694	26.37
740.874	25.97
741.055	25.62
741.236	25.43
741.417	24.56
741.597	26.68
741.778	26.88
741.958	27.43
742.139	28.79
742.32	28.6
742.5	28.23
742.681	28.94
742.861	29.04
743.042	27.7
743.222	28
743.403	29.55
743.583	29.37
743.764	27.62
743.944	24.93
744.124	24
744.305	25.18
744.485	24.4
744.666	22.02
744.846	23.05
745.026	24.22
745.207	23.97
745.387	23.59
745.567	24.4
745.747	25.01
745.928	26.85
746.108	27.35
746.288	26.07
746.468	25.59
746.648	27.03
746.829	26.46
747.009	25.9
747.189	26.32
747.369	26.57
747.549	23.56
747.729	23.81
747.909	22.99
748.089	23.41
748.269	23.05
748.449	25.39
748.629	24.71
748.809	25.28
748.989	26.85
749.169	26.98
749.349	27.34
749.529	29.17
749.709	28.2
749.889	28.86
750.068	28.06
750.248	28.8
750.428	26.52
750.608	26.59
750.788	25.57
750.967	25.01
751.147	25.09
751.327	25.3
751.507	23.89
751.686	25.83
751.866	26.05
752.046	24.45
752.225	25.19
752.405	27.21
752.585	27.36
752.764	27.51
752.944	27.64
753.123	26.23
753.303	25.17
753.482	25.91
753.662	24.9
753.841	24.26
754.021	26.06
754.2	24.31
754.38	22.89
754.559	22.81
754.739	22.7
754.918	22.44
755.097	23.6
755.277	25.11
755.456	25.19
755.635	26.63
755.815	28.04
755.994	27.86
756.173	28.92
756.352	29.9
756.532	30.47
756.711	32.15
756.89	31.99
757.069	31.73
757.248	30.88
757.427	30.46
757.607	28.68
757.786	27.64
757.965	26.83
758.144	27.73
758.323	27.32
758.502	26.27
758.681	25.54
758.86	24.79
759.039	24.94
759.218	24.48
759.397	24.82
759.576	26.81
759.755	27.49
759.934	28.51
760.113	26.69
760.291	25.87
760.47	26.31
760.649	26.87
760.828	26.83
761.007	25.81
761.186	25.28
761.364	24.75
761.543	22.52
761.722	21.39
761.901	19.78
762.079	20.43
762.258	21.34
762.437	21.1
762.615	20.2
762.794	20.55
762.972	21.9
763.151	22.51
763.33	22.67
763.508	24.07
763.687	24.46
763.865	25.67
764.044	25.69
764.222	26.31
764.401	26.06
764.579	26.88
764.758	27.4
764.936	26.91
765.114	26.9
765.293	27.78
765.471	28.01
765.65	28.57
765.828	27.69
766.006	27.53
766.184	26.48
766.363	27.09
766.541	25.51
766.719	25.11
766.898	24.49
767.076	24.53
767.254	24.01
767.432	22.45
767.61	21.65
767.788	22.61
767.967	23.29
768.145	24
768.323	24.56
768.501	26.51
768.679	26.01
768.857	26.02
769.035	25.92
769.213	25.43
769.391	26.37
769.569	26.8
769.747	26.34
769.925	27.4
770.103	28.5
770.281	27.43
770.459	26.46
770.636	27.44
770.814	29.32
770.992	29.05
771.17	30.05
771.348	28.85
771.525	27.76
771.703	30.25
771.881	29.72
772.059	27.24
772.236	27.5
772.414	27.55
772.592	29.07
772.769	26.56
772.947	26.37
773.125	26.27
773.302	27.85
773.48	27.5
773.657	24.12
773.835	22.14
774.013	23.7
774.19	23.96
774.368	23.42
774.545	22.01
774.723	25.24
774.9	24.52
775.077	22.6
775.255	23.12
775.432	24.94
775.61	25.92
775.787	26.8
775.964	26.45
776.142	24.78
776.319	24.91
776.496	24
776.674	22.64
776.851	23.42
777.028	24.92
777.205	23.36
777.382	24.14
777.56	25.67
777.737	26.61
777.914	25.4
778.091	25.83
778.268	24.7
778.445	24.73
778.622	24.21
778.8	25.87
778.977	25.54
779.154	24.4
779.331	21.64
779.508	20.32
779.685	18.16
779.862	18.95
780.038	20.91
780.215	20.54
780.392	20.54
780.569	22.73
780.746	23.5
780.923	22.37
781.1	24.84
781.277	26.86
781.453	27.55
781.63	26.99
781.807	25.98
781.984	25.58
782.16	27.62
782.337	27.61
782.514	27.79
782.691	26.27
782.867	26.89
783.044	24.57
783.221	23.82
783.397	21.36
783.574	22.09
783.75	24.47
783.927	22.67
784.103	24.01
784.28	23.18
784.456	20.79
784.633	20.58
784.809	23.89
784.986	25.1
785.162	23.69
785.339	25.05
785.515	27.32
785.692	24.49
785.868	26.47
786.044	25.47
786.221	26.1
786.397	25.82
786.573	24.43
786.749	23.33
786.926	21.86
787.102	24.1
787.278	23.65
787.454	23.05
787.631	23.13
787.807	23.95
787.983	22.91
788.159	24.81
788.335	26.06
788.511	26.44
788.687	25.62
788.863	26.98
789.039	27.97
789.216	26.87
789.392	26.7
789.568	29.94
789.744	27.84
789.919	28.4
790.095	26.13
790.271	22.63
790.447	24.18
790.623	24.67
790.799	25.65
790.975	24
791.151	24.24
791.327	26.5
791.502	24.21
791.678	23.11
791.854	23.34
792.03	23.17
792.205	25.37
792.381	21.5
792.557	19.6
792.733	17.07
792.908	14.67
793.084	16.66
793.259	13.37
793.435	11.6
793.611	14.82
793.786	12.88
793.962	12.07
794.137	13.67
794.313	16.03
794.488	14.5
794.664	14.55
794.839	17.07
795.015	16.46
795.19	16.73
795.366	19.69
795.541	20.57
795.716	22.37
795.892	23.71
796.067	21.37
796.242	21.77
796.418	23.05
796.593	22.57
796.768	21.77
796.944	20.74
797.119	21.72
797.294	20.7
797.469	16.63
797.644	17.25
797.82	15.79
797.995	19.2
798.17	17.85
798.345	18.49
798.52	20.22
798.695	20.28
798.87	20.99
799.045	22.25
799.22	22.61
799.395	24.38
799.57	22.25
799.745	22.48
799.92	22.22
800.095	23.9
800.27	23.69
800.445	21.48
800.62	23.66
800.795	26.59
800.97	23.49
801.145	20.08
801.319	23.86
801.494	25.65
801.669	26.28
801.844	25.47
802.018	23.88
802.193	23.22
802.368	23.85
802.543	21.3
802.717	18.67
802.892	18.97
803.067	21.98
803.241	18.89
803.416	21.42
803.59	24
803.765	22.36
803.94	26.14
804.114	28.13
804.289	30
804.463	31.49
804.638	32.01
804.812	31.72
804.986	29.28
805.161	23.51
805.335	18.34
805.51	15.11
805.684	15.08
805.858	9.92
806.033	9.29
806.207	12.88
806.381	12.53
806.556	12.57
806.73	14.39
806.904	17.71
807.078	21.61
807.253	22.59
807.427	22.64
807.601	22
807.775	22.62
807.949	22.11
808.123	17.96
808.298	19.48
808.472	18.1
808.646	18.08
808.82	16.65
808.994	19.71
809.168	18.38
809.342	17.57
809.516	15.58
809.69	21.32
809.864	22.83
810.038	26.08
810.212	24.13
810.385	25.45
810.559	25.48
810.733	26.05
810.907	20.29
811.081	20.99
811.255	24.71
811.428	28.61
811.602	25.67
811.776	26.16
811.95	22.85
812.123	22.24
812.297	23.18
812.471	17.27
812.644	18.44
812.818	19.12
812.992	21.95
813.165	14.62
813.339	15.48
813.512	16.76
813.686	15.5
813.86	18.65
814.033	17.87
814.207	14.68
814.38	17.93
814.554	16.16
814.727	15.95
814.9	15.08
815.074	20.1
815.247	19.11
815.421	18.92
815.594	15.74
815.767	16.84
815.941	17.38
816.114	19.54
816.287	19.59
816.46	21.26
816.634	17.96
816.807	18.66
816.98	14.8
817.153	8.93
817.327	4.12
817.5	5.87
817.673	2.89
817.846	2.92
818.019	0.08
818.192	3.65
818.365	4.84
818.538	8.31
818.711	3.47
818.884	6.59
819.057	10.43
819.23	9.05
819.403	9.01
819.576	13.91
819.749	15.58
819.922	15.72
820.095	16.19
820.268	17.58
820.441	20.72
820.614	22.81
820.786	25.31
820.959	27.17
821.132	27.83
821.305	29.72
821.477	27.71
821.65	27.36
821.823	27.45
821.996	27.97
822.168	28.32
822.341	27.67
822.514	27.86
822.686	27.6
822.859	26.53
823.031	27.2
823.204	27.09
823.376	27.2
823.549	27.35
823.722	27.51
823.894	26.73
824.067	26.56
824.239	27.23
824.411	26.9
824.584	26.82
824.756	28.05
824.929	26.74
825.101	25.56
825.273	25.65
825.446	26.24
825.618	26.28
825.79	27.09
825.963	26.53
826.135	26.57
826.307	26.56
826.479	28.03
826.652	27.27
826.824	27
826.996	28.43
827.168	29.77
827.34	28.48
827.512	28.24
827.684	28.16
827.856	29.15
828.029	27.55
828.201	27.28
828.373	25.17
828.545	25.09
828.717	27.42
828.889	27.33
829.061	22.93
829.232	24.18
829.404	25.4
829.576	25.36
829.748	22.84
829.92	22.56
830.092	23.82
830.264	21.99
830.436	21
830.607	18.76
830.779	17.65
830.951	18.24
831.123	16.3
831.294	13.67
831.466	13.98
831.638	12.75
831.809	13.36
831.981	10.1
832.153	9.63
832.324	3.37
832.496	6.85
832.667	7.22
832.839	7.09
833.011	10.12
833.182	12.1
833.354	11.24
833.525	14.79
833.697	13.94
833.868	16.87
834.039	19.51
834.211	24.41
834.382	23.1
834.554	26.65
834.725	26.69
834.896	22.68
835.068	22.66
835.239	22.93
835.41	20.93
835.581	19.72
835.753	16.81
835.924	17.77
836.095	18.07
836.266	15.78
836.438	11.71
836.609	12.97
836.78	13.13
836.951	8.63
837.122	9.82
837.293	9.08
837.464	12.39
837.635	15.12
837.806	16.21
837.977	16.13
838.148	20.46
838.319	20.99
838.49	22.39
838.661	23.76
838.832	29.26
839.003	27.3
839.174	30.45
839.345	25.39
839.516	23.12
839.687	16
839.857	15.36
840.028	11.23
840.199	5.99
840.37	1.88
840.54	1.5
840.711	-3.65
840.882	-9.82
841.053	-11.76
841.223	-7.89
841.394	-9.38
841.564	-7.33
841.735	-14.13
841.906	-15.54
842.076	-16.79
842.247	-10.35
842.417	-8.12
842.588	-1.68
842.758	3.41
842.929	0.76
843.099	2.12
843.27	10.41
843.44	7.96
843.611	14.18
843.781	8.56
843.951	5.57
844.122	5.11
844.292	5.97
844.462	-0.79
844.633	-0.69
844.803	3.84
844.973	-6
845.144	-14.26
845.314	-7.03
845.484	-7.84
845.654	4.51
845.824	7.44
845.995	8.93
846.165	8.58
846.335	7.52
846.505	5.76
846.675	5.71
846.845	15.91
847.015	10.58
847.185	5.86
847.355	2.32
847.525	-11.91
847.695	-5.8
847.865	-24.78
848.035	-43.9
848.205	-41.09
848.375	-29.98
848.545	-23.1
848.715	-42.82
848.884	-27.75
849.054	-24.08
849.224	-25.32
849.394	-17.17
849.564	-25.51
849.733	-17.92
849.903	-11.68
850.073	-16.56
850.243	-44.22
850.412	-87.76
850.582	-51.43
850.752	-81.03
850.921	-61.92
851.091	-66.32
851.26	-64.71
851.43	-42.14
851.599	-58.61
851.769	-61.7
851.939	-47.33
852.108	-35.23
852.278	0.03
852.447	-0.63
852.616	2.93
852.786	-5.35
852.955	-9.21
853.125	-22.56
853.294	-28.51
853.463	-24.97
853.633	-14.16
853.802	-22.58
853.971	-35.33
854.141	-58.31
854.31	-48.61
854.479	-55.86
854.648	-64.13
854.818	-57.63
854.987	-6.8
855.156	-8.37
855.325	-23.11
855.494	-37.6
855.663	-14.49
855.832	5.66
856.001	7.21
856.171	-15.61
856.34	-3.27
856.509	-7.13
856.678	-2.56
856.847	-21.6
857.016	-32.71
857.185	-11.34
857.353	-5.34
857.522	-40.84
857.691	-52.25
857.86	-51.38
858.029	-33.65
858.198	-58.12
858.367	-52.85
858.535	-57.54
858.704	-27.62
858.873	-6.71
859.042	-4.72
859.21	-19.44
859.379	11.3
859.548	13.67
859.717	9.82
859.885	-19.11
860.054	-1.08
860.222	-12.04
860.391	14.71
860.56	-8.75
860.728	-17.71
860.897	5.33
861.065	-9.9
861.234	-49.35
861.402	-41.09
861.571	-44.1
861.739	-50.29
861.908	-51.85
862.076	-52.58
862.244	-64.49
862.413	-53
862.581	-47.17
862.749	-80.41
862.918	-61.78
863.086	-44.23
863.254	-47.14
863.423	-44.81
863.591	-36.5
863.759	-60.91
863.927	-46.73
864.096	-67.52
864.264	-126.15
864.432	-165.56
864.6	-263.77
864.768	-244.22
864.936	-272.49
865.104	-135.1
865.272	-228.06
865.44	-191.26
865.608	-176.83
865.776	-228.41
865.944	-236.42
866.112	-173.14
866.28	-123.29
866.448	-73.74
866.616	-117.8
866.784	-74.56
866.952	-132.38
867.12	-72.37
867.288	-51.71
867.455	-62.82
867.623	-42.73
867.791	-20.3
867.959	-10.94
868.127	-25.11
868.294	-31.26
868.462	-25.95
868.63	-30.36
868.797	-24.61
868.965	-37.28
869.133	-30.11
869.3	-14.2
869.468	-28.4
869.636	-25.18
869.803	-24.61
869.971	-18.25
870.138	-34.32
870.306	-33.34
870.473	-48.28
870.641	-24.89
870.808	-22.78
870.975	-36.61
871.143	-57.11
871.31	-141.46
871.478	-104.86
871.645	-138.82
871.812	-151.45
871.98	-108.76
872.147	-72.31
872.314	-22.86
872.482	-54.87
872.649	-84.04
872.816	-98.68
872.983	-57.49
873.15	-25.27
873.318	-38.83
873.485	-30.57
873.652	-32.64
873.819	-45.73
873.986	-49.1
874.153	-58.57
874.32	-81.23
874.487	-44.14
874.654	-41.98
874.821	-46.63
874.988	-34.91
875.155	-30.11
875.322	-34.75
875.489	-14.49
875.656	-14.58
875.823	-13.41
875.99	-28.38
876.157	-20.7
876.324	-36.12
876.49	-36.68
876.657	-33.08
876.824	-36.23
876.991	-27.89
877.157	-24.01
877.324	-45.69
877.491	-61.87
877.658	-74.09
877.824	-45.71
877.991	-39.84
878.157	-47.4
878.324	-77.2
878.491	-88.58
878.657	-48.3
878.824	-43.25
878.99	-57.71
879.157	-53.16
879.323	-36.15
879.49	-28.23
879.656	-49.97
879.823	-59.34
879.989	-39.18
880.156	-14.56
880.322	-12.46
880.488	-27.28
880.655	-57.81
880.821	-65.93
880.987	-39.13
881.154	-39.68
881.32	-53.96
881.486	-23.72
881.652	-2.57
881.819	-4.75
881.985	-5.6
882.151	-2.25
882.317	2.04
882.483	2.38
882.649	6.38
882.816	9.07
882.982	11.16
883.148	15.4
883.314	15.23
883.48	11.75
883.646	13.79
883.812	14.58
883.978	16.53
884.144	15.17
884.31	15.39
884.476	15.63
884.642	15.91
884.807	13.79
884.973	12.26
885.139	12.09
885.305	13.11
885.471	11.9
885.637	9.5
885.802	5.83
885.968	9.32
886.134	14.09
886.3	14.88
886.465	8.7
886.631	13.08
886.797	17.61
886.962	17.18
887.128	16.43
887.293	14.04
887.459	14.15
887.625	19.95
887.79	13.8
887.956	10.48
888.121	11.6
888.287	19.19
888.452	19.99
888.618	11.88
888.783	3.84
