Data from 29378909_Reflection_4.txt Node
Date: Wed Jul 15 14:08:56 EDT 2015
User: robert
Spectrometer: USB4E03001
Autoset integration time: false
Trigger mode: 4
Integration Time (sec): 1.000000E-1
Scans to average: 10
Electric dark correction enabled: true
Nonlinearity correction enabled: false
Boxcar width: 5
Stray light correction enabled: false
XAxis mode: Wavelengths
Stop averaging: false
Number of Pixels in Spectrum: 3648
>>>>>Begin Spectral Data<<<<<
177.566	5309.52
177.785	45.57
178.005	342.45
178.225	-88.22
178.445	-59.55
178.665	-1.42
178.885	10.31
179.105	-12333.33
179.324	0.12
179.544	-55.5
179.764	-124.96
179.984	-66.38
180.204	-60.13
180.423	-47.39
180.643	-48.76
180.863	-40.93
181.083	-22.97
181.302	-45.92
181.522	-76.08
181.742	328.08
181.961	172.87
182.181	147.04
182.401	71.22
182.621	9.06
182.84	62.35
183.06	53.18
183.279	51.64
183.499	60
183.719	42.07
183.938	65.78
184.158	55.32
184.377	36.22
184.597	60.52
184.816	60.62
185.036	83.94
185.256	91.5
185.475	68.66
185.695	176.67
185.914	99.78
186.134	347.27
186.353	-16.11
186.572	-2.2
186.792	-12.55
187.011	6.63
187.231	15.51
187.45	10.71
187.67	15.49
187.889	28
188.108	75.93
188.328	41.81
188.547	15.49
188.766	-37.11
188.986	-18.88
189.205	40.22
189.424	60.1
189.644	75.87
189.863	-18.99
190.082	25.38
190.302	106.68
190.521	131.45
190.74	132.8
190.959	125.37
191.178	100.51
191.398	-608.21
191.617	122.75
191.836	121.86
192.055	92.75
192.274	123.4
192.494	65.92
192.713	38.61
192.932	-8.64
193.151	-78.71
193.37	-11.79
193.589	17.56
193.808	13.43
194.027	29.58
194.246	14.45
194.465	45.69
194.685	30.33
194.904	50.3
195.123	65.78
195.342	120.72
195.561	140.22
195.78	134.53
195.999	138.67
196.218	154.96
196.436	65.23
196.655	75.39
196.874	69.84
197.093	117.15
197.312	94.35
197.531	87.72
197.75	32.64
197.969	-8.76
198.188	72.9
198.407	92.41
198.625	57.62
198.844	220.56
199.063	-305.41
199.282	-15.49
199.501	4.47
199.719	51800
199.938	-95.22
200.157	-15.73
200.376	7.18
200.594	-31.38
200.813	3.69
201.032	-9.57
201.251	9.01
201.469	507.66
201.688	99.63
201.907	24.09
202.125	367.39
202.344	299.51
202.563	2185.88
202.781	641.18
203	-139.59
203.218	-448.39
203.437	-407.68
203.656	-399.57
203.874	140.6
204.093	-15.45
204.311	-35.47
204.53	31.8
204.748	0.04
204.967	43.66
205.185	-11.57
205.404	-42.57
205.622	-179.03
205.841	-81.82
206.059	29.8
206.278	45.58
206.496	53.55
206.715	235.51
206.933	-163.43
207.151	715.43
207.37	225.99
207.588	15.83
207.806	-16.22
208.025	-204.99
208.243	-38.59
208.461	96.87
208.68	18.58
208.898	-341.58
209.116	154.45
209.335	-8.96
209.553	83.45
209.771	134.59
209.989	175.02
210.208	123.42
210.426	82.18
210.644	90.12
210.862	102.91
211.081	69.65
211.299	99.38
211.517	39.13
211.735	68.21
211.953	89.58
212.171	26.91
212.39	-20.29
212.608	-29.33
212.826	-8.23
213.044	-9.8
213.262	-49.97
213.48	-58.17
213.698	-61.66
213.916	-56.96
214.134	-49.96
214.352	-31.43
214.57	-9.03
214.788	-14.16
215.006	-83.43
215.224	-91.36
215.442	-60.84
215.66	-8.76
215.878	25.33
216.096	85.32
216.314	40.81
216.532	-46.6
216.75	-14.48
216.968	-164.01
217.185	-25.86
217.403	18.94
217.621	97.14
217.839	-12.47
218.057	127.64
218.275	133.36
218.492	110.77
218.71	145.92
218.928	109.91
219.146	146.57
219.363	209.11
219.581	141.8
219.799	218.34
220.017	224.41
220.234	190
220.452	477.6
220.67	-528.13
220.887	-75.65
221.105	-25.89
221.323	-25.95
221.54	-3.99
221.758	0.97
221.976	-7.71
222.193	28.38
222.411	33.24
222.629	38.61
222.846	34.18
223.064	38.77
223.281	33.53
223.499	20.15
223.716	37.37
223.934	27.85
224.151	12.63
224.369	3.67
224.586	-19.55
224.804	-66.92
225.021	-43.23
225.239	-18.87
225.456	-8.38
225.674	-13.64
225.891	5.91
226.108	-10.7
226.326	2.49
226.543	15.98
226.76	26.79
226.978	17.33
227.195	12.94
227.413	3.6
227.63	6.07
227.847	8.18
228.064	9.89
228.282	6.65
228.499	6.56
228.716	6.28
228.934	6.15
229.151	4.77
229.368	6.93
229.585	5.4
229.802	6.08
230.02	2.38
230.237	1.86
230.454	4.33
230.671	5.4
230.888	7.27
231.105	4.35
231.323	3.21
231.54	5.01
231.757	4.31
231.974	7.13
232.191	4.4
232.408	10.35
232.625	2.38
232.842	-2.3
233.059	-3.79
233.276	-5.47
233.493	-3.27
233.71	0.11
233.927	-1.34
234.144	-0.26
234.361	-1.39
234.578	2.09
234.795	2.75
235.012	5.67
235.229	4.14
235.446	1.35
235.663	2.86
235.879	2.12
236.096	5.06
236.313	11.15
236.53	15.42
236.747	18.78
236.964	19.13
237.181	16.93
237.397	22.67
237.614	28.03
237.831	28.13
238.048	25.88
238.264	29.77
238.481	28.06
238.698	20.99
238.915	17.67
239.131	12.54
239.348	13.43
239.565	12.94
239.781	11.64
239.998	5.61
240.215	9.48
240.431	10.11
240.648	12.37
240.865	12.8
241.081	12.5
241.298	11.11
241.514	12.91
241.731	11.55
241.947	12.24
242.164	10.64
242.38	12.47
242.597	11.32
242.814	10.76
243.03	9.41
243.246	8.66
243.463	9.63
243.679	10.12
243.896	9.74
244.112	10.78
244.329	9.94
244.545	10.38
244.762	7.26
244.978	7.21
245.194	9.71
245.411	9.6
245.627	7.67
245.843	8.05
246.06	8.23
246.276	9.19
246.492	10.33
246.709	10.35
246.925	10.79
247.141	11.18
247.357	11.23
247.574	10.5
247.79	10.76
248.006	10.96
248.222	10.11
248.439	10.3
248.655	10.26
248.871	9.42
249.087	9.07
249.303	8.11
249.519	8.94
249.736	8.67
249.952	7.69
250.168	5.87
250.384	7.1
250.6	6.95
250.816	5.81
251.032	6
251.248	6.2
251.464	6.88
251.68	7.27
251.896	5.85
252.112	6.05
252.328	8.35
252.544	8.63
252.76	5.78
252.976	6.58
253.192	7.76
253.408	5.94
253.624	4.24
253.84	4.26
254.056	4.08
254.272	4.73
254.487	2.31
254.703	-1.75
254.919	-2.7
255.135	1.62
255.351	0.7
255.567	-1.12
255.782	-1.37
255.998	1.5
256.214	0.94
256.43	-0.8
256.646	0.48
256.861	5.18
257.077	7.08
257.293	9.1
257.508	6.59
257.724	6.19
257.94	5.49
258.155	8.2
258.371	9.04
258.587	8.41
258.802	9.43
259.018	8.86
259.234	8.98
259.449	8.02
259.665	7.17
259.88	6.73
260.096	6.74
260.312	6.75
260.527	6.63
260.743	5.58
260.958	5.69
261.174	5.47
261.389	6.3
261.605	5.83
261.82	5.76
262.036	6.47
262.251	8.35
262.466	9.1
262.682	10.02
262.897	10.64
263.113	11.39
263.328	10.8
263.543	10.62
263.759	8.83
263.974	8.77
264.189	9.86
264.405	9.21
264.62	9.12
264.835	10.16
265.051	10.14
265.266	10.07
265.481	9.45
265.696	10.23
265.912	10.83
266.127	9.45
266.342	7.43
266.557	6.71
266.773	7.31
266.988	5.66
267.203	4.78
267.418	3.8
267.633	1.58
267.848	2.05
268.064	2.43
268.279	3.27
268.494	4.81
268.709	6.23
268.924	7.76
269.139	6.76
269.354	6.65
269.569	6.5
269.784	7.48
269.999	8.67
270.214	9.42
270.429	10.61
270.644	9.95
270.859	8.72
271.074	9.06
271.289	8.13
271.504	9.08
271.719	9.58
271.934	8.71
272.149	7.78
272.363	8.33
272.578	7.43
272.793	6.34
273.008	6.03
273.223	6.81
273.438	4.63
273.653	4.24
273.867	4.53
274.082	5.36
274.297	6.83
274.512	7.42
274.726	7.96
274.941	9.25
275.156	9.35
275.371	9.27
275.585	8.74
275.8	11.07
276.015	11.99
276.229	11.49
276.444	12.29
276.659	11.68
276.873	12.13
277.088	10.76
277.302	9.19
277.517	8.39
277.732	8.14
277.946	6.57
278.161	6.6
278.375	5.86
278.59	5.51
278.804	3.18
279.019	3.53
279.233	2.34
279.448	2.85
279.662	3.39
279.877	4.49
280.091	5.89
280.306	8.08
280.52	7.26
280.735	5.75
280.949	5.09
281.163	4.73
281.378	4.46
281.592	4.52
281.806	3.59
282.021	3.21
282.235	3.07
282.449	2.66
282.664	1.94
282.878	3.23
283.092	4.22
283.307	3.63
283.521	5.06
283.735	5.31
283.949	5.52
284.164	5.93
284.378	6.23
284.592	5.95
284.806	5.41
285.02	4.76
285.234	4.24
285.449	4.68
285.663	5.58
285.877	5.46
286.091	5.64
286.305	5.23
286.519	5.38
286.733	4.79
286.947	5.62
287.161	6.54
287.375	7.72
287.589	7.08
287.803	7.46
288.017	9.19
288.231	9.1
288.445	8.29
288.659	9.45
288.873	9.02
289.087	9.09
289.301	7.57
289.515	7.96
289.729	8.12
289.943	9.79
290.157	9.41
290.371	7.7
290.584	7.08
290.798	7.84
291.012	8.27
291.226	8.1
291.44	8.85
291.654	9.82
291.867	9.5
292.081	9.11
292.295	8.16
292.509	8.57
292.722	9.08
292.936	8.64
293.15	8.45
293.364	7.1
293.577	8.32
293.791	8.62
294.005	8.6
294.218	8.25
294.432	7.12
294.645	7.36
294.859	8.06
295.073	8.33
295.286	9.04
295.5	9.04
295.713	9.96
295.927	9.57
296.14	10.15
296.354	9.96
296.568	9.93
296.781	11.4
296.994	11.48
297.208	11.17
297.421	11
297.635	11.28
297.848	10.93
298.062	10.28
298.275	9.6
298.489	8.85
298.702	9.51
298.915	9.31
299.129	9.48
299.342	9.84
299.555	9.82
299.769	10.54
299.982	11.27
300.195	11.56
300.409	12.31
300.622	12.09
300.835	12.08
301.048	12.28
301.262	11.66
301.475	10.27
301.688	9.89
301.901	9.81
302.115	8.28
302.328	8.08
302.541	8.51
302.754	8.39
302.967	9.51
303.18	10.46
303.393	9.92
303.607	10.8
303.82	10.68
304.033	10.81
304.246	11.21
304.459	11.55
304.672	9.19
304.885	9.11
305.098	9.44
305.311	9.89
305.524	9.07
305.737	9.8
305.95	10.4
306.163	10.48
306.376	9.28
306.589	8.78
306.802	9.78
307.015	11.61
307.228	11.58
307.44	11.78
307.653	10.84
307.866	11.5
308.079	10.8
308.292	11.16
308.505	11.63
308.718	13.97
308.93	14.48
309.143	14
309.356	14.66
309.569	14.6
309.781	14.93
309.994	15.77
310.207	14.75
310.42	14.59
310.632	13.64
310.845	13.83
311.058	12.53
311.27	13.34
311.483	13.46
311.696	14.37
311.908	13.87
312.121	14.12
312.333	12.69
312.546	14.31
312.759	14.46
312.971	15.02
313.184	15.87
313.396	16.53
313.609	15.81
313.821	14.56
314.034	12.43
314.246	12.41
314.459	10.96
314.671	11.39
314.884	11.75
315.096	11.72
315.309	10.25
315.521	9.85
315.733	8.61
315.946	9.36
316.158	11.76
316.371	13.51
316.583	14.99
316.795	15.48
317.008	17.13
317.22	16.44
317.432	16.78
317.644	18.21
317.857	18.37
318.069	18.33
318.281	15.56
318.494	14.59
318.706	12.72
318.918	12.08
319.13	13.04
319.342	11.85
319.555	11.54
319.767	10.97
319.979	11.47
320.191	10.34
320.403	10.93
320.615	13.35
320.827	12.02
321.039	11.74
321.252	11.28
321.464	11.08
321.676	12.8
321.888	13.14
322.1	12.94
322.312	13.12
322.524	13.49
322.736	14.04
322.948	12.73
323.16	14.52
323.372	15.88
323.584	15.61
323.796	15.27
324.007	14.39
324.219	14.46
324.431	15.59
324.643	14.38
324.855	14.27
325.067	13.79
325.279	13.53
325.491	13.37
325.702	13.08
325.914	15.1
326.126	14.03
326.338	13.41
326.55	13.64
326.761	14.03
326.973	14.98
327.185	15
327.396	14.09
327.608	15.73
327.82	15.69
328.032	15.98
328.243	14.61
328.455	15.24
328.666	16.03
328.878	15.19
329.09	14.38
329.301	14.04
329.513	15.72
329.725	17.53
329.936	16.04
330.148	16.37
330.359	17.46
330.571	17.52
330.782	18.1
330.994	19.89
331.205	20.69
331.417	21.62
331.628	23.25
331.84	22.45
332.051	22.49
332.262	23.41
332.474	23.68
332.685	23.65
332.897	24.14
333.108	24.69
333.319	24.06
333.531	25.52
333.742	24.99
333.953	25.32
334.165	25.93
334.376	25
334.587	25.82
334.799	25.37
335.01	24.78
335.221	25.23
335.432	26.41
335.644	26.91
335.855	26.03
336.066	26.19
336.277	26.55
336.488	27.1
336.7	28.64
336.911	29.17
337.122	30.52
337.333	31.13
337.544	31.15
337.755	30.44
337.966	30.32
338.177	29.74
338.388	29.45
338.599	28.36
338.811	28.41
339.022	28.35
339.233	28.16
339.444	26.89
339.655	25.59
339.866	25.68
340.076	25.27
340.287	24.98
340.498	25.83
340.709	27.64
340.92	28.66
341.131	28.14
341.342	27.8
341.553	26.97
341.764	27.85
341.975	28.85
342.185	28.7
342.396	29.1
342.607	29.36
342.818	29.68
343.029	28.61
343.239	27.34
343.45	27.45
343.661	27.72
343.872	28.3
344.082	28.14
344.293	26.99
344.504	27.52
344.714	27.43
344.925	27.48
345.136	27.51
345.346	27.3
345.557	28.55
345.768	28.75
345.978	28.53
346.189	28.44
346.399	27.77
346.61	29.33
346.821	29.44
347.031	29.63
347.242	29.6
347.452	29.17
347.663	28.71
347.873	27.97
348.084	28.02
348.294	27.91
348.504	27.59
348.715	29.07
348.925	27.13
349.136	25.83
349.346	25.72
349.557	25.86
349.767	25.84
349.977	27.22
350.188	26.91
350.398	27.43
350.608	27.64
350.819	27.82
351.029	27.5
351.239	28.93
351.449	29.49
351.66	29.44
351.87	29.5
352.08	29.09
352.29	28.22
352.501	27.42
352.711	27.07
352.921	26.24
353.131	26.51
353.341	25.52
353.552	25.72
353.762	26.28
353.972	26.13
354.182	26.77
354.392	27.29
354.602	27.57
354.812	28.23
355.022	28.26
355.232	29.89
355.442	29.54
355.652	29.33
355.862	28.96
356.072	28.18
356.282	29.33
356.492	28.93
356.702	28.96
356.912	28.69
357.122	28.37
357.332	27.5
357.542	27.13
357.752	27.37
357.962	27.58
358.171	27.37
358.381	27.53
358.591	27.18
358.801	27.18
359.011	27.34
359.221	27.09
359.43	27.39
359.64	27.92
359.85	27.55
360.06	27.29
360.269	27.63
360.479	28.72
360.689	28.91
360.899	28.5
361.108	27.78
361.318	27.57
361.528	27.41
361.737	27.58
361.947	27.28
362.156	26.81
362.366	27.06
362.576	26.97
362.785	25.73
362.995	25.72
363.204	25.43
363.414	26.01
363.623	26.15
363.833	26.79
364.042	26.87
364.252	27.01
364.461	27.51
364.671	27.78
364.88	28.5
365.09	28.83
365.299	28.71
365.509	28.53
365.718	27.54
365.927	28.02
366.137	28.3
366.346	28.01
366.555	28.06
366.765	28.64
366.974	28.53
367.183	28.41
367.393	28.81
367.602	28.41
367.811	28.8
368.021	29.39
368.23	28.43
368.439	28.44
368.648	28.26
368.857	27.99
369.067	27.65
369.276	27.03
369.485	26.13
369.694	25.78
369.903	26.28
370.112	26.6
370.321	26.72
370.531	26.55
370.74	25.66
370.949	25.56
371.158	26.13
371.367	26.05
371.576	25.91
371.785	26.09
371.994	26.19
372.203	26.35
372.412	26.39
372.621	26.91
372.83	27.12
373.039	27.84
373.248	28.13
373.457	27.66
373.666	27.45
373.874	27.69
374.083	27.41
374.292	27.47
374.501	26.81
374.71	26.53
374.919	25.76
375.128	25.57
375.336	24.62
375.545	23.93
375.754	24.48
375.963	24.19
376.171	23.98
376.38	23.76
376.589	24.18
376.798	24.42
377.006	24.03
377.215	23.63
377.424	23.82
377.632	24.43
377.841	24.48
378.05	24.03
378.258	24.05
378.467	24.26
378.675	24.85
378.884	24.27
379.093	24.04
379.301	23.81
379.51	24.06
379.718	24.17
379.927	24.01
380.135	24.31
380.344	24.42
380.552	24.58
380.761	24.32
380.969	24.21
381.177	24.16
381.386	24.44
381.594	24.33
381.803	24.58
382.011	24.16
382.219	23.75
382.428	23.6
382.636	23.63
382.845	23.26
383.053	22.94
383.261	22.87
383.469	22.28
383.678	22.02
383.886	22.35
384.094	22.18
384.302	22.26
384.511	22.27
384.719	22.41
384.927	22.01
385.135	22.11
385.343	22.31
385.552	22.18
385.76	22.36
385.968	22.36
386.176	22.34
386.384	21.79
386.592	21.8
386.8	21.8
387.008	21.33
387.216	21.33
387.424	21.41
387.633	21.69
387.841	21.35
388.049	21.4
388.257	21.34
388.465	20.83
388.672	21.13
388.88	21.16
389.088	21.33
389.296	21.53
389.504	21.66
389.712	21.64
389.92	21.11
390.128	20.87
390.336	21.07
390.544	21.02
390.751	21.19
390.959	21.33
391.167	21.39
391.375	21.24
391.583	21.22
391.79	21.02
391.998	20.93
392.206	21.08
392.414	21.34
392.621	21.32
392.829	21.49
393.037	21.71
393.244	21.74
393.452	21.66
393.66	21.64
393.867	21.74
394.075	21.95
394.283	21.98
394.49	21.61
394.698	21.89
394.905	21.8
395.113	21.66
395.32	21.7
395.528	21.43
395.735	21.5
395.943	21.67
396.15	21.42
396.358	21.24
396.565	20.99
396.773	21.52
396.98	21.31
397.188	21.38
397.395	21.4
397.602	21.12
397.81	21.24
398.017	21.23
398.225	20.91
398.432	21.01
398.639	20.98
398.847	21.19
399.054	20.8
399.261	20.74
399.468	20.66
399.676	20.79
399.883	20.95
400.09	21.05
400.297	20.8
400.505	21.08
400.712	21.13
400.919	21.39
401.126	21.22
401.333	21.47
401.54	21.55
401.748	21.76
401.955	21.69
402.162	21.73
402.369	21.39
402.576	21.32
402.783	21.04
402.99	20.91
403.197	20.52
403.404	20.79
403.611	20.48
403.818	20.46
404.025	20.32
404.232	20.2
404.439	20.15
404.646	20.69
404.853	20.98
405.06	21.06
405.267	21.21
405.474	21.31
405.681	21.28
405.887	21.32
406.094	21.33
406.301	21.5
406.508	21.7
406.715	21.65
406.922	21.19
407.128	21.03
407.335	20.78
407.542	20.87
407.749	20.85
407.955	21.02
408.162	21.41
408.369	21.41
408.575	21.22
408.782	21
408.989	21.06
409.195	21.23
409.402	21.08
409.609	21.2
409.815	21.03
410.022	20.97
410.228	20.79
410.435	20.63
410.642	20.76
410.848	20.91
411.055	20.85
411.261	20.78
411.468	20.94
411.674	21.2
411.881	21.44
412.087	21.37
412.294	21.51
412.5	21.56
412.706	21.54
412.913	21.27
413.119	21.06
413.326	21.13
413.532	21.27
413.738	21.07
413.945	21.06
414.151	20.87
414.357	21.27
414.564	21.43
414.77	21.42
414.976	21.41
415.182	21.59
415.389	21.91
415.595	21.91
415.801	21.81
416.007	21.83
416.214	21.68
416.42	21.61
416.626	21.15
416.832	21.14
417.038	20.95
417.244	20.98
417.45	20.92
417.657	20.75
417.863	20.67
418.069	20.78
418.275	20.79
418.481	20.8
418.687	20.93
418.893	20.93
419.099	20.78
419.305	20.8
419.511	20.78
419.717	20.66
419.923	20.58
420.129	20.56
420.335	20.72
420.541	20.54
420.746	20.67
420.952	20.58
421.158	20.72
421.364	20.8
421.57	20.83
421.776	20.85
421.982	20.87
422.187	20.85
422.393	20.91
422.599	20.58
422.805	20.77
423.01	20.62
423.216	20.66
423.422	20.61
423.628	20.38
423.833	20.43
424.039	20.37
424.245	20.48
424.45	20.4
424.656	20.32
424.862	20.51
425.067	20.44
425.273	20.46
425.478	20.37
425.684	20.41
425.889	20.58
426.095	20.38
426.301	20.3
426.506	20.21
426.712	20.32
426.917	20.31
427.123	20.13
427.328	20.04
427.533	20.18
427.739	20.03
427.944	19.99
428.15	19.92
428.355	20.09
428.561	20.29
428.766	20.45
428.971	20.43
429.177	20.46
429.382	20.36
429.587	20.18
429.793	19.99
429.998	20.25
430.203	20.08
430.408	20
430.614	20.06
430.819	19.92
431.024	19.8
431.229	19.81
431.434	19.81
431.64	19.94
431.845	20.14
432.05	20.13
432.255	19.96
432.46	20.07
432.665	19.99
432.87	19.7
433.076	19.89
433.281	19.89
433.486	19.96
433.691	20.02
433.896	20.02
434.101	19.87
434.306	19.72
434.511	19.95
434.716	19.9
434.921	20.15
435.126	20.26
435.331	20.24
435.535	20.17
435.74	20.16
435.945	20.34
436.15	20.4
436.355	20.53
436.56	20.61
436.765	20.54
436.97	20.73
437.174	20.66
437.379	20.71
437.584	20.55
437.789	20.38
437.993	20.31
438.198	19.99
438.403	19.76
438.608	19.82
438.812	19.9
439.017	19.99
439.222	19.84
439.426	19.93
439.631	19.98
439.836	19.83
440.04	19.85
440.245	19.79
440.45	19.93
440.654	20.17
440.859	20.19
441.063	20.22
441.268	20.11
441.472	20.02
441.677	19.96
441.881	19.75
442.086	19.84
442.29	19.92
442.495	19.99
442.699	19.81
442.904	19.71
443.108	19.6
443.312	19.35
443.517	19.41
443.721	19.46
443.925	19.33
444.13	19.48
444.334	19.59
444.538	19.63
444.743	19.75
444.947	19.99
445.151	19.87
445.356	19.83
445.56	19.95
445.764	19.97
445.968	20.02
446.173	20.07
446.377	20.09
446.581	20.08
446.785	20.08
446.989	20.04
447.193	20.07
447.398	20.14
447.602	20.1
447.806	20.1
448.01	19.95
448.214	19.91
448.418	19.98
448.622	19.97
448.826	20.05
449.03	20.14
449.234	20.07
449.438	19.95
449.642	20.12
449.846	20.14
450.05	20.08
450.254	20.16
450.458	20.1
450.662	20.03
450.866	20.01
451.069	19.78
451.273	19.58
451.477	19.48
451.681	19.45
451.885	19.12
452.089	19.27
452.292	19.48
452.496	19.4
452.7	19.57
452.904	19.48
453.107	19.54
453.311	19.52
453.515	19.55
453.719	19.72
453.922	19.67
454.126	19.76
454.33	19.82
454.533	19.75
454.737	19.86
454.94	19.55
455.144	19.63
455.348	19.67
455.551	19.75
455.755	19.65
455.958	19.35
456.162	19.36
456.365	19.3
456.569	19.11
456.772	18.93
456.976	19.03
457.179	19.34
457.383	19.42
457.586	19.23
457.79	19.06
457.993	19.09
458.196	19.19
458.4	19.17
458.603	19.23
458.807	19.39
459.01	19.56
459.213	19.35
459.417	19.31
459.62	19.28
459.823	19.38
460.026	19.6
460.23	19.67
460.433	19.61
460.636	19.7
460.839	19.72
461.042	19.76
461.246	19.6
461.449	19.75
461.652	19.61
461.855	19.62
462.058	19.65
462.261	19.56
462.464	19.69
462.668	19.91
462.871	19.8
463.074	19.96
463.277	19.63
463.48	19.75
463.683	19.7
463.886	19.99
464.089	19.92
464.292	19.7
464.495	19.56
464.698	19.59
464.901	19.5
465.104	19.68
465.306	19.64
465.509	19.79
465.712	19.81
465.915	19.83
466.118	19.79
466.321	19.87
466.524	20.11
466.726	20.36
466.929	20.28
467.132	20.3
467.335	20.21
467.538	20.23
467.74	20.3
467.943	20.42
468.146	20.47
468.348	20.39
468.551	20.55
468.754	20.5
468.956	20.25
469.159	20.18
469.362	20.18
469.564	20.04
469.767	19.72
469.969	19.48
470.172	19.31
470.375	19.34
470.577	19.31
470.78	19.31
470.982	19.27
471.185	19.47
471.387	19.57
471.59	19.53
471.792	19.82
471.995	20.11
472.197	20.3
472.399	20.33
472.602	20.16
472.804	20.04
473.007	19.88
473.209	19.89
473.411	19.85
473.614	19.88
473.816	20
474.018	19.91
474.22	19.84
474.423	19.88
474.625	19.91
474.827	20.18
475.03	20.27
475.232	20.22
475.434	20.22
475.636	20.25
475.838	20.07
476.04	20.07
476.243	20.1
476.445	20.04
476.647	20.09
476.849	20.11
477.051	19.94
477.253	19.84
477.455	19.93
477.657	20.05
477.859	20.11
478.061	19.98
478.263	19.9
478.465	19.82
478.667	19.87
478.869	19.86
479.071	19.79
479.273	19.81
479.475	19.93
479.677	19.74
479.879	19.6
480.081	19.47
480.283	19.6
480.485	19.48
480.686	19.39
480.888	19.39
481.09	19.24
481.292	19.27
481.494	19.27
481.695	19.33
481.897	19.55
482.099	19.64
482.301	19.68
482.502	19.74
482.704	19.89
482.906	20
483.107	20.01
483.309	20.02
483.511	20.02
483.712	20.03
483.914	20.03
484.115	20.02
484.317	20.01
484.519	20.02
484.72	20.02
484.922	20.07
485.123	20.04
485.325	20.05
485.526	20.07
485.728	20.1
485.929	20.14
486.131	20.14
486.332	20.13
486.534	20.14
486.735	20.2
486.936	20.27
487.138	20.17
487.339	20.1
487.541	20.15
487.742	20.12
487.943	20.05
488.144	19.99
488.346	19.98
488.547	19.96
488.748	19.94
488.95	19.88
489.151	19.84
489.352	19.84
489.553	19.94
489.755	19.9
489.956	20.05
490.157	20.08
490.358	20.25
490.559	20.28
490.76	20.36
490.961	20.33
491.163	20.37
491.364	20.33
491.565	20.33
491.766	20.33
491.967	20.25
492.168	20.13
492.369	20.14
492.57	19.97
492.771	19.91
492.972	19.87
493.173	19.92
493.374	19.88
493.575	19.93
493.776	19.95
493.976	19.84
494.177	19.79
494.378	19.84
494.579	20
494.78	20.29
494.981	20.23
495.182	20.28
495.382	20.4
495.583	20.36
495.784	20.25
495.985	20.36
496.185	20.55
496.386	20.67
496.587	20.76
496.788	20.66
496.988	20.44
497.189	20.38
497.39	20.27
497.59	20.12
497.791	20.38
497.992	20.41
498.192	20.31
498.393	20.28
498.593	20.29
498.794	20.09
498.994	20.09
499.195	20.26
499.395	20.54
499.596	20.64
499.796	20.76
499.997	20.49
500.197	20.47
500.398	20.63
500.598	20.69
500.799	20.62
500.999	20.83
501.199	20.84
501.4	20.88
501.6	20.78
501.801	20.89
502.001	20.72
502.201	20.85
502.402	20.85
502.602	20.64
502.802	20.69
503.002	20.91
503.203	20.82
503.403	20.89
503.603	20.76
503.803	20.88
504.003	20.87
504.204	21.05
504.404	20.99
504.604	20.99
504.804	21
505.004	20.83
505.204	20.6
505.404	20.91
505.604	21.01
505.804	21.12
506.005	21.03
506.205	20.99
506.405	20.9
506.605	20.95
506.805	20.97
507.005	21.02
507.204	21.13
507.404	21.32
507.604	21.19
507.804	21.11
508.004	21
508.204	20.93
508.404	20.85
508.604	20.93
508.804	20.92
509.003	21.06
509.203	21.22
509.403	21.25
509.603	21.23
509.803	21.17
510.002	21.14
510.202	21.26
510.402	21.43
510.602	21.47
510.801	21.43
511.001	21.49
511.201	21.52
511.4	21.51
511.6	21.7
511.8	21.72
511.999	21.71
512.199	21.86
512.398	21.85
512.598	21.97
512.797	22
512.997	22.01
513.197	22.11
513.396	22.06
513.596	22.09
513.795	21.91
513.994	22.01
514.194	22.07
514.393	22.09
514.593	22.17
514.792	22.04
514.992	22.09
515.191	22.2
515.39	22.09
515.59	22.18
515.789	22.12
515.988	22.4
516.188	22.43
516.387	22.5
516.586	22.43
516.786	22.37
516.985	22.3
517.184	22.44
517.383	22.46
517.582	22.62
517.782	22.5
517.981	22.37
518.18	22.11
518.379	22.16
518.578	22.14
518.777	22.24
518.976	22.39
519.176	22.48
519.375	22.44
519.574	22.46
519.773	22.45
519.972	22.51
520.171	22.62
520.37	22.71
520.569	22.57
520.768	22.5
520.967	22.36
521.166	22.16
521.365	22.26
521.564	22.32
521.762	22.41
521.961	22.15
522.16	22.12
522.359	22.14
522.558	22.12
522.757	22.3
522.956	22.56
523.154	22.58
523.353	22.63
523.552	22.64
523.751	22.69
523.949	22.59
524.148	22.78
524.347	22.9
524.546	22.95
524.744	23.18
524.943	23.18
525.142	23.14
525.34	23.29
525.539	23.4
525.737	23.43
525.936	23.44
526.135	23.4
526.333	23.48
526.532	23.58
526.73	23.68
526.929	23.6
527.127	23.62
527.326	23.66
527.524	23.64
527.723	23.66
527.921	23.6
528.12	23.59
528.318	23.69
528.516	23.69
528.715	23.69
528.913	23.67
529.112	23.67
529.31	23.7
529.508	23.68
529.707	23.66
529.905	23.59
530.103	23.61
530.301	23.57
530.5	23.52
530.698	23.51
530.896	23.47
531.094	23.45
531.293	23.46
531.491	23.51
531.689	23.59
531.887	23.62
532.085	23.74
532.283	23.78
532.481	23.79
532.68	23.89
532.878	23.93
533.076	23.98
533.274	23.96
533.472	23.88
533.67	23.84
533.868	23.79
534.066	23.78
534.264	23.8
534.462	23.9
534.66	23.95
534.858	23.93
535.056	23.89
535.253	23.83
535.451	23.83
535.649	23.98
535.847	23.82
536.045	23.76
536.243	23.82
536.441	23.76
536.638	23.63
536.836	23.64
537.034	23.62
537.232	23.6
537.43	23.56
537.627	23.78
537.825	23.72
538.023	23.84
538.22	24
538.418	24.04
538.616	24.12
538.813	24.13
539.011	24.19
539.209	24.32
539.406	24.32
539.604	24.61
539.801	24.48
539.999	24.51
540.196	24.67
540.394	24.7
540.591	24.64
540.789	24.64
540.986	24.71
541.184	24.72
541.381	24.67
541.579	24.72
541.776	24.6
541.974	24.62
542.171	24.64
542.368	24.5
542.566	24.46
542.763	24.51
542.96	24.5
543.158	24.6
543.355	24.53
543.552	24.56
543.75	24.45
543.947	24.4
544.144	24.46
544.341	24.45
544.539	24.56
544.736	24.68
544.933	24.72
545.13	24.81
545.327	24.79
545.524	24.94
545.722	24.96
545.919	25.18
546.116	25.3
546.313	25.23
546.51	25.28
546.707	25.29
546.904	25.31
547.101	25.18
547.298	25.21
547.495	25.1
547.692	25.05
547.889	25
548.086	24.95
548.283	24.81
548.48	24.93
548.677	24.92
548.874	24.9
549.07	24.76
549.267	24.92
549.464	24.72
549.661	24.76
549.858	24.75
550.055	24.92
550.251	24.99
550.448	25.06
550.645	24.95
550.842	24.96
551.038	25.2
551.235	25.23
551.432	25.19
551.628	25.49
551.825	25.46
552.022	25.55
552.218	25.36
552.415	25.19
552.612	25.31
552.808	25.37
553.005	25.38
553.201	25.29
553.398	25.44
553.594	25.54
553.791	25.45
553.987	25.45
554.184	25.52
554.38	25.68
554.577	25.78
554.773	25.91
554.97	25.89
555.166	25.79
555.362	25.71
555.559	25.68
555.755	25.62
555.952	25.65
556.148	25.86
556.344	25.94
556.541	25.99
556.737	26.07
556.933	26.13
557.129	26.21
557.326	26.3
557.522	26.37
557.718	26.22
557.914	26.33
558.11	26.13
558.307	26.18
558.503	26.14
558.699	26.05
558.895	25.94
559.091	25.77
559.287	25.83
559.483	25.89
559.679	25.85
559.876	26.23
560.072	26.11
560.268	26.36
560.464	26.12
560.66	26.21
560.856	26.32
561.052	26.32
561.247	26.47
561.443	26.12
561.639	26.1
561.835	26.2
562.031	25.9
562.227	26.06
562.423	26.16
562.619	26.37
562.815	26.29
563.01	26.06
563.206	26.18
563.402	26.12
563.598	26.48
563.793	26.62
563.989	26.62
564.185	26.58
564.381	26.35
564.576	26.49
564.772	26.45
564.968	26.46
565.163	26.85
565.359	26.89
565.555	26.96
565.75	26.79
565.946	26.81
566.141	26.88
566.337	27.16
566.532	27.42
566.728	27.31
566.923	27.36
567.119	27.33
567.314	27.12
567.51	27.03
567.705	27.12
567.901	27.21
568.096	27.17
568.292	27.28
568.487	27.12
568.682	27.06
568.878	26.85
569.073	26.81
569.268	26.91
569.464	26.98
569.659	26.94
569.854	26.67
570.05	26.42
570.245	26.46
570.44	26.22
570.635	26.38
570.831	26.42
571.026	26.57
571.221	26.69
571.416	26.68
571.611	26.71
571.806	26.93
572.002	27.14
572.197	27.43
572.392	27.51
572.587	27.69
572.782	27.64
572.977	27.59
573.172	27.64
573.367	27.53
573.562	27.56
573.757	27.4
573.952	27.27
574.147	27.39
574.342	27.4
574.537	27.37
574.732	27.32
574.927	27.4
575.121	27.6
575.316	27.78
575.511	27.76
575.706	27.8
575.901	27.97
576.096	28.06
576.29	28.1
576.485	28.12
576.68	28.04
576.875	27.96
577.069	27.57
577.264	27.45
577.459	27.14
577.654	27.26
577.848	27.18
578.043	27.14
578.238	27.07
578.432	26.85
578.627	27.03
578.821	27.18
579.016	27.32
579.21	27.62
579.405	27.63
579.6	27.86
579.794	27.85
579.989	27.75
580.183	28.04
580.378	28.05
580.572	28.09
580.766	27.97
580.961	28.01
581.155	27.98
581.35	27.93
581.544	27.78
581.738	27.74
581.933	27.75
582.127	27.97
582.321	27.56
582.516	27.57
582.71	27.69
582.904	27.71
583.099	27.74
583.293	27.77
583.487	27.77
583.681	27.93
583.875	27.88
584.07	27.86
584.264	27.77
584.458	28.1
584.652	28.23
584.846	28.13
585.04	27.98
585.234	27.96
585.428	28.08
585.623	28.31
585.817	28.41
586.011	28.36
586.205	28.8
586.399	29.03
586.593	28.69
586.787	28.6
586.981	28.63
587.174	28.79
587.368	28.5
587.562	28.49
587.756	28.58
587.95	28.53
588.144	28.73
588.338	28.23
588.532	27.93
588.725	28.1
588.919	28.25
589.113	28.18
589.307	28.08
589.501	28.21
589.694	28.08
589.888	27.71
590.082	27.62
590.275	27.48
590.469	27.87
590.663	27.96
590.856	27.88
591.05	27.77
591.244	27.89
591.437	27.84
591.631	27.86
591.824	27.86
592.018	28.17
592.212	28.09
592.405	28.06
592.599	27.66
592.792	27.69
592.986	27.62
593.179	27.9
593.372	27.86
593.566	27.81
593.759	27.98
593.953	28.06
594.146	28.1
594.339	27.96
594.533	27.75
594.726	27.84
594.92	27.95
595.113	28.21
595.306	28.06
595.499	27.75
595.693	27.98
595.886	27.99
596.079	27.87
596.272	28.01
596.466	28.24
596.659	28.38
596.852	28.45
597.045	28.32
597.238	28.28
597.431	28.14
597.624	28.55
597.818	28.55
598.011	28.37
598.204	28.34
598.397	28.03
598.59	28.23
598.783	28.67
598.976	28.71
599.169	28.74
599.362	28.47
599.555	28.6
599.748	28.47
599.941	28.29
600.134	28.35
600.326	28.49
600.519	28.71
600.712	28.56
600.905	28.26
601.098	28.22
601.291	28.48
601.483	28.85
601.676	28.7
601.869	28.77
602.062	28.79
602.255	28.83
602.447	28.76
602.64	28.36
602.833	28.33
603.025	28.52
603.218	28.41
603.411	28.32
603.603	28.18
603.796	28.24
603.989	28.07
604.181	28.25
604.374	28.26
604.566	28.26
604.759	28.7
604.951	28.7
605.144	28.43
605.336	28.5
605.529	28.29
605.721	28.37
605.914	28.34
606.106	28.52
606.299	28.39
606.491	28.28
606.683	28.42
606.876	28.35
607.068	28.28
607.26	28.49
607.453	28.6
607.645	28.88
607.837	28.93
608.03	28.97
608.222	28.86
608.414	28.95
608.606	29.38
608.799	29.35
608.991	29.15
609.183	29.12
609.375	28.96
609.567	28.78
609.759	28.69
609.952	28.67
610.144	28.72
610.336	28.73
610.528	28.8
610.72	28.43
610.912	28.41
611.104	28.4
611.296	28.52
611.488	28.61
611.68	28.81
611.872	28.9
612.064	28.87
612.256	29.06
612.448	29.27
612.64	29.09
612.832	29.39
613.023	29.52
613.215	29.61
613.407	29.71
613.599	29.61
613.791	29.53
613.983	29.52
614.174	29.64
614.366	29.64
614.558	29.4
614.75	29.61
614.941	29.61
615.133	29.2
615.325	28.97
615.516	28.85
615.708	28.8
615.9	28.51
616.091	28.28
616.283	28.04
616.475	28.08
616.666	27.96
616.858	27.98
617.049	27.86
617.241	28.33
617.432	28.79
617.624	28.69
617.815	28.87
618.007	29.04
618.198	29.22
618.39	29.83
618.581	29.68
618.773	29.83
618.964	29.91
619.155	29.74
619.347	29.56
619.538	29.24
619.729	29.28
619.921	29.22
620.112	29
620.303	29.1
620.494	28.48
620.686	28.43
620.877	28.66
621.068	28.35
621.259	28.22
621.451	28.43
621.642	28.61
621.833	28.56
622.024	28.42
622.215	28.6
622.406	28.75
622.597	28.88
622.788	28.79
622.98	28.59
623.171	28.86
623.362	29.21
623.553	28.95
623.744	28.83
623.935	29.04
624.126	29.05
624.317	29.39
624.508	29.31
624.698	29.52
624.889	29.61
625.08	29.54
625.271	29.36
625.462	29.28
625.653	29.12
625.844	29.1
626.034	28.9
626.225	29.25
626.416	28.9
626.607	28.76
626.798	28.86
626.988	29.01
627.179	29.03
627.37	29
627.56	29.05
627.751	29.33
627.942	29.04
628.132	29.13
628.323	29.2
628.514	29.28
628.704	29.08
628.895	28.84
629.085	28.68
629.276	28.65
629.466	28.71
629.657	28.57
629.847	28.53
630.038	28.76
630.228	28.83
630.419	28.53
630.609	28.77
630.8	29.14
630.99	29.14
631.181	29.25
631.371	29.2
631.561	28.95
631.752	28.98
631.942	29.16
632.132	29.15
632.323	29.27
632.513	29.21
632.703	29.12
632.893	29.13
633.084	29.11
633.274	28.91
633.464	28.96
633.654	29.33
633.844	29.3
634.034	29.37
634.225	29.43
634.415	29.26
634.605	29.21
634.795	29.09
634.985	28.73
635.175	28.76
635.365	28.84
635.555	28.66
635.745	28.7
635.935	28.7
636.125	28.1
636.315	28.2
636.505	28.18
636.695	28.39
636.885	28.75
637.075	29.02
637.265	29.07
637.455	29.01
637.644	29.38
637.834	28.89
638.024	28.91
638.214	29.09
638.404	29.26
638.593	29.43
638.783	29.42
638.973	29.4
639.163	29.19
639.352	29.25
639.542	29.22
639.732	28.98
639.921	29.38
640.111	29.67
640.301	29.78
640.49	29.86
640.68	29.67
640.87	29.78
641.059	29.44
641.249	29.68
641.438	29.74
641.628	29.93
641.817	30.18
642.007	30.49
642.196	30.4
642.386	30.49
642.575	30.42
642.764	30.51
642.954	30.17
643.143	30.21
643.333	30.14
643.522	30.19
643.711	30.27
643.901	30.54
644.09	29.98
644.279	29.97
644.469	30.19
644.658	30.03
644.847	29.88
645.036	30.15
645.226	30.2
645.415	30.44
645.604	30.2
645.793	30.08
645.982	29.66
646.171	30.09
646.361	30.1
646.55	29.71
646.739	29.72
646.928	29.82
647.117	30.04
647.306	29.8
647.495	29.52
647.684	30.02
647.873	29.8
648.062	29.67
648.251	29.21
648.44	28.93
648.629	28.86
648.818	28.64
649.007	28.62
649.196	28.05
649.384	27.81
649.573	28.29
649.762	27.5
649.951	27.7
650.14	27.68
650.328	27.76
650.517	27.92
650.706	28.48
650.895	28.7
651.083	28.92
651.272	28.73
651.461	29
651.65	28.68
651.838	29.1
652.027	29.18
652.216	29.51
652.404	29.49
652.593	29.1
652.781	28.97
652.97	28.64
653.158	28.44
653.347	28.07
653.535	28.27
653.724	28.27
653.912	28.14
654.101	27.96
654.289	28.03
654.478	27.94
654.666	28.24
654.855	27.65
655.043	27.72
655.231	27.54
655.42	28.24
655.608	28.2
655.796	28.05
655.985	27.74
656.173	28.07
656.361	27.42
656.55	27.87
656.738	28.23
656.926	28.72
657.114	28.55
657.302	28.7
657.491	28.98
657.679	28.92
657.867	28.79
658.055	29.08
658.243	28.76
658.431	29.19
658.619	29.06
658.807	28.87
658.996	28.95
659.184	29.37
659.372	29.41
659.56	29.14
659.748	29.26
659.936	29.83
660.124	29.6
660.311	29.58
660.499	29.66
660.687	29.36
660.875	29.67
661.063	29.32
661.251	29.19
661.439	29.33
661.627	29.34
661.814	29.49
662.002	29.11
662.19	29.24
662.378	29.18
662.565	28.89
662.753	29.15
662.941	28.57
663.129	28.95
663.316	29.26
663.504	29
663.692	29.18
663.879	29.01
664.067	29.08
664.254	29.19
664.442	29.27
664.63	29.31
664.817	29.26
665.005	29.08
665.192	29.1
665.38	28.62
665.567	28.89
665.755	28.94
665.942	28.58
666.13	28.36
666.317	29.26
666.504	29.31
666.692	29.36
666.879	29.62
667.067	30.35
667.254	29.97
667.441	30.17
667.629	29.94
667.816	29.8
668.003	30.19
668.19	30.54
668.378	29.32
668.565	29.38
668.752	29.35
668.939	29.32
669.127	29.02
669.314	29.39
669.501	29.21
669.688	29.36
669.875	29.4
670.062	29.34
670.249	28.84
670.436	29.19
670.623	29.16
670.81	29.26
670.997	29.11
671.184	29.41
671.371	29.03
671.558	29.41
671.745	29.12
671.932	29.08
672.119	29.43
672.306	29.5
672.493	29.4
672.68	28.86
672.867	28.68
673.054	29.01
673.24	28.53
673.427	28.64
673.614	28.31
673.801	28.51
673.988	28.37
674.174	27.84
674.361	28.3
674.548	28.92
674.734	29.39
674.921	30.42
675.108	30.27
675.294	30.52
675.481	30.72
675.668	30.43
675.854	30.22
676.041	31.08
676.227	30.73
676.414	30.43
676.601	29.35
676.787	28.99
676.974	28.33
677.16	28.33
677.347	28.41
677.533	28.14
677.719	28.5
677.906	28.27
678.092	27.42
678.279	27.67
678.465	27.82
678.651	28.42
678.838	28.91
679.024	28.85
679.21	28.62
679.397	28.5
679.583	28.85
679.769	29.32
679.955	29.25
680.142	29.25
680.328	29.4
680.514	29.16
680.7	28.85
680.886	28.89
681.073	28.69
681.259	28.64
681.445	28.59
681.631	28.15
681.817	27.52
682.003	28.08
682.189	28.11
682.375	27.81
682.561	28.1
682.747	28.33
682.933	28.21
683.119	28.06
683.305	28.42
683.491	28.42
683.677	28.68
683.863	29.05
684.049	29.34
684.235	29.61
684.42	30.17
684.606	30.06
684.792	30.39
684.978	30.62
685.164	30.89
685.349	30.83
685.535	30.67
685.721	30.51
685.907	30.07
686.092	29.49
686.278	29.38
686.464	29.07
686.649	28.77
686.835	28.31
687.021	27.99
687.206	28.27
687.392	28.54
687.577	28.59
687.763	28.56
687.948	28.75
688.134	28.77
688.319	29.26
688.505	29.37
688.69	29.34
688.876	29.12
689.061	29.55
689.247	29.33
689.432	29.18
689.618	29.54
689.803	30.25
689.988	30.09
690.174	30.33
690.359	29.45
690.544	29.16
690.73	29.33
690.915	29.27
691.1	28.75
691.285	28.79
691.471	28.93
691.656	28.65
691.841	27.88
692.026	28.42
692.211	28.59
692.396	29.36
692.582	29.57
692.767	29.78
692.952	29.67
693.137	29.81
693.322	29.3
693.507	29.3
693.692	29.06
693.877	29.02
694.062	28.61
694.247	28.81
694.432	28.05
694.617	27.86
694.802	27.69
694.987	28.76
695.172	28.31
695.357	29.06
695.541	29.06
695.726	29.21
695.911	29.55
696.096	29.35
696.281	29.07
696.466	29.78
696.65	29.62
696.835	29.75
697.02	28.88
697.204	29.61
697.389	28.93
697.574	28.92
697.759	29.49
697.943	29.67
698.128	30.27
698.312	29.75
698.497	29.52
698.682	29.19
698.866	28.79
699.051	29.43
699.235	28.94
699.42	29.28
699.604	28.84
699.789	28.32
699.973	28.11
700.158	27.69
700.342	27.86
700.527	27.46
700.711	27.95
700.895	28.48
701.08	28.46
701.264	28.86
701.448	29.15
701.633	29.38
701.817	29.88
702.001	29.91
702.186	30.66
702.37	31.21
702.554	31.06
702.738	31.32
702.923	31.59
703.107	31.41
703.291	31.39
703.475	31.24
703.659	31.46
703.843	31.22
704.027	30.66
704.212	29.54
704.396	29.17
704.58	29.47
704.764	30.12
704.948	29.82
705.132	29.5
705.316	29.71
705.5	29.06
705.684	28.82
705.868	28.56
706.052	29.63
706.235	30.21
706.419	29.93
706.603	30.64
706.787	29.46
706.971	29.44
707.155	29.31
707.339	29.23
707.522	30.31
707.706	30.36
707.89	30.62
708.074	29.83
708.257	29.84
708.441	29.68
708.625	29.51
708.808	29.52
708.992	29.17
709.176	29.33
709.359	28.98
709.543	28.36
709.727	28.25
709.91	27.4
710.094	28.28
710.277	28.38
710.461	28.65
710.644	28.29
710.828	28.36
711.011	28.93
711.195	28.76
711.378	29.48
711.562	29.41
711.745	28.82
711.928	29.24
712.112	28.21
712.295	27.89
712.478	27.43
712.662	27.84
712.845	27.53
713.028	26.67
713.212	27.66
713.395	27.73
713.578	27.86
713.761	28.91
713.945	29.7
714.128	30.53
714.311	30.06
714.494	30.39
714.677	29.83
714.86	31.13
715.043	31.62
715.227	30.57
715.41	30.26
715.593	30.31
715.776	29.32
715.959	28.31
716.142	27.61
716.325	28.44
716.508	28.97
716.691	29.12
716.874	28.74
717.057	28.54
717.239	28.86
717.422	28.35
717.605	28.24
717.788	29.21
717.971	30.01
718.154	30.75
718.337	31.01
718.519	30.62
718.702	30.9
718.885	30.42
719.068	29.57
719.25	29.35
719.433	30.43
719.616	30.26
719.798	30.1
719.981	30.5
720.164	29.63
720.346	29.38
720.529	29.27
720.712	29.09
720.894	29.41
721.077	30.39
721.259	30.33
721.442	29.17
721.624	29.14
721.807	29.12
721.989	27.96
722.172	28.04
722.354	26.89
722.537	26.5
722.719	26.92
722.901	26.72
723.084	27.05
723.266	27.54
723.448	27.91
723.631	28.83
723.813	28.66
723.995	29.17
724.178	28.59
724.36	28.27
724.542	27.74
724.724	27.53
724.907	26.87
725.089	26.67
725.271	26.63
725.453	26.12
725.635	24.74
725.817	23.74
725.999	23
726.181	24.33
726.364	24.17
726.546	24.57
726.728	23.34
726.91	23.95
727.092	24.49
727.274	24.49
727.456	24.97
727.638	25.25
727.819	25.66
728.001	26.04
728.183	25.56
728.365	27.16
728.547	27.58
728.729	28.15
728.911	28.26
729.093	27.85
729.274	28.64
729.456	28.43
729.638	28.71
729.82	28.33
730.001	28.6
730.183	28.52
730.365	27.39
730.546	27.51
730.728	27.23
730.91	27.13
731.091	26.56
731.273	25.87
731.455	26.29
731.636	26.23
731.818	27.4
731.999	28.32
732.181	28.71
732.362	29.48
732.544	29.52
732.725	30.81
732.907	31.01
733.088	31.47
733.27	30.86
733.451	30.63
733.633	31.35
733.814	31.44
733.995	30.34
734.177	30.16
734.358	29.72
734.539	30.03
734.721	29.86
734.902	30.27
735.083	31.24
735.264	32.17
735.446	31.47
735.627	30.78
735.808	29.8
735.989	29.93
736.17	30.65
736.351	30.81
736.533	30.11
736.714	29.82
736.895	29.01
737.076	28.07
737.257	28.46
737.438	29.34
737.619	29.37
737.8	30.89
737.981	30.43
738.162	31.03
738.343	31.12
738.524	31.64
738.705	31.02
738.886	31.28
739.067	30.29
739.247	30.31
739.428	30.51
739.609	30.14
739.79	30.4
739.971	30.68
740.151	29.13
740.332	29.67
740.513	29.71
740.694	30.52
740.874	30.88
741.055	32.8
741.236	31.29
741.417	30.91
741.597	31.56
741.778	31.86
741.958	31.7
742.139	32.07
742.32	31.16
742.5	30.21
742.681	29.62
742.861	29.75
743.042	28.39
743.222	29.52
743.403	29.34
743.583	30.68
743.764	27.78
743.944	27.89
744.124	29.04
744.305	30.54
744.485	29.73
744.666	28.91
744.846	29.2
745.026	30.61
745.207	29.7
745.387	29.65
745.567	28.29
745.747	28.94
745.928	29.88
746.108	28.82
746.288	27.38
746.468	29.01
746.648	29.75
746.829	29.19
747.009	27.76
747.189	28.06
747.369	28.21
747.549	28.4
747.729	29.69
747.909	29.31
748.089	30.03
748.269	31.08
748.449	31.41
748.629	32.33
748.809	32.4
748.989	33.05
749.169	32.75
749.349	32.56
749.529	31.72
749.709	31.36
749.889	31.18
750.068	30.67
750.248	29.91
750.428	29.14
750.608	28.06
750.788	27.12
750.967	27.87
751.147	28.43
751.327	28.99
751.507	29.2
751.686	29.81
751.866	29.54
752.046	28.87
752.225	29.72
752.405	29.33
752.585	30.28
752.764	31.17
752.944	30.02
753.123	30.25
753.303	28.76
753.482	29.09
753.662	28.6
753.841	29.36
754.021	29.69
754.2	26.74
754.38	26.66
754.559	26.18
754.739	25.47
754.918	24.89
755.097	25.83
755.277	28.13
755.456	29.03
755.635	27.15
755.815	27.58
755.994	28.5
756.173	30.45
756.352	31.06
756.532	31.3
756.711	31.92
756.89	32.88
757.069	33.89
757.248	32.93
757.427	31.62
757.607	32.33
757.786	32.29
757.965	32.2
758.144	32.87
758.323	32.33
758.502	31.99
758.681	31.79
758.86	31.18
759.039	28.57
759.218	28.84
759.397	29.01
759.576	30.98
759.755	29.68
759.934	29.05
760.113	28.68
760.291	29.69
760.47	30.15
760.649	29.75
760.828	28.37
761.007	28.55
761.186	29.22
761.364	28.98
761.543	28.7
761.722	28.17
761.901	27.33
762.079	26.34
762.258	25.93
762.437	25.54
762.615	26.64
762.794	28.12
762.972	28.46
763.151	28.31
763.33	28.34
763.508	28.1
763.687	28.62
763.865	29.21
764.044	29.5
764.222	29.91
764.401	29.21
764.579	28.34
764.758	28.11
764.936	27.31
765.114	26.12
765.293	26.81
765.471	26.56
765.65	27.35
765.828	27.08
766.006	26.9
766.184	26.82
766.363	28.41
766.541	28.93
766.719	28.51
766.898	29.44
767.076	29.21
767.254	29.11
767.432	29.37
767.61	28.23
767.788	29.56
767.967	30.57
768.145	30.43
768.323	31.25
768.501	30.96
768.679	32.47
768.857	31.42
769.035	33.58
769.213	33.46
769.391	32.68
769.569	35.17
769.747	34.58
769.925	34.63
770.103	35.33
770.281	32.73
770.459	32.85
770.636	32.15
770.814	33.21
770.992	32.22
771.17	32.11
771.348	31.9
771.525	28.07
771.703	30.26
771.881	32.13
772.059	30.65
772.236	31.04
772.414	30.72
772.592	31.04
772.769	29.23
772.947	28.85
773.125	28.17
773.302	28.66
773.48	31.54
773.657	27.56
773.835	24.51
774.013	25.51
774.19	27.12
774.368	26.94
774.545	28.03
774.723	30.33
774.9	30.37
775.077	28.84
775.255	29.87
775.432	30.41
775.61	31.07
775.787	30.67
775.964	30.14
776.142	29.32
776.319	31.21
776.496	28.64
776.674	28.38
776.851	29.33
777.028	30.11
777.205	29.16
777.382	27.98
777.56	27.81
777.737	30.23
777.914	28.24
778.091	29.24
778.268	28.84
778.445	29.77
778.622	29.22
778.8	29.53
778.977	31.48
779.154	33.4
779.331	33.6
779.508	34.11
779.685	32.07
779.862	33.26
780.038	33.37
780.215	34.04
780.392	33.83
780.569	34.35
780.746	35.08
780.923	33.71
781.1	31.85
781.277	30.39
781.453	29.92
781.63	29.82
781.807	28.42
781.984	25.88
782.16	23.29
782.337	23.8
782.514	24.98
782.691	24.75
782.867	23.5
783.044	24.97
783.221	25.97
783.397	25.71
783.574	26.28
783.75	29.5
783.927	30.97
784.103	33.75
784.28	35.11
784.456	33.75
784.633	32.61
784.809	35.93
784.986	32.08
785.162	32.34
785.339	31.19
785.515	32.83
785.692	30.19
785.868	29.75
786.044	31
786.221	29.68
786.397	29.13
786.573	30.16
786.749	28.56
786.926	30.45
787.102	29.55
787.278	29.69
787.454	29.1
787.631	31.36
787.807	30.62
787.983	27.26
788.159	28.58
788.335	28.69
788.511	26.82
788.687	27.88
788.863	27.19
789.039	26.2
789.216	26.11
789.392	25.52
789.568	24.67
789.744	25.86
789.919	24.46
790.095	21.44
790.271	21.72
790.447	23.61
790.623	20.88
790.799	20.56
790.975	22.99
791.151	26.98
791.327	27.23
791.502	26.78
791.678	25.27
791.854	27.43
792.03	30.46
792.205	32.27
792.381	31.84
792.557	35.8
792.733	35.25
792.908	35.7
793.084	34.8
793.259	34.8
793.435	34.16
793.611	38.03
793.786	37.44
793.962	33
794.137	34.18
794.313	31.09
794.488	25.93
794.664	24.79
794.839	22.48
795.015	19.34
795.19	22.41
795.366	23.54
795.541	23.25
795.716	27.05
795.892	28.43
796.067	26.96
796.242	28.63
796.418	33.53
796.593	32.19
796.768	30.77
796.944	30.7
797.119	27.72
797.294	25.49
797.469	23.46
797.644	21.27
797.82	20.12
797.995	22.09
798.17	22.65
798.345	21.38
798.52	24.29
798.695	26.14
798.87	25.21
799.045	27.88
799.22	28.94
799.395	28.66
799.57	27.77
799.745	29.16
799.92	26.22
800.095	27.71
800.27	27.03
800.445	28.17
800.62	31.45
800.795	34.92
800.97	33.24
801.145	34.86
801.319	36.96
801.494	36.13
801.669	35.39
801.844	31.54
802.018	28.61
802.193	27.72
802.368	28.76
802.543	27.09
802.717	27.17
802.892	25.7
803.067	26.91
803.241	25.89
803.416	26.07
803.59	27.66
803.765	29.75
803.94	29.64
804.114	30.79
804.289	28.76
804.463	26.14
804.638	23.47
804.812	25.35
804.986	23.44
805.161	19.51
805.335	24.19
805.51	24.65
805.684	26.73
805.858	26.62
806.033	25.58
806.207	26.17
806.381	27.3
806.556	28.72
806.73	30.18
806.904	30.78
807.078	29.75
807.253	25.68
807.427	24.33
807.601	24.56
807.775	25.59
807.949	25.14
808.123	25.17
808.298	26.26
808.472	24.88
808.646	24.36
808.82	22.61
808.994	27.05
809.168	28
809.342	28.18
809.516	29.16
809.69	32.72
809.864	33.42
810.038	29.65
810.212	28.13
810.385	30.15
810.559	27.8
810.733	26.97
810.907	27.39
811.081	30.86
811.255	28.54
811.428	29.55
811.602	28.23
811.776	29.52
811.95	36.08
812.123	36.57
812.297	35.25
812.471	33.65
812.644	34.92
812.818	34.47
812.992	33.92
813.165	35.32
813.339	33.03
813.512	32.85
813.686	32.15
813.86	31.19
814.033	30.82
814.207	27.97
814.38	30.32
814.554	30.05
814.727	29.01
814.9	28.26
815.074	33.87
815.247	37.27
815.421	36.17
815.594	32.88
815.767	32.6
815.941	30.55
816.114	33.82
816.287	32.18
816.46	30.09
816.634	29.37
816.807	24.81
816.98	20.75
817.153	15.15
817.327	13.27
817.5	14.49
817.673	14.42
817.846	13.46
818.019	12.62
818.192	13.48
818.365	18.51
818.538	21.32
818.711	19.8
818.884	20.98
819.057	21.88
819.23	19.49
819.403	23.27
819.576	23.52
819.749	26.9
819.922	28.43
820.095	28.08
820.268	27.18
820.441	24.57
820.614	26.66
820.786	29.16
820.959	33.11
821.132	34.06
821.305	32.57
821.477	31.61
821.65	30.57
821.823	29.45
821.996	30.02
822.168	31.1
822.341	30.58
822.514	31.68
822.686	30.87
822.859	29.52
823.031	29.06
823.204	29.39
823.376	29.06
823.549	29.11
823.722	29.83
823.894	29.55
824.067	28.08
824.239	28.63
824.411	27.25
824.584	26.85
824.756	27.33
824.929	27.46
825.101	26.98
825.273	26.91
825.446	28.41
825.618	28.08
825.79	28.66
825.963	30.08
826.135	30.5
826.307	30.77
826.479	31.67
826.652	30.58
826.824	30.61
826.996	31.56
827.168	32.67
827.34	32.31
827.512	32.49
827.684	32.11
827.856	31.54
828.029	31.51
828.201	30.71
828.373	31.36
828.545	31.85
828.717	32.72
828.889	33.59
829.061	32.66
829.232	31.48
829.404	32.09
829.576	33.25
829.748	32.43
829.92	30.9
830.092	35.02
830.264	33.82
830.436	34.68
830.607	35.67
830.779	31.33
830.951	30.3
831.123	30.71
831.294	27.87
831.466	26.51
831.638	27.06
831.809	28.55
831.981	23.87
832.153	21.73
832.324	21.27
832.496	19.54
832.667	21.99
832.839	21.15
833.011	25.15
833.182	26.62
833.354	29.8
833.525	31.24
833.697	30.47
833.868	31.84
834.039	31.44
834.211	30.98
834.382	29.91
834.554	30.22
834.725	31.83
834.896	29.93
835.068	29.75
835.239	26.1
835.41	24.92
835.581	24.86
835.753	25.47
835.924	26.97
836.095	26.63
836.266	25.54
836.438	22.84
836.609	21.28
836.78	17.89
836.951	17
837.122	18.47
837.293	20.84
837.464	22.73
837.635	21.56
837.806	24.75
837.977	26.25
838.148	29.46
838.319	32.76
838.49	30.9
838.661	35.66
838.832	34.96
839.003	33.16
839.174	31.9
839.345	24.5
839.516	23.11
839.687	18.23
839.857	18.62
840.028	14.61
840.199	16.1
840.37	24.76
840.54	25.19
840.711	26.05
840.882	27.66
841.053	27.79
841.223	33.44
841.394	34.85
841.564	30.72
841.735	26.51
841.906	30.97
842.076	29.3
842.247	26.99
842.417	22.42
842.588	23.14
842.758	28.86
842.929	22.1
843.099	24.59
843.27	20.79
843.44	22.62
843.611	27.08
843.781	28.12
843.951	20.46
844.122	19.22
844.292	24.33
844.462	22.25
844.633	25.32
844.803	26.44
844.973	14.61
845.144	32.14
845.314	40.98
845.484	36.79
845.654	36.25
845.824	49.8
845.995	46.16
846.165	43.6
846.335	43.58
846.505	35.28
846.675	50.96
846.845	56.06
847.015	43.46
847.185	45.31
847.355	44.36
847.525	39.28
847.695	40.96
847.865	49.89
848.035	58.15
848.205	58.68
848.375	51.5
848.545	39.75
848.715	44.42
848.884	53.66
849.054	59.02
849.224	59.94
849.394	64.73
849.564	51.64
849.733	34.25
849.903	18.21
850.073	19.28
850.243	17.2
850.412	-2.22
850.582	2.21
850.752	-10.88
850.921	-23.4
851.091	-5.49
851.26	-7.56
851.43	-4.15
851.599	1.71
851.769	22.86
851.939	36.24
852.108	37.19
852.278	43.87
852.447	42.61
852.616	39.87
852.786	38.03
852.955	35.06
853.125	34.52
853.294	40.12
853.463	31.86
853.633	27.51
853.802	17.02
853.971	6.08
854.141	19.76
854.31	27.69
854.479	25.7
854.648	24.01
854.818	1.34
854.987	21.45
855.156	29.01
855.325	29.74
855.494	27.84
855.663	46.04
855.832	68.53
856.001	42.35
856.171	45.11
856.34	47.59
856.509	42.25
856.678	48.08
856.847	45.66
857.016	42.86
857.185	45.79
857.353	46.3
857.522	38.35
857.691	17.28
857.86	39.94
858.029	30.65
858.198	39.64
858.367	78.27
858.535	81.59
858.704	62.42
858.873	64.48
859.042	78.28
859.21	71.83
859.379	67.45
859.548	70.33
859.717	56.64
859.885	49.11
860.054	25.94
860.222	8.97
860.391	15.53
860.56	48.7
860.728	36.3
860.897	44.67
861.065	33.22
861.234	28.28
861.402	28.28
861.571	28.97
861.739	41.7
861.908	51.35
862.076	34.79
862.244	28.81
862.413	23.04
862.581	17.62
862.749	-12.87
862.918	-2.13
863.086	-1.46
863.254	5.44
863.423	0.79
863.591	-7.2
863.759	-35.97
863.927	-12.17
864.096	-26.34
864.264	-68.79
864.432	-78.36
864.6	-129.46
864.768	-83.04
864.936	-98.92
865.104	-45.79
865.272	-81.09
865.44	-53.54
865.608	16.87
865.776	9.05
865.944	10.53
866.112	39.21
866.28	36.87
866.448	44.74
866.616	32
866.784	30.72
866.952	20.32
867.12	59.04
867.288	70.55
867.455	51.16
867.623	51.84
867.791	58.79
867.959	44.37
868.127	30.78
868.294	26.7
868.462	21.37
868.63	36.56
868.797	43.42
868.965	2.38
869.133	-11.76
869.3	2.98
869.468	0.3
869.636	-1.35
869.803	5.65
869.971	16.43
870.138	-4.38
870.306	5.79
870.473	-5.09
870.641	7.01
870.808	16.16
870.975	18.67
871.143	8.15
871.31	-53.98
871.478	-5.89
871.645	11.87
871.812	18.63
871.98	62.6
872.147	49.23
872.314	37.64
872.482	20.88
872.649	22.63
872.816	23.84
872.983	28.52
873.15	50.02
873.318	29.72
873.485	3.46
873.652	6.95
873.819	18.71
873.986	34.8
874.153	32.94
874.32	18.89
874.487	45.8
874.654	46
874.821	43.42
874.988	49.93
875.155	45.48
875.322	56.23
875.489	54.28
875.656	34.82
875.823	32.64
875.99	28.5
876.157	30.35
876.324	24
876.49	18.59
876.657	22.03
876.824	11.84
876.991	13.54
877.157	7.64
877.324	-6.33
877.491	-7.3
877.658	-10.76
877.824	-0.4
877.991	5.88
878.157	-11.84
878.324	-32.87
878.491	-51.69
878.657	-10.96
878.824	5.66
878.99	13.23
879.157	30.38
879.323	22.73
879.49	23.05
879.656	20.76
879.823	20.61
879.989	41.07
880.156	42.16
880.322	50.42
880.488	41.5
880.655	30.98
880.821	16.51
880.987	15.78
881.154	18.82
881.32	-3.97
881.486	12.61
881.652	19.65
881.819	16.86
881.985	26.12
882.151	27.15
882.317	28.49
882.483	31.5
882.649	31.9
882.816	30.43
882.982	31.88
883.148	35.54
883.314	34.9
883.48	33.43
883.646	31.95
883.812	30.23
883.978	28.11
884.144	25.43
884.31	23.88
884.476	23.98
884.642	24.42
884.807	22.35
884.973	20.5
885.139	19.5
885.305	19.65
885.471	18.56
885.637	18.8
885.802	18.58
885.968	23.93
886.134	24.41
886.3	21.87
886.465	19.64
886.631	22.14
886.797	27.41
886.962	29.1
887.128	30.85
887.293	34.53
887.459	31.15
887.625	39.03
887.79	43.38
887.956	45.72
888.121	53.59
888.287	56.36
888.452	59.26
888.618	57.06
888.783	53.93
