Data from 2937894_Reflection_2.txt Node
Date: Wed Jul 15 13:57:01 EDT 2015
User: robert
Spectrometer: USB4E03001
Autoset integration time: false
Trigger mode: 4
Integration Time (sec): 1.000000E-1
Scans to average: 10
Electric dark correction enabled: true
Nonlinearity correction enabled: false
Boxcar width: 5
Stray light correction enabled: false
XAxis mode: Wavelengths
Stop averaging: false
Number of Pixels in Spectrum: 3648
>>>>>Begin Spectral Data<<<<<
177.566	-76.22
177.785	-182.09
178.005	139.19
178.225	3.88
178.445	65.36
178.665	142.55
178.885	37.97
179.105	35.01
179.324	55.67
179.544	54.16
179.764	25.75
179.984	9.42
180.204	14.13
180.423	87.68
180.643	49.47
180.863	80.74
181.083	79.03
181.302	62.7
181.522	39.78
181.742	1331.13
181.961	248.81
182.181	326.49
182.401	82.89
182.621	68.25
182.84	114.29
183.06	142.7
183.279	118.42
183.499	172.3
183.719	119.62
183.938	244.21
184.158	181.74
184.377	162.48
184.597	162.59
184.816	91.19
185.036	93.44
185.256	124.18
185.475	110.99
185.695	88.44
185.914	150.71
186.134	91.14
186.353	-95.97
186.572	-123.35
186.792	-204.13
187.011	-135.58
187.231	-207.39
187.45	-713.52
187.67	-172.07
187.889	-243.76
188.108	-98.31
188.328	-101.05
188.547	-67.68
188.766	-64.68
188.986	-0.46
189.205	-28.84
189.424	-4.9
189.644	56.49
189.863	114.64
190.082	156.49
190.302	98.77
190.521	-94.62
190.74	-93.75
190.959	-33.14
191.178	-97.07
191.398	-0.71
191.617	-16.45
191.836	-48.32
192.055	-47.94
192.274	-14.24
192.494	7.9
192.713	-21.55
192.932	-18.99
193.151	-32.28
193.37	-36.68
193.589	-41.6
193.808	-47.37
194.027	-111.01
194.246	421.42
194.465	1455.97
194.685	493.14
194.904	126.01
195.123	150.4
195.342	96.09
195.561	98.23
195.78	63.32
195.999	1.36
196.218	38.51
196.436	103.02
196.655	-20522.22
196.874	247.26
197.093	427.76
197.312	-233.42
197.531	-181.58
197.75	-100.81
197.969	-896.67
198.188	-304.51
198.407	-123.31
198.625	-52.64
198.844	-3.98
199.063	-31.13
199.282	62.18
199.501	212.12
199.719	1435.6
199.938	226.1
200.157	626.94
200.376	481.51
200.594	1312
200.813	-249.72
201.032	-195.26
201.251	-154.05
201.469	1534.11
201.688	882.94
201.907	573.26
202.125	-453.08
202.344	-1153.02
202.563	-153.14
202.781	14.4
203	-238.94
203.218	-507.56
203.437	235.29
203.656	144.62
203.874	121.5
204.093	137.77
204.311	116.09
204.53	171.61
204.748	157.24
204.967	-300
205.185	276.21
205.404	369.4
205.622	-6.1
205.841	-39.33
206.059	61.5
206.278	709.71
206.496	175.79
206.715	171.76
206.933	168.3
207.151	523.54
207.37	617.65
207.588	-21.65
207.806	-91.28
208.025	-102.72
208.243	-152.4
208.461	-457.99
208.68	-123.61
208.898	38.88
209.116	43.49
209.335	6.9
209.553	30.88
209.771	36.91
209.989	34.12
210.208	45.53
210.426	54.48
210.644	72.34
210.862	67.36
211.081	87.12
211.299	145.64
211.517	137.6
211.735	161.08
211.953	134.4
212.171	125.58
212.39	133.42
212.608	145.13
212.826	165.66
213.044	106.87
213.262	121.33
213.48	119.44
213.698	80.18
213.916	93.28
214.134	80.54
214.352	104.83
214.57	142.57
214.788	152.82
215.006	145.57
215.224	80.52
215.442	76.7
215.66	40.86
215.878	71.61
216.096	133.05
216.314	108.48
216.532	-36.96
216.75	31.05
216.968	49.64
217.185	61.47
217.403	151.42
217.621	382.7
217.839	-96.37
218.057	-206.76
218.275	-134.96
218.492	214.32
218.71	41.02
218.928	-44.13
219.146	153.14
219.363	36.78
219.581	52.08
219.799	-77.9
220.017	-19.96
220.234	-0.03
220.452	4.81
220.67	-58.01
220.887	36.65
221.105	-71.62
221.323	-88.56
221.54	-38.44
221.758	56.33
221.976	56.88
222.193	-23.28
222.411	39.72
222.629	45.69
222.846	52.35
223.064	23.39
223.281	4.64
223.499	-16.53
223.716	-26.05
223.934	-45.95
224.151	-114.43
224.369	-232.31
224.586	-59.28
224.804	-226.72
225.021	-143.62
225.239	-148.4
225.456	-87.04
225.674	-62.12
225.891	-52.68
226.108	-11.96
226.326	11.35
226.543	12.75
226.76	33.52
226.978	19.13
227.195	31.31
227.413	13.35
227.63	13.66
227.847	16.86
228.064	12.22
228.282	13.82
228.499	15.67
228.716	17.02
228.934	20.14
229.151	18.05
229.368	18.69
229.585	18.33
229.802	22.57
230.02	24.41
230.237	24.28
230.454	25.32
230.671	25.64
230.888	25.98
231.105	24.8
231.323	24.22
231.54	20.92
231.757	27.13
231.974	25.75
232.191	26.3
232.408	20.75
232.625	19.95
232.842	26.24
233.059	31.43
233.276	22.83
233.493	20.85
233.71	27.4
233.927	31.77
234.144	28.29
234.361	25.02
234.578	30.74
234.795	30.23
235.012	23.52
235.229	21.34
235.446	21.73
235.663	24.75
235.879	26.31
236.096	24.53
236.313	16.87
236.53	18.69
236.747	22.21
236.964	20.44
237.181	24.94
237.397	26.74
237.614	26.56
237.831	23.32
238.048	27.15
238.264	32.28
238.481	28.87
238.698	33.25
238.915	25.07
239.131	20.38
239.348	23.19
239.565	25.33
239.781	25.18
239.998	26.93
240.215	27.67
240.431	23.39
240.648	21.54
240.865	25.05
241.081	25.16
241.298	26.86
241.514	27.96
241.731	23.54
241.947	21.87
242.164	20.9
242.38	21.4
242.597	19.66
242.814	20.03
243.03	20.7
243.246	18.66
243.463	16.02
243.679	16.36
243.896	17.15
244.112	17.55
244.329	16.69
244.545	17.13
244.762	15.2
244.978	18.65
245.194	17.58
245.411	13
245.627	12.86
245.843	16.7
246.06	15.61
246.276	14.24
246.492	14.3
246.709	14.07
246.925	15.81
247.141	17.42
247.357	15.82
247.574	16.34
247.79	17.12
248.006	17.62
248.222	16.51
248.439	16.21
248.655	15.7
248.871	15.53
249.087	15.71
249.303	14.34
249.519	11.95
249.736	11.1
249.952	8.91
250.168	7.2
250.384	7.77
250.6	6.22
250.816	7
251.032	8.61
251.248	10.71
251.464	12.89
251.68	13.1
251.896	13.98
252.112	13.83
252.328	15.03
252.544	16.59
252.76	14.28
252.976	14.91
253.192	14.24
253.408	15.32
253.624	16.74
253.84	16.2
254.056	15
254.272	13.95
254.487	18.21
254.703	15.17
254.919	15.08
255.135	15.21
255.351	17.07
255.567	15.13
255.782	10.92
255.998	8.45
256.214	5.13
256.43	1.71
256.646	1.22
256.861	-4.69
257.077	-5.4
257.293	-4.78
257.508	-4.29
257.724	-4.29
257.94	-4.28
258.155	0.37
258.371	2.98
258.587	7.62
258.802	11.22
259.018	12.37
259.234	14.76
259.449	15.58
259.665	15.13
259.88	15.57
260.096	15.25
260.312	14.53
260.527	13.55
260.743	12.81
260.958	10.76
261.174	9.6
261.389	8.39
261.605	6.78
261.82	6.54
262.036	7.93
262.251	7.85
262.466	7.66
262.682	9
262.897	8.47
263.113	9.64
263.328	10.31
263.543	10.03
263.759	9.56
263.974	7.48
264.189	6.98
264.405	4.83
264.62	4.69
264.835	5.34
265.051	5.04
265.266	6.69
265.481	6.13
265.696	7
265.912	8.44
266.127	8.62
266.342	11.16
266.557	11.47
266.773	9.23
266.988	8.5
267.203	8.36
267.418	9.67
267.633	9.39
267.848	7.54
268.064	8.81
268.279	7.91
268.494	9.71
268.709	8.52
268.924	7.07
269.139	9.65
269.354	9.11
269.569	9.68
269.784	9.41
269.999	8.54
270.214	9.4
270.429	9.54
270.644	10.23
270.859	9.65
271.074	10.5
271.289	13.6
271.504	13.72
271.719	14.46
271.934	13.55
272.149	14.35
272.363	15.66
272.578	16.63
272.793	16.77
273.008	16.07
273.223	17.16
273.438	16.57
273.653	14.48
273.867	12.83
274.082	12.13
274.297	12.58
274.512	11.75
274.726	11.1
274.941	9.35
275.156	7.44
275.371	10.21
275.585	8.42
275.8	9.83
276.015	11.32
276.229	11.97
276.444	11.36
276.659	11.27
276.873	11.14
277.088	12.04
277.302	14.13
277.517	15.25
277.732	13.1
277.946	12.61
278.161	11.94
278.375	11.05
278.59	10.2
278.804	11.43
279.019	11.11
279.233	13.19
279.448	10.69
279.662	9.48
279.877	6.91
280.091	8.18
280.306	10.27
280.52	10.76
280.735	12.08
280.949	11.51
281.163	12.18
281.378	11.91
281.592	12.86
281.806	13.11
282.021	13.99
282.235	15.24
282.449	16.56
282.664	14.8
282.878	13.42
283.092	12.76
283.307	15.52
283.521	14.89
283.735	17.13
283.949	14.98
284.164	16.6
284.378	15.52
284.592	16.34
284.806	13.16
285.02	14.53
285.234	15.68
285.449	14.11
285.663	13.42
285.877	14
286.091	13.13
286.305	14.19
286.519	14.3
286.733	13.63
286.947	11.66
287.161	12.33
287.375	13.16
287.589	11.21
287.803	12.97
288.017	12.04
288.231	10.48
288.445	8.57
288.659	7.05
288.873	7.29
289.087	7.74
289.301	9.7
289.515	10.13
289.729	9.69
289.943	10.39
290.157	11.12
290.371	10.65
290.584	9.71
290.798	13.24
291.012	15.16
291.226	13.52
291.44	13.97
291.654	13.69
291.867	13.59
292.081	13.44
292.295	14.27
292.509	12.21
292.722	13.18
292.936	15.72
293.15	14.29
293.364	11.88
293.577	11.05
293.791	12.24
294.005	10.76
294.218	10.49
294.432	9.67
294.645	9.97
294.859	8.99
295.073	9.95
295.286	10.33
295.5	8.66
295.713	8.57
295.927	11.16
296.14	10.59
296.354	10.09
296.568	11.36
296.781	11.38
296.994	12.16
297.208	14.11
297.421	12.82
297.635	12.51
297.848	14.35
298.062	16.1
298.275	14.97
298.489	13.64
298.702	15.61
298.915	14.93
299.129	15.31
299.342	14.26
299.555	13.31
299.769	15.18
299.982	14.17
300.195	12.55
300.409	11.57
300.622	12.48
300.835	13.49
301.048	12.57
301.262	12.61
301.475	13.09
301.688	13.77
301.901	13.9
302.115	13.83
302.328	14.06
302.541	15.34
302.754	14.78
302.967	14.3
303.18	15.08
303.393	16.88
303.607	17.38
303.82	17.25
304.033	17.25
304.246	17.16
304.459	16.61
304.672	16.82
304.885	15.95
305.098	15.24
305.311	16.53
305.524	17.24
305.737	15.4
305.95	13.34
306.163	12.22
306.376	11.13
306.589	12.6
306.802	11.89
307.015	12.1
307.228	9.58
307.44	10.55
307.653	9.46
307.866	9.23
308.079	11.55
308.292	13.85
308.505	14.83
308.718	15.87
308.93	15.36
309.143	14.91
309.356	14.5
309.569	14.94
309.781	13.82
309.994	15.19
310.207	14.66
310.42	12.66
310.632	13.21
310.845	11.8
311.058	13
311.27	13.27
311.483	14.93
311.696	15.3
311.908	17.5
312.121	18.32
312.333	16.81
312.546	17.01
312.759	18.49
312.971	17.92
313.184	19.82
313.396	18.4
313.609	16.47
313.821	14.82
314.034	15.69
314.246	14.73
314.459	16.37
314.671	16.68
314.884	16.14
315.096	14.37
315.309	13.11
315.521	12.29
315.733	11.89
315.946	13.35
316.158	15.24
316.371	14.28
316.583	12.65
316.795	12.06
317.008	11.73
317.22	12.59
317.432	14.96
317.644	14.77
317.857	13.02
318.069	15.87
318.281	16.17
318.494	15.91
318.706	16.24
318.918	18.17
319.13	18.53
319.342	18.14
319.555	18.32
319.767	15.73
319.979	18.03
320.191	19.77
320.403	18.02
320.615	17.45
320.827	16.79
321.039	15.83
321.252	12.75
321.464	11.8
321.676	12.54
321.888	11.79
322.1	12.11
322.312	10.64
322.524	8.47
322.736	9.84
322.948	9.35
323.16	8.49
323.372	10.7
323.584	13.32
323.796	13.45
324.007	13.61
324.219	14.8
324.431	14.61
324.643	16.58
324.855	18.56
325.067	16.54
325.279	17.88
325.491	18
325.702	17.02
325.914	15.41
326.126	14.43
326.338	14
326.55	13.1
326.761	13.05
326.973	12.17
327.185	10.78
327.396	12.48
327.608	11.19
327.82	12.31
328.032	12.43
328.243	13.32
328.455	12.74
328.666	12.77
328.878	12.93
329.09	13.53
329.301	12.31
329.513	11.98
329.725	10.87
329.936	12.74
330.148	12.55
330.359	12.79
330.571	12.45
330.782	13.12
330.994	12.58
331.205	11.8
331.417	14.18
331.628	16.05
331.84	18.06
332.051	18.6
332.262	17.44
332.474	18.45
332.685	17.14
332.897	16.62
333.108	18.29
333.319	18.58
333.531	18.47
333.742	17.68
333.953	15.99
334.165	14.85
334.376	14.02
334.587	13.13
334.799	11.83
335.01	13.63
335.221	13.69
335.432	12.63
335.644	14.53
335.855	14.83
336.066	14.08
336.277	14.2
336.488	15.95
336.7	16.95
336.911	18.75
337.122	19.11
337.333	18.41
337.544	18.91
337.755	18.25
337.966	17.11
338.177	16.98
338.388	16.41
338.599	15
338.811	13
339.022	11.76
339.233	10.81
339.444	8.96
339.655	7.94
339.866	8.97
340.076	8.44
340.287	8.13
340.498	9.05
340.709	9.42
340.92	11.11
341.131	11.1
341.342	10.99
341.553	10.19
341.764	11.29
341.975	12.63
342.185	11.34
342.396	12.04
342.607	11.75
342.818	11.45
343.029	10.63
343.239	11.24
343.45	12.36
343.661	12.92
343.872	13.88
344.082	13.08
344.293	11.71
344.504	13.05
344.714	12.99
344.925	13.51
345.136	13.03
345.346	13.96
345.557	14.26
345.768	14.05
345.978	13.3
346.189	13.51
346.399	14.34
346.61	14.75
346.821	12.32
347.031	13.17
347.242	12.48
347.452	12.13
347.663	12.13
347.873	9.37
348.084	9.34
348.294	10.03
348.504	9.72
348.715	8.38
348.925	7.8
349.136	10.68
349.346	8.81
349.557	9.37
349.767	9.15
349.977	10.32
350.188	12.37
350.398	12.54
350.608	14.95
350.819	13.95
351.029	14.76
351.239	15.54
351.449	14.24
351.66	12.52
351.87	10.62
352.08	11.23
352.29	9.63
352.501	10.11
352.711	10.79
352.921	8.54
353.131	8.81
353.341	8.53
353.552	7.6
353.762	8.86
353.972	10.76
354.182	11.35
354.392	10.53
354.602	11.32
354.812	10.46
355.022	9.41
355.232	9.67
355.442	11.1
355.652	12.24
355.862	12.09
356.072	11.53
356.282	13.06
356.492	13.62
356.702	13.34
356.912	12.95
357.122	13.46
357.332	13.28
357.542	12.92
357.752	12.5
357.962	11.99
358.171	12.74
358.381	12.84
358.591	11.18
358.801	12.26
359.011	12.81
359.221	13.11
359.43	13.67
359.64	13.78
359.85	14.12
360.06	13.71
360.269	12.84
360.479	12.3
360.689	11.06
360.899	11.51
361.108	10.49
361.318	11.2
361.528	10.89
361.737	10.4
361.947	10.26
362.156	10.31
362.366	10.42
362.576	11.34
362.785	11.84
362.995	13.46
363.204	13.61
363.414	14.13
363.623	14.24
363.833	14.06
364.042	13.72
364.252	13.35
364.461	12.61
364.671	11.81
364.88	11.37
365.09	11.48
365.299	10.45
365.509	10.13
365.718	10.39
365.927	9.86
366.137	9.24
366.346	8.75
366.555	8.82
366.765	8.76
366.974	9.18
367.183	9.43
367.393	9.7
367.602	9.37
367.811	8.82
368.021	8.07
368.23	8.7
368.439	9.25
368.648	9.69
368.857	9.25
369.067	9.15
369.276	8.98
369.485	8.33
369.694	6.66
369.903	6.45
370.112	7.11
370.321	7.04
370.531	6.91
370.74	7.31
370.949	6.9
371.158	7.04
371.367	7.48
371.576	7.81
371.785	8.14
371.994	8.65
372.203	8.74
372.412	9.18
372.621	9.56
372.83	8.21
373.039	7.67
373.248	7.65
373.457	8.55
373.666	8.02
373.874	8.03
374.083	8.02
374.292	7.67
374.501	7.7
374.71	6.53
374.919	6.83
375.128	7.24
375.336	7.55
375.545	8.07
375.754	8.45
375.963	9.44
376.171	8.64
376.38	8.7
376.589	10.36
376.798	10.79
377.006	11.76
377.215	10.87
377.424	10.61
377.632	10.58
377.841	10.44
378.05	9.59
378.258	8.75
378.467	8.91
378.675	8.62
378.884	7.96
379.093	7.23
379.301	6.1
379.51	6.11
379.718	6.67
379.927	6.68
380.135	6.27
380.344	6.5
380.552	7.34
380.761	8
380.969	8.06
381.177	7.67
381.386	8.22
381.594	8.72
381.803	9.38
382.011	8.59
382.219	8.65
382.428	9.66
382.636	9.73
382.845	9.53
383.053	8.75
383.261	8.33
383.469	8.07
383.678	7.54
383.886	7.54
384.094	7.83
384.302	8.56
384.511	8.42
384.719	8.28
384.927	7.95
385.135	7.77
385.343	7.84
385.552	8.13
385.76	7.66
385.968	7.82
386.176	8.22
386.384	7.34
386.592	6.87
386.8	7.22
387.008	6.67
387.216	6.98
387.424	6.64
387.633	7.04
387.841	7.2
388.049	7.98
388.257	7.83
388.465	7.19
388.672	7.4
388.88	7.53
389.088	7.65
389.296	7.61
389.504	7.16
389.712	7.28
389.92	6.94
390.128	6.77
390.336	6.71
390.544	6.64
390.751	6.93
390.959	6.73
391.167	6.4
391.375	5.85
391.583	6.12
391.79	5.97
391.998	5.67
392.206	5.75
392.414	5.4
392.621	4.97
392.829	4.94
393.037	4.62
393.244	4.7
393.452	5.26
393.66	5.15
393.867	4.75
394.075	4.67
394.283	4.98
394.49	4.75
394.698	4.98
394.905	5.14
395.113	5.33
395.32	5.34
395.528	5.28
395.735	4.49
395.943	4.58
396.15	4.44
396.358	4.5
396.565	4.25
396.773	4.57
396.98	4.7
397.188	4.35
397.395	4.32
397.602	4.24
397.81	4.27
398.017	4.9
398.225	4.76
398.432	5.31
398.639	5.51
398.847	5.67
399.054	5.38
399.261	5.43
399.468	5.49
399.676	5.62
399.883	5.66
400.09	5.55
400.297	5.56
400.505	5.71
400.712	5.3
400.919	5.06
401.126	4.68
401.333	4.52
401.54	4.44
401.748	4.38
401.955	4.1
402.162	4.36
402.369	4.49
402.576	4.53
402.783	4.41
402.99	4.27
403.197	4.41
403.404	4.91
403.611	5
403.818	4.89
404.025	5.36
404.232	5.32
404.439	5.24
404.646	5.23
404.853	4.98
405.06	5.05
405.267	5.27
405.474	5.19
405.681	4.88
405.887	4.79
406.094	4.7
406.301	4.43
406.508	4.55
406.715	4.26
406.922	4.16
407.128	4.23
407.335	4.24
407.542	4.27
407.749	4.42
407.955	4.79
408.162	4.69
408.369	4.52
408.575	3.9
408.782	3.53
408.989	3.63
409.195	3.89
409.402	3.37
409.609	2.72
409.815	2.25
410.022	2.42
410.228	2.11
410.435	2.45
410.642	2.69
410.848	3.61
411.055	4.09
411.261	4.49
411.468	4.4
411.674	5.08
411.881	5.89
412.087	5.95
412.294	5.59
412.5	5.26
412.706	5.02
412.913	4.9
413.119	4.5
413.326	4.04
413.532	3.93
413.738	3.65
413.945	3.35
414.151	2.82
414.357	3.11
414.564	3.12
414.77	3.51
414.976	3.56
415.182	3.75
415.389	3.75
415.595	3.96
415.801	3.46
416.007	3.94
416.214	3.94
416.42	4.42
416.626	4.6
416.832	4.65
417.038	4.7
417.244	4.63
417.45	4.58
417.657	4.76
417.863	4.75
418.069	4.94
418.275	4.97
418.481	4.98
418.687	4.8
418.893	4.53
419.099	4.77
419.305	4.69
419.511	4.68
419.717	4.61
419.923	4.76
420.129	4.66
420.335	4.75
420.541	4.61
420.746	4.56
420.952	4.55
421.158	4.56
421.364	4.43
421.57	4.36
421.776	4.55
421.982	4.55
422.187	4.23
422.393	4.37
422.599	4.35
422.805	4.16
423.01	4.12
423.216	4.17
423.422	4.09
423.628	4.09
423.833	4.24
424.039	3.92
424.245	3.91
424.45	3.9
424.656	3.74
424.862	3.72
425.067	3.85
425.273	3.94
425.478	3.93
425.684	4.08
425.889	4.06
426.095	3.84
426.301	4.09
426.506	4.06
426.712	4.3
426.917	4.33
427.123	4.26
427.328	4.13
427.533	4.04
427.739	4.12
427.944	4.26
428.15	4.09
428.355	4.32
428.561	4.21
428.766	4.22
428.971	3.81
429.177	3.95
429.382	4.03
429.587	4.16
429.793	3.98
429.998	3.77
430.203	3.39
430.408	3.56
430.614	3.63
430.819	3.73
431.024	3.62
431.229	3.74
431.434	3.62
431.64	3.7
431.845	3.56
432.05	3.72
432.255	3.73
432.46	3.91
432.665	3.74
432.87	3.69
433.076	3.47
433.281	3.55
433.486	3.75
433.691	3.87
433.896	3.74
434.101	3.79
434.306	3.85
434.511	3.87
434.716	3.84
434.921	3.88
435.126	3.86
435.331	4.14
435.535	4.2
435.74	4.22
435.945	4.12
436.15	4.14
436.355	3.92
436.56	4.01
436.765	4.09
436.97	4.12
437.174	4.28
437.379	4.28
437.584	4.2
437.789	4.28
437.993	4.31
438.198	4.25
438.403	4.15
438.608	4.38
438.812	4.22
439.017	4.08
439.222	4.07
439.426	3.93
439.631	3.83
439.836	3.52
440.04	3.38
440.245	3.27
440.45	3.21
440.654	3.28
440.859	3.41
441.063	3.38
441.268	3.58
441.472	3.48
441.677	3.56
441.881	3.43
442.086	3.59
442.29	3.76
442.495	3.65
442.699	3.9
442.904	3.85
443.108	3.55
443.312	3.49
443.517	3.36
443.721	3.52
443.925	3.44
444.13	3.69
444.334	3.86
444.538	3.68
444.743	3.72
444.947	3.57
445.151	3.7
445.356	3.97
445.56	4.08
445.764	3.86
445.968	3.79
446.173	3.87
446.377	3.71
446.581	3.58
446.785	3.75
446.989	3.8
447.193	3.78
447.398	3.67
447.602	3.44
447.806	3.48
448.01	3.59
448.214	3.55
448.418	3.46
448.622	3.54
448.826	3.76
449.03	3.76
449.234	3.67
449.438	3.66
449.642	3.88
449.846	3.9
450.05	4.06
450.254	4.3
450.458	4.27
450.662	4.24
450.866	4.17
451.069	4
451.273	3.79
451.477	3.99
451.681	3.9
451.885	3.74
452.089	3.86
452.292	3.45
452.496	3.29
452.7	3.31
452.904	3.26
453.107	3.24
453.311	3.18
453.515	2.98
453.719	2.97
453.922	3.1
454.126	3.01
454.33	2.92
454.533	3.05
454.737	2.99
454.94	3.08
455.144	3.06
455.348	3.43
455.551	3.43
455.755	3.64
455.958	3.52
456.162	3.62
456.365	3.49
456.569	3.5
456.772	3.44
456.976	3.64
457.179	3.56
457.383	3.71
457.586	3.43
457.79	3.56
457.993	3.54
458.196	3.63
458.4	3.65
458.603	3.96
458.807	3.92
459.01	3.85
459.213	3.66
459.417	3.78
459.62	3.82
459.823	3.78
460.026	3.82
460.23	3.9
460.433	3.93
460.636	3.89
460.839	3.84
461.042	3.78
461.246	3.93
461.449	4.06
461.652	3.95
461.855	3.86
462.058	3.89
462.261	3.71
462.464	3.46
462.668	3.29
462.871	3.19
463.074	3.1
463.277	3.5
463.48	3.4
463.683	3.26
463.886	3.2
464.089	3.06
464.292	3.13
464.495	3.26
464.698	3.44
464.901	3.39
465.104	3.6
465.306	3.55
465.509	3.27
465.712	3.42
465.915	3.36
466.118	3.46
466.321	3.7
466.524	3.72
466.726	3.67
466.929	3.61
467.132	3.8
467.335	3.6
467.538	3.56
467.74	3.56
467.943	3.5
468.146	3.65
468.348	3.52
468.551	3.17
468.754	3.21
468.956	3.16
469.159	3.42
469.362	3.58
469.564	3.66
469.767	3.64
469.969	3.55
470.172	3.48
470.375	3.38
470.577	3.27
470.78	3.33
470.982	3.08
471.185	3.05
471.387	2.68
471.59	2.32
471.792	2.4
471.995	2.5
472.197	2.63
472.399	2.87
472.602	2.96
472.804	3.38
473.007	3.74
473.209	3.86
473.411	3.94
473.614	3.94
473.816	3.94
474.018	3.84
474.22	3.88
474.423	3.81
474.625	3.54
474.827	3.39
475.03	3.23
475.232	3.31
475.434	3.28
475.636	3.37
475.838	3.47
476.04	3.55
476.243	3.45
476.445	3.53
476.647	3.75
476.849	3.63
477.051	3.68
477.253	3.72
477.455	3.74
477.657	3.72
477.859	3.65
478.061	3.76
478.263	3.71
478.465	3.85
478.667	3.91
478.869	3.64
479.071	3.99
479.273	3.95
479.475	4.12
479.677	3.73
479.879	3.81
480.081	3.95
480.283	3.93
480.485	4.13
480.686	4.14
480.888	4.06
481.09	4.11
481.292	4.05
481.494	4.06
481.695	3.94
481.897	4.14
482.099	4.06
482.301	3.96
482.502	3.79
482.704	3.74
482.906	3.6
483.107	3.49
483.309	3.53
483.511	3.47
483.712	3.49
483.914	3.52
484.115	3.48
484.317	3.48
484.519	3.4
484.72	3.42
484.922	3.38
485.123	3.4
485.325	3.43
485.526	3.4
485.728	3.39
485.929	3.41
486.131	3.31
486.332	3.34
486.534	3.31
486.735	3.29
486.936	3.32
487.138	3.31
487.339	3.32
487.541	3.37
487.742	3.4
487.943	3.39
488.144	3.3
488.346	3.26
488.547	3.24
488.748	3.31
488.95	3.4
489.151	3.37
489.352	3.36
489.553	3.4
489.755	3.31
489.956	3.24
490.157	3.27
490.358	3.45
490.559	3.49
490.76	3.47
490.961	3.48
491.163	3.51
491.364	3.48
491.565	3.5
491.766	3.39
491.967	3.42
492.168	3.45
492.369	3.31
492.57	3.21
492.771	3.2
492.972	3.22
493.173	3.19
493.374	3.14
493.575	3.17
493.776	3.16
493.976	3.25
494.177	3.25
494.378	3.31
494.579	3.45
494.78	3.54
494.981	3.42
495.182	3.35
495.382	3.4
495.583	3.23
495.784	3.34
495.985	3.21
496.185	3.24
496.386	3.28
496.587	3.32
496.788	3.35
496.988	3.23
497.189	3.29
497.39	3.18
497.59	3.02
497.791	3.23
497.992	3.31
498.192	3.42
498.393	3.33
498.593	3.32
498.794	3.24
498.994	3.21
499.195	3.19
499.395	3.37
499.596	3.4
499.796	3.45
499.997	3.35
500.197	3.2
500.398	3.4
500.598	3.38
500.799	3.21
500.999	3.24
501.199	3.35
501.4	3.62
501.6	3.54
501.801	3.61
502.001	3.62
502.201	3.79
502.402	3.74
502.602	3.35
502.802	3.42
503.002	3.62
503.203	3.68
503.403	3.75
503.603	3.56
503.803	3.56
504.003	3.64
504.204	3.57
504.404	3.52
504.604	3.55
504.804	3.83
505.004	3.88
505.204	3.86
505.404	3.82
505.604	3.71
505.804	3.87
506.005	3.85
506.205	3.83
506.405	3.81
506.605	3.73
506.805	3.8
507.005	3.69
507.204	3.72
507.404	3.79
507.604	3.77
507.804	3.68
508.004	3.69
508.204	3.65
508.404	3.69
508.604	3.75
508.804	3.85
509.003	3.91
509.203	4.01
509.403	4.06
509.603	3.97
509.803	4.13
510.002	4.29
510.202	4.18
510.402	4.18
510.602	4.16
510.801	4.12
511.001	4.17
511.201	4.08
511.4	3.92
511.6	3.93
511.8	4.02
511.999	3.95
512.199	3.75
512.398	3.8
512.598	3.81
512.797	3.99
512.997	4.02
513.197	4.04
513.396	4.13
513.596	4.33
513.795	4.37
513.994	4.33
514.194	4.14
514.393	4.23
514.593	4.19
514.792	4.43
514.992	4.28
515.191	4.44
515.39	4.46
515.59	4.5
515.789	4.38
515.988	4.31
516.188	4.22
516.387	4.32
516.586	4.34
516.786	4.61
516.985	4.39
517.184	4.38
517.383	4.37
517.582	4.27
517.782	4.24
517.981	4.26
518.18	4.18
518.379	4.18
518.578	4.29
518.777	4.36
518.976	4.12
519.176	4.06
519.375	4.07
519.574	4.02
519.773	3.97
519.972	3.92
520.171	3.98
520.37	4
520.569	4.05
520.768	3.76
520.967	3.7
521.166	3.67
521.365	3.81
521.564	3.62
521.762	3.58
521.961	3.63
522.16	3.68
522.359	3.5
522.558	3.44
522.757	3.56
522.956	3.86
523.154	3.9
523.353	4.01
523.552	3.88
523.751	4.14
523.949	4.15
524.148	4.1
524.347	4.22
524.546	4.34
524.744	4.41
524.943	4.35
525.142	4.28
525.34	4.16
525.539	4.1
525.737	4.09
525.936	4.08
526.135	4.12
526.333	4.19
526.532	3.99
526.73	3.89
526.929	3.88
527.127	3.99
527.326	3.97
527.524	3.94
527.723	4.05
527.921	4.09
528.12	4.03
528.318	4.02
528.516	3.99
528.715	4.06
528.913	4.08
529.112	4.13
529.31	4.09
529.508	4.06
529.707	4.15
529.905	4.09
530.103	4.15
530.301	4.26
530.5	4.3
530.698	4.35
530.896	4.34
531.094	4.34
531.293	4.37
531.491	4.46
531.689	4.55
531.887	4.56
532.085	4.55
532.283	4.53
532.481	4.46
532.68	4.53
532.878	4.53
533.076	4.62
533.274	4.79
533.472	4.83
533.67	4.74
533.868	4.74
534.066	4.78
534.264	4.83
534.462	4.87
534.66	4.93
534.858	4.83
535.056	4.96
535.253	4.97
535.451	4.85
535.649	4.73
535.847	4.83
536.045	4.88
536.243	4.84
536.441	4.95
536.638	4.94
536.836	4.81
537.034	4.76
537.232	4.68
537.43	4.6
537.627	4.64
537.825	4.72
538.023	4.7
538.22	4.86
538.418	4.78
538.616	4.67
538.813	4.73
539.011	4.81
539.209	5.07
539.406	5.1
539.604	5.17
539.801	5.31
539.999	5.31
540.196	5.29
540.394	5.2
540.591	5.22
540.789	5.31
540.986	5.38
541.184	5.43
541.381	5.34
541.579	5.39
541.776	5.36
541.974	5.39
542.171	5.36
542.368	5.41
542.566	5.48
542.763	5.52
542.96	5.55
543.158	5.55
543.355	5.64
543.552	5.67
543.75	5.65
543.947	5.69
544.144	5.65
544.341	5.71
544.539	5.51
544.736	5.47
544.933	5.54
545.13	5.6
545.327	5.47
545.524	5.46
545.722	5.61
545.919	5.61
546.116	5.71
546.313	5.72
546.51	5.86
546.707	6.14
546.904	6.4
547.101	6.3
547.298	6.17
547.495	6.28
547.692	6.28
547.889	6.32
548.086	6.49
548.283	6.58
548.48	6.51
548.677	6.46
548.874	6.46
549.07	6.24
549.267	6.6
549.464	6.75
549.661	6.73
549.858	6.73
550.055	6.81
550.251	6.84
550.448	6.78
550.645	6.88
550.842	7.06
551.038	7.39
551.235	7.57
551.432	7.53
551.628	7.64
551.825	7.81
552.022	7.77
552.218	7.47
552.415	7.1
552.612	7.2
552.808	6.99
553.005	6.71
553.201	6.59
553.398	6.55
553.594	6.44
553.791	6.48
553.987	6.4
554.184	6.54
554.38	6.87
554.577	7.25
554.773	7.15
554.97	7.48
555.166	7.77
555.362	7.79
555.559	7.67
555.755	7.86
555.952	7.87
556.148	7.9
556.344	7.87
556.541	7.83
556.737	7.83
556.933	7.95
557.129	7.91
557.326	7.8
557.522	7.67
557.718	7.87
557.914	7.78
558.11	7.69
558.307	7.62
558.503	7.79
558.699	7.71
558.895	7.71
559.091	7.83
559.287	8.01
559.483	8.21
559.679	8.36
559.876	8.19
560.072	8.32
560.268	8.36
560.464	8.57
560.66	8.5
560.856	8.69
561.052	8.69
561.247	8.64
561.443	8.56
561.639	8.63
561.835	8.86
562.031	8.94
562.227	8.9
562.423	9.13
562.619	9.41
562.815	9.57
563.01	9.6
563.206	9.37
563.402	9.64
563.598	9.9
563.793	10.01
563.989	9.83
564.185	10.2
564.381	10.15
564.576	10.1
564.772	10.04
564.968	9.91
565.163	9.93
565.359	10.41
565.555	10.51
565.75	10.49
565.946	10.48
566.141	10.55
566.337	10.46
566.532	10.62
566.728	10.69
566.923	10.68
567.119	10.74
567.314	10.84
567.51	10.65
567.705	10.45
567.901	10.47
568.096	10.38
568.292	10.34
568.487	10.51
568.682	10.43
568.878	10.45
569.073	10.35
569.268	10.37
569.464	10.18
569.659	10.32
569.854	10.29
570.05	10.16
570.245	10.4
570.44	10.26
570.635	10.25
570.831	10.38
571.026	10.38
571.221	10.44
571.416	10.53
571.611	10.52
571.806	10.68
572.002	10.77
572.197	10.92
572.392	10.83
572.587	10.96
572.782	10.87
572.977	10.9
573.172	10.88
573.367	11
573.562	11.2
573.757	11.44
573.952	11.27
574.147	11.53
574.342	11.66
574.537	11.67
574.732	11.91
574.927	11.89
575.121	11.87
575.316	12.04
575.511	12.03
575.706	11.81
575.901	11.97
576.096	12.18
576.29	12.3
576.485	12.19
576.68	12.22
576.875	12.18
577.069	12.25
577.264	12.34
577.459	12.13
577.654	12.21
577.848	12.26
578.043	12
578.238	11.91
578.432	11.48
578.627	11.53
578.821	11.26
579.016	11.43
579.21	11.29
579.405	11.3
579.6	11.4
579.794	11.42
579.989	11.8
580.183	11.68
580.378	11.71
580.572	11.94
580.766	11.99
580.961	12.2
581.155	11.9
581.35	12.05
581.544	12.33
581.738	12.31
581.933	12.2
582.127	11.97
582.321	12.39
582.516	12.27
582.71	12.06
582.904	12.09
583.099	12.16
583.293	12.18
583.487	12.05
583.681	11.98
583.875	11.9
584.07	11.81
584.264	11.99
584.458	11.71
584.652	11.81
584.846	11.92
585.04	11.83
585.234	11.77
585.428	12.06
585.623	12.34
585.817	12.14
586.011	12.32
586.205	12.41
586.399	12.14
586.593	11.8
586.787	11.89
586.981	11.73
587.174	11.64
587.368	11.88
587.562	11.57
587.756	11.39
587.95	11.53
588.144	11.56
588.338	11.87
588.532	12.07
588.725	12.52
588.919	12.31
589.113	12.51
589.307	12.68
589.501	12.65
589.694	12.87
589.888	13.18
590.082	13.01
590.275	12.86
590.469	12.72
590.663	12.65
590.856	12.84
591.05	12.77
591.244	12.8
591.437	12.86
591.631	12.88
591.824	12.82
592.018	12.78
592.212	12.95
592.405	13.15
592.599	13.1
592.792	13.06
592.986	12.82
593.179	13.01
593.372	13.21
593.566	13.28
593.759	13.1
593.953	13.23
594.146	13.04
594.339	12.98
594.533	12.73
594.726	12.78
594.92	12.62
595.113	12.72
595.306	12.87
595.499	12.75
595.693	12.83
595.886	12.8
596.079	12.7
596.272	12.74
596.466	12.57
596.659	12.69
596.852	12.73
597.045	13.03
597.238	13.14
597.431	13.15
597.624	13.07
597.818	12.94
598.011	13.19
598.204	13.26
598.397	13.39
598.59	13.47
598.783	13.54
598.976	13.66
599.169	13.75
599.362	13.68
599.555	13.64
599.748	13.8
599.941	13.83
600.134	13.8
600.326	13.68
600.519	13.58
600.712	13.76
600.905	13.81
601.098	13.62
601.291	13.38
601.483	13.3
601.676	13.34
601.869	13.2
602.062	13.35
602.255	13.42
602.447	13.41
602.64	13.2
602.833	13.28
603.025	13.36
603.218	13.3
603.411	13.17
603.603	13.16
603.796	13.01
603.989	13.18
604.181	12.89
604.374	12.94
604.566	12.92
604.759	12.89
604.951	12.69
605.144	12.68
605.336	12.96
605.529	13.1
605.721	13.18
605.914	13.31
606.106	13.31
606.299	13.18
606.491	12.93
606.683	13.01
606.876	13.41
607.068	13.64
607.26	13.31
607.453	12.81
607.645	12.75
607.837	12.57
608.03	12.7
608.222	12.6
608.414	13.08
608.606	13.23
608.799	13.16
608.991	13.11
609.183	13.08
609.375	12.95
609.567	13.07
609.759	13.19
609.952	13.18
610.144	13.03
610.336	13.03
610.528	13.11
610.72	13
610.912	13.05
611.104	13.01
611.296	12.84
611.488	13.38
611.68	13.42
611.872	13.21
612.064	13.17
612.256	13.3
612.448	13.19
612.64	13.16
612.832	13.44
613.023	13.24
613.215	13.11
613.407	13.54
613.599	13.37
613.791	13.55
613.983	13.79
614.174	13.99
614.366	14
614.558	13.87
614.75	13.65
614.941	13.14
615.133	13.23
615.325	13.27
615.516	12.84
615.708	13.08
615.9	13.1
616.091	13.04
616.283	12.92
616.475	12.84
616.666	12.99
616.858	13
617.049	13.4
617.241	13.38
617.432	13.56
617.624	13.7
617.815	13.52
618.007	13.27
618.198	12.94
618.39	12.98
618.581	12.86
618.773	12.56
618.964	12.78
619.155	12.52
619.347	12.58
619.538	12.5
619.729	12.5
619.921	12.23
620.112	12.22
620.303	12.41
620.494	12.36
620.686	12.52
620.877	13.17
621.068	13.07
621.259	13.47
621.451	13.64
621.642	13.54
621.833	13.42
622.024	13.68
622.215	13.85
622.406	14.09
622.597	14.4
622.788	14.42
622.98	14.13
623.171	13.72
623.362	13.3
623.553	13.44
623.744	13.29
623.935	13.7
624.126	13.63
624.317	13.6
624.508	13.43
624.698	13.19
624.889	13.44
625.08	13.69
625.271	14.19
625.462	14.53
625.653	14.4
625.844	14.65
626.034	14.45
626.225	14.17
626.416	14.2
626.607	14.1
626.798	14.44
626.988	14.43
627.179	14.27
627.37	14.1
627.56	13.99
627.751	13.53
627.942	13.52
628.132	13.37
628.323	13.5
628.514	13.38
628.704	13.53
628.895	13.1
629.085	12.63
629.276	12.49
629.466	12.46
629.657	12.62
629.847	13.06
630.038	13
630.228	13.5
630.419	13.58
630.609	13.45
630.8	13.49
630.99	13.53
631.181	13.73
631.371	13.87
631.561	13.97
631.752	13.95
631.942	14.12
632.132	14.15
632.323	14.02
632.513	14.11
632.703	14.18
632.893	14.08
633.084	14.26
633.274	14.06
633.464	14.05
633.654	13.87
633.844	13.7
634.034	13.61
634.225	13.58
634.415	13.28
634.605	13.26
634.795	13.5
634.985	13.58
635.175	13.22
635.365	13.33
635.555	13.27
635.745	13.41
635.935	13.52
636.125	13.38
636.315	13.38
636.505	13.58
636.695	13.56
636.885	13.47
637.075	13.5
637.265	14
637.455	14.08
637.644	14.06
637.834	13.83
638.024	13.68
638.214	13.79
638.404	13.61
638.593	13.76
638.783	13.96
638.973	14.14
639.163	13.8
639.352	13.67
639.542	13.82
639.732	13.5
639.921	13.21
640.111	13.31
640.301	13.15
640.49	13.41
640.68	13
640.87	13.13
641.059	12.66
641.249	12.94
641.438	12.61
641.628	12.35
641.817	12.84
642.007	13.44
642.196	13.02
642.386	12.97
642.575	12.74
642.764	13.2
642.954	13.06
643.143	13.78
643.333	13.77
643.522	14.27
643.711	13.97
643.901	13.89
644.09	13.89
644.279	14
644.469	13.93
644.658	13.96
644.847	13.88
645.036	13.51
645.226	12.7
645.415	12.78
645.604	12.76
645.793	13.21
645.982	13.48
646.171	13.28
646.361	13.49
646.55	13.34
646.739	13.48
646.928	13.32
647.117	13.47
647.306	13.55
647.495	13.66
647.684	13.73
647.873	13.7
648.062	13.13
648.251	12.94
648.44	13.25
648.629	13.7
648.818	14.04
649.007	13.7
649.196	13.95
649.384	13.77
649.573	13.25
649.762	13.11
649.951	12.92
650.14	13.11
650.328	13.06
650.517	13.08
650.706	12.87
650.895	12.11
651.083	12.53
651.272	12.39
651.461	12.86
651.65	13.13
651.838	13.21
652.027	13.25
652.216	13.35
652.404	13.7
652.593	13.5
652.781	13.78
652.97	14.12
653.158	14.03
653.347	14.56
653.535	14.53
653.724	14.83
653.912	14.53
654.101	14.79
654.289	14.57
654.478	14.4
654.666	13.87
654.855	13.63
655.043	13.37
655.231	13.32
655.42	13.09
655.608	12.86
655.796	12.7
655.985	12.94
656.173	12.87
656.361	13.25
656.55	13.01
656.738	13.08
656.926	13.3
657.114	13.21
657.302	13.55
657.491	12.97
657.679	13.2
657.867	13.05
658.055	13.07
658.243	12.54
658.431	12.67
658.619	13.09
658.807	13.74
658.996	13.94
659.184	14.35
659.372	13.89
659.56	14.17
659.748	14.06
659.936	14.17
660.124	14.12
660.311	14.54
660.499	14.57
660.687	14.55
660.875	14.51
661.063	14.42
661.251	14.41
661.439	14.88
661.627	14.59
661.814	14.9
662.002	14.78
662.19	15.18
662.378	14.89
662.565	14.3
662.753	13.97
662.941	13.99
663.129	13.5
663.316	13.4
663.504	12.97
663.692	13.56
663.879	13.67
664.067	14.04
664.254	13.59
664.442	13.89
664.63	14.62
664.817	14.28
665.005	13.93
665.192	13.5
665.38	13.15
665.567	13.54
665.755	13.22
665.942	12.45
666.13	12.42
666.317	12.19
666.504	12.41
666.692	12.4
666.879	13.06
667.067	13.23
667.254	14.16
667.441	14.15
667.629	13.84
667.816	13.4
668.003	14.26
668.19	14.1
668.378	13.88
668.565	13.78
668.752	13.59
668.939	13.94
669.127	13.72
669.314	13.89
669.501	14.12
669.688	14.41
669.875	14.69
670.062	13.9
670.249	13.82
670.436	13.79
670.623	14.01
670.81	13.9
670.997	13.6
671.184	13.81
671.371	13.7
671.558	13.78
671.745	13.41
671.932	14.03
672.119	14.43
672.306	14.56
672.493	14.84
672.68	14.59
672.867	14.57
673.054	14.85
673.24	14.68
673.427	14.49
673.614	14.01
673.801	14.55
673.988	13.77
674.174	13.52
674.361	12.88
674.548	13.08
674.734	13.04
674.921	13.31
675.108	13.16
675.294	13.81
675.481	12.99
675.668	13.82
675.854	13.34
676.041	13.25
676.227	13.55
676.414	14.1
676.601	14.15
676.787	14.16
676.974	13.97
677.16	13.75
677.347	13.17
677.533	14.16
677.719	14.11
677.906	13.82
678.092	14.27
678.279	14.1
678.465	13.87
678.651	14.59
678.838	14.46
679.024	14.88
679.21	14.86
679.397	14.92
679.583	14.83
679.769	14.6
679.955	14.67
680.142	14.56
680.328	14.84
680.514	15.07
680.7	14.18
680.886	14.23
681.073	13.77
681.259	14.02
681.445	13.75
681.631	13.71
681.817	13.85
682.003	14.12
682.189	14.12
682.375	14.17
682.561	14.27
682.747	14.58
682.933	14.78
683.119	15.17
683.305	15.01
683.491	15.58
683.677	15.43
683.863	15.35
684.049	15.49
684.235	15.04
684.42	14.73
684.606	14.76
684.792	14.37
684.978	14.51
685.164	14.29
685.349	13.91
685.535	13.99
685.721	14.11
685.907	13.93
686.092	13.62
686.278	13.69
686.464	13.76
686.649	13.7
686.835	13.78
687.021	13.52
687.206	13.18
687.392	13.21
687.577	12.8
687.763	12.63
687.948	12.94
688.134	12.9
688.319	13.21
688.505	13.15
688.69	13.45
688.876	14.23
689.061	14.02
689.247	14.35
689.432	14.77
689.618	14.64
689.803	14.45
689.988	14.67
690.174	14.57
690.359	15.12
690.544	15.2
690.73	14.67
690.915	14.18
691.1	14.77
691.285	14.51
691.471	14.46
691.656	14.6
691.841	14.99
692.026	13.63
692.211	14.08
692.396	13.47
692.582	13.47
692.767	13.61
692.952	13.6
693.137	12.93
693.322	13.66
693.507	12.93
693.692	12.73
693.877	11.95
694.062	12.75
694.247	12.42
694.432	13.08
694.617	13.09
694.802	13.65
694.987	13.41
695.172	13.45
695.357	12.71
695.541	13.65
695.726	14.1
695.911	14.99
696.096	15.05
696.281	15.01
696.466	14.78
696.65	14.96
696.835	14.94
697.02	15.28
697.204	15.6
697.389	15.6
697.574	15.17
697.759	15.62
697.943	15.06
698.128	15.15
698.312	15.41
698.497	15.21
698.682	15.61
698.866	15.32
699.051	14.98
699.235	14.84
699.42	14.84
699.604	15.08
699.789	14.69
699.973	15.08
700.158	15.08
700.342	14.95
700.527	15.04
700.711	14.3
700.895	14.28
701.08	13.84
701.264	13.67
701.448	13.48
701.633	13.49
701.817	12.81
702.001	12.47
702.186	12.05
702.37	11.86
702.554	11.18
702.738	11.1
702.923	11.65
703.107	12.18
703.291	12.97
703.475	13.64
703.659	14.02
703.843	13.63
704.027	13.92
704.212	13.54
704.396	13.43
704.58	13.85
704.764	13.74
704.948	12.43
705.132	12.29
705.316	11.78
705.5	11.26
705.684	10.52
705.868	12.14
706.052	12.08
706.235	13.53
706.419	14.41
706.603	15.41
706.787	16.61
706.971	17.34
707.155	17.41
707.339	17.9
707.522	18.34
707.706	18.42
707.89	17.08
708.074	17.27
708.257	16.74
708.441	16.22
708.625	15.19
708.808	14.66
708.992	14.68
709.176	14.34
709.359	13.88
709.543	12.86
709.727	12.82
709.91	13.59
710.094	14.01
710.277	13.75
710.461	13.66
710.644	13.8
710.828	13.81
711.011	13.83
711.195	14.09
711.378	14.7
711.562	14.65
711.745	14.4
711.928	14.58
712.112	13.95
712.295	14.16
712.478	14.23
712.662	14.04
712.845	13.43
713.028	13.31
713.212	13.56
713.395	12.95
713.578	13.61
713.761	14.67
713.945	14.75
714.128	15.44
714.311	15.44
714.494	15.65
714.677	16.48
714.86	16.03
715.043	16.25
715.227	15.37
715.41	15.35
715.593	15.47
715.776	15.21
715.959	15.03
716.142	14.93
716.325	15.43
716.508	14.79
716.691	13.86
716.874	15.2
717.057	15.58
717.239	16.8
717.422	17.1
717.605	16.55
717.788	16.19
717.971	16.26
718.154	15.78
718.337	14.78
718.519	15
718.702	16.83
718.885	16.77
719.068	16.07
719.25	15.83
719.433	15.53
719.616	16.77
719.798	16.33
719.981	15.34
720.164	15.42
720.346	16.22
720.529	17.25
720.712	14.26
720.894	13.29
721.077	13.09
721.259	13.85
721.442	13.19
721.624	13.45
721.807	14.22
721.989	14.97
722.172	14.79
722.354	14.47
722.537	14.22
722.719	14.43
722.901	14.82
723.084	15.09
723.266	14.78
723.448	14.96
723.631	14.68
723.813	14.16
723.995	14.71
724.178	14.62
724.36	14.44
724.542	13.53
724.724	14.93
724.907	14.65
725.089	14.79
725.271	14.34
725.453	14.85
725.635	12.76
725.817	12.49
725.999	12.3
726.181	11.59
726.364	12.13
726.546	12.52
726.728	11.5
726.91	11.33
727.092	11.91
727.274	12.57
727.456	11.82
727.638	13.48
727.819	14.08
728.001	13.57
728.183	13.28
728.365	12.62
728.547	13.41
728.729	14.12
728.911	14.4
729.093	13.7
729.274	12.32
729.456	13.63
729.638	13.24
729.82	13.21
730.001	13
730.183	13.54
730.365	13.43
730.546	11.94
730.728	12.4
730.91	11.83
731.091	11.36
731.273	12.1
731.455	11.48
731.636	10.25
731.818	10.48
731.999	10.69
732.181	11.07
732.362	11.56
732.544	11.54
732.725	11.76
732.907	13.17
733.088	13.25
733.27	13.49
733.451	12.7
733.633	14.41
733.814	14.23
733.995	14.9
734.177	15.1
734.358	14.63
734.539	15.28
734.721	14.44
734.902	13.77
735.083	13.25
735.264	11.78
735.446	12.11
735.627	11.81
735.808	12.26
735.989	11.58
736.17	11.71
736.351	11.67
736.533	11.25
736.714	11.38
736.895	10.92
737.076	13.73
737.257	16.11
737.438	15.57
737.619	15.63
737.8	14.36
737.981	15.15
738.162	14.9
738.343	16.46
738.524	17.03
738.705	16.75
738.886	15.67
739.067	13.5
739.247	14.26
739.428	15.1
739.609	15.08
739.79	16.94
739.971	17.32
740.151	16.47
740.332	14.67
740.513	15.21
740.694	14.38
740.874	16.29
741.055	17.1
741.236	16.18
741.417	15.57
741.597	15.63
741.778	14.93
741.958	13.53
742.139	14.63
742.32	15.14
742.5	14.81
742.681	16.1
742.861	16.66
743.042	16.38
743.222	16.81
743.403	17.62
743.583	18.34
743.764	18.2
743.944	19.63
744.124	17.9
744.305	19.44
744.485	18.86
744.666	18.91
744.846	17.96
745.026	18.08
745.207	17.44
745.387	17.71
745.567	17.49
745.747	16.91
745.928	14.68
746.108	15.17
746.288	13.12
746.468	12.85
746.648	12.29
746.829	10.78
747.009	10.42
747.189	9.32
747.369	10.12
747.549	10.24
747.729	11.19
747.909	12.29
748.089	12.4
748.269	13.89
748.449	13.59
748.629	12.71
748.809	13.36
748.989	14.36
749.169	14.99
749.349	15.09
749.529	14.68
749.709	14.42
749.889	13.33
750.068	15.08
750.248	13.83
750.428	15.56
750.608	18.47
750.788	18.87
750.967	18.27
751.147	18.92
751.327	17.56
751.507	17.27
751.686	17.73
751.866	19.3
752.046	18.29
752.225	18.28
752.405	18.75
752.585	16.94
752.764	15.64
752.944	16.53
753.123	16.15
753.303	15.48
753.482	15.75
753.662	14.27
753.841	13.6
754.021	14.27
754.2	14.63
754.38	11.98
754.559	12.5
754.739	14.18
754.918	14.33
755.097	13.55
755.277	16.58
755.456	16.01
755.635	16.18
755.815	17.36
755.994	17.44
756.173	17.81
756.352	20.64
756.532	20.7
756.711	20.37
756.89	18.05
757.069	18.11
757.248	16.35
757.427	15.88
757.607	17.38
757.786	16.31
757.965	15.14
758.144	14.58
758.323	11.46
758.502	11.65
758.681	11.16
758.86	12.17
759.039	11.71
759.218	12.26
759.397	12.24
759.576	11.25
759.755	10.63
759.934	10.49
760.113	9.93
760.291	10.57
760.47	11.6
760.649	10.81
760.828	11.41
761.007	12.87
761.186	12.72
761.364	12.56
761.543	12.68
761.722	13.24
761.901	13.19
762.079	13.88
762.258	14.6
762.437	14.22
762.615	15.22
762.794	15.47
762.972	14.55
763.151	14.28
763.33	14.6
763.508	14.23
763.687	14.72
763.865	16.13
764.044	15.57
764.222	15.95
764.401	15.27
764.579	15.69
764.758	15.03
764.936	16.18
765.114	15.72
765.293	16.1
765.471	16.43
765.65	16.12
765.828	15.15
766.006	16.3
766.184	15.69
766.363	16.11
766.541	15.13
766.719	15.44
766.898	13.48
767.076	14.46
767.254	14.95
767.432	17.27
767.61	17.36
767.788	17.27
767.967	16.97
768.145	14.88
768.323	14.45
768.501	16.02
768.679	17.06
768.857	18
769.035	15.64
769.213	13.1
769.391	8.95
769.569	9.2
769.747	9.72
769.925	10.88
770.103	12.55
770.281	12.59
770.459	10.23
770.636	10.12
770.814	11.52
770.992	13.78
771.17	14.34
771.348	15.86
771.525	14.75
771.703	13.5
771.881	14.08
772.059	14.94
772.236	14.88
772.414	15.79
772.592	14.34
772.769	13.52
772.947	14.69
773.125	17.18
773.302	16.74
773.48	18.61
773.657	18.67
773.835	17.21
774.013	17.68
774.19	19.37
774.368	19.25
774.545	18.54
774.723	17.06
774.9	16.71
775.077	17.03
775.255	17.94
775.432	15.85
775.61	18.91
775.787	16.97
775.964	17.55
776.142	16.77
776.319	16.42
776.496	17.92
776.674	21.17
776.851	19.61
777.028	18.72
777.205	19.07
777.382	20.32
777.56	17.99
777.737	20.23
777.914	17.53
778.091	17.18
778.268	18.53
778.445	20.28
778.622	17.57
778.8	18.12
778.977	18.94
779.154	18.23
779.331	19.73
779.508	21.31
779.685	20.54
779.862	22.34
780.038	20.29
780.215	17.91
780.392	16.72
780.569	15.09
780.746	13.55
780.923	11.88
781.1	12.23
781.277	9.31
781.453	6.89
781.63	9.13
781.807	7.94
781.984	11.03
782.16	12.91
782.337	10.51
782.514	13.18
782.691	15.96
782.867	15.3
783.044	14.64
783.221	14.18
783.397	14.35
783.574	13.32
783.75	15.35
783.927	15.07
784.103	16.22
784.28	16.67
784.456	16.63
784.633	18.7
784.809	17.52
784.986	17.17
785.162	19.17
785.339	20.09
785.515	19.16
785.692	18.71
785.868	17.77
786.044	14.35
786.221	14.46
786.397	16.14
786.573	13.49
786.749	16.14
786.926	16.77
787.102	18.6
787.278	14
787.454	15
787.631	16.91
787.807	15.7
787.983	15.89
788.159	16.98
788.335	15.09
788.511	13.96
788.687	13.75
788.863	14.28
789.039	14.25
789.216	14.81
789.392	13.05
789.568	9.35
789.744	12.27
789.919	14.48
790.095	14.64
790.271	11.83
790.447	12.31
790.623	12.6
790.799	13.03
790.975	9.56
791.151	13.37
791.327	13.11
791.502	13.55
791.678	15.45
791.854	15.71
792.03	15.66
792.205	20.25
792.381	20.53
792.557	20.14
792.733	17.56
792.908	20.73
793.084	24.55
793.259	26.52
793.435	27.2
793.611	23.43
793.786	25.67
793.962	23.69
794.137	22.73
794.313	20.64
794.488	19.54
794.664	19.42
794.839	17.34
795.015	13.11
795.19	11.56
795.366	11.35
795.541	10.89
795.716	5.97
795.892	7.76
796.067	11.61
796.242	13.61
796.418	18.1
796.593	18.74
796.768	18.16
796.944	16.47
797.119	17.11
797.294	18.02
797.469	19.53
797.644	20.53
797.82	23.5
797.995	19.99
798.17	19.91
798.345	15.5
798.52	16.32
798.695	18.71
798.87	21.69
799.045	18.68
799.22	16.98
799.395	16.29
799.57	17.77
799.745	15.46
799.92	13.61
800.095	13.68
800.27	13.29
800.445	14.28
800.62	12.6
800.795	11.3
800.97	13.24
801.145	13.91
801.319	14.5
801.494	15.06
801.669	13.57
801.844	12.5
802.018	13.56
802.193	15.97
802.368	14.48
802.543	13.6
802.717	11.87
802.892	11.96
803.067	12.15
803.241	8.85
803.416	11.07
803.59	12.97
803.765	13.71
803.94	10.23
804.114	13.05
804.289	17.17
804.463	14.62
804.638	17.4
804.812	16.24
804.986	15.62
805.161	16.5
805.335	14.51
805.51	13.33
805.684	17.4
805.858	20.29
806.033	17.36
806.207	11.67
806.381	12.15
806.556	9.4
806.73	13.85
806.904	14.89
807.078	14.81
807.253	10.04
807.427	9.98
807.601	9.58
807.775	2.9
807.949	-2.66
808.123	-1.61
808.298	-3.23
808.472	-0.95
808.646	-0.54
808.82	-2.51
808.994	-0.2
809.168	4.91
809.342	4.64
809.516	2.3
809.69	8.57
809.864	14.47
810.038	17.08
810.212	21.49
810.385	22.05
810.559	20.28
810.733	21.04
810.907	17.46
811.081	15.67
811.255	12
811.428	12.86
811.602	15.38
811.776	15.12
811.95	13.01
812.123	8.37
812.297	7.66
812.471	6.61
812.644	6.98
812.818	10.79
812.992	10.44
813.165	14.9
813.339	17.41
813.512	10.63
813.686	14.42
813.86	16.56
814.033	17
814.207	18.95
814.38	19.8
814.554	20.79
814.727	18.7
814.9	18.11
815.074	16.17
815.247	13.57
815.421	12.9
815.594	5.73
815.767	1.36
815.941	-2.31
816.114	-7.5
816.287	-8.18
816.46	-10.65
816.634	-10.79
816.807	-5.16
816.98	-1.68
817.153	-2.63
817.327	-3.99
817.5	-1.37
817.673	3.54
817.846	12.71
818.019	17.49
818.192	18.32
818.365	24.39
818.538	28.71
818.711	24
818.884	22.75
819.057	21.52
819.23	24.44
819.403	24.5
819.576	19.94
819.749	17.79
819.922	18.21
820.095	14.52
820.268	9.46
820.441	10.11
820.614	15.44
820.786	17.65
820.959	18.85
821.132	17.89
821.305	17.83
821.477	19.28
821.65	19.58
821.823	17.85
821.996	19.95
822.168	20.8
822.341	20.41
822.514	18.4
822.686	18.56
822.859	18.8
823.031	19.39
823.204	18.77
823.376	18.87
823.549	18.92
823.722	19.66
823.894	19.34
824.067	18.57
824.239	17.58
824.411	19.17
824.584	17.66
824.756	18.38
824.929	17.8
825.101	19.39
825.273	18.42
825.446	18.24
825.618	18.73
825.79	18.67
825.963	18.12
826.135	19.5
826.307	18.67
826.479	20.6
826.652	19.71
826.824	19.58
826.996	18.38
827.168	19.78
827.34	20.63
827.512	21.08
827.684	22.74
827.856	24.74
828.029	25.51
828.201	23.79
828.373	22.53
828.545	21.62
828.717	23.76
828.889	24.35
829.061	24.42
829.232	23.82
829.404	19.5
829.576	18.71
829.748	14.85
829.92	13.8
830.092	14.55
830.264	13.92
830.436	16.07
830.607	14
830.779	11.4
830.951	10.24
831.123	9.69
831.294	15.83
831.466	7.42
831.638	17.35
831.809	14.3
831.981	16.82
832.153	22.99
832.324	18
832.496	19.27
832.667	19.57
832.839	20.76
833.011	21.8
833.182	20.5
833.354	20.94
833.525	18.71
833.697	20.85
833.868	21.48
834.039	15.75
834.211	20.55
834.382	21.02
834.554	22.12
834.725	19.23
834.896	15.36
835.068	14.61
835.239	17.47
835.41	15.09
835.581	12.63
835.753	9.7
835.924	16.03
836.095	11.6
836.266	8.46
836.438	8.5
836.609	11.43
836.78	13.59
836.951	15.43
837.122	16.8
837.293	16.27
837.464	19.75
837.635	20.28
837.806	18.95
837.977	23.91
838.148	27.54
838.319	26.5
838.49	26.52
838.661	28.77
838.832	25.08
839.003	18.3
839.174	25.25
839.345	29.46
839.516	30.26
839.687	28.03
839.857	24.88
840.028	18.02
840.199	19.88
840.37	17.92
840.54	22.71
840.711	23.1
840.882	28.81
841.053	27.29
841.223	29.34
841.394	25.46
841.564	22.22
841.735	24.64
841.906	35.89
842.076	40
842.247	39.73
842.417	34.04
842.588	30.1
842.758	28.89
842.929	25.11
843.099	19.39
843.27	27.97
843.44	37.93
843.611	32.01
843.781	21.88
843.951	16.37
844.122	15.21
844.292	26.52
844.462	32.36
844.633	39.4
844.803	44.13
844.973	31.28
845.144	24.77
845.314	17.89
845.484	29.43
845.654	36.73
845.824	59.57
845.995	32.63
846.165	23.95
846.335	42.21
846.505	19.48
846.675	34.44
846.845	46.1
847.015	39.34
847.185	21.05
847.355	24.3
847.525	-16.12
847.695	-41.93
847.865	-5.46
848.035	-13.61
848.205	-36.42
848.375	-44.83
848.545	-62.92
848.715	-75.8
848.884	-72.63
849.054	-88.51
849.224	-201.85
849.394	-56.04
849.564	-35.93
849.733	20.01
849.903	-9.28
850.073	-9.25
850.243	0.58
850.412	17.48
850.582	18.93
850.752	-13.35
850.921	-15.44
851.091	-23.51
851.26	-68.43
851.43	-48.89
851.599	-96.84
851.769	-91.46
851.939	-85.85
852.108	-74.05
852.278	-55.66
852.447	-60.29
852.616	-36.81
852.786	-17.74
852.955	-2.71
853.125	7.64
853.294	5.27
853.463	3.12
853.633	-1.77
853.802	-13.13
853.971	-2.26
854.141	-32.78
854.31	-34.83
854.479	-54.21
854.648	-71.87
854.818	-79.25
854.987	-60.27
855.156	-71.94
855.325	-59.31
855.494	-36.22
855.663	-19.7
855.832	-39.58
856.001	4.21
856.171	-13.47
856.34	-6.26
856.509	9.96
856.678	21.45
856.847	-49.03
857.016	-23.12
857.185	-31.77
857.353	-61.28
857.522	-74.82
857.691	-95.51
857.86	-78.12
858.029	-66.11
858.198	-72.8
858.367	-110.89
858.535	-125.12
858.704	-73.9
858.873	-103.95
859.042	-98.63
859.21	-67.33
859.379	-27.04
859.548	24.9
859.717	13.87
859.885	20.21
860.054	11.64
860.222	21.61
860.391	23.67
860.56	27.2
860.728	42.98
860.897	47.37
861.065	63.92
861.234	28.12
861.402	-8.01
861.571	31.92
861.739	14.29
861.908	52.59
862.076	28.63
862.244	29.08
862.413	12.15
862.581	-19.33
862.749	-27.69
862.918	-9.76
863.086	9
863.254	7.42
863.423	-8.41
863.591	-6.87
863.759	-5.03
863.927	-8.51
864.096	-29.21
864.264	-20.34
864.432	-14.06
864.6	-9.76
864.768	-33.37
864.936	-355.49
865.104	-344.52
865.272	-334.76
865.44	248.79
865.608	479.43
865.776	-205.96
865.944	728.23
866.112	-653.29
866.28	-527.71
866.448	-2221.74
866.616	-113.61
866.784	31.61
866.952	-42.98
867.12	-15.52
867.288	-31.79
867.455	-23.52
867.623	-47.39
867.791	-28.6
867.959	-23.83
868.127	23.24
868.294	30.37
868.462	30.57
868.63	36.25
868.797	54.97
868.965	40.45
869.133	33.84
869.3	36.11
869.468	32.93
869.636	29.73
869.803	8.76
869.971	-9.51
870.138	-24.54
870.306	-26.63
870.473	-69.31
870.641	-54.42
870.808	-25.52
870.975	-20.06
871.143	-35.61
871.31	-41.87
871.478	-27.55
871.645	-101.98
871.812	-87.25
871.98	-40.57
872.147	-90.04
872.314	-8.57
872.482	-14.06
872.649	-10.02
872.816	-14.79
872.983	22.49
873.15	34.13
873.318	27.03
873.485	59.84
873.652	63.5
873.819	56.01
873.986	61.47
874.153	22.92
874.32	9.69
874.487	-7.37
874.654	12.69
874.821	-14.64
874.988	-38.64
875.155	-50.3
875.322	-109.17
875.489	-297.66
875.656	6003.03
875.823	698.01
875.99	318.81
876.157	-322.13
876.324	-155.56
876.49	-97.92
876.657	-138.76
876.824	-132.79
876.991	-46.47
877.157	-7.1
877.324	30.15
877.491	24.67
877.658	24.09
877.824	10.51
877.991	-11.93
878.157	-27.61
878.324	-43.85
878.491	-44.46
878.657	-64.27
878.824	-59.52
878.99	-205.06
879.157	-1159.84
879.323	-245.63
879.49	10142.62
879.656	992.26
879.823	416.87
879.989	285.92
880.156	261.95
880.322	199.55
880.488	-100.28
880.655	-155.08
880.821	-62.72
880.987	-38.73
881.154	-12.29
881.32	3.69
881.486	20.82
881.652	17.6
881.819	17.77
881.985	20.15
882.151	22.38
882.317	19.68
882.483	23.72
882.649	23.82
882.816	24.22
882.982	21.97
883.148	21.2
883.314	18.18
883.48	17.39
883.646	19.79
883.812	21.78
883.978	18.85
884.144	19.34
884.31	19.49
884.476	19.83
884.642	21.46
884.807	23.43
884.973	22.85
885.139	25.98
885.305	29.56
885.471	29.58
885.637	32.85
885.802	38.52
885.968	41.09
886.134	34.49
886.3	39.15
886.465	36.87
886.631	37.51
886.797	39.36
886.962	33.94
887.128	28.54
887.293	28.15
887.459	20.17
887.625	13.24
887.79	15.38
887.956	15.1
888.121	8.71
888.287	0.47
888.452	-9.77
888.618	-17.94
888.783	-98.6
