Data from 2937892_Reflection_3.txt Node
Date: Wed Jul 15 14:02:59 EDT 2015
User: robert
Spectrometer: USB4E03001
Autoset integration time: false
Trigger mode: 4
Integration Time (sec): 1.000000E-1
Scans to average: 10
Electric dark correction enabled: true
Nonlinearity correction enabled: false
Boxcar width: 5
Stray light correction enabled: false
XAxis mode: Wavelengths
Stop averaging: false
Number of Pixels in Spectrum: 3648
>>>>>Begin Spectral Data<<<<<
177.566	853.7
177.785	203.92
178.005	522.37
178.225	-162
178.445	288.33
178.665	232.76
178.885	423.81
179.105	190.88
179.324	99.53
179.544	89.78
179.764	85.45
179.984	43.08
180.204	47.87
180.423	28.37
180.643	5.03
180.863	21.83
181.083	11.62
181.302	-57.9
181.522	-237.28
181.742	-2258.06
181.961	1780.56
182.181	481.48
182.401	285.04
182.621	288.7
182.84	1028.88
183.06	299.06
183.279	448.82
183.499	400.91
183.719	26.02
183.938	87.71
184.158	109.47
184.377	270.65
184.597	160.12
184.816	138.87
185.036	180.54
185.256	202.8
185.475	156.49
185.695	153.58
185.914	118.71
186.134	131.84
186.353	118.08
186.572	106.76
186.792	83.67
187.011	95.71
187.231	169.2
187.45	86.92
187.67	66.4
187.889	-12.69
188.108	15.72
188.328	-98.18
188.547	-115.07
188.766	-52.06
188.986	-110.68
189.205	9.79
189.424	15.52
189.644	-18.36
189.863	-1.09
190.082	2.89
190.302	34.04
190.521	34.75
190.74	53.3
190.959	71.11
191.178	61.1
191.398	67.13
191.617	44.62
191.836	13.61
192.055	55.23
192.274	5.43
192.494	81.79
192.713	41.09
192.932	32.77
193.151	-10.87
193.37	16.06
193.589	1.64
193.808	-37.6
194.027	-10.12
194.246	33.25
194.465	79.17
194.685	136.34
194.904	71.63
195.123	124.25
195.342	78.97
195.561	168.22
195.78	229.56
195.999	247.09
196.218	120.22
196.436	71.88
196.655	62.18
196.874	37.74
197.093	26.12
197.312	41.42
197.531	40.4
197.75	58.67
197.969	74.62
198.188	51.59
198.407	42.43
198.625	72.28
198.844	108.6
199.063	66.77
199.282	90.1
199.501	107.21
199.719	26.89
199.938	34.82
200.157	67.52
200.376	67.22
200.594	94.85
200.813	114.12
201.032	103.8
201.251	97.19
201.469	145.95
201.688	131.36
201.907	137.97
202.125	165.92
202.344	175.93
202.563	129.74
202.781	126.31
203	75.68
203.218	52.98
203.437	56.7
203.656	56.23
203.874	39.11
204.093	-2.01
204.311	-76.95
204.53	-137.02
204.748	-120.24
204.967	-313.47
205.185	-120.47
205.404	400.44
205.622	545.32
205.841	170.47
206.059	260.06
206.278	-2753.49
206.496	-111.81
206.715	349.32
206.933	-197.11
207.151	0.72
207.37	-78.42
207.588	2244.25
207.806	-88.95
208.025	-27.85
208.243	9.72
208.461	24.48
208.68	-89.57
208.898	-29.96
209.116	11.14
209.335	-7.38
209.553	-52.91
209.771	-2.46
209.989	5.37
210.208	31.51
210.426	-13.25
210.644	-64.46
210.862	-18.68
211.081	-51.41
211.299	-42.5
211.517	-35.06
211.735	-3.22
211.953	19.72
212.171	36.31
212.39	38.44
212.608	21.08
212.826	43.62
213.044	46.1
213.262	37.52
213.48	35.7
213.698	29.66
213.916	29.99
214.134	29.57
214.352	27.59
214.57	6.28
214.788	23.97
215.006	2.9
215.224	-34.31
215.442	-35.97
215.66	-15.27
215.878	0.82
216.096	-40.14
216.314	-41.15
216.532	-30.14
216.75	-24.14
216.968	3.83
217.185	-31.13
217.403	-7.97
217.621	8.72
217.839	15.67
218.057	-12.15
218.275	-13.26
218.492	8.83
218.71	11.33
218.928	6.81
219.146	20.14
219.363	-15.81
219.581	18.81
219.799	17.44
220.017	12.25
220.234	26.68
220.452	31.52
220.67	65.63
220.887	44.46
221.105	50.03
221.323	54.68
221.54	40.6
221.758	63.48
221.976	55.85
222.193	46.45
222.411	56.61
222.629	39.17
222.846	44.27
223.064	39.94
223.281	39.9
223.499	17.56
223.716	18.61
223.934	26.45
224.151	17.71
224.369	3.39
224.586	13.95
224.804	17.59
225.021	33.67
225.239	34.08
225.456	33.92
225.674	44.38
225.891	60.13
226.108	54.05
226.326	49.98
226.543	45.57
226.76	42.61
226.978	35.91
227.195	28.72
227.413	24.24
227.63	19.64
227.847	14.35
228.064	12.85
228.282	11.34
228.499	10.57
228.716	6.72
228.934	-0.15
229.151	1.3
229.368	1.66
229.585	0.48
229.802	2.2
230.02	1.33
230.237	2.96
230.454	0.04
230.671	0.16
230.888	2.41
231.105	2.14
231.323	8.67
231.54	12.91
231.757	15.86
231.974	15.81
232.191	17.84
232.408	20.51
232.625	22.27
232.842	25.21
233.059	23.23
233.276	21.1
233.493	25.96
233.71	29.19
233.927	23.02
234.144	15.92
234.361	17.97
234.578	21.07
234.795	24.21
235.012	24.39
235.229	19.78
235.446	21.81
235.663	25.36
235.879	23.03
236.096	20.71
236.313	24.32
236.53	27.82
236.747	25.52
236.964	17.79
237.181	18.59
237.397	17.57
237.614	24.43
237.831	25.89
238.048	23.57
238.264	21.41
238.481	21.68
238.698	22.79
238.915	19.43
239.131	20.83
239.348	23.4
239.565	22.99
239.781	23.92
239.998	21.44
240.215	18.31
240.431	18.34
240.648	19.45
240.865	16.98
241.081	17.4
241.298	21.53
241.514	21.91
241.731	19.81
241.947	18.78
242.164	15.99
242.38	16.52
242.597	16.9
242.814	15.2
243.03	13.56
243.246	13.24
243.463	10.77
243.679	9.98
243.896	10.71
244.112	8.78
244.329	8.02
244.545	8.6
244.762	8.35
244.978	9.3
245.194	10.7
245.411	11.94
245.627	14.71
245.843	17.85
246.06	17.13
246.276	17.05
246.492	19.28
246.709	20.05
246.925	20.17
247.141	19.77
247.357	19.63
247.574	19.19
247.79	19.81
248.006	19.14
248.222	18.35
248.439	18.17
248.655	17.66
248.871	17.08
249.087	16.46
249.303	16.91
249.519	16.27
249.736	16.27
249.952	16.85
250.168	16.59
250.384	16.69
250.6	17.19
250.816	17.55
251.032	17.65
251.248	18.4
251.464	19.69
251.68	18.23
251.896	19.94
252.112	18.26
252.328	17.08
252.544	16.2
252.76	17.95
252.976	16.53
253.192	16.36
253.408	16.1
253.624	15.66
253.84	11.69
254.056	10.79
254.272	9.91
254.487	12.72
254.703	13.8
254.919	13.21
255.135	13.35
255.351	11.14
255.567	8.17
255.782	8.41
255.998	8.98
256.214	13.28
256.43	15.71
256.646	16.81
256.861	16.24
257.077	17.29
257.293	16.85
257.508	16.75
257.724	17.49
257.94	16.55
258.155	16.24
258.371	15.34
258.587	14.62
258.802	15.2
259.018	13.58
259.234	12.98
259.449	12.16
259.665	12.67
259.88	12.29
260.096	12.88
260.312	13.87
260.527	13.57
260.743	14.26
260.958	13.47
261.174	12.72
261.389	12.64
261.605	12.29
261.82	12.43
262.036	12.83
262.251	11.63
262.466	11.06
262.682	10.82
262.897	10.34
263.113	9
263.328	10.08
263.543	9.58
263.759	9.23
263.974	9.29
264.189	8.47
264.405	4.65
264.62	6.58
264.835	6.62
265.051	5.66
265.266	7.19
265.481	7.94
265.696	6.63
265.912	6.89
266.127	5.96
266.342	5.49
266.557	7.28
266.773	6.7
266.988	6.44
267.203	8.05
267.418	8.37
267.633	6.54
267.848	6.77
268.064	8.43
268.279	8.62
268.494	9.58
268.709	10.69
268.924	9.25
269.139	11.77
269.354	11.25
269.569	9.96
269.784	9.9
269.999	12.36
270.214	11.02
270.429	9.41
270.644	8.63
270.859	10.21
271.074	8.91
271.289	10.71
271.504	10.54
271.719	11.02
271.934	11.85
272.149	11.4
272.363	10.3
272.578	11.12
272.793	13.98
273.008	14.51
273.223	13.89
273.438	14.51
273.653	12.96
273.867	13.71
274.082	13.42
274.297	12.95
274.512	11.31
274.726	11.76
274.941	11.73
275.156	8.54
275.371	6.38
275.585	6.21
275.8	7.22
276.015	7.26
276.229	5.39
276.444	7.32
276.659	6.09
276.873	9.07
277.088	9.71
277.302	8.06
277.517	8.76
277.732	9.39
277.946	8.87
278.161	8.91
278.375	10.27
278.59	10.42
278.804	8.42
279.019	9.49
279.233	9.28
279.448	8.58
279.662	9.4
279.877	9.73
280.091	9.43
280.306	9.93
280.52	9.77
280.735	10.51
280.949	11.51
281.163	11.58
281.378	12.12
281.592	11.21
281.806	12.62
282.021	12.77
282.235	13.26
282.449	16.24
282.664	14.8
282.878	14.86
283.092	14.19
283.307	14.34
283.521	14.77
283.735	15.9
283.949	16.63
284.164	14.8
284.378	13.55
284.592	13.71
284.806	11.62
285.02	12.93
285.234	11.99
285.449	11.99
285.663	11.58
285.877	11.58
286.091	9.61
286.305	9.92
286.519	10.81
286.733	12.05
286.947	11.93
287.161	12.7
287.375	13.23
287.589	13.36
287.803	14.12
288.017	14.26
288.231	14.37
288.445	14.78
288.659	13.01
288.873	12.91
289.087	12.22
289.301	12.86
289.515	14.04
289.729	14.15
289.943	14.4
290.157	13.88
290.371	13.86
290.584	13.69
290.798	15.01
291.012	16.12
291.226	16.07
291.44	17.01
291.654	14.83
291.867	13.88
292.081	12.25
292.295	12.85
292.509	13.19
292.722	14.12
292.936	14.99
293.15	13.69
293.364	14.8
293.577	13.91
293.791	14.11
294.005	16.57
294.218	17.63
294.432	17.98
294.645	17.33
294.859	16.55
295.073	15.76
295.286	15.1
295.5	15.2
295.713	14.98
295.927	15.52
296.14	15.54
296.354	15.46
296.568	14.89
296.781	14.85
296.994	15.22
297.208	15.39
297.421	14.38
297.635	14.34
297.848	15.43
298.062	15.91
298.275	16.33
298.489	15.82
298.702	15.44
298.915	15.83
299.129	15.44
299.342	16.12
299.555	16.18
299.769	17.34
299.982	17.98
300.195	18.38
300.409	18.11
300.622	17.36
300.835	18.79
301.048	19.46
301.262	20.15
301.475	21.14
301.688	19.98
301.901	19.23
302.115	20.11
302.328	19.05
302.541	18.85
302.754	17.96
302.967	18.79
303.18	18.64
303.393	18.39
303.607	17.11
303.82	17.16
304.033	18.6
304.246	19.73
304.459	20.05
304.672	21.71
304.885	21.18
305.098	21.19
305.311	20.97
305.524	20.6
305.737	19.53
305.95	20.37
306.163	20.28
306.376	19.14
306.589	18.54
306.802	17.22
307.015	16.25
307.228	16.22
307.44	17.28
307.653	17.33
307.866	16.89
308.079	18.58
308.292	19.23
308.505	20.3
308.718	21.2
308.93	21.96
309.143	22.82
309.356	23.2
309.569	23.94
309.781	23.13
309.994	23.79
310.207	23.52
310.42	22.26
310.632	21.29
310.845	20.42
311.058	19.63
311.27	19.77
311.483	18.86
311.696	16.81
311.908	16.12
312.121	16.08
312.333	15.08
312.546	15.55
312.759	16.55
312.971	16.79
313.184	18.1
313.396	18.14
313.609	18
313.821	18.6
314.034	19.28
314.246	18.83
314.459	19.97
314.671	19.76
314.884	19.65
315.096	19.65
315.309	19.96
315.521	20.16
315.733	20.41
315.946	19.44
316.158	19.92
316.371	22.47
316.583	24.02
316.795	24.54
317.008	25.12
317.22	24.53
317.432	23.09
317.644	22.63
317.857	22.68
318.069	22.41
318.281	24.33
318.494	25.37
318.706	23.24
318.918	22.93
319.13	20.48
319.342	21.64
319.555	23.33
319.767	24.32
319.979	24.01
320.191	22.52
320.403	23.09
320.615	20.55
320.827	18.63
321.039	20.82
321.252	20.16
321.464	21.23
321.676	21.03
321.888	20.06
322.1	18.91
322.312	19.43
322.524	20.48
322.736	20.39
322.948	22.07
323.16	24.33
323.372	22.92
323.584	22.36
323.796	22.01
324.007	21.26
324.219	19.95
324.431	21.07
324.643	21.5
324.855	21.01
325.067	21.49
325.279	21.33
325.491	20.11
325.702	22.29
325.914	23.74
326.126	25.61
326.338	26.45
326.55	27.53
326.761	27.88
326.973	28.63
327.185	30.46
327.396	31.97
327.608	33.12
327.82	33.6
328.032	32.73
328.243	33.48
328.455	33.23
328.666	32.57
328.878	34.17
329.09	33.78
329.301	32.13
329.513	32.08
329.725	29.82
329.936	27.95
330.148	27.82
330.359	28.7
330.571	27.62
330.782	27.63
330.994	29.06
331.205	28.92
331.417	29.56
331.628	30.52
331.84	29.76
332.051	30.17
332.262	32.28
332.474	33.04
332.685	32.77
332.897	34.13
333.108	34.99
333.319	35.2
333.531	35.57
333.742	36.01
333.953	37.1
334.165	36.84
334.376	37.33
334.587	36.94
334.799	36.03
335.01	35.47
335.221	34.54
335.432	34.66
335.644	34.58
335.855	34.46
336.066	34.96
336.277	34.26
336.488	34.65
336.7	35.81
336.911	35.92
337.122	35.81
337.333	36.03
337.544	36.18
337.755	35.83
337.966	35.67
338.177	35.67
338.388	35.76
338.599	37.09
338.811	36.55
339.022	36.08
339.233	35.8
339.444	36.58
339.655	37.78
339.866	36.69
340.076	36.21
340.287	36.02
340.498	35.97
340.709	35.45
340.92	34.41
341.131	35.45
341.342	35.35
341.553	35.4
341.764	35.47
341.975	35.11
342.185	35.69
342.396	37.5
342.607	37.89
342.818	37.71
343.029	38.78
343.239	38.92
343.45	38.67
343.661	38.97
343.872	40.22
344.082	40.72
344.293	40.76
344.504	42.9
344.714	41.3
344.925	41.8
345.136	41.68
345.346	40.78
345.557	41.55
345.768	42.29
345.978	43.6
346.189	43.02
346.399	42.78
346.61	41.64
346.821	39.23
347.031	40.34
347.242	39.13
347.452	40.47
347.663	41.1
347.873	40.48
348.084	38.58
348.294	37.65
348.504	38.11
348.715	37.72
348.925	39.13
349.136	39.84
349.346	38.49
349.557	38.83
349.767	37.35
349.977	37.16
350.188	38.07
350.398	39.6
350.608	38.77
350.819	37.75
351.029	38.45
351.239	39.25
351.449	39.55
351.66	40.05
351.87	40.88
352.08	42.22
352.29	42.48
352.501	41.77
352.711	41.7
352.921	40.79
353.131	41.64
353.341	40.7
353.552	39.12
353.762	39.37
353.972	40.26
354.182	38.57
354.392	38.61
354.602	38.23
354.812	37.15
355.022	36.68
355.232	38.26
355.442	37.89
355.652	39
355.862	39.52
356.072	38.81
356.282	37.83
356.492	38.78
356.702	38.41
356.912	38.67
357.122	38.57
357.332	38.87
357.542	38.67
357.752	38.5
357.962	38.51
358.171	38.42
358.381	38.51
358.591	39.29
358.801	39.1
359.011	38.7
359.221	38.44
359.43	38.8
359.64	38.75
359.85	37.71
360.06	37.39
360.269	37.51
360.479	37.43
360.689	36.88
360.899	36.29
361.108	36.57
361.318	37.42
361.528	37.9
361.737	37.91
361.947	37.6
362.156	38.69
362.366	38.65
362.576	38.22
362.785	37.88
362.995	37.71
363.204	37.63
363.414	37.75
363.623	36.77
363.833	36.46
364.042	36.99
364.252	36.9
364.461	36.29
364.671	36.72
364.88	36.61
365.09	37.04
365.299	37.47
365.509	39.05
365.718	38.85
365.927	38.64
366.137	38.29
366.346	36.79
366.555	36.25
366.765	36.14
366.974	35.86
367.183	34.72
367.393	35.16
367.602	35.55
367.811	34.17
368.021	34.42
368.23	34.35
368.439	33.8
368.648	34.37
368.857	35.23
369.067	34.17
369.276	33.91
369.485	34.56
369.694	34.75
369.903	34.23
370.112	33.87
370.321	32.9
370.531	33.62
370.74	33.71
370.949	33.1
371.158	32.98
371.367	33.11
371.576	33.03
371.785	33.08
371.994	31.78
372.203	31.86
372.412	31.42
372.621	32.21
372.83	32.17
373.039	32.22
373.248	32.84
373.457	32.73
373.666	33.12
373.874	32.89
374.083	32.11
374.292	32.17
374.501	32.32
374.71	32.26
374.919	31.48
375.128	30.33
375.336	29.86
375.545	29.78
375.754	28.77
375.963	28.44
376.171	27.97
376.38	28.2
376.589	28.06
376.798	27.68
377.006	27.79
377.215	27.46
377.424	27.65
377.632	28.09
377.841	27.57
378.05	27.99
378.258	28.36
378.467	29.04
378.675	28.88
378.884	29.2
379.093	29.12
379.301	28.84
379.51	28.78
379.718	29.15
379.927	28.98
380.135	29.08
380.344	28.93
380.552	27.72
380.761	27.05
380.969	27.37
381.177	26.87
381.386	26.7
381.594	26.77
381.803	26.56
382.011	26.57
382.219	26.23
382.428	26.28
382.636	25.94
382.845	26.53
383.053	26.87
383.261	26.81
383.469	26.72
383.678	26.22
383.886	25.81
384.094	25.93
384.302	24.76
384.511	24.51
384.719	24.32
384.927	24.12
385.135	23.94
385.343	23.21
385.552	22.82
385.76	22.68
385.968	22.87
386.176	23.32
386.384	23.16
386.592	24.14
386.8	24.33
387.008	24.12
387.216	24.08
387.424	23.75
387.633	23.68
387.841	23.57
388.049	23.51
388.257	23.4
388.465	23
388.672	22.97
388.88	22.18
389.088	21.68
389.296	21.74
389.504	21.45
389.712	21.36
389.92	21.42
390.128	21.34
390.336	21.39
390.544	21.13
390.751	20.71
390.959	20.6
391.167	20.76
391.375	20.77
391.583	20.66
391.79	20.89
391.998	21.07
392.206	20.91
392.414	20.5
392.621	20.35
392.829	20.24
393.037	20.49
393.244	20.45
393.452	20.28
393.66	20.17
393.867	19.98
394.075	19.94
394.283	19.54
394.49	19.91
394.698	20
394.905	19.89
395.113	19.89
395.32	19.97
395.528	19.68
395.735	19.6
395.943	19.5
396.15	19.63
396.358	19.31
396.565	19.39
396.773	19.07
396.98	19.48
397.188	19.15
397.395	19.23
397.602	19.07
397.81	19.42
398.017	19.75
398.225	20.11
398.432	20.28
398.639	20.73
398.847	20.87
399.054	20.55
399.261	20.13
399.468	20.47
399.676	20.4
399.883	20.56
400.09	20.65
400.297	20.11
400.505	19.25
400.712	18.53
400.919	18.19
401.126	18.15
401.333	18.17
401.54	17.94
401.748	17.77
401.955	17.61
402.162	17.27
402.369	16.67
402.576	17.06
402.783	17.7
402.99	17.85
403.197	17.74
403.404	17.44
403.611	17.27
403.818	17.48
404.025	17.43
404.232	17.43
404.439	17.49
404.646	17.81
404.853	17.46
405.06	17.37
405.267	17.48
405.474	17.47
405.681	17.57
405.887	17.86
406.094	17.7
406.301	17.8
406.508	17.83
406.715	17.75
406.922	17.29
407.128	17.52
407.335	17.47
407.542	17.45
407.749	17.23
407.955	17.17
408.162	17.1
408.369	17.17
408.575	17.09
408.782	16.99
408.989	16.66
409.195	16.56
409.402	16.6
409.609	16.64
409.815	16.74
410.022	16.81
410.228	16.86
410.435	16.8
410.642	16.5
410.848	16.3
411.055	16.25
411.261	16.49
411.468	17.11
411.674	17.03
411.881	16.75
412.087	16.78
412.294	16.99
412.5	16.71
412.706	16.52
412.913	16.81
413.119	17.03
413.326	17.05
413.532	17.02
413.738	16.96
413.945	16.85
414.151	17.1
414.357	16.75
414.564	16.55
414.77	16.55
414.976	16.67
415.182	16.76
415.389	16.48
415.595	16.35
415.801	16.35
416.007	15.92
416.214	15.79
416.42	15.89
416.626	15.93
416.832	15.89
417.038	16.15
417.244	16.17
417.45	16.07
417.657	16.21
417.863	16.2
418.069	16.19
418.275	16.3
418.481	16.34
418.687	16.02
418.893	16.16
419.099	16.16
419.305	16.04
419.511	16.13
419.717	16
419.923	15.97
420.129	15.99
420.335	15.97
420.541	15.74
420.746	15.66
420.952	15.74
421.158	15.56
421.364	15.62
421.57	15.59
421.776	15.44
421.982	15.41
422.187	15.22
422.393	15.3
422.599	15.31
422.805	15.5
423.01	15.4
423.216	15.42
423.422	15.43
423.628	15.25
423.833	15.29
424.039	15.27
424.245	15.15
424.45	15.11
424.656	14.96
424.862	14.85
425.067	14.89
425.273	14.87
425.478	14.73
425.684	14.69
425.889	14.7
426.095	14.56
426.301	14.45
426.506	14.65
426.712	14.71
426.917	14.62
427.123	14.66
427.328	14.51
427.533	14.55
427.739	14.67
427.944	14.79
428.15	14.77
428.355	14.82
428.561	14.86
428.766	14.61
428.971	14.77
429.177	14.84
429.382	14.52
429.587	14.37
429.793	14.41
429.998	14.38
430.203	14.14
430.408	14.39
430.614	14.37
430.819	14.29
431.024	14.26
431.229	14.18
431.434	14.2
431.64	14.36
431.845	14.3
432.05	14.25
432.255	14.38
432.46	14.64
432.665	14.5
432.87	14.63
433.076	14.68
433.281	14.79
433.486	14.69
433.691	14.75
433.896	14.72
434.101	14.71
434.306	14.8
434.511	14.62
434.716	14.31
434.921	14.22
435.126	14.05
435.331	14.29
435.535	14.46
435.74	14.68
435.945	14.66
436.15	14.85
436.355	15.14
436.56	15.12
436.765	14.8
436.97	14.98
437.174	15.04
437.379	15.08
437.584	14.91
437.789	14.84
437.993	14.84
438.198	14.71
438.403	14.63
438.608	14.55
438.812	14.42
439.017	14.62
439.222	14.66
439.426	14.69
439.631	14.62
439.836	14.5
440.04	14.37
440.245	14.3
440.45	14.29
440.654	14.41
440.859	14.36
441.063	14.43
441.268	14.66
441.472	14.6
441.677	14.64
441.881	14.61
442.086	14.7
442.29	14.84
442.495	14.95
442.699	15.08
442.904	15.07
443.108	15.08
443.312	15.22
443.517	14.9
443.721	14.86
443.925	14.8
444.13	14.84
444.334	14.8
444.538	14.94
444.743	14.63
444.947	14.75
445.151	14.59
445.356	14.61
445.56	14.49
445.764	14.5
445.968	14.44
446.173	14.46
446.377	14.37
446.581	14.43
446.785	14.23
446.989	14.27
447.193	14.14
447.398	14.19
447.602	14.04
447.806	14.06
448.01	14.19
448.214	14.1
448.418	13.95
448.622	14.09
448.826	14.02
449.03	13.99
449.234	14.18
449.438	14.17
449.642	14.27
449.846	14.38
450.05	14.42
450.254	14.3
450.458	14.47
450.662	14.61
450.866	14.56
451.069	14.64
451.273	14.57
451.477	14.52
451.681	14.77
451.885	14.48
452.089	14.59
452.292	14.49
452.496	14.63
452.7	14.51
452.904	14.23
453.107	14.2
453.311	13.96
453.515	14.05
453.719	14.09
453.922	13.73
454.126	13.85
454.33	13.79
454.533	13.69
454.737	13.36
454.94	13.65
455.144	13.96
455.348	13.93
455.551	13.86
455.755	13.98
455.958	13.84
456.162	13.88
456.365	13.99
456.569	13.86
456.772	13.87
456.976	14.12
457.179	13.95
457.383	13.93
457.586	13.89
457.79	14.06
457.993	13.91
458.196	13.87
458.4	13.88
458.603	13.74
458.807	13.74
459.01	13.9
459.213	13.96
459.417	13.84
459.62	13.88
459.823	13.99
460.026	13.86
460.23	13.88
460.433	13.75
460.636	13.77
460.839	13.7
461.042	13.84
461.246	13.78
461.449	13.73
461.652	13.9
461.855	13.82
462.058	13.83
462.261	13.97
462.464	13.84
462.668	13.97
462.871	14.02
463.074	14.15
463.277	14.22
463.48	14.13
463.683	14.06
463.886	14.14
464.089	14.05
464.292	13.89
464.495	13.91
464.698	14.15
464.901	14.13
465.104	14.03
465.306	14.03
465.509	13.95
465.712	14.03
465.915	13.85
466.118	13.65
466.321	13.6
466.524	13.74
466.726	13.81
466.929	13.84
467.132	14.03
467.335	14.22
467.538	14.22
467.74	14.11
467.943	14.05
468.146	14.41
468.348	14.45
468.551	14.51
468.754	14.56
468.956	14.45
469.159	14.48
469.362	14.26
469.564	14.01
469.767	14.11
469.969	14.41
470.172	14.34
470.375	13.94
470.577	13.99
470.78	14.21
470.982	13.94
471.185	14.32
471.387	14.12
471.59	14.21
471.792	14.36
471.995	14.21
472.197	14.01
472.399	14.14
472.602	14.44
472.804	14.48
473.007	14.39
473.209	14.39
473.411	14.04
473.614	14.03
473.816	14.07
474.018	14.03
474.22	14.08
474.423	14.03
474.625	13.9
474.827	13.82
475.03	13.65
475.232	13.69
475.434	13.73
475.636	13.71
475.838	13.74
476.04	13.68
476.243	13.64
476.445	13.71
476.647	13.75
476.849	13.9
477.051	13.78
477.253	13.9
477.455	13.83
477.657	14.06
477.859	14.19
478.061	14.25
478.263	14.22
478.465	14.33
478.667	14.27
478.869	14.25
479.071	14.17
479.273	14.14
479.475	14.03
479.677	14
479.879	14.03
480.081	14.04
480.283	13.99
480.485	14.2
480.686	14.1
480.888	14.22
481.09	14.17
481.292	14.2
481.494	14.29
481.695	14.36
481.897	14.37
482.099	14.37
482.301	14.37
482.502	14.4
482.704	14.34
482.906	14.27
483.107	14.21
483.309	14.14
483.511	14.14
483.712	14.05
483.914	13.98
484.115	13.94
484.317	13.84
484.519	13.77
484.72	13.7
484.922	13.65
485.123	13.64
485.325	13.55
485.526	13.6
485.728	13.56
485.929	13.59
486.131	13.62
486.332	13.61
486.534	13.68
486.735	13.69
486.936	13.77
487.138	13.74
487.339	13.73
487.541	13.76
487.742	13.74
487.943	13.79
488.144	13.83
488.346	13.8
488.547	13.86
488.748	13.82
488.95	13.84
489.151	13.7
489.352	13.78
489.553	13.85
489.755	13.91
489.956	13.94
490.157	13.85
490.358	13.88
490.559	13.97
490.76	13.96
490.961	13.87
491.163	13.91
491.364	13.99
491.565	13.95
491.766	13.91
491.967	13.9
492.168	13.8
492.369	13.79
492.57	13.88
492.771	13.79
492.972	13.73
493.173	13.88
493.374	13.8
493.575	13.87
493.776	13.86
493.976	13.76
494.177	13.81
494.378	13.94
494.579	14.07
494.78	13.82
494.981	13.89
495.182	14.05
495.382	14
495.583	14.28
495.784	14.41
495.985	14.36
496.185	14.53
496.386	14.44
496.587	14.38
496.788	14.38
496.988	14.39
497.189	14.41
497.39	14.13
497.59	14.35
497.791	14.15
497.992	14.05
498.192	14.02
498.393	14.15
498.593	14.19
498.794	14.14
498.994	14.19
499.195	14.28
499.395	14.36
499.596	14.62
499.796	14.45
499.997	14.6
500.197	14.54
500.398	14.67
500.598	14.63
500.799	14.75
500.999	14.72
501.199	14.5
501.4	14.55
501.6	14.55
501.801	14.71
502.001	14.71
502.201	14.56
502.402	14.67
502.602	14.76
502.802	14.68
503.002	14.74
503.203	15.02
503.403	14.95
503.603	15.02
503.803	14.99
504.003	14.87
504.204	14.76
504.404	14.87
504.604	14.93
504.804	14.84
505.004	14.99
505.204	14.87
505.404	14.92
505.604	15.22
505.804	15.09
506.005	15.09
506.205	15.14
506.405	15.11
506.605	15.01
506.805	14.9
507.005	15.1
507.204	15.1
507.404	15.02
507.604	15.01
507.804	15.07
508.004	15.07
508.204	15.15
508.404	15.11
508.604	15.25
508.804	15.27
509.003	15.37
509.203	15.2
509.403	15.08
509.603	15.23
509.803	15.21
510.002	15.16
510.202	15.26
510.402	15.32
510.602	15.42
510.801	15.44
511.001	15.56
511.201	15.63
511.4	15.76
511.6	15.82
511.8	15.82
511.999	15.84
512.199	15.88
512.398	15.84
512.598	15.85
512.797	15.95
512.997	16.01
513.197	16.06
513.396	15.98
513.596	15.86
513.795	15.82
513.994	15.86
514.194	15.94
514.393	15.98
514.593	16
514.792	15.96
514.992	15.91
515.191	15.89
515.39	15.73
515.59	15.72
515.789	16.01
515.988	16.21
516.188	16.33
516.387	16.3
516.586	16.16
516.786	16.14
516.985	16.29
517.184	16.28
517.383	16.24
517.582	16.27
517.782	16.41
517.981	16.34
518.18	16.32
518.379	16.21
518.578	16.26
518.777	16.37
518.976	16.39
519.176	16.38
519.375	16.39
519.574	16.29
519.773	16.37
519.972	16.43
520.171	16.44
520.37	16.45
520.569	16.51
520.768	16.42
520.967	16.53
521.166	16.55
521.365	16.52
521.564	16.54
521.762	16.75
521.961	16.81
522.16	16.72
522.359	16.82
522.558	16.79
522.757	16.85
522.956	16.96
523.154	16.87
523.353	17.02
523.552	16.99
523.751	17.07
523.949	17.09
524.148	17.03
524.347	17.05
524.546	16.9
524.744	16.96
524.943	16.96
525.142	16.94
525.34	17.03
525.539	17.05
525.737	17.12
525.936	17.1
526.135	17.14
526.333	17.17
526.532	16.99
526.73	17.06
526.929	17.14
527.127	17.16
527.326	17.17
527.524	17.18
527.723	17.17
527.921	17.17
528.12	17.14
528.318	17.18
528.516	17.26
528.715	17.36
528.913	17.43
529.112	17.4
529.31	17.44
529.508	17.42
529.707	17.44
529.905	17.48
530.103	17.52
530.301	17.57
530.5	17.54
530.698	17.53
530.896	17.57
531.094	17.65
531.293	17.78
531.491	17.68
531.689	17.75
531.887	17.75
532.085	17.75
532.283	17.67
532.481	17.71
532.68	17.81
532.878	17.91
533.076	18
533.274	17.98
533.472	17.95
533.67	17.98
533.868	18.01
534.066	18.01
534.264	18.06
534.462	18.06
534.66	18.06
534.858	18.11
535.056	18.05
535.253	18.03
535.451	17.93
535.649	17.9
535.847	17.97
536.045	18.04
536.243	18.14
536.441	18.19
536.638	18.27
536.836	18.46
537.034	18.47
537.232	18.59
537.43	18.49
537.627	18.57
537.825	18.65
538.023	18.78
538.22	18.9
538.418	18.87
538.616	18.81
538.813	19.05
539.011	19
539.209	18.94
539.406	18.88
539.604	18.94
539.801	19.06
539.999	19.16
540.196	19.06
540.394	18.95
540.591	18.99
540.789	18.97
540.986	18.88
541.184	18.88
541.381	18.95
541.579	18.96
541.776	19.01
541.974	18.9
542.171	18.85
542.368	18.92
542.566	18.86
542.763	18.9
542.96	18.95
543.158	18.96
543.355	18.91
543.552	18.9
543.75	18.89
543.947	18.91
544.144	19.08
544.341	19.11
544.539	19.07
544.736	19.25
544.933	19.2
545.13	19.26
545.327	19.21
545.524	19.37
545.722	19.36
545.919	19.29
546.116	19.43
546.313	19.34
546.51	19.38
546.707	19.49
546.904	19.57
547.101	19.68
547.298	19.74
547.495	19.91
547.692	20.03
547.889	20.15
548.086	20.33
548.283	20.2
548.48	20.34
548.677	20.26
548.874	20.25
549.07	20.11
549.267	20.08
549.464	20.17
549.661	20.03
549.858	19.99
550.055	19.88
550.251	19.9
550.448	20.04
550.645	20.25
550.842	20.49
551.038	20.46
551.235	20.46
551.432	20.42
551.628	20.42
551.825	20.72
552.022	20.69
552.218	20.92
552.415	21.11
552.612	21.18
552.808	21.03
553.005	21.06
553.201	21.16
553.398	21.32
553.594	21.41
553.791	21.4
553.987	21.4
554.184	21.32
554.38	21.08
554.577	21.11
554.773	21.06
554.97	21.15
555.166	21.33
555.362	21.41
555.559	21.45
555.755	21.72
555.952	21.71
556.148	21.83
556.344	22.11
556.541	22.52
556.737	22.36
556.933	22.55
557.129	22.36
557.326	22.27
557.522	22.35
557.718	22.48
557.914	22.44
558.11	22.49
558.307	22.44
558.503	22.24
558.699	22.27
558.895	22.42
559.091	22.51
559.287	22.67
559.483	22.7
559.679	22.71
559.876	22.88
560.072	22.86
560.268	22.98
560.464	22.94
560.66	23.1
560.856	22.81
561.052	22.65
561.247	22.62
561.443	22.68
561.639	22.68
561.835	22.46
562.031	22.35
562.227	22.51
562.423	22.6
562.619	22.61
562.815	22.67
563.01	23.05
563.206	23.41
563.402	23.57
563.598	23.65
563.793	23.72
563.989	23.93
564.185	24.04
564.381	23.83
564.576	23.81
564.772	23.85
564.968	23.9
565.163	23.75
565.359	23.76
565.555	23.62
565.75	23.53
565.946	23.58
566.141	23.73
566.337	23.9
566.532	23.97
566.728	23.94
566.923	24.05
567.119	24.11
567.314	24.17
567.51	24.03
567.705	24.15
567.901	24.36
568.096	24.51
568.292	24.41
568.487	24.25
568.682	24.36
568.878	24.33
569.073	24.46
569.268	24.39
569.464	24.73
569.659	24.92
569.854	24.78
570.05	24.77
570.245	24.81
570.44	24.84
570.635	24.9
570.831	24.8
571.026	24.99
571.221	24.91
571.416	24.94
571.611	24.87
571.806	25.03
572.002	25.24
572.197	25.56
572.392	25.44
572.587	25.66
572.782	25.66
572.977	25.75
573.172	25.9
573.367	26.01
573.562	26.09
573.757	26.09
573.952	25.96
574.147	26.11
574.342	25.68
574.537	25.78
574.732	25.82
574.927	25.99
575.121	26.14
575.316	26.02
575.511	26.03
575.706	26.09
575.901	26.12
576.096	26.09
576.29	26.04
576.485	26.27
576.68	26.17
576.875	26.01
577.069	25.96
577.264	25.93
577.459	25.93
577.654	25.98
577.848	25.96
578.043	25.91
578.238	26.05
578.432	25.69
578.627	25.84
578.821	26.05
579.016	26.25
579.21	26.18
579.405	26.22
579.6	26.44
579.794	26.41
579.989	26.39
580.183	26.47
580.378	26.49
580.572	26.91
580.766	26.64
580.961	26.65
581.155	26.78
581.35	27.12
581.544	27
581.738	26.79
581.933	26.71
582.127	26.96
582.321	26.95
582.516	26.97
582.71	27
582.904	27
583.099	27.11
583.293	27.06
583.487	26.93
583.681	26.92
583.875	26.84
584.07	27
584.264	26.8
584.458	26.85
584.652	26.6
584.846	26.6
585.04	26.64
585.234	26.4
585.428	26.44
585.623	26.31
585.817	26.41
586.011	26.72
586.205	26.71
586.399	26.67
586.593	26.4
586.787	26.55
586.981	26.51
587.174	26.66
587.368	26.6
587.562	26.54
587.756	26.63
587.95	26.91
588.144	26.87
588.338	26.86
588.532	26.92
588.725	26.97
588.919	27.27
589.113	27.4
589.307	27.49
589.501	27.71
589.694	27.84
589.888	27.8
590.082	27.61
590.275	27.75
590.469	27.77
590.663	27.74
590.856	27.93
591.05	27.71
591.244	27.45
591.437	27.35
591.631	27.13
591.824	27.04
592.018	26.91
592.212	26.71
592.405	26.57
592.599	26.47
592.792	26.61
592.986	26.88
593.179	26.84
593.372	26.92
593.566	26.88
593.759	27.03
593.953	26.9
594.146	27.05
594.339	27.27
594.533	27.42
594.726	27.54
594.92	27.49
595.113	27.24
595.306	27.12
595.499	27.46
595.693	27.68
595.886	28.03
596.079	28.17
596.272	28.26
596.466	28.37
596.659	28.25
596.852	28.25
597.045	28.44
597.238	28.45
597.431	28.61
597.624	28.53
597.818	28.47
598.011	28.16
598.204	28.14
598.397	27.91
598.59	27.75
598.783	27.88
598.976	27.87
599.169	27.64
599.362	27.65
599.555	27.57
599.748	27.31
599.941	27.29
600.134	27.43
600.326	27.61
600.519	27.88
600.712	27.95
600.905	27.93
601.098	27.77
601.291	27.95
601.483	27.75
601.676	28.05
601.869	28.25
602.062	28.41
602.255	28.43
602.447	28.25
602.64	28.35
602.833	28.5
603.025	28.26
603.218	28.47
603.411	28.38
603.603	28.71
603.796	28.63
603.989	28.54
604.181	28.66
604.374	28.53
604.566	28.47
604.759	28.26
604.951	28.33
605.144	28.37
605.336	28.27
605.529	28.36
605.721	28.09
605.914	28.18
606.106	28.24
606.299	28.09
606.491	28.2
606.683	28.34
606.876	28.53
607.068	28.42
607.26	28.64
607.453	29.01
607.645	29.16
607.837	29.31
608.03	29.3
608.222	29.19
608.414	29.08
608.606	29.27
608.799	29.14
608.991	28.83
609.183	28.8
609.375	28.71
609.567	28.44
609.759	28.36
609.952	28.35
610.144	28.34
610.336	28.45
610.528	28.36
610.72	28.17
610.912	28.23
611.104	28.73
611.296	28.69
611.488	28.9
611.68	28.65
611.872	28.61
612.064	28.83
612.256	28.86
612.448	28.91
612.64	28.94
612.832	28.63
613.023	28.61
613.215	28.45
613.407	28.25
613.599	28.13
613.791	28.5
613.983	28.63
614.174	28.65
614.366	28.48
614.558	28.52
614.75	28.32
614.941	28.82
615.133	29
615.325	28.85
615.516	28.89
615.708	28.83
615.9	28.79
616.091	28.62
616.283	28.68
616.475	28.87
616.666	28.72
616.858	29.21
617.049	29.26
617.241	29.21
617.432	29.23
617.624	29.58
617.815	29.66
618.007	29.81
618.198	30.02
618.39	29.75
618.581	29.71
618.773	29.51
618.964	29.39
619.155	29.24
619.347	29.26
619.538	29.24
619.729	28.92
619.921	28.95
620.112	28.82
620.303	28.68
620.494	28.53
620.686	28.39
620.877	28.55
621.068	28.56
621.259	28.78
621.451	28.77
621.642	29.01
621.833	29.32
622.024	29.43
622.215	29.74
622.406	29.73
622.597	30.22
622.788	30.13
622.98	30.23
623.171	30.08
623.362	29.97
623.553	29.81
623.744	29.53
623.935	29.17
624.126	29.2
624.317	28.95
624.508	28.96
624.698	28.67
624.889	28.7
625.08	28.7
625.271	29.02
625.462	28.9
625.653	29.11
625.844	29.07
626.034	29.05
626.225	28.82
626.416	28.74
626.607	28.73
626.798	28.82
626.988	28.75
627.179	28.86
627.37	28.69
627.56	28.66
627.751	28.54
627.942	28.7
628.132	28.87
628.323	29.06
628.514	29.37
628.704	29.44
628.895	29.53
629.085	29.95
629.276	29.89
629.466	30.01
629.657	30.19
629.847	30.13
630.038	30.02
630.228	29.96
630.419	29.88
630.609	29.45
630.8	29.46
630.99	29.44
631.181	29.28
631.371	29.17
631.561	29.18
631.752	29.08
631.942	29.34
632.132	29.47
632.323	29.48
632.513	29.54
632.703	29.76
632.893	29.84
633.084	29.8
633.274	29.47
633.464	29.57
633.654	29.41
633.844	29.01
634.034	28.68
634.225	28.93
634.415	28.97
634.605	28.75
634.795	28.4
634.985	28.09
635.175	28.1
635.365	27.94
635.555	27.97
635.745	27.91
635.935	28.2
636.125	28.23
636.315	28.07
636.505	28.23
636.695	27.95
636.885	28.28
637.075	28.6
637.265	28.42
637.455	28.78
637.644	28.85
637.834	29.09
638.024	29.25
638.214	29.54
638.404	29.65
638.593	29.37
638.783	29.6
638.973	29.63
639.163	29.87
639.352	29.57
639.542	29.96
639.732	29.72
639.921	29.27
640.111	29.09
640.301	28.67
640.49	28.57
640.68	28.5
640.87	28.61
641.059	28.64
641.249	28.29
641.438	28.77
641.628	28.54
641.817	29.14
642.007	29.51
642.196	29.64
642.386	29.75
642.575	29.38
642.764	29.37
642.954	29.38
643.143	29.43
643.333	29.16
643.522	29.22
643.711	28.88
643.901	28.47
644.09	28.13
644.279	27.59
644.469	27.65
644.658	27.71
644.847	28.29
645.036	28.07
645.226	27.91
645.415	27.8
645.604	27.49
645.793	27.5
645.982	27.76
646.171	28.34
646.361	28.9
646.55	29.17
646.739	29.42
646.928	28.58
647.117	28.84
647.306	28.86
647.495	29.35
647.684	29.69
647.873	29.52
648.062	29.48
648.251	28.53
648.44	28.76
648.629	28.64
648.818	28.47
649.007	29.14
649.196	29.24
649.384	29.05
649.573	28.67
649.762	28.21
649.951	28.74
650.14	28.64
650.328	29.45
650.517	29.5
650.706	29.81
650.895	29.9
651.083	29.76
651.272	29.28
651.461	29.64
651.65	29.66
651.838	29.77
652.027	29.82
652.216	29.6
652.404	29.42
652.593	28.9
652.781	28.55
652.97	28.74
653.158	28.48
653.347	29.18
653.535	29.1
653.724	29.02
653.912	29.28
654.101	28.92
654.289	28.93
654.478	28.39
654.666	28.18
654.855	28.21
655.043	28.04
655.231	28.5
655.42	28.23
655.608	28.44
655.796	28.88
655.985	28.88
656.173	28.99
656.361	29
656.55	29.24
656.738	29.77
656.926	29.7
657.114	29.37
657.302	29.24
657.491	29.18
657.679	28.58
657.867	28.55
658.055	28.41
658.243	28.46
658.431	28.46
658.619	28.76
658.807	28.63
658.996	28.75
659.184	28.93
659.372	28.88
659.56	28.83
659.748	29.06
659.936	28.9
660.124	28.9
660.311	28.79
660.499	28.8
660.687	28.65
660.875	28.66
661.063	28.53
661.251	28.61
661.439	28.9
661.627	29.03
661.814	28.49
662.002	28.81
662.19	28.56
662.378	28.7
662.565	28.25
662.753	28.33
662.941	28.85
663.129	28.76
663.316	28.69
663.504	28.25
663.692	28.42
663.879	28.96
664.067	28.6
664.254	29.11
664.442	28.85
664.63	29.18
664.817	29.2
665.005	28.69
665.192	28.53
665.38	28.68
665.567	28.37
665.755	28.09
665.942	28.16
666.13	28.27
666.317	27.73
666.504	27.6
666.692	27.66
666.879	27.79
667.067	27.49
667.254	28.22
667.441	28.24
667.629	29.09
667.816	28.87
668.003	28.8
668.19	28.59
668.378	28.9
668.565	29.2
668.752	29.12
668.939	28.67
669.127	29.31
669.314	29.32
669.501	29.49
669.688	29
669.875	29.2
670.062	29.3
670.249	29.29
670.436	29.26
670.623	29.18
670.81	29.25
670.997	29.74
671.184	29.1
671.371	28.64
671.558	28.09
671.745	28.29
671.932	28.8
672.119	28.91
672.306	28.99
672.493	29.26
672.68	29.24
672.867	28.89
673.054	28.87
673.24	29.45
673.427	29.16
673.614	29.36
673.801	29.47
673.988	29.16
674.174	29.07
674.361	29.02
674.548	29.08
674.734	28.57
674.921	29.03
675.108	28.75
675.294	28.66
675.481	29.17
675.668	29.3
675.854	28.98
676.041	28.78
676.227	28.53
676.414	28.53
676.601	28.38
676.787	29.05
676.974	29.18
677.16	29.64
677.347	29.55
677.533	29.45
677.719	29.19
677.906	29.13
678.092	29.6
678.279	29.77
678.465	29.79
678.651	30.06
678.838	30.07
679.024	30.21
679.21	29.73
679.397	29.88
679.583	30.17
679.769	30.06
679.955	30.28
680.142	29.74
680.328	29.8
680.514	29.96
680.7	29.52
680.886	29.44
681.073	29.06
681.259	29.25
681.445	28.8
681.631	28.56
681.817	28.83
682.003	28.76
682.189	29.25
682.375	29.17
682.561	29.03
682.747	29.19
682.933	29.18
683.119	29.33
683.305	29.14
683.491	29.94
683.677	30.14
683.863	30.2
684.049	29.7
684.235	29.39
684.42	28.94
684.606	29.02
684.792	29.27
684.978	29.1
685.164	29.52
685.349	29.75
685.535	28.93
685.721	28.55
685.907	28.69
686.092	29.13
686.278	29.26
686.464	29.27
686.649	29.4
686.835	29.24
687.021	29.46
687.206	28.96
687.392	28.95
687.577	28.85
687.763	29.42
687.948	29.66
688.134	29.67
688.319	29.4
688.505	30.01
688.69	29.82
688.876	29.38
689.061	29.68
689.247	29.96
689.432	30.1
689.618	30.41
689.803	29.73
689.988	29.49
690.174	29.29
690.359	29.64
690.544	29.2
690.73	29.32
690.915	29.55
691.1	29.76
691.285	29.8
691.471	29.69
691.656	29.92
691.841	30.14
692.026	29.59
692.211	29.86
692.396	29.13
692.582	29.73
692.767	29.99
692.952	29.88
693.137	29.86
693.322	29.77
693.507	29.31
693.692	29.15
693.877	28.61
694.062	29.08
694.247	28.99
694.432	29.69
694.617	29.31
694.802	29.12
694.987	29.29
695.172	28.76
695.357	28.35
695.541	28.82
695.726	28.57
695.911	29.03
696.096	28.84
696.281	29.06
696.466	28.67
696.65	28.46
696.835	28.22
697.02	28.18
697.204	28.04
697.389	28.29
697.574	28.51
697.759	28.59
697.943	28.86
698.128	28.6
698.312	28.54
698.497	28.98
698.682	29.35
698.866	29.55
699.051	30
699.235	30.14
699.42	29.98
699.604	30
699.789	29.9
699.973	29.64
700.158	29.79
700.342	29.84
700.527	29.21
700.711	29.16
700.895	28.94
701.08	28.72
701.264	28.65
701.448	28.65
701.633	28.41
701.817	28.94
702.001	29.08
702.186	29.81
702.37	29.43
702.554	29.85
702.738	29.69
702.923	30.24
703.107	30.38
703.291	30.4
703.475	31.18
703.659	31.28
703.843	30.13
704.027	30.25
704.212	30.23
704.396	30.51
704.58	30.62
704.764	30.78
704.948	30.2
705.132	29.65
705.316	29.88
705.5	29.13
705.684	28.73
705.868	29.92
706.052	30.15
706.235	29.83
706.419	30.09
706.603	29.62
706.787	29.4
706.971	28.84
707.155	28.54
707.339	28.07
707.522	27.52
707.706	27.21
707.89	27.4
708.074	26.98
708.257	26.67
708.441	26.67
708.625	26.92
708.808	27.71
708.992	28.73
709.176	28.87
709.359	29.16
709.543	29.8
709.727	30.63
709.91	30.5
710.094	31.05
710.277	31.38
710.461	30.76
710.644	30.67
710.828	30.24
711.011	30.44
711.195	30.63
711.378	30.48
711.562	30.11
711.745	29.7
711.928	29.31
712.112	28.38
712.295	27.55
712.478	27.68
712.662	27.79
712.845	27.4
713.028	26.95
713.212	27.34
713.395	27.57
713.578	27.52
713.761	27.81
713.945	28.04
714.128	28.22
714.311	28.79
714.494	29.19
714.677	29.35
714.86	29.62
715.043	28.86
715.227	28.03
715.41	28.38
715.593	28.41
715.776	27.8
715.959	27.05
716.142	27.8
716.325	27.11
716.508	26.55
716.691	26.39
716.874	26.19
717.057	27.01
717.239	27.27
717.422	26.45
717.605	27.11
717.788	27.4
717.971	27.47
718.154	26.63
718.337	27.43
718.519	27.67
718.702	27.62
718.885	27.53
719.068	27.74
719.25	28.3
719.433	28.6
719.616	28.31
719.798	29.58
719.981	29.46
720.164	29.94
720.346	30.31
720.529	31.28
720.712	31.32
720.894	31.04
721.077	30.54
721.259	30.11
721.442	30.79
721.624	30.94
721.807	30.67
721.989	31.59
722.172	30.76
722.354	30.33
722.537	29.53
722.719	30.11
722.901	30.1
723.084	29.5
723.266	29.44
723.448	28.63
723.631	28.77
723.813	28.44
723.995	27.89
724.178	27.6
724.36	28.63
724.542	28.89
724.724	28.87
724.907	29.22
725.089	29.81
725.271	30.29
725.453	29.84
725.635	29.82
725.817	29.73
725.999	31.17
726.181	31.74
726.364	30.38
726.546	30.69
726.728	30.94
726.91	31.4
727.092	31.98
727.274	30.89
727.456	31.66
727.638	31.28
727.819	31.49
728.001	30.47
728.183	30.75
728.365	30.77
728.547	30.66
728.729	30.13
728.911	30.15
729.093	29.8
729.274	30.9
729.456	30.96
729.638	31.08
729.82	30.26
730.001	29.99
730.183	30.57
730.365	30.83
730.546	30.46
730.728	30.3
730.91	30.07
731.091	29.65
731.273	29.15
731.455	29.25
731.636	29.37
731.818	30.27
731.999	30.82
732.181	29.57
732.362	29.43
732.544	30.33
732.725	30.42
732.907	29.47
733.088	30
733.27	29.69
733.451	29.38
733.633	30.15
733.814	29.53
733.995	29.52
734.177	29.52
734.358	29.93
734.539	29.21
734.721	29.29
734.902	29.55
735.083	28.43
735.264	29.45
735.446	28.92
735.627	28.05
735.808	27.97
735.989	27.06
736.17	27.53
736.351	26.26
736.533	25.74
736.714	26.15
736.895	26.9
737.076	27.75
737.257	26.93
737.438	27.78
737.619	27.8
737.8	27.31
737.981	28.32
738.162	28.99
738.343	30.16
738.524	30.65
738.705	30.07
738.886	29.83
739.067	31.11
739.247	30.86
739.428	31.13
739.609	31.44
739.79	31.42
739.971	30.97
740.151	29.95
740.332	29.07
740.513	28.48
740.694	28.55
740.874	29.32
741.055	27.5
741.236	28.08
741.417	27.68
741.597	27.43
741.778	28.51
741.958	28.37
742.139	29.33
742.32	31.14
742.5	30.54
742.681	30.07
742.861	29.99
743.042	31.72
743.222	31.87
743.403	31.08
743.583	30.01
743.764	29.9
743.944	30.81
744.124	30.32
744.305	28.66
744.485	30.23
744.666	31.1
744.846	29.81
745.026	28.7
745.207	27.97
745.387	29.1
745.567	29.77
745.747	29.08
745.928	28.81
746.108	28.94
746.288	29.45
746.468	29.23
746.648	29.1
746.829	30.38
747.009	30.58
747.189	31.25
747.369	29.67
747.549	29.53
747.729	29.93
747.909	29.61
748.089	29.39
748.269	29.23
748.449	29.81
748.629	30.24
748.809	29
748.989	30.23
749.169	28.66
749.349	30.04
749.529	29.82
749.709	30.43
749.889	30.55
750.068	30.61
750.248	29.98
750.428	29.24
750.608	27.73
750.788	27.3
750.967	26.23
751.147	28.28
751.327	27.7
751.507	27.42
751.686	27.74
751.866	26.59
752.046	27.31
752.225	28.35
752.405	27.58
752.585	29.53
752.764	31.49
752.944	30.14
753.123	29.31
753.303	30.23
753.482	30.86
753.662	29.84
753.841	31.24
754.021	30.43
754.2	31.04
754.38	32.64
754.559	31.17
754.739	30.97
754.918	32.21
755.097	33.79
755.277	32.61
755.456	32.82
755.635	33.6
755.815	34.07
755.994	33.39
756.173	31.46
756.352	30.97
756.532	31.78
756.711	30.89
756.89	30.9
757.069	30.07
757.248	30.51
757.427	30.35
757.607	29.72
757.786	27.47
757.965	28.52
758.144	28.69
758.323	28.37
758.502	28.37
758.681	29.16
758.86	27.95
759.039	27.25
759.218	26.26
759.397	26.46
759.576	26.86
759.755	28.78
759.934	29.34
760.113	30.44
760.291	30.58
760.47	29.75
760.649	29.05
760.828	31.18
761.007	31.54
761.186	32.64
761.364	31.79
761.543	31.97
761.722	30.18
761.901	29.25
762.079	29.51
762.258	29.52
762.437	30.93
762.615	31.33
762.794	29
762.972	27.74
763.151	26.77
763.33	27.12
763.508	26.28
763.687	27.41
763.865	27.53
764.044	26.66
764.222	27.35
764.401	25.85
764.579	25.74
764.758	26.59
764.936	27.23
765.114	27.5
765.293	27.49
765.471	27.47
765.65	26.88
765.828	26.69
766.006	27.04
766.184	25.5
766.363	25.94
766.541	24.83
766.719	26.08
766.898	26.27
767.076	26.9
767.254	27.45
767.432	28.04
767.61	28.3
767.788	28.26
767.967	28.66
768.145	29.24
768.323	29.9
768.501	31.74
768.679	29.83
768.857	29.8
769.035	30.23
769.213	29.69
769.391	30.07
769.569	29.48
769.747	30.29
769.925	29.59
770.103	27.93
770.281	27.18
770.459	27.1
770.636	28.01
770.814	28.4
770.992	28.48
771.17	26.92
771.348	25.81
771.525	26.04
771.703	24.28
771.881	23.39
772.059	24.94
772.236	24.77
772.414	23.75
772.592	24.3
772.769	25.34
772.947	22.56
773.125	26.26
773.302	25.47
773.48	27.13
773.657	26.75
773.835	27.96
774.013	27.94
774.19	28.94
774.368	29.44
774.545	29.43
774.723	27.76
774.9	28.74
775.077	26.01
775.255	28.95
775.432	29.33
775.61	32.76
775.787	33.77
775.964	34.38
776.142	33.24
776.319	33.28
776.496	32.85
776.674	34.79
776.851	36.27
777.028	36.32
777.205	34.91
777.382	33.66
777.56	31.54
777.737	29.99
777.914	30.88
778.091	32.06
778.268	32.32
778.445	32.06
778.622	30.93
778.8	31.09
778.977	31.05
779.154	30.38
779.331	29.21
779.508	31.22
779.685	32.45
779.862	29.05
780.038	28.32
780.215	27.74
780.392	26.35
780.569	26.73
780.746	25.3
780.923	26.5
781.1	27.22
781.277	29.16
781.453	27.93
781.63	26.98
781.807	30.96
781.984	31.42
782.16	31.35
782.337	32
782.514	31.74
782.691	32.71
782.867	33.51
783.044	33.53
783.221	30.39
783.397	29.98
783.574	28.14
783.75	26.28
783.927	26.66
784.103	24.82
784.28	26.27
784.456	24.44
784.633	25.45
784.809	24.35
784.986	25.54
785.162	26.49
785.339	24.54
785.515	27.58
785.692	28.97
785.868	27.73
786.044	29.78
786.221	29.43
786.397	30.13
786.573	29.3
786.749	29.68
786.926	29.03
787.102	29.18
787.278	31.24
787.454	30.23
787.631	30.99
787.807	31.77
787.983	31.69
788.159	31.92
788.335	30.5
788.511	30.69
788.687	28.4
788.863	29.14
789.039	27.41
789.216	27.55
789.392	27.32
789.568	25.18
789.744	24.63
789.919	23.74
790.095	22.64
790.271	25.01
790.447	27.08
790.623	27.77
790.799	25.99
790.975	28.86
791.151	28.82
791.327	31.49
791.502	30.51
791.678	31.17
791.854	31.97
792.03	33.58
792.205	35.57
792.381	32.62
792.557	33.83
792.733	35.15
792.908	39.02
793.084	36.4
793.259	32.94
793.435	33.81
793.611	34.09
793.786	32.19
793.962	30.12
794.137	26.39
794.313	25.06
794.488	23.69
794.664	22.4
794.839	20.53
795.015	22.87
795.19	24.72
795.366	24.09
795.541	21.44
795.716	23.22
795.892	24.7
796.067	25.66
796.242	29.37
796.418	30.21
796.593	29.18
796.768	27.47
796.944	29.2
797.119	28.07
797.294	26.88
797.469	29.25
797.644	30.49
797.82	31.44
797.995	31.8
798.17	29.91
798.345	30.03
798.52	30.01
798.695	30.43
798.87	28.23
799.045	28.64
799.22	29.75
799.395	29.75
799.57	28.54
799.745	24.14
799.92	23.31
800.095	25.88
800.27	26.55
800.445	26.42
800.62	22.7
800.795	21.98
800.97	20.86
801.145	22.9
801.319	18.12
801.494	17.71
801.669	21.53
801.844	21.81
802.018	21.05
802.193	20.1
802.368	20.97
802.543	24.92
802.717	26.2
802.892	30.55
803.067	32.19
803.241	35.61
803.416	37.51
803.59	36.8
803.765	37.65
803.94	35.08
804.114	34.13
804.289	33.12
804.463	33.85
804.638	34.6
804.812	31.24
804.986	30.11
805.161	28.39
805.335	27.86
805.51	28.41
805.684	31.22
805.858	30.48
806.033	30.72
806.207	30.93
806.381	30.51
806.556	28.85
806.73	28.7
806.904	26.25
807.078	25.88
807.253	26.6
807.427	24.65
807.601	20.8
807.775	23.36
807.949	22.51
808.123	23.58
808.298	23.44
808.472	20.69
808.646	23.14
808.82	26.64
808.994	28.14
809.168	27.1
809.342	30.08
809.516	32.99
809.69	33.22
809.864	36.68
810.038	38.37
810.212	39.2
810.385	41.64
810.559	42.48
810.733	41.19
810.907	42.73
811.081	39.19
811.255	34.71
811.428	34.89
811.602	31.13
811.776	26.74
811.95	24.84
812.123	23.31
812.297	21.58
812.471	19.13
812.644	21.87
812.818	15.89
812.992	14.83
813.165	14.35
813.339	10.29
813.512	9.59
813.686	9.05
813.86	5.83
814.033	10.29
814.207	11.97
814.38	15.22
814.554	13.03
814.727	21.3
814.9	23.93
815.074	27.46
815.247	30.25
815.421	32.12
815.594	35.74
815.767	39.01
815.941	36.62
816.114	37.2
816.287	31.65
816.46	31.47
816.634	29.51
816.807	26.98
816.98	24.08
817.153	25.58
817.327	27.29
817.5	28.01
817.673	27.26
817.846	26.28
818.019	27.76
818.192	34.49
818.365	36.1
818.538	31.82
818.711	34.77
818.884	36.91
819.057	36.68
819.23	36.63
819.403	35.96
819.576	34.8
819.749	35.95
819.922	34.57
820.095	32.86
820.268	29.87
820.441	34
820.614	34.24
820.786	34.71
820.959	33.62
821.132	33.27
821.305	30.89
821.477	31.09
821.65	31.34
821.823	31.48
821.996	31.28
822.168	31.59
822.341	30.51
822.514	29.89
822.686	29.28
822.859	29.13
823.031	28.62
823.204	29.57
823.376	29.56
823.549	29.25
823.722	29.22
823.894	28.61
824.067	28.86
824.239	28.26
824.411	28.53
824.584	28.29
824.756	27.78
824.929	28.73
825.101	27.69
825.273	27.77
825.446	28.51
825.618	29.41
825.79	29.79
825.963	30.2
826.135	30.76
826.307	30.91
826.479	30.49
826.652	30.81
826.824	30.13
826.996	31.28
827.168	30.14
827.34	29.02
827.512	26.96
827.684	27.04
827.856	26.32
828.029	26.63
828.201	26.76
828.373	28.18
828.545	27.17
828.717	27.03
828.889	27.96
829.061	29.03
829.232	29.79
829.404	30.92
829.576	29.06
829.748	28.71
829.92	28.9
830.092	29.55
830.264	30.05
830.436	30.17
830.607	30.65
830.779	29.94
830.951	31.56
831.123	30.55
831.294	30.45
831.466	35.19
831.638	36.83
831.809	39.44
831.981	36.89
832.153	33.38
832.324	33.65
832.496	36.84
832.667	35.95
832.839	31.42
833.011	32.83
833.182	34.52
833.354	32.09
833.525	30.2
833.697	27.27
833.868	27.93
834.039	27.91
834.211	29.48
834.382	28.02
834.554	25.17
834.725	26.21
834.896	24.96
835.068	24.01
835.239	24.64
835.41	25.91
835.581	25.85
835.753	25.83
835.924	25.64
836.095	24.48
836.266	23.26
836.438	27.63
836.609	27.08
836.78	27.27
836.951	26.29
837.122	24.94
837.293	25.67
837.464	26.77
837.635	26.96
837.806	26.08
837.977	23.94
838.148	25.62
838.319	20.54
838.49	22.98
838.661	19.92
838.832	26.12
839.003	28.66
839.174	25.16
839.345	26.2
839.516	25.21
839.687	26.39
839.857	31.08
840.028	29.63
840.199	27.42
840.37	27.73
840.54	33.47
840.711	36.01
840.882	33.57
841.053	37.31
841.223	38.44
841.394	37.35
841.564	40.64
841.735	43.66
841.906	39.85
842.076	42.76
842.247	41.25
842.417	38.63
842.588	25.95
842.758	32.82
842.929	24.05
843.099	23.59
843.27	31.68
843.44	34.42
843.611	36.64
843.781	41.31
843.951	35.77
844.122	36.36
844.292	41.46
844.462	43.82
844.633	44.09
844.803	47.15
844.973	52.17
845.144	44.09
845.314	46.48
845.484	37.78
845.654	43.18
845.824	49.88
845.995	45.67
846.165	48.69
846.335	42.85
846.505	32.05
846.675	42.28
846.845	35.71
847.015	31.42
847.185	23.21
847.355	35.66
847.525	29.85
847.695	28.27
847.865	33.25
848.035	26.11
848.205	36.41
848.375	40.07
848.545	43.2
848.715	39.08
848.884	37.33
849.054	38.34
849.224	17.44
849.394	15.34
849.564	25.72
849.733	19.86
849.903	9.44
850.073	-0.56
850.243	8.05
850.412	3.25
850.582	15.86
850.752	27.77
850.921	22.02
851.091	28.33
851.26	25.97
851.43	27.7
851.599	28.02
851.769	35.7
851.939	41.34
852.108	36.41
852.278	28.62
852.447	19.28
852.616	-1.86
852.786	-1.06
852.955	-0.72
853.125	5.94
853.294	-1.91
853.463	6.94
853.633	7.99
853.802	4.88
853.971	4.05
854.141	14.42
854.31	17.73
854.479	39.07
854.648	31.88
854.818	38.63
854.987	43.79
855.156	52.37
855.325	54.02
855.494	48.68
855.663	48.74
855.832	52.73
856.001	49.03
856.171	45.31
856.34	42.86
856.509	51.57
856.678	52.53
856.847	45.85
857.016	35.69
857.185	44.66
857.353	39.32
857.522	42.09
857.691	40.2
857.86	39.05
858.029	47
858.198	51.64
858.367	49.14
858.535	50.55
858.704	54.37
858.873	47.74
859.042	44.35
859.21	50.83
859.379	46.12
859.548	43.05
859.717	45.94
859.885	40.53
860.054	41.09
860.222	34.45
860.391	27.82
860.56	34.05
860.728	45.73
860.897	36.61
861.065	38.07
861.234	41.82
861.402	50.2
861.571	55.53
861.739	47.29
861.908	51.42
862.076	68.7
862.244	93.03
862.413	79.22
862.581	77.96
862.749	67.58
862.918	44.91
863.086	55.1
863.254	40.55
863.423	43.27
863.591	49.62
863.759	62.63
863.927	38.51
864.096	22.57
864.264	6.04
864.432	10.58
864.6	-0.67
864.768	36.23
864.936	0.53
865.104	20.29
865.272	-27.13
865.44	1.97
865.608	-18.02
865.776	-10.25
865.944	14.27
866.112	31.37
866.28	17.16
866.448	37.89
866.616	41.43
866.784	45.12
866.952	39
867.12	41.72
867.288	29.78
867.455	26.73
867.623	29.78
867.791	30.73
867.959	27.32
868.127	30.79
868.294	33.95
868.462	28.75
868.63	37.42
868.797	33.47
868.965	50.39
869.133	78.02
869.3	81.51
869.468	71.24
869.636	80.45
869.803	71.16
869.971	76.58
870.138	55.22
870.306	70.79
870.473	67.72
870.641	77.32
870.808	64.25
870.975	50.31
871.143	51.85
871.31	71.17
871.478	67.18
871.645	69.79
871.812	68.02
871.98	77.2
872.147	72.02
872.314	57.83
872.482	71.76
872.649	84.5
872.816	67.61
872.983	62.97
873.15	69.14
873.318	70.9
873.485	44.7
873.652	46.21
873.819	43.43
873.986	28.55
874.153	23.92
874.32	29.94
874.487	42.73
874.654	59.72
874.821	69.96
874.988	60.8
875.155	60.43
875.322	73.14
875.489	72.73
875.656	62.71
875.823	67.88
875.99	67.73
876.157	61.9
876.324	61.47
876.49	58.81
876.657	52.11
876.824	56.28
876.991	55.56
877.157	54.15
877.324	49.66
877.491	43.03
877.658	34.49
877.824	33.12
877.991	41.57
878.157	40.9
878.324	41.19
878.491	42.39
878.657	33.29
878.824	33.35
878.99	32
879.157	29
879.323	50.07
879.49	51.35
879.656	54
879.823	50.51
879.989	45.07
880.156	49.15
880.322	54.31
880.488	61.35
880.655	56.27
880.821	49.91
880.987	55.09
881.154	49.11
881.32	52.34
881.486	46.92
881.652	39.17
881.819	38.61
881.985	38.51
882.151	36.12
882.317	32.89
882.483	33.27
882.649	36.27
882.816	36.38
882.982	37.89
883.148	38.59
883.314	37.84
883.48	39.15
883.646	38.3
883.812	35.15
883.978	36.43
884.144	33.97
884.31	33.74
884.476	34.95
884.642	33.48
884.807	31.48
884.973	31.43
885.139	32.74
885.305	30.12
885.471	29.17
885.637	33.04
885.802	32.25
885.968	38.64
886.134	41.09
886.3	39.54
886.465	40.17
886.631	42.6
886.797	39.99
886.962	45.83
887.128	44.6
887.293	48.26
887.459	51.11
887.625	48.84
887.79	50.45
887.956	50.78
888.121	49.57
888.287	50.87
888.452	50.14
888.618	58.02
888.783	49.36
