Data from 2937895_Reflection_3.txt Node
Date: Wed Jul 15 13:54:08 EDT 2015
User: robert
Spectrometer: USB4E03001
Autoset integration time: false
Trigger mode: 4
Integration Time (sec): 1.000000E-1
Scans to average: 10
Electric dark correction enabled: true
Nonlinearity correction enabled: false
Boxcar width: 5
Stray light correction enabled: false
XAxis mode: Wavelengths
Stop averaging: false
Number of Pixels in Spectrum: 3648
>>>>>Begin Spectral Data<<<<<
177.566	-241.2
177.785	-665.08
178.005	-794.26
178.225	-59.31
178.445	-4.87
178.665	-413.07
178.885	48.04
179.105	7.98
179.324	34.25
179.544	42.21
179.764	-23.71
179.984	-50.04
180.204	8.08
180.423	20.5
180.643	36.29
180.863	99.22
181.083	69.65
181.302	196.05
181.522	118.07
181.742	-107.55
181.961	118.38
182.181	93.3
182.401	13.25
182.621	54.46
182.84	40.66
183.06	37.57
183.279	115.87
183.499	106.35
183.719	684.81
183.938	-48.49
184.158	53.35
184.377	88.41
184.597	84.86
184.816	47.05
185.036	42.39
185.256	68.14
185.475	72.79
185.695	62.81
185.914	96.57
186.134	127.21
186.353	323.93
186.572	87.63
186.792	22.46
187.011	69.85
187.231	68.79
187.45	56.2
187.67	35.09
187.889	47.54
188.108	67.49
188.328	35.32
188.547	41.06
188.766	22.86
188.986	77.97
189.205	62.06
189.424	99.96
189.644	164.02
189.863	273.19
190.082	-792.75
190.302	667.61
190.521	-242.18
190.74	-148.64
190.959	-38.39
191.178	-158.09
191.398	-27.48
191.617	-279.46
191.836	9.93
192.055	49.44
192.274	27.11
192.494	45.83
192.713	1.55
192.932	17.74
193.151	18.43
193.37	40.01
193.589	28.14
193.808	37.62
194.027	13.27
194.246	8.07
194.465	295.52
194.685	-166.79
194.904	123.65
195.123	65.1
195.342	66.21
195.561	14.51
195.78	-103.4
195.999	-79.43
196.218	-2.11
196.436	-39.47
196.655	24200
196.874	-90.06
197.093	-102.71
197.312	113.74
197.531	67.89
197.75	46.33
197.969	-133.92
198.188	-294.8
198.407	-84.47
198.625	52.79
198.844	51.58
199.063	59.36
199.282	123.55
199.501	288.77
199.719	2351.83
199.938	466.38
200.157	1692.61
200.376	745.12
200.594	2100
200.813	-484.59
201.032	-264.03
201.251	-169
201.469	1719.57
201.688	1305.21
201.907	875.79
202.125	-564.39
202.344	-1581.63
202.563	-232.97
202.781	-207.78
203	-1698.24
203.218	-3782.77
203.437	1653.25
203.656	-343.38
203.874	-279.27
204.093	-220.44
204.311	-132.07
204.53	-204.05
204.748	-133.01
204.967	1766.37
205.185	175.12
205.404	363.43
205.622	27.26
205.841	-3.1
206.059	46.4
206.278	427.67
206.496	209.17
206.715	194.49
206.933	168.15
207.151	1027.18
207.37	-31011.76
207.588	1384.24
207.806	-1042.66
208.025	-722.57
208.243	-295.63
208.461	-691.84
208.68	341.38
208.898	135
209.116	105.16
209.335	99.95
209.553	79.63
209.771	66.12
209.989	68.15
210.208	63.62
210.426	54.85
210.644	89.14
210.862	104.7
211.081	89.66
211.299	105.27
211.517	95.19
211.735	111.65
211.953	119.73
212.171	116.65
212.39	123.23
212.608	81.16
212.826	111.14
213.044	92.71
213.262	90.38
213.48	116.2
213.698	102.92
213.916	126.85
214.134	111.76
214.352	105.42
214.57	168.03
214.788	179.8
215.006	216.68
215.224	199.17
215.442	180.13
215.66	230.4
215.878	211.42
216.096	557.11
216.314	806.48
216.532	-589.36
216.75	341.89
216.968	168.24
217.185	236.01
217.403	313.91
217.621	785.64
217.839	-193.21
218.057	-237.43
218.275	-143.45
218.492	575.97
218.71	261.76
218.928	557.88
219.146	-456.91
219.363	-602.95
219.581	12581.25
219.799	259.62
220.017	261.24
220.234	183.23
220.452	161.72
220.67	186.58
220.887	155.82
221.105	1344.59
221.323	-6.19
221.54	14.2
221.758	66.63
221.976	205.19
222.193	100.38
222.411	149.19
222.629	157.13
222.846	151.65
223.064	112
223.281	62.03
223.499	22.01
223.716	26.53
223.934	13.93
224.151	-0.19
224.369	-106.44
224.586	-52.79
224.804	-215.11
225.021	-96.11
225.239	-73
225.456	-55.53
225.674	-85.04
225.891	-123.48
226.108	-79.21
226.326	-36.07
226.543	-39.88
226.76	-8.08
226.978	-26.27
227.195	-18.6
227.413	-26.58
227.63	-28.62
227.847	-17.73
228.064	-20.3
228.282	-14.8
228.499	-11.67
228.716	-9.63
228.934	-5.51
229.151	-3.86
229.368	-0.18
229.585	0.7
229.802	3.28
230.02	5.27
230.237	6.89
230.454	5.08
230.671	6.62
230.888	6.05
231.105	2.28
231.323	5.08
231.54	1.26
231.757	-1.52
231.974	0.27
232.191	0.6
232.408	6.29
232.625	-5.75
232.842	3.1
233.059	8.96
233.276	6.14
233.493	17.64
233.71	16.84
233.927	18.96
234.144	13.95
234.361	4.74
234.578	0.86
234.795	-4.3
235.012	-2.7
235.229	-3.28
235.446	-8.21
235.663	-3.11
235.879	-10.98
236.096	-9.47
236.313	-17.89
236.53	-19.47
236.747	-12.78
236.964	-6.97
237.181	-5.62
237.397	-1.87
237.614	-1.24
237.831	0.02
238.048	0.82
238.264	-1.67
238.481	-8.19
238.698	-7.29
238.915	-2.6
239.131	-8.9
239.348	-12.39
239.565	-8.9
239.781	-7.94
239.998	-3.93
240.215	2.3
240.431	0.36
240.648	4.6
240.865	6.87
241.081	8.09
241.298	7.12
241.514	10.02
241.731	9.53
241.947	8.97
242.164	8.18
242.38	7.85
242.597	6.37
242.814	5.4
243.03	5.66
243.246	3.73
243.463	2.51
243.679	2.38
243.896	1.58
244.112	0.7
244.329	0.63
244.545	1.64
244.762	1.19
244.978	-1.65
245.194	0.46
245.411	0.2
245.627	3.1
245.843	5.62
246.06	8.32
246.276	6.8
246.492	5.98
246.709	4.88
246.925	4.77
247.141	5.48
247.357	4.17
247.574	4.49
247.79	3.97
248.006	4.35
248.222	4.7
248.439	3.59
248.655	2.84
248.871	1.85
249.087	2.56
249.303	0.9
249.519	-2.43
249.736	-2.27
249.952	-5.7
250.168	-8.09
250.384	-10.26
250.6	-11.08
250.816	-11.82
251.032	-8.78
251.248	-6.22
251.464	-4.33
251.68	-0.48
251.896	2.8
252.112	3.03
252.328	4.27
252.544	7.03
252.76	5.26
252.976	2.85
253.192	4.28
253.408	3.43
253.624	5.56
253.84	3.37
254.056	-1.13
254.272	-2.55
254.487	2.39
254.703	1.64
254.919	-0.42
255.135	2
255.351	3.7
255.567	-0.2
255.782	-1.02
255.998	-3.65
256.214	-5.96
256.43	-3.75
256.646	-3.02
256.861	-11.47
257.077	-12.31
257.293	-10.84
257.508	-11.63
257.724	-10.59
257.94	-8.84
258.155	-5.17
258.371	-3.42
258.587	-0.57
258.802	0.71
259.018	0.63
259.234	2.14
259.449	2.48
259.665	3.31
259.88	3.88
260.096	2.79
260.312	2.32
260.527	1.06
260.743	0.13
260.958	-0.55
261.174	-1.88
261.389	-1.54
261.605	-2.1
261.82	-1.32
262.036	-1.94
262.251	-2.35
262.466	-1.68
262.682	-3.12
262.897	-4.6
263.113	-2.99
263.328	-2.65
263.543	-2.82
263.759	-5.53
263.974	-3.61
264.189	-6.34
264.405	-10.98
264.62	-10.16
264.835	-8.19
265.051	-6.32
265.266	-2.5
265.481	-4.42
265.696	-3.68
265.912	-1.13
266.127	-1.05
266.342	-0.98
266.557	-0.11
266.773	1.27
266.988	0.05
267.203	-0.86
267.418	-0.97
267.633	-0.66
267.848	-1.91
268.064	-1.71
268.279	-4.14
268.494	-2.88
268.709	-3.23
268.924	-3.18
269.139	-1.2
269.354	-2.77
269.569	-2.55
269.784	-2.22
269.999	-2.77
270.214	-0.8
270.429	-0.98
270.644	1.76
270.859	3.04
271.074	3.54
271.289	4.52
271.504	4.86
271.719	6.41
271.934	6.5
272.149	7.38
272.363	6.92
272.578	6.3
272.793	7.82
273.008	7.05
273.223	6.13
273.438	5.97
273.653	5.09
273.867	2.7
274.082	2.25
274.297	2.5
274.512	0.7
274.726	2.45
274.941	1.69
275.156	-0.91
275.371	1.55
275.585	1.04
275.8	-0.35
276.015	0.49
276.229	1.88
276.444	2.66
276.659	1.56
276.873	3.08
277.088	1.62
277.302	3.27
277.517	3.99
277.732	0.67
277.946	-0.23
278.161	1.97
278.375	1.38
278.59	2.06
278.804	2.24
279.019	2.72
279.233	3.49
279.448	3.82
279.662	4.33
279.877	1.04
280.091	3.65
280.306	5.39
280.52	4.26
280.735	4.83
280.949	4.67
281.163	2.35
281.378	4.44
281.592	4.78
281.806	4.22
282.021	3.82
282.235	5.02
282.449	5.81
282.664	6.45
282.878	5.25
283.092	5.46
283.307	5.24
283.521	7.52
283.735	6.92
283.949	6.53
284.164	9.02
284.378	7.1
284.592	8.82
284.806	6.91
285.02	5.5
285.234	6.68
285.449	6.34
285.663	7.39
285.877	6.31
286.091	6.06
286.305	5.93
286.519	5.61
286.733	7.52
286.947	6.8
287.161	7.68
287.375	9.41
287.589	7.82
287.803	9.02
288.017	6.42
288.231	7.62
288.445	7.1
288.659	7.12
288.873	6.43
289.087	6.97
289.301	7.57
289.515	6.11
289.729	4.75
289.943	5.26
290.157	3.47
290.371	3.9
290.584	2.5
290.798	2.21
291.012	2.57
291.226	1.56
291.44	1.69
291.654	1.92
291.867	3.64
292.081	2
292.295	2.7
292.509	1.73
292.722	2.87
292.936	4.64
293.15	5.54
293.364	4.85
293.577	3.04
293.791	1.13
294.005	1.01
294.218	1.63
294.432	4.27
294.645	3.61
294.859	3.27
295.073	4.74
295.286	3.77
295.5	1.32
295.713	1.12
295.927	4.11
296.14	4.96
296.354	3.56
296.568	3.38
296.781	2.98
296.994	3.85
297.208	4.41
297.421	2.55
297.635	2.03
297.848	5.03
298.062	6.32
298.275	4.79
298.489	4.78
298.702	6.01
298.915	5.09
299.129	4.61
299.342	4.55
299.555	5
299.769	7.05
299.982	5.71
300.195	4.17
300.409	2.91
300.622	4.75
300.835	3.21
301.048	0.98
301.262	1.69
301.475	2.24
301.688	1.44
301.901	1.46
302.115	2.59
302.328	3.83
302.541	5.07
302.754	4.79
302.967	3.33
303.18	3.73
303.393	4.55
303.607	2.62
303.82	3.58
304.033	4.6
304.246	4.87
304.459	3.46
304.672	4.42
304.885	2.49
305.098	1.31
305.311	3.18
305.524	5.83
305.737	5.9
305.95	7.03
306.163	6.89
306.376	6.52
306.589	6.4
306.802	4.38
307.015	4.08
307.228	5.3
307.44	6.45
307.653	4.5
307.866	2.43
308.079	3.41
308.292	4.85
308.505	3.84
308.718	5.08
308.93	7.7
309.143	9.47
309.356	10.45
309.569	10.12
309.781	9.66
309.994	10.94
310.207	11.82
310.42	11.16
310.632	11.93
310.845	11.69
311.058	12.22
311.27	9.72
311.483	9.78
311.696	8.47
311.908	8.25
312.121	9.23
312.333	9.43
312.546	9.33
312.759	11.09
312.971	11.64
313.184	13.03
313.396	11.4
313.609	12.21
313.821	12.97
314.034	13.45
314.246	14
314.459	14.86
314.671	13.49
314.884	12.84
315.096	12.76
315.309	10.35
315.521	10.12
315.733	10.94
315.946	11.65
316.158	11.16
316.371	11.69
316.583	10.68
316.795	10.46
317.008	11.8
317.22	13.48
317.432	12.48
317.644	11.81
317.857	10.76
318.069	9.37
318.281	9.79
318.494	9.6
318.706	9.96
318.918	10.79
319.13	9.95
319.342	7.72
319.555	7.77
319.767	8.62
319.979	10.79
320.191	11.89
320.403	13.14
320.615	11.85
320.827	11.13
321.039	11.01
321.252	9.4
321.464	10.04
321.676	13.38
321.888	12.56
322.1	12.21
322.312	12.76
322.524	13.06
322.736	13.72
322.948	13.12
323.16	14
323.372	15.23
323.584	17.48
323.796	17.57
324.007	15.63
324.219	15.18
324.431	15.57
324.643	14.49
324.855	15.5
325.067	14.82
325.279	15.19
325.491	15.36
325.702	15.64
325.914	15.13
326.126	14.39
326.338	16.26
326.55	17.48
326.761	17.48
326.973	17.34
327.185	16.21
327.396	16.85
327.608	18.89
327.82	19.83
328.032	20.55
328.243	21.05
328.455	20.77
328.666	21.5
328.878	21.53
329.09	22.75
329.301	24.26
329.513	26.28
329.725	26.25
329.936	26.06
330.148	26.44
330.359	25.35
330.571	26.31
330.782	27.9
330.994	25.03
331.205	25.33
331.417	24.74
331.628	23.78
331.84	23.26
332.051	25.19
332.262	25.34
332.474	24.79
332.685	24.21
332.897	23.28
333.108	23.23
333.319	25.67
333.531	25.42
333.742	26.19
333.953	26.68
334.165	25.33
334.376	24.87
334.587	25.62
334.799	26.91
335.01	29.68
335.221	29.8
335.432	30.24
335.644	30.25
335.855	31.2
336.066	31.38
336.277	32.58
336.488	33.99
336.7	33.58
336.911	34.45
337.122	33.96
337.333	32.71
337.544	33.51
337.755	33.39
337.966	33.37
338.177	33.16
338.388	32.98
338.599	32.46
338.811	32.71
339.022	32.89
339.233	31.36
339.444	30.99
339.655	30.45
339.866	30.26
340.076	30.65
340.287	29.59
340.498	29.76
340.709	31.26
340.92	31.43
341.131	30.75
341.342	30.31
341.553	31.28
341.764	31.3
341.975	31.81
342.185	32.43
342.396	33.57
342.607	34.87
342.818	33.89
343.029	32.19
343.239	32.03
343.45	32.96
343.661	33.48
343.872	32.46
344.082	34.41
344.293	34.81
344.504	33.99
344.714	33.16
344.925	32.88
345.136	32.04
345.346	32.96
345.557	33.45
345.768	33.55
345.978	33.98
346.189	35.84
346.399	34.41
346.61	35.87
346.821	36.2
347.031	35.93
347.242	35.45
347.452	37.55
347.663	37.54
347.873	37.71
348.084	37.2
348.294	37.27
348.504	35.47
348.715	35.37
348.925	33.9
349.136	34.77
349.346	34.25
349.557	34.84
349.767	34.63
349.977	35.35
350.188	34.35
350.398	34.99
350.608	36.2
350.819	37.11
351.029	36.06
351.239	36.61
351.449	34.83
351.66	35.59
351.87	34.89
352.08	35.46
352.29	34.12
352.501	35.82
352.711	36.35
352.921	34.28
353.131	33.62
353.341	35.38
353.552	33.67
353.762	35.11
353.972	35.21
354.182	35.39
354.392	34.5
354.602	35.86
354.812	34.97
355.022	33.3
355.232	34.91
355.442	34.8
355.652	34.76
355.862	35.48
356.072	35.77
356.282	35.74
356.492	35.99
356.702	35.69
356.912	34.4
357.122	35.19
357.332	34.98
357.542	33.8
357.752	34.33
357.962	34.24
358.171	35.14
358.381	34.33
358.591	34.32
358.801	34.37
359.011	35.24
359.221	34.85
359.43	34.39
359.64	34.98
359.85	35.43
360.06	34.76
360.269	34.54
360.479	34.47
360.689	34.98
360.899	35.29
361.108	34.71
361.318	34.89
361.528	35.21
361.737	35.72
361.947	35.68
362.156	36.57
362.366	37.38
362.576	37.46
362.785	37.01
362.995	36.92
363.204	36.41
363.414	37.59
363.623	36.8
363.833	36.92
364.042	36.33
364.252	36.31
364.461	35.5
364.671	35.08
364.88	35.41
365.09	35.47
365.299	35.26
365.509	36.33
365.718	35.43
365.927	36.47
366.137	36.62
366.346	36.73
366.555	36.11
366.765	35.26
366.974	35.64
367.183	34.84
367.393	35.13
367.602	35.16
367.811	34
368.021	34.1
368.23	32.96
368.439	32.66
368.648	31.85
368.857	31.96
369.067	32.8
369.276	32.64
369.485	33.3
369.694	32.6
369.903	32.42
370.112	33.06
370.321	33.03
370.531	33.81
370.74	33.81
370.949	34.35
371.158	33.83
371.367	33.88
371.576	32.62
371.785	31.79
371.994	31.94
372.203	31.71
372.412	31.52
372.621	32.21
372.83	32.46
373.039	32.26
373.248	31.92
373.457	32.32
373.666	32.1
373.874	34.04
374.083	34.5
374.292	34.67
374.501	35.12
374.71	34.35
374.919	33.57
375.128	32.31
375.336	32.2
375.545	32.63
375.754	33.19
375.963	33.88
376.171	32.23
376.38	31.48
376.589	32.02
376.798	32.49
377.006	33.49
377.215	32.98
377.424	33.64
377.632	33.82
377.841	33.48
378.05	33.24
378.258	32.47
378.467	33.3
378.675	34.48
378.884	34.22
379.093	33.7
379.301	32.72
379.51	32.92
379.718	32.59
379.927	32.57
380.135	31.49
380.344	31.44
380.552	31.89
380.761	31.77
380.969	31.24
381.177	31.12
381.386	30.57
381.594	30.51
381.803	30.75
382.011	30.42
382.219	30.71
382.428	31.43
382.636	32
382.845	31.64
383.053	30.96
383.261	30.11
383.469	30.25
383.678	31.01
383.886	31.14
384.094	31.11
384.302	31.5
384.511	31.07
384.719	31.54
384.927	31.03
385.135	31.37
385.343	31.1
385.552	31.28
385.76	31.05
385.968	30.66
386.176	30.95
386.384	30.52
386.592	30.28
386.8	30.37
387.008	30.03
387.216	30.02
387.424	29.68
387.633	30.05
387.841	30.41
388.049	30.23
388.257	30.19
388.465	29.72
388.672	29.98
388.88	29.84
389.088	29.91
389.296	29.27
389.504	29.48
389.712	29.83
389.92	29.5
390.128	29.31
390.336	29.5
390.544	29.11
390.751	29.13
390.959	28.98
391.167	29.22
391.375	29.22
391.583	29.78
391.79	29.52
391.998	28.58
392.206	28.76
392.414	28.97
392.621	28.9
392.829	29.06
393.037	29.04
393.244	29.18
393.452	29.54
393.66	29.42
393.867	29.42
394.075	29.31
394.283	29.48
394.49	29.8
394.698	29.67
394.905	29.61
395.113	29.79
395.32	29.88
395.528	29.99
395.735	29.12
395.943	28.91
396.15	28.88
396.358	28.61
396.565	28.73
396.773	28.51
396.98	28.69
397.188	28.6
397.395	28.6
397.602	28.74
397.81	28.9
398.017	28.99
398.225	29.4
398.432	29.58
398.639	30.03
398.847	30.21
399.054	30.11
399.261	30.41
399.468	30.73
399.676	30.65
399.883	30.66
400.09	30.65
400.297	31.08
400.505	31.16
400.712	30.98
400.919	31.27
401.126	31.21
401.333	31.01
401.54	30.51
401.748	30.38
401.955	30.5
402.162	30.75
402.369	30.62
402.576	30.63
402.783	30.44
402.99	30.11
403.197	29.83
403.404	30.72
403.611	31.31
403.818	31.27
404.025	31.1
404.232	31.15
404.439	30.79
404.646	30.99
404.853	31.04
405.06	31.16
405.267	31.41
405.474	31.43
405.681	30.99
405.887	30.83
406.094	30.88
406.301	31.07
406.508	30.77
406.715	30.82
406.922	30.65
407.128	30.58
407.335	30.59
407.542	31
407.749	31.24
407.955	31.17
408.162	31.14
408.369	31.21
408.575	30.9
408.782	31.31
408.989	31.71
409.195	31.81
409.402	31.57
409.609	31.3
409.815	30.97
410.022	30.62
410.228	30.4
410.435	30.24
410.642	29.88
410.848	30.14
411.055	30.48
411.261	30.29
411.468	30.19
411.674	30.51
411.881	30.57
412.087	30.44
412.294	30.48
412.5	30.18
412.706	30.27
412.913	30.45
413.119	30.34
413.326	29.67
413.532	29.79
413.738	29.74
413.945	29.61
414.151	29.46
414.357	29.69
414.564	29.71
414.77	29.81
414.976	29.92
415.182	30.05
415.389	29.99
415.595	30.07
415.801	29.75
416.007	30.01
416.214	30.01
416.42	30.16
416.626	30.01
416.832	29.89
417.038	30.15
417.244	29.71
417.45	29.7
417.657	29.73
417.863	29.65
418.069	29.64
418.275	29.43
418.481	29.4
418.687	29.36
418.893	29.11
419.099	29.12
419.305	28.97
419.511	29.2
419.717	29.17
419.923	29.17
420.129	29.18
420.335	29.21
420.541	29.08
420.746	29.08
420.952	29.1
421.158	29.18
421.364	29.29
421.57	29.29
421.776	29.3
421.982	29.36
422.187	29.36
422.393	29.41
422.599	29.35
422.805	29.28
423.01	29.03
423.216	28.97
423.422	28.71
423.628	28.73
423.833	28.69
424.039	28.34
424.245	28.03
424.45	27.81
424.656	27.7
424.862	27.7
425.067	27.65
425.273	27.66
425.478	27.66
425.684	27.84
425.889	27.52
426.095	27.39
426.301	27.77
426.506	27.89
426.712	28.12
426.917	28.06
427.123	27.94
427.328	27.85
427.533	27.87
427.739	27.7
427.944	27.91
428.15	27.89
428.355	27.84
428.561	27.62
428.766	27.46
428.971	27.4
429.177	27.32
429.382	27.15
429.587	27.36
429.793	27.14
429.998	27.17
430.203	27.02
430.408	27.1
430.614	27.17
430.819	27.05
431.024	27.18
431.229	27.16
431.434	27.21
431.64	27.35
431.845	27.24
432.05	27.54
432.255	27.46
432.46	27.48
432.665	27.48
432.87	27.39
433.076	27.46
433.281	27.49
433.486	27.47
433.691	27.41
433.896	27.53
434.101	27.63
434.306	27.69
434.511	27.61
434.716	27.45
434.921	27.21
435.126	27.13
435.331	27.12
435.535	27.03
435.74	27.12
435.945	27.13
436.15	27.01
436.355	26.86
436.56	26.84
436.765	27.02
436.97	27
437.174	27.17
437.379	27.35
437.584	27.35
437.789	27.43
437.993	27.15
438.198	27.26
438.403	27.29
438.608	27.42
438.812	27.13
439.017	27.19
439.222	27.31
439.426	27.32
439.631	27.3
439.836	27.23
440.04	27.1
440.245	27.12
440.45	27.07
440.654	26.96
440.859	26.97
441.063	26.97
441.268	26.89
441.472	26.84
441.677	26.93
441.881	26.85
442.086	26.66
442.29	26.81
442.495	26.85
442.699	26.8
442.904	26.71
443.108	26.51
443.312	26.76
443.517	26.59
443.721	26.59
443.925	26.49
444.13	26.49
444.334	26.84
444.538	26.61
444.743	26.53
444.947	26.55
445.151	26.62
445.356	26.84
445.56	26.83
445.764	26.84
445.968	26.71
446.173	26.74
446.377	26.71
446.581	26.56
446.785	26.57
446.989	26.64
447.193	26.49
447.398	26.38
447.602	26.24
447.806	26.14
448.01	26.13
448.214	26.22
448.418	26.13
448.622	26.13
448.826	26.21
449.03	26.4
449.234	26.4
449.438	26.48
449.642	26.64
449.846	26.41
450.05	26.52
450.254	26.56
450.458	26.49
450.662	26.36
450.866	26.28
451.069	25.93
451.273	25.62
451.477	25.71
451.681	25.69
451.885	25.7
452.089	25.9
452.292	25.72
452.496	25.71
452.7	25.67
452.904	25.74
453.107	25.75
453.311	25.93
453.515	25.84
453.719	25.75
453.922	25.69
454.126	25.75
454.33	25.63
454.533	25.61
454.737	25.33
454.94	25.25
455.144	25.02
455.348	25.03
455.551	24.99
455.755	25.1
455.958	25.11
456.162	25.25
456.365	24.95
456.569	24.83
456.772	24.84
456.976	25.18
457.179	25.23
457.383	25.28
457.586	25.29
457.79	25.43
457.993	25.39
458.196	25.3
458.4	25.39
458.603	25.71
458.807	25.94
459.01	25.83
459.213	25.79
459.417	25.87
459.62	26.13
459.823	26.15
460.026	26.19
460.23	26.35
460.433	26.46
460.636	26.43
460.839	26.34
461.042	26.22
461.246	26.37
461.449	26.48
461.652	26.34
461.855	26.27
462.058	26.46
462.261	26.3
462.464	26.11
462.668	26.2
462.871	26.16
463.074	26.01
463.277	26.19
463.48	26.19
463.683	25.89
463.886	25.97
464.089	25.92
464.292	25.63
464.495	25.69
464.698	25.8
464.901	25.7
465.104	25.82
465.306	25.8
465.509	25.69
465.712	25.96
465.915	25.93
466.118	25.99
466.321	26.1
466.524	26.41
466.726	26.45
466.929	26.52
467.132	26.34
467.335	26.37
467.538	26.37
467.74	26.26
467.943	26.13
468.146	26.33
468.348	26.35
468.551	25.94
468.754	25.61
468.956	25.63
469.159	25.67
469.362	25.82
469.564	25.72
469.767	25.98
469.969	26.08
470.172	26.18
470.375	26.21
470.577	26.22
470.78	26.43
470.982	26.7
471.185	26.64
471.387	26.44
471.59	26.22
471.792	26.28
471.995	26.09
472.197	26.31
472.399	26.3
472.602	26.14
472.804	26.27
473.007	26.66
473.209	26.5
473.411	26.59
473.614	26.67
473.816	26.84
474.018	26.97
474.22	27.14
474.423	26.98
474.625	26.8
474.827	27.09
475.03	26.95
475.232	26.88
475.434	26.95
475.636	27.08
475.838	27.19
476.04	27.18
476.243	27.02
476.445	27.11
476.647	27.4
476.849	27.32
477.051	27.24
477.253	27.33
477.455	27.14
477.657	27.15
477.859	27.32
478.061	27.39
478.263	27.41
478.465	27.47
478.667	27.28
478.869	26.98
479.071	27.19
479.273	26.94
479.475	26.94
479.677	27.03
479.879	26.93
480.081	26.82
480.283	26.82
480.485	26.84
480.686	26.9
480.888	26.99
481.09	26.98
481.292	26.98
481.494	27.2
481.695	27.17
481.897	27.16
482.099	27.18
482.301	27.13
482.502	26.96
482.704	26.94
482.906	26.86
483.107	26.78
483.309	26.86
483.511	26.81
483.712	26.78
483.914	26.75
484.115	26.69
484.317	26.7
484.519	26.67
484.72	26.66
484.922	26.6
485.123	26.57
485.325	26.59
485.526	26.56
485.728	26.6
485.929	26.6
486.131	26.56
486.332	26.64
486.534	26.66
486.735	26.55
486.936	26.65
487.138	26.63
487.339	26.59
487.541	26.58
487.742	26.57
487.943	26.49
488.144	26.44
488.346	26.45
488.547	26.42
488.748	26.4
488.95	26.54
489.151	26.5
489.352	26.53
489.553	26.58
489.755	26.62
489.956	26.64
490.157	26.69
490.358	26.79
490.559	26.75
490.76	26.72
490.961	26.7
491.163	26.68
491.364	26.69
491.565	26.77
491.766	26.82
491.967	26.74
492.168	26.71
492.369	26.53
492.57	26.51
492.771	26.61
492.972	26.7
493.173	26.69
493.374	26.72
493.575	26.65
493.776	26.66
493.976	26.64
494.177	26.9
494.378	27.02
494.579	27.35
494.78	27.41
494.981	27.34
495.182	27.17
495.382	27.49
495.583	27.28
495.784	27.35
495.985	27.3
496.185	27.28
496.386	27.12
496.587	27.03
496.788	27.13
496.988	27.06
497.189	26.95
497.39	26.98
497.59	26.74
497.791	26.96
497.992	26.99
498.192	27.06
498.393	27.17
498.593	27.28
498.794	27.18
498.994	26.92
499.195	26.87
499.395	27.17
499.596	27.27
499.796	27.31
499.997	27.23
500.197	27.14
500.398	27.27
500.598	27.3
500.799	27.14
500.999	27.27
501.199	27.62
501.4	27.96
501.6	27.9
501.801	27.8
502.001	27.79
502.201	27.88
502.402	27.99
502.602	27.8
502.802	27.66
503.002	27.79
503.203	27.93
503.403	27.94
503.603	27.82
503.803	27.88
504.003	28.11
504.204	28.1
504.404	28.21
504.604	28.43
504.804	28.64
505.004	28.9
505.204	29.08
505.404	29.11
505.604	29.08
505.804	29.24
506.005	29.23
506.205	29.33
506.405	29.29
506.605	29.24
506.805	29.22
507.005	29.05
507.204	29
507.404	28.81
507.604	28.79
507.804	28.77
508.004	28.65
508.204	28.78
508.404	28.63
508.604	28.88
508.804	28.87
509.003	29.05
509.203	29.17
509.403	29.21
509.603	29.24
509.803	29.45
510.002	29.53
510.202	29.76
510.402	29.87
510.602	29.91
510.801	29.96
511.001	30.09
511.201	29.98
511.4	30.05
511.6	30.16
511.8	30.22
511.999	30.03
512.199	29.88
512.398	29.82
512.598	29.72
512.797	29.88
512.997	29.81
513.197	29.7
513.396	29.74
513.596	29.7
513.795	29.48
513.994	29.57
514.194	29.58
514.393	29.66
514.593	29.57
514.792	29.62
514.992	29.41
515.191	29.54
515.39	29.57
515.59	29.66
515.789	29.51
515.988	29.79
516.188	29.85
516.387	29.9
516.586	30.05
516.786	30.22
516.985	30.26
517.184	30.52
517.383	30.63
517.582	30.7
517.782	30.65
517.981	30.86
518.18	30.8
518.379	30.79
518.578	30.8
518.777	30.93
518.976	30.73
519.176	30.71
519.375	30.6
519.574	30.5
519.773	30.56
519.972	30.63
520.171	30.57
520.37	30.81
520.569	30.84
520.768	30.91
520.967	30.93
521.166	31.04
521.365	31.1
521.564	31.08
521.762	31.16
521.961	31.24
522.16	31.22
522.359	31.42
522.558	31.27
522.757	31.19
522.956	31.39
523.154	31.41
523.353	31.47
523.552	31.48
523.751	31.65
523.949	31.46
524.148	31.28
524.347	31.25
524.546	31.16
524.744	31.02
524.943	31.23
525.142	31.22
525.34	31.23
525.539	31.26
525.737	31.22
525.936	31.28
526.135	31.49
526.333	31.68
526.532	31.81
526.73	31.77
526.929	31.87
527.127	31.9
527.326	31.84
527.524	31.77
527.723	31.81
527.921	31.89
528.12	31.81
528.318	31.81
528.516	31.68
528.715	31.68
528.913	31.66
529.112	31.7
529.31	31.67
529.508	31.71
529.707	31.76
529.905	31.75
530.103	31.82
530.301	31.9
530.5	31.92
530.698	32.03
530.896	32.01
531.094	32.09
531.293	32.09
531.491	32.13
531.689	32.05
531.887	32.06
532.085	32.25
532.283	32.24
532.481	32.28
532.68	32.22
532.878	32.16
533.076	32.21
533.274	32.33
533.472	32.38
533.67	32.31
533.868	32.4
534.066	32.46
534.264	32.34
534.462	32.32
534.66	32.27
534.858	32.35
535.056	32.55
535.253	32.63
535.451	32.61
535.649	32.6
535.847	32.84
536.045	33
536.243	33.03
536.441	33.22
536.638	33.28
536.836	33.3
537.034	33.17
537.232	33.05
537.43	32.89
537.627	32.88
537.825	32.9
538.023	32.79
538.22	32.8
538.418	32.64
538.616	32.58
538.813	32.5
539.011	32.66
539.209	32.92
539.406	32.93
539.604	33.12
539.801	33.18
539.999	33.12
540.196	33.21
540.394	33.04
540.591	33.13
540.789	33.08
540.986	33.06
541.184	33
541.381	32.91
541.579	32.99
541.776	32.96
541.974	32.91
542.171	33.05
542.368	32.97
542.566	33.05
542.763	33.06
542.96	33.06
543.158	33.14
543.355	33.27
543.552	33.41
543.75	33.39
543.947	33.37
544.144	33.38
544.341	33.21
544.539	33.29
544.736	33.17
544.933	33.23
545.13	33.28
545.327	33.21
545.524	33.1
545.722	33.1
545.919	33.31
546.116	33.45
546.313	33.56
546.51	33.77
546.707	33.81
546.904	33.98
547.101	34
547.298	33.92
547.495	34.05
547.692	34.09
547.889	34.04
548.086	33.97
548.283	34.09
548.48	34.02
548.677	33.88
548.874	33.81
549.07	33.74
549.267	33.79
549.464	34.04
549.661	33.93
549.858	33.99
550.055	33.94
550.251	33.77
550.448	33.85
550.645	33.75
550.842	33.89
551.038	33.95
551.235	34.08
551.432	34.16
551.628	34.26
551.825	34.38
552.022	34.13
552.218	34.1
552.415	34.07
552.612	34.16
552.808	34.52
553.005	34.41
553.201	34.47
553.398	34.66
553.594	34.69
553.791	34.5
553.987	34.46
554.184	34.54
554.38	34.72
554.577	34.89
554.773	34.61
554.97	34.49
555.166	34.61
555.362	34.72
555.559	34.63
555.755	34.7
555.952	34.92
556.148	35.18
556.344	35.39
556.541	35.57
556.737	35.66
556.933	35.69
557.129	35.7
557.326	35.84
557.522	35.72
557.718	35.54
557.914	35.31
558.11	35.23
558.307	34.92
558.503	34.73
558.699	34.56
558.895	34.54
559.091	34.61
559.287	34.67
559.483	34.57
559.679	34.62
559.876	34.45
560.072	34.58
560.268	34.68
560.464	34.97
560.66	35.45
560.856	35.6
561.052	35.51
561.247	35.55
561.443	35.38
561.639	35.37
561.835	35.58
562.031	35.96
562.227	35.97
562.423	36.15
562.619	36.25
562.815	36
563.01	36.09
563.206	36.2
563.402	36.31
563.598	36.63
563.793	36.83
563.989	36.58
564.185	36.37
564.381	36.29
564.576	35.93
564.772	35.89
564.968	35.75
565.163	35.64
565.359	35.55
565.555	35.46
565.75	35.43
565.946	35.15
566.141	35.39
566.337	35.55
566.532	35.75
566.728	35.8
566.923	35.7
567.119	35.82
567.314	35.88
567.51	35.99
567.705	36.06
567.901	36.11
568.096	36.53
568.292	36.3
568.487	36.3
568.682	36.21
568.878	36.45
569.073	36.44
569.268	36.44
569.464	36.39
569.659	36.49
569.854	36.49
570.05	36.18
570.245	36.1
570.44	36.4
570.635	36.56
570.831	36.67
571.026	36.68
571.221	36.68
571.416	36.91
571.611	37
571.806	36.96
572.002	37.1
572.197	37.56
572.392	37.6
572.587	37.44
572.782	37.43
572.977	37.2
573.172	37.06
573.367	37.37
573.562	37.37
573.757	37.4
573.952	37.2
574.147	37.05
574.342	36.89
574.537	36.9
574.732	37.02
574.927	36.98
575.121	37.03
575.316	37.21
575.511	37.1
575.706	37.11
575.901	37.17
576.096	37.42
576.29	37.64
576.485	37.58
576.68	37.41
576.875	37.52
577.069	37.56
577.264	37.59
577.459	37.54
577.654	37.45
577.848	37.43
578.043	37.16
578.238	37.25
578.432	37.17
578.627	37.14
578.821	37.34
579.016	37.42
579.21	37.2
579.405	37.57
579.6	37.42
579.794	37.36
579.989	37.33
580.183	37.38
580.378	37.27
580.572	37.27
580.766	37.57
580.961	37.49
581.155	37.28
581.35	37.44
581.544	37.31
581.738	37.49
581.933	37.5
582.127	37.27
582.321	37.37
582.516	37.3
582.71	37.14
582.904	37
583.099	36.94
583.293	36.77
583.487	36.71
583.681	36.7
583.875	36.57
584.07	36.35
584.264	36.57
584.458	36.45
584.652	36.35
584.846	36.36
585.04	36.08
585.234	35.92
585.428	36.39
585.623	36.46
585.817	36.31
586.011	36.42
586.205	36.4
586.399	36.29
586.593	36.49
586.787	36.92
586.981	36.86
587.174	37.09
587.368	37.38
587.562	36.97
587.756	36.97
587.95	36.91
588.144	37.03
588.338	37.39
588.532	37.71
588.725	37.79
588.919	37.43
589.113	37.44
589.307	37.33
589.501	37.22
589.694	37.05
589.888	37.3
590.082	37.49
590.275	37.21
590.469	37.19
590.663	36.88
590.856	36.89
591.05	36.99
591.244	36.84
591.437	36.93
591.631	36.72
591.824	37.14
592.018	37.04
592.212	37.01
592.405	36.98
592.599	36.62
592.792	36.55
592.986	36.66
593.179	36.98
593.372	37.37
593.566	37.39
593.759	37.43
593.953	37.54
594.146	37.22
594.339	37.52
594.533	37.59
594.726	37.62
594.92	37.72
595.113	37.61
595.306	37.3
595.499	37.12
595.693	37.13
595.886	37.28
596.079	37.09
596.272	37.2
596.466	37.04
596.659	37.13
596.852	37.45
597.045	37.58
597.238	37.75
597.431	37.68
597.624	37.74
597.818	37.88
598.011	37.77
598.204	37.75
598.397	37.99
598.59	37.94
598.783	38.14
598.976	38.02
599.169	38.16
599.362	37.7
599.555	37.82
599.748	37.86
599.941	37.84
600.134	37.91
600.326	37.94
600.519	37.63
600.712	37.72
600.905	37.55
601.098	37.73
601.291	37.08
601.483	37.45
601.676	37.36
601.869	37.31
602.062	37.51
602.255	37.44
602.447	37.4
602.64	37.49
602.833	37.45
603.025	37.65
603.218	37.6
603.411	37.91
603.603	37.9
603.796	37.9
603.989	38.12
604.181	37.85
604.374	38.02
604.566	38.08
604.759	37.91
604.951	38.1
605.144	38.11
605.336	38.25
605.529	38.42
605.721	38.34
605.914	38.29
606.106	38.19
606.299	38.15
606.491	38.21
606.683	38.12
606.876	38.27
607.068	37.99
607.26	37.73
607.453	37.24
607.645	37.07
607.837	37.02
608.03	37.21
608.222	37.12
608.414	37.43
608.606	37.48
608.799	37.47
608.991	37.59
609.183	37.58
609.375	37.46
609.567	37.58
609.759	37.26
609.952	37.31
610.144	37.17
610.336	37.08
610.528	36.93
610.72	36.62
610.912	36.65
611.104	36.32
611.296	36.2
611.488	36.24
611.68	36.25
611.872	36.58
612.064	36.3
612.256	36.37
612.448	36.49
612.64	36.59
612.832	36.65
613.023	36.4
613.215	36.72
613.407	37.12
613.599	37.12
613.791	37.11
613.983	36.98
614.174	37.15
614.366	37.39
614.558	37.12
614.75	36.98
614.941	37.09
615.133	37.52
615.325	37.59
615.516	37.06
615.708	37.3
615.9	37.52
616.091	37.6
616.283	37.61
616.475	37.42
616.666	37.45
616.858	37.46
617.049	37.84
617.241	38
617.432	37.88
617.624	38.19
617.815	38.15
618.007	37.8
618.198	37.57
618.39	37.56
618.581	37.81
618.773	37.88
618.964	37.94
619.155	37.33
619.347	37.08
619.538	36.95
619.729	37.16
619.921	36.98
620.112	37.06
620.303	37.39
620.494	37.56
620.686	36.97
620.877	37.36
621.068	37.31
621.259	37.71
621.451	37.78
621.642	37.85
621.833	37.42
622.024	37.85
622.215	38.02
622.406	37.99
622.597	38.16
622.788	38.75
622.98	38.48
623.171	38.4
623.362	38.32
623.553	37.99
623.744	37.95
623.935	38.47
624.126	38.23
624.317	38.16
624.508	38.02
624.698	37.9
624.889	38.09
625.08	38.07
625.271	37.92
625.462	38.07
625.653	38.57
625.844	38.46
626.034	38.06
626.225	38.06
626.416	37.98
626.607	37.92
626.798	37.88
626.988	37.69
627.179	37.8
627.37	37.9
627.56	37.81
627.751	37.43
627.942	37.58
628.132	37.62
628.323	37.57
628.514	37.96
628.704	38.11
628.895	38.03
629.085	38.21
629.276	37.86
629.466	37.9
629.657	37.84
629.847	37.79
630.038	38.11
630.228	38.18
630.419	38.48
630.609	38.03
630.8	37.91
630.99	37.4
631.181	36.99
631.371	37.19
631.561	37.13
631.752	36.89
631.942	37.16
632.132	37.24
632.323	37.48
632.513	37.26
632.703	36.96
632.893	36.81
633.084	37.51
633.274	37.64
633.464	37.71
633.654	37.68
633.844	37.65
634.034	37.54
634.225	37.33
634.415	37.06
634.605	36.66
634.795	36.94
634.985	37.21
635.175	36.96
635.365	37.22
635.555	37.27
635.745	37.4
635.935	37.88
636.125	37.96
636.315	37.8
636.505	37.99
636.695	38.37
636.885	38.9
637.075	38.79
637.265	38.98
637.455	38.87
637.644	38.62
637.834	38.7
638.024	38.47
638.214	38.38
638.404	38.41
638.593	38.23
638.783	38.17
638.973	37.83
639.163	37.94
639.352	37.81
639.542	38.11
639.732	38.11
639.921	38.02
640.111	38.02
640.301	38.38
640.49	38.39
640.68	38.3
640.87	38.32
641.059	38.63
641.249	38.77
641.438	39
641.628	38.34
641.817	38.59
642.007	38.29
642.196	38.3
642.386	38.18
642.575	38.07
642.764	38.1
642.954	37.97
643.143	37.59
643.333	37.33
643.522	37.26
643.711	37.62
643.901	37.58
644.09	37.65
644.279	37.36
644.469	37.01
644.658	37.15
644.847	37.43
645.036	37.79
645.226	37.26
645.415	37.4
645.604	37.06
645.793	36.75
645.982	36.94
646.171	37.26
646.361	37.36
646.55	37.58
646.739	37.4
646.928	37.08
647.117	36.95
647.306	37.12
647.495	37.3
647.684	37.7
647.873	37.62
648.062	37.43
648.251	36.74
648.44	36.91
648.629	37.09
648.818	37.27
649.007	37.2
649.196	37.06
649.384	37.4
649.573	37.46
649.762	37.33
649.951	37.58
650.14	37.12
650.328	37.44
650.517	37.67
650.706	37.61
650.895	37.51
651.083	37.74
651.272	37.98
651.461	38.15
651.65	37.45
651.838	37.22
652.027	36.97
652.216	37.4
652.404	37.78
652.593	37.63
652.781	37.96
652.97	37.99
653.158	38.17
653.347	37.94
653.535	37.64
653.724	38.28
653.912	38.6
654.101	38.77
654.289	38.91
654.478	38.73
654.666	38.71
654.855	38.17
655.043	37.88
655.231	37.79
655.42	37.49
655.608	37.72
655.796	37.64
655.985	37.78
656.173	37.9
656.361	38.29
656.55	38.16
656.738	37.99
656.926	38.14
657.114	38.04
657.302	38.2
657.491	38.7
657.679	38.58
657.867	38.15
658.055	37.99
658.243	37.83
658.431	37.45
658.619	37.6
658.807	37.94
658.996	37.81
659.184	38.3
659.372	38.27
659.56	38.22
659.748	38.37
659.936	38.73
660.124	38.51
660.311	38.54
660.499	38.33
660.687	38.14
660.875	37.69
661.063	37.67
661.251	37.38
661.439	36.97
661.627	36.96
661.814	37
662.002	36.72
662.19	37.2
662.378	36.56
662.565	36.45
662.753	36.96
662.941	36.96
663.129	36.9
663.316	36.71
663.504	36.94
663.692	36.55
663.879	36.85
664.067	37.28
664.254	37.44
664.442	37.61
664.63	38.22
664.817	37.72
665.005	38.11
665.192	38.07
665.38	38.07
665.567	38.28
665.755	38.36
665.942	38.05
666.13	37.69
666.317	37.1
666.504	37.75
666.692	37.64
666.879	37.75
667.067	37.44
667.254	37.64
667.441	38.38
667.629	37.71
667.816	37.72
668.003	38.05
668.19	38.23
668.378	38.19
668.565	38.05
668.752	38.21
668.939	38.27
669.127	38.36
669.314	38.89
669.501	38.74
669.688	39.11
669.875	39.2
670.062	38.54
670.249	38.25
670.436	37.67
670.623	37.74
670.81	37.72
670.997	37.87
671.184	38.5
671.371	37.95
671.558	37.78
671.745	38.13
671.932	38.09
672.119	38.02
672.306	38.17
672.493	39.05
672.68	39.21
672.867	38.73
673.054	38.27
673.24	38.21
673.427	38.14
673.614	37.71
673.801	37.58
673.988	37.43
674.174	37.68
674.361	37.32
674.548	37.3
674.734	36.89
674.921	37.27
675.108	37.54
675.294	37.43
675.481	37.29
675.668	37.78
675.854	37.31
676.041	37.4
676.227	37.61
676.414	38.43
676.601	38.05
676.787	38.03
676.974	37.51
677.16	37.79
677.347	37.18
677.533	37.89
677.719	37.83
677.906	38.2
678.092	38.35
678.279	38.31
678.465	37.86
678.651	38.6
678.838	38.66
679.024	38.98
679.21	38.76
679.397	39.04
679.583	38.17
679.769	37.97
679.955	37.66
680.142	37.61
680.328	36.91
680.514	37.02
680.7	36.39
680.886	36.88
681.073	36.69
681.259	36.99
681.445	36.99
681.631	37.28
681.817	37.16
682.003	37.58
682.189	37.68
682.375	37.65
682.561	37.9
682.747	38.09
682.933	37.45
683.119	37.64
683.305	37.14
683.491	37.41
683.677	37.21
683.863	37.82
684.049	37.99
684.235	37.98
684.42	38.32
684.606	38.19
684.792	38.15
684.978	38.77
685.164	38.87
685.349	38.51
685.535	37.95
685.721	38.37
685.907	37.6
686.092	36.6
686.278	35.69
686.464	36.58
686.649	36.05
686.835	35.7
687.021	35.64
687.206	35.73
687.392	35.97
687.577	36.5
687.763	36.37
687.948	36.61
688.134	36.94
688.319	37.37
688.505	37.22
688.69	37.53
688.876	37.95
689.061	37.76
689.247	37.96
689.432	38.5
689.618	37.97
689.803	38.52
689.988	38.94
690.174	39.12
690.359	39.48
690.544	39.34
690.73	39.61
690.915	39.93
691.1	39.98
691.285	39.6
691.471	39.23
691.656	39.49
691.841	38.68
692.026	37.71
692.211	37.75
692.396	36.92
692.582	36.18
692.767	35.79
692.952	35.9
693.137	35.71
693.322	35.97
693.507	35.29
693.692	35.34
693.877	35.42
694.062	36.31
694.247	36.15
694.432	36.89
694.617	37.12
694.802	36.95
694.987	36.34
695.172	35.56
695.357	34.83
695.541	35.91
695.726	35.85
695.911	36.07
696.096	35.83
696.281	36.08
696.466	35.87
696.65	36.09
696.835	36.14
697.02	36.89
697.204	37.99
697.389	38.44
697.574	38.11
697.759	37.83
697.943	37.92
698.128	38.34
698.312	38.21
698.497	38.76
698.682	38.89
698.866	38.63
699.051	38.45
699.235	37.88
699.42	37.42
699.604	37.69
699.789	37.77
699.973	37.49
700.158	37.1
700.342	37.09
700.527	36.41
700.711	36.43
700.895	36.5
701.08	35.67
701.264	35.62
701.448	35.68
701.633	34.9
701.817	34.76
702.001	34.82
702.186	34.14
702.37	34.25
702.554	34.75
702.738	35.03
702.923	35.78
703.107	35.99
703.291	36.08
703.475	37.12
703.659	37.91
703.843	38.04
704.027	37.89
704.212	38.01
704.396	37.51
704.58	37.33
704.764	36.25
704.948	35.29
705.132	35.67
705.316	36.25
705.5	35.43
705.684	35.16
705.868	35.11
706.052	35.62
706.235	36.48
706.419	37.14
706.603	37.32
706.787	38.14
706.971	38.6
707.155	38.18
707.339	38.55
707.522	38.64
707.706	38.61
707.89	38.18
708.074	36.72
708.257	36.67
708.441	36.85
708.625	37.17
708.808	36.38
708.992	36.94
709.176	36.93
709.359	36.88
709.543	36.49
709.727	36.72
709.91	37.18
710.094	38.47
710.277	38.47
710.461	38.28
710.644	37.57
710.828	38.07
711.011	37.82
711.195	38.04
711.378	36.8
711.562	37.14
711.745	36.58
711.928	36.46
712.112	36.31
712.295	36.41
712.478	36.03
712.662	36.58
712.845	36.62
713.028	37.13
713.212	37.62
713.395	38.63
713.578	38.75
713.761	39.41
713.945	39.53
714.128	39.72
714.311	39.29
714.494	39.77
714.677	39.47
714.86	39.24
715.043	39.09
715.227	38.62
715.41	38.57
715.593	38.82
715.776	38.67
715.959	39.04
716.142	38.74
716.325	38.3
716.508	38.01
716.691	38.23
716.874	39.5
717.057	39.11
717.239	39.47
717.422	39.42
717.605	38.85
717.788	38.64
717.971	38.63
718.154	38.71
718.337	39.52
718.519	39.56
718.702	40.32
718.885	39.45
719.068	39.74
719.25	39.65
719.433	38.93
719.616	39.33
719.798	39.35
719.981	39.34
720.164	39.96
720.346	39.54
720.529	39.62
720.712	38.4
720.894	37.21
721.077	36.46
721.259	36.49
721.442	36.32
721.624	36.53
721.807	36.51
721.989	35.68
722.172	35.5
722.354	34.49
722.537	33.82
722.719	33.04
722.901	33.21
723.084	33.73
723.266	33.84
723.448	34.41
723.631	34.23
723.813	34.32
723.995	36.1
724.178	35.31
724.36	36.93
724.542	36.6
724.724	36.97
724.907	36.73
725.089	36.54
725.271	35.62
725.453	36.47
725.635	36.28
725.817	35.79
725.999	35.03
726.181	35.55
726.364	35.81
726.546	36.6
726.728	37.51
726.91	37.96
727.092	38.1
727.274	38.08
727.456	38.23
727.638	38.25
727.819	38.17
728.001	38.47
728.183	37.85
728.365	37.5
728.547	38.02
728.729	37.42
728.911	36.66
729.093	35.94
729.274	36.37
729.456	35
729.638	35.72
729.82	36.19
730.001	36
730.183	36.24
730.365	35.4
730.546	34.11
730.728	34.94
730.91	35.4
731.091	34.93
731.273	33.35
731.455	33.29
731.636	32.81
731.818	32.37
731.999	31.56
732.181	31.39
732.362	32.87
732.544	32.79
732.725	33.06
732.907	34.1
733.088	34.75
733.27	36.03
733.451	36.54
733.633	36.89
733.814	38.02
733.995	37.67
734.177	38.94
734.358	37.96
734.539	37.92
734.721	37.42
734.902	36.63
735.083	36.16
735.264	37.19
735.446	37.27
735.627	36.63
735.808	36.38
735.989	36.43
736.17	36.54
736.351	35.48
736.533	37.26
736.714	36.16
736.895	35.95
737.076	37.54
737.257	37.3
737.438	36.79
737.619	36.05
737.8	35.39
737.981	35.67
738.162	34.01
738.343	35.79
738.524	35.43
738.705	36.18
738.886	36.7
739.067	34.86
739.247	35.22
739.428	36.87
739.609	37.33
739.79	38.3
739.971	38.06
740.151	37.86
740.332	37.6
740.513	37.64
740.694	35.84
740.874	36.24
741.055	36.64
741.236	35.33
741.417	34.18
741.597	33.79
741.778	32.86
741.958	33.64
742.139	34.65
742.32	34.5
742.5	33.7
742.681	34.43
742.861	34.91
743.042	35.24
743.222	36.58
743.403	37.48
743.583	38.35
743.764	38.54
743.944	39.04
744.124	39.24
744.305	39.06
744.485	38.2
744.666	39.84
744.846	39
745.026	39.93
745.207	40.14
745.387	38.61
745.567	38.53
745.747	37.18
745.928	36.28
746.108	35.62
746.288	34.77
746.468	35.81
746.648	36.29
746.829	35.63
747.009	35.23
747.189	33.96
747.369	33.54
747.549	32.9
747.729	33.64
747.909	33.48
748.089	33.62
748.269	34.69
748.449	34.53
748.629	33.86
748.809	33.93
748.989	34.64
749.169	33.94
749.349	35.61
749.529	35.89
749.709	35.65
749.889	35.3
750.068	35.82
750.248	36.16
750.428	36.58
750.608	38.13
750.788	38.24
750.967	35.92
751.147	36.57
751.327	35.63
751.507	35.55
751.686	35.75
751.866	37.22
752.046	36.95
752.225	36.7
752.405	37.39
752.585	35.86
752.764	35.56
752.944	38.22
753.123	38.19
753.303	38.16
753.482	38.21
753.662	37.92
753.841	37.33
754.021	36.42
754.2	36.77
754.38	35.7
754.559	35.52
754.739	35.03
754.918	34.07
755.097	33.72
755.277	34.7
755.456	33.89
755.635	33.27
755.815	31.65
755.994	32.58
756.173	32.95
756.352	34.56
756.532	34.46
756.711	34.57
756.89	32.57
757.069	31.81
757.248	31.9
757.427	33.1
757.607	34.59
757.786	35.63
757.965	35.93
758.144	34.9
758.323	32.92
758.502	32.13
758.681	32.71
758.86	35.35
759.039	34.86
759.218	34.46
759.397	34.22
759.576	33.54
759.755	34.51
759.934	33.14
760.113	32.66
760.291	31.83
760.47	32.39
760.649	31.18
760.828	29.92
761.007	31.57
761.186	31.52
761.364	31.2
761.543	31.89
761.722	30.82
761.901	31.13
762.079	31.17
762.258	32.97
762.437	34.67
762.615	35.37
762.794	35.46
762.972	35.63
763.151	35.16
763.33	35.48
763.508	35.83
763.687	36.23
763.865	36.78
764.044	37.46
764.222	37.45
764.401	36.58
764.579	36.48
764.758	36.7
764.936	36.96
765.114	37.43
765.293	36.72
765.471	36.79
765.65	36.62
765.828	36.66
766.006	37.18
766.184	35.93
766.363	35.21
766.541	35.3
766.719	35.04
766.898	34.64
767.076	35.74
767.254	35.26
767.432	34.35
767.61	34.03
767.788	32.53
767.967	31.17
768.145	31.68
768.323	32.68
768.501	33.71
768.679	32.99
768.857	31.93
769.035	29.99
769.213	31.97
769.391	30.35
769.569	30.16
769.747	30.46
769.925	28.9
770.103	30.48
770.281	28.48
770.459	26.83
770.636	27.84
770.814	28.23
770.992	28.65
771.17	26.66
771.348	27.26
771.525	27.51
771.703	28.7
771.881	29.69
772.059	27.95
772.236	30.52
772.414	29.71
772.592	28.81
772.769	30.21
772.947	32.49
773.125	35.79
773.302	38.32
773.48	37.93
773.657	38
773.835	40.05
774.013	42.64
774.19	41.11
774.368	41.73
774.545	42.71
774.723	40.82
774.9	39.25
775.077	37.5
775.255	37.16
775.432	37.51
775.61	38.84
775.787	38
775.964	37.01
776.142	39.21
776.319	39.71
776.496	39.35
776.674	41.49
776.851	41.52
777.028	40.08
777.205	37.56
777.382	38.47
777.56	39.67
777.737	36.88
777.914	35.28
778.091	34.6
778.268	34.37
778.445	34.02
778.622	31.13
778.8	28.54
778.977	30.45
779.154	33.3
779.331	33.92
779.508	32.72
779.685	33.2
779.862	34.43
780.038	29.43
780.215	28.84
780.392	28.89
780.569	31.08
780.746	31.28
780.923	34.52
781.1	34.19
781.277	33.66
781.453	28.24
781.63	31.29
781.807	31.13
781.984	33.25
782.16	35.25
782.337	36.2
782.514	37.55
782.691	40.09
782.867	36.01
783.044	33.54
783.221	32.65
783.397	33.65
783.574	30.59
783.75	29.55
783.927	31.93
784.103	32.1
784.28	28.45
784.456	26.39
784.633	27.06
784.809	28.16
784.986	31.43
785.162	31.52
785.339	34.9
785.515	37.32
785.692	37.9
785.868	36.07
786.044	35.28
786.221	40.19
786.397	40.12
786.573	38.94
786.749	39.19
786.926	36.61
787.102	37.31
787.278	33.9
787.454	35.06
787.631	35.44
787.807	36.93
787.983	35.8
788.159	34.33
788.335	36.04
788.511	37.51
788.687	35.9
788.863	37.27
789.039	37.23
789.216	37.7
789.392	35.99
789.568	34.13
789.744	33.07
789.919	33.97
790.095	32.53
790.271	30.7
790.447	28.05
790.623	29.42
790.799	28.67
790.975	28.64
791.151	29.63
791.327	29.97
791.502	30.83
791.678	32.9
791.854	33.11
792.03	34.95
792.205	33.19
792.381	32.88
792.557	32.94
792.733	30.78
792.908	32.15
793.084	32.57
793.259	31.19
793.435	32.15
793.611	27.68
793.786	28.9
793.962	28.42
794.137	28.33
794.313	27.24
794.488	24.99
794.664	25.03
794.839	22.22
795.015	27.62
795.19	27.99
795.366	26.9
795.541	31.72
795.716	30.86
795.892	29.64
796.067	28.77
796.242	31.94
796.418	34.93
796.593	38.56
796.768	40.23
796.944	38.45
797.119	40.42
797.294	39.09
797.469	38.09
797.644	37.76
797.82	38.46
797.995	39.84
798.17	39.99
798.345	40.13
798.52	38.49
798.695	38.8
798.87	35.4
799.045	32.24
799.22	36.48
799.395	33.61
799.57	34.7
799.745	35.17
799.92	35.39
800.095	33.64
800.27	30.34
800.445	29.7
800.62	26.98
800.795	30.45
800.97	34.81
801.145	32.28
801.319	31.43
801.494	29.44
801.669	31.54
801.844	29.65
802.018	33.33
802.193	32.8
802.368	27.51
802.543	30.6
802.717	27.23
802.892	23.41
803.067	20.73
803.241	21.33
803.416	25.73
803.59	21.4
803.765	23.19
803.94	17.96
804.114	19.65
804.289	21.87
804.463	19.35
804.638	21.06
804.812	18.58
804.986	21.51
805.161	25.95
805.335	26.22
805.51	26.55
805.684	27.35
805.858	27.4
806.033	29.27
806.207	28.72
806.381	31.99
806.556	33.45
806.73	39.12
806.904	38.99
807.078	37.45
807.253	31.48
807.427	33.27
807.601	29.68
807.775	30.42
807.949	28.04
808.123	30.99
808.298	26.46
808.472	21.96
808.646	21.2
808.82	18.76
808.994	18.74
809.168	22.4
809.342	17.95
809.516	20.62
809.69	20.4
809.864	21.53
810.038	23.24
810.212	22.71
810.385	20.86
810.559	18.82
810.733	21.97
810.907	21.21
811.081	17.86
811.255	22.54
811.428	19.66
811.602	21.18
811.776	21.39
811.95	21.61
812.123	18.64
812.297	22.83
812.471	24.24
812.644	21.96
812.818	23.78
812.992	25.37
813.165	24.16
813.339	26.63
813.512	23.97
813.686	24.18
813.86	25.42
814.033	30.14
814.207	32.55
814.38	34.3
814.554	36.45
814.727	32.28
814.9	37
815.074	36.8
815.247	42.14
815.421	42.81
815.594	36.38
815.767	30.14
815.941	29.21
816.114	26.05
816.287	24.73
816.46	17.98
816.634	18.57
816.807	12
816.98	11.16
817.153	4.77
817.327	1.5
817.5	8.3
817.673	7.61
817.846	8.5
818.019	12.01
818.192	13.04
818.365	15.23
818.538	15.84
818.711	20.46
818.884	25.67
819.057	25.92
819.23	27.82
819.403	23.17
819.576	24.76
819.749	28.92
819.922	28.36
820.095	27.34
820.268	26.82
820.441	28.61
820.614	29.04
820.786	25.53
820.959	29.51
821.132	30.39
821.305	31.34
821.477	33.67
821.65	32.74
821.823	32.54
821.996	33.53
822.168	35.71
822.341	36.01
822.514	35.04
822.686	35.31
822.859	35.59
823.031	35.79
823.204	36.19
823.376	35.87
823.549	36.04
823.722	36.52
823.894	37.26
824.067	36.02
824.239	34.73
824.411	35.4
824.584	35.46
824.756	35.68
824.929	35.35
825.101	35.72
825.273	35.6
825.446	34.94
825.618	33.58
825.79	31.48
825.963	31.75
826.135	33.09
826.307	34.01
826.479	34.09
826.652	33.58
826.824	32.96
826.996	31.71
827.168	31.72
827.34	30.9
827.512	31.41
827.684	32.17
827.856	32.93
828.029	32.97
828.201	31.66
828.373	30.36
828.545	28.7
828.717	31.22
828.889	32.33
829.061	31.85
829.232	35.9
829.404	34.77
829.576	34.85
829.748	31.92
829.92	31.99
830.092	30.62
830.264	34.25
830.436	36.96
830.607	32.09
830.779	30.02
830.951	30.64
831.123	28.29
831.294	29.47
831.466	26.75
831.638	28.98
831.809	28.59
831.981	32.67
832.153	29.03
832.324	21.68
832.496	26.74
832.667	29.93
832.839	30.78
833.011	28.68
833.182	30.31
833.354	25.7
833.525	28.73
833.697	26.31
833.868	24.63
834.039	22.95
834.211	26.08
834.382	24.75
834.554	24.66
834.725	23.96
834.896	24.57
835.068	22.24
835.239	27.73
835.41	25.86
835.581	27.71
835.753	25.24
835.924	30.71
836.095	27.37
836.266	24.1
836.438	23.96
836.609	23.77
836.78	21.5
836.951	23.03
837.122	24.49
837.293	22.9
837.464	27.52
837.635	23.67
837.806	19.61
837.977	20.7
838.148	24.12
838.319	19.33
838.49	13.26
838.661	16.91
838.832	21.66
839.003	18.47
839.174	21.22
839.345	18.16
839.516	28.51
839.687	26.85
839.857	28.75
840.028	27.31
840.199	34.78
840.37	37.92
840.54	34.58
840.711	32.57
840.882	30.45
841.053	31.51
841.223	26.1
841.394	21.02
841.564	20.46
841.735	22.59
841.906	27.28
842.076	23.66
842.247	29.54
842.417	34.28
842.588	31.59
842.758	33.11
842.929	32.28
843.099	34.02
843.27	42.07
843.44	52.76
843.611	47.24
843.781	45.94
843.951	46.93
844.122	42.8
844.292	37.88
844.462	31.99
844.633	34.4
844.803	40.13
844.973	39.06
845.144	30.69
845.314	5.52
845.484	23.69
845.654	22.34
845.824	7.83
845.995	-13.26
846.165	-12.05
846.335	19.37
846.505	-28.98
846.675	-29.05
846.845	-12.7
847.015	-3.45
847.185	-8.17
847.355	-22.89
847.525	-62.39
847.695	-52.26
847.865	7.65
848.035	12.38
848.205	-16.99
848.375	7.21
848.545	-8.24
848.715	-17.77
848.884	-23.54
849.054	-18.3
849.224	-4.11
849.394	32.05
849.564	46.3
849.733	1
849.903	-20.95
850.073	8.1
850.243	10.38
850.412	29
850.582	51.25
850.752	45.95
850.921	42.32
851.091	3.71
851.26	-23.21
851.43	-13.64
851.599	-40.8
851.769	-22.55
851.939	-42.94
852.108	-35.51
852.278	-45.34
852.447	-72.24
852.616	-41.39
852.786	-29.43
852.955	3.1
853.125	9.49
853.294	4.82
853.463	37.59
853.633	32.78
853.802	35.6
853.971	37.07
854.141	64.57
854.31	79.17
854.479	67.05
854.648	78.01
854.818	89.08
854.987	106.93
855.156	130.85
855.325	32.61
855.494	20.85
855.663	49.51
855.832	44.84
856.001	28.63
856.171	-4.83
856.34	22.78
856.509	47.53
856.678	61.99
856.847	43.53
857.016	36.5
857.185	38.75
857.353	46.22
857.522	40.52
857.691	48.39
857.86	33.49
858.029	34.98
858.198	15.71
858.367	-30.23
858.535	-54.55
858.704	-20.19
858.873	-25.58
859.042	-35.64
859.21	-7.95
859.379	-3.12
859.548	-2.47
859.717	-14.43
859.885	3.34
860.054	13.57
860.222	33.64
860.391	25.1
860.56	26.6
860.728	55.12
860.897	67.45
861.065	50.17
861.234	16.91
861.402	33.06
861.571	31.33
861.739	21.68
861.908	34.26
862.076	31.58
862.244	45.86
862.413	30.56
862.581	-0.52
862.749	-3.14
862.918	5.14
863.086	20.02
863.254	26.69
863.423	25.78
863.591	35.91
863.759	34.04
863.927	30.53
864.096	5.45
864.264	11.36
864.432	-5.02
864.6	-4.21
864.768	2.41
864.936	-254.39
865.104	-455.48
865.272	-425.9
865.44	649.57
865.608	1007.94
865.776	-704.68
865.944	1399.57
866.112	-1054.17
866.28	-1069.27
866.448	-9505.8
866.616	-623.21
866.784	-22.23
866.952	-19.26
867.12	-10.25
867.288	27.8
867.455	-1.19
867.623	-42.21
867.791	-10.96
867.959	-10.25
868.127	56.1
868.294	59.5
868.462	36.48
868.63	21.2
868.797	18.34
868.965	14.96
869.133	-25.6
869.3	11.16
869.468	-5.41
869.636	3.55
869.803	15.03
869.971	-7.54
870.138	-21.39
870.306	-24.17
870.473	-51.13
870.641	-23.51
870.808	-24.78
870.975	-23.8
871.143	-37.99
871.31	-46.32
871.478	-59.79
871.645	-156.01
871.812	-135.58
871.98	-50.42
872.147	-91.8
872.314	-24.63
872.482	-32.95
872.649	-35.15
872.816	-34.87
872.983	-32.05
873.15	7.14
873.318	37.04
873.485	19.02
873.652	13.69
873.819	-22.47
873.986	9.25
874.153	-20.56
874.32	-38.78
874.487	-35.64
874.654	-5.3
874.821	-2.14
874.988	-24.1
875.155	-71.97
875.322	-78.61
875.489	-144.57
875.656	2667.27
875.823	397.69
875.99	233.05
876.157	-248.3
876.324	-191.16
876.49	-111.32
876.657	-141.48
876.824	-160.96
876.991	-27.88
877.157	-10.1
877.324	10.68
877.491	9.42
877.658	10.39
877.824	18.92
877.991	9.84
878.157	1.17
878.324	-18.2
878.491	-15.73
878.657	-28.96
878.824	-85.3
878.99	-215.19
879.157	-1602.1
879.323	-266.01
879.49	10091.8
879.656	931.55
879.823	364.37
879.989	384.1
880.156	240.2
880.322	443.6
880.488	-73.88
880.655	-14.25
880.821	5.81
880.987	17.17
881.154	17.03
881.32	30.58
881.486	32.67
881.652	22.77
881.819	43.45
881.985	45.81
882.151	45.34
882.317	35.82
882.483	33.32
882.649	36.48
882.816	36.66
882.982	37.54
883.148	36.19
883.314	33.48
883.48	34.75
883.646	33.88
883.812	32.29
883.978	33.29
884.144	31.2
884.31	28.47
884.476	26.69
884.642	27.55
884.807	27
884.973	24.49
885.139	29.82
885.305	30.36
885.471	26.4
885.637	23.24
885.802	25.52
885.968	32.15
886.134	31.88
886.3	33.24
886.465	35.7
886.631	32.99
886.797	37.03
886.962	26.58
887.128	21.6
887.293	27
887.459	25.1
887.625	15.15
887.79	7.14
887.956	11.65
888.121	10.4
888.287	-11.55
888.452	-4.5
888.618	-23.81
888.783	-110.83
