Data from 2937897_Reflection_3.txt Node
Date: Wed Jul 15 13:50:03 EDT 2015
User: robert
Spectrometer: USB4E03001
Autoset integration time: false
Trigger mode: 4
Integration Time (sec): 1.000000E-1
Scans to average: 10
Electric dark correction enabled: true
Nonlinearity correction enabled: false
Boxcar width: 5
Stray light correction enabled: false
XAxis mode: Wavelengths
Stop averaging: false
Number of Pixels in Spectrum: 3648
>>>>>Begin Spectral Data<<<<<
177.566	17.4
177.785	-19.81
178.005	-51.88
178.225	-553.06
178.445	-95.77
178.665	-174.78
178.885	383.27
179.105	-430.43
179.324	-53.29
179.544	34.94
179.764	84.39
179.984	96.63
180.204	118.61
180.423	86.67
180.643	6.63
180.863	53.45
181.083	93.9
181.302	821.29
181.522	237.03
181.742	196.61
181.961	183.11
182.181	208.62
182.401	302.64
182.621	313.32
182.84	296.87
183.06	313.58
183.279	-310.32
183.499	2405.38
183.719	130.4
183.938	47.72
184.158	187.46
184.377	174.33
184.597	159.97
184.816	85.51
185.036	67.12
185.256	120.49
185.475	97.97
185.695	148.06
185.914	77.99
186.134	61.85
186.353	33.86
186.572	-21.38
186.792	-13.89
187.011	-51.39
187.231	9.67
187.45	213.72
187.67	338.5
187.889	70.05
188.108	52.01
188.328	-25.5
188.547	99.41
188.766	23.92
188.986	3.51
189.205	164.57
189.424	112.04
189.644	25.42
189.863	44.48
190.082	60.2
190.302	-4.79
190.521	-11.52
190.74	10.66
190.959	34.96
191.178	14.09
191.398	-7.56
191.617	-124.48
191.836	-16.31
192.055	20.31
192.274	-40.45
192.494	-16.49
192.713	25.31
192.932	45.27
193.151	9.16
193.37	72.81
193.589	49.64
193.808	8.64
194.027	5.54
194.246	72.74
194.465	64.02
194.685	81.23
194.904	41.79
195.123	57.65
195.342	23.32
195.561	-70.49
195.78	-819.43
195.999	231.72
196.218	65.01
196.436	44.88
196.655	66.93
196.874	51.9
197.093	46.79
197.312	22.63
197.531	34.99
197.75	16.78
197.969	20.85
198.188	27.59
198.407	60.66
198.625	53.86
198.844	69.37
199.063	64.53
199.282	123.28
199.501	101.65
199.719	1830.2
199.938	198.81
200.157	100.33
200.376	77.27
200.594	83.44
200.813	32.6
201.032	-24.48
201.251	-60.28
201.469	-47.82
201.688	-29.98
201.907	-40.74
202.125	-130.53
202.344	-177.63
202.563	-2519.53
202.781	385.86
203	726.34
203.218	1253.09
203.437	193.15
203.656	-484.56
203.874	-425.4
204.093	-622.81
204.311	-68.15
204.53	-21.18
204.748	-5.16
204.967	-26.22
205.185	-0.02
205.404	-16.5
205.622	-76.29
205.841	-84.88
206.059	-7.92
206.278	6.82
206.496	-6.32
206.715	37.81
206.933	-250.14
207.151	-86.97
207.37	140.36
207.588	229.64
207.806	479.43
208.025	365.32
208.243	194.11
208.461	203.79
208.68	106.93
208.898	95.45
209.116	165.14
209.335	130.33
209.553	118.66
209.771	-264.52
209.989	-15.33
210.208	1681.13
210.426	-780.56
210.644	310.37
210.862	190.75
211.081	162.74
211.299	208.22
211.517	306.99
211.735	224.86
211.953	270.6
212.171	260.78
212.39	264.37
212.608	421.16
212.826	215.02
213.044	479.92
213.262	26.09
213.48	201.69
213.698	176.68
213.916	106.46
214.134	61.37
214.352	66.59
214.57	82.95
214.788	84.09
215.006	90.63
215.224	84.09
215.442	76.62
215.66	30.13
215.878	0.76
216.096	-1.11
216.314	8.51
216.532	13.12
216.75	-54.13
216.968	-50.96
217.185	-79.26
217.403	-26.99
217.621	10.73
217.839	-39.34
218.057	-408.03
218.275	-188.1
218.492	-322.67
218.71	-1040.5
218.928	-630.98
219.146	-544.24
219.363	-2862.4
219.581	-91.16
219.799	-108.87
220.017	-259.15
220.234	-115.85
220.452	-66.11
220.67	-170.48
220.887	-850.71
221.105	-746.56
221.323	-351.06
221.54	-121.41
221.758	440.6
221.976	219.37
222.193	277.3
222.411	537.07
222.629	477.11
222.846	2408.07
223.064	-1062.37
223.281	-154.58
223.499	-91.2
223.716	-170.2
223.934	-52.16
224.151	-56.67
224.369	-24.33
224.586	-47.26
224.804	-23.25
225.021	-4.18
225.239	-20.97
225.456	-51.87
225.674	-50.39
225.891	-39.81
226.108	-6.94
226.326	-21.24
226.543	-30.36
226.76	-22.53
226.978	-2.83
227.195	-4.7
227.413	-3.14
227.63	1.28
227.847	16.72
228.064	20.41
228.282	16.06
228.499	13.21
228.716	11.87
228.934	18.48
229.151	20.1
229.368	18.33
229.585	18.89
229.802	16.01
230.02	17.24
230.237	11.4
230.454	5.94
230.671	11.21
230.888	8.58
231.105	11.51
231.323	10.62
231.54	8.33
231.757	13.06
231.974	10.46
232.191	14.02
232.408	13.76
232.625	14.55
232.842	23.74
233.059	15.28
233.276	20.66
233.493	12.95
233.71	7.39
233.927	7.27
234.144	1.28
234.361	2.36
234.578	-2.59
234.795	3.1
235.012	7.32
235.229	-1.08
235.446	-1.95
235.663	-5.57
235.879	6.16
236.096	10.33
236.313	13.9
236.53	16.17
236.747	19.65
236.964	26.72
237.181	18.92
237.397	13.61
237.614	13.35
237.831	19.88
238.048	21.31
238.264	16.92
238.481	18.25
238.698	9.7
238.915	4.6
239.131	0.31
239.348	-3.21
239.565	-4.48
239.781	-2.49
239.998	-1.74
240.215	0.75
240.431	1.62
240.648	5.23
240.865	3.95
241.081	7.6
241.298	11.58
241.514	13.11
241.731	13.46
241.947	15.06
242.164	12.99
242.38	12.33
242.597	10.66
242.814	8.17
243.03	5.08
243.246	4.19
243.463	3.94
243.679	3.42
243.896	3.29
244.112	2.89
244.329	3.59
244.545	5.13
244.762	6.16
244.978	8.13
245.194	10.09
245.411	12.32
245.627	13.38
245.843	12.92
246.06	11.27
246.276	9.96
246.492	10.45
246.709	9.81
246.925	9.47
247.141	10
247.357	10.12
247.574	8.91
247.79	8.86
248.006	8.87
248.222	8.81
248.439	8.94
248.655	9.28
248.871	8.58
249.087	6.62
249.303	6.73
249.519	4.65
249.736	2.54
249.952	1.74
250.168	0.79
250.384	0.98
250.6	-0.71
250.816	-0.27
251.032	1.27
251.248	1.81
251.464	4.85
251.68	5.61
251.896	7.38
252.112	9.4
252.328	14.14
252.544	14.94
252.76	14.3
252.976	14.65
253.192	13.11
253.408	14.56
253.624	13.97
253.84	13.93
254.056	15.01
254.272	12.64
254.487	12.25
254.703	9.29
254.919	7.28
255.135	6.8
255.351	8.86
255.567	10.62
255.782	6.69
255.998	5.75
256.214	5.96
256.43	2.27
256.646	7.06
256.861	3.55
257.077	1.76
257.293	-1.3
257.508	-2.68
257.724	-4.3
257.94	-2.1
258.155	-0.93
258.371	2.6
258.587	2.16
258.802	5.18
259.018	4.11
259.234	4.92
259.449	5.92
259.665	8.38
259.88	9.26
260.096	9.77
260.312	9.34
260.527	9.22
260.743	8.66
260.958	9.29
261.174	8.73
261.389	9.29
261.605	9.71
261.82	10.18
262.036	10.21
262.251	10.11
262.466	10.17
262.682	7.97
262.897	6.18
263.113	5.1
263.328	6.83
263.543	5.62
263.759	5.89
263.974	7.35
264.189	6.03
264.405	-0.05
264.62	-0.94
264.835	-0.86
265.051	4.34
265.266	4.62
265.481	4.17
265.696	-0.15
265.912	0.8
266.127	0.65
266.342	-2.18
266.557	-3.02
266.773	-1.04
266.988	1.2
267.203	-0.19
267.418	-0.78
267.633	0.68
267.848	1.9
268.064	4.58
268.279	4.49
268.494	2.69
268.709	3.85
268.924	5.31
269.139	7.1
269.354	7.05
269.569	7.68
269.784	9.05
269.999	7.06
270.214	7.31
270.429	6.14
270.644	7.33
270.859	7.69
271.074	7.57
271.289	7.97
271.504	7.57
271.719	5.08
271.934	5.32
272.149	3.56
272.363	4.95
272.578	4.77
272.793	4.42
273.008	2.59
273.223	3.2
273.438	3.47
273.653	3.28
273.867	2.45
274.082	3.38
274.297	4.22
274.512	4.38
274.726	3.87
274.941	4.46
275.156	6.9
275.371	7.53
275.585	8.03
275.8	8.87
276.015	9.51
276.229	11.8
276.444	13.21
276.659	13.18
276.873	13.69
277.088	14.23
277.302	14.41
277.517	12.79
277.732	12.41
277.946	12.12
278.161	13.89
278.375	11.95
278.59	10.74
278.804	10
279.019	8.2
279.233	9.9
279.448	7.16
279.662	6
279.877	5.64
280.091	7.97
280.306	9.28
280.52	5.7
280.735	7.23
280.949	4.9
281.163	5.66
281.378	5.34
281.592	4.31
281.806	6.42
282.021	5.06
282.235	4.49
282.449	3.79
282.664	4
282.878	4.91
283.092	4.59
283.307	5.67
283.521	3.82
283.735	3.78
283.949	3.98
284.164	4.89
284.378	6.35
284.592	7.46
284.806	7.42
285.02	7.27
285.234	8.64
285.449	9.42
285.663	9.99
285.877	10.52
286.091	11.99
286.305	11.36
286.519	11.07
286.733	11.38
286.947	10.35
287.161	10.29
287.375	9.18
287.589	8.8
287.803	8.75
288.017	8.69
288.231	8.24
288.445	8.09
288.659	6.35
288.873	6.14
289.087	5.2
289.301	6.53
289.515	7.26
289.729	7.1
289.943	6.18
290.157	5.23
290.371	5.82
290.584	6.9
290.798	5.86
291.012	6.34
291.226	5.83
291.44	6.53
291.654	6.84
291.867	7.16
292.081	7.92
292.295	6.41
292.509	5.43
292.722	6.37
292.936	5.26
293.15	6.28
293.364	7.21
293.577	7.44
293.791	8.54
294.005	8.05
294.218	6.63
294.432	6.22
294.645	9.58
294.859	11.06
295.073	8.33
295.286	9.77
295.5	10.04
295.713	9.84
295.927	7.96
296.14	8.34
296.354	8.7
296.568	9.75
296.781	10.56
296.994	9.07
297.208	8.7
297.421	9.74
297.635	9.32
297.848	9.84
298.062	10.66
298.275	11.45
298.489	10.7
298.702	11.29
298.915	10.32
299.129	9.35
299.342	8.84
299.555	8.49
299.769	8.06
299.982	9.27
300.195	7.89
300.409	6.46
300.622	8.84
300.835	7.03
301.048	6.79
301.262	6.54
301.475	7.28
301.688	8.12
301.901	5.69
302.115	8.2
302.328	7.21
302.541	6.62
302.754	8.32
302.967	6.02
303.18	9.07
303.393	7.97
303.607	8.69
303.82	7.9
304.033	7.38
304.246	13.29
304.459	13.1
304.672	13.57
304.885	14.2
305.098	13.24
305.311	14.36
305.524	11.6
305.737	11.98
305.95	13.02
306.163	14.68
306.376	14.18
306.589	11.63
306.802	10.62
307.015	10.79
307.228	10.36
307.44	10.43
307.653	9.6
307.866	11.24
308.079	10.24
308.292	9.95
308.505	8.93
308.718	10.63
308.93	10.43
309.143	8.74
309.356	7.41
309.569	8.75
309.781	10.49
309.994	10.85
310.207	11.75
310.42	12.75
310.632	11.91
310.845	13.18
311.058	12.84
311.27	12.5
311.483	13.47
311.696	15.32
311.908	14.37
312.121	12.82
312.333	14.84
312.546	14.35
312.759	16.14
312.971	16.45
313.184	15.49
313.396	14.18
313.609	13.97
313.821	15.01
314.034	14.61
314.246	15.54
314.459	16.71
314.671	16.39
314.884	15.78
315.096	14.04
315.309	15.29
315.521	13.41
315.733	14.72
315.946	15.77
316.158	16.14
316.371	14.41
316.583	15.95
316.795	15.51
317.008	14.3
317.22	13.81
317.432	13.78
317.644	12.44
317.857	14.85
318.069	14.38
318.281	13.26
318.494	13.29
318.706	13.75
318.918	12.34
319.13	13.07
319.342	12.26
319.555	14.53
319.767	14.87
319.979	16.42
320.191	16.2
320.403	16.64
320.615	16.58
320.827	15.52
321.039	17.18
321.252	17.8
321.464	18.95
321.676	17.86
321.888	17.84
322.1	17.24
322.312	16.93
322.524	18.37
322.736	19.05
322.948	19.69
323.16	18.35
323.372	17.62
323.584	18.46
323.796	18.12
324.007	19.62
324.219	19.43
324.431	19.04
324.643	19.24
324.855	18.48
325.067	19.05
325.279	18.85
325.491	20.48
325.702	20.93
325.914	19.41
326.126	20.5
326.338	20.83
326.55	20.59
326.761	21.62
326.973	21.32
327.185	21.92
327.396	21.67
327.608	22.03
327.82	22.43
328.032	21.87
328.243	23.39
328.455	22.27
328.666	21.17
328.878	21.31
329.09	21.59
329.301	21.42
329.513	21.28
329.725	19.36
329.936	19.79
330.148	19.93
330.359	19.94
330.571	20.44
330.782	21.74
330.994	23.99
331.205	25.47
331.417	25.43
331.628	25.6
331.84	26.29
332.051	28.7
332.262	29.35
332.474	28.75
332.685	29.38
332.897	27.92
333.108	27.46
333.319	26.6
333.531	24.97
333.742	25.6
333.953	26.78
334.165	25.73
334.376	26.62
334.587	27.61
334.799	29.28
335.01	30.28
335.221	31.43
335.432	31.51
335.644	32.27
335.855	32.33
336.066	32.15
336.277	32.56
336.488	33.5
336.7	33.47
336.911	31.59
337.122	30.71
337.333	31.78
337.544	30.67
337.755	31.36
337.966	32.22
338.177	33.8
338.388	33.41
338.599	33.29
338.811	33.58
339.022	33.81
339.233	35.84
339.444	34.01
339.655	32.32
339.866	33.13
340.076	32
340.287	31.79
340.498	30.64
340.709	31.8
340.92	31.87
341.131	32.09
341.342	32.75
341.553	32.37
341.764	34.99
341.975	35.42
342.185	37.16
342.396	37.61
342.607	37.11
342.818	38.04
343.029	37.47
343.239	37.69
343.45	38.7
343.661	38.01
343.872	38.22
344.082	36.82
344.293	35.84
344.504	35.62
344.714	35.13
344.925	35.37
345.136	35.96
345.346	36.72
345.557	37.44
345.768	36.19
345.978	36.88
346.189	35.63
346.399	36.89
346.61	38.35
346.821	37.3
347.031	37.31
347.242	38.13
347.452	38.2
347.663	37.34
347.873	34.65
348.084	35.27
348.294	34.23
348.504	36.12
348.715	37.37
348.925	35.9
349.136	36.72
349.346	37.6
349.557	37.75
349.767	37.77
349.977	38.69
350.188	41.67
350.398	42.12
350.608	42.07
350.819	42.82
351.029	40.43
351.239	42.33
351.449	43.27
351.66	43.13
351.87	42.84
352.08	42.07
352.29	42.42
352.501	41.34
352.711	41.09
352.921	42.47
353.131	41.34
353.341	42.84
353.552	41.57
353.762	39.7
353.972	39.67
354.182	38.96
354.392	38.86
354.602	37.7
354.812	37.36
355.022	37.27
355.232	36.55
355.442	36.49
355.652	35.98
355.862	36.82
356.072	37.02
356.282	36.97
356.492	37.45
356.702	38.1
356.912	37.47
357.122	38.09
357.332	37.66
357.542	37.27
357.752	36.81
357.962	35.76
358.171	36.25
358.381	36.49
358.591	36.17
358.801	35.51
359.011	35.03
359.221	35.05
359.43	34.67
359.64	34.91
359.85	35.25
360.06	35.55
360.269	36.13
360.479	35.31
360.689	34.83
360.899	34.7
361.108	34.13
361.318	34.39
361.528	34.91
361.737	34.65
361.947	34.75
362.156	34.45
362.366	34.21
362.576	34.36
362.785	34.28
362.995	34.34
363.204	35.12
363.414	35.53
363.623	35.11
363.833	34.55
364.042	33.78
364.252	32.98
364.461	32.54
364.671	32.8
364.88	32.82
365.09	32.71
365.299	32.79
365.509	31.59
365.718	32.01
365.927	32
366.137	32.61
366.346	32.87
366.555	32.88
366.765	33.66
366.974	33.24
367.183	32.24
367.393	32.13
367.602	32.6
367.811	33.09
368.021	32.47
368.23	32.88
368.439	32.18
368.648	32.44
368.857	32.04
369.067	31.77
369.276	32.15
369.485	33.06
369.694	33.06
369.903	32.26
370.112	32.39
370.321	32.2
370.531	32.44
370.74	32.7
370.949	32.89
371.158	32.97
371.367	32.11
371.576	32.21
371.785	31.46
371.994	31.51
372.203	32.26
372.412	31.4
372.621	31.82
372.83	30.9
373.039	31.38
373.248	31.2
373.457	32.2
373.666	32.43
373.874	31.99
374.083	31.88
374.292	31.53
374.501	30.8
374.71	30.76
374.919	30.5
375.128	30.83
375.336	29.93
375.545	29.45
375.754	28.39
375.963	28.02
376.171	27.33
376.38	27.35
376.589	27.87
376.798	27.45
377.006	28.16
377.215	27.67
377.424	27.3
377.632	27.61
377.841	28.21
378.05	28.65
378.258	28.57
378.467	29.11
378.675	29.57
378.884	28.78
379.093	29.23
379.301	29.07
379.51	28.96
379.718	28.18
379.927	28.09
380.135	27.8
380.344	26.97
380.552	27.47
380.761	27.32
380.969	26.18
381.177	25.79
381.386	25.2
381.594	24.01
381.803	24.53
382.011	25.16
382.219	25.13
382.428	24.82
382.636	25.41
382.845	24.35
383.053	23.68
383.261	23.99
383.469	24.27
383.678	23.74
383.886	25.02
384.094	24.63
384.302	23.91
384.511	23.51
384.719	23.59
384.927	23.73
385.135	23.67
385.343	23.7
385.552	23.59
385.76	23.36
385.968	24.07
386.176	23.1
386.384	23.21
386.592	23.51
386.8	23.83
387.008	23.58
387.216	23.39
387.424	23.72
387.633	23.92
387.841	23.98
388.049	23.98
388.257	23.18
388.465	23.28
388.672	22.93
388.88	22.98
389.088	22.52
389.296	22.77
389.504	22.02
389.712	21.74
389.92	21.45
390.128	21.23
390.336	21.33
390.544	21.78
390.751	21.62
390.959	21.75
391.167	21.81
391.375	21.77
391.583	21.31
391.79	21.75
391.998	21.67
392.206	21.88
392.414	21.73
392.621	21.45
392.829	21.28
393.037	21.28
393.244	21.09
393.452	21.07
393.66	21.18
393.867	21.43
394.075	21.24
394.283	21.14
394.49	20.97
394.698	21.21
394.905	21.27
395.113	21.45
395.32	21.2
395.528	21.24
395.735	20.92
395.943	20.72
396.15	20.46
396.358	19.79
396.565	19.76
396.773	19.54
396.98	19.3
397.188	19.28
397.395	19.25
397.602	19.22
397.81	19.04
398.017	18.95
398.225	19.1
398.432	19.27
398.639	20.09
398.847	19.93
399.054	20.04
399.261	20.13
399.468	20.24
399.676	19.45
399.883	19.68
400.09	19.65
400.297	20.14
400.505	20.5
400.712	20.44
400.919	19.88
401.126	20.01
401.333	20
401.54	19.67
401.748	19.63
401.955	20.13
402.162	19.91
402.369	19.92
402.576	19.75
402.783	19.14
402.99	18.72
403.197	19.34
403.404	19.89
403.611	20.03
403.818	20.18
404.025	20.54
404.232	20.56
404.439	20.75
404.646	20.84
404.853	20.66
405.06	20.74
405.267	21.18
405.474	20.9
405.681	20.92
405.887	20.67
406.094	21.04
406.301	20.91
406.508	20.74
406.715	20.42
406.922	20.42
407.128	20.64
407.335	20.83
407.542	20.56
407.749	20.55
407.955	20.1
408.162	20.01
408.369	19.68
408.575	19.32
408.782	19.37
408.989	19.75
409.195	19.85
409.402	19.73
409.609	19.57
409.815	19.53
410.022	19.56
410.228	19.72
410.435	19.87
410.642	19.81
410.848	20.06
411.055	20.44
411.261	20.35
411.468	20.37
411.674	19.93
411.881	20.29
412.087	20.4
412.294	20.1
412.5	20.07
412.706	20.16
412.913	20.33
413.119	20.12
413.326	19.81
413.532	19.83
413.738	19.62
413.945	19.86
414.151	19.44
414.357	19.44
414.564	19.35
414.77	18.9
414.976	18.77
415.182	18.79
415.389	18.65
415.595	18.51
415.801	18.26
416.007	18.26
416.214	18.03
416.42	17.82
416.626	17.67
416.832	17.84
417.038	17.85
417.244	17.73
417.45	17.71
417.657	17.88
417.863	18.02
418.069	18.24
418.275	18.32
418.481	18.34
418.687	18.37
418.893	18.45
419.099	18.38
419.305	18.35
419.511	18.42
419.717	18.23
419.923	18.14
420.129	18.02
420.335	17.83
420.541	17.76
420.746	17.91
420.952	17.99
421.158	17.86
421.364	17.87
421.57	17.98
421.776	17.86
421.982	17.85
422.187	17.88
422.393	17.8
422.599	17.9
422.805	17.91
423.01	17.81
423.216	17.66
423.422	17.77
423.628	17.76
423.833	17.82
424.039	18.01
424.245	18
424.45	17.94
424.656	18.06
424.862	17.94
425.067	17.94
425.273	17.93
425.478	17.9
425.684	17.81
425.889	17.78
426.095	17.49
426.301	17.24
426.506	17.35
426.712	17.22
426.917	17.2
427.123	17.19
427.328	17.12
427.533	17.23
427.739	17.42
427.944	17.23
428.15	17.01
428.355	17.13
428.561	17.23
428.766	17.15
428.971	16.96
429.177	16.84
429.382	17.12
429.587	17.13
429.793	16.96
429.998	16.76
430.203	17.03
430.408	17.17
430.614	17.28
430.819	17.4
431.024	17.32
431.229	17.58
431.434	17.6
431.64	17.27
431.845	17.16
432.05	16.94
432.255	17.07
432.46	17.13
432.665	17.17
432.87	17.41
433.076	17.41
433.281	17.16
433.486	17.13
433.691	17.15
433.896	17.16
434.101	17.1
434.306	17.26
434.511	17.24
434.716	17.03
434.921	17.04
435.126	16.78
435.331	16.69
435.535	17.01
435.74	17.03
435.945	17.02
436.15	16.86
436.355	16.8
436.56	16.66
436.765	16.55
436.97	16.67
437.174	16.98
437.379	17.12
437.584	17.16
437.789	17.04
437.993	16.98
438.198	16.89
438.403	16.94
438.608	17.1
438.812	17.28
439.017	17.14
439.222	17.29
439.426	16.87
439.631	16.64
439.836	16.53
440.04	16.69
440.245	16.68
440.45	16.87
440.654	17.03
440.859	16.94
441.063	17.01
441.268	17.18
441.472	16.96
441.677	17.15
441.881	17.29
442.086	17.28
442.29	17.16
442.495	17.25
442.699	17.09
442.904	16.97
443.108	16.98
443.312	16.85
443.517	16.75
443.721	16.8
443.925	16.81
444.13	16.94
444.334	17
444.538	17.14
444.743	17.03
444.947	16.92
445.151	17.04
445.356	17.02
445.56	16.92
445.764	16.92
445.968	16.93
446.173	16.85
446.377	16.73
446.581	16.85
446.785	16.81
446.989	16.74
447.193	16.84
447.398	16.79
447.602	16.75
447.806	16.75
448.01	16.86
448.214	16.85
448.418	16.79
448.622	16.65
448.826	16.44
449.03	16.33
449.234	16.33
449.438	16.23
449.642	16.25
449.846	16.24
450.05	16.32
450.254	16.29
450.458	16.34
450.662	16.27
450.866	16.34
451.069	16.37
451.273	16.29
451.477	16.24
451.681	16.1
451.885	15.84
452.089	15.79
452.292	15.71
452.496	15.61
452.7	15.52
452.904	15.71
453.107	15.7
453.311	15.71
453.515	15.67
453.719	15.69
453.922	15.7
454.126	15.86
454.33	15.97
454.533	16.03
454.737	15.86
454.94	15.76
455.144	15.69
455.348	15.61
455.551	15.63
455.755	15.8
455.958	15.82
456.162	15.94
456.365	15.89
456.569	15.77
456.772	15.65
456.976	15.78
457.179	15.83
457.383	15.75
457.586	15.74
457.79	15.86
457.993	15.92
458.196	16.09
458.4	16.16
458.603	16.26
458.807	16.25
459.01	16.25
459.213	16.32
459.417	16.31
459.62	16.32
459.823	16.37
460.026	16.25
460.23	16.13
460.433	15.99
460.636	15.91
460.839	15.94
461.042	15.94
461.246	15.98
461.449	16.02
461.652	16.12
461.855	16.05
462.058	16.1
462.261	16.02
462.464	15.97
462.668	16.01
462.871	15.98
463.074	15.87
463.277	16.1
463.48	16.14
463.683	16
463.886	16.07
464.089	16.12
464.292	16.09
464.495	16.29
464.698	16.24
464.901	16.51
465.104	16.56
465.306	16.52
465.509	16.52
465.712	16.53
465.915	16.6
466.118	16.57
466.321	16.62
466.524	16.64
466.726	16.57
466.929	16.64
467.132	16.51
467.335	16.5
467.538	16.41
467.74	16.29
467.943	16.11
468.146	16.11
468.348	15.95
468.551	16.06
468.754	15.97
468.956	16.1
469.159	16.01
469.362	15.88
469.564	15.99
469.767	16.19
469.969	16.32
470.172	16.68
470.375	16.67
470.577	16.75
470.78	16.84
470.982	16.84
471.185	16.73
471.387	16.92
471.59	16.88
471.792	16.93
471.995	16.77
472.197	16.63
472.399	16.5
472.602	16.39
472.804	16.31
473.007	16.18
473.209	16.24
473.411	16.32
473.614	16.17
473.816	16.2
474.018	16.18
474.22	16.32
474.423	16.32
474.625	16.17
474.827	16.41
475.03	16.49
475.232	16.5
475.434	16.35
475.636	16.5
475.838	16.75
476.04	16.66
476.243	16.64
476.445	16.58
476.647	16.66
476.849	16.63
477.051	16.53
477.253	16.66
477.455	16.56
477.657	16.71
477.859	16.37
478.061	16.35
478.263	16.47
478.465	16.42
478.667	16.4
478.869	16.47
479.071	16.49
479.273	16.4
479.475	16.28
479.677	16.19
479.879	16.19
480.081	16.25
480.283	16.28
480.485	16.21
480.686	16.2
480.888	16.21
481.09	16.17
481.292	16.18
481.494	16.26
481.695	16.32
481.897	16.29
482.099	16.34
482.301	16.49
482.502	16.45
482.704	16.48
482.906	16.48
483.107	16.54
483.309	16.49
483.511	16.49
483.712	16.46
483.914	16.48
484.115	16.57
484.317	16.54
484.519	16.46
484.72	16.38
484.922	16.35
485.123	16.32
485.325	16.32
485.526	16.33
485.728	16.35
485.929	16.39
486.131	16.28
486.332	16.22
486.534	16.29
486.735	16.37
486.936	16.47
487.138	16.52
487.339	16.55
487.541	16.48
487.742	16.45
487.943	16.44
488.144	16.43
488.346	16.42
488.547	16.47
488.748	16.36
488.95	16.31
489.151	16.32
489.352	16.28
489.553	16.3
489.755	16.31
489.956	16.28
490.157	16.24
490.358	16.25
490.559	16.36
490.76	16.28
490.961	16.43
491.163	16.39
491.364	16.34
491.565	16.42
491.766	16.48
491.967	16.55
492.168	16.54
492.369	16.63
492.57	16.54
492.771	16.49
492.972	16.56
493.173	16.56
493.374	16.6
493.575	16.64
493.776	16.69
493.976	16.63
494.177	16.65
494.378	16.71
494.579	16.84
494.78	16.9
494.981	17.05
495.182	17.07
495.382	17.15
495.583	17.32
495.784	17.31
495.985	17.18
496.185	17.16
496.386	17.1
496.587	17.19
496.788	17.04
496.988	17.15
497.189	17.1
497.39	17.06
497.59	17.03
497.791	16.97
497.992	16.91
498.192	16.98
498.393	17.02
498.593	16.97
498.794	16.96
498.994	17.19
499.195	17.18
499.395	17.23
499.596	17.41
499.796	17.26
499.997	17.34
500.197	17.4
500.398	17.41
500.598	17.37
500.799	17.42
500.999	17.28
501.199	17.09
501.4	17.15
501.6	17.12
501.801	16.91
502.001	17.02
502.201	17.02
502.402	17.09
502.602	17.26
502.802	17.49
503.002	17.7
503.203	17.84
503.403	17.81
503.603	17.81
503.803	18.02
504.003	18.18
504.204	18.16
504.404	18.12
504.604	18.15
504.804	18
505.004	18.06
505.204	17.94
505.404	18.08
505.604	18.18
505.804	18.28
506.005	18.17
506.205	18.14
506.405	18.3
506.605	18.29
506.805	18.24
507.005	18.31
507.204	18.05
507.404	18.16
507.604	18.12
507.804	18.26
508.004	18.39
508.204	18.43
508.404	18.5
508.604	18.62
508.804	18.7
509.003	18.88
509.203	19.09
509.403	19.22
509.603	19.24
509.803	19.22
510.002	19.2
510.202	19.13
510.402	19.12
510.602	19.11
510.801	19.14
511.001	19.21
511.201	19.28
511.4	19.17
511.6	19.3
511.8	19.34
511.999	19.47
512.199	19.41
512.398	19.42
512.598	19.45
512.797	19.58
512.997	19.54
513.197	19.69
513.396	19.74
513.596	20.02
513.795	20.12
513.994	20.17
514.194	20.28
514.393	20.56
514.593	20.67
514.792	20.67
514.992	20.81
515.191	20.99
515.39	20.92
515.59	20.87
515.789	20.79
515.988	20.83
516.188	20.87
516.387	20.93
516.586	20.8
516.786	20.91
516.985	21.14
517.184	21.16
517.383	21.15
517.582	21.25
517.782	21.3
517.981	21.26
518.18	21.33
518.379	21.39
518.578	21.43
518.777	21.49
518.976	21.43
519.176	21.42
519.375	21.32
519.574	21.24
519.773	21.22
519.972	21.28
520.171	21.39
520.37	21.34
520.569	21.39
520.768	21.3
520.967	21.38
521.166	21.49
521.365	21.58
521.564	21.69
521.762	21.67
521.961	21.7
522.16	21.65
522.359	21.88
522.558	21.89
522.757	21.96
522.956	22.08
523.154	22.08
523.353	21.97
523.552	21.99
523.751	22.17
523.949	22.39
524.148	22.34
524.347	22.56
524.546	22.37
524.744	22.33
524.943	22.21
525.142	22.28
525.34	22.35
525.539	22.56
525.737	22.59
525.936	22.61
526.135	22.64
526.333	22.69
526.532	22.68
526.73	22.8
526.929	22.96
527.127	22.99
527.326	22.95
527.524	22.91
527.723	22.91
527.921	22.94
528.12	22.97
528.318	22.94
528.516	23.01
528.715	23.01
528.913	22.99
529.112	22.98
529.31	22.99
529.508	23.05
529.707	23.09
529.905	23.11
530.103	23.09
530.301	23.12
530.5	23.21
530.698	23.23
530.896	23.27
531.094	23.34
531.293	23.36
531.491	23.44
531.689	23.46
531.887	23.49
532.085	23.46
532.283	23.52
532.481	23.47
532.68	23.45
532.878	23.43
533.076	23.33
533.274	23.32
533.472	23.35
533.67	23.39
533.868	23.5
534.066	23.54
534.264	23.64
534.462	23.61
534.66	23.7
534.858	23.78
535.056	23.77
535.253	23.98
535.451	24.04
535.649	24.08
535.847	24.15
536.045	24.1
536.243	24.11
536.441	23.98
536.638	23.96
536.836	23.99
537.034	23.93
537.232	24.06
537.43	23.96
537.627	24.11
537.825	24.17
538.023	24.18
538.22	24.16
538.418	24.12
538.616	24.33
538.813	24.46
539.011	24.4
539.209	24.49
539.406	24.64
539.604	24.82
539.801	24.7
539.999	24.56
540.196	24.7
540.394	24.74
540.591	24.91
540.789	24.91
540.986	24.96
541.184	25
541.381	25.05
541.579	25.04
541.776	25.01
541.974	24.97
542.171	25.05
542.368	25.02
542.566	25.01
542.763	25.01
542.96	25
543.158	25.06
543.355	25.13
543.552	25.19
543.75	25.08
543.947	25.14
544.144	25.2
544.341	25.28
544.539	25.31
544.736	25.29
544.933	25.33
545.13	25.44
545.327	25.44
545.524	25.46
545.722	25.3
545.919	25.47
546.116	25.29
546.313	25.31
546.51	25.28
546.707	25.31
546.904	25.41
547.101	25.52
547.298	25.45
547.495	25.4
547.692	25.34
547.889	25.43
548.086	25.38
548.283	25.72
548.48	25.85
548.677	25.87
548.874	25.77
549.07	25.76
549.267	25.52
549.464	25.42
549.661	25.49
549.858	25.54
550.055	25.53
550.251	25.4
550.448	25.28
550.645	25.22
550.842	25.28
551.038	25.41
551.235	25.51
551.432	25.69
551.628	25.9
551.825	26.12
552.022	26.05
552.218	26.18
552.415	26.36
552.612	26.39
552.808	26.45
553.005	26.46
553.201	26.71
553.398	26.85
553.594	26.85
553.791	26.82
553.987	26.58
554.184	26.63
554.38	26.67
554.577	26.69
554.773	26.86
554.97	26.76
555.166	26.8
555.362	26.66
555.559	26.56
555.755	26.59
555.952	26.62
556.148	26.86
556.344	26.98
556.541	26.78
556.737	26.7
556.933	26.48
557.129	26.63
557.326	26.65
557.522	26.74
557.718	26.75
557.914	26.77
558.11	26.74
558.307	26.63
558.503	26.61
558.699	26.73
558.895	26.9
559.091	27.01
559.287	27.1
559.483	27.18
559.679	27.09
559.876	27.22
560.072	27.25
560.268	27.47
560.464	27.51
560.66	27.64
560.856	27.62
561.052	27.65
561.247	27.53
561.443	27.69
561.639	27.55
561.835	27.52
562.031	27.45
562.227	27.51
562.423	27.36
562.619	27.32
562.815	27.41
563.01	27.53
563.206	27.61
563.402	27.73
563.598	27.61
563.793	27.7
563.989	27.81
564.185	27.88
564.381	27.85
564.576	28.08
564.772	28.04
564.968	27.8
565.163	27.87
565.359	27.9
565.555	28.15
565.75	27.99
565.946	28.11
566.141	28.07
566.337	28.26
566.532	28.4
566.728	28.28
566.923	28.46
567.119	28.49
567.314	28.41
567.51	28.33
567.705	28.18
567.901	28.3
568.096	28.05
568.292	28.05
568.487	27.9
568.682	27.81
568.878	27.8
569.073	27.78
569.268	28.02
569.464	28.21
569.659	28.3
569.854	28.29
570.05	28.35
570.245	28.72
570.44	28.81
570.635	28.81
570.831	28.77
571.026	28.96
571.221	29.04
571.416	29.18
571.611	29.22
571.806	29.22
572.002	29.27
572.197	29.25
572.392	29.06
572.587	29.23
572.782	29.18
572.977	29.21
573.172	29.16
573.367	29.1
573.562	28.92
573.757	28.94
573.952	28.77
574.147	28.68
574.342	28.84
574.537	28.93
574.732	28.79
574.927	29.06
575.121	28.95
575.316	28.97
575.511	29.14
575.706	29.14
575.901	29.07
576.096	29.32
576.29	29.46
576.485	29.35
576.68	29.39
576.875	29.42
577.069	29.33
577.264	29.35
577.459	29.34
577.654	29.36
577.848	29.59
578.043	29.76
578.238	29.75
578.432	29.77
578.627	29.99
578.821	30.06
579.016	30.1
579.21	30.06
579.405	30.38
579.6	30.31
579.794	30.02
579.989	29.91
580.183	30
580.378	29.84
580.572	29.76
580.766	29.71
580.961	29.57
581.155	29.43
581.35	29.47
581.544	29.45
581.738	29.45
581.933	29.43
582.127	29.31
582.321	29.12
582.516	29.14
582.71	29.09
582.904	28.76
583.099	28.74
583.293	28.94
583.487	28.77
583.681	28.7
583.875	28.64
584.07	28.85
584.264	28.92
584.458	28.78
584.652	29.1
584.846	29.42
585.04	29.66
585.234	29.94
585.428	29.88
585.623	29.86
585.817	29.83
586.011	29.9
586.205	29.91
586.399	29.92
586.593	29.95
586.787	29.85
586.981	29.67
587.174	29.79
587.368	29.64
587.562	29.64
587.756	30
587.95	29.91
588.144	29.87
588.338	29.96
588.532	30.04
588.725	30.29
588.919	30.05
589.113	29.88
589.307	29.84
589.501	30.08
589.694	30.23
589.888	29.99
590.082	30.07
590.275	30.47
590.469	30.55
590.663	30.34
590.856	30.19
591.05	30.42
591.244	30.79
591.437	30.61
591.631	30.65
591.824	30.36
592.018	30.6
592.212	30.57
592.405	30.19
592.599	29.94
592.792	30.18
592.986	30.15
593.179	30.26
593.372	30.06
593.566	30.26
593.759	30.12
593.953	30.25
594.146	30.09
594.339	30.11
594.533	30.09
594.726	30.15
594.92	30.1
595.113	29.92
595.306	29.72
595.499	29.83
595.693	29.67
595.886	29.5
596.079	29.67
596.272	29.58
596.466	29.57
596.659	29.58
596.852	29.68
597.045	29.65
597.238	29.77
597.431	29.81
597.624	29.68
597.818	29.63
598.011	29.7
598.204	29.42
598.397	29.44
598.59	29.49
598.783	29.47
598.976	29.19
599.169	28.92
599.362	28.99
599.555	28.9
599.748	28.73
599.941	28.88
600.134	29.08
600.326	29.33
600.519	29.38
600.712	29.56
600.905	29.77
601.098	30.09
601.291	30.45
601.483	30.55
601.676	30.61
601.869	30.91
602.062	30.89
602.255	30.67
602.447	30.54
602.64	30.73
602.833	30.65
603.025	30.44
603.218	30.28
603.411	30.22
603.603	30.01
603.796	30.1
603.989	30.16
604.181	30.22
604.374	30.42
604.566	30.48
604.759	30.39
604.951	30.26
605.144	30.23
605.336	30.21
605.529	30.29
605.721	30.23
605.914	30.14
606.106	30.03
606.299	30.01
606.491	29.98
606.683	30.01
606.876	30.02
607.068	30.21
607.26	30.38
607.453	30.35
607.645	30.28
607.837	30.18
608.03	30.35
608.222	30.39
608.414	30.35
608.606	30.32
608.799	30.21
608.991	30.27
609.183	30.24
609.375	30.1
609.567	29.96
609.759	29.8
609.952	30.07
610.144	29.83
610.336	29.71
610.528	29.87
610.72	29.7
610.912	29.74
611.104	29.59
611.296	29.43
611.488	29.64
611.68	29.76
611.872	29.73
612.064	29.34
612.256	29.54
612.448	29.6
612.64	29.53
612.832	29.66
613.023	29.87
613.215	29.88
613.407	30.09
613.599	29.87
613.791	29.79
613.983	30.15
614.174	30.52
614.366	30.37
614.558	30.27
614.75	30.13
614.941	30.06
615.133	29.65
615.325	29.49
615.516	29.26
615.708	29.54
615.9	29.73
616.091	29.68
616.283	29.67
616.475	30.04
616.666	30.09
616.858	29.92
617.049	29.93
617.241	30.1
617.432	30.09
617.624	30.41
617.815	30.58
618.007	30.63
618.198	30.7
618.39	30.95
618.581	30.71
618.773	30.86
618.964	30.97
619.155	30.64
619.347	30.68
619.538	30.81
619.729	30.75
619.921	30.26
620.112	30.29
620.303	30.18
620.494	30
620.686	30.02
620.877	30.21
621.068	30.2
621.259	30.74
621.451	30.77
621.642	30.73
621.833	30.53
622.024	30.76
622.215	30.6
622.406	30.74
622.597	30.7
622.788	30.47
622.98	30.27
623.171	30.5
623.362	30.31
623.553	30.49
623.744	30.7
623.935	30.78
624.126	30.69
624.317	30.8
624.508	30.64
624.698	30.71
624.889	30.9
625.08	30.76
625.271	30.75
625.462	30.65
625.653	30.48
625.844	30.08
626.034	29.87
626.225	29.98
626.416	30.13
626.607	30.25
626.798	30.22
626.988	30.2
627.179	30.29
627.37	29.98
627.56	30.13
627.751	30.25
627.942	30.73
628.132	30.89
628.323	30.76
628.514	30.67
628.704	30.58
628.895	30.52
629.085	30.45
629.276	30.46
629.466	30.45
629.657	30.48
629.847	30.29
630.038	30.18
630.228	30.35
630.419	30.51
630.609	30.53
630.8	30.65
630.99	30.73
631.181	30.66
631.371	30.79
631.561	31.29
631.752	30.83
631.942	30.82
632.132	30.71
632.323	30.71
632.513	30.34
632.703	30.17
632.893	30.07
633.084	29.8
633.274	29.81
633.464	29.44
633.654	29.01
633.844	28.98
634.034	28.89
634.225	28.91
634.415	28.88
634.605	29.26
634.795	29.34
634.985	29.62
635.175	29.72
635.365	29.93
635.555	30.35
635.745	30.45
635.935	30.78
636.125	30.59
636.315	30.49
636.505	30.29
636.695	29.95
636.885	30.36
637.075	30
637.265	30.02
637.455	30.23
637.644	29.87
637.834	29.78
638.024	29.95
638.214	30.2
638.404	30.26
638.593	30.47
638.783	30.54
638.973	30.16
639.163	30.28
639.352	30.53
639.542	30.23
639.732	30.41
639.921	30.86
640.111	30.81
640.301	30.86
640.49	30.85
640.68	30.85
640.87	31.08
641.059	31.09
641.249	30.82
641.438	30.75
641.628	30.84
641.817	31.02
642.007	30.26
642.196	30.19
642.386	30.07
642.575	30.13
642.764	30.09
642.954	30.36
643.143	30.55
643.333	30.6
643.522	30.45
643.711	30.17
643.901	29.73
644.09	30.12
644.279	30.01
644.469	30.32
644.658	30.19
644.847	30.22
645.036	30.16
645.226	29.94
645.415	29.99
645.604	29.98
645.793	30.27
645.982	30.58
646.171	30.59
646.361	30.64
646.55	30.42
646.739	30.13
646.928	30.08
647.117	29.69
647.306	29.64
647.495	29.47
647.684	29.65
647.873	29.45
648.062	29.41
648.251	29.62
648.44	29.74
648.629	29.51
648.818	29.98
649.007	30.14
649.196	30.27
649.384	30.26
649.573	30.3
649.762	30.49
649.951	30.94
650.14	30.81
650.328	30.68
650.517	30.65
650.706	30.98
650.895	30.92
651.083	30.42
651.272	30.38
651.461	30.38
651.65	30.88
651.838	30.49
652.027	30.13
652.216	30.05
652.404	30.01
652.593	30.01
652.781	30.14
652.97	30.13
653.158	30.08
653.347	30.15
653.535	30.32
653.724	30
653.912	30.38
654.101	30.38
654.289	30.82
654.478	30.67
654.666	30.64
654.855	30.52
655.043	30.26
655.231	30.5
655.42	30.67
655.608	30.39
655.796	30.39
655.985	29.63
656.173	29.7
656.361	29.47
656.55	29.63
656.738	29.91
656.926	30.02
657.114	30.5
657.302	30.49
657.491	30.43
657.679	30.31
657.867	29.85
658.055	30.07
658.243	29.82
658.431	29.96
658.619	30.28
658.807	30.11
658.996	30.02
659.184	29.88
659.372	29.97
659.56	29.52
659.748	29.96
659.936	30.36
660.124	30.69
660.311	30.82
660.499	30.49
660.687	30.24
660.875	30.16
661.063	30.19
661.251	30.02
661.439	30.2
661.627	30.32
661.814	30.27
662.002	29.87
662.19	29.82
662.378	29.75
662.565	29.9
662.753	29.85
662.941	30
663.129	30.31
663.316	30.6
663.504	30.33
663.692	30.56
663.879	30.26
664.067	30.14
664.254	29.76
664.442	30.17
664.63	30.25
664.817	30.09
665.005	29.84
665.192	29.22
665.38	29.21
665.567	28.83
665.755	28.81
665.942	29.01
666.13	29.69
666.317	30.03
666.504	29.63
666.692	29.71
666.879	30.16
667.067	30.32
667.254	30.67
667.441	30.25
667.629	30.55
667.816	31.18
668.003	30.94
668.19	30.76
668.378	30.66
668.565	30.39
668.752	30.33
668.939	30.34
669.127	30.24
669.314	30.07
669.501	30.31
669.688	30.22
669.875	29.67
670.062	30.1
670.249	29.88
670.436	29.64
670.623	30.21
670.81	29.78
670.997	29.31
671.184	29.33
671.371	29.22
671.558	29.25
671.745	29.34
671.932	29.37
672.119	28.87
672.306	29.26
672.493	29.65
672.68	29.55
672.867	29.61
673.054	29.68
673.24	30
673.427	30.04
673.614	30
673.801	30.25
673.988	29.96
674.174	29.83
674.361	29.95
674.548	30.09
674.734	29.76
674.921	30.1
675.108	30.09
675.294	29.67
675.481	29.8
675.668	29.83
675.854	29.49
676.041	29.56
676.227	29.74
676.414	29.54
676.601	28.91
676.787	29.21
676.974	29.27
677.16	29.49
677.347	29.57
677.533	29.57
677.719	29.52
677.906	29.44
678.092	29.85
678.279	30.11
678.465	29.99
678.651	30.19
678.838	30.19
679.024	30.13
679.21	30.27
679.397	30.04
679.583	29.54
679.769	29.49
679.955	29.68
680.142	29.38
680.328	29.31
680.514	29.59
680.7	29.36
680.886	29.58
681.073	29.65
681.259	29.66
681.445	30.08
681.631	30.69
681.817	30.63
682.003	30.96
682.189	30.97
682.375	31.04
682.561	30.57
682.747	30.79
682.933	30.52
683.119	30.45
683.305	30.63
683.491	30.81
683.677	30.39
683.863	30.18
684.049	30.18
684.235	30.65
684.42	29.82
684.606	29.79
684.792	29.9
684.978	29.61
685.164	29.72
685.349	29.18
685.535	28.99
685.721	28.97
685.907	29.2
686.092	28.97
686.278	28.68
686.464	29.61
686.649	29.96
686.835	30.12
687.021	30.93
687.206	30.79
687.392	30.95
687.577	31.08
687.763	31.31
687.948	31.23
688.134	30.77
688.319	31.27
688.505	31.22
688.69	31.33
688.876	30.59
689.061	29.83
689.247	29.76
689.432	29.8
689.618	29.23
689.803	29.36
689.988	29.03
690.174	29.37
690.359	28.47
690.544	28.8
690.73	28.26
690.915	28.74
691.1	29.24
691.285	29.04
691.471	28.75
691.656	29.34
691.841	29.66
692.026	29.84
692.211	29.7
692.396	30.75
692.582	30.38
692.767	30.83
692.952	30.93
693.137	30.76
693.322	31.58
693.507	31.41
693.692	31.13
693.877	30.64
694.062	31.29
694.247	31.3
694.432	30.48
694.617	30.25
694.802	30.73
694.987	30.52
695.172	30.58
695.357	29.9
695.541	30.27
695.726	30.33
695.911	30.59
696.096	30.06
696.281	30.31
696.466	30.18
696.65	29.98
696.835	28.99
697.02	29.68
697.204	29.51
697.389	29.71
697.574	29.59
697.759	29.7
697.943	29.76
698.128	29.95
698.312	30.12
698.497	30.12
698.682	30.33
698.866	30.55
699.051	30.26
699.235	30.56
699.42	30.73
699.604	30.58
699.789	30.65
699.973	30.11
700.158	29.83
700.342	29.47
700.527	29.65
700.711	29.75
700.895	29.7
701.08	29.8
701.264	29.49
701.448	29.35
701.633	29.56
701.817	29.45
702.001	30.22
702.186	30.99
702.37	30.64
702.554	30.55
702.738	30.53
702.923	30.68
703.107	30.36
703.291	30.24
703.475	30.68
703.659	30.05
703.843	29.23
704.027	28.68
704.212	27.96
704.396	28.41
704.58	28.19
704.764	28.66
704.948	28.07
705.132	28.15
705.316	27.61
705.5	25.77
705.684	26.28
705.868	26.4
706.052	26.82
706.235	26.98
706.419	26.99
706.603	27.61
706.787	27.38
706.971	28.15
707.155	28.66
707.339	28.43
707.522	29.07
707.706	29.75
707.89	30.08
708.074	29.94
708.257	29.36
708.441	28.98
708.625	27.99
708.808	26.75
708.992	26.58
709.176	26.53
709.359	27.16
709.543	27.12
709.727	27.18
709.91	27.69
710.094	28.21
710.277	29.07
710.461	29.59
710.644	30.18
710.828	30.98
711.011	30.67
711.195	30.05
711.378	29.98
711.562	30.46
711.745	29.44
711.928	29.06
712.112	28.05
712.295	27.77
712.478	27.81
712.662	27.62
712.845	27.81
713.028	28.03
713.212	27.99
713.395	27.93
713.578	28.06
713.761	29.38
713.945	29.48
714.128	30.18
714.311	29.73
714.494	29.33
714.677	29.26
714.86	29.6
715.043	30.06
715.227	30.66
715.41	31.04
715.593	31.13
715.776	30.78
715.959	30.39
716.142	30.38
716.325	30.68
716.508	30.82
716.691	31.81
716.874	31.26
717.057	29.81
717.239	29.88
717.422	30.29
717.605	29.77
717.788	29.48
717.971	29.58
718.154	28.81
718.337	28.77
718.519	28.61
718.702	28.55
718.885	28.67
719.068	30.35
719.25	29.29
719.433	28.13
719.616	28.3
719.798	28.19
719.981	28.41
720.164	28.79
720.346	30.47
720.529	30.28
720.712	29.16
720.894	29.01
721.077	27.57
721.259	27.29
721.442	27.84
721.624	28.09
721.807	29.27
721.989	28.97
722.172	29.12
722.354	28.06
722.537	28.82
722.719	29.47
722.901	29.69
723.084	30.88
723.266	31.49
723.448	31.19
723.631	30.99
723.813	29.47
723.995	29.53
724.178	29.55
724.36	28.96
724.542	28.95
724.724	28.05
724.907	27.49
725.089	27.91
725.271	27.88
725.453	27.5
725.635	27.66
725.817	27.71
725.999	28.26
726.181	27.66
726.364	28.18
726.546	27.98
726.728	29.27
726.91	29.25
727.092	29.24
727.274	29.62
727.456	30.46
727.638	30.8
727.819	31.13
728.001	31.07
728.183	32.46
728.365	32.22
728.547	31.57
728.729	30.92
728.911	31.31
729.093	30.81
729.274	31.07
729.456	31.08
729.638	31.46
729.82	30.87
730.001	30.77
730.183	28.78
730.365	28.74
730.546	30.11
730.728	29.74
730.91	28.83
731.091	28.42
731.273	27.4
731.455	27.25
731.636	25.69
731.818	26.53
731.999	27.1
732.181	28.09
732.362	28.43
732.544	27.3
732.725	27.71
732.907	28.58
733.088	28.77
733.27	28.89
733.451	28.09
733.633	28.66
733.814	27.31
733.995	26.19
734.177	26.73
734.358	27.28
734.539	27.32
734.721	28.06
734.902	27.77
735.083	26.33
735.264	26.84
735.446	27.77
735.627	29
735.808	30.2
735.989	30.58
736.17	29.56
736.351	28.29
736.533	28.78
736.714	27.47
736.895	26.93
737.076	28.86
737.257	28.1
737.438	27.11
737.619	26.08
737.8	25.77
737.981	25.48
738.162	25.66
738.343	25.86
738.524	25.58
738.705	25.85
738.886	27.06
739.067	26.87
739.247	27.7
739.428	27.76
739.609	27.22
739.79	26.52
739.971	27.62
740.151	28.55
740.332	29.13
740.513	29.37
740.694	29.92
740.874	28.9
741.055	28.8
741.236	28.62
741.417	28.9
741.597	31.04
741.778	32.63
741.958	31.25
742.139	30.9
742.32	30.34
742.5	30.39
742.681	30.25
742.861	31.2
743.042	31.31
743.222	31.96
743.403	32.66
743.583	31.16
743.764	29.59
743.944	30.6
744.124	30.73
744.305	29.74
744.485	30.48
744.666	29.26
744.846	28.57
745.026	27.12
745.207	28.22
745.387	26.54
745.567	26.13
745.747	27.15
745.928	26.62
746.108	26.27
746.288	27.04
746.468	27.9
746.648	28.22
746.829	27.66
747.009	28.4
747.189	25.75
747.369	27.16
747.549	26.89
747.729	26.66
747.909	26.29
748.089	25.58
748.269	25.69
748.449	24.97
748.629	25.68
748.809	26.19
748.989	27.6
749.169	27.65
749.349	26.94
749.529	27.01
749.709	27.56
749.889	27.67
750.068	28.83
750.248	28.9
750.428	27.81
750.608	27.8
750.788	28.31
750.967	28.17
751.147	29.23
751.327	29.67
751.507	30.93
751.686	30.12
751.866	31.85
752.046	31.59
752.225	32.41
752.405	32.52
752.585	32.86
752.764	32.27
752.944	30.7
753.123	30.22
753.303	32.4
753.482	31.67
753.662	32.8
753.841	30.43
754.021	30.78
754.2	30.06
754.38	29.12
754.559	28.63
754.739	29.46
754.918	29.92
755.097	30.5
755.277	29.56
755.456	29.63
755.635	28.28
755.815	29.23
755.994	28.51
756.173	28.36
756.352	28.99
756.532	27.76
756.711	26.79
756.89	27.09
757.069	27.23
757.248	26.69
757.427	26.08
757.607	26.66
757.786	26.31
757.965	27.03
758.144	27.26
758.323	28.35
758.502	29.76
758.681	30.98
758.86	31.55
759.039	30.88
759.218	30.75
759.397	31.82
759.576	31.37
759.755	31.92
759.934	31.31
760.113	31.25
760.291	30.92
760.47	30.92
760.649	30.1
760.828	29.63
761.007	30.45
761.186	29.95
761.364	29.83
761.543	29.49
761.722	29.89
761.901	30.41
762.079	30.37
762.258	30.75
762.437	30.39
762.615	31.05
762.794	31.51
762.972	31.58
763.151	31.81
763.33	31.27
763.508	31.31
763.687	30.8
763.865	29.9
764.044	29.51
764.222	28.81
764.401	28.74
764.579	27.45
764.758	26.91
764.936	26.24
765.114	25.97
765.293	25.7
765.471	26.44
765.65	27.41
765.828	27.59
766.006	27.24
766.184	27.41
766.363	27.26
766.541	28.61
766.719	29.96
766.898	30.75
767.076	31.25
767.254	32.03
767.432	31.06
767.61	29.62
767.788	30.61
767.967	31.58
768.145	32.91
768.323	33.37
768.501	33.1
768.679	31.21
768.857	31.22
769.035	30.53
769.213	31.57
769.391	32.09
769.569	34.26
769.747	34.06
769.925	33.26
770.103	31.55
770.281	31.26
770.459	31.2
770.636	32.33
770.814	31.73
770.992	32.76
771.17	32.89
771.348	33.26
771.525	30.79
771.703	29.85
771.881	30.91
772.059	31.93
772.236	31.45
772.414	31.22
772.592	31.08
772.769	31.16
772.947	29.25
773.125	27.38
773.302	27.24
773.48	26.73
773.657	25.99
773.835	26.98
774.013	26.48
774.19	26.63
774.368	26.84
774.545	26.26
774.723	27.56
774.9	28.97
775.077	29.73
775.255	30.02
775.432	32.31
775.61	34.01
775.787	32.99
775.964	33.8
776.142	33.04
776.319	32.89
776.496	30.31
776.674	27.97
776.851	26.33
777.028	25.11
777.205	23.65
777.382	19.79
777.56	19.18
777.737	17.82
777.914	17.39
778.091	19.61
778.268	19.91
778.445	21.95
778.622	21.88
778.8	22.33
778.977	20.87
779.154	20.45
779.331	22.41
779.508	22.28
779.685	23.37
779.862	21
780.038	20.82
780.215	20.17
780.392	20.52
780.569	22.41
780.746	22.86
780.923	26.16
781.1	28.08
781.277	29.77
781.453	29.13
781.63	29.94
781.807	30.35
781.984	26.97
782.16	26.71
782.337	27.24
782.514	26.94
782.691	26.5
782.867	24.58
783.044	24.46
783.221	23.77
783.397	23.4
783.574	22.31
783.75	24.72
783.927	26.97
784.103	26.84
784.28	29.02
784.456	27.47
784.633	31.36
784.809	28.74
784.986	27.03
785.162	24.27
785.339	26.48
785.515	27.28
785.692	26.3
785.868	24.52
786.044	26.1
786.221	23.85
786.397	22.49
786.573	22.31
786.749	28.41
786.926	27.3
787.102	29.6
787.278	30.29
787.454	28.75
787.631	27.62
787.807	28.68
787.983	28.83
788.159	28.61
788.335	29.37
788.511	27.44
788.687	24.09
788.863	27.26
789.039	27.71
789.216	27.18
789.392	25.91
789.568	26.74
789.744	28.18
789.919	28.05
790.095	30.43
790.271	30.84
790.447	31.39
790.623	29.71
790.799	26.5
790.975	24.12
791.151	22.78
791.327	22.47
791.502	21.69
791.678	20.87
791.854	18.73
792.03	16.22
792.205	14.71
792.381	15.25
792.557	16.39
792.733	19.66
792.908	19.71
793.084	17.96
793.259	20.94
793.435	21.97
793.611	21.9
793.786	22.7
793.962	22.36
794.137	23.97
794.313	21.7
794.488	23.76
794.664	23.45
794.839	23.14
795.015	25.08
795.19	26.95
795.366	26.85
795.541	26.38
795.716	26.45
795.892	25.43
796.067	24.99
796.242	24.23
796.418	24.08
796.593	22.79
796.768	25.25
796.944	27.62
797.119	25.32
797.294	27.29
797.469	27.73
797.644	27.64
797.82	30.77
797.995	30.87
798.17	34.91
798.345	37.69
798.52	40.27
798.695	38.26
798.87	38.96
799.045	40.15
799.22	38.04
799.395	34.44
799.57	32.2
799.745	31.89
799.92	31.22
800.095	40.52
800.27	39.1
800.445	35.39
800.62	38.02
800.795	34.37
800.97	34.2
801.145	36.86
801.319	40.82
801.494	42.52
801.669	40.46
801.844	41.67
802.018	28.88
802.193	29.34
802.368	28.75
802.543	26.86
802.717	28.72
802.892	25.65
803.067	26.31
803.241	26.46
803.416	26.24
803.59	25.8
803.765	24.63
803.94	24.68
804.114	22.84
804.289	21.97
804.463	23.07
804.638	17.87
804.812	22.99
804.986	18.93
805.161	20.31
805.335	19.49
805.51	21.96
805.684	22.74
805.858	22.22
806.033	18.02
806.207	20.07
806.381	18.5
806.556	22.98
806.73	23.46
806.904	22.27
807.078	24.49
807.253	23.21
807.427	21.19
807.601	19.97
807.775	22.3
807.949	25.13
808.123	24.98
808.298	25.51
808.472	24.07
808.646	18.21
808.82	21.7
808.994	15.79
809.168	19.2
809.342	18.11
809.516	18.88
809.69	18.2
809.864	17.99
810.038	16.48
810.212	14.61
810.385	17.97
810.559	24.68
810.733	26.64
810.907	25.08
811.081	26.41
811.255	28.37
811.428	30.56
811.602	28.2
811.776	31.63
811.95	33.07
812.123	34.04
812.297	32.33
812.471	27.37
812.644	26.23
812.818	29.49
812.992	28.69
813.165	29.85
813.339	30.21
813.512	29.04
813.686	24.75
813.86	22.73
814.033	23.99
814.207	20.58
814.38	23.43
814.554	21.28
814.727	18.3
814.9	21.04
815.074	18.04
815.247	20.76
815.421	22.17
815.594	26.82
815.767	30.34
815.941	30.78
816.114	35.08
816.287	35.85
816.46	34.7
816.634	33.84
816.807	31.26
816.98	32.21
817.153	32.32
817.327	36.14
817.5	27
817.673	24.19
817.846	21.85
818.019	20.83
818.192	22.76
818.365	23.57
818.538	27.64
818.711	26.34
818.884	30.13
819.057	25.79
819.23	20.51
819.403	23.74
819.576	22.66
819.749	24.39
819.922	19.41
820.095	17.78
820.268	20.67
820.441	22.09
820.614	26.88
820.786	24.41
820.959	25.59
821.132	26.1
821.305	26.81
821.477	27.39
821.65	26.88
821.823	28.97
821.996	28.62
822.168	27.68
822.341	27.7
822.514	26.55
822.686	26.65
822.859	26.22
823.031	26.34
823.204	26.79
823.376	27.16
823.549	27.69
823.722	27.86
823.894	27.97
824.067	27.94
824.239	27.63
824.411	27.18
824.584	26.94
824.756	28.03
824.929	27.85
825.101	27.25
825.273	27.37
825.446	27.65
825.618	27.38
825.79	26.77
825.963	27.97
826.135	27.95
826.307	28.82
826.479	29.51
826.652	27.46
826.824	28.68
826.996	27.86
827.168	26.8
827.34	26.41
827.512	25.56
827.684	25.65
827.856	25
828.029	23.32
828.201	22.46
828.373	21.22
828.545	21.27
828.717	20.43
828.889	20.3
829.061	20.79
829.232	20.24
829.404	18.94
829.576	18.72
829.748	18.81
829.92	21.98
830.092	23.94
830.264	22.51
830.436	24.32
830.607	24.4
830.779	23.66
830.951	23.55
831.123	24.86
831.294	27.18
831.466	26.92
831.638	23.61
831.809	21.17
831.981	19.38
832.153	26.7
832.324	23.97
832.496	23.07
832.667	22.03
832.839	20.34
833.011	20.08
833.182	21.61
833.354	21.06
833.525	27.33
833.697	29
833.868	27.81
834.039	27
834.211	27.25
834.382	26.98
834.554	28.72
834.725	29.5
834.896	28.15
835.068	26.71
835.239	26.24
835.41	25.12
835.581	23.85
835.753	26.51
835.924	25
836.095	25.33
836.266	25.64
836.438	24.89
836.609	25.67
836.78	26.2
836.951	24.51
837.122	26.97
837.293	22.61
837.464	23.53
837.635	22.71
837.806	22.76
837.977	24.73
838.148	23.17
838.319	23.13
838.49	21.81
838.661	24.4
838.832	30.49
839.003	31.21
839.174	29.96
839.345	19.53
839.516	16.86
839.687	17.33
839.857	14.46
840.028	12.43
840.199	17.91
840.37	23.1
840.54	13.57
840.711	7.9
840.882	11.35
841.053	15.24
841.223	27.3
841.394	25.28
841.564	20.38
841.735	23.19
841.906	23.42
842.076	20.16
842.247	16.68
842.417	21.69
842.588	23.99
842.758	18.06
842.929	21.76
843.099	18.33
843.27	15.11
843.44	17.25
843.611	16.51
843.781	27.75
843.951	21.65
844.122	11.37
844.292	13.61
844.462	7.79
844.633	19.45
844.803	11.55
844.973	-0.01
845.144	6.23
845.314	18.67
845.484	11.52
845.654	6.51
845.824	23.69
845.995	31.04
846.165	35.43
846.335	34.32
846.505	21.73
846.675	22.99
846.845	33.96
847.015	34.62
847.185	25.44
847.355	31.72
847.525	31.8
847.695	23.79
847.865	18.06
848.035	21.79
848.205	28.68
848.375	27.8
848.545	39.18
848.715	22
848.884	23.28
849.054	23.01
849.224	13.08
849.394	6.67
849.564	-1.61
849.733	7.28
849.903	-57.43
850.073	-80.04
850.243	-79.19
850.412	-114.37
850.582	-83.18
850.752	-82.82
850.921	-24.8
851.091	-20.97
851.26	-18.05
851.43	-24.41
851.599	-30.8
851.769	-11.21
851.939	-5.76
852.108	2.82
852.278	7.5
852.447	5.08
852.616	-2.05
852.786	-9.92
852.955	10.04
853.125	5.77
853.294	-7.03
853.463	-12.53
853.633	-3.77
853.802	-3.97
853.971	-14.43
854.141	-32.88
854.31	-43.74
854.479	-45.11
854.648	-54.88
854.818	-79.77
854.987	-43.06
855.156	-35.24
855.325	-7.58
855.494	-20.26
855.663	-39.65
855.832	-39.14
856.001	-21.42
856.171	-14.87
856.34	-5.04
856.509	-7.07
856.678	-1.53
856.847	-25.26
857.016	-4.08
857.185	-10.4
857.353	-0.55
857.522	20.03
857.691	23.14
857.86	23.11
858.029	31.45
858.198	30.59
858.367	36.83
858.535	46.5
858.704	58.46
858.873	55.33
859.042	54.78
859.21	41.2
859.379	41.55
859.548	32.75
859.717	30.58
859.885	23.9
860.054	26.66
860.222	22.18
860.391	18.26
860.56	9.64
860.728	7.93
860.897	11.44
861.065	18.95
861.234	10.4
861.402	21.06
861.571	29.87
861.739	27.64
861.908	28.67
862.076	29.3
862.244	16.72
862.413	33.71
862.581	34.4
862.749	4.77
862.918	2.44
863.086	27.36
863.254	7.02
863.423	-5.19
863.591	-43.65
863.759	-27.33
863.927	-24.43
864.096	-38.87
864.264	-9.59
864.432	4.87
864.6	20.41
864.768	21.29
864.936	1.43
865.104	39.51
865.272	28.51
865.44	36.25
865.608	40.27
865.776	39.98
865.944	50.83
866.112	33.23
866.28	31.51
866.448	29.97
866.616	23.37
866.784	35.03
866.952	27.53
867.12	35.36
867.288	43.14
867.455	27.94
867.623	23.45
867.791	5.77
867.959	14.23
868.127	24.49
868.294	14.8
868.462	24.7
868.63	-11.06
868.797	-7.86
868.965	-10.16
869.133	-11.67
869.3	-5.44
869.468	-15.13
869.636	-6.52
869.803	-2.05
869.971	-5.43
870.138	-1.89
870.306	-14.33
870.473	-8.33
870.641	-24.93
870.808	-36.07
870.975	-28.42
871.143	-22.42
871.31	0.52
871.478	5.28
871.645	3.41
871.812	-28.46
871.98	-16.82
872.147	-26.54
872.314	-20.81
872.482	4.55
872.649	17.13
872.816	17.68
872.983	30.58
873.15	25.6
873.318	33.36
873.485	24.13
873.652	22.09
873.819	7.55
873.986	10.17
874.153	7.11
874.32	24.37
874.487	2.66
874.654	6.52
874.821	-33.63
874.988	-80.69
875.155	-158.18
875.322	-98.29
875.489	-87.18
875.656	-39.64
875.823	-52.54
875.99	-38.7
876.157	-50.51
876.324	-26.19
876.49	-27.86
876.657	-2.48
876.824	32.44
876.991	43.81
877.157	37.38
877.324	41.45
877.491	45.4
877.658	60.63
877.824	60.77
877.991	57.76
878.157	38.2
878.324	28.98
878.491	4.41
878.657	-19.52
878.824	-40.66
878.99	-19.67
879.157	-66.8
879.323	-105.72
879.49	-110.55
879.656	-141.81
879.823	-193.29
879.989	-110.32
880.156	-135.27
880.322	-40.04
880.488	10.69
880.655	4.17
880.821	-35.51
880.987	-39.46
881.154	-24.31
881.32	-17.06
881.486	3.39
881.652	13.77
881.819	10.99
881.985	17.61
882.151	11.77
882.317	11.16
882.483	15.33
882.649	18.13
882.816	19.99
882.982	19.58
883.148	20.76
883.314	17.59
883.48	17.7
883.646	16.29
883.812	17.33
883.978	16
884.144	13.71
884.31	11.42
884.476	12.55
884.642	14.72
884.807	17.32
884.973	16.03
885.139	17.84
885.305	18.07
885.471	20.33
885.637	20.48
885.802	24.58
885.968	27.71
886.134	33.38
886.3	33.31
886.465	30.05
886.631	28.05
886.797	29.07
886.962	31.34
887.128	35.49
887.293	33.18
887.459	20.84
887.625	18.28
887.79	22.48
887.956	7.31
888.121	8.23
888.287	14.88
888.452	18.66
888.618	17.27
888.783	11.72
