Data from 2937897_Reflection_1.txt Node
Date: Wed Jul 15 13:49:14 EDT 2015
User: robert
Spectrometer: USB4E03001
Autoset integration time: false
Trigger mode: 4
Integration Time (sec): 1.000000E-1
Scans to average: 10
Electric dark correction enabled: true
Nonlinearity correction enabled: false
Boxcar width: 5
Stray light correction enabled: false
XAxis mode: Wavelengths
Stop averaging: false
Number of Pixels in Spectrum: 3648
>>>>>Begin Spectral Data<<<<<
177.566	74.32
177.785	55.1
178.005	78.68
178.225	118.06
178.445	0.63
178.665	18.39
178.885	270.18
179.105	57.61
179.324	53.7
179.544	13.94
179.764	38.26
179.984	28.12
180.204	18.68
180.423	52.9
180.643	82.43
180.863	26.75
181.083	13.22
181.302	-764.59
181.522	-46.44
181.742	-76.37
181.961	-54.41
182.181	-117.34
182.401	-325.16
182.621	-540.51
182.84	-265.22
183.06	-202.22
183.279	199.24
183.499	-459.14
183.719	175.33
183.938	-100.35
184.158	-52.38
184.377	-38.51
184.597	-84.83
184.816	6.62
185.036	-144.78
185.256	-33.87
185.475	33.31
185.695	93.43
185.914	200.09
186.134	180.38
186.353	187.26
186.572	162.38
186.792	178.92
187.011	305.31
187.231	-844.16
187.45	1494.01
187.67	-1014.62
187.889	-293.22
188.108	796.14
188.328	-1638.24
188.547	-118.94
188.766	-118.86
188.986	590.46
189.205	412.05
189.424	271.23
189.644	170.89
189.863	195.14
190.082	217.49
190.302	354.32
190.521	472.96
190.74	256.94
190.959	344.52
191.178	198.79
191.398	400.29
191.617	478.27
191.836	257.71
192.055	223.93
192.274	509.77
192.494	548.98
192.713	312.81
192.932	373.34
193.151	1280.97
193.37	-198.66
193.589	-143.03
193.808	-171.58
194.027	-103.98
194.246	-44.9
194.465	-68.68
194.685	-212.69
194.904	-144.74
195.123	-236.83
195.342	-304.55
195.561	-599.15
195.78	-3394.27
195.999	991.13
196.218	291.1
196.436	188.13
196.655	195.58
196.874	159.05
197.093	139.27
197.312	106.34
197.531	117.15
197.75	143.99
197.969	141.19
198.188	140.56
198.407	169.11
198.625	181.17
198.844	235.35
199.063	271.3
199.282	312.95
199.501	429.15
199.719	4689.8
199.938	521.24
200.157	282.15
200.376	205.78
200.594	224.65
200.813	194.93
201.032	204.49
201.251	244.24
201.469	231.1
201.688	189.26
201.907	150.18
202.125	167.7
202.344	358.68
202.563	4426.56
202.781	-243.1
203	-739.07
203.218	-2178.55
203.437	-1021.86
203.656	1535.52
203.874	1204.65
204.093	1723.86
204.311	642.27
204.53	236.32
204.748	193.68
204.967	167.23
205.185	142.45
205.404	95.26
205.622	74.25
205.841	102.83
206.059	54.72
206.278	163.48
206.496	778.92
206.715	622.71
206.933	-1557.22
207.151	-1202.49
207.37	575.66
207.588	827.83
207.806	1757.58
208.025	1389.75
208.243	771.06
208.461	808.42
208.68	356.28
208.898	365.97
209.116	669.25
209.335	800.06
209.553	3697.89
209.771	2486.13
209.989	531.16
210.208	-6044.34
210.426	2786.67
210.644	-309.94
210.862	-4.72
211.081	-14.48
211.299	-11.49
211.517	-38.65
211.735	-95.05
211.953	-126.84
212.171	-157.69
212.39	-178.11
212.608	-346.52
212.826	-119.64
213.044	-583.27
213.262	531.09
213.48	785.01
213.698	460.89
213.916	254.49
214.134	312.62
214.352	257.67
214.57	226.82
214.788	174.31
215.006	191.56
215.224	157.87
215.442	225.49
215.66	172.73
215.878	149.37
216.096	114.38
216.314	110.14
216.532	129.25
216.75	173.45
216.968	153.32
217.185	236
217.403	284.2
217.621	223.19
217.839	256.05
218.057	746.47
218.275	334.16
218.492	532.37
218.71	893.25
218.928	407.7
219.146	388.09
219.363	2664.73
219.581	256.22
219.799	269.34
220.017	351.33
220.234	213.15
220.452	208.07
220.67	392.26
220.887	1221.71
221.105	1619.83
221.323	1154.52
221.54	469.97
221.758	-1169.84
221.976	-98.74
222.193	-126
222.411	-369.29
222.629	-151.12
222.846	-325.56
223.064	-70.88
223.281	-55.25
223.499	-24.85
223.716	-84.28
223.934	-20.05
224.151	-39.46
224.369	-51.43
224.586	-52.82
224.804	-65.65
225.021	-8.8
225.239	13.73
225.456	15.91
225.674	41.38
225.891	63.25
226.108	70.43
226.326	80.58
226.543	87.86
226.76	95.39
226.978	78.07
227.195	78.7
227.413	68.76
227.63	58.42
227.847	56.09
228.064	48.21
228.282	44.47
228.499	37.68
228.716	33.4
228.934	36.91
229.151	34.47
229.368	33.45
229.585	35.48
229.802	32.16
230.02	34.94
230.237	36.3
230.454	34.47
230.671	33.26
230.888	35.12
231.105	39.82
231.323	44.57
231.54	43
231.757	42.06
231.974	35.89
232.191	42.36
232.408	40.83
232.625	35.14
232.842	36.42
233.059	36.31
233.276	36.63
233.493	32.54
233.71	23.29
233.927	29.65
234.144	34.26
234.361	30.89
234.578	22.67
234.795	20.41
235.012	21.49
235.229	21.86
235.446	22.2
235.663	22.52
235.879	25.11
236.096	21.91
236.313	19.61
236.53	17.83
236.747	23.74
236.964	35.5
237.181	33.62
237.397	36.05
237.614	37.75
237.831	41.03
238.048	45.4
238.264	42.31
238.481	48.37
238.698	43.84
238.915	38.19
239.131	36.1
239.348	31.19
239.565	33.39
239.781	32.82
239.998	28.33
240.215	28.1
240.431	25.6
240.648	28.91
240.865	25.47
241.081	28.37
241.298	28.94
241.514	29.58
241.731	28.91
241.947	26.71
242.164	24.93
242.38	25.53
242.597	23.5
242.814	21.31
243.03	19.43
243.246	18.64
243.463	15.4
243.679	14.72
243.896	13.52
244.112	12.84
244.329	13.06
244.545	13.81
244.762	12.94
244.978	12.47
245.194	15.8
245.411	15.9
245.627	16.18
245.843	18.6
246.06	19.68
246.276	19.04
246.492	19.22
246.709	20.59
246.925	20.15
247.141	20.32
247.357	20.41
247.574	18.42
247.79	18.03
248.006	17.91
248.222	17.01
248.439	17.47
248.655	17.58
248.871	17.33
249.087	15.51
249.303	14.95
249.519	13.78
249.736	10.9
249.952	12.3
250.168	11.06
250.384	12.49
250.6	10.44
250.816	7.73
251.032	6.98
251.248	3.11
251.464	6.44
251.68	6.49
251.896	7.44
252.112	10.27
252.328	11.3
252.544	13.76
252.76	14.23
252.976	18.11
253.192	19.8
253.408	25.15
253.624	27.65
253.84	27.19
254.056	29.96
254.272	30.77
254.487	33.08
254.703	35.25
254.919	37.82
255.135	37.11
255.351	34.94
255.567	30.16
255.782	23.78
255.998	24.67
256.214	24.78
256.43	23.47
256.646	21.34
256.861	22.52
257.077	20.11
257.293	15.15
257.508	14.93
257.724	13.85
257.94	14.8
258.155	13.57
258.371	14.42
258.587	13.97
258.802	14.26
259.018	14.37
259.234	13.42
259.449	13.94
259.665	14.86
259.88	15.89
260.096	15.99
260.312	15.99
260.527	16.09
260.743	15.28
260.958	15.32
261.174	15.95
261.389	16.93
261.605	17.27
261.82	17.04
262.036	17.64
262.251	16.36
262.466	16.91
262.682	17.15
262.897	18.43
263.113	20.2
263.328	21.32
263.543	19.62
263.759	20.09
263.974	20.55
264.189	23.3
264.405	20.13
264.62	20.03
264.835	19.92
265.051	20.65
265.266	19.82
265.481	17.85
265.696	17.16
265.912	16.78
266.127	16.39
266.342	15.19
266.557	12.36
266.773	12.54
266.988	13.24
267.203	11.72
267.418	13.16
267.633	13.02
267.848	13.76
268.064	13.85
268.279	14.05
268.494	14.88
268.709	16.66
268.924	17.9
269.139	20.22
269.354	20.62
269.569	20.64
269.784	19.62
269.999	18.38
270.214	18.29
270.429	17.2
270.644	17.41
270.859	15.95
271.074	13.2
271.289	13.58
271.504	13.69
271.719	10.9
271.934	12.14
272.149	11.95
272.363	12.9
272.578	12.33
272.793	13.28
273.008	12.49
273.223	12.52
273.438	15.1
273.653	13.93
273.867	12.26
274.082	14.99
274.297	13.49
274.512	14.03
274.726	14
274.941	15.8
275.156	18.37
275.371	19.06
275.585	19.69
275.8	17.09
276.015	17.12
276.229	18.85
276.444	20.23
276.659	22.13
276.873	21.39
277.088	22.95
277.302	22.14
277.517	21.57
277.732	22.72
277.946	21.53
278.161	23.98
278.375	24.28
278.59	23.03
278.804	22.03
279.019	21.47
279.233	22.86
279.448	20.93
279.662	20.91
279.877	17.83
280.091	17.43
280.306	20.59
280.52	19.9
280.735	20.28
280.949	19.97
281.163	21.37
281.378	21.61
281.592	21.46
281.806	23.28
282.021	23.2
282.235	22.4
282.449	20.3
282.664	18.03
282.878	16.34
283.092	15.4
283.307	14.76
283.521	12.49
283.735	11.28
283.949	10.9
284.164	8.9
284.378	8.27
284.592	9.06
284.806	11.56
285.02	12.6
285.234	13.75
285.449	15.04
285.663	15.57
285.877	15.09
286.091	15.46
286.305	14.54
286.519	15.75
286.733	15.51
286.947	14.14
287.161	13.42
287.375	12.11
287.589	12.5
287.803	14.47
288.017	17.96
288.231	19.16
288.445	19.92
288.659	19.22
288.873	18.98
289.087	21.14
289.301	23.57
289.515	24.05
289.729	24.44
289.943	24.04
290.157	20.73
290.371	18.36
290.584	17.47
290.798	16.1
291.012	16.82
291.226	16.81
291.44	16.51
291.654	16.4
291.867	15.44
292.081	15.33
292.295	14.85
292.509	14.16
292.722	15.1
292.936	15.76
293.15	18.48
293.364	18.83
293.577	16.57
293.791	15.16
294.005	16.53
294.218	16.37
294.432	16.22
294.645	16.47
294.859	18.03
295.073	16.08
295.286	16.12
295.5	13.91
295.713	13.63
295.927	12.85
296.14	13.1
296.354	12.23
296.568	12.66
296.781	11.89
296.994	11.96
297.208	12.02
297.421	11.84
297.635	11.72
297.848	14.46
298.062	15.39
298.275	16.41
298.489	17.66
298.702	17.48
298.915	17.22
299.129	19.06
299.342	18.54
299.555	18.22
299.769	20.04
299.982	21.21
300.195	19.22
300.409	18.3
300.622	18.46
300.835	15.61
301.048	15.27
301.262	16.5
301.475	15.1
301.688	14.34
301.901	14.69
302.115	13.56
302.328	13.59
302.541	12.79
302.754	12.25
302.967	12.36
303.18	15.25
303.393	15.74
303.607	15.63
303.82	15.44
304.033	16.31
304.246	18.22
304.459	20
304.672	18.89
304.885	19.55
305.098	19.72
305.311	19.6
305.524	16.27
305.737	16.07
305.95	15.73
306.163	18.23
306.376	19.54
306.589	18.63
306.802	18.5
307.015	19.02
307.228	19.78
307.44	20.33
307.653	19.15
307.866	21.05
308.079	20.81
308.292	21.5
308.505	19.7
308.718	19.97
308.93	19.46
309.143	17.18
309.356	16.8
309.569	16.22
309.781	17.01
309.994	18.78
310.207	20.35
310.42	19.63
310.632	17.66
310.845	18.62
311.058	18.12
311.27	17
311.483	18.65
311.696	18.12
311.908	17.46
312.121	17.39
312.333	18.4
312.546	16.39
312.759	18.73
312.971	19.33
313.184	19.41
313.396	18.63
313.609	19.62
313.821	18.96
314.034	20.92
314.246	22.43
314.459	22.28
314.671	19.99
314.884	20.76
315.096	18.62
315.309	20.3
315.521	19.65
315.733	21.2
315.946	22.79
316.158	23.28
316.371	22.7
316.583	22.53
316.795	21.88
317.008	23.35
317.22	24.03
317.432	25.2
317.644	23.7
317.857	23.2
318.069	21.56
318.281	19.41
318.494	19.85
318.706	19.47
318.918	19.52
319.13	19.46
319.342	18.03
319.555	19.67
319.767	18.69
319.979	20.44
320.191	20.6
320.403	20.44
320.615	21.57
320.827	21.15
321.039	21.54
321.252	23.07
321.464	24.23
321.676	22.59
321.888	20.46
322.1	20.58
322.312	18.95
322.524	20.4
322.736	22.09
322.948	21.02
323.16	19.05
323.372	20.52
323.584	18.7
323.796	17.22
324.007	19.23
324.219	19.34
324.431	18.79
324.643	18.53
324.855	17.38
325.067	17.52
325.279	18.05
325.491	18.68
325.702	17.58
325.914	16.73
326.126	18.41
326.338	18.07
326.55	17.35
326.761	17.99
326.973	18.05
327.185	18.18
327.396	17.22
327.608	16.59
327.82	17.84
328.032	18.4
328.243	18.55
328.455	17.56
328.666	17.02
328.878	19.15
329.09	20.16
329.301	19.87
329.513	20.87
329.725	20.16
329.936	19.38
330.148	17.81
330.359	15.19
330.571	15.63
330.782	17.64
330.994	18.06
331.205	15.51
331.417	14.27
331.628	14.87
331.84	12.8
332.051	13.66
332.262	14.32
332.474	15.54
332.685	17.08
332.897	17.04
333.108	15.14
333.319	16.24
333.531	15.93
333.742	16.85
333.953	16.18
334.165	16.85
334.376	18.15
334.587	18.39
334.799	19.78
335.01	19.99
335.221	20.89
335.432	21.5
335.644	21.96
335.855	22.66
336.066	21.85
336.277	21.6
336.488	21.75
336.7	21.61
336.911	22.33
337.122	20.32
337.333	20.82
337.544	18.63
337.755	18.17
337.966	16.24
338.177	16.58
338.388	15.41
338.599	16.62
338.811	17.05
339.022	16.53
339.233	15.99
339.444	14.72
339.655	13.13
339.866	14.55
340.076	13.38
340.287	14.67
340.498	14.63
340.709	16.55
340.92	17.16
341.131	17.42
341.342	17.02
341.553	16.83
341.764	18.45
341.975	19.42
342.185	20.16
342.396	21.34
342.607	20.73
342.818	21.69
343.029	21.7
343.239	20.82
343.45	20.76
343.661	21.06
343.872	21.02
344.082	21.39
344.293	20.18
344.504	18.96
344.714	18.82
344.925	19.56
345.136	18.34
345.346	18.22
345.557	19.16
345.768	18.09
345.978	17.67
346.189	17.39
346.399	17.81
346.61	18.33
346.821	19.45
347.031	18.87
347.242	19.04
347.452	20.23
347.663	19.53
347.873	17.24
348.084	17.33
348.294	17.25
348.504	18.45
348.715	18.18
348.925	18.77
349.136	17.72
349.346	19.6
349.557	19.05
349.767	19.25
349.977	19.53
350.188	20.77
350.398	21.72
350.608	21.63
350.819	21.51
351.029	21.58
351.239	20.66
351.449	21.58
351.66	19.57
351.87	19.77
352.08	19.13
352.29	20.72
352.501	20.71
352.711	21.05
352.921	21.36
353.131	20.32
353.341	20.06
353.552	19.76
353.762	19.34
353.972	19.74
354.182	18.38
354.392	17.27
354.602	17.17
354.812	16.72
355.022	15.93
355.232	15.94
355.442	16.4
355.652	16.39
355.862	16.9
356.072	16.87
356.282	16.76
356.492	17.94
356.702	18.17
356.912	17.37
357.122	17.13
357.332	16.46
357.542	16.38
357.752	16.41
357.962	15.9
358.171	15.48
358.381	15.46
358.591	15.47
358.801	14.89
359.011	14.23
359.221	13.32
359.43	13.37
359.64	13.43
359.85	13.64
360.06	12.93
360.269	13.11
360.479	13.44
360.689	13.04
360.899	12.44
361.108	12.54
361.318	13.13
361.528	13.19
361.737	13.91
361.947	13.69
362.156	13.92
362.366	14.36
362.576	14.23
362.785	13.64
362.995	13.19
363.204	13.83
363.414	13.65
363.623	13.96
363.833	14.08
364.042	13.04
364.252	12.84
364.461	12.05
364.671	11.79
364.88	12.12
365.09	12.73
365.299	13.01
365.509	12.46
365.718	12.64
365.927	12.68
366.137	13.42
366.346	14.04
366.555	13.94
366.765	14.16
366.974	13.24
367.183	12.89
367.393	12.97
367.602	13.02
367.811	12.96
368.021	11.91
368.23	11.33
368.439	10.35
368.648	9.33
368.857	10.02
369.067	10.1
369.276	10.83
369.485	10.98
369.694	10.63
369.903	10.49
370.112	11.64
370.321	12.15
370.531	13.14
370.74	13.38
370.949	13.99
371.158	13.61
371.367	13.24
371.576	13.39
371.785	12.96
371.994	13.85
372.203	13.83
372.412	12.79
372.621	12.71
372.83	12.54
373.039	12.29
373.248	12.71
373.457	12.92
373.666	12.72
373.874	12.34
374.083	12.11
374.292	11.26
374.501	11.57
374.71	12.02
374.919	12.2
375.128	11.37
375.336	11.17
375.545	10.88
375.754	10.42
375.963	10.91
376.171	11.1
376.38	11.39
376.589	11.69
376.798	10.57
377.006	10.52
377.215	10.3
377.424	10.7
377.632	11.01
377.841	11.86
378.05	12.46
378.258	11.7
378.467	11.74
378.675	11.55
378.884	11.02
379.093	11.87
379.301	11.97
379.51	12.47
379.718	11.75
379.927	11.28
380.135	10.33
380.344	9.83
380.552	9.84
380.761	9.74
380.969	9.57
381.177	9.23
381.386	9.06
381.594	8.62
381.803	8.49
382.011	8.73
382.219	8.61
382.428	8.58
382.636	9.1
382.845	9.5
383.053	8.74
383.261	8.61
383.469	9.3
383.678	9.23
383.886	9.59
384.094	9.42
384.302	9.71
384.511	9.58
384.719	9.62
384.927	9.29
385.135	9.26
385.343	9.81
385.552	9.88
385.76	9.44
385.968	9.84
386.176	9.39
386.384	9.37
386.592	9.07
386.8	9.32
387.008	9.37
387.216	8.96
387.424	8.52
387.633	8.41
387.841	8.07
388.049	8.32
388.257	7.95
388.465	8.06
388.672	7.7
388.88	7.39
389.088	7.05
389.296	7.56
389.504	7.38
389.712	7.24
389.92	6.93
390.128	7.12
390.336	6.94
390.544	6.78
390.751	6.48
390.959	6.5
391.167	6.43
391.375	6.76
391.583	5.77
391.79	6.29
391.998	6.25
392.206	6.63
392.414	6.5
392.621	6.07
392.829	5.92
393.037	5.84
393.244	5.64
393.452	5.82
393.66	5.79
393.867	5.95
394.075	5.68
394.283	5.43
394.49	5.32
394.698	5.48
394.905	5.78
395.113	6.19
395.32	6.25
395.528	6.4
395.735	6.26
395.943	6.16
396.15	6.1
396.358	5.76
396.565	6.13
396.773	5.84
396.98	5.76
397.188	5.78
397.395	5.37
397.602	5.25
397.81	5.2
398.017	5.01
398.225	5.1
398.432	5.35
398.639	5.56
398.847	5.39
399.054	5.53
399.261	5.23
399.468	4.91
399.676	4.82
399.883	4.82
400.09	4.64
400.297	4.99
400.505	5.02
400.712	4.92
400.919	4.6
401.126	4.63
401.333	4.75
401.54	4.67
401.748	4.53
401.955	5.02
402.162	5.29
402.369	5.34
402.576	5.41
402.783	5.04
402.99	4.27
403.197	4.71
403.404	4.94
403.611	4.77
403.818	4.7
404.025	4.97
404.232	4.88
404.439	4.58
404.646	4.59
404.853	4.3
405.06	4.78
405.267	5.36
405.474	5.48
405.681	5.43
405.887	5.57
406.094	6.13
406.301	6.28
406.508	5.93
406.715	6.1
406.922	6.24
407.128	6.48
407.335	6.13
407.542	5.79
407.749	5.65
407.955	5.31
408.162	5.05
408.369	4.51
408.575	4.43
408.782	4.34
408.989	4.32
409.195	4.43
409.402	4.17
409.609	4.35
409.815	4.47
410.022	4.1
410.228	4.37
410.435	4.3
410.642	4.67
410.848	4.7
411.055	5.05
411.261	5.1
411.468	4.88
411.674	5.14
411.881	5
412.087	5.4
412.294	5.5
412.5	5.59
412.706	6.01
412.913	5.81
413.119	5.58
413.326	5.54
413.532	5.78
413.738	5.66
413.945	5.39
414.151	5.33
414.357	5.4
414.564	5.41
414.77	5.16
414.976	4.97
415.182	5.16
415.389	5.04
415.595	4.86
415.801	4.51
416.007	4.61
416.214	4.66
416.42	4.7
416.626	4.32
416.832	4.44
417.038	4.24
417.244	4.06
417.45	3.91
417.657	4.17
417.863	4.43
418.069	4.61
418.275	4.7
418.481	4.56
418.687	4.37
418.893	4.33
419.099	4.38
419.305	4.45
419.511	4.46
419.717	4.39
419.923	4.26
420.129	4.03
420.335	4.05
420.541	3.92
420.746	4
420.952	3.94
421.158	4.09
421.364	3.98
421.57	4.08
421.776	4.12
421.982	4.19
422.187	4.23
422.393	4.21
422.599	4.1
422.805	4.17
423.01	4.19
423.216	4.35
423.422	4.36
423.628	4.45
423.833	4.54
424.039	4.63
424.245	4.79
424.45	4.73
424.656	4.88
424.862	4.95
425.067	4.99
425.273	4.85
425.478	4.74
425.684	4.72
425.889	4.61
426.095	4.49
426.301	4.32
426.506	4.12
426.712	4.25
426.917	4.2
427.123	4
427.328	3.91
427.533	4.11
427.739	4.31
427.944	4.04
428.15	3.96
428.355	3.99
428.561	4
428.766	4.14
428.971	4.03
429.177	3.99
429.382	4.28
429.587	4.44
429.793	4.38
429.998	4.31
430.203	4.49
430.408	4.51
430.614	4.45
430.819	4.66
431.024	4.56
431.229	4.81
431.434	4.84
431.64	4.67
431.845	4.36
432.05	4.32
432.255	4.3
432.46	4.41
432.665	4.6
432.87	4.77
433.076	4.78
433.281	4.62
433.486	4.36
433.691	4.36
433.896	4.38
434.101	4.62
434.306	4.73
434.511	4.83
434.716	4.82
434.921	4.92
435.126	4.83
435.331	4.64
435.535	4.76
435.74	4.94
435.945	4.79
436.15	4.67
436.355	4.48
436.56	4.33
436.765	4.2
436.97	4.11
437.174	4.17
437.379	4.11
437.584	4.11
437.789	4.03
437.993	3.87
438.198	4.13
438.403	4.27
438.608	4.5
438.812	4.7
439.017	4.56
439.222	4.69
439.426	4.37
439.631	4.27
439.836	4.3
440.04	4.27
440.245	4.25
440.45	4.08
440.654	4.08
440.859	3.83
441.063	3.7
441.268	3.77
441.472	3.6
441.677	3.58
441.881	3.78
442.086	3.67
442.29	3.62
442.495	3.74
442.699	3.77
442.904	3.71
443.108	3.99
443.312	3.99
443.517	3.91
443.721	3.92
443.925	4.02
444.13	3.91
444.334	4.07
444.538	4.32
444.743	4.27
444.947	4.18
445.151	4.18
445.356	4.2
445.56	4.17
445.764	4.3
445.968	4.35
446.173	4.37
446.377	4.39
446.581	4.45
446.785	4.39
446.989	4.36
447.193	4.38
447.398	4.42
447.602	4.15
447.806	4.17
448.01	4.19
448.214	4.18
448.418	4.21
448.622	4.11
448.826	3.81
449.03	3.78
449.234	3.77
449.438	3.77
449.642	3.77
449.846	3.79
450.05	3.72
450.254	3.64
450.458	3.66
450.662	3.55
450.866	3.73
451.069	4
451.273	3.97
451.477	4.11
451.681	4.38
451.885	4.37
452.089	4.42
452.292	4.56
452.496	4.62
452.7	4.55
452.904	4.67
453.107	4.6
453.311	4.56
453.515	4.48
453.719	4.29
453.922	4
454.126	3.89
454.33	3.89
454.533	3.88
454.737	3.55
454.94	3.46
455.144	3.42
455.348	3.41
455.551	3.32
455.755	3.44
455.958	3.58
456.162	3.65
456.365	3.81
456.569	3.88
456.772	3.78
456.976	4.01
457.179	4.14
457.383	4.07
457.586	4.03
457.79	4.27
457.993	4.32
458.196	4.28
458.4	4.25
458.603	4.19
458.807	4.17
459.01	4.17
459.213	4.17
459.417	4.07
459.62	4.19
459.823	4.19
460.026	4.04
460.23	4.01
460.433	3.94
460.636	4.01
460.839	4.08
461.042	4.08
461.246	4.08
461.449	4.28
461.652	4.37
461.855	4.19
462.058	4.05
462.261	4.07
462.464	4.04
462.668	4.23
462.871	4.18
463.074	4.03
463.277	4.32
463.48	4.27
463.683	4.03
463.886	4.09
464.089	4.08
464.292	4.25
464.495	4.3
464.698	4.06
464.901	3.98
465.104	3.96
465.306	3.85
465.509	3.5
465.712	3.56
465.915	3.58
466.118	3.6
466.321	3.6
466.524	3.52
466.726	3.44
466.929	3.5
467.132	3.39
467.335	3.31
467.538	3.49
467.74	3.58
467.943	3.52
468.146	3.52
468.348	3.4
468.551	3.7
468.754	3.74
468.956	3.78
469.159	4.02
469.362	3.96
469.564	4.03
469.767	3.87
469.969	3.97
470.172	4.1
470.375	4.16
470.577	4.16
470.78	3.9
470.982	3.93
471.185	3.86
471.387	3.59
471.59	3.65
471.792	3.72
471.995	3.83
472.197	3.81
472.399	3.72
472.602	3.46
472.804	3.29
473.007	3.32
473.209	3.43
473.411	3.6
473.614	3.86
473.816	3.96
474.018	3.91
474.22	3.92
474.423	3.82
474.625	3.76
474.827	4.07
475.03	4.33
475.232	4.35
475.434	4.23
475.636	4.22
475.838	4.24
476.04	4.15
476.243	4.15
476.445	4.09
476.647	4.25
476.849	4.39
477.051	4.28
477.253	4.3
477.455	4.05
477.657	4.15
477.859	3.94
478.061	3.81
478.263	3.9
478.465	3.91
478.667	3.97
478.869	3.78
479.071	3.59
479.273	3.66
479.475	3.65
479.677	3.91
479.879	3.81
480.081	3.96
480.283	3.93
480.485	3.81
480.686	3.75
480.888	3.7
481.09	3.88
481.292	4.02
481.494	3.94
481.695	3.75
481.897	3.72
482.099	3.68
482.301	3.68
482.502	3.71
482.704	3.62
482.906	3.62
483.107	3.59
483.309	3.49
483.511	3.42
483.712	3.42
483.914	3.47
484.115	3.45
484.317	3.38
484.519	3.39
484.72	3.34
484.922	3.35
485.123	3.33
485.325	3.39
485.526	3.41
485.728	3.45
485.929	3.44
486.131	3.4
486.332	3.42
486.534	3.58
486.735	3.59
486.936	3.6
487.138	3.59
487.339	3.6
487.541	3.51
487.742	3.43
487.943	3.42
488.144	3.43
488.346	3.51
488.547	3.47
488.748	3.46
488.95	3.41
489.151	3.44
489.352	3.53
489.553	3.64
489.755	3.64
489.956	3.72
490.157	3.71
490.358	3.74
490.559	3.71
490.76	3.78
490.961	3.73
491.163	3.69
491.364	3.73
491.565	3.75
491.766	3.73
491.967	3.69
492.168	3.7
492.369	3.71
492.57	3.66
492.771	3.63
492.972	3.66
493.173	3.78
493.374	3.88
493.575	3.88
493.776	3.78
493.976	3.73
494.177	3.78
494.378	3.92
494.579	4.06
494.78	4.03
494.981	4.12
495.182	4.1
495.382	4.03
495.583	3.92
495.784	3.84
495.985	3.82
496.185	3.77
496.386	3.9
496.587	3.77
496.788	3.72
496.988	3.88
497.189	3.9
497.39	3.77
497.59	3.74
497.791	3.68
497.992	3.72
498.192	3.81
498.393	3.87
498.593	3.79
498.794	3.84
498.994	3.96
499.195	3.97
499.395	3.86
499.596	3.97
499.796	3.84
499.997	3.93
500.197	3.88
500.398	3.87
500.598	3.86
500.799	3.95
500.999	3.88
501.199	3.63
501.4	3.59
501.6	3.73
501.801	3.82
502.001	3.83
502.201	3.84
502.402	4
502.602	3.97
502.802	4.09
503.002	4.02
503.203	4.06
503.403	4.16
503.603	4.21
503.803	4.21
504.003	4.26
504.204	4.25
504.404	4.18
504.604	4.08
504.804	4.09
505.004	4.06
505.204	4.05
505.404	4.01
505.604	3.99
505.804	4.04
506.005	3.88
506.205	3.71
506.405	3.84
506.605	3.84
506.805	3.86
507.005	3.99
507.204	3.83
507.404	3.89
507.604	3.84
507.804	3.85
508.004	3.63
508.204	3.72
508.404	3.76
508.604	3.74
508.804	3.81
509.003	3.76
509.203	3.87
509.403	3.96
509.603	3.79
509.803	3.82
510.002	3.86
510.202	3.8
510.402	3.96
510.602	3.92
510.801	3.98
511.001	4.24
511.201	4.24
511.4	3.99
511.6	4.02
511.8	4.13
511.999	4.34
512.199	4.23
512.398	4.42
512.598	4.31
512.797	4.34
512.997	4.32
513.197	4.08
513.396	4.09
513.596	4.27
513.795	4.3
513.994	4.43
514.194	4.27
514.393	4.53
514.593	4.42
514.792	4.32
514.992	4.46
515.191	4.41
515.39	4.45
515.59	4.59
515.789	4.45
515.988	4.44
516.188	4.34
516.387	4.31
516.586	4.04
516.786	4.13
516.985	4.28
517.184	4.16
517.383	4.14
517.582	4.1
517.782	3.96
517.981	3.98
518.18	3.97
518.379	4.05
518.578	4.1
518.777	4.24
518.976	4.3
519.176	4.14
519.375	4.08
519.574	4.07
519.773	4.04
519.972	4.16
520.171	4.18
520.37	4.19
520.569	4.2
520.768	4.27
520.967	4.23
521.166	4.11
521.365	4.25
521.564	4.39
521.762	4.4
521.961	4.42
522.16	4.41
522.359	4.5
522.558	4.46
522.757	4.48
522.956	4.33
523.154	4.26
523.353	4.2
523.552	4.2
523.751	4.3
523.949	4.29
524.148	4.37
524.347	4.38
524.546	4.36
524.744	4.4
524.943	4.29
525.142	4.3
525.34	4.38
525.539	4.55
525.737	4.54
525.936	4.44
526.135	4.54
526.333	4.51
526.532	4.5
526.73	4.53
526.929	4.53
527.127	4.55
527.326	4.48
527.524	4.52
527.723	4.46
527.921	4.42
528.12	4.43
528.318	4.39
528.516	4.35
528.715	4.33
528.913	4.31
529.112	4.28
529.31	4.35
529.508	4.39
529.707	4.42
529.905	4.44
530.103	4.45
530.301	4.5
530.5	4.54
530.698	4.69
530.896	4.78
531.094	4.85
531.293	4.95
531.491	4.82
531.689	4.88
531.887	4.87
532.085	4.87
532.283	4.92
532.481	4.89
532.68	4.88
532.878	4.83
533.076	4.74
533.274	4.73
533.472	4.64
533.67	4.7
533.868	4.73
534.066	4.66
534.264	4.59
534.462	4.56
534.66	4.57
534.858	4.57
535.056	4.5
535.253	4.53
535.451	4.52
535.649	4.57
535.847	4.62
536.045	4.76
536.243	4.75
536.441	4.87
536.638	4.89
536.836	4.88
537.034	5
537.232	5.1
537.43	5.14
537.627	5.28
537.825	5.43
538.023	5.4
538.22	5.3
538.418	5.31
538.616	5.39
538.813	5.47
539.011	5.64
539.209	5.58
539.406	5.59
539.604	5.73
539.801	5.54
539.999	5.44
540.196	5.6
540.394	5.64
540.591	5.78
540.789	5.81
540.986	5.79
541.184	5.71
541.381	5.71
541.579	5.71
541.776	5.62
541.974	5.67
542.171	5.8
542.368	5.82
542.566	5.86
542.763	5.84
542.96	5.85
543.158	5.92
543.355	6.02
543.552	6.03
543.75	6.02
543.947	6.12
544.144	6.16
544.341	6.14
544.539	6.16
544.736	6.12
544.933	6.23
545.13	6.23
545.327	6.32
545.524	6.4
545.722	6.55
545.919	6.69
546.116	6.62
546.313	6.72
546.51	6.71
546.707	6.78
546.904	6.9
547.101	7
547.298	6.98
547.495	6.88
547.692	6.77
547.889	6.7
548.086	6.69
548.283	6.96
548.48	7
548.677	7
548.874	7.03
549.07	7.01
549.267	6.89
549.464	6.9
549.661	7.14
549.858	7.3
550.055	7.44
550.251	7.38
550.448	7.29
550.645	7.37
550.842	7.59
551.038	7.45
551.235	7.45
551.432	7.43
551.628	7.58
551.825	7.61
552.022	7.55
552.218	7.57
552.415	7.77
552.612	7.81
552.808	7.8
553.005	7.73
553.201	7.73
553.398	7.76
553.594	7.87
553.791	7.84
553.987	7.86
554.184	7.88
554.38	7.86
554.577	7.72
554.773	7.85
554.97	7.87
555.166	7.93
555.362	8.14
555.559	8.16
555.755	8.1
555.952	8.46
556.148	8.47
556.344	8.54
556.541	8.51
556.737	8.71
556.933	8.62
557.129	8.64
557.326	8.52
557.522	8.55
557.718	8.68
557.914	8.71
558.11	8.69
558.307	8.89
558.503	9.01
558.699	9.05
558.895	9.11
559.091	9.15
559.287	9.15
559.483	9.47
559.679	9.35
559.876	9.36
560.072	9.72
560.268	9.91
560.464	9.87
560.66	10.01
560.856	10.25
561.052	10.2
561.247	10.39
561.443	10.53
561.639	10.57
561.835	10.57
562.031	10.72
562.227	10.55
562.423	10.35
562.619	10.41
562.815	10.45
563.01	10.51
563.206	10.83
563.402	10.9
563.598	10.85
563.793	10.92
563.989	11.27
564.185	11.22
564.381	11.36
564.576	11.42
564.772	11.35
564.968	11.3
565.163	11.45
565.359	11.47
565.555	11.61
565.75	11.6
565.946	11.66
566.141	11.59
566.337	11.57
566.532	11.5
566.728	11.54
566.923	11.64
567.119	11.55
567.314	11.59
567.51	11.61
567.705	11.55
567.901	11.91
568.096	11.85
568.292	11.95
568.487	12.05
568.682	12.34
568.878	12.32
569.073	12.53
569.268	12.83
569.464	12.98
569.659	13.02
569.854	13.04
570.05	12.9
570.245	13.19
570.44	13.16
570.635	13.31
570.831	13.28
571.026	13.5
571.221	13.42
571.416	13.36
571.611	13.24
571.806	13.29
572.002	13.23
572.197	13.38
572.392	13.3
572.587	13.53
572.782	13.63
572.977	13.64
573.172	13.62
573.367	13.6
573.562	13.7
573.757	13.75
573.952	13.62
574.147	13.78
574.342	13.65
574.537	13.69
574.732	13.7
574.927	13.68
575.121	13.79
575.316	13.87
575.511	13.73
575.706	13.72
575.901	13.73
576.096	13.96
576.29	14.09
576.485	14.23
576.68	14.26
576.875	14.25
577.069	14.3
577.264	14.09
577.459	14.03
577.654	14.59
577.848	14.75
578.043	14.97
578.238	14.94
578.432	14.79
578.627	14.95
578.821	15.06
579.016	15.08
579.21	15.06
579.405	15.46
579.6	15.57
579.794	15.3
579.989	15.23
580.183	15.27
580.378	15.22
580.572	15.56
580.766	15.57
580.961	15.43
581.155	15.38
581.35	15.57
581.544	15.43
581.738	15.33
581.933	15.47
582.127	15.43
582.321	15.24
582.516	15.33
582.71	15.02
582.904	14.86
583.099	14.79
583.293	15.11
583.487	14.81
583.681	15.03
583.875	15.2
584.07	15.24
584.264	15.28
584.458	15.46
584.652	15.69
584.846	16.09
585.04	16.23
585.234	16.5
585.428	16.28
585.623	16.41
585.817	16.18
586.011	16.15
586.205	16.17
586.399	16.33
586.593	16.05
586.787	15.98
586.981	15.55
587.174	15.36
587.368	15.39
587.562	15.2
587.756	15.48
587.95	15.41
588.144	15.56
588.338	15.71
588.532	15.9
588.725	16.03
588.919	16.12
589.113	16.11
589.307	16
589.501	15.9
589.694	16.27
589.888	16.12
590.082	16.19
590.275	16.06
590.469	15.97
590.663	15.65
590.856	15.83
591.05	15.75
591.244	15.97
591.437	16.3
591.631	16.55
591.824	16.35
592.018	16.42
592.212	16.58
592.405	16.69
592.599	16.48
592.792	16.52
592.986	16.53
593.179	16.63
593.372	16.59
593.566	16.49
593.759	16.49
593.953	16.76
594.146	16.67
594.339	16.66
594.533	16.57
594.726	16.78
594.92	16.88
595.113	16.71
595.306	16.47
595.499	16.61
595.693	16.68
595.886	16.59
596.079	16.46
596.272	16.67
596.466	16.61
596.659	16.77
596.852	16.81
597.045	16.8
597.238	16.65
597.431	16.72
597.624	16.67
597.818	16.53
598.011	16.49
598.204	16.48
598.397	16.39
598.59	16.4
598.783	16.24
598.976	16.03
599.169	15.94
599.362	16.39
599.555	16.41
599.748	16.32
599.941	16.54
600.134	16.51
600.326	16.52
600.519	16.5
600.712	16.59
600.905	16.85
601.098	17.01
601.291	17.31
601.483	17.28
601.676	17.33
601.869	17.45
602.062	17.34
602.255	17.19
602.447	16.98
602.64	16.93
602.833	17.01
603.025	16.83
603.218	16.75
603.411	16.57
603.603	16.22
603.796	16.34
603.989	16.46
604.181	16.58
604.374	16.88
604.566	16.89
604.759	16.98
604.951	17.06
605.144	17.02
605.336	16.93
605.529	16.93
605.721	17.23
605.914	17.15
606.106	17.04
606.299	17.01
606.491	17.19
606.683	17.38
606.876	17.43
607.068	17.35
607.26	17.34
607.453	17.58
607.645	17.78
607.837	17.44
608.03	17.4
608.222	17.58
608.414	17.65
608.606	17.27
608.799	17.19
608.991	17.08
609.183	17.02
609.375	17.16
609.567	17.05
609.759	16.78
609.952	17.07
610.144	17.18
610.336	17.05
610.528	16.98
610.72	16.9
610.912	17.05
611.104	17.01
611.296	17.02
611.488	17.04
611.68	16.97
611.872	17.26
612.064	17.1
612.256	17.03
612.448	17.02
612.64	16.91
612.832	16.93
613.023	16.67
613.215	16.82
613.407	16.84
613.599	16.9
613.791	17.07
613.983	17.26
614.174	17.24
614.366	17.48
614.558	17.34
614.75	17.47
614.941	17.68
615.133	17.64
615.325	17.44
615.516	17.09
615.708	16.76
615.9	16.86
616.091	16.72
616.283	16.92
616.475	16.47
616.666	16.58
616.858	16.27
617.049	15.93
617.241	16.3
617.432	16.55
617.624	16.86
617.815	17.27
618.007	17.16
618.198	17.02
618.39	17.01
618.581	17.09
618.773	17.22
618.964	17.5
619.155	17.79
619.347	17.53
619.538	17.46
619.729	17.41
619.921	16.86
620.112	16.88
620.303	17.15
620.494	17.02
620.686	17.11
620.877	17.34
621.068	17.03
621.259	17.06
621.451	17.24
621.642	17.13
621.833	17.18
622.024	17.77
622.215	17.54
622.406	17.44
622.597	17.32
622.788	17.4
622.98	16.78
623.171	17.1
623.362	16.96
623.553	17.06
623.744	17.27
623.935	17.1
624.126	16.69
624.317	17
624.508	16.7
624.698	16.91
624.889	16.73
625.08	16.89
625.271	16.73
625.462	16.65
625.653	16.46
625.844	16.19
626.034	16.24
626.225	16.27
626.416	16.23
626.607	16.27
626.798	16.24
626.988	16.35
627.179	16.41
627.37	16.52
627.56	16.67
627.751	16.72
627.942	16.89
628.132	16.94
628.323	17.1
628.514	17.05
628.704	17.28
628.895	17.36
629.085	17.3
629.276	17.56
629.466	17.4
629.657	17.47
629.847	17.69
630.038	17.65
630.228	17.49
630.419	17.38
630.609	17.38
630.8	17.29
630.99	17.42
631.181	17.39
631.371	17.27
631.561	17.73
631.752	17.69
631.942	17.58
632.132	17.29
632.323	17.81
632.513	17.83
632.703	18.14
632.893	18.01
633.084	17.74
633.274	17.94
633.464	17.82
633.654	17.33
633.844	17.2
634.034	16.98
634.225	17.31
634.415	17.05
634.605	17.08
634.795	17.16
634.985	17.25
635.175	16.93
635.365	16.72
635.555	16.85
635.745	17.1
635.935	17.23
636.125	17.46
636.315	17.43
636.505	17.36
636.695	17.46
636.885	17.42
637.075	17.44
637.265	17.87
637.455	17.9
637.644	18.04
637.834	18.1
638.024	17.88
638.214	17.74
638.404	17.84
638.593	18.16
638.783	18.14
638.973	17.87
639.163	18.04
639.352	17.93
639.542	18.03
639.732	18.02
639.921	18.12
640.111	18.17
640.301	18.35
640.49	18.26
640.68	18.16
640.87	18.33
641.059	18.18
641.249	17.77
641.438	17.61
641.628	17.86
641.817	17.69
642.007	17.33
642.196	17.82
642.386	17.62
642.575	17.85
642.764	17.64
642.954	17.64
643.143	17.8
643.333	17.98
643.522	18.24
643.711	18.02
643.901	18
644.09	18.05
644.279	17.91
644.469	17.81
644.658	17.75
644.847	17.87
645.036	17.48
645.226	17.57
645.415	17.81
645.604	18.11
645.793	18.17
645.982	18.33
646.171	18.79
646.361	18.75
646.55	18.79
646.739	18.75
646.928	19.19
647.117	19.4
647.306	19.33
647.495	18.82
647.684	18.74
647.873	18.71
648.062	18.6
648.251	18.72
648.44	18.8
648.629	18.8
648.818	18.89
649.007	18.64
649.196	18.81
649.384	19.1
649.573	19.61
649.762	19.99
649.951	20.09
650.14	19.95
650.328	19.28
650.517	19.02
650.706	19.27
650.895	19.29
651.083	19.07
651.272	18.95
651.461	18.57
651.65	18.68
651.838	18.56
652.027	18.41
652.216	18.28
652.404	18.6
652.593	18.58
652.781	18.71
652.97	18.3
653.158	18.51
653.347	18.42
653.535	18.34
653.724	17.95
653.912	17.88
654.101	17.6
654.289	17.81
654.478	17.54
654.666	17.53
654.855	17.32
655.043	17.36
655.231	17.05
655.42	17.58
655.608	17.94
655.796	17.93
655.985	17.59
656.173	18.04
656.361	18.19
656.55	18.52
656.738	18.87
656.926	18.64
657.114	18.7
657.302	18.93
657.491	18.65
657.679	18.42
657.867	18.24
658.055	17.99
658.243	17.62
658.431	17.7
658.619	17.69
658.807	17.34
658.996	17.58
659.184	17.36
659.372	17.17
659.56	17.03
659.748	17.37
659.936	17.58
660.124	17.66
660.311	18.11
660.499	17.7
660.687	17.47
660.875	17.72
661.063	18.13
661.251	18.71
661.439	19.04
661.627	18.97
661.814	18.61
662.002	18.54
662.19	18.91
662.378	18.73
662.565	18.95
662.753	19.17
662.941	19.11
663.129	18.62
663.316	18.26
663.504	18.28
663.692	18.2
663.879	18.55
664.067	18.6
664.254	18.1
664.442	18.1
664.63	18.38
664.817	18.13
665.005	17.78
665.192	17.48
665.38	18.23
665.567	17.65
665.755	17.94
665.942	17.92
666.13	17.74
666.317	17.95
666.504	18.04
666.692	17.86
666.879	18.14
667.067	18.41
667.254	18.95
667.441	18.08
667.629	18.36
667.816	18.29
668.003	18.09
668.19	18.34
668.378	18.28
668.565	17.79
668.752	17.94
668.939	17.38
669.127	17.5
669.314	17.15
669.501	17.4
669.688	17.47
669.875	17.07
670.062	17.07
670.249	16.69
670.436	16.6
670.623	17.26
670.81	16.91
670.997	17.26
671.184	16.85
671.371	17.1
671.558	16.85
671.745	16.86
671.932	17.38
672.119	17.25
672.306	18.01
672.493	18.11
672.68	17.42
672.867	17.79
673.054	17.6
673.24	18.07
673.427	18.23
673.614	18.45
673.801	18.27
673.988	17.74
674.174	18.15
674.361	17.84
674.548	18.22
674.734	18.88
674.921	18.78
675.108	19.27
675.294	19.19
675.481	19
675.668	18.97
675.854	18.97
676.041	19.32
676.227	19.02
676.414	19.33
676.601	19.17
676.787	19.05
676.974	18.99
677.16	19.4
677.347	19.92
677.533	19.93
677.719	19.66
677.906	19.8
678.092	20.04
678.279	19.83
678.465	19.6
678.651	19.61
678.838	18.92
679.024	19.1
679.21	18.81
679.397	17.79
679.583	17.46
679.769	17.6
679.955	17.25
680.142	16.62
680.328	16.89
680.514	16.8
680.7	16.53
680.886	16.97
681.073	16.66
681.259	16.74
681.445	17.67
681.631	17.9
681.817	17.89
682.003	18.43
682.189	18.77
682.375	18.81
682.561	18.86
682.747	18.98
682.933	19.03
683.119	19.3
683.305	18.75
683.491	18.27
683.677	18.06
683.863	18.33
684.049	18.5
684.235	19.08
684.42	18.76
684.606	18.53
684.792	18.63
684.978	18.5
685.164	18
685.349	18.47
685.535	19
685.721	19.06
685.907	18.65
686.092	18.4
686.278	17.89
686.464	18.13
686.649	18.49
686.835	18.99
687.021	19.59
687.206	19.5
687.392	18.9
687.577	18.67
687.763	19.02
687.948	18.88
688.134	18.45
688.319	18.66
688.505	18.73
688.69	18.48
688.876	17.86
689.061	17.39
689.247	18.19
689.432	18.63
689.618	18.34
689.803	18.4
689.988	18.81
690.174	19.07
690.359	18.62
690.544	18.47
690.73	18.51
690.915	18.48
691.1	18.35
691.285	18.34
691.471	18.08
691.656	18.15
691.841	17.4
692.026	17.09
692.211	17.15
692.396	17.79
692.582	17.91
692.767	18.33
692.952	18.26
693.137	18.34
693.322	18.25
693.507	18.2
693.692	18.23
693.877	19.16
694.062	19.73
694.247	19.98
694.432	20.18
694.617	20.03
694.802	19.14
694.987	19.32
695.172	19.46
695.357	19.33
695.541	20.02
695.726	20.32
695.911	20.04
696.096	20.1
696.281	20.17
696.466	19.15
696.65	19.13
696.835	19.18
697.02	19.59
697.204	19.27
697.389	19.53
697.574	19.47
697.759	19.08
697.943	19.54
698.128	19.18
698.312	19.23
698.497	19.31
698.682	19.58
698.866	19.49
699.051	19.2
699.235	19.19
699.42	18.65
699.604	18.35
699.789	18.37
699.973	17.64
700.158	17.95
700.342	17.73
700.527	18.13
700.711	17.76
700.895	18.12
701.08	18.69
701.264	19.29
701.448	19.65
701.633	20.15
701.817	20.57
702.001	21.04
702.186	20.64
702.37	19.64
702.554	19.4
702.738	19.29
702.923	19.95
703.107	19.9
703.291	19.23
703.475	19.36
703.659	19.1
703.843	18.25
704.027	17.56
704.212	18.03
704.396	19
704.58	18.76
704.764	19.98
704.948	18.35
705.132	17.98
705.316	18.25
705.5	17.91
705.684	17.9
705.868	19.28
706.052	19.82
706.235	20.16
706.419	20.2
706.603	20.73
706.787	20.42
706.971	21.39
707.155	20.48
707.339	20.23
707.522	20.26
707.706	20.39
707.89	19.4
708.074	18.91
708.257	17.94
708.441	18
708.625	17.71
708.808	16.54
708.992	16.59
709.176	16.74
709.359	16.45
709.543	16.72
709.727	16.18
709.91	16.07
710.094	16.74
710.277	16.41
710.461	16.55
710.644	16.53
710.828	16.63
711.011	16.56
711.195	16.6
711.378	17.08
711.562	16.8
711.745	17.02
711.928	17.59
712.112	16.85
712.295	17.69
712.478	17.55
712.662	17.65
712.845	18.76
713.028	19.31
713.212	20
713.395	19.95
713.578	20.35
713.761	21.32
713.945	21.16
714.128	21.54
714.311	21.59
714.494	21.25
714.677	21.91
714.86	22.18
715.043	21.68
715.227	21.06
715.41	21.67
715.593	22.21
715.776	21.75
715.959	21.9
716.142	22.22
716.325	21.58
716.508	21.56
716.691	22.02
716.874	21.02
717.057	20.38
717.239	21.47
717.422	21.73
717.605	20.78
717.788	21.67
717.971	20.77
718.154	20.4
718.337	21.24
718.519	21.92
718.702	20.4
718.885	20.36
719.068	21.29
719.25	19.94
719.433	19.58
719.616	19.31
719.798	17.71
719.981	18.68
720.164	19.58
720.346	19.74
720.529	18.99
720.712	19.27
720.894	19.53
721.077	18.96
721.259	19.24
721.442	19.04
721.624	20.43
721.807	21.46
721.989	21.3
722.172	21.1
722.354	20.16
722.537	21.39
722.719	21.91
722.901	22.39
723.084	23.26
723.266	23.22
723.448	22.96
723.631	23.15
723.813	22.65
723.995	22.03
724.178	21.12
724.36	21.3
724.542	21.27
724.724	21.17
724.907	21.1
725.089	21.66
725.271	21.82
725.453	21.44
725.635	20.98
725.817	21.12
725.999	22.16
726.181	22.13
726.364	22.19
726.546	21.27
726.728	20.65
726.91	20.03
727.092	19.22
727.274	19.07
727.456	19.42
727.638	19.53
727.819	19.77
728.001	19.78
728.183	20.48
728.365	20.05
728.547	20.18
728.729	20.63
728.911	21.27
729.093	22.16
729.274	23.06
729.456	23.2
729.638	22.84
729.82	22.21
730.001	21.81
730.183	21.89
730.365	22.06
730.546	22.59
730.728	22.38
730.91	21.87
731.091	20.57
731.273	19.04
731.455	18.24
731.636	17.41
731.818	17.54
731.999	17.35
732.181	17.82
732.362	18.93
732.544	18
732.725	17.63
732.907	18.36
733.088	18.59
733.27	19.37
733.451	19.16
733.633	19.71
733.814	19.79
733.995	19.88
734.177	19.84
734.358	18.87
734.539	19.58
734.721	20.52
734.902	19.21
735.083	19.57
735.264	20.06
735.446	21.07
735.627	21.66
735.808	21.13
735.989	20.78
736.17	19.18
736.351	20.23
736.533	20.37
736.714	19.71
736.895	19.54
737.076	19.76
737.257	19.34
737.438	19.05
737.619	18.73
737.8	18.9
737.981	18.69
738.162	19.1
738.343	18.03
738.524	18.2
738.705	19.08
738.886	20.79
739.067	20.11
739.247	19.89
739.428	19.96
739.609	20
739.79	19.23
739.971	20.47
740.151	21.42
740.332	21.76
740.513	21.03
740.694	20.46
740.874	18.25
741.055	18.51
741.236	19.53
741.417	21.07
741.597	21.49
741.778	23.25
741.958	22.32
742.139	22.11
742.32	22.24
742.5	20.86
742.681	21.47
742.861	23.42
743.042	22.63
743.222	22.59
743.403	21.07
743.583	21.54
743.764	20.83
743.944	21.21
744.124	21.39
744.305	20.29
744.485	22.81
744.666	22.58
744.846	20.9
745.026	20.57
745.207	20.35
745.387	20.37
745.567	18.59
745.747	18.72
745.928	18.51
746.108	18.55
746.288	19.28
746.468	18.75
746.648	18.41
746.829	19.8
747.009	20.34
747.189	20.05
747.369	20.13
747.549	21.49
747.729	21.44
747.909	20.85
748.089	19.58
748.269	20.09
748.449	20.73
748.629	21.37
748.809	20.62
748.989	21.71
749.169	21.41
749.349	21.14
749.529	20.43
749.709	20.71
749.889	21.25
750.068	21.99
750.248	22.48
750.428	22.33
750.608	21.57
750.788	21.95
750.967	21.53
751.147	21.72
751.327	22.04
751.507	22.81
751.686	21.73
751.866	23.79
752.046	23.44
752.225	23.38
752.405	23.17
752.585	23.52
752.764	22.97
752.944	22.2
753.123	21.79
753.303	21.97
753.482	21.81
753.662	23.27
753.841	21.08
754.021	22.34
754.2	22.24
754.38	22.1
754.559	20.93
754.739	21.22
754.918	21.59
755.097	22.17
755.277	21.88
755.456	22.84
755.635	21.48
755.815	21.42
755.994	20.11
756.173	20.19
756.352	19.36
756.532	20.68
756.711	21.47
756.89	23.19
757.069	24.8
757.248	25.09
757.427	23.85
757.607	24.29
757.786	24.83
757.965	26
758.144	24.87
758.323	27.17
758.502	26.02
758.681	26.87
758.86	25.88
759.039	24.13
759.218	24.67
759.397	25.48
759.576	25.56
759.755	25.8
759.934	25.35
760.113	26.41
760.291	25.41
760.47	27.1
760.649	26.35
760.828	27.08
761.007	27.94
761.186	27.44
761.364	27.15
761.543	27.47
761.722	27.06
761.901	26.78
762.079	26.56
762.258	25.69
762.437	24.54
762.615	24.69
762.794	23.91
762.972	22.52
763.151	22.44
763.33	21.99
763.508	21.85
763.687	21.8
763.865	21.56
764.044	20.26
764.222	20.38
764.401	20.79
764.579	20.74
764.758	20.95
764.936	21.82
765.114	21.96
765.293	22.51
765.471	22.57
765.65	23.39
765.828	23.63
766.006	24.36
766.184	24.45
766.363	23.99
766.541	23.05
766.719	22.89
766.898	22.47
767.076	20.86
767.254	19.35
767.432	17.86
767.61	16.84
767.788	17.26
767.967	17.14
768.145	17.66
768.323	17.92
768.501	19.04
768.679	19.03
768.857	19.97
769.035	22.96
769.213	23.61
769.391	24.68
769.569	24.99
769.747	24.71
769.925	26.15
770.103	25.86
770.281	24.93
770.459	25.46
770.636	26.05
770.814	25.24
770.992	25.62
771.17	26.22
771.348	27.14
771.525	27.51
771.703	25.76
771.881	27.73
772.059	28.1
772.236	29.56
772.414	27.19
772.592	26.26
772.769	24.66
772.947	22.25
773.125	21.35
773.302	19.96
773.48	19.92
773.657	20
773.835	18.18
774.013	18.46
774.19	18.49
774.368	20.74
774.545	21.64
774.723	24.07
774.9	24.91
775.077	24.13
775.255	24.05
775.432	24.24
775.61	26.63
775.787	26.64
775.964	23.53
776.142	22.22
776.319	23.34
776.496	23.29
776.674	22.74
776.851	23.4
777.028	24.43
777.205	23.73
777.382	22.09
777.56	21.33
777.737	20.06
777.914	23.22
778.091	23.19
778.268	22.35
778.445	22.98
778.622	21.45
778.8	19.03
778.977	17.67
779.154	18.82
779.331	20.79
779.508	20.12
779.685	20.79
779.862	20.01
780.038	22.83
780.215	21.26
780.392	18.93
780.569	20.16
780.746	19.1
780.923	22.32
781.1	24.17
781.277	24.71
781.453	25.84
781.63	25.04
781.807	25.45
781.984	23.7
782.16	25.24
782.337	27.06
782.514	27.42
782.691	28.74
782.867	26.93
783.044	25.1
783.221	22.71
783.397	19.37
783.574	17.78
783.75	19.29
783.927	18.45
784.103	18.16
784.28	20.16
784.456	22.9
784.633	26.77
784.809	26.4
784.986	26.56
785.162	28.41
785.339	30.47
785.515	33.47
785.692	30.52
785.868	31.06
786.044	29.54
786.221	29.48
786.397	25.96
786.573	25.32
786.749	27.08
786.926	28.38
787.102	28.4
787.278	29.32
787.454	28.99
787.631	30.09
787.807	28.54
787.983	28.57
788.159	26.75
788.335	27.73
788.511	27.05
788.687	26.18
788.863	24.7
789.039	26.71
789.216	28.25
789.392	30.04
789.568	31.76
789.744	31.8
789.919	32.72
790.095	32.48
790.271	32.65
790.447	33.24
790.623	32.64
790.799	32.25
790.975	31.32
791.151	26.42
791.327	23.98
791.502	21.42
791.678	23.52
791.854	20.77
792.03	20.19
792.205	17.5
792.381	15.16
792.557	18.61
792.733	20.69
792.908	19.1
793.084	20.72
793.259	22.4
793.435	23.26
793.611	22.79
793.786	25.46
793.962	24.04
794.137	25.49
794.313	28.04
794.488	29.77
794.664	30.49
794.839	29
795.015	32.4
795.19	32.15
795.366	29.74
795.541	28.11
795.716	27.86
795.892	30.6
796.067	31.28
796.242	28.21
796.418	24.7
796.593	24.7
796.768	24.78
796.944	25.73
797.119	25.68
797.294	27.27
797.469	30.09
797.644	30.61
797.82	28.76
797.995	29.14
798.17	28.52
798.345	30.66
798.52	29.99
798.695	28.85
798.87	28.12
799.045	26.71
799.22	26.89
799.395	23.82
799.57	23.31
799.745	27.39
799.92	27.79
800.095	30.56
800.27	29.3
800.445	29.59
800.62	32.78
800.795	29.8
800.97	30.62
801.145	33.24
801.319	34.8
801.494	35.38
801.669	32.82
801.844	29.93
802.018	31.26
802.193	32.65
802.368	31.06
802.543	26.79
802.717	30.32
802.892	28.57
803.067	29.15
803.241	28.96
803.416	28.63
803.59	26.89
803.765	28.24
803.94	26.86
804.114	26.73
804.289	25.12
804.463	27.26
804.638	22.8
804.812	23.93
804.986	19.04
805.161	21.46
805.335	21
805.51	24
805.684	22.87
805.858	23.19
806.033	20.3
806.207	20.16
806.381	22.76
806.556	23.85
806.73	28
806.904	31.58
807.078	31.55
807.253	31.95
807.427	31.69
807.601	29.05
807.775	31.15
807.949	31
808.123	32.12
808.298	29.12
808.472	29.5
808.646	24.52
808.82	20.94
808.994	18.31
809.168	23.95
809.342	20.54
809.516	25.62
809.69	19.79
809.864	18.72
810.038	17.49
810.212	18.17
810.385	21.68
810.559	25.01
810.733	28.6
810.907	26.16
811.081	24.25
811.255	26.39
811.428	28.25
811.602	28.88
811.776	31.66
811.95	34.95
812.123	34.18
812.297	33.56
812.471	33.02
812.644	31.94
812.818	37.06
812.992	33.64
813.165	33.62
813.339	31.11
813.512	33.26
813.686	29.93
813.86	27.43
814.033	29.12
814.207	25.6
814.38	28.05
814.554	26.89
814.727	23.34
814.9	25.19
815.074	23.33
815.247	23.64
815.421	23.3
815.594	23.24
815.767	28.08
815.941	30.49
816.114	30.4
816.287	27.62
816.46	26.54
816.634	26.99
816.807	25.71
816.98	27.63
817.153	30.83
817.327	29.11
817.5	26.28
817.673	22.47
817.846	21.01
818.019	19.6
818.192	21.41
818.365	22.3
818.538	21.92
818.711	18.54
818.884	19.99
819.057	18.71
819.23	19.91
819.403	23.73
819.576	24.46
819.749	23.89
819.922	25.02
820.095	24.2
820.268	24.63
820.441	23.89
820.614	25
820.786	23.89
820.959	24.69
821.132	25.12
821.305	24.51
821.477	24.51
821.65	21.86
821.823	22.41
821.996	21.81
822.168	21.58
822.341	21.56
822.514	20.32
822.686	20.53
822.859	20.09
823.031	19.92
823.204	20.12
823.376	20.43
823.549	21.55
823.722	22.01
823.894	22.03
824.067	22.1
824.239	22.33
824.411	23.77
824.584	23.84
824.756	24.44
824.929	24.99
825.101	25.35
825.273	24.8
825.446	26.71
825.618	26.32
825.79	25.81
825.963	26.74
826.135	27.16
826.307	27.72
826.479	27.95
826.652	27.04
826.824	26.7
826.996	27.01
827.168	26.72
827.34	24.25
827.512	23.64
827.684	24.92
827.856	24.25
828.029	23.98
828.201	23.14
828.373	23.73
828.545	23.69
828.717	22.9
828.889	20.87
829.061	22.46
829.232	22.41
829.404	21.47
829.576	23.11
829.748	21.34
829.92	21.24
830.092	23.46
830.264	22.11
830.436	22.32
830.607	24.16
830.779	26.62
830.951	26.25
831.123	26.15
831.294	27.47
831.466	25.61
831.638	24.04
831.809	26.05
831.981	22.54
832.153	28.99
832.324	29.24
832.496	28.89
832.667	22.32
832.839	19.15
833.011	25.1
833.182	29.8
833.354	28.52
833.525	32.78
833.697	33.23
833.868	32.82
834.039	28.09
834.211	28.86
834.382	29.39
834.554	31.39
834.725	31.85
834.896	28.03
835.068	27.51
835.239	27.5
835.41	26.06
835.581	23.23
835.753	26.4
835.924	25.31
836.095	23.82
836.266	24.48
836.438	25.75
836.609	25.85
836.78	29.79
836.951	26.11
837.122	28.19
837.293	28.45
837.464	32.22
837.635	28.77
837.806	30.16
837.977	33.27
838.148	33.52
838.319	27.84
838.49	27.44
838.661	25.92
838.832	30.23
839.003	22.76
839.174	25.59
839.345	17.77
839.516	18.79
839.687	21.51
839.857	17.09
840.028	16.85
840.199	28.24
840.37	28.87
840.54	26.56
840.711	24.27
840.882	30.42
841.053	25.79
841.223	32.28
841.394	31.95
841.564	31.72
841.735	35.53
841.906	34.36
842.076	34.43
842.247	34.5
842.417	36.95
842.588	36.23
842.758	35.87
842.929	38.99
843.099	38.15
843.27	34.71
843.44	31.68
843.611	31.17
843.781	34.85
843.951	29.92
844.122	34.45
844.292	22.87
844.462	28.87
844.633	39.35
844.803	38.3
844.973	38.91
845.144	44.31
845.314	56.85
845.484	49.38
845.654	39.63
845.824	46.33
845.995	47.02
846.165	53.62
846.335	47.14
846.505	47.43
846.675	45.05
846.845	38.95
847.015	36.81
847.185	33.22
847.355	37.42
847.525	44.32
847.695	40.09
847.865	38.16
848.035	43.58
848.205	58.46
848.375	46.46
848.545	64.82
848.715	62.42
848.884	53.26
849.054	53.35
849.224	50.84
849.394	36.29
849.564	31.93
849.733	23.57
849.903	9.97
850.073	-29.72
850.243	-32.04
850.412	-53.58
850.582	-21.61
850.752	34.03
850.921	41.87
851.091	51.77
851.26	60.68
851.43	63.89
851.599	65.48
851.769	57.53
851.939	62.47
852.108	62.2
852.278	56.47
852.447	58.48
852.616	47.99
852.786	47.66
852.955	47.15
853.125	39.4
853.294	36.36
853.463	40.49
853.633	40.34
853.802	61
853.971	72.54
854.141	95.29
854.31	84.06
854.479	74.69
854.648	60.51
854.818	57.99
854.987	69.15
855.156	67.47
855.325	74.29
855.494	74.49
855.663	46.75
855.832	39.69
856.001	35.08
856.171	49.55
856.34	57.4
856.509	56.37
856.678	53.68
856.847	54.75
857.016	54.47
857.185	57.53
857.353	70.39
857.522	76.91
857.691	73.19
857.86	77.62
858.029	73.84
858.198	69.55
858.367	67.64
858.535	71.92
858.704	76.13
858.873	89.92
859.042	71.93
859.21	56.69
859.379	48.43
859.548	48.52
859.717	40.38
859.885	31.23
860.054	36.52
860.222	51.35
860.391	54.42
860.56	44.38
860.728	42.37
860.897	55.18
861.065	62.96
861.234	68.23
861.402	69.55
861.571	83.46
861.739	95.53
861.908	114.62
862.076	117.22
862.244	105.67
862.413	115.39
862.581	156
862.749	130.68
862.918	123.67
863.086	121.21
863.254	118.38
863.423	127.67
863.591	133.04
863.759	112.66
863.927	125.98
864.096	161.97
864.264	167.68
864.432	128.05
864.6	151.36
864.768	164.32
864.936	169.31
865.104	137.27
865.272	100
865.44	93.68
865.608	79.97
865.776	73.63
865.944	59.65
866.112	54.59
866.28	62.93
866.448	55.88
866.616	57.84
866.784	65.03
866.952	72.6
867.12	79.5
867.288	81.75
867.455	75.46
867.623	60.84
867.791	68.38
867.959	62.65
868.127	55.37
868.294	59.54
868.462	64.59
868.63	53.53
868.797	30.85
868.965	38.02
869.133	34.19
869.3	48.91
869.468	49.79
869.636	55.95
869.803	63.37
869.971	66.28
870.138	70.15
870.306	69
870.473	83.36
870.641	97.93
870.808	87.94
870.975	87.64
871.143	88.2
871.31	87.59
871.478	106.44
871.645	114.61
871.812	128.64
871.98	81.29
872.147	79.39
872.314	59.47
872.482	53.58
872.649	55.91
872.816	56.28
872.983	73.1
873.15	83.01
873.318	56.32
873.485	39.12
873.652	39.43
873.819	63.12
873.986	65.1
874.153	59.84
874.32	64.87
874.487	64.51
874.654	74.85
874.821	49.71
874.988	20.42
875.155	34.21
875.322	31.68
875.489	29.69
875.656	8.26
875.823	-24.15
875.99	0.1
876.157	3.61
876.324	12.05
876.49	5.64
876.657	9.07
876.824	27.83
876.991	27.86
877.157	42.16
877.324	55.84
877.491	69.97
877.658	97.26
877.824	102.51
877.991	106.71
878.157	103.22
878.324	106.04
878.491	99.78
878.657	79.85
878.824	65.54
878.99	62.24
879.157	49.45
879.323	35.14
879.49	1.02
879.656	-2.71
879.823	-26.48
879.989	31
880.156	19.61
880.322	81.09
880.488	122.02
880.655	132.92
880.821	126.62
880.987	138.34
881.154	88.48
881.32	73.02
881.486	60.53
881.652	61.43
881.819	51.46
881.985	47.59
882.151	33.05
882.317	33.74
882.483	31.44
882.649	31.5
882.816	30.5
882.982	29.37
883.148	29.19
883.314	27.1
883.48	22.9
883.646	20.07
883.812	20.83
883.978	19.14
884.144	13.98
884.31	15.5
884.476	12.98
884.642	14.6
884.807	15.87
884.973	17.75
885.139	20.95
885.305	23.58
885.471	23.25
885.637	23.15
885.802	26.34
885.968	30.36
886.134	30.78
886.3	31.54
886.465	30.22
886.631	29.12
886.797	27.68
886.962	25.57
887.128	30.13
887.293	32.25
887.459	26.42
887.625	29.15
887.79	33.15
887.956	23.26
888.121	30.5
888.287	31.91
888.452	38.85
888.618	36.12
888.783	26.41
