Data from 2938113_Reflection_3.txt Node
Date: Sat Jul 11 18:19:36 EDT 2015
User: robert
Spectrometer: USB4E03001
Autoset integration time: false
Trigger mode: 4
Integration Time (sec): 1.000000E-1
Scans to average: 10
Electric dark correction enabled: true
Nonlinearity correction enabled: false
Boxcar width: 5
Stray light correction enabled: false
XAxis mode: Wavelengths
Stop averaging: false
Number of Pixels in Spectrum: 3648
>>>>>Begin Spectral Data<<<<<
177.566	53.48
177.785	157.81
178.005	-71.71
178.225	74.84
178.445	262.95
178.665	-7387.1
178.885	-314.13
179.105	22.56
179.324	39.09
179.544	75.41
179.764	289.69
179.984	312.4
180.204	-75.67
180.423	48.76
180.643	51.33
180.863	64.75
181.083	80.04
181.302	49.12
181.522	52.41
181.742	16.5
181.961	-303.79
182.181	285.68
182.401	264.42
182.621	258
182.84	196.48
183.06	247.86
183.279	180.35
183.499	222.23
183.719	135.04
183.938	237.84
184.158	289.4
184.377	198.89
184.597	278.74
184.816	146.94
185.036	49.91
185.256	77.65
185.475	56.68
185.695	52.43
185.914	-42.26
186.134	-143.63
186.353	-76.82
186.572	-425.47
186.792	364.47
187.011	245.07
187.231	161.42
187.45	131.15
187.67	262.14
187.889	268.43
188.108	328.65
188.328	222.64
188.547	289.44
188.766	314.84
188.986	-856.69
189.205	-19.06
189.424	-10.88
189.644	-0.61
189.863	-51.48
190.082	49.88
190.302	36.31
190.521	-51.7
190.74	-145.76
190.959	-1002
191.178	-16766.67
191.398	-1526.2
191.617	225.23
191.836	277.28
192.055	305.56
192.274	474.14
192.494	-273.31
192.713	-327.44
192.932	-270.74
193.151	-5665.96
193.37	51440
193.589	-231.94
193.808	-385.64
194.027	-150.62
194.246	-220.04
194.465	-132.18
194.685	-297.79
194.904	-414.18
195.123	-388.42
195.342	-124.52
195.561	-51.6
195.78	-21.14
195.999	-23.89
196.218	-38.18
196.436	-24.62
196.655	-28.06
196.874	-5.29
197.093	16.45
197.312	16.6
197.531	25.49
197.75	7.53
197.969	-19.44
198.188	-10.38
198.407	24.5
198.625	55.71
198.844	55.18
199.063	146.43
199.282	868.81
199.501	-16.52
199.719	-2223.29
199.938	688
200.157	262.47
200.376	-72.95
200.594	-379.07
200.813	-691.48
201.032	-99.72
201.251	7.55
201.469	-15.63
201.688	-9.18
201.907	-11.24
202.125	-32.66
202.344	-4.46
202.563	40.75
202.781	20.14
203	56.65
203.218	30.52
203.437	32.51
203.656	-225.5
203.874	-79.54
204.093	-12.61
204.311	-11.62
204.53	52.43
204.748	57.38
204.967	38.65
205.185	30.76
205.404	25.95
205.622	39.86
205.841	78.68
206.059	79.72
206.278	30.04
206.496	40.25
206.715	33.86
206.933	44.51
207.151	255.65
207.37	335.59
207.588	198.26
207.806	233.76
208.025	339.7
208.243	-384.78
208.461	-561.37
208.68	-469.09
208.898	1566.13
209.116	1076.68
209.335	391.25
209.553	-420.73
209.771	-1105.43
209.989	-673.29
210.208	-1121.62
210.426	3392
210.644	559.88
210.862	360.77
211.081	172.07
211.299	206.27
211.517	110.36
211.735	149.28
211.953	142.68
212.171	82.85
212.39	93.7
212.608	85.94
212.826	119.91
213.044	114.33
213.262	117.88
213.48	109.03
213.698	70.15
213.916	133.78
214.134	101.06
214.352	86.4
214.57	126.02
214.788	338.57
215.006	3254.13
215.224	16888.89
215.442	879.49
215.66	2598.36
215.878	236.72
216.096	382.72
216.314	-621.58
216.532	-3178.57
216.75	445.92
216.968	783.03
217.185	679.3
217.403	309.19
217.621	163.38
217.839	161.8
218.057	140.14
218.275	-662.63
218.492	-103.35
218.71	-60.17
218.928	14.17
219.146	56.94
219.363	56.9
219.581	38.52
219.799	22.23
220.017	30.34
220.234	38.74
220.452	15.18
220.67	2.26
220.887	11.89
221.105	13.33
221.323	4.42
221.54	-16.26
221.758	-23.02
221.976	-7.46
222.193	4.15
222.411	0.02
222.629	6.46
222.846	10.32
223.064	17.5
223.281	-0.21
223.499	1.16
223.716	15.65
223.934	10.79
224.151	16.36
224.369	9.38
224.586	-1.79
224.804	-15.92
225.021	-33.67
225.239	-38.57
225.456	-49.76
225.674	-38.04
225.891	-60.6
226.108	-50.42
226.326	-42.22
226.543	-75.81
226.76	-44.22
226.978	-26.49
227.195	-3.84
227.413	10.32
227.63	1.56
227.847	-0.81
228.064	-2.2
228.282	-1.46
228.499	-4.1
228.716	0.92
228.934	6.38
229.151	8.16
229.368	11.49
229.585	10.7
229.802	9.29
230.02	15.65
230.237	18.49
230.454	19.74
230.671	23.18
230.888	21.8
231.105	20.44
231.323	17.33
231.54	16.19
231.757	7.03
231.974	1.94
232.191	-0.07
232.408	-7.63
232.625	-3.63
232.842	0.47
233.059	0.86
233.276	11.18
233.493	13.44
233.71	14.56
233.927	7.4
234.144	14.72
234.361	17.54
234.578	16.74
234.795	16.47
235.012	12.01
235.229	4.21
235.446	2.39
235.663	-3.1
235.879	-0.94
236.096	3.85
236.313	12.34
236.53	9.43
236.747	9.26
236.964	17.57
237.181	12.27
237.397	10.38
237.614	7.6
237.831	-2.02
238.048	-8.81
238.264	-18.57
238.481	-26.6
238.698	-29.98
238.915	-34.76
239.131	-25.17
239.348	-29.27
239.565	-22.33
239.781	-11.97
239.998	-9.88
240.215	2.32
240.431	7.56
240.648	10.75
240.865	14.81
241.081	13.39
241.298	16.78
241.514	14.12
241.731	12.19
241.947	15.86
242.164	15.13
242.38	15.27
242.597	12.24
242.814	10.69
243.03	8.83
243.246	5.07
243.463	6.11
243.679	5.23
243.896	3.67
244.112	6.09
244.329	1.87
244.545	0.16
244.762	0.99
244.978	3.67
245.194	5.37
245.411	8.79
245.627	13.05
245.843	12.96
246.06	12.64
246.276	12.91
246.492	12
246.709	11.05
246.925	11.45
247.141	12.39
247.357	12.34
247.574	12.42
247.79	11.52
248.006	10.53
248.222	10.94
248.439	11.76
248.655	11.31
248.871	10.75
249.087	11.08
249.303	9.94
249.519	6.61
249.736	5.74
249.952	3.39
250.168	4.07
250.384	3.07
250.6	0.56
250.816	-2.28
251.032	-2.5
251.248	-3.48
251.464	-2.08
251.68	2.07
251.896	6.39
252.112	7.81
252.328	8.28
252.544	8
252.76	7.04
252.976	8.29
253.192	11.28
253.408	13.07
253.624	13.7
253.84	11.55
254.056	9.6
254.272	11.18
254.487	12.9
254.703	15.07
254.919	14.01
255.135	15.77
255.351	15.03
255.567	14.97
255.782	10.55
255.998	4.69
256.214	6.71
256.43	5.24
256.646	1.66
256.861	-1.19
257.077	-0.51
257.293	-4.65
257.508	-5.09
257.724	-5.89
257.94	-5.6
258.155	-3.87
258.371	0.51
258.587	2.28
258.802	3.08
259.018	6.06
259.234	6.5
259.449	7.36
259.665	9.25
259.88	9.92
260.096	10.9
260.312	10.08
260.527	11.5
260.743	12.79
260.958	12.64
261.174	13.05
261.389	11.19
261.605	10.58
261.82	10.05
262.036	9.69
262.251	8.82
262.466	6.61
262.682	4.8
262.897	3.55
263.113	0.79
263.328	-1.24
263.543	1.29
263.759	2.38
263.974	4.83
264.189	3.58
264.405	1.36
264.62	5.56
264.835	5.55
265.051	11.23
265.266	11.32
265.481	12.38
265.696	12.32
265.912	8.96
266.127	8.97
266.342	7.36
266.557	10.02
266.773	12.45
266.988	8.31
267.203	10.48
267.418	6.52
267.633	6.85
267.848	6.45
268.064	5.82
268.279	6.47
268.494	5.22
268.709	5.06
268.924	2.98
269.139	3.84
269.354	5.33
269.569	3.38
269.784	6.94
269.999	5.51
270.214	4.97
270.429	6.17
270.644	6.07
270.859	7.07
271.074	7.62
271.289	8.13
271.504	5.67
271.719	5.86
271.934	6.2
272.149	2.81
272.363	5.42
272.578	6.63
272.793	6.75
273.008	6.49
273.223	6.81
273.438	7.28
273.653	6.34
273.867	6.67
274.082	7.29
274.297	8.89
274.512	10.82
274.726	8.5
274.941	8.25
275.156	7.55
275.371	7.47
275.585	4.72
275.8	2.8
276.015	3.96
276.229	4.07
276.444	3.04
276.659	2.1
276.873	2.63
277.088	3.39
277.302	3.97
277.517	7.12
277.732	5.57
277.946	8.42
278.161	10.03
278.375	9.18
278.59	13.11
278.804	12.04
279.019	9.82
279.233	9.76
279.448	9.17
279.662	8.57
279.877	7.77
280.091	9.51
280.306	9.29
280.52	9.01
280.735	9
280.949	8.55
281.163	9.63
281.378	11.85
281.592	10.86
281.806	12.27
282.021	11.13
282.235	10.96
282.449	12.19
282.664	11.5
282.878	12.23
283.092	13.26
283.307	12.3
283.521	12.54
283.735	11.18
283.949	11.76
284.164	9.69
284.378	10.52
284.592	9.55
284.806	8.48
285.02	9.22
285.234	8.65
285.449	8.29
285.663	7.18
285.877	5.64
286.091	6.2
286.305	6.31
286.519	6.94
286.733	6.39
286.947	6.2
287.161	6.82
287.375	7.38
287.589	6.63
287.803	6.13
288.017	5.85
288.231	5.92
288.445	4.68
288.659	4.38
288.873	4.96
289.087	4.86
289.301	6.78
289.515	5.09
289.729	5.35
289.943	5.53
290.157	7.59
290.371	8.65
290.584	9.98
290.798	13.14
291.012	12.67
291.226	13.63
291.44	13.02
291.654	11.69
291.867	11.72
292.081	12.18
292.295	12.29
292.509	10.35
292.722	11.31
292.936	9.94
293.15	7.59
293.364	9.75
293.577	9.62
293.791	10.08
294.005	11.38
294.218	12.58
294.432	10.87
294.645	11.29
294.859	11.91
295.073	12.56
295.286	13.16
295.5	12.58
295.713	11.07
295.927	11.67
296.14	13.41
296.354	12.75
296.568	11.62
296.781	12.07
296.994	11.69
297.208	10.46
297.421	9.11
297.635	8.72
297.848	9.28
298.062	10.06
298.275	8.95
298.489	7.29
298.702	7.22
298.915	8.06
299.129	8.47
299.342	9.35
299.555	10.78
299.769	10.95
299.982	11.33
300.195	10.72
300.409	9.26
300.622	9.38
300.835	10.74
301.048	12.61
301.262	12.54
301.475	11.86
301.688	10.7
301.901	11.63
302.115	12.27
302.328	12.47
302.541	14.89
302.754	14.69
302.967	15.3
303.18	15.16
303.393	13.18
303.607	15.03
303.82	15.94
304.033	19.21
304.246	18.76
304.459	18.36
304.672	17.1
304.885	14.06
305.098	15.3
305.311	15.16
305.524	14.15
305.737	14.26
305.95	12.45
306.163	10.89
306.376	9.31
306.589	8.46
306.802	7.21
307.015	7.3
307.228	10.27
307.44	10.87
307.653	10.73
307.866	11.66
308.079	12.42
308.292	14.55
308.505	15.53
308.718	15.17
308.93	15.26
309.143	17.77
309.356	19.85
309.569	18.23
309.781	18.14
309.994	16.87
310.207	16.34
310.42	15.84
310.632	15.12
310.845	15.09
311.058	14.29
311.27	14.42
311.483	13.97
311.696	13.48
311.908	15.23
312.121	15.33
312.333	17.52
312.546	18.76
312.759	18.35
312.971	18.14
313.184	18.42
313.396	19.41
313.609	19.23
313.821	17.51
314.034	17.83
314.246	16.32
314.459	16.09
314.671	14.78
314.884	13.6
315.096	15.13
315.309	14.26
315.521	16.02
315.733	15.05
315.946	16.21
316.158	17.86
316.371	17.82
316.583	18.17
316.795	17.68
317.008	15.7
317.22	14.95
317.432	12.91
317.644	13.69
317.857	11.04
318.069	10.48
318.281	10.66
318.494	11.38
318.706	9.06
318.918	7.81
319.13	7.92
319.342	11.54
319.555	10.67
319.767	10.37
319.979	11.16
320.191	12.81
320.403	13.39
320.615	13.64
320.827	13.14
321.039	16.6
321.252	18.45
321.464	17.32
321.676	16.15
321.888	17.12
322.1	18.27
322.312	16.93
322.524	15.18
322.736	16.47
322.948	15.46
323.16	15.87
323.372	15.77
323.584	14.9
323.796	14.96
324.007	14.15
324.219	15.44
324.431	16.22
324.643	15.92
324.855	17.35
325.067	16.8
325.279	16.97
325.491	17.77
325.702	17.33
325.914	17.65
326.126	21.71
326.338	21.33
326.55	20.49
326.761	21.06
326.973	21.41
327.185	20.51
327.396	20.93
327.608	22.47
327.82	23.6
328.032	23.27
328.243	22.58
328.455	21.12
328.666	22.96
328.878	25.26
329.09	25.32
329.301	26.88
329.513	29.83
329.725	29.43
329.936	29.13
330.148	27.63
330.359	28.06
330.571	29.46
330.782	28.6
330.994	28.09
331.205	27.79
331.417	28.55
331.628	28.63
331.84	26.74
332.051	27.87
332.262	29.46
332.474	30.13
332.685	30.68
332.897	31.73
333.108	30.96
333.319	31.81
333.531	31.98
333.742	31.35
333.953	31.95
334.165	32.86
334.376	33.18
334.587	32.35
334.799	31.55
335.01	33.93
335.221	34.35
335.432	35.01
335.644	34.24
335.855	32.44
336.066	33.87
336.277	35.48
336.488	36.72
336.7	37.24
336.911	36.94
337.122	38.52
337.333	38.03
337.544	38.9
337.755	39.79
337.966	40.28
338.177	42.83
338.388	41.42
338.599	39.29
338.811	36.95
339.022	36.4
339.233	35.34
339.444	35.65
339.655	33.89
339.866	32.87
340.076	31.71
340.287	32.28
340.498	31.53
340.709	32.99
340.92	33.45
341.131	34.6
341.342	33.55
341.553	33.43
341.764	33.21
341.975	34.55
342.185	35.25
342.396	36.19
342.607	36.95
342.818	37.22
343.029	36.6
343.239	37.66
343.45	36.45
343.661	36.56
343.872	37.94
344.082	37.1
344.293	37.17
344.504	37.74
344.714	37.87
344.925	36.93
345.136	37.49
345.346	35.59
345.557	34.12
345.768	34.89
345.978	37.61
346.189	37.32
346.399	37.95
346.61	37.06
346.821	35.88
347.031	36.06
347.242	37.15
347.452	37.24
347.663	38.72
347.873	40.26
348.084	41.17
348.294	39.87
348.504	40
348.715	40.25
348.925	39.81
349.136	40.71
349.346	40.97
349.557	39.92
349.767	40.2
349.977	39.42
350.188	37.58
350.398	36.17
350.608	36.37
350.819	35.59
351.029	34.51
351.239	35.16
351.449	35.23
351.66	35.72
351.87	35.41
352.08	33.57
352.29	35.63
352.501	36.51
352.711	38.29
352.921	37.32
353.131	38.19
353.341	38.46
353.552	38.52
353.762	37.18
353.972	36.6
354.182	37.8
354.392	38.97
354.602	37.55
354.812	36.5
355.022	36.4
355.232	37.62
355.442	37.52
355.652	37.59
355.862	37.12
356.072	37.89
356.282	37.12
356.492	37.06
356.702	36.88
356.912	37.14
357.122	37.19
357.332	35.86
357.542	35.51
357.752	35.96
357.962	35.31
358.171	35.29
358.381	34.64
358.591	35
358.801	34.08
359.011	34.2
359.221	34.56
359.43	36.27
359.64	37.71
359.85	37.06
360.06	36.88
360.269	37.76
360.479	38.87
360.689	39.77
360.899	39.4
361.108	39.49
361.318	39.39
361.528	38.37
361.737	38.23
361.947	37.93
362.156	37.98
362.366	37.84
362.576	38
362.785	38.02
362.995	37.54
363.204	37.69
363.414	37.93
363.623	37.15
363.833	38.41
364.042	37.57
364.252	36.93
364.461	36.75
364.671	36.48
364.88	36.32
365.09	36.67
365.299	35.87
365.509	36.59
365.718	36.66
365.927	37.84
366.137	38.15
366.346	38.48
366.555	38.77
366.765	39.04
366.974	38.9
367.183	38.05
367.393	36.58
367.602	36.33
367.811	36.13
368.021	35.74
368.23	35.15
368.439	34.94
368.648	35.02
368.857	34.94
369.067	34.81
369.276	34.79
369.485	35.86
369.694	35.33
369.903	36.27
370.112	35.75
370.321	36.35
370.531	36.9
370.74	36.82
370.949	36.24
371.158	34.63
371.367	34.65
371.576	34.37
371.785	33.47
371.994	34.28
372.203	34.33
372.412	33.68
372.621	32.71
372.83	32.45
373.039	31.32
373.248	31.19
373.457	31.71
373.666	31.45
373.874	30.93
374.083	31.16
374.292	31.01
374.501	30.25
374.71	29.82
374.919	30.27
375.128	29.15
375.336	29.73
375.545	29.63
375.754	30.04
375.963	29.94
376.171	30.38
376.38	29.63
376.589	29.91
376.798	30.21
377.006	30.55
377.215	30.15
377.424	30.21
377.632	30.19
377.841	30.26
378.05	29.73
378.258	29.77
378.467	30.03
378.675	30.94
378.884	30.43
379.093	29.8
379.301	29.39
379.51	29.4
379.718	29.89
379.927	28.78
380.135	28.37
380.344	28.71
380.552	28.09
380.761	27.5
380.969	27.43
381.177	27.04
381.386	26.69
381.594	27.25
381.803	26.69
382.011	26.31
382.219	26.6
382.428	26.91
382.636	26.69
382.845	26.16
383.053	25.95
383.261	25.58
383.469	25.53
383.678	25.41
383.886	24.69
384.094	24.74
384.302	24.3
384.511	24.34
384.719	23.22
384.927	22.96
385.135	22.88
385.343	22.7
385.552	22
385.76	21.78
385.968	21.65
386.176	22.29
386.384	22.14
386.592	22.15
386.8	22.52
387.008	23.24
387.216	23.25
387.424	23.35
387.633	23.58
387.841	23.78
388.049	23.88
388.257	24.06
388.465	22.95
388.672	22.77
388.88	22.27
389.088	21.66
389.296	21.3
389.504	21.47
389.712	21.32
389.92	20.93
390.128	20.27
390.336	19.89
390.544	19.46
390.751	20
390.959	19.78
391.167	20.04
391.375	20
391.583	19.94
391.79	19.73
391.998	19.51
392.206	19.73
392.414	19.79
392.621	19.99
392.829	19.89
393.037	19.4
393.244	19.49
393.452	19.47
393.66	19.39
393.867	19.44
394.075	18.88
394.283	19.12
394.49	18.9
394.698	18.8
394.905	18.63
395.113	18.61
395.32	18.73
395.528	18.56
395.735	18.22
395.943	17.94
396.15	18.03
396.358	18.46
396.565	18.29
396.773	18.02
396.98	18.02
397.188	17.94
397.395	17.81
397.602	17.87
397.81	17.83
398.017	17.78
398.225	17.53
398.432	16.98
398.639	16.67
398.847	16.58
399.054	16.33
399.261	16.25
399.468	16.29
399.676	16.42
399.883	16.25
400.09	16.01
400.297	16.16
400.505	16.08
400.712	16.15
400.919	16.33
401.126	16.44
401.333	17.01
401.54	16.96
401.748	16.79
401.955	16.59
402.162	16.63
402.369	16.82
402.576	16.59
402.783	16.71
402.99	16.88
403.197	16.9
403.404	16.96
403.611	16.42
403.818	16.41
404.025	16.49
404.232	16.58
404.439	16.74
404.646	16.63
404.853	16.69
405.06	16.64
405.267	16.26
405.474	16.38
405.681	16.2
405.887	16.28
406.094	16.29
406.301	16.02
406.508	16
406.715	15.65
406.922	16.08
407.128	16.05
407.335	16.22
407.542	16.33
407.749	16.03
407.955	15.92
408.162	16
408.369	15.83
408.575	15.8
408.782	16.12
408.989	16.54
409.195	16.18
409.402	16.28
409.609	16.09
409.815	15.98
410.022	16.1
410.228	16.03
410.435	16.08
410.642	15.87
410.848	16.17
411.055	15.69
411.261	15.32
411.468	15.28
411.674	15.03
411.881	14.93
412.087	15.01
412.294	14.82
412.5	14.96
412.706	14.73
412.913	14.88
413.119	14.84
413.326	14.8
413.532	14.83
413.738	14.73
413.945	14.8
414.151	14.87
414.357	14.71
414.564	14.83
414.77	14.53
414.976	14.59
415.182	14.72
415.389	14.34
415.595	14.6
415.801	14.56
416.007	14.52
416.214	14.26
416.42	14.32
416.626	14.26
416.832	14.28
417.038	14.42
417.244	14.49
417.45	14.34
417.657	14.51
417.863	14.26
418.069	14.2
418.275	14.4
418.481	14.49
418.687	14.35
418.893	14.41
419.099	14.35
419.305	14.29
419.511	14.16
419.717	14.15
419.923	14.11
420.129	14.12
420.335	14.15
420.541	13.98
420.746	13.99
420.952	13.98
421.158	14.12
421.364	14.01
421.57	13.91
421.776	13.78
421.982	13.87
422.187	13.92
422.393	14.04
422.599	13.98
422.805	13.93
423.01	13.9
423.216	13.87
423.422	13.72
423.628	13.68
423.833	13.7
424.039	13.84
424.245	13.73
424.45	13.7
424.656	13.58
424.862	13.69
425.067	13.75
425.273	13.77
425.478	13.9
425.684	13.94
425.889	14.04
426.095	14.08
426.301	14.2
426.506	14.3
426.712	14.02
426.917	14.05
427.123	13.85
427.328	13.76
427.533	13.77
427.739	13.74
427.944	13.82
428.15	13.73
428.355	13.73
428.561	13.6
428.766	13.43
428.971	13.39
429.177	13.34
429.382	13.25
429.587	13.29
429.793	13.2
429.998	13.15
430.203	12.84
430.408	12.76
430.614	12.86
430.819	12.79
431.024	12.77
431.229	13.27
431.434	13.38
431.64	13.59
431.845	13.6
432.05	13.81
432.255	13.67
432.46	13.88
432.665	13.96
432.87	13.72
433.076	13.72
433.281	13.89
433.486	13.7
433.691	13.67
433.896	13.49
434.101	13.48
434.306	13.36
434.511	13.43
434.716	13.42
434.921	13.34
435.126	13.4
435.331	13.48
435.535	13.37
435.74	13.42
435.945	13.17
436.15	13.44
436.355	13.4
436.56	13.44
436.765	13.33
436.97	13.39
437.174	13.42
437.379	13.5
437.584	13.45
437.789	13.37
437.993	13.34
438.198	13.47
438.403	13.28
438.608	13.34
438.812	13.13
439.017	13.19
439.222	12.96
439.426	13.1
439.631	13.12
439.836	13.1
440.04	13.05
440.245	12.96
440.45	13.01
440.654	13.17
440.859	13.08
441.063	13.26
441.268	13.1
441.472	13.26
441.677	13.11
441.881	13.01
442.086	12.98
442.29	13.01
442.495	13.11
442.699	13.07
442.904	12.8
443.108	12.82
443.312	12.66
443.517	12.74
443.721	12.68
443.925	12.81
444.13	12.89
444.334	12.85
444.538	12.85
444.743	12.9
444.947	12.85
445.151	12.89
445.356	12.89
445.56	12.89
445.764	12.93
445.968	12.89
446.173	12.75
446.377	12.7
446.581	12.67
446.785	12.75
446.989	12.63
447.193	12.72
447.398	12.72
447.602	12.7
447.806	12.92
448.01	12.87
448.214	12.88
448.418	12.99
448.622	13.08
448.826	13.18
449.03	13.01
449.234	13.09
449.438	13.13
449.642	13.1
449.846	13.12
450.05	12.86
450.254	13.06
450.458	13.08
450.662	12.88
450.866	12.54
451.069	12.46
451.273	12.68
451.477	12.63
451.681	12.58
451.885	12.71
452.089	12.78
452.292	13.05
452.496	12.93
452.7	12.82
452.904	12.89
453.107	13.19
453.311	13.23
453.515	13.24
453.719	13.22
453.922	13.1
454.126	12.96
454.33	13
454.533	12.88
454.737	12.74
454.94	12.91
455.144	12.95
455.348	13.03
455.551	13.02
455.755	12.94
455.958	12.99
456.162	12.95
456.365	13.03
456.569	13.02
456.772	12.8
456.976	13.09
457.179	12.99
457.383	12.88
457.586	12.68
457.79	12.69
457.993	12.78
458.196	12.76
458.4	12.99
458.603	13.06
458.807	12.98
459.01	13.04
459.213	12.93
459.417	12.92
459.62	12.96
459.823	12.89
460.026	12.83
460.23	12.74
460.433	12.56
460.636	12.35
460.839	12.32
461.042	12.16
461.246	12.24
461.449	12.14
461.652	12.06
461.855	12.02
462.058	12.15
462.261	12.14
462.464	12.17
462.668	12.41
462.871	12.66
463.074	12.45
463.277	12.58
463.48	12.44
463.683	12.5
463.886	12.56
464.089	12.71
464.292	12.58
464.495	12.67
464.698	12.58
464.901	12.64
465.104	12.53
465.306	12.67
465.509	12.62
465.712	12.69
465.915	12.61
466.118	12.43
466.321	12.36
466.524	12.44
466.726	12.52
466.929	12.62
467.132	12.52
467.335	12.39
467.538	12.34
467.74	12.43
467.943	12.37
468.146	12.45
468.348	12.61
468.551	12.69
468.754	12.62
468.956	12.65
469.159	12.53
469.362	12.58
469.564	12.66
469.767	12.61
469.969	12.58
470.172	12.63
470.375	12.6
470.577	12.57
470.78	12.48
470.982	12.68
471.185	12.51
471.387	12.9
471.59	12.65
471.792	12.75
471.995	12.76
472.197	12.96
472.399	13.01
472.602	13.11
472.804	13.08
473.007	13.01
473.209	12.77
473.411	12.79
473.614	12.51
473.816	12.65
474.018	12.59
474.22	12.66
474.423	12.57
474.625	12.52
474.827	12.58
475.03	12.8
475.232	12.93
475.434	13.16
475.636	13.27
475.838	13.32
476.04	13.4
476.243	13.29
476.445	13.5
476.647	13.48
476.849	13.61
477.051	13.7
477.253	13.43
477.455	13.35
477.657	13.31
477.859	13.29
478.061	13.23
478.263	13.19
478.465	13.44
478.667	13.18
478.869	13.07
479.071	12.97
479.273	12.75
479.475	12.76
479.677	12.82
479.879	12.78
480.081	12.81
480.283	12.75
480.485	12.65
480.686	12.48
480.888	12.53
481.09	12.41
481.292	12.29
481.494	12.32
481.695	12.49
481.897	12.47
482.099	12.52
482.301	12.53
482.502	12.62
482.704	12.76
482.906	12.83
483.107	12.88
483.309	12.97
483.511	13
483.712	12.98
483.914	12.96
484.115	12.92
484.317	12.94
484.519	12.92
484.72	12.89
484.922	12.82
485.123	12.78
485.325	12.74
485.526	12.73
485.728	12.72
485.929	12.76
486.131	12.8
486.332	12.88
486.534	12.78
486.735	12.78
486.936	12.8
487.138	12.89
487.339	12.86
487.541	12.83
487.742	12.83
487.943	12.79
488.144	12.79
488.346	12.8
488.547	12.78
488.748	12.89
488.95	12.87
489.151	12.89
489.352	12.84
489.553	13
489.755	13.13
489.956	13.17
490.157	13.29
490.358	13.32
490.559	13.32
490.76	13.22
490.961	13.16
491.163	13.12
491.364	13.13
491.565	13.08
491.766	12.92
491.967	12.83
492.168	12.79
492.369	12.74
492.57	12.63
492.771	12.55
492.972	12.6
493.173	12.58
493.374	12.64
493.575	12.53
493.776	12.61
493.976	12.72
494.177	12.78
494.378	12.76
494.579	12.87
494.78	12.99
494.981	13.16
495.182	13.14
495.382	13.21
495.583	13.23
495.784	13.38
495.985	13.25
496.185	13.24
496.386	13.32
496.587	13.4
496.788	13.4
496.988	13.46
497.189	13.39
497.39	13.35
497.59	13.42
497.791	13.46
497.992	13.38
498.192	13.46
498.393	13.51
498.593	13.41
498.794	13.27
498.994	13.29
499.195	13.34
499.395	13.27
499.596	13.38
499.796	13.26
499.997	13.29
500.197	13.42
500.398	13.58
500.598	13.63
500.799	13.83
500.999	14.03
501.199	14
501.4	13.83
501.6	14.06
501.801	14.21
502.001	14.24
502.201	14.19
502.402	14.1
502.602	14.18
502.802	14.27
503.002	14.23
503.203	14.13
503.403	14.28
503.603	14.31
503.803	14.25
504.003	14.19
504.204	14.3
504.404	14.28
504.604	14.54
504.804	14.38
505.004	14.27
505.204	14.07
505.404	14.19
505.604	13.98
505.804	14.17
506.005	14.15
506.205	14.05
506.405	14.21
506.605	14.17
506.805	14.13
507.005	14.26
507.204	14.24
507.404	14.53
507.604	14.75
507.804	14.81
508.004	14.61
508.204	14.63
508.404	14.85
508.604	14.66
508.804	14.95
509.003	14.83
509.203	14.72
509.403	14.82
509.603	14.79
509.803	14.67
510.002	14.83
510.202	15.03
510.402	15.17
510.602	15.11
510.801	15.31
511.001	15.22
511.201	15.3
511.4	15.51
511.6	15.6
511.8	15.65
511.999	15.67
512.199	15.57
512.398	15.61
512.598	15.51
512.797	15.56
512.997	15.41
513.197	15.42
513.396	15.5
513.596	15.48
513.795	15.39
513.994	15.39
514.194	15.53
514.393	15.63
514.593	15.59
514.792	15.6
514.992	15.67
515.191	15.85
515.39	15.94
515.59	16.09
515.789	16.12
515.988	16.16
516.188	16.28
516.387	16.15
516.586	16.07
516.786	16.05
516.985	16.33
517.184	16.22
517.383	16.09
517.582	16.17
517.782	16.21
517.981	16.25
518.18	16.33
518.379	16.38
518.578	16.47
518.777	16.67
518.976	16.78
519.176	16.65
519.375	16.77
519.574	16.87
519.773	16.74
519.972	16.58
520.171	16.46
520.37	16.55
520.569	16.4
520.768	16.47
520.967	16.32
521.166	16.23
521.365	16.3
521.564	16.36
521.762	16.37
521.961	16.5
522.16	16.64
522.359	16.89
522.558	16.88
522.757	16.84
522.956	16.67
523.154	16.77
523.353	16.95
523.552	16.96
523.751	16.92
523.949	17.03
524.148	17.05
524.347	17.01
524.546	16.97
524.744	16.85
524.943	16.98
525.142	17.09
525.34	17.02
525.539	17.05
525.737	17.16
525.936	17.16
526.135	17.19
526.333	17.3
526.532	17.33
526.73	17.44
526.929	17.59
527.127	17.61
527.326	17.7
527.524	17.75
527.723	17.75
527.921	17.7
528.12	17.77
528.318	17.76
528.516	17.71
528.715	17.76
528.913	17.71
529.112	17.71
529.31	17.76
529.508	17.7
529.707	17.7
529.905	17.68
530.103	17.7
530.301	17.69
530.5	17.73
530.698	17.75
530.896	17.74
531.094	17.69
531.293	17.66
531.491	17.65
531.689	17.74
531.887	17.87
532.085	17.94
532.283	17.98
532.481	18.04
532.68	18.03
532.878	18.1
533.076	18.16
533.274	18.27
533.472	18.29
533.67	18.34
533.868	18.4
534.066	18.49
534.264	18.49
534.462	18.57
534.66	18.61
534.858	18.61
535.056	18.65
535.253	18.68
535.451	18.71
535.649	18.81
535.847	18.86
536.045	18.76
536.243	18.67
536.441	18.82
536.638	18.74
536.836	18.74
537.034	18.75
537.232	18.73
537.43	18.72
537.627	18.84
537.825	18.81
538.023	18.82
538.22	18.96
538.418	18.94
538.616	18.9
538.813	19.02
539.011	19.06
539.209	19.25
539.406	19.33
539.604	19.31
539.801	19.29
539.999	19.4
540.196	19.52
540.394	19.55
540.591	19.65
540.789	19.68
540.986	19.72
541.184	19.71
541.381	19.66
541.579	19.65
541.776	19.8
541.974	19.8
542.171	19.77
542.368	19.76
542.566	19.88
542.763	19.87
542.96	19.85
543.158	19.88
543.355	20.02
543.552	20.22
543.75	20.33
543.947	20.3
544.144	20.28
544.341	20.36
544.539	20.45
544.736	20.23
544.933	20.39
545.13	20.58
545.327	20.6
545.524	20.59
545.722	20.54
545.919	20.54
546.116	20.66
546.313	20.88
546.51	20.91
546.707	20.84
546.904	21.04
547.101	20.96
547.298	20.98
547.495	20.85
547.692	20.87
547.889	20.87
548.086	20.85
548.283	20.71
548.48	20.69
548.677	20.69
548.874	20.72
549.07	20.8
549.267	20.92
549.464	20.94
549.661	21.18
549.858	21.21
550.055	21.15
550.251	21.29
550.448	21.49
550.645	21.43
550.842	21.5
551.038	21.74
551.235	21.73
551.432	21.73
551.628	21.64
551.825	21.73
552.022	21.86
552.218	21.89
552.415	21.88
552.612	21.92
552.808	22.12
553.005	22.15
553.201	22.07
553.398	22.13
553.594	22.19
553.791	22.29
553.987	22.2
554.184	22.3
554.38	22.35
554.577	22.45
554.773	22.36
554.97	22.23
555.166	22.41
555.362	22.3
555.559	22.49
555.755	22.58
555.952	22.73
556.148	22.82
556.344	22.78
556.541	22.93
556.737	23.21
556.933	23.31
557.129	23.45
557.326	23.31
557.522	23.36
557.718	23.18
557.914	23.13
558.11	22.94
558.307	23.06
558.503	22.91
558.699	22.79
558.895	22.57
559.091	22.57
559.287	22.51
559.483	22.81
559.679	22.91
559.876	23.02
560.072	23.02
560.268	23.31
560.464	23.37
560.66	23.5
560.856	23.61
561.052	23.91
561.247	24.08
561.443	24.24
561.639	24.17
561.835	24.3
562.031	24.22
562.227	24.51
562.423	24.35
562.619	24.35
562.815	24.36
563.01	24.23
563.206	24.19
563.402	24.38
563.598	24.24
563.793	24.3
563.989	24.45
564.185	24.65
564.381	24.57
564.576	24.61
564.772	24.61
564.968	24.9
565.163	25.13
565.359	25.05
565.555	24.86
565.75	24.9
565.946	25.17
566.141	25.05
566.337	25.07
566.532	25.25
566.728	25.59
566.923	25.64
567.119	25.74
567.314	25.81
567.51	25.91
567.705	26.02
567.901	26.15
568.096	25.88
568.292	26.02
568.487	26.02
568.682	25.87
568.878	25.57
569.073	25.77
569.268	25.62
569.464	25.72
569.659	25.8
569.854	25.78
570.05	25.81
570.245	25.76
570.44	25.98
570.635	26.2
570.831	26.24
571.026	26.45
571.221	26.44
571.416	26.53
571.611	26.35
571.806	26.27
572.002	26.35
572.197	26.54
572.392	26.81
572.587	26.72
572.782	26.85
572.977	26.94
573.172	26.85
573.367	26.91
573.562	26.85
573.757	27.03
573.952	27.18
574.147	27.29
574.342	27.34
574.537	27.4
574.732	27.47
574.927	26.96
575.121	26.98
575.316	27.14
575.511	26.99
575.706	27.07
575.901	27.28
576.096	27.22
576.29	27.17
576.485	27.12
576.68	27.06
576.875	27.01
577.069	27.43
577.264	27.44
577.459	27.53
577.654	27.61
577.848	27.65
578.043	27.5
578.238	27.55
578.432	27.66
578.627	27.64
578.821	27.55
579.016	27.64
579.21	27.54
579.405	27.76
579.6	27.72
579.794	27.97
579.989	27.99
580.183	27.64
580.378	27.8
580.572	27.84
580.766	27.99
580.961	28.39
581.155	28.38
581.35	28.7
581.544	28.41
581.738	28.36
581.933	28.05
582.127	28.18
582.321	28.55
582.516	28.48
582.71	28.55
582.904	28.34
583.099	28.05
583.293	28.26
583.487	28.2
583.681	28.46
583.875	28.54
584.07	28.89
584.264	28.86
584.458	28.74
584.652	28.86
584.846	28.85
585.04	29.1
585.234	29.21
585.428	29.19
585.623	28.94
585.817	29.12
586.011	29.09
586.205	28.62
586.399	28.77
586.593	28.92
586.787	28.9
586.981	28.91
587.174	28.86
587.368	29.05
587.562	28.88
587.756	29.04
587.95	28.89
588.144	28.87
588.338	29.21
588.532	29.16
588.725	29.11
588.919	29.06
589.113	29.18
589.307	29.29
589.501	29.12
589.694	29.14
589.888	29.06
590.082	29.29
590.275	29.54
590.469	29.86
590.663	29.78
590.856	29.94
591.05	29.99
591.244	29.85
591.437	29.7
591.631	29.78
591.824	29.98
592.018	30.15
592.212	30.04
592.405	29.99
592.599	29.97
592.792	30.03
592.986	30.16
593.179	30.26
593.372	30.22
593.566	30.08
593.759	30.04
593.953	30.16
594.146	30.29
594.339	30.11
594.533	30.09
594.726	29.86
594.92	30.05
595.113	30.08
595.306	29.99
595.499	30.13
595.693	30.54
595.886	30.67
596.079	30.61
596.272	30.56
596.466	30.76
596.659	30.68
596.852	30.7
597.045	30.55
597.238	30.45
597.431	30.54
597.624	30.6
597.818	30.4
598.011	30.08
598.204	30.16
598.397	30.16
598.59	29.97
598.783	30.08
598.976	30.04
599.169	30.16
599.362	30.42
599.555	30.21
599.748	30.21
599.941	30.29
600.134	30.6
600.326	30.21
600.519	30.41
600.712	30.34
600.905	30.46
601.098	30.52
601.291	30.39
601.483	30.17
601.676	30.31
601.869	30.52
602.062	30.31
602.255	30.59
602.447	30.87
602.64	30.65
602.833	30.84
603.025	30.67
603.218	30.86
603.411	30.79
603.603	30.96
603.796	30.97
603.989	30.8
604.181	30.99
604.374	30.83
604.566	30.93
604.759	31.15
604.951	31.23
605.144	31.14
605.336	31.17
605.529	31.3
605.721	31.14
605.914	31.12
606.106	31.39
606.299	31.7
606.491	31.55
606.683	31.37
606.876	31.05
607.068	31.1
607.26	31.36
607.453	31.54
607.645	31.52
607.837	31.76
608.03	31.84
608.222	31.6
608.414	31.38
608.606	31.5
608.799	31.57
608.991	31.72
609.183	31.88
609.375	32.04
609.567	32.03
609.759	32.07
609.952	32.08
610.144	32.31
610.336	32.18
610.528	32.19
610.72	32.32
610.912	32.31
611.104	32.31
611.296	32.12
611.488	32.18
611.68	32.1
611.872	32.25
612.064	32.2
612.256	32.11
612.448	32.37
612.64	32.15
612.832	32.21
613.023	32.19
613.215	32.53
613.407	32.69
613.599	32.51
613.791	32.67
613.983	32.53
614.174	32.45
614.366	32.27
614.558	32.48
614.75	32.71
614.941	32.53
615.133	32.84
615.325	32.53
615.516	32.38
615.708	32.47
615.9	32.27
616.091	32.24
616.283	32.16
616.475	32.34
616.666	32.09
616.858	32
617.049	32.35
617.241	32.32
617.432	32.23
617.624	32.18
617.815	31.83
618.007	31.58
618.198	31.99
618.39	32.23
618.581	32.22
618.773	32.08
618.964	32
619.155	31.58
619.347	31.59
619.538	31.69
619.729	31.75
619.921	31.97
620.112	32.27
620.303	31.79
620.494	31.82
620.686	31.55
620.877	31.56
621.068	32
621.259	31.85
621.451	31.78
621.642	31.84
621.833	31.6
622.024	31.67
622.215	31.42
622.406	31.69
622.597	31.84
622.788	31.95
622.98	32.06
623.171	31.9
623.362	32.42
623.553	32.44
623.744	32.66
623.935	33.05
624.126	32.83
624.317	32.78
624.508	32.47
624.698	32.32
624.889	32.45
625.08	32.52
625.271	32.4
625.462	32.15
625.653	32.13
625.844	32
626.034	31.91
626.225	32.11
626.416	32.15
626.607	32.31
626.798	32.13
626.988	32.05
627.179	32.09
627.37	32.28
627.56	32.43
627.751	32.43
627.942	32.16
628.132	32.08
628.323	32.1
628.514	31.98
628.704	32.2
628.895	32.21
629.085	32.17
629.276	31.93
629.466	31.81
629.657	31.7
629.847	31.7
630.038	32.05
630.228	32.26
630.419	32.24
630.609	32.6
630.8	32.57
630.99	32.66
631.181	32.93
631.371	33.21
631.561	33.13
631.752	33.25
631.942	33.19
632.132	32.91
632.323	32.57
632.513	32.8
632.703	32.52
632.893	32.26
633.084	32.22
633.274	32.25
633.464	32.06
633.654	32.37
633.844	32.08
634.034	32.25
634.225	32.16
634.415	32.46
634.605	32.23
634.795	32.54
634.985	33.02
635.175	32.87
635.365	32.76
635.555	32.99
635.745	32.84
635.935	33.07
636.125	33.01
636.315	32.97
636.505	32.73
636.695	32.49
636.885	32.55
637.075	32.24
637.265	32.74
637.455	32.91
637.644	32.97
637.834	33.09
638.024	33.31
638.214	33.15
638.404	33.26
638.593	33.58
638.783	33.77
638.973	33.48
639.163	33.64
639.352	33.39
639.542	32.64
639.732	32.48
639.921	32.3
640.111	31.89
640.301	32.16
640.49	32.62
640.68	32.46
640.87	32.34
641.059	32.34
641.249	31.81
641.438	31.52
641.628	32.06
641.817	32.1
642.007	32.14
642.196	32.38
642.386	32.32
642.575	32.15
642.764	32.18
642.954	32.16
643.143	32.14
643.333	32.51
643.522	32.41
643.711	32.36
643.901	32.4
644.09	32.5
644.279	32.48
644.469	32.75
644.658	32.61
644.847	32.5
645.036	32.88
645.226	33.14
645.415	33.1
645.604	33.21
645.793	33.5
645.982	33.49
646.171	33.1
646.361	33.08
646.55	32.88
646.739	32.88
646.928	32.99
647.117	33
647.306	32.74
647.495	32.87
647.684	33.32
647.873	33.43
648.062	33.19
648.251	33.38
648.44	33.11
648.629	33.26
648.818	32.99
649.007	33.22
649.196	33.12
649.384	32.95
649.573	32.77
649.762	32.62
649.951	32.25
650.14	32.47
650.328	32.45
650.517	32.54
650.706	32.26
650.895	32.71
651.083	32.57
651.272	32.42
651.461	32.77
651.65	32.71
651.838	32.39
652.027	32.32
652.216	32.27
652.404	32.37
652.593	32.39
652.781	32.04
652.97	31.81
653.158	31.56
653.347	31.52
653.535	31.09
653.724	31.03
653.912	31.48
654.101	31.55
654.289	31.38
654.478	31.47
654.666	31.37
654.855	31.55
655.043	31.59
655.231	31.64
655.42	31.88
655.608	32.53
655.796	32.82
655.985	32.87
656.173	32.96
656.361	32.63
656.55	32.52
656.738	32.73
656.926	33.1
657.114	33.16
657.302	33.05
657.491	32.61
657.679	32.74
657.867	32.59
658.055	32.43
658.243	32.14
658.431	32.24
658.619	32.15
658.807	32.19
658.996	31.99
659.184	32.08
659.372	32.24
659.56	32.59
659.748	32.17
659.936	32.3
660.124	32.4
660.311	32.82
660.499	33.16
660.687	33.46
660.875	33.47
661.063	33.06
661.251	32.82
661.439	33.01
661.627	32.98
661.814	32.99
662.002	32.84
662.19	32.77
662.378	32.76
662.565	32.57
662.753	32.44
662.941	32.64
663.129	33.5
663.316	33.68
663.504	33.46
663.692	32.84
663.879	33.06
664.067	33.03
664.254	33.33
664.442	33.61
664.63	33.94
664.817	33.9
665.005	33.86
665.192	33.08
665.38	32.85
665.567	32.58
665.755	33.05
665.942	33.22
666.13	33.76
666.317	33.62
666.504	33.02
666.692	32.73
666.879	32.94
667.067	32.44
667.254	32.64
667.441	33.2
667.629	33.55
667.816	33.97
668.003	33.86
668.19	33.31
668.378	33.18
668.565	33.28
668.752	33.56
668.939	33.29
669.127	33.54
669.314	33.96
669.501	33.19
669.688	32.69
669.875	32.26
670.062	32.21
670.249	32.35
670.436	32.11
670.623	32.25
670.81	32.23
670.997	32.37
671.184	32.36
671.371	32.08
671.558	32.4
671.745	32.66
671.932	32.76
672.119	32.69
672.306	32.62
672.493	32.88
672.68	33.07
672.867	33.01
673.054	32.57
673.24	32.75
673.427	33.3
673.614	33.97
673.801	34.05
673.988	34.11
674.174	33.92
674.361	33.86
674.548	33.61
674.734	33.22
674.921	32.78
675.108	33.21
675.294	33.12
675.481	32.81
675.668	32.76
675.854	32.72
676.041	32.85
676.227	33.14
676.414	33.53
676.601	33.61
676.787	33.83
676.974	33.77
677.16	33.62
677.347	33.75
677.533	33.85
677.719	33.44
677.906	33.84
678.092	33.42
678.279	33.1
678.465	32.88
678.651	33.07
678.838	32.78
679.024	32.92
679.21	33.07
679.397	32.75
679.583	33.13
679.769	33.44
679.955	33.4
680.142	33.67
680.328	33.85
680.514	33.93
680.7	33.72
680.886	33.29
681.073	33.53
681.259	33.7
681.445	34.27
681.631	33.88
681.817	33.52
682.003	33.34
682.189	33.34
682.375	33.48
682.561	33.65
682.747	34.08
682.933	34.84
683.119	34.97
683.305	34.58
683.491	34.23
683.677	34.28
683.863	34.43
684.049	34.74
684.235	34.67
684.42	35.11
684.606	35.1
684.792	34.67
684.978	34.45
685.164	34.22
685.349	34.44
685.535	34.63
685.721	34.5
685.907	34.42
686.092	33.98
686.278	33.97
686.464	33.21
686.649	32.66
686.835	33.36
687.021	33.49
687.206	33.12
687.392	32.65
687.577	32.44
687.763	31.93
687.948	32.4
688.134	31.97
688.319	32.26
688.505	32.47
688.69	32.75
688.876	31.83
689.061	31.78
689.247	32.24
689.432	32.63
689.618	32.61
689.803	33.37
689.988	32.52
690.174	33.14
690.359	32.68
690.544	32.69
690.73	32.84
690.915	33.27
691.1	33.14
691.285	33.38
691.471	33.72
691.656	33.64
691.841	32.94
692.026	33.82
692.211	33.8
692.396	33.89
692.582	34.26
692.767	34.13
692.952	33.61
693.137	33.72
693.322	33.1
693.507	32.94
693.692	33.12
693.877	33.95
694.062	32.86
694.247	32.71
694.432	33.15
694.617	32.4
694.802	31.99
694.987	32.31
695.172	32.9
695.357	33.17
695.541	33.35
695.726	33.13
695.911	32.84
696.096	33.49
696.281	34.27
696.466	33.88
696.65	34.55
696.835	34.93
697.02	35.13
697.204	34.8
697.389	35.37
697.574	35.13
697.759	35.17
697.943	35.28
698.128	35.4
698.312	34.86
698.497	35.25
698.682	34.98
698.866	35.08
699.051	34.86
699.235	34.84
699.42	34.56
699.604	34.78
699.789	34.62
699.973	34.13
700.158	33.92
700.342	33.79
700.527	33.25
700.711	33.03
700.895	32.53
701.08	32.67
701.264	32.22
701.448	32.33
701.633	31.86
701.817	32.24
702.001	32.63
702.186	32.3
702.37	33.35
702.554	33.82
702.738	34.21
702.923	34.76
703.107	34.71
703.291	34.71
703.475	33.96
703.659	34.32
703.843	33.62
704.027	33.53
704.212	33.96
704.396	33.9
704.58	33.52
704.764	33.13
704.948	32.1
705.132	32.25
705.316	32.72
705.5	33.12
705.684	32.11
705.868	33.4
706.052	33.3
706.235	33.55
706.419	32.26
706.603	32.87
706.787	33.36
706.971	34.13
707.155	34.42
707.339	34.45
707.522	34.17
707.706	34.96
707.89	34.76
708.074	35.03
708.257	35.07
708.441	35.97
708.625	35.24
708.808	34.7
708.992	34.62
709.176	34.36
709.359	34.15
709.543	34.36
709.727	34.64
709.91	33.95
710.094	33.32
710.277	33.1
710.461	32.68
710.644	33.24
710.828	33.4
711.011	33.86
711.195	33.68
711.378	34.83
711.562	34.78
711.745	34.31
711.928	34.12
712.112	35.29
712.295	34.96
712.478	34.79
712.662	34.92
712.845	34.79
713.028	34.16
713.212	34.26
713.395	33.33
713.578	33.94
713.761	33.49
713.945	34.26
714.128	33.68
714.311	34.09
714.494	34.34
714.677	34.34
714.86	34.51
715.043	34.76
715.227	35.16
715.41	34.86
715.593	34.53
715.776	35.34
715.959	34.49
716.142	34.54
716.325	34.43
716.508	34.49
716.691	34.53
716.874	34.82
717.057	34.73
717.239	34.35
717.422	34.55
717.605	34.28
717.788	34.15
717.971	34.82
718.154	34.83
718.337	34.6
718.519	33.94
718.702	33.52
718.885	32.97
719.068	33.31
719.25	32.46
719.433	32.64
719.616	31.78
719.798	31.89
719.981	31.66
720.164	31.68
720.346	31.8
720.529	31.99
720.712	30.96
720.894	31.66
721.077	31.53
721.259	32.04
721.442	31.69
721.624	33.09
721.807	32.05
721.989	32.36
722.172	32.59
722.354	32.94
722.537	33.51
722.719	33.81
722.901	33.7
723.084	33.59
723.266	34.32
723.448	33.7
723.631	33.44
723.813	33.67
723.995	34.17
724.178	33.69
724.36	32.41
724.542	32.53
724.724	33.33
724.907	33.84
725.089	34.04
725.271	33.51
725.453	35.05
725.635	34.31
725.817	35.07
725.999	33.94
726.181	33.95
726.364	35.08
726.546	34.4
726.728	34.76
726.91	33.31
727.092	33.07
727.274	33.53
727.456	33.55
727.638	34.7
727.819	33.6
728.001	34.09
728.183	33.31
728.365	33.13
728.547	33.37
728.729	33
728.911	33.27
729.093	33.03
729.274	32.23
729.456	31.14
729.638	29.99
729.82	30.11
730.001	29.79
730.183	30.93
730.365	31.09
730.546	30.8
730.728	31.14
730.91	31.77
731.091	31.66
731.273	31.62
731.455	32.88
731.636	33.16
731.818	33.89
731.999	33.71
732.181	33.72
732.362	33.82
732.544	34.17
732.725	34.15
732.907	34.5
733.088	34.71
733.27	35.74
733.451	34.18
733.633	34.14
733.814	33.48
733.995	33.15
734.177	34.79
734.358	34.64
734.539	34.85
734.721	35.05
734.902	34.04
735.083	34.22
735.264	32.45
735.446	32.61
735.627	31.96
735.808	32.89
735.989	32.53
736.17	30.84
736.351	30.33
736.533	30.97
736.714	31.17
736.895	31.44
737.076	31.42
737.257	32.82
737.438	33.53
737.619	34.41
737.8	34.24
737.981	35.31
738.162	34.78
738.343	35.48
738.524	34.35
738.705	33.55
738.886	33.33
739.067	33.35
739.247	32.52
739.428	32.62
739.609	32.73
739.79	31.56
739.971	31.79
740.151	31.53
740.332	30.4
740.513	30.65
740.694	31.09
740.874	31.33
741.055	30.93
741.236	31.16
741.417	31.28
741.597	29.79
741.778	31.02
741.958	30.41
742.139	30.59
742.32	31.18
742.5	31.38
742.681	30.59
742.861	30.41
743.042	30.3
743.222	30.88
743.403	30.1
743.583	32.19
743.764	31.8
743.944	32.3
744.124	31.84
744.305	31.61
744.485	31.66
744.666	30.35
744.846	30.26
745.026	31.13
745.207	30.92
745.387	31.08
745.567	31.28
745.747	31.09
745.928	30.66
746.108	31.48
746.288	32.09
746.468	32.38
746.648	34.8
746.829	35.51
747.009	35.44
747.189	36.87
747.369	37.2
747.549	36.45
747.729	37.39
747.909	37.11
748.089	35.92
748.269	36.34
748.449	36.26
748.629	35.56
748.809	35.06
748.989	34.7
749.169	33.4
749.349	33.19
749.529	32.28
749.709	32.78
749.889	33.31
750.068	34.22
750.248	34.01
750.428	33.76
750.608	33.42
750.788	33
750.967	33.62
751.147	33.52
751.327	34.27
751.507	34.17
751.686	32.65
751.866	33.88
752.046	33.67
752.225	33.47
752.405	33.43
752.585	33.12
752.764	33.47
752.944	32.95
753.123	32.55
753.303	32.38
753.482	33.62
753.662	35.06
753.841	33.46
754.021	33.59
754.2	32.08
754.38	32.12
754.559	33.85
754.739	33.66
754.918	33.98
755.097	35.39
755.277	34.72
755.456	33.86
755.635	33.25
755.815	33.7
755.994	33.55
756.173	34.62
756.352	33.69
756.532	32.56
756.711	33.44
756.89	33.18
757.069	32.99
757.248	32.39
757.427	32.75
757.607	33.21
757.786	32.71
757.965	33.08
758.144	33.7
758.323	33.14
758.502	32.44
758.681	31.65
758.86	31.2
759.039	31.87
759.218	32.98
759.397	33.13
759.576	32.35
759.755	32.41
759.934	30.93
760.113	30.55
760.291	30.65
760.47	32.2
760.649	32.04
760.828	32.42
761.007	30.48
761.186	30.62
761.364	30.39
761.543	31.28
761.722	32.06
761.901	32.97
762.079	32.91
762.258	33.47
762.437	32.46
762.615	33.41
762.794	32.33
762.972	33.64
763.151	33.19
763.33	32.75
763.508	32.21
763.687	33.1
763.865	33.66
764.044	34.55
764.222	35.44
764.401	36.15
764.579	35.34
764.758	37.11
764.936	36.35
765.114	36.71
765.293	38.13
765.471	38.42
765.65	37.22
765.828	36.71
766.006	36.14
766.184	35.03
766.363	34.28
766.541	34.34
766.719	32.41
766.898	32.97
767.076	33.06
767.254	32.38
767.432	33.29
767.61	33.42
767.788	34.12
767.967	33.93
768.145	34.31
768.323	34.53
768.501	34.72
768.679	36.18
768.857	36.03
769.035	36.12
769.213	35.81
769.391	34.36
769.569	33.31
769.747	31.89
769.925	32.2
770.103	31.44
770.281	31.68
770.459	32.35
770.636	32.29
770.814	32.29
770.992	31.87
771.17	31.74
771.348	32.05
771.525	33.21
771.703	32.84
771.881	32.13
772.059	32.42
772.236	32.42
772.414	31.88
772.592	33.78
772.769	32.92
772.947	33.21
773.125	34.05
773.302	32.32
773.48	31.45
773.657	32.55
773.835	33.5
774.013	34.74
774.19	34.61
774.368	35.12
774.545	32.55
774.723	32.12
774.9	30.59
775.077	30.05
775.255	31.42
775.432	32.14
775.61	31.81
775.787	30.75
775.964	32.38
776.142	32.12
776.319	32.03
776.496	31.29
776.674	31
776.851	32.53
777.028	33.66
777.205	33.98
777.382	33.35
777.56	32.72
777.737	32.15
777.914	29.69
778.091	29.82
778.268	30.18
778.445	32.4
778.622	33
778.8	30.86
778.977	31.23
779.154	30.62
779.331	29.73
779.508	31.68
779.685	31.98
779.862	34
780.038	34.32
780.215	34.18
780.392	33.73
780.569	33.45
780.746	34.65
780.923	33.64
781.1	32.62
781.277	35.08
781.453	33.59
781.63	33.41
781.807	33.24
781.984	32.46
782.16	32.94
782.337	32.2
782.514	32.81
782.691	33.66
782.867	32.8
783.044	34.42
783.221	32.87
783.397	34.15
783.574	33.51
783.75	32.16
783.927	30.93
784.103	28.46
784.28	27.92
784.456	29.05
784.633	29.48
784.809	29.85
784.986	27.28
785.162	26.97
785.339	26.45
785.515	28.28
785.692	28.11
785.868	29.59
786.044	31.15
786.221	31.28
786.397	29.65
786.573	28.01
786.749	29.44
786.926	31.82
787.102	32.12
787.278	32.65
787.454	31.8
787.631	34.06
787.807	33.1
787.983	30.73
788.159	30.52
788.335	28.31
788.511	27.74
788.687	27.1
788.863	26.98
789.039	28.35
789.216	24.89
789.392	25.47
789.568	24.53
789.744	26.8
789.919	28.18
790.095	28.16
790.271	30.38
790.447	34.22
790.623	34.81
790.799	34.88
790.975	34.34
791.151	35.73
791.327	34.43
791.502	33.42
791.678	32.53
791.854	34.63
792.03	35.12
792.205	36.58
792.381	34.29
792.557	32.05
792.733	31.52
792.908	30.46
793.084	28.98
793.259	32.5
793.435	33.64
793.611	30.77
793.786	29.47
793.962	26.76
794.137	22.93
794.313	21.59
794.488	21.18
794.664	21.66
794.839	21.69
795.015	24.14
795.19	22.29
795.366	20.92
795.541	23.48
795.716	22.97
795.892	24.58
796.067	27.12
796.242	27.1
796.418	29.48
796.593	30.7
796.768	29.99
796.944	33.29
797.119	35.13
797.294	35.61
797.469	37.2
797.644	38.19
797.82	39.07
797.995	39.56
798.17	39.61
798.345	36.84
798.52	34.31
798.695	36.92
798.87	35.2
799.045	31.64
799.22	31.82
799.395	30.53
799.57	30.97
799.745	32.99
799.92	33.23
800.095	36.31
800.27	39.05
800.445	40.38
800.62	37.92
800.795	38.39
800.97	41.76
801.145	43
801.319	44.52
801.494	43.81
801.669	42.98
801.844	41.58
802.018	39.11
802.193	36.35
802.368	33.63
802.543	33.23
802.717	33.88
802.892	32.65
803.067	32.79
803.241	30.94
803.416	30.89
803.59	29.45
803.765	30.91
803.94	32.33
804.114	35.11
804.289	35.93
804.463	38.55
804.638	38.06
804.812	37.37
804.986	35.47
805.161	36.09
805.335	37.68
805.51	38.72
805.684	35.33
805.858	34.37
806.033	35.86
806.207	37.24
806.381	36.05
806.556	32.67
806.73	31.19
806.904	30.79
807.078	29.52
807.253	31.1
807.427	28.59
807.601	29.05
807.775	32.71
807.949	29.51
808.123	30.12
808.298	31.14
808.472	31.05
808.646	35.4
808.82	35.35
808.994	36.66
809.168	33.1
809.342	34.42
809.516	33.41
809.69	29.33
809.864	30.31
810.038	25.38
810.212	22.19
810.385	27.22
810.559	25.49
810.733	27.34
810.907	29.73
811.081	28.9
811.255	27.46
811.428	34.2
811.602	30.93
811.776	33.7
811.95	38.09
812.123	37.95
812.297	33.56
812.471	31.56
812.644	31.59
812.818	26.7
812.992	27.18
813.165	25.75
813.339	21.09
813.512	23.86
813.686	17.97
813.86	16.65
814.033	18.06
814.207	20.93
814.38	23.53
814.554	19.07
814.727	22.25
814.9	17.04
815.074	21.2
815.247	19.37
815.421	20.58
815.594	22.75
815.767	24.22
815.941	23.27
816.114	19.84
816.287	20.21
816.46	23.58
816.634	21.95
816.807	23.83
816.98	23.98
817.153	27.04
817.327	28.7
817.5	25.34
817.673	25.23
817.846	28.21
818.019	30.86
818.192	28.03
818.365	27.04
818.538	28.48
818.711	29.77
818.884	28.95
819.057	29.56
819.23	28.5
819.403	31.72
819.576	33.12
819.749	31.44
819.922	31.33
820.095	32.92
820.268	33.4
820.441	30.41
820.614	31.36
820.786	30.48
820.959	32.95
821.132	31.97
821.305	32.27
821.477	31.44
821.65	32.48
821.823	32.53
821.996	32.12
822.168	31.03
822.341	32.23
822.514	32.01
822.686	32.97
822.859	31.98
823.031	32.76
823.204	31.85
823.376	32.8
823.549	32.98
823.722	32.61
823.894	32.7
824.067	32.94
824.239	32.56
824.411	32.39
824.584	32.06
824.756	31.57
824.929	30.41
825.101	31.46
825.273	29.51
825.446	28.52
825.618	28.44
825.79	29.82
825.963	29.77
826.135	29.67
826.307	30.89
826.479	30.04
826.652	30.85
826.824	32.39
826.996	31.81
827.168	32.27
827.34	33.15
827.512	32.88
827.684	30.8
827.856	30.57
828.029	30.68
828.201	30.58
828.373	29.53
828.545	29.62
828.717	29.98
828.889	30.32
829.061	31.72
829.232	30.97
829.404	32.22
829.576	33.87
829.748	34.3
829.92	33.59
830.092	31.96
830.264	34.59
830.436	34.15
830.607	32.83
830.779	33.08
830.951	32.84
831.123	28.68
831.294	26.07
831.466	26.4
831.638	25.91
831.809	26.15
831.981	22.47
832.153	20.19
832.324	17.42
832.496	12.78
832.667	13.94
832.839	14.78
833.011	14.84
833.182	17.01
833.354	16.2
833.525	21.71
833.697	20.99
833.868	24.41
834.039	25.92
834.211	27.12
834.382	29.59
834.554	29.76
834.725	25.96
834.896	30.59
835.068	30.66
835.239	28.18
835.41	24.47
835.581	25.67
835.753	25.99
835.924	26.62
836.095	26.25
836.266	27.05
836.438	25.32
836.609	25.79
836.78	21.7
836.951	21.26
837.122	21.4
837.293	21.68
837.464	22.8
837.635	22.36
837.806	19
837.977	15.72
838.148	16.11
838.319	14.17
838.49	14.09
838.661	14.97
838.832	19.62
839.003	22.92
839.174	26.03
839.345	23.2
839.516	19.25
839.687	22.76
839.857	25.98
840.028	24.63
840.199	24.72
840.37	27.67
840.54	29
840.711	27.04
840.882	27.17
841.053	25.67
841.223	23.31
841.394	29.14
841.564	28.22
841.735	26.24
841.906	25.39
842.076	30.4
842.247	29.78
842.417	27.62
842.588	32.11
842.758	35.45
842.929	37.41
843.099	39.59
843.27	38.48
843.44	33.67
843.611	36.52
843.781	30.23
843.951	17.77
844.122	19.9
844.292	26.7
844.462	23.2
844.633	13.2
844.803	9.59
844.973	19.09
845.144	-0.22
845.314	11.61
845.484	18.18
845.654	30.12
845.824	43.41
845.995	34.6
846.165	24.26
846.335	4.14
846.505	2.38
846.675	-4.14
846.845	-27.7
847.015	-2.54
847.185	-1.07
847.355	-3.21
847.525	-17.45
847.695	-46.63
847.865	-31.17
848.035	-8.91
848.205	19.9
848.375	22.4
848.545	6.9
848.715	6.97
848.884	8.99
849.054	4.9
849.224	6.32
849.394	10.7
849.564	4.15
849.733	18.93
849.903	23.08
850.073	24.75
850.243	30.66
850.412	39.87
850.582	57.47
850.752	50.97
850.921	47.93
851.091	45.78
851.26	52.31
851.43	53.6
851.599	22.84
851.769	9.08
851.939	-30.86
852.108	-21.2
852.278	-11.92
852.447	-23.97
852.616	-18.69
852.786	-17.62
852.955	-2.2
853.125	-17.75
853.294	-7.04
853.463	15.5
853.633	19.69
853.802	22.28
853.971	25.52
854.141	18.16
854.31	18.34
854.479	3
854.648	-6.73
854.818	6.12
854.987	19.08
855.156	28.3
855.325	30.17
855.494	26.17
855.663	42.13
855.832	43.6
856.001	43.19
856.171	44.46
856.34	66.03
856.509	74.13
856.678	52.39
856.847	41.08
857.016	26.15
857.185	14.46
857.353	21.26
857.522	17.43
857.691	8.24
857.86	24.68
858.029	18.87
858.198	9.27
858.367	1.65
858.535	11.35
858.704	22.22
858.873	26.46
859.042	28.17
859.21	27.62
859.379	28.86
859.548	30.46
859.717	25.11
859.885	19.79
860.054	15.91
860.222	15.3
860.391	19.66
860.56	10.98
860.728	0.91
860.897	11.29
861.065	6.66
861.234	12.74
861.402	12.94
861.571	12.24
861.739	3.88
861.908	25.24
862.076	33.18
862.244	29.55
862.413	30.04
862.581	47.55
862.749	48.39
862.918	50.72
863.086	55.16
863.254	44.42
863.423	44.5
863.591	57.1
863.759	33.16
863.927	29.84
864.096	34.61
864.264	43.45
864.432	34.1
864.6	11.29
864.768	11.51
864.936	-6.64
865.104	-4
865.272	-20.97
865.44	-38.49
865.608	-20.91
865.776	-8.45
865.944	-29.74
866.112	-47.21
866.28	-44.33
866.448	-34.08
866.616	-32.28
866.784	-20.32
866.952	-9.62
867.12	-8.17
867.288	5.16
867.455	-17.14
867.623	-24.09
867.791	-18.02
867.959	10.56
868.127	8.84
868.294	15.2
868.462	7.44
868.63	14.07
868.797	10.55
868.965	15.29
869.133	15.83
869.3	10.69
869.468	18.23
869.636	23.66
869.803	10.87
869.971	8.94
870.138	14.58
870.306	19.03
870.473	5.06
870.641	-13.21
870.808	-5.14
870.975	-5.89
871.143	9.2
871.31	1.36
871.478	-3.11
871.645	14.28
871.812	16.95
871.98	0.02
872.147	-10.96
872.314	-4.39
872.482	-2.15
872.649	-20.99
872.816	-17.94
872.983	-29.16
873.15	-17.3
873.318	-26.69
873.485	-61.92
873.652	-57.13
873.819	-48.11
873.986	-26.95
874.153	-26.67
874.32	-14.17
874.487	-11.04
874.654	-29.92
874.821	-22.06
874.988	-29.96
875.155	-53.81
875.322	-48.23
875.489	-45.96
875.656	-108.76
875.823	-90.63
875.99	-103.88
876.157	-135.62
876.324	-95.62
876.49	-65.74
876.657	-60.95
876.824	-59.48
876.991	-42.21
877.157	-40.33
877.324	-50.16
877.491	-35.56
877.658	-46.35
877.824	-24.08
877.991	-10.05
878.157	-6.91
878.324	-16.45
878.491	-3.67
878.657	-27.84
878.824	-55.26
878.99	-94.6
879.157	-4.96
879.323	5.5
879.49	34.08
879.656	15.34
879.823	21.96
879.989	3.53
880.156	16.54
880.322	-5.08
880.488	6.51
880.655	21.76
880.821	17.67
880.987	11.71
881.154	9.26
881.32	9.28
881.486	11.76
881.652	13.6
881.819	18.03
881.985	12.19
882.151	13.41
882.317	16.18
882.483	16.29
882.649	24.07
882.816	23.58
882.982	29.27
883.148	28.6
883.314	27.75
883.48	26.58
883.646	26.22
883.812	27.98
883.978	29.62
884.144	29.21
884.31	30.37
884.476	27.5
884.642	27.53
884.807	25.09
884.973	23.12
885.139	26.56
885.305	27.02
885.471	26.83
885.637	27.78
885.802	27.98
885.968	26.03
886.134	26.29
886.3	28.94
886.465	21.43
886.631	21.38
886.797	25.25
886.962	21.71
887.128	24.44
887.293	21.89
887.459	22.7
887.625	22.59
887.79	26.01
887.956	28.94
888.121	25.99
888.287	42.28
888.452	35.13
888.618	30.15
888.783	34.95
