Data from 2938072_Reflection_1.txt Node
Date: Sat Jul 11 20:34:14 EDT 2015
User: robert
Spectrometer: USB4E03001
Autoset integration time: false
Trigger mode: 4
Integration Time (sec): 1.000000E-1
Scans to average: 10
Electric dark correction enabled: true
Nonlinearity correction enabled: false
Boxcar width: 5
Stray light correction enabled: false
XAxis mode: Wavelengths
Stop averaging: false
Number of Pixels in Spectrum: 3648
>>>>>Begin Spectral Data<<<<<
177.566	46.15
177.785	86.04
178.005	77
178.225	60.19
178.445	63.31
178.665	106.61
178.885	-68.9
179.105	121.25
179.324	161.23
179.544	279.81
179.764	246.63
179.984	-220.51
180.204	-114.81
180.423	-58.7
180.643	82.94
180.863	42.2
181.083	-45.2
181.302	-18.64
181.522	8.6
181.742	43.19
181.961	70.16
182.181	64.9
182.401	88.05
182.621	17.62
182.84	26.94
183.06	-5.25
183.279	-4.72
183.499	38.35
183.719	34.89
183.938	46.95
184.158	48.53
184.377	37.63
184.597	46.63
184.816	45.99
185.036	66.28
185.256	54.95
185.475	69.61
185.695	100.99
185.914	75.56
186.134	91.96
186.353	86.53
186.572	57.78
186.792	91.23
187.011	58.66
187.231	36.73
187.45	-9.99
187.67	36.39
187.889	-16.61
188.108	1127.15
188.328	153.9
188.547	157.31
188.766	391.74
188.986	286.84
189.205	-53.54
189.424	-26.5
189.644	9.82
189.863	20.51
190.082	-43.32
190.302	5.63
190.521	-43.98
190.74	-5.81
190.959	-92.19
191.178	-147.94
191.398	-78.52
191.617	-46.14
191.836	-25.35
192.055	-13.5
192.274	-5.76
192.494	-32
192.713	-4.34
192.932	42.82
193.151	39.8
193.37	35.75
193.589	14.62
193.808	-0.65
194.027	-0.13
194.246	4.9
194.465	7.96
194.685	6.38
194.904	4.27
195.123	21.71
195.342	33.76
195.561	12.97
195.78	-23.49
195.999	-88.23
196.218	-10.26
196.436	148.12
196.655	83.54
196.874	55.73
197.093	7.51
197.312	79.32
197.531	189.45
197.75	1299.24
197.969	-150.36
198.188	18.77
198.407	75.65
198.625	51.22
198.844	45.65
199.063	25.57
199.282	10.12
199.501	28.04
199.719	40.48
199.938	8.31
200.157	38.39
200.376	12.92
200.594	6.81
200.813	19.08
201.032	-62.88
201.251	96.87
201.469	172.03
201.688	116.01
201.907	83.16
202.125	39.63
202.344	88.62
202.563	112.76
202.781	73.2
203	80.67
203.218	52.61
203.437	45.76
203.656	33.83
203.874	11.38
204.093	-5.66
204.311	1059.24
204.53	-529.55
204.748	298.9
204.967	441.46
205.185	185.26
205.404	253.14
205.622	119.34
205.841	111.61
206.059	37.52
206.278	-240.59
206.496	607.78
206.715	187.72
206.933	168.98
207.151	143.28
207.37	114.66
207.588	143.67
207.806	100.78
208.025	82.78
208.243	113
208.461	103.07
208.68	74.47
208.898	61.24
209.116	60.05
209.335	37.66
209.553	25.13
209.771	-1.31
209.989	41.25
210.208	55.51
210.426	83.22
210.644	65.5
210.862	44.89
211.081	25.61
211.299	27.33
211.517	37.46
211.735	15.92
211.953	40.65
212.171	50.62
212.39	44.19
212.608	42.38
212.826	22.58
213.044	14.17
213.262	19.77
213.48	13.2
213.698	14.45
213.916	-49.77
214.134	-186.81
214.352	-138.12
214.57	-107.24
214.788	-45.7
215.006	-19.97
215.224	21.75
215.442	67.03
215.66	28.87
215.878	30.54
216.096	-3.99
216.314	-6.6
216.532	47.09
216.75	44.86
216.968	12.76
217.185	-37.03
217.403	-67.4
217.621	-67.1
217.839	-99.32
218.057	-80.35
218.275	-65.54
218.492	-21.25
218.71	-17.33
218.928	-7.34
219.146	-4.05
219.363	15.44
219.581	14.52
219.799	22.74
220.017	-7.39
220.234	1.09
220.452	13.37
220.67	43.23
220.887	32.94
221.105	13.98
221.323	-14.52
221.54	-16.23
221.758	-29.97
221.976	-26.7
222.193	-23.62
222.411	-39.58
222.629	-68.92
222.846	-42.1
223.064	-88.88
223.281	-114.02
223.499	-94.6
223.716	-59.07
223.934	-76
224.151	-106.98
224.369	-123.35
224.586	-61.29
224.804	2.65
225.021	4.53
225.239	-7.83
225.456	8.67
225.674	15.75
225.891	16.19
226.108	17.22
226.326	19.94
226.543	32.48
226.76	35.48
226.978	29.22
227.195	20.46
227.413	16.06
227.63	10.44
227.847	12.56
228.064	9.25
228.282	11.2
228.499	12.07
228.716	10.19
228.934	7.78
229.151	8.32
229.368	7.79
229.585	9.93
229.802	12.65
230.02	14.42
230.237	11.46
230.454	12.02
230.671	9.32
230.888	8.39
231.105	8.37
231.323	8.68
231.54	8.45
231.757	4.36
231.974	2.09
232.191	2.8
232.408	3.17
232.625	9.59
232.842	8.38
233.059	7.84
233.276	7.61
233.493	9.25
233.71	7.19
233.927	8.76
234.144	14.04
234.361	15.42
234.578	10.78
234.795	6.35
235.012	1.32
235.229	7.47
235.446	11.48
235.663	10.26
235.879	12.44
236.096	13.3
236.313	10.95
236.53	9.27
236.747	13.45
236.964	18.72
237.181	24.35
237.397	26.03
237.614	18.55
237.831	20.31
238.048	17.13
238.264	13.5
238.481	12.98
238.698	11.91
238.915	14.68
239.131	5.52
239.348	-1.79
239.565	-0.34
239.781	6.37
239.998	6.28
240.215	5.73
240.431	10.5
240.648	15.68
240.865	15.41
241.081	17.58
241.298	17.9
241.514	18.43
241.731	18.05
241.947	15.68
242.164	13.59
242.38	14.1
242.597	14.08
242.814	12.49
243.03	11.64
243.246	11.25
243.463	10.44
243.679	9.82
243.896	11.26
244.112	11.99
244.329	11.67
244.545	11.1
244.762	12.21
244.978	10.8
245.194	11.49
245.411	9.45
245.627	9.33
245.843	8.66
246.06	9.35
246.276	5.4
246.492	5.31
246.709	5.68
246.925	6.51
247.141	6.03
247.357	6.24
247.574	6.3
247.79	5.81
248.006	5.7
248.222	6.31
248.439	5.63
248.655	6.29
248.871	5.99
249.087	5.7
249.303	4.9
249.519	4.95
249.736	5.66
249.952	5.11
250.168	7.68
250.384	5.35
250.6	3.68
250.816	4.64
251.032	6.49
251.248	7.2
251.464	8.04
251.68	7.82
251.896	6.23
252.112	3.41
252.328	2.16
252.544	-0.25
252.76	0.43
252.976	2.04
253.192	1.47
253.408	0.1
253.624	-0.89
253.84	-4.69
254.056	-7.13
254.272	-7.37
254.487	-8
254.703	-7.14
254.919	-8.71
255.135	-4.96
255.351	-8.01
255.567	-7.85
255.782	-9.08
255.998	-6.62
256.214	-0.82
256.43	3.28
256.646	4.24
256.861	7.17
257.077	6.28
257.293	8.37
257.508	8.38
257.724	7.43
257.94	8.08
258.155	9.74
258.371	9.11
258.587	9.23
258.802	7.52
259.018	7.76
259.234	8.39
259.449	8.29
259.665	8.01
259.88	8.24
260.096	8.43
260.312	7.83
260.527	8.12
260.743	8.37
260.958	8.17
261.174	8.93
261.389	8.97
261.605	8.92
261.82	8.72
262.036	8.74
262.251	7.28
262.466	6.49
262.682	6.93
262.897	4.83
263.113	3.94
263.328	4.56
263.543	1.29
263.759	0.49
263.974	-3.02
264.189	-1.95
264.405	-2.37
264.62	-1.68
264.835	0.82
265.051	-0.74
265.266	0.53
265.481	0.33
265.696	-2.04
265.912	1.46
266.127	1.81
266.342	2.98
266.557	3.59
266.773	3.56
266.988	3.18
267.203	2.35
267.418	2.87
267.633	3.45
267.848	2.93
268.064	3.75
268.279	2.92
268.494	1
268.709	1.18
268.924	0.61
269.139	0.46
269.354	3.13
269.569	2.65
269.784	3.43
269.999	2.25
270.214	2.69
270.429	1.3
270.644	0.95
270.859	4.45
271.074	3.76
271.289	4.32
271.504	6.32
271.719	5.32
271.934	5.81
272.149	5.38
272.363	6.18
272.578	6.35
272.793	7.52
273.008	7.77
273.223	7.62
273.438	7.58
273.653	6.73
273.867	5.17
274.082	4.93
274.297	4.89
274.512	3.84
274.726	4.61
274.941	5.36
275.156	5.54
275.371	6.94
275.585	6.2
275.8	7.65
276.015	8.9
276.229	9.78
276.444	9.69
276.659	8.75
276.873	10.42
277.088	8.66
277.302	7.05
277.517	5.85
277.732	5.05
277.946	5.65
278.161	4.89
278.375	5.22
278.59	5.7
278.804	6.56
279.019	8.39
279.233	8.69
279.448	9.87
279.662	10.56
279.877	10.18
280.091	9.06
280.306	8.56
280.52	10.99
280.735	9.55
280.949	7.72
281.163	6.85
281.378	8.55
281.592	8.17
281.806	8.71
282.021	8.85
282.235	10.24
282.449	9.89
282.664	9.53
282.878	7.81
283.092	7.87
283.307	9.13
283.521	8.51
283.735	5.75
283.949	5.27
284.164	5.51
284.378	6.58
284.592	6.1
284.806	6.72
285.02	7.95
285.234	6.75
285.449	7.37
285.663	6.14
285.877	7.64
286.091	8.05
286.305	8.41
286.519	7.87
286.733	6.72
286.947	6.63
287.161	6.53
287.375	4.31
287.589	5.68
287.803	5.36
288.017	6.47
288.231	4.44
288.445	4.09
288.659	2.3
288.873	3.65
289.087	4.45
289.301	5.6
289.515	5.84
289.729	7.22
289.943	6.25
290.157	5.81
290.371	6.3
290.584	7.39
290.798	8.14
291.012	9.79
291.226	9.23
291.44	10.26
291.654	9.09
291.867	9.9
292.081	9.88
292.295	9.59
292.509	10.08
292.722	9.88
292.936	9.76
293.15	9.36
293.364	10.15
293.577	8.94
293.791	7.28
294.005	7.58
294.218	6.87
294.432	6.63
294.645	7.28
294.859	7.65
295.073	6.65
295.286	8.11
295.5	7.25
295.713	5.89
295.927	7.68
296.14	7.7
296.354	7.7
296.568	7.49
296.781	8.69
296.994	9.31
297.208	8.6
297.421	9.54
297.635	8.4
297.848	9.16
298.062	10.29
298.275	9.78
298.489	10.7
298.702	10.3
298.915	9.96
299.129	7.98
299.342	7.46
299.555	7.71
299.769	6.67
299.982	6.43
300.195	6.07
300.409	5.34
300.622	4.67
300.835	4.85
301.048	5.67
301.262	8.1
301.475	9.74
301.688	9.84
301.901	10.47
302.115	10.43
302.328	10.44
302.541	10.16
302.754	10.21
302.967	10.1
303.18	9.45
303.393	10.43
303.607	9.96
303.82	7.62
304.033	8.22
304.246	6.94
304.459	8.96
304.672	8.81
304.885	9.63
305.098	9.32
305.311	9.26
305.524	10.76
305.737	9.34
305.95	8.31
306.163	9.54
306.376	9.43
306.589	11.79
306.802	11.04
307.015	12.28
307.228	12.68
307.44	13.21
307.653	13.45
307.866	11.07
308.079	12.25
308.292	12.66
308.505	14.04
308.718	12.69
308.93	11.88
309.143	10.74
309.356	9.91
309.569	9.75
309.781	9.52
309.994	8.73
310.207	9.92
310.42	9.32
310.632	9.43
310.845	8.97
311.058	10.1
311.27	9.28
311.483	10.25
311.696	11.12
311.908	11.35
312.121	10.74
312.333	11.92
312.546	11.47
312.759	10.89
312.971	9.82
313.184	9.95
313.396	10.8
313.609	11.46
313.821	9.79
314.034	6.71
314.246	5.63
314.459	6.08
314.671	5.67
314.884	6.16
315.096	5.78
315.309	5.76
315.521	5.59
315.733	4.47
315.946	3.5
316.158	5.8
316.371	8.4
316.583	8.94
316.795	7.39
317.008	7.81
317.22	8.31
317.432	9.23
317.644	11.31
317.857	12.21
318.069	9.65
318.281	10.69
318.494	10.03
318.706	10.51
318.918	9.97
319.13	13.22
319.342	13.21
319.555	13.32
319.767	13.37
319.979	11.19
320.191	9.85
320.403	12.65
320.615	13.09
320.827	13.19
321.039	13.8
321.252	14.5
321.464	12.56
321.676	12.26
321.888	11.93
322.1	11.66
322.312	13.09
322.524	13.28
322.736	13.38
322.948	11.82
323.16	10.57
323.372	9.44
323.584	9
323.796	9.55
324.007	8.97
324.219	8.48
324.431	8.46
324.643	8.23
324.855	8.88
325.067	8.43
325.279	7.95
325.491	9.26
325.702	9.94
325.914	10.75
326.126	11.01
326.338	11.38
326.55	11.26
326.761	12.09
326.973	11.29
327.185	11.06
327.396	10.61
327.608	11.92
327.82	12.3
328.032	11.94
328.243	12.45
328.455	12.01
328.666	10.99
328.878	11.21
329.09	9.37
329.301	11.39
329.513	10.09
329.725	10.98
329.936	11.3
330.148	9.43
330.359	8.41
330.571	8.82
330.782	9.25
330.994	10.82
331.205	10.22
331.417	12.04
331.628	10.47
331.84	11.42
332.051	10.29
332.262	8.02
332.474	8.15
332.685	9.47
332.897	8.51
333.108	8.59
333.319	8.25
333.531	8.05
333.742	7.55
333.953	7.26
334.165	7.46
334.376	7.9
334.587	10.28
334.799	10.29
335.01	10.28
335.221	9.41
335.432	8.46
335.644	8.49
335.855	7.68
336.066	8.16
336.277	8.1
336.488	7.8
336.7	8.37
336.911	8.14
337.122	9.36
337.333	7.64
337.544	8.52
337.755	9.46
337.966	10.96
338.177	12
338.388	11.03
338.599	12.09
338.811	10.35
339.022	9.7
339.233	9.2
339.444	8.92
339.655	9.94
339.866	8.82
340.076	8.26
340.287	7.37
340.498	8.68
340.709	8.53
340.92	8.5
341.131	9.62
341.342	9.08
341.553	9.76
341.764	9
341.975	8.57
342.185	8.35
342.396	7.97
342.607	7.71
342.818	5.98
343.029	7.04
343.239	5.86
343.45	6.82
343.661	6.92
343.872	5.86
344.082	6.82
344.293	8.25
344.504	8.22
344.714	8.06
344.925	8.08
345.136	9.98
345.346	9.83
345.557	10.45
345.768	11.23
345.978	11.4
346.189	12.59
346.399	13
346.61	11.75
346.821	12.48
347.031	13.98
347.242	14.55
347.452	13.28
347.663	13.65
347.873	13.38
348.084	12.59
348.294	12.94
348.504	11.87
348.715	10.76
348.925	10.36
349.136	10.88
349.346	9.29
349.557	7.91
349.767	7.89
349.977	6.88
350.188	7.07
350.398	7.66
350.608	8.27
350.819	9.03
351.029	8.82
351.239	9.22
351.449	9.9
351.66	9.3
351.87	10.19
352.08	10.21
352.29	9.75
352.501	10.6
352.711	11.23
352.921	10.36
353.131	9.64
353.341	9.53
353.552	9.61
353.762	7.83
353.972	9
354.182	8.04
354.392	7.91
354.602	7.89
354.812	7.49
355.022	6.54
355.232	8.22
355.442	8.51
355.652	8.83
355.862	9.29
356.072	9.53
356.282	8.44
356.492	9.23
356.702	9.71
356.912	10.98
357.122	10.01
357.332	9.89
357.542	8.88
357.752	8.07
357.962	8.81
358.171	8.21
358.381	8.92
358.591	10.27
358.801	10.22
359.011	9.93
359.221	9.68
359.43	9.94
359.64	9.52
359.85	9.24
360.06	9.12
360.269	8.33
360.479	8.93
360.689	8.08
360.899	6.78
361.108	6.66
361.318	7.7
361.528	7.97
361.737	8.23
361.947	8.88
362.156	8.83
362.366	10.03
362.576	9.92
362.785	9.57
362.995	10.05
363.204	10.84
363.414	10.96
363.623	10.22
363.833	9.17
364.042	9.8
364.252	9.65
364.461	9.95
364.671	9.53
364.88	9.45
365.09	9.72
365.299	9.91
365.509	9.58
365.718	9.46
365.927	9.08
366.137	9.15
366.346	8.02
366.555	8.17
366.765	8.15
366.974	7.4
367.183	7.1
367.393	7.07
367.602	6.28
367.811	5.94
368.021	5.86
368.23	6.6
368.439	7
368.648	6.97
368.857	6.45
369.067	5.53
369.276	5.86
369.485	6.55
369.694	6.62
369.903	7.36
370.112	6.87
370.321	6.86
370.531	6.21
370.74	5.89
370.949	6.04
371.158	6.21
371.367	6.69
371.576	7.08
371.785	7.49
371.994	7.45
372.203	7.11
372.412	8.07
372.621	7.96
372.83	7.9
373.039	7.87
373.248	7.94
373.457	6.61
373.666	6.15
373.874	5.45
374.083	5.11
374.292	5.2
374.501	4.67
374.71	4.07
374.919	3.69
375.128	3.42
375.336	3.18
375.545	3.39
375.754	4.12
375.963	4.65
376.171	4.17
376.38	3.34
376.589	2.88
376.798	3.39
377.006	3.4
377.215	3.51
377.424	3.85
377.632	3.89
377.841	3.81
378.05	4.31
378.258	3.82
378.467	4.53
378.675	4.8
378.884	4.8
379.093	4.76
379.301	4.63
379.51	4.42
379.718	4.34
379.927	4.69
380.135	5.02
380.344	4.43
380.552	4.85
380.761	5.14
380.969	5.76
381.177	5.92
381.386	5.42
381.594	5.85
381.803	6.14
382.011	6.5
382.219	7.19
382.428	6.85
382.636	7.24
382.845	7.48
383.053	6.34
383.261	5.51
383.469	5.41
383.678	5.55
383.886	5.72
384.094	6.07
384.302	5.73
384.511	5.6
384.719	5.81
384.927	5.69
385.135	5.38
385.343	5.99
385.552	6.28
385.76	6.53
385.968	6.66
386.176	6.47
386.384	5.77
386.592	5.4
386.8	4.83
387.008	4.28
387.216	3.97
387.424	4.05
387.633	4.04
387.841	4.04
388.049	3.48
388.257	3.5
388.465	3.53
388.672	3.74
388.88	3.67
389.088	3.73
389.296	3.9
389.504	4.03
389.712	3.85
389.92	3.62
390.128	3.66
390.336	4.12
390.544	4.16
390.751	4.15
390.959	4.21
391.167	4.43
391.375	4.45
391.583	4.68
391.79	4.87
391.998	5.02
392.206	5.2
392.414	4.98
392.621	5.09
392.829	5.19
393.037	4.76
393.244	4.82
393.452	4.85
393.66	4.9
393.867	4.51
394.075	4.29
394.283	3.92
394.49	3.97
394.698	4.17
394.905	3.99
395.113	3.62
395.32	3.75
395.528	3.39
395.735	3.36
395.943	3.47
396.15	3.9
396.358	3.84
396.565	3.89
396.773	3.57
396.98	3.77
397.188	3.62
397.395	3.79
397.602	4.03
397.81	4.03
398.017	3.89
398.225	3.62
398.432	3.47
398.639	3.54
398.847	3.69
399.054	3.89
399.261	3.8
399.468	3.4
399.676	3.24
399.883	3.29
400.09	3.55
400.297	3.27
400.505	3.16
400.712	3.28
400.919	2.91
401.126	2.79
401.333	2.87
401.54	2.39
401.748	2.85
401.955	2.75
402.162	2.79
402.369	2.82
402.576	3.01
402.783	2.87
402.99	2.65
403.197	3.14
403.404	3.06
403.611	2.87
403.818	2.95
404.025	2.93
404.232	2.93
404.439	2.66
404.646	2.5
404.853	2.58
405.06	2.45
405.267	2.3
405.474	2.19
405.681	2.23
405.887	2.27
406.094	2.53
406.301	2.49
406.508	2.6
406.715	2.62
406.922	2.64
407.128	2.63
407.335	2.9
407.542	2.96
407.749	2.82
407.955	3.02
408.162	3.05
408.369	2.74
408.575	2.8
408.782	2.96
408.989	2.74
409.195	2.63
409.402	2.66
409.609	2.77
409.815	2.66
410.022	2.98
410.228	3.18
410.435	3.25
410.642	3.39
410.848	3.39
411.055	3.33
411.261	4.02
411.468	4.23
411.674	4.5
411.881	4.64
412.087	4.9
412.294	4.77
412.5	4.46
412.706	4.46
412.913	4.45
413.119	4.54
413.326	4.41
413.532	4.13
413.738	4.13
413.945	3.74
414.151	3.69
414.357	3.3
414.564	3.09
414.77	3.09
414.976	3.11
415.182	2.93
415.389	2.78
415.595	2.99
415.801	2.96
416.007	2.83
416.214	3.15
416.42	3.21
416.626	3.29
416.832	3.31
417.038	3.28
417.244	3.05
417.45	3.18
417.657	3.1
417.863	3.02
418.069	3.09
418.275	3.14
418.481	2.93
418.687	2.66
418.893	2.72
419.099	2.83
419.305	2.74
419.511	2.84
419.717	2.69
419.923	2.88
420.129	2.74
420.335	2.53
420.541	2.43
420.746	2.38
420.952	2.38
421.158	2.29
421.364	2.06
421.57	2.2
421.776	2.18
421.982	2.22
422.187	1.94
422.393	1.96
422.599	2.1
422.805	2.1
423.01	2.13
423.216	2.17
423.422	2.33
423.628	2.52
423.833	2.48
424.039	2.44
424.245	2.41
424.45	2.55
424.656	2.61
424.862	2.57
425.067	2.58
425.273	2.6
425.478	2.64
425.684	2.64
425.889	2.54
426.095	2.48
426.301	2.32
426.506	2.36
426.712	2.36
426.917	2.27
427.123	2.18
427.328	2.17
427.533	2.18
427.739	2.36
427.944	2.51
428.15	2.64
428.355	2.49
428.561	2.81
428.766	2.85
428.971	2.74
429.177	2.87
429.382	2.88
429.587	2.83
429.793	2.79
429.998	2.65
430.203	2.17
430.408	2.06
430.614	2.29
430.819	2.38
431.024	2.39
431.229	2.43
431.434	2.28
431.64	2.37
431.845	2.55
432.05	2.68
432.255	2.58
432.46	2.58
432.665	2.66
432.87	2.74
433.076	2.8
433.281	2.65
433.486	2.64
433.691	2.71
433.896	2.66
434.101	2.72
434.306	2.73
434.511	2.84
434.716	3.1
434.921	2.98
435.126	2.96
435.331	2.73
435.535	2.8
435.74	2.75
435.945	2.65
436.15	2.74
436.355	2.57
436.56	2.32
436.765	2.14
436.97	2.14
437.174	2.23
437.379	2.05
437.584	1.89
437.789	1.87
437.993	2.06
438.198	2.11
438.403	1.97
438.608	2.06
438.812	2.27
439.017	2.35
439.222	2.22
439.426	2.09
439.631	2.34
439.836	2.51
440.04	2.67
440.245	2.7
440.45	2.72
440.654	2.89
440.859	2.76
441.063	2.59
441.268	2.47
441.472	2.45
441.677	2.47
441.881	2.35
442.086	2.51
442.29	2.41
442.495	2.35
442.699	2.3
442.904	2.2
443.108	2.4
443.312	2.57
443.517	2.54
443.721	2.47
443.925	2.62
444.13	2.59
444.334	2.39
444.538	2.3
444.743	2.44
444.947	2.57
445.151	2.52
445.356	2.34
445.56	2.27
445.764	2.49
445.968	2.57
446.173	2.53
446.377	2.47
446.581	2.58
446.785	2.63
446.989	2.45
447.193	2.33
447.398	2.31
447.602	2.34
447.806	2.33
448.01	2.28
448.214	2.23
448.418	2.25
448.622	2.15
448.826	1.78
449.03	1.76
449.234	1.76
449.438	1.98
449.642	1.81
449.846	1.81
450.05	1.85
450.254	1.67
450.458	1.72
450.662	1.81
450.866	2.09
451.069	2.44
451.273	2.55
451.477	2.48
451.681	2.21
451.885	2.42
452.089	2.38
452.292	2.3
452.496	2.27
452.7	2.17
452.904	2
453.107	1.96
453.311	2.02
453.515	1.84
453.719	1.93
453.922	2.07
454.126	2.12
454.33	2.17
454.533	2.23
454.737	2.33
454.94	2.46
455.144	2.44
455.348	2.27
455.551	2.1
455.755	2.07
455.958	2.14
456.162	1.93
456.365	1.85
456.569	1.81
456.772	1.73
456.976	1.87
457.179	1.8
457.383	1.81
457.586	2.05
457.79	1.99
457.993	2.09
458.196	2.06
458.4	2.22
458.603	2.28
458.807	2.25
459.01	2.27
459.213	2.31
459.417	2.34
459.62	2.42
459.823	2.22
460.026	2.33
460.23	2.29
460.433	2.19
460.636	1.99
460.839	2.02
461.042	2.05
461.246	2.03
461.449	2.01
461.652	1.9
461.855	1.97
462.058	1.94
462.261	1.92
462.464	1.9
462.668	2.18
462.871	2.52
463.074	2.43
463.277	2.26
463.48	2.46
463.683	2.22
463.886	2.29
464.089	2.18
464.292	2.28
464.495	2.09
464.698	2.2
464.901	1.94
465.104	1.94
465.306	1.92
465.509	2.2
465.712	2.11
465.915	2.1
466.118	2.19
466.321	2.24
466.524	2.63
466.726	2.51
466.929	2.58
467.132	2.6
467.335	2.45
467.538	2.3
467.74	2.22
467.943	2.23
468.146	2.38
468.348	2.46
468.551	2.44
468.754	2.08
468.956	2.38
469.159	2.34
469.362	2.14
469.564	2.22
469.767	2.57
469.969	2.64
470.172	2.75
470.375	2.72
470.577	2.55
470.78	2.63
470.982	2.74
471.185	2.72
471.387	2.71
471.59	2.94
471.792	2.92
471.995	2.76
472.197	2.75
472.399	2.73
472.602	2.69
472.804	2.79
473.007	2.76
473.209	2.8
473.411	2.78
473.614	2.71
473.816	2.78
474.018	2.8
474.22	2.74
474.423	2.79
474.625	2.76
474.827	2.86
475.03	2.8
475.232	2.48
475.434	2.37
475.636	2.31
475.838	2.55
476.04	2.46
476.243	2.41
476.445	2.33
476.647	2.08
476.849	2
477.051	1.88
477.253	1.85
477.455	2.01
477.657	2.13
477.859	2.24
478.061	2.05
478.263	2.06
478.465	1.98
478.667	2.1
478.869	2.18
479.071	2.13
479.273	2.03
479.475	2.19
479.677	2.09
479.879	1.98
480.081	1.97
480.283	2
480.485	1.97
480.686	2.05
480.888	2.13
481.09	2.12
481.292	2.12
481.494	2.17
481.695	2.18
481.897	2.18
482.099	2.23
482.301	2.15
482.502	2.06
482.704	2.09
482.906	2.14
483.107	2.11
483.309	2.15
483.511	2.16
483.712	2.19
483.914	2.11
484.115	2.15
484.317	2.1
484.519	2.12
484.72	2.18
484.922	2.16
485.123	2.13
485.325	2.12
485.526	2.09
485.728	2.04
485.929	2.05
486.131	2.1
486.332	2.13
486.534	2.18
486.735	2.17
486.936	2.11
487.138	2.17
487.339	2.23
487.541	2.2
487.742	2.23
487.943	2.29
488.144	2.27
488.346	2.26
488.547	2.18
488.748	2.16
488.95	2.21
489.151	2.23
489.352	2.2
489.553	2.02
489.755	2.09
489.956	2.13
490.157	2.1
490.358	2.1
490.559	2.13
490.76	2.17
490.961	2.12
491.163	2.06
491.364	2.14
491.565	2.16
491.766	2.22
491.967	2.15
492.168	2.14
492.369	2.21
492.57	2.18
492.771	2.17
492.972	2.14
493.173	2.08
493.374	2.08
493.575	2.06
493.776	2
493.976	1.94
494.177	2
494.378	1.82
494.579	1.76
494.78	1.67
494.981	1.69
495.182	1.72
495.382	1.92
495.583	1.88
495.784	1.74
495.985	1.82
496.185	1.93
496.386	1.9
496.587	1.94
496.788	1.97
496.988	2.05
497.189	2.03
497.39	2.08
497.59	2.09
497.791	2.05
497.992	2.09
498.192	2.14
498.393	2.11
498.593	2.08
498.794	2.04
498.994	1.98
499.195	2.03
499.395	2
499.596	2.01
499.796	1.87
499.997	2.07
500.197	2.14
500.398	2.1
500.598	1.97
500.799	2.1
500.999	2.25
501.199	2.42
501.4	2.35
501.6	2.39
501.801	2.26
502.001	2.43
502.201	2.31
502.402	2.35
502.602	2.31
502.802	2.34
503.002	2.43
503.203	2.48
503.403	2.29
503.603	2.37
503.803	2.38
504.003	2.76
504.204	2.64
504.404	2.6
504.604	2.42
504.804	2.44
505.004	2.49
505.204	2.3
505.404	2.39
505.604	2.35
505.804	2.44
506.005	2.4
506.205	2.16
506.405	2.28
506.605	2.38
506.805	2.55
507.005	2.56
507.204	2.6
507.404	2.63
507.604	2.5
507.804	2.51
508.004	2.46
508.204	2.54
508.404	2.48
508.604	2.28
508.804	2.29
509.003	2.18
509.203	2.2
509.403	2.19
509.603	2.21
509.803	2.22
510.002	2.22
510.202	2.09
510.402	2.06
510.602	2.22
510.801	2.45
511.001	2.46
511.201	2.6
511.4	2.46
511.6	2.44
511.8	2.44
511.999	2.51
512.199	2.63
512.398	2.77
512.598	2.81
512.797	2.74
512.997	2.62
513.197	2.57
513.396	2.68
513.596	2.93
513.795	3.01
513.994	3.08
514.194	3.1
514.393	3.06
514.593	2.97
514.792	2.99
514.992	2.93
515.191	2.93
515.39	2.93
515.59	2.88
515.789	2.71
515.988	2.85
516.188	2.78
516.387	2.76
516.586	2.97
516.786	3.07
516.985	2.97
517.184	3.05
517.383	3.01
517.582	2.96
517.782	2.73
517.981	2.8
518.18	2.79
518.379	2.85
518.578	2.75
518.777	2.59
518.976	2.51
519.176	2.59
519.375	2.48
519.574	2.45
519.773	2.46
519.972	2.57
520.171	2.48
520.37	2.38
520.569	2.36
520.768	2.46
520.967	2.47
521.166	2.55
521.365	2.43
521.564	2.58
521.762	2.69
521.961	2.84
522.16	2.83
522.359	2.88
522.558	2.86
522.757	2.9
522.956	2.76
523.154	2.96
523.353	2.95
523.552	2.89
523.751	2.84
523.949	2.88
524.148	2.73
524.347	2.7
524.546	2.67
524.744	2.6
524.943	2.55
525.142	2.6
525.34	2.52
525.539	2.6
525.737	2.72
525.936	2.64
526.135	2.62
526.333	2.72
526.532	2.76
526.73	2.76
526.929	2.91
527.127	2.86
527.326	2.86
527.524	2.88
527.723	2.83
527.921	2.84
528.12	2.91
528.318	2.9
528.516	2.87
528.715	2.86
528.913	2.85
529.112	2.84
529.31	2.87
529.508	2.82
529.707	2.77
529.905	2.78
530.103	2.74
530.301	2.77
530.5	2.84
530.698	2.92
530.896	2.94
531.094	2.97
531.293	2.95
531.491	3.01
531.689	3.12
531.887	3.09
532.085	3.14
532.283	3.2
532.481	3.15
532.68	3.14
532.878	3.13
533.076	3.14
533.274	3.19
533.472	3.27
533.67	3.21
533.868	3.22
534.066	3.27
534.264	3.28
534.462	3.29
534.66	3.29
534.858	3.23
535.056	3.18
535.253	3.23
535.451	3.19
535.649	3.1
535.847	3.19
536.045	3.21
536.243	3.23
536.441	3.17
536.638	3.16
536.836	3.15
537.034	3.13
537.232	3.24
537.43	3.23
537.627	3.27
537.825	3.27
538.023	3.19
538.22	3.28
538.418	3.37
538.616	3.41
538.813	3.52
539.011	3.67
539.209	3.88
539.406	3.8
539.604	3.81
539.801	3.78
539.999	3.85
540.196	3.9
540.394	3.87
540.591	3.85
540.789	3.8
540.986	3.69
541.184	3.71
541.381	3.76
541.579	3.77
541.776	3.8
541.974	3.85
542.171	3.85
542.368	3.89
542.566	3.93
542.763	3.97
542.96	4.05
543.158	4.14
543.355	4.17
543.552	4.09
543.75	4.13
543.947	4.23
544.144	4.23
544.341	4.31
544.539	4.38
544.736	4.45
544.933	4.36
545.13	4.43
545.327	4.49
545.524	4.41
545.722	4.51
545.919	4.62
546.116	4.6
546.313	4.66
546.51	4.73
546.707	4.67
546.904	4.59
547.101	4.65
547.298	4.59
547.495	4.66
547.692	4.64
547.889	4.62
548.086	4.46
548.283	4.47
548.48	4.55
548.677	4.55
548.874	4.59
549.07	4.43
549.267	4.51
549.464	4.58
549.661	4.42
549.858	4.66
550.055	4.69
550.251	5.02
550.448	5.05
550.645	5.08
550.842	5.08
551.038	5.34
551.235	5.47
551.432	5.79
551.628	5.86
551.825	6.01
552.022	5.94
552.218	6.01
552.415	5.85
552.612	5.86
552.808	5.88
553.005	5.89
553.201	5.85
553.398	5.87
553.594	5.59
553.791	5.57
553.987	5.69
554.184	5.79
554.38	5.84
554.577	5.81
554.773	5.88
554.97	5.93
555.166	5.91
555.362	5.93
555.559	5.99
555.755	6.09
555.952	6.25
556.148	6.32
556.344	6.34
556.541	6.71
556.737	6.94
556.933	7
557.129	7.07
557.326	7.32
557.522	7.4
557.718	7.78
557.914	7.8
558.11	7.87
558.307	7.73
558.503	7.79
558.699	7.67
558.895	7.66
559.091	7.84
559.287	8.05
559.483	8.14
559.679	8.25
559.876	8.22
560.072	8.21
560.268	8.08
560.464	8.28
560.66	8.29
560.856	8
561.052	8.04
561.247	8.15
561.443	7.8
561.639	7.73
561.835	7.71
562.031	7.76
562.227	8
562.423	8.34
562.619	8.25
562.815	8.42
563.01	8.54
563.206	8.52
563.402	8.29
563.598	8.66
563.793	8.65
563.989	8.57
564.185	8.58
564.381	8.55
564.576	8.52
564.772	8.59
564.968	8.63
565.163	8.81
565.359	8.78
565.555	8.88
565.75	8.85
565.946	8.98
566.141	8.98
566.337	9.13
566.532	9.23
566.728	9.22
566.923	9.29
567.119	9.11
567.314	9.24
567.51	9.27
567.705	9.3
567.901	9.47
568.096	9.48
568.292	9.83
568.487	9.89
568.682	9.94
568.878	9.86
569.073	10.03
569.268	10.28
569.464	10.24
569.659	10.65
569.854	10.78
570.05	10.59
570.245	10.71
570.44	10.62
570.635	10.59
570.831	10.8
571.026	11.06
571.221	11.04
571.416	11.13
571.611	11.21
571.806	11.03
572.002	10.98
572.197	11.02
572.392	10.97
572.587	10.82
572.782	10.75
572.977	10.69
573.172	10.61
573.367	10.69
573.562	10.52
573.757	10.46
573.952	10.53
574.147	10.66
574.342	10.77
574.537	10.94
574.732	11.01
574.927	11.07
575.121	11.02
575.316	10.91
575.511	10.84
575.706	11.1
575.901	11.29
576.096	11.29
576.29	11.24
576.485	11.36
576.68	11.26
576.875	11.27
577.069	11.2
577.264	11.09
577.459	11.25
577.654	11.4
577.848	11.22
578.043	10.95
578.238	11.3
578.432	11.34
578.627	11.33
578.821	11.49
579.016	11.62
579.21	11.75
579.405	11.99
579.6	12.16
579.794	12.02
579.989	12.33
580.183	12.44
580.378	12.2
580.572	12.13
580.766	11.97
580.961	11.87
581.155	11.92
581.35	11.87
581.544	11.71
581.738	11.9
581.933	11.91
582.127	11.77
582.321	11.72
582.516	11.93
582.71	11.8
582.904	11.99
583.099	12.13
583.293	12.27
583.487	12.38
583.681	12.74
583.875	12.57
584.07	12.56
584.264	12.4
584.458	12.56
584.652	12.21
584.846	12.7
585.04	12.62
585.234	12.2
585.428	12.14
585.623	12.39
585.817	12.36
586.011	12.27
586.205	12.66
586.399	12.72
586.593	13.06
586.787	13.42
586.981	13.1
587.174	13.45
587.368	13.89
587.562	13.87
587.756	13.9
587.95	13.86
588.144	13.93
588.338	13.9
588.532	13.76
588.725	13.61
588.919	13.38
589.113	13.51
589.307	13.15
589.501	13.07
589.694	13.4
589.888	13.24
590.082	13
590.275	13.3
590.469	13.13
590.663	13.62
590.856	13.47
591.05	13.41
591.244	13.48
591.437	13.75
591.631	14
591.824	13.73
592.018	13.66
592.212	13.87
592.405	13.56
592.599	13.47
592.792	13.17
592.986	13.23
593.179	13.34
593.372	13.43
593.566	13.34
593.759	13.19
593.953	13.45
594.146	13.58
594.339	13.53
594.533	13.62
594.726	13.61
594.92	13.75
595.113	13.74
595.306	14.06
595.499	14.1
595.693	14.12
595.886	14.26
596.079	14.13
596.272	14.1
596.466	13.91
596.659	14
596.852	14.3
597.045	14.31
597.238	14.26
597.431	14.03
597.624	13.9
597.818	14.07
598.011	13.97
598.204	13.82
598.397	14.08
598.59	14.31
598.783	14.15
598.976	13.91
599.169	13.88
599.362	14.04
599.555	14.22
599.748	14.46
599.941	14.57
600.134	14.36
600.326	14.66
600.519	14.61
600.712	14.63
600.905	14.86
601.098	14.87
601.291	14.78
601.483	14.67
601.676	14.76
601.869	14.8
602.062	14.56
602.255	14.62
602.447	14.63
602.64	14.83
602.833	14.71
603.025	14.27
603.218	14.39
603.411	14.53
603.603	14.84
603.796	14.78
603.989	14.55
604.181	14.63
604.374	14.71
604.566	14.47
604.759	14.35
604.951	14.43
605.144	14.66
605.336	14.64
605.529	14.61
605.721	14.45
605.914	14.31
606.106	14.34
606.299	14.37
606.491	14.38
606.683	14.47
606.876	14.35
607.068	14.28
607.26	14.4
607.453	14.52
607.645	14.69
607.837	14.63
608.03	14.76
608.222	14.88
608.414	14.81
608.606	14.95
608.799	15.15
608.991	15.29
609.183	15.47
609.375	15.37
609.567	15.24
609.759	14.95
609.952	14.97
610.144	15.09
610.336	15.29
610.528	15.3
610.72	15.24
610.912	15.33
611.104	15.12
611.296	15.22
611.488	15.27
611.68	15.32
611.872	15.52
612.064	15.54
612.256	15.41
612.448	15.13
612.64	15.05
612.832	14.98
613.023	14.74
613.215	14.78
613.407	14.47
613.599	14.77
613.791	14.84
613.983	14.67
614.174	14.56
614.366	14.4
614.558	14.3
614.75	14.37
614.941	14.58
615.133	14.48
615.325	14.78
615.516	15.02
615.708	14.69
615.9	15.02
616.091	15.22
616.283	15.34
616.475	15.7
616.666	15.76
616.858	15.77
617.049	15.42
617.241	15.46
617.432	15.09
617.624	14.88
617.815	14.66
618.007	14.42
618.198	14.03
618.39	14.13
618.581	13.95
618.773	14.18
618.964	14.06
619.155	14.22
619.347	14.39
619.538	14.4
619.729	14.34
619.921	14.64
620.112	14.55
620.303	14.83
620.494	14.65
620.686	14.8
620.877	14.68
621.068	14.59
621.259	14.6
621.451	14.86
621.642	15.22
621.833	15.51
622.024	15.46
622.215	15.32
622.406	15.36
622.597	15.36
622.788	15.54
622.98	15.56
623.171	15.46
623.362	15.58
623.553	15.36
623.744	15.3
623.935	15.12
624.126	14.93
624.317	15.09
624.508	14.82
624.698	14.94
624.889	14.67
625.08	14.62
625.271	14.71
625.462	14.53
625.653	14.38
625.844	14.12
626.034	14.08
626.225	14.15
626.416	14.2
626.607	14.47
626.798	14.34
626.988	14.13
627.179	14.34
627.37	14.6
627.56	14.84
627.751	14.85
627.942	14.86
628.132	14.86
628.323	15.09
628.514	15.06
628.704	14.9
628.895	14.91
629.085	15.02
629.276	14.81
629.466	14.79
629.657	14.61
629.847	14.61
630.038	14.71
630.228	14.83
630.419	14.87
630.609	15.06
630.8	15.39
630.99	15.56
631.181	15.44
631.371	15.54
631.561	15.51
631.752	15.69
631.942	15.72
632.132	15.66
632.323	15.6
632.513	15.67
632.703	15.4
632.893	15.42
633.084	15.53
633.274	15.85
633.464	15.71
633.654	15.64
633.844	15.37
634.034	15.43
634.225	15.53
634.415	15.7
634.605	15.46
634.795	15.58
634.985	15.44
635.175	15.39
635.365	15.46
635.555	15.49
635.745	15.44
635.935	15.59
636.125	15.78
636.315	15.59
636.505	15.65
636.695	16
636.885	16.14
637.075	16
637.265	15.92
637.455	15.88
637.644	15.87
637.834	16.01
638.024	15.93
638.214	15.63
638.404	15.83
638.593	15.31
638.783	14.81
638.973	14.5
639.163	14.4
639.352	14.38
639.542	14.11
639.732	14.15
639.921	14.38
640.111	14.44
640.301	14.8
640.49	14.78
640.68	14.56
640.87	14.38
641.059	14.51
641.249	14.73
641.438	14.71
641.628	14.87
641.817	14.69
642.007	14.46
642.196	13.92
642.386	13.68
642.575	13.89
642.764	14.65
642.954	15.07
643.143	14.84
643.333	14.92
643.522	14.74
643.711	14.75
643.901	14.95
644.09	15.05
644.279	15.28
644.469	15.24
644.658	15.19
644.847	15.09
645.036	15.05
645.226	15.4
645.415	15.01
645.604	15.33
645.793	15.23
645.982	15.54
646.171	15.32
646.361	15.87
646.55	15.95
646.739	15.8
646.928	15.43
647.117	16.04
647.306	15.72
647.495	15.82
647.684	15.95
647.873	15.9
648.062	15.26
648.251	15.3
648.44	14.71
648.629	14.87
648.818	15.17
649.007	15.45
649.196	14.82
649.384	15.02
649.573	15.35
649.762	15.18
649.951	15.29
650.14	15.98
650.328	16.47
650.517	16.91
650.706	16.97
650.895	16.57
651.083	16.76
651.272	17.05
651.461	17.15
651.65	16.94
651.838	17.1
652.027	17.29
652.216	16.98
652.404	16.82
652.593	16.9
652.781	16.58
652.97	17.01
653.158	16.84
653.347	16.19
653.535	16
653.724	16.31
653.912	15.75
654.101	15.84
654.289	15.51
654.478	15.1
654.666	14.81
654.855	14.99
655.043	14.38
655.231	14.45
655.42	15.2
655.608	15.06
655.796	15.01
655.985	15.01
656.173	14.95
656.361	15.23
656.55	15.11
656.738	14.84
656.926	14.68
657.114	14.96
657.302	15.06
657.491	14.92
657.679	15.42
657.867	15.34
658.055	15.94
658.243	15.79
658.431	15.56
658.619	15.84
658.807	16.15
658.996	16.22
659.184	15.88
659.372	15.67
659.56	15.49
659.748	15.32
659.936	15.39
660.124	15.19
660.311	14.97
660.499	15.51
660.687	15.48
660.875	15.28
661.063	15.46
661.251	15.63
661.439	15.71
661.627	16.13
661.814	16.1
662.002	16.27
662.19	16.38
662.378	16.77
662.565	16.35
662.753	16.54
662.941	16.88
663.129	16.81
663.316	17.07
663.504	17.28
663.692	16.66
663.879	16.7
664.067	16.52
664.254	16.19
664.442	16.29
664.63	16.79
664.817	16.35
665.005	16.17
665.192	16.65
665.38	16.73
665.567	17.01
665.755	17.16
665.942	17.34
666.13	17.88
666.317	17.89
666.504	17.75
666.692	16.91
666.879	16.81
667.067	17.08
667.254	16.16
667.441	16.23
667.629	15.57
667.816	15.8
668.003	15.89
668.19	15.73
668.378	16.1
668.565	16.36
668.752	17.05
668.939	17.05
669.127	16.31
669.314	16.67
669.501	16.21
669.688	16.51
669.875	16.37
670.062	15.92
670.249	15.86
670.436	15.83
670.623	15.31
670.81	15.28
670.997	15.72
671.184	15.96
671.371	15.83
671.558	16.71
671.745	16.53
671.932	16.63
672.119	16.86
672.306	16.76
672.493	16.61
672.68	17.01
672.867	17.04
673.054	16.92
673.24	17.17
673.427	17.03
673.614	16.68
673.801	16.87
673.988	17.05
674.174	16.71
674.361	16.88
674.548	16.96
674.734	16.84
674.921	16.9
675.108	17.26
675.294	17.72
675.481	17.96
675.668	18.38
675.854	18.76
676.041	18.2
676.227	19.05
676.414	18.37
676.601	18.55
676.787	18.35
676.974	18.5
677.16	18.11
677.347	18.37
677.533	18.7
677.719	18.24
677.906	17.63
678.092	18.12
678.279	17.75
678.465	18.41
678.651	18.04
678.838	18.1
679.024	17.59
679.21	17.57
679.397	17.61
679.583	17.24
679.769	17.26
679.955	17.89
680.142	17.64
680.328	17.73
680.514	17.49
680.7	17.64
680.886	17.32
681.073	17.34
681.259	17.51
681.445	17.18
681.631	16.69
681.817	16.72
682.003	16.23
682.189	16.41
682.375	16.27
682.561	15.93
682.747	15.8
682.933	16.03
683.119	15.67
683.305	15.73
683.491	15.78
683.677	16.58
683.863	16.44
684.049	16.73
684.235	16.92
684.42	16.53
684.606	16.73
684.792	16.82
684.978	16.84
685.164	18.17
685.349	17.89
685.535	17.82
685.721	18.02
685.907	18.2
686.092	17.86
686.278	17.7
686.464	17.92
686.649	17.47
686.835	17.55
687.021	17.66
687.206	17.01
687.392	17.09
687.577	17.01
687.763	16.86
687.948	16.93
688.134	17.03
688.319	16.94
688.505	16.75
688.69	17.11
688.876	16.39
689.061	16.63
689.247	15.96
689.432	16.16
689.618	16.61
689.803	16.1
689.988	15.87
690.174	15.78
690.359	15.73
690.544	15.98
690.73	16.03
690.915	16.37
691.1	16.54
691.285	17.38
691.471	17.27
691.656	16.68
691.841	17.31
692.026	17.36
692.211	17.49
692.396	17
692.582	17
692.767	17.28
692.952	17.87
693.137	17.79
693.322	17.39
693.507	17.01
693.692	16.78
693.877	16.57
694.062	16.5
694.247	16.28
694.432	16.69
694.617	16.5
694.802	16.26
694.987	15.64
695.172	15.28
695.357	15.54
695.541	15.47
695.726	15.99
695.911	15.83
696.096	15.55
696.281	15.92
696.466	16.22
696.65	16.31
696.835	16.57
697.02	16.95
697.204	16.86
697.389	17.04
697.574	17.22
697.759	16.94
697.943	16.79
698.128	17.21
698.312	17.22
698.497	17.34
698.682	17.22
698.866	17.03
699.051	16.9
699.235	17.05
699.42	16.69
699.604	16.42
699.789	16.6
699.973	16.63
700.158	16.24
700.342	15.97
700.527	15.91
700.711	16.03
700.895	15.91
701.08	16.54
701.264	16.73
701.448	16.75
701.633	17.34
701.817	16.95
702.001	16.45
702.186	17.2
702.37	17.38
702.554	16.96
702.738	17.49
702.923	18.08
703.107	18.16
703.291	18.23
703.475	18.06
703.659	18.5
703.843	18.94
704.027	19.53
704.212	18.89
704.396	18.81
704.58	19.18
704.764	18.54
704.948	17.95
705.132	16.9
705.316	16.74
705.5	17.2
705.684	16.69
705.868	16.19
706.052	16.37
706.235	16.76
706.419	16.73
706.603	15.93
706.787	16.76
706.971	17.33
707.155	17.58
707.339	17.39
707.522	17.29
707.706	16.77
707.89	17.01
708.074	17.22
708.257	17.19
708.441	17.51
708.625	17.53
708.808	16.93
708.992	16.71
709.176	17.01
709.359	16.71
709.543	17.36
709.727	18.28
709.91	18.33
710.094	17.86
710.277	17.52
710.461	17.76
710.644	18.76
710.828	18.31
711.011	17.96
711.195	17.29
711.378	17.51
711.562	16.31
711.745	15.69
711.928	15.65
712.112	15.97
712.295	16.3
712.478	15.79
712.662	14.87
712.845	15.2
713.028	15.47
713.212	16.2
713.395	15.64
713.578	15.97
713.761	16.44
713.945	16.21
714.128	16.2
714.311	15.88
714.494	15.9
714.677	16.83
714.86	16.86
715.043	16.74
715.227	16.68
715.41	16.75
715.593	17.4
715.776	16.97
715.959	17.3
716.142	17.22
716.325	16.44
716.508	16.18
716.691	15.4
716.874	15.39
717.057	15.52
717.239	15.47
717.422	16.03
717.605	15.84
717.788	16.67
717.971	17.06
718.154	17.32
718.337	18.85
718.519	18.89
718.702	18.31
718.885	18.84
719.068	19.07
719.25	18.47
719.433	18.17
719.616	17.91
719.798	17.55
719.981	16.97
720.164	16.85
720.346	16.29
720.529	15.91
720.712	17.02
720.894	16.14
721.077	15.58
721.259	16.8
721.442	16.17
721.624	15.35
721.807	15
721.989	14.32
722.172	14.1
722.354	13.65
722.537	14.93
722.719	14.85
722.901	16.33
723.084	15.61
723.266	15.33
723.448	15.73
723.631	16.75
723.813	16.34
723.995	16.78
724.178	16.14
724.36	17.47
724.542	17.41
724.724	17.46
724.907	16.6
725.089	17.89
725.271	16.45
725.453	16.27
725.635	15.71
725.817	16.71
725.999	17.54
726.181	17.27
726.364	16.32
726.546	16.98
726.728	16.28
726.91	15.59
727.092	15.29
727.274	15.54
727.456	15.37
727.638	15.35
727.819	13.89
728.001	14.37
728.183	15.41
728.365	16.35
728.547	15.42
728.729	16.03
728.911	15.65
729.093	16.07
729.274	16.27
729.456	17.49
729.638	18.18
729.82	19.25
730.001	17.94
730.183	17.93
730.365	17.09
730.546	17.88
730.728	18.34
730.91	19.54
731.091	18.35
731.273	18.46
731.455	17.83
731.636	17.31
731.818	17.32
731.999	17.77
732.181	17.69
732.362	17.94
732.544	17.42
732.725	16.76
732.907	16.19
733.088	16.23
733.27	17.32
733.451	17.75
733.633	18.36
733.814	17.99
733.995	17.96
734.177	17.97
734.358	16.84
734.539	16.13
734.721	16.24
734.902	16.4
735.083	17.83
735.264	17.42
735.446	17.61
735.627	16.72
735.808	16.59
735.989	16.41
736.17	17.29
736.351	17.95
736.533	18.93
736.714	18.77
736.895	18.97
737.076	18.76
737.257	18.37
737.438	16.61
737.619	16.89
737.8	16.74
737.981	17.41
738.162	16.57
738.343	17.1
738.524	17.51
738.705	17.74
738.886	17.78
739.067	16.87
739.247	15.42
739.428	16.85
739.609	17.33
739.79	17.98
739.971	18.06
740.151	18.57
740.332	18.37
740.513	18.13
740.694	18.4
740.874	18.33
741.055	19.14
741.236	19.92
741.417	19.11
741.597	18.86
741.778	19.39
741.958	18.27
742.139	17
742.32	18.25
742.5	18.69
742.681	18.36
742.861	17.26
743.042	16.54
743.222	16.92
743.403	17.81
743.583	16.69
743.764	16.35
743.944	16.37
744.124	17.92
744.305	18.3
744.485	16.85
744.666	17.15
744.846	19.48
745.026	20.29
745.207	20.13
745.387	20.71
745.567	22.61
745.747	22.17
745.928	24.12
746.108	23.75
746.288	22.37
746.468	22.71
746.648	21.56
746.829	19.37
747.009	20.24
747.189	21.75
747.369	21.08
747.549	20.3
747.729	20.45
747.909	19.03
748.089	18.86
748.269	17.73
748.449	17.36
748.629	18.69
748.809	18.88
748.989	17.14
749.169	16.56
749.349	15.89
749.529	15.51
749.709	16.55
749.889	17.13
750.068	17.79
750.248	18.02
750.428	18.23
750.608	17.39
750.788	18.21
750.967	18.76
751.147	17.58
751.327	19.98
751.507	19.84
751.686	19.25
751.866	19.37
752.046	18.02
752.225	19.17
752.405	19.82
752.585	19.81
752.764	19.92
752.944	19.09
753.123	21.18
753.303	20.42
753.482	20.61
753.662	20.15
753.841	19.52
754.021	21.12
754.2	20.12
754.38	20.04
754.559	20.98
754.739	20.45
754.918	21.47
755.097	20.22
755.277	19.62
755.456	19.92
755.635	18.84
755.815	19.67
755.994	19
756.173	19.54
756.352	19.48
756.532	18.99
756.711	19.7
756.89	18.64
757.069	17.15
757.248	17.1
757.427	17.94
757.607	19.68
757.786	18.43
757.965	17.66
758.144	18.31
758.323	18.16
758.502	18.44
758.681	18.05
758.86	18.99
759.039	20.27
759.218	20.18
759.397	19.38
759.576	18.71
759.755	18.42
759.934	18.96
760.113	18.3
760.291	17.98
760.47	17.91
760.649	18.43
760.828	17.13
761.007	15.77
761.186	17.07
761.364	17.27
761.543	17.54
761.722	18.06
761.901	18.83
762.079	18.07
762.258	17.46
762.437	18.08
762.615	18.36
762.794	19.12
762.972	20.21
763.151	18.51
763.33	18.59
763.508	17.9
763.687	17.52
763.865	17.06
764.044	18.2
764.222	17.8
764.401	16.75
764.579	16.34
764.758	17.07
764.936	17.63
765.114	19.3
765.293	18.38
765.471	18.78
765.65	19.78
765.828	19.88
766.006	18.82
766.184	19.62
766.363	20.39
766.541	19.85
766.719	19.94
766.898	18.99
767.076	18.54
767.254	18.99
767.432	19.05
767.61	17.61
767.788	17.72
767.967	19.03
768.145	18.98
768.323	17.91
768.501	18.94
768.679	16.96
768.857	16.27
769.035	16.14
769.213	15.7
769.391	16.26
769.569	17.3
769.747	16.64
769.925	15.54
770.103	16.3
770.281	18.42
770.459	18.15
770.636	17.41
770.814	18.52
770.992	17.52
771.17	18.03
771.348	18.8
771.525	18.87
771.703	17.75
771.881	17.43
772.059	16.69
772.236	15.76
772.414	18.25
772.592	20.65
772.769	20.14
772.947	18.79
773.125	17.78
773.302	17.45
773.48	17.72
773.657	18.68
773.835	18.82
774.013	18.23
774.19	18.83
774.368	15.84
774.545	15.91
774.723	17.83
774.9	19.34
775.077	23.78
775.255	24.25
775.432	23.09
775.61	22.21
775.787	22.44
775.964	24.31
776.142	23.02
776.319	24.2
776.496	20.68
776.674	19.11
776.851	19.07
777.028	13.47
777.205	11.78
777.382	12.05
777.56	13.5
777.737	14.34
777.914	12.72
778.091	11.68
778.268	9.91
778.445	13.39
778.622	13.14
778.8	11.99
778.977	15.76
779.154	15.62
779.331	16.23
779.508	16.07
779.685	16.23
779.862	18.51
780.038	19.27
780.215	19.01
780.392	17.65
780.569	17.53
780.746	18.2
780.923	17.82
781.1	15.59
781.277	14.89
781.453	13.31
781.63	11.83
781.807	11.65
781.984	10.67
782.16	9.4
782.337	9.52
782.514	9.87
782.691	8.89
782.867	8
783.044	9.58
783.221	11.14
783.397	14.03
783.574	17.22
783.75	16.88
783.927	20.73
784.103	21.59
784.28	22.22
784.456	23.61
784.633	27.45
784.809	27.18
784.986	28.11
785.162	24.54
785.339	22.74
785.515	21.75
785.692	21.76
785.868	19.44
786.044	19.68
786.221	17.58
786.397	18.42
786.573	16.58
786.749	17.4
786.926	15.82
787.102	17.91
787.278	18.29
787.454	16.7
787.631	17.82
787.807	16.36
787.983	16.48
788.159	18.13
788.335	15.28
788.511	16.65
788.687	17.67
788.863	17.95
789.039	19.49
789.216	18.75
789.392	18.39
789.568	16.15
789.744	18.57
789.919	16.94
790.095	17.92
790.271	18.46
790.447	15.4
790.623	12.15
790.799	14.51
790.975	13.03
791.151	11.87
791.327	13.14
791.502	14.16
791.678	14.57
791.854	17.61
792.03	17.36
792.205	16.85
792.381	17.86
792.557	21.33
792.733	21.44
792.908	21.18
793.084	22.56
793.259	22.26
793.435	20.14
793.611	19.33
793.786	18.27
793.962	17.05
794.137	17.73
794.313	19.88
794.488	21.11
794.664	21.35
794.839	22.47
795.015	20.79
795.19	16.9
795.366	18.4
795.541	19.02
795.716	18.15
795.892	17.49
796.067	15.72
796.242	12.88
796.418	12.26
796.593	11.06
796.768	9.47
796.944	13.04
797.119	18.03
797.294	17.6
797.469	17.41
797.644	18.15
797.82	17.06
797.995	19.44
798.17	19.06
798.345	17.07
798.52	17.4
798.695	17.53
798.87	16.98
799.045	14.06
799.22	13.59
799.395	11.92
799.57	13.49
799.745	14.86
799.92	13.05
800.095	13.12
800.27	15.61
800.445	16.22
800.62	18.33
800.795	18
800.97	19.75
801.145	19.72
801.319	19.11
801.494	15.63
801.669	18.84
801.844	20.31
802.018	21.44
802.193	19.71
802.368	19.04
802.543	18.21
802.717	17.41
802.892	16.35
803.067	15.96
803.241	18.04
803.416	18.16
803.59	17.42
803.765	17.75
803.94	19.49
804.114	21.47
804.289	22.57
804.463	20.52
804.638	20.51
804.812	23
804.986	25.19
805.161	22.15
805.335	23.06
805.51	21.39
805.684	19.26
805.858	15.67
806.033	13.48
806.207	15.11
806.381	14
806.556	13.93
806.73	7.78
806.904	3.95
807.078	8.74
807.253	10.52
807.427	10.92
807.601	12.94
807.775	12.52
807.949	12.39
808.123	7.39
808.298	14.3
808.472	14.17
808.646	14.8
808.82	17.52
808.994	14.67
809.168	14.77
809.342	16.88
809.516	17.96
809.69	21.29
809.864	21.88
810.038	25.8
810.212	20.42
810.385	20.91
810.559	22.87
810.733	22.47
810.907	19.25
811.081	16.41
811.255	13.06
811.428	14.53
811.602	12.78
811.776	13.16
811.95	10.94
812.123	13.32
812.297	10.24
812.471	11.13
812.644	7.32
812.818	9.87
812.992	13.22
813.165	14.04
813.339	12.3
813.512	16.31
813.686	21.38
813.86	17.7
814.033	18.15
814.207	20.1
814.38	19.22
814.554	22.54
814.727	20.9
814.9	17.97
815.074	15.31
815.247	13.37
815.421	6.1
815.594	1.54
815.767	2.65
815.941	4.36
816.114	5.47
816.287	8.27
816.46	8.65
816.634	11.85
816.807	13.37
816.98	13.49
817.153	13.36
817.327	15.71
817.5	17.33
817.673	20.87
817.846	16.82
818.019	16.61
818.192	14.45
818.365	10.76
818.538	11.74
818.711	11.1
818.884	10.1
819.057	11.67
819.23	14.37
819.403	13.67
819.576	12.08
819.749	17.08
819.922	17.24
820.095	15.13
820.268	18.74
820.441	18.7
820.614	16.89
820.786	19.18
820.959	20.41
821.132	21.26
821.305	20.47
821.477	21.42
821.65	20.18
821.823	20.95
821.996	21.37
822.168	21.85
822.341	21.7
822.514	22.49
822.686	22.23
822.859	21.46
823.031	20.85
823.204	21.03
823.376	19.96
823.549	20.27
823.722	19.5
823.894	20.23
824.067	19.38
824.239	18.93
824.411	18.75
824.584	18.21
824.756	18.43
824.929	18.9
825.101	18.76
825.273	20.18
825.446	19.99
825.618	21.96
825.79	20.29
825.963	21.09
826.135	21.18
826.307	20.75
826.479	21.62
826.652	20.38
826.824	19.67
826.996	20.81
827.168	20.48
827.34	20.36
827.512	18.93
827.684	18.76
827.856	16.97
828.029	17.51
828.201	18.11
828.373	17.79
828.545	18.63
828.717	19.32
828.889	17.09
829.061	17.19
829.232	16.03
829.404	16.01
829.576	16.73
829.748	19.28
829.92	19.17
830.092	19.48
830.264	19.83
830.436	19.64
830.607	19.29
830.779	20.61
830.951	19.61
831.123	20.88
831.294	19.68
831.466	19.48
831.638	16.3
831.809	15.58
831.981	14.08
832.153	14.53
832.324	12.81
832.496	12.15
832.667	9.49
832.839	8.98
833.011	11.49
833.182	11.35
833.354	12.61
833.525	15.68
833.697	19.02
833.868	17.4
834.039	16.09
834.211	17.24
834.382	16.59
834.554	18.56
834.725	19.06
834.896	16.52
835.068	17.95
835.239	18.03
835.41	17.47
835.581	15.88
835.753	16.83
835.924	14.83
836.095	15.91
836.266	18.8
836.438	16.19
836.609	15.48
836.78	16.71
836.951	15.57
837.122	17.54
837.293	14.12
837.464	15.27
837.635	14.44
837.806	15.34
837.977	12.4
838.148	6.08
838.319	7.67
838.49	4.29
838.661	1.89
838.832	1.3
839.003	0.86
839.174	6.44
839.345	-3.05
839.516	2.98
839.687	10.53
839.857	8.83
840.028	17.16
840.199	19.76
840.37	21.76
840.54	24.6
840.711	28.86
840.882	23.98
841.053	22.36
841.223	27
841.394	25.14
841.564	23.38
841.735	28.29
841.906	21.56
842.076	21.56
842.247	23.32
842.417	17.29
842.588	13.18
842.758	16.97
842.929	19.03
843.099	13.12
843.27	6.76
843.44	3.08
843.611	8.29
843.781	8.18
843.951	2.59
844.122	-7.86
844.292	0.55
844.462	-0.4
844.633	-6.58
844.803	-9.85
844.973	0.56
845.144	4.87
845.314	7.89
845.484	-5.36
845.654	5.01
845.824	5.56
845.995	8.56
846.165	5.06
846.335	-1.49
846.505	-6.14
846.675	9.31
846.845	-2.67
847.015	-2.02
847.185	-0.28
847.355	5.83
847.525	-2.83
847.695	7.42
847.865	11.99
848.035	14.69
848.205	17.39
848.375	25.19
848.545	13.54
848.715	19.24
848.884	21.09
849.054	14.03
849.224	15.87
849.394	20.86
849.564	17.77
849.733	21.83
849.903	27.97
850.073	29.78
850.243	24.04
850.412	25.26
850.582	16.73
850.752	12.68
850.921	19.78
851.091	15.41
851.26	6.26
851.43	6.5
851.599	3.82
851.769	-23.55
851.939	-19.81
852.108	-2.48
852.278	8.48
852.447	15.29
852.616	20.17
852.786	33.22
852.955	26.84
853.125	42.39
853.294	33.79
853.463	25.56
853.633	30.02
853.802	14.95
853.971	-1.94
854.141	3.61
854.31	-1.24
854.479	3.81
854.648	-1.67
854.818	14.82
854.987	13.82
855.156	22.7
855.325	34.45
855.494	37.99
855.663	32.77
855.832	33.14
856.001	28.61
856.171	18.94
856.34	13.54
856.509	7.94
856.678	-3.75
856.847	-18.56
857.016	-40.87
857.185	-110.57
857.353	-180.99
857.522	-228.05
857.691	-438.55
857.86	-808.57
858.029	-230.05
858.198	-81.56
858.367	-34.79
858.535	-38.98
858.704	-101.56
858.873	-77.35
859.042	-57.3
859.21	-35.52
859.379	-12.35
859.548	-2.01
859.717	3.87
859.885	20.7
860.054	20.51
860.222	6.9
860.391	20.3
860.56	34.5
860.728	31.79
860.897	37.55
861.065	29.79
861.234	22.96
861.402	22.5
861.571	27.15
861.739	1.24
861.908	8.63
862.076	33.25
862.244	-4.55
862.413	5.64
862.581	10.58
862.749	12.33
862.918	8.96
863.086	18.42
863.254	21.2
863.423	13.9
863.591	18.38
863.759	21.08
863.927	15.53
864.096	25.42
864.264	26.27
864.432	24.97
864.6	27.99
864.768	42.76
864.936	38.45
865.104	29.67
865.272	33.74
865.44	32.06
865.608	3.26
865.776	0.24
865.944	12.71
866.112	4.55
866.28	3.85
866.448	0.96
866.616	0.85
866.784	14.07
866.952	26.08
867.12	27.55
867.288	44.5
867.455	40.87
867.623	48.49
867.791	36.29
867.959	48.75
868.127	41.45
868.294	27.91
868.462	7.09
868.63	-22.14
868.797	-2.25
868.965	10.67
869.133	-19.23
869.3	-8.86
869.468	-14.39
869.636	-1.45
869.803	-11.57
869.971	-20.14
870.138	-18.56
870.306	-4.97
870.473	18.5
870.641	-15.91
870.808	-38.23
870.975	-38.17
871.143	-49.99
871.31	-31.42
871.478	-56.1
871.645	-92.74
871.812	-45.02
871.98	-17.31
872.147	-3.73
872.314	-25.63
872.482	-12.81
872.649	8.35
872.816	20
872.983	36.69
873.15	39.17
873.318	37.77
873.485	52.96
873.652	54.14
873.819	48.3
873.986	28.51
874.153	35.68
874.32	35.61
874.487	23.36
874.654	9.24
874.821	8.33
874.988	-14.02
875.155	-3.69
875.322	-14.06
875.489	0.87
875.656	-1.69
875.823	7.37
875.99	4.32
876.157	17.9
876.324	32.04
876.49	28.96
876.657	24.97
876.824	42.58
876.991	51.6
877.157	58.1
877.324	47.41
877.491	49.31
877.658	41.44
877.824	36.84
877.991	18.68
878.157	13.44
878.324	19.35
878.491	29.89
878.657	36.06
878.824	46.76
878.99	34.31
879.157	43.83
879.323	38.4
879.49	39.74
879.656	38.08
879.823	41.21
879.989	33.2
880.156	28.57
880.322	28.49
880.488	26.82
880.655	-3.25
880.821	5.39
880.987	-13.47
881.154	1.38
881.32	4.22
881.486	1.56
881.652	2.57
881.819	7.25
881.985	20.17
882.151	12.02
882.317	11.97
882.483	16.94
882.649	16.61
882.816	16.34
882.982	15.16
883.148	13.46
883.314	13.77
883.48	15.05
883.646	15.87
883.812	14.8
883.978	16.7
884.144	16.75
884.31	15.12
884.476	16.55
884.642	17.67
884.807	17.13
884.973	19.04
885.139	18.75
885.305	18.97
885.471	18.95
885.637	17.47
885.802	19.13
885.968	16.99
886.134	16.97
886.3	13.23
886.465	13.31
886.631	8.79
886.797	3.96
886.962	9.82
887.128	6
887.293	-3.99
887.459	-4.26
887.625	-9.12
887.79	-16.05
887.956	-10.32
888.121	-11.48
888.287	-27.71
888.452	-16.76
888.618	-12.27
888.783	-48.9
