Data from 2938025_Reflection_3.txt Node
Date: Sun Jul 12 15:17:35 EDT 2015
User: robert
Spectrometer: USB4E03001
Autoset integration time: false
Trigger mode: 4
Integration Time (sec): 1.000000E-1
Scans to average: 10
Electric dark correction enabled: true
Nonlinearity correction enabled: false
Boxcar width: 5
Stray light correction enabled: false
XAxis mode: Wavelengths
Stop averaging: false
Number of Pixels in Spectrum: 3648
>>>>>Begin Spectral Data<<<<<
177.566	-180.09
177.785	-107.29
178.005	-122.76
178.225	-27.75
178.445	9.78
178.665	3.54
178.885	601.22
179.105	-102.17
179.324	-168.87
179.544	-23.16
179.764	-574.24
179.984	-92.65
180.204	-65.65
180.423	-41.61
180.643	-14.66
180.863	15.05
181.083	6.85
181.302	5.99
181.522	2.68
181.742	4.41
181.961	-16.4
182.181	4.6
182.401	27.44
182.621	9.35
182.84	-5.98
183.06	18.2
183.279	-5.67
183.499	-5.62
183.719	27.24
183.938	15.75
184.158	-2.25
184.377	6.86
184.597	-18.44
184.816	1796.51
185.036	-267.82
185.256	-904.88
185.475	-12.92
185.695	-69.35
185.914	63.86
186.134	57.88
186.353	78.68
186.572	110.33
186.792	60.62
187.011	17.96
187.231	-8.71
187.45	31.45
187.67	16.9
187.889	17.94
188.108	21.31
188.328	-246.71
188.547	4344.44
188.766	206.09
188.986	173.71
189.205	91.59
189.424	104.77
189.644	116.73
189.863	100.95
190.082	79.68
190.302	65.8
190.521	68.47
190.74	17.52
190.959	22.91
191.178	43.08
191.398	53.67
191.617	46.05
191.836	21.21
192.055	-1.28
192.274	24.29
192.494	19.73
192.713	22.2
192.932	24.79
193.151	46.98
193.37	94.74
193.589	-8.41
193.808	-97.93
194.027	21.47
194.246	1.7
194.465	-0.8
194.685	-34.04
194.904	-25.85
195.123	-43.04
195.342	-45.13
195.561	-137.85
195.78	-48.64
195.999	4.96
196.218	49.47
196.436	887.67
196.655	-2095.71
196.874	-135.54
197.093	63.09
197.312	68.55
197.531	26.93
197.75	16.69
197.969	45.92
198.188	-4.15
198.407	26.17
198.625	21.73
198.844	9.2
199.063	35.19
199.282	-105.67
199.501	-381.37
199.719	558.32
199.938	288.42
200.157	421.77
200.376	156.57
200.594	100.61
200.813	134.82
201.032	115.25
201.251	139.14
201.469	144.36
201.688	227.16
201.907	227.36
202.125	196.46
202.344	160.28
202.563	252.51
202.781	258.18
203	256.84
203.218	686.82
203.437	217.04
203.656	462.5
203.874	-58.04
204.093	-426.85
204.311	77.35
204.53	79.63
204.748	47.72
204.967	-1325
205.185	-1626.79
205.404	-4.44
205.622	31.46
205.841	141.69
206.059	484.54
206.278	-65.48
206.496	-73.3
206.715	459.33
206.933	28.2
207.151	113.14
207.37	147.66
207.588	81.28
207.806	57.57
208.025	89.31
208.243	71.87
208.461	75.68
208.68	79.5
208.898	85.95
209.116	134.79
209.335	185.31
209.553	84.9
209.771	-230.61
209.989	-106.79
210.208	-32.56
210.426	-232.04
210.644	-295.37
210.862	-175.98
211.081	1210.95
211.299	531.57
211.517	386.78
211.735	-22.54
211.953	-22.8
212.171	35.99
212.39	53.05
212.608	57.61
212.826	102.11
213.044	87.99
213.262	93.3
213.48	103
213.698	70.73
213.916	50.18
214.134	76.53
214.352	293.03
214.57	142.51
214.788	172.42
215.006	311.79
215.224	53.31
215.442	-212.93
215.66	55.64
215.878	30.5
216.096	1352.65
216.314	128.87
216.532	150.54
216.75	120.3
216.968	84.53
217.185	-21.32
217.403	-7.6
217.621	-67.07
217.839	2.41
218.057	15.76
218.275	16.1
218.492	-57.95
218.71	-28.58
218.928	-89.62
219.146	-181.15
219.363	-115.89
219.581	-5.67
219.799	-170.64
220.017	-198.92
220.234	-177.51
220.452	-601.19
220.67	-1990.48
220.887	3735.71
221.105	579.44
221.323	1215.06
221.54	-207.21
221.758	-71.26
221.976	-66.2
222.193	-20.11
222.411	-41.48
222.629	-25.62
222.846	8.71
223.064	4.95
223.281	6.86
223.499	12.61
223.716	31.61
223.934	27.76
224.151	21.51
224.369	15.58
224.586	9.78
224.804	12.42
225.021	20.81
225.239	15.24
225.456	27.01
225.674	18.98
225.891	22
226.108	14.21
226.326	23.38
226.543	24.71
226.76	31.49
226.978	32.89
227.195	29.31
227.413	27.24
227.63	19.28
227.847	13.8
228.064	18.24
228.282	13.49
228.499	11.47
228.716	5.98
228.934	6.39
229.151	6.8
229.368	8.3
229.585	8.32
229.802	7.66
230.02	9.5
230.237	5.93
230.454	2.72
230.671	6.63
230.888	8.16
231.105	9.93
231.323	10.06
231.54	4.13
231.757	2.2
231.974	8.9
232.191	5.31
232.408	0.82
232.625	10.78
232.842	15.85
233.059	7.93
233.276	6.81
233.493	8.33
233.71	6.73
233.927	15.25
234.144	16.45
234.361	9.67
234.578	10.82
234.795	15.86
235.012	15.93
235.229	12.49
235.446	17.3
235.663	17.06
235.879	17.75
236.096	20.82
236.313	16.87
236.53	18.26
236.747	22.63
236.964	27.92
237.181	34.66
237.397	29.73
237.614	25.28
237.831	25.76
238.048	24.96
238.264	21.8
238.481	19.3
238.698	14.71
238.915	9.34
239.131	6.32
239.348	4.1
239.565	-0.13
239.781	-0.79
239.998	2.43
240.215	7.24
240.431	7.66
240.648	9.52
240.865	11.44
241.081	14.82
241.298	14.96
241.514	12.86
241.731	12
241.947	10.04
242.164	11.84
242.38	12.69
242.597	10.82
242.814	11.76
243.03	11.29
243.246	11.95
243.463	11.41
243.679	12.4
243.896	13.72
244.112	15.49
244.329	17.68
244.545	18.13
244.762	18.29
244.978	20.53
245.194	20.37
245.411	20.7
245.627	18.87
245.843	18.29
246.06	17.35
246.276	16.21
246.492	15.45
246.709	14.76
246.925	14.89
247.141	13.75
247.357	13.18
247.574	12.47
247.79	11.8
248.006	11.42
248.222	11.11
248.439	10.92
248.655	10.48
248.871	10.13
249.087	8.93
249.303	7.45
249.519	7.61
249.736	6.22
249.952	6.92
250.168	5.72
250.384	5.89
250.6	5.53
250.816	5.67
251.032	8.94
251.248	9.13
251.464	10.56
251.68	10.18
251.896	9.32
252.112	10.05
252.328	9.06
252.544	9.63
252.76	7.37
252.976	5.68
253.192	5.89
253.408	2.97
253.624	-0.4
253.84	-0.87
254.056	-1.67
254.272	-0.06
254.487	1.06
254.703	-1.28
254.919	-2.28
255.135	4.5
255.351	8.23
255.567	7.54
255.782	8.31
255.998	12.71
256.214	12.83
256.43	12.93
256.646	12.7
256.861	12.86
257.077	14.04
257.293	17.17
257.508	15.19
257.724	12.56
257.94	12.09
258.155	11.21
258.371	7.92
258.587	8.21
258.802	9.28
259.018	8.33
259.234	8.31
259.449	7.74
259.665	7.14
259.88	7.43
260.096	7.63
260.312	7.43
260.527	7.33
260.743	8.17
260.958	7.87
261.174	7.18
261.389	7.2
261.605	6.48
261.82	7.54
262.036	6.69
262.251	5.79
262.466	4.81
262.682	3.86
262.897	4.92
263.113	4.52
263.328	3.83
263.543	3.26
263.759	3.65
263.974	2.77
264.189	0.99
264.405	2.82
264.62	1.24
264.835	2.77
265.051	3.57
265.266	3.18
265.481	3.03
265.696	4.27
265.912	5.11
266.127	4.63
266.342	5.42
266.557	5.64
266.773	5.12
266.988	5.28
267.203	4.7
267.418	4.66
267.633	3.55
267.848	4.4
268.064	4.85
268.279	6.38
268.494	6.66
268.709	7.54
268.924	7.69
269.139	6.7
269.354	7.73
269.569	8.32
269.784	9.74
269.999	11.37
270.214	10.06
270.429	9.84
270.644	8.27
270.859	7.68
271.074	7.91
271.289	8.17
271.504	9.41
271.719	8.73
271.934	9.07
272.149	7.93
272.363	8.34
272.578	8.88
272.793	8.37
273.008	8.36
273.223	8.89
273.438	7.82
273.653	6.45
273.867	5.2
274.082	5
274.297	4.08
274.512	4.38
274.726	4.07
274.941	4.05
275.156	4.74
275.371	6.24
275.585	5.76
275.8	5.26
276.015	6.91
276.229	8.3
276.444	8.83
276.659	8.39
276.873	8.7
277.088	9.14
277.302	10.4
277.517	10.02
277.732	8.7
277.946	8.85
278.161	8.66
278.375	8.14
278.59	7.83
278.804	6.01
279.019	7.42
279.233	6.45
279.448	4.21
279.662	1.07
279.877	1.5
280.091	2.34
280.306	3.42
280.52	5.58
280.735	5.42
280.949	4.47
281.163	5.92
281.378	5.98
281.592	6.46
281.806	6.68
282.021	8.82
282.235	8.59
282.449	9.41
282.664	9.04
282.878	8.52
283.092	8.28
283.307	8.85
283.521	8.6
283.735	6.87
283.949	6.52
284.164	6.36
284.378	3.76
284.592	2.67
284.806	1.63
285.02	1.28
285.234	0.89
285.449	1.45
285.663	1.54
285.877	1.91
286.091	2.92
286.305	3.69
286.519	4.16
286.733	6.02
286.947	6.59
287.161	6.38
287.375	6.76
287.589	7.1
287.803	7.6
288.017	7.25
288.231	7.2
288.445	6.92
288.659	6.87
288.873	6.22
289.087	5
289.301	4.49
289.515	6.03
289.729	5.67
289.943	6.54
290.157	7.33
290.371	8.45
290.584	9.01
290.798	9.44
291.012	9.21
291.226	9.21
291.44	10.06
291.654	10.6
291.867	10.73
292.081	11.03
292.295	10.64
292.509	9.52
292.722	9.13
292.936	8.2
293.15	7.88
293.364	7.88
293.577	10.26
293.791	10.93
294.005	11.68
294.218	9.56
294.432	9.41
294.645	8.29
294.859	7.71
295.073	8.29
295.286	9.38
295.5	9.63
295.713	9.36
295.927	8.99
296.14	7.98
296.354	6.91
296.568	7.72
296.781	8.81
296.994	8.78
297.208	8.67
297.421	8.63
297.635	8.92
297.848	9.11
298.062	9.82
298.275	9.4
298.489	9.14
298.702	9.43
298.915	8.79
299.129	8.2
299.342	9
299.555	10.24
299.769	10.38
299.982	10.49
300.195	11.38
300.409	11.24
300.622	10.62
300.835	11.17
301.048	12.3
301.262	12.89
301.475	13.05
301.688	13.97
301.901	13.49
302.115	13.32
302.328	13.05
302.541	11.98
302.754	12.03
302.967	13.02
303.18	13.13
303.393	12.5
303.607	12.71
303.82	12.67
304.033	11.48
304.246	12.1
304.459	11.88
304.672	10.76
304.885	11.53
305.098	11.84
305.311	11.18
305.524	12.37
305.737	12.39
305.95	12.5
306.163	13.67
306.376	13.47
306.589	13.11
306.802	12.88
307.015	14.31
307.228	14.17
307.44	12.96
307.653	14.3
307.866	13.83
308.079	14.75
308.292	14.43
308.505	12.43
308.718	13.28
308.93	12.57
309.143	13.5
309.356	12.89
309.569	13.32
309.781	14.41
309.994	12.18
310.207	11.44
310.42	10.64
310.632	10.17
310.845	11.24
311.058	10.92
311.27	10.95
311.483	11.02
311.696	10.98
311.908	10.44
312.121	9.8
312.333	10.74
312.546	10.88
312.759	12.26
312.971	12.63
313.184	13.67
313.396	14.97
313.609	15.3
313.821	14.47
314.034	15.33
314.246	14.99
314.459	15.6
314.671	14.85
314.884	15.95
315.096	15.27
315.309	15.92
315.521	13.21
315.733	11.78
315.946	12.7
316.158	13.51
316.371	12.41
316.583	13.36
316.795	11.88
317.008	12.27
317.22	10.75
317.432	9.37
317.644	10.38
317.857	11.78
318.069	12.78
318.281	13.56
318.494	12.85
318.706	13.78
318.918	14.7
319.13	15.42
319.342	16.74
319.555	18.6
319.767	18.84
319.979	17.69
320.191	17.21
320.403	17.96
320.615	17.36
320.827	17.77
321.039	16.64
321.252	14.5
321.464	15.62
321.676	15.64
321.888	14.74
322.1	16.28
322.312	17.43
322.524	18.4
322.736	17.51
322.948	17.39
323.16	18.51
323.372	19.85
323.584	20.77
323.796	20.4
324.007	21.49
324.219	22.52
324.431	22.52
324.643	21.82
324.855	22.09
325.067	22.09
325.279	22.51
325.491	21.88
325.702	21.72
325.914	21.93
326.126	23.22
326.338	22.5
326.55	21.57
326.761	21.39
326.973	21.68
327.185	21.41
327.396	21.6
327.608	22.63
327.82	24.02
328.032	25.77
328.243	26.32
328.455	25.24
328.666	25.71
328.878	27.29
329.09	28.32
329.301	31.43
329.513	32.22
329.725	33.5
329.936	33.98
330.148	34.91
330.359	34.29
330.571	34.87
330.782	36.19
330.994	36.16
331.205	36.71
331.417	36.87
331.628	34.66
331.84	35.54
332.051	35.67
332.262	37.22
332.474	37.25
332.685	38.24
332.897	39.49
333.108	40.16
333.319	40.75
333.531	40.17
333.742	40.83
333.953	42.28
334.165	42.08
334.376	42.69
334.587	41.98
334.799	41.87
335.01	42.6
335.221	42.18
335.432	42.99
335.644	44.41
335.855	45.34
336.066	47.09
336.277	47.63
336.488	48.14
336.7	47.81
336.911	47.98
337.122	48.03
337.333	48.36
337.544	48.34
337.755	48.8
337.966	48.77
338.177	49.8
338.388	48.25
338.599	48.59
338.811	48.48
339.022	49.59
339.233	49.59
339.444	50.54
339.655	50.34
339.866	50.55
340.076	49.85
340.287	49.15
340.498	49.4
340.709	50.64
340.92	50.06
341.131	50.5
341.342	50.38
341.553	51.43
341.764	51.47
341.975	50.75
342.185	51.81
342.396	52.53
342.607	52.86
342.818	52.52
343.029	52.06
343.239	51.76
343.45	52.46
343.661	51.93
343.872	50.89
344.082	51.04
344.293	52.24
344.504	50.94
344.714	50.95
344.925	51.1
345.136	51.55
345.346	51.09
345.557	51.04
345.768	50.96
345.978	51.14
346.189	51.88
346.399	51.04
346.61	51.1
346.821	52.83
347.031	52.94
347.242	53.34
347.452	52.85
347.663	53.12
347.873	53.74
348.084	53.1
348.294	53.95
348.504	53.36
348.715	53.53
348.925	52.92
349.136	52.42
349.346	51.64
349.557	51.93
349.767	52.2
349.977	52.51
350.188	52.58
350.398	52.78
350.608	52.11
350.819	51.41
351.029	52.34
351.239	53.75
351.449	53.5
351.66	53.82
351.87	53.22
352.08	52.7
352.29	52.8
352.501	53.48
352.711	53.91
352.921	54.26
353.131	55.17
353.341	55.05
353.552	53.77
353.762	54.01
353.972	53.74
354.182	53.66
354.392	53.65
354.602	53.87
354.812	52.7
355.022	52.75
355.232	52.17
355.442	51.25
355.652	50.16
355.862	50.68
356.072	50.58
356.282	50.46
356.492	50.19
356.702	50.53
356.912	49.9
357.122	50.56
357.332	51.1
357.542	50.86
357.752	51.76
357.962	52.44
358.171	51.8
358.381	51.67
358.591	52.27
358.801	52.7
359.011	52.31
359.221	52.97
359.43	52.25
359.64	51.37
359.85	51.9
360.06	51.31
360.269	51.22
360.479	50.74
360.689	50.84
360.899	50.13
361.108	50.21
361.318	49.8
361.528	49.69
361.737	49.52
361.947	49.91
362.156	49.63
362.366	49.69
362.576	49.28
362.785	49.68
362.995	49.34
363.204	49.49
363.414	48.86
363.623	48.72
363.833	48.21
364.042	48.75
364.252	48.09
364.461	48.57
364.671	48.49
364.88	48.98
365.09	49.07
365.299	49.1
365.509	49.1
365.718	49
365.927	50.47
366.137	50.67
366.346	50.6
366.555	50.79
366.765	51
366.974	51.05
367.183	50.5
367.393	49.21
367.602	49.01
367.811	48.71
368.021	48.88
368.23	47.95
368.439	48.17
368.648	48.03
368.857	48.05
369.067	47.18
369.276	47.62
369.485	47.82
369.694	48.72
369.903	48.52
370.112	48.56
370.321	48.39
370.531	48.07
370.74	47.53
370.949	46.44
371.158	45.98
371.367	45.87
371.576	45.05
371.785	44.84
371.994	44.49
372.203	44.36
372.412	44.3
372.621	44.48
372.83	44.34
373.039	43.36
373.248	43.63
373.457	43.58
373.666	43.31
373.874	43.28
374.083	43.35
374.292	42.82
374.501	42.78
374.71	43.04
374.919	42.93
375.128	42.95
375.336	43.74
375.545	44.54
375.754	44.63
375.963	44.69
376.171	44.43
376.38	44.29
376.589	44.59
376.798	44.4
377.006	43.86
377.215	43.38
377.424	43.28
377.632	42.75
377.841	41.94
378.05	41.82
378.258	41.3
378.467	40.89
378.675	40.91
378.884	40.77
379.093	40.57
379.301	40.08
379.51	40.08
379.718	39.98
379.927	39.48
380.135	39.43
380.344	39.31
380.552	39.63
380.761	40.24
380.969	39.44
381.177	39.08
381.386	38.75
381.594	39.02
381.803	39.06
382.011	38.65
382.219	38.72
382.428	38.21
382.636	38.29
382.845	38.15
383.053	37.26
383.261	37.36
383.469	37.24
383.678	37.69
383.886	37.97
384.094	38.04
384.302	37.36
384.511	37.87
384.719	38.09
384.927	37.3
385.135	37.06
385.343	37.49
385.552	37.31
385.76	37.6
385.968	37.17
386.176	36.74
386.384	36.3
386.592	37.04
386.8	36.68
387.008	36.54
387.216	36.75
387.424	37.04
387.633	36.69
387.841	36.41
388.049	35.89
388.257	35.76
388.465	35.85
388.672	35.89
388.88	35.46
389.088	35.34
389.296	35.27
389.504	35.07
389.712	34.78
389.92	34.83
390.128	34.89
390.336	34.8
390.544	34.64
390.751	34.34
390.959	33.9
391.167	34.23
391.375	33.73
391.583	33.54
391.79	33.37
391.998	32.93
392.206	32.57
392.414	32.49
392.621	32.27
392.829	32.2
393.037	32.03
393.244	31.83
393.452	31.34
393.66	31.76
393.867	32.06
394.075	32.11
394.283	32.06
394.49	32.09
394.698	32.17
394.905	32.25
395.113	32.32
395.32	32.1
395.528	32.32
395.735	32.31
395.943	32.19
396.15	31.44
396.358	30.96
396.565	31.51
396.773	31.58
396.98	31.61
397.188	31.69
397.395	31.58
397.602	31.75
397.81	31.7
398.017	31.74
398.225	31.63
398.432	31.93
398.639	32.21
398.847	31.65
399.054	31.66
399.261	31.54
399.468	31.41
399.676	31.54
399.883	31.56
400.09	31.72
400.297	31.73
400.505	31.55
400.712	31.73
400.919	31.93
401.126	32.01
401.333	31.95
401.54	31.75
401.748	31.93
401.955	31.66
402.162	31.61
402.369	31.83
402.576	31.65
402.783	31.76
402.99	31.39
403.197	31.28
403.404	31.41
403.611	31.16
403.818	30.99
404.025	30.81
404.232	30.85
404.439	30.52
404.646	30.16
404.853	30.19
405.06	29.88
405.267	30.1
405.474	30.16
405.681	29.94
405.887	30.15
406.094	30.55
406.301	30.46
406.508	30.28
406.715	30.52
406.922	30.21
407.128	29.63
407.335	29.75
407.542	29.65
407.749	29.57
407.955	29.41
408.162	28.99
408.369	28.51
408.575	28.74
408.782	28.71
408.989	28.74
409.195	28.76
409.402	29.48
409.609	29.48
409.815	29.63
410.022	29.39
410.228	29.43
410.435	29.94
410.642	29.88
410.848	29.57
411.055	29.68
411.261	29.45
411.468	29.72
411.674	29.42
411.881	29.52
412.087	29.36
412.294	29.31
412.5	29.51
412.706	29.48
412.913	29.68
413.119	29.43
413.326	29.45
413.532	29.93
413.738	29.48
413.945	29.74
414.151	29.8
414.357	29.59
414.564	29.73
414.77	29.59
414.976	29.34
415.182	28.99
415.389	29
415.595	28.71
415.801	28.14
416.007	28.35
416.214	28.27
416.42	28.22
416.626	28.2
416.832	28
417.038	27.92
417.244	27.89
417.45	28.1
417.657	28.13
417.863	28.23
418.069	28.12
418.275	28.21
418.481	28.01
418.687	27.87
418.893	27.76
419.099	27.81
419.305	27.91
419.511	27.8
419.717	27.65
419.923	27.58
420.129	27.46
420.335	27.56
420.541	27.41
420.746	27.43
420.952	27.49
421.158	27.38
421.364	27.38
421.57	27.26
421.776	27.22
421.982	27.32
422.187	27.41
422.393	27.48
422.599	27.4
422.805	27.48
423.01	27.38
423.216	27.24
423.422	27.37
423.628	27.25
423.833	27.12
424.039	27.08
424.245	27.01
424.45	26.87
424.656	26.8
424.862	26.75
425.067	26.45
425.273	26.52
425.478	26.43
425.684	26.32
425.889	26.31
426.095	26.25
426.301	26.28
426.506	26.2
426.712	26.31
426.917	26.34
427.123	26.39
427.328	26.62
427.533	26.52
427.739	26.66
427.944	26.72
428.15	26.61
428.355	26.83
428.561	26.79
428.766	26.79
428.971	26.88
429.177	26.86
429.382	26.91
429.587	26.83
429.793	26.67
429.998	26.74
430.203	26.95
430.408	26.92
430.614	26.87
430.819	26.93
431.024	27.19
431.229	26.96
431.434	27.01
431.64	27.01
431.845	26.95
432.05	26.87
432.255	26.86
432.46	26.67
432.665	26.9
432.87	26.8
433.076	26.85
433.281	26.71
433.486	26.62
433.691	26.54
433.896	26.49
434.101	26.51
434.306	26.7
434.511	26.57
434.716	26.46
434.921	26.35
435.126	26.38
435.331	26.3
435.535	26.1
435.74	26.11
435.945	26.13
436.15	26.06
436.355	26.17
436.56	26.09
436.765	26.06
436.97	26.06
437.174	26.08
437.379	26.12
437.584	26.02
437.789	26.23
437.993	26.32
438.198	26.38
438.403	26.31
438.608	26.26
438.812	26.43
439.017	26.48
439.222	26.72
439.426	26.78
439.631	26.74
439.836	26.74
440.04	26.63
440.245	26.72
440.45	26.63
440.654	26.77
440.859	26.74
441.063	26.66
441.268	26.62
441.472	26.53
441.677	26.39
441.881	26.3
442.086	26.37
442.29	26.4
442.495	26.36
442.699	26.34
442.904	26.24
443.108	26.11
443.312	26.12
443.517	26
443.721	26.06
443.925	26.01
444.13	26.11
444.334	26.12
444.538	26.16
444.743	26.06
444.947	26.05
445.151	25.99
445.356	26
445.56	25.91
445.764	26.01
445.968	25.95
446.173	25.89
446.377	25.86
446.581	25.74
446.785	25.71
446.989	25.63
447.193	25.68
447.398	25.85
447.602	26
447.806	26.11
448.01	25.96
448.214	25.95
448.418	26.05
448.622	25.98
448.826	26.08
449.03	26.12
449.234	26.26
449.438	26.39
449.642	26.35
449.846	26.22
450.05	25.95
450.254	26.2
450.458	26.17
450.662	26.17
450.866	26.18
451.069	26.2
451.273	26.06
451.477	26.02
451.681	25.7
451.885	25.5
452.089	25.56
452.292	25.82
452.496	25.66
452.7	25.52
452.904	25.56
453.107	25.64
453.311	25.53
453.515	25.61
453.719	25.45
453.922	25.48
454.126	25.54
454.33	25.61
454.533	25.4
454.737	25.46
454.94	25.73
455.144	25.81
455.348	25.94
455.551	25.98
455.755	25.92
455.958	26.08
456.162	25.98
456.365	26.04
456.569	25.94
456.772	25.95
456.976	25.97
457.179	25.99
457.383	25.85
457.586	25.65
457.79	25.64
457.993	25.52
458.196	25.48
458.4	25.65
458.603	25.61
458.807	25.53
459.01	25.53
459.213	25.53
459.417	25.33
459.62	25.4
459.823	25.34
460.026	25.4
460.23	25.59
460.433	25.67
460.636	25.67
460.839	25.68
461.042	25.78
461.246	25.79
461.449	25.7
461.652	25.85
461.855	25.79
462.058	25.85
462.261	25.77
462.464	25.65
462.668	25.55
462.871	25.52
463.074	25.36
463.277	25.6
463.48	25.78
463.683	25.88
463.886	25.73
464.089	25.72
464.292	25.84
464.495	25.9
464.698	25.72
464.901	25.6
465.104	25.52
465.306	25.9
465.509	25.62
465.712	25.42
465.915	25.35
466.118	25.58
466.321	25.58
466.524	25.62
466.726	25.44
466.929	25.7
467.132	26
467.335	25.94
467.538	25.87
467.74	25.82
467.943	25.83
468.146	25.86
468.348	25.86
468.551	25.84
468.754	25.7
468.956	25.93
469.159	25.97
469.362	25.97
469.564	26.09
469.767	26.05
469.969	26.31
470.172	26.48
470.375	26.62
470.577	26.49
470.78	26.61
470.982	26.7
471.185	26.65
471.387	26.41
471.59	26.32
471.792	26.35
471.995	26.37
472.197	26.21
472.399	26.25
472.602	26.05
472.804	26.09
473.007	26.02
473.209	26.16
473.411	26.28
473.614	26.59
473.816	26.53
474.018	26.62
474.22	26.76
474.423	26.78
474.625	26.74
474.827	26.89
475.03	26.76
475.232	26.78
475.434	26.82
475.636	26.58
475.838	26.4
476.04	26.47
476.243	26.48
476.445	26.29
476.647	26.32
476.849	26.19
477.051	26.22
477.253	26.3
477.455	26.49
477.657	26.4
477.859	26.47
478.061	26.39
478.263	26.47
478.465	26.37
478.667	26.52
478.869	26.61
479.071	26.57
479.273	26.34
479.475	26.39
479.677	26.24
479.879	26.14
480.081	26.32
480.283	26.43
480.485	26.32
480.686	26.3
480.888	26.14
481.09	26
481.292	26.11
481.494	26.32
481.695	26.37
481.897	26.36
482.099	26.46
482.301	26.32
482.502	26.27
482.704	26.3
482.906	26.3
483.107	26.32
483.309	26.26
483.511	26.3
483.712	26.28
483.914	26.21
484.115	26.13
484.317	26.04
484.519	26.02
484.72	25.99
484.922	25.94
485.123	25.94
485.325	25.91
485.526	25.96
485.728	25.92
485.929	25.89
486.131	25.9
486.332	26.04
486.534	26.12
486.735	26.15
486.936	26.2
487.138	26.19
487.339	26.18
487.541	26.17
487.742	26.12
487.943	26.09
488.144	26.02
488.346	26.06
488.547	26.03
488.748	26.02
488.95	26.01
489.151	26.03
489.352	26.02
489.553	25.95
489.755	26.04
489.956	26.08
490.157	26.13
490.358	26.26
490.559	26.23
490.76	26.23
490.961	26.19
491.163	26.17
491.364	26.19
491.565	26.33
491.766	26.43
491.967	26.38
492.168	26.38
492.369	26.42
492.57	26.42
492.771	26.35
492.972	26.32
493.173	26.41
493.374	26.47
493.575	26.46
493.776	26.46
493.976	26.5
494.177	26.54
494.378	26.58
494.579	26.48
494.78	26.55
494.981	26.62
495.182	26.69
495.382	26.8
495.583	26.81
495.784	26.91
495.985	26.82
496.185	26.89
496.386	26.96
496.587	27.16
496.788	27.15
496.988	27.06
497.189	27.27
497.39	27.28
497.59	27.15
497.791	27.16
497.992	27.25
498.192	27.35
498.393	27.29
498.593	27.33
498.794	27.27
498.994	27.46
499.195	27.64
499.395	27.78
499.596	27.86
499.796	28.06
499.997	28.12
500.197	28.05
500.398	28.12
500.598	28.23
500.799	28.21
500.999	28.25
501.199	28.16
501.4	27.91
501.6	27.81
501.801	27.89
502.001	28.05
502.201	28.23
502.402	28.49
502.602	28.55
502.802	28.42
503.002	28.6
503.203	28.68
503.403	28.82
503.603	29.14
503.803	29.18
504.003	29.21
504.204	28.92
504.404	28.89
504.604	28.65
504.804	28.75
505.004	28.96
505.204	28.85
505.404	29.03
505.604	29.15
505.804	29.38
506.005	29.54
506.205	29.87
506.405	30.22
506.605	30.48
506.805	30.7
507.005	30.82
507.204	30.89
507.404	31.23
507.604	31.1
507.804	31.17
508.004	31.11
508.204	31.18
508.404	31.1
508.604	31.11
508.804	31.06
509.003	31.17
509.203	31.19
509.403	31.19
509.603	31.13
509.803	31.13
510.002	31.22
510.202	31.49
510.402	31.53
510.602	31.5
510.801	31.52
511.001	31.66
511.201	31.79
511.4	32
511.6	32.12
511.8	32.17
511.999	32.54
512.199	32.73
512.398	32.53
512.598	32.67
512.797	32.98
512.997	33.13
513.197	33.28
513.396	33.33
513.596	33.34
513.795	33.49
513.994	33.61
514.194	33.54
514.393	33.54
514.593	33.66
514.792	33.71
514.992	33.68
515.191	33.78
515.39	33.82
515.59	33.9
515.789	33.84
515.988	33.88
516.188	34.11
516.387	34.16
516.586	34.24
516.786	34.46
516.985	34.62
517.184	34.85
517.383	34.96
517.582	34.96
517.782	35.15
517.981	35.24
518.18	35.39
518.379	35.4
518.578	35.48
518.777	35.54
518.976	35.64
519.176	35.57
519.375	35.5
519.574	35.5
519.773	35.57
519.972	35.49
520.171	35.65
520.37	35.74
520.569	35.79
520.768	35.86
520.967	35.88
521.166	36.01
521.365	36.27
521.564	36.27
521.762	36.37
521.961	36.31
522.16	36.42
522.359	36.32
522.558	36.45
522.757	36.47
522.956	36.57
523.154	36.59
523.353	36.56
523.552	36.55
523.751	36.71
523.949	36.87
524.148	37.11
524.347	37.1
524.546	37.23
524.744	37.24
524.943	37.16
525.142	37.27
525.34	37.38
525.539	37.31
525.737	37.43
525.936	37.37
526.135	37.36
526.333	37.43
526.532	37.55
526.73	37.63
526.929	37.77
527.127	37.95
527.326	37.95
527.524	38.07
527.723	38.3
527.921	38.41
528.12	38.58
528.318	38.62
528.516	38.62
528.715	38.69
528.913	38.7
529.112	38.68
529.31	38.69
529.508	38.75
529.707	38.79
529.905	38.68
530.103	38.58
530.301	38.56
530.5	38.68
530.698	38.74
530.896	38.75
531.094	38.76
531.293	38.85
531.491	38.83
531.689	38.92
531.887	39.07
532.085	39.24
532.283	39.29
532.481	39.4
532.68	39.42
532.878	39.48
533.076	39.51
533.274	39.62
533.472	39.54
533.67	39.67
533.868	39.6
534.066	39.58
534.264	39.58
534.462	39.67
534.66	39.62
534.858	39.62
535.056	39.67
535.253	39.7
535.451	39.69
535.649	39.73
535.847	39.71
536.045	39.96
536.243	39.96
536.441	40.01
536.638	39.97
536.836	39.94
537.034	39.91
537.232	39.84
537.43	39.79
537.627	39.75
537.825	39.86
538.023	39.83
538.22	39.74
538.418	39.63
538.616	39.65
538.813	39.77
539.011	39.95
539.209	40.04
539.406	39.94
539.604	40.01
539.801	40.22
539.999	40.24
540.196	40.37
540.394	40.38
540.591	40.47
540.789	40.51
540.986	40.52
541.184	40.55
541.381	40.56
541.579	40.67
541.776	40.68
541.974	40.65
542.171	40.65
542.368	40.59
542.566	40.6
542.763	40.6
542.96	40.59
543.158	40.64
543.355	40.59
543.552	40.67
543.75	40.8
543.947	40.84
544.144	40.86
544.341	40.88
544.539	40.98
544.736	41.09
544.933	41.19
545.13	41.09
545.327	41
545.524	41.03
545.722	40.98
545.919	40.89
546.116	40.87
546.313	40.98
546.51	41.11
546.707	41.2
546.904	41.19
547.101	41.06
547.298	41.23
547.495	41.31
547.692	41.44
547.889	41.58
548.086	41.65
548.283	41.75
548.48	41.74
548.677	41.62
548.874	41.77
549.07	41.78
549.267	41.92
549.464	42.04
549.661	41.93
549.858	41.97
550.055	41.89
550.251	41.84
550.448	41.76
550.645	41.48
550.842	41.37
551.038	41.4
551.235	41.42
551.432	41.65
551.628	41.59
551.825	41.82
552.022	41.64
552.218	41.62
552.415	41.6
552.612	41.75
552.808	42
553.005	42.28
553.201	42.18
553.398	42.11
553.594	41.91
553.791	41.92
553.987	41.67
554.184	41.83
554.38	41.63
554.577	41.69
554.773	41.75
554.97	41.72
555.166	41.77
555.362	41.67
555.559	41.81
555.755	41.91
555.952	41.84
556.148	42.08
556.344	42.04
556.541	42.17
556.737	42.27
556.933	42.39
557.129	42.34
557.326	42.27
557.522	42.46
557.718	42.44
557.914	42.5
558.11	42.75
558.307	42.9
558.503	42.82
558.699	42.85
558.895	42.76
559.091	42.47
559.287	42.75
559.483	42.79
559.679	42.7
559.876	42.74
560.072	42.88
560.268	42.82
560.464	42.92
560.66	43.03
560.856	43.1
561.052	43.3
561.247	43.66
561.443	43.61
561.639	43.48
561.835	43.66
562.031	43.83
562.227	43.72
562.423	43.96
562.619	43.84
562.815	43.89
563.01	43.98
563.206	43.84
563.402	43.5
563.598	43.48
563.793	43.45
563.989	43.65
564.185	43.4
564.381	43.22
564.576	42.91
564.772	42.79
564.968	42.81
565.163	42.72
565.359	42.82
565.555	43.09
565.75	43.29
565.946	43.41
566.141	43.42
566.337	43.55
566.532	43.62
566.728	43.61
566.923	43.74
567.119	43.66
567.314	43.74
567.51	43.74
567.705	43.9
567.901	43.74
568.096	43.76
568.292	43.55
568.487	43.53
568.682	43.67
568.878	43.7
569.073	43.81
569.268	44.14
569.464	44.17
569.659	44.34
569.854	43.9
570.05	43.98
570.245	43.98
570.44	44
570.635	44.04
570.831	44.22
571.026	44.29
571.221	44.39
571.416	44.37
571.611	44.4
571.806	44.33
572.002	44.5
572.197	44.44
572.392	44.54
572.587	44.47
572.782	44.45
572.977	44.4
573.172	44.46
573.367	44.35
573.562	44.25
573.757	44.24
573.952	44.15
574.147	44.16
574.342	44.23
574.537	44.2
574.732	44.3
574.927	44.33
575.121	44.4
575.316	44.4
575.511	44.55
575.706	44.45
575.901	44.4
576.096	44.57
576.29	44.7
576.485	44.8
576.68	45.02
576.875	45.16
577.069	45.31
577.264	45.2
577.459	45.16
577.654	44.85
577.848	44.86
578.043	45.2
578.238	45.27
578.432	45.1
578.627	44.98
578.821	44.92
579.016	44.62
579.21	44.71
579.405	44.61
579.6	44.8
579.794	44.95
579.989	45.18
580.183	44.75
580.378	44.68
580.572	45.18
580.766	45.44
580.961	45.39
581.155	45.61
581.35	45.13
581.544	45.19
581.738	45.02
581.933	45.23
582.127	45.39
582.321	45.39
582.516	45.48
582.71	45.09
582.904	44.99
583.099	45.01
583.293	44.94
583.487	45.18
583.681	45.41
583.875	45.3
584.07	45.2
584.264	45.01
584.458	45.41
584.652	45.37
584.846	45.86
585.04	45.94
585.234	45.93
585.428	46.24
585.623	46.42
585.817	46.24
586.011	46.25
586.205	46.11
586.399	45.96
586.593	45.9
586.787	45.78
586.981	45.31
587.174	44.94
587.368	44.82
587.562	44.4
587.756	44.31
587.95	44.25
588.144	44.71
588.338	44.89
588.532	44.96
588.725	45.01
588.919	45.12
589.113	45.33
589.307	45.78
589.501	45.91
589.694	45.94
589.888	46.01
590.082	46.25
590.275	45.98
590.469	45.75
590.663	45.74
590.856	45.97
591.05	46.06
591.244	45.86
591.437	45.62
591.631	45.71
591.824	45.79
592.018	45.72
592.212	45.55
592.405	45.87
592.599	46.07
592.792	46.21
592.986	45.8
593.179	45.99
593.372	46.21
593.566	46.28
593.759	46.1
593.953	46.54
594.146	46.8
594.339	46.9
594.533	46.89
594.726	47.01
594.92	46.93
595.113	47.1
595.306	46.97
595.499	46.65
595.693	46.69
595.886	46.8
596.079	46.59
596.272	46.4
596.466	46.58
596.659	46.53
596.852	46.67
597.045	46.67
597.238	46.68
597.431	46.71
597.624	47.11
597.818	47
598.011	47.07
598.204	47.14
598.397	47.35
598.59	47.24
598.783	47.25
598.976	47.01
599.169	47.13
599.362	46.98
599.555	46.79
599.748	46.53
599.941	46.68
600.134	46.61
600.326	46.63
600.519	46.48
600.712	46.39
600.905	46.53
601.098	46.55
601.291	46.68
601.483	46.88
601.676	47.38
601.869	47.42
602.062	47.49
602.255	47.46
602.447	47.49
602.64	47.69
602.833	47.77
603.025	47.7
603.218	47.9
603.411	47.83
603.603	47.58
603.796	47.43
603.989	47.37
604.181	47.36
604.374	47.41
604.566	47.52
604.759	47.23
604.951	47.32
605.144	47.06
605.336	46.94
605.529	46.86
605.721	47.11
605.914	47.08
606.106	47.05
606.299	47.06
606.491	47.05
606.683	46.87
606.876	46.83
607.068	46.64
607.26	46.84
607.453	47.07
607.645	47.05
607.837	46.85
608.03	46.8
608.222	46.97
608.414	46.97
608.606	47.02
608.799	47.05
608.991	47.38
609.183	47.35
609.375	47.4
609.567	47.16
609.759	47.35
609.952	47.48
610.144	47.6
610.336	47.57
610.528	47.37
610.72	47.16
610.912	47.08
611.104	46.8
611.296	47.11
611.488	47.06
611.68	47.12
611.872	47.04
612.064	47.17
612.256	46.85
612.448	46.72
612.64	46.7
612.832	47.05
613.023	47.01
613.215	47.32
613.407	46.98
613.599	47.31
613.791	47.37
613.983	47.55
614.174	47.32
614.366	47.5
614.558	47.69
614.75	47.74
614.941	47.52
615.133	47.51
615.325	47.45
615.516	47.19
615.708	46.96
615.9	46.88
616.091	46.84
616.283	46.7
616.475	46.73
616.666	46.89
616.858	47.07
617.049	47.23
617.241	47.21
617.432	47.25
617.624	47.73
617.815	47.81
618.007	47.89
618.198	47.91
618.39	48.27
618.581	48.34
618.773	48.17
618.964	48.17
619.155	48.22
619.347	48.56
619.538	48.15
619.729	47.83
619.921	47.65
620.112	47.64
620.303	47.49
620.494	47.39
620.686	47.16
620.877	47.33
621.068	47.11
621.259	46.82
621.451	46.86
621.642	47.03
621.833	46.95
622.024	47.17
622.215	47.07
622.406	46.9
622.597	47.16
622.788	47.43
622.98	47.37
623.171	47.53
623.362	47.41
623.553	46.72
623.744	46.71
623.935	47.32
624.126	47.42
624.317	47.39
624.508	47.62
624.698	47.55
624.889	47.24
625.08	46.86
625.271	47.03
625.462	47.29
625.653	47.82
625.844	48.09
626.034	47.95
626.225	47.53
626.416	47.56
626.607	47.47
626.798	47.13
626.988	47.01
627.179	47.39
627.37	47.09
627.56	47.15
627.751	46.95
627.942	46.99
628.132	46.76
628.323	46.77
628.514	46.66
628.704	46.74
628.895	47.29
629.085	47.81
629.276	47.92
629.466	48.07
629.657	48.08
629.847	48.24
630.038	48.04
630.228	48.04
630.419	48.24
630.609	48.24
630.8	48.33
630.99	47.78
631.181	47.54
631.371	47.17
631.561	46.93
631.752	47.02
631.942	47.07
632.132	47.2
632.323	47.44
632.513	47.26
632.703	47.5
632.893	47.24
633.084	47.6
633.274	47.16
633.464	47.26
633.654	47.3
633.844	47.01
634.034	46.62
634.225	46.51
634.415	46.22
634.605	46.31
634.795	46.33
634.985	46.37
635.175	46.28
635.365	46.64
635.555	47.15
635.745	47.35
635.935	47.73
636.125	47.98
636.315	48.12
636.505	47.96
636.695	48.02
636.885	47.93
637.075	47.97
637.265	47.76
637.455	47.7
637.644	47.1
637.834	47.13
638.024	47.03
638.214	47.4
638.404	47.59
638.593	47.71
638.783	47.75
638.973	47.74
639.163	48.07
639.352	48.08
639.542	48.02
639.732	48.05
639.921	48.18
640.111	48.26
640.301	47.97
640.49	47.96
640.68	47.99
640.87	47.92
641.059	48.05
641.249	47.73
641.438	47.48
641.628	47.18
641.817	47
642.007	46.93
642.196	46.54
642.386	46.23
642.575	45.82
642.764	46.05
642.954	46.02
643.143	45.75
643.333	45.79
643.522	46.31
643.711	46.35
643.901	46.97
644.09	47.2
644.279	47.1
644.469	46.91
644.658	47.31
644.847	47.26
645.036	47.22
645.226	47.4
645.415	47.33
645.604	46.94
645.793	47.42
645.982	46.98
646.171	46.44
646.361	46.93
646.55	47.44
646.739	47.08
646.928	47.33
647.117	47.42
647.306	47.07
647.495	46.99
647.684	47.3
647.873	47.3
648.062	47.21
648.251	47.56
648.44	47.32
648.629	47.35
648.818	47.27
649.007	46.78
649.196	46.87
649.384	47.34
649.573	47.58
649.762	47.59
649.951	47.56
650.14	47.64
650.328	47.52
650.517	47.57
650.706	47.13
650.895	47.06
651.083	47.21
651.272	47.24
651.461	47.37
651.65	47.17
651.838	47.18
652.027	47.2
652.216	47.33
652.404	47.22
652.593	47.05
652.781	47.2
652.97	47.5
653.158	47.32
653.347	46.86
653.535	46.29
653.724	46.68
653.912	46.65
654.101	46.62
654.289	46.69
654.478	46.72
654.666	47.04
654.855	47.44
655.043	47.34
655.231	47.5
655.42	47.7
655.608	48.23
655.796	47.42
655.985	47.28
656.173	46.93
656.361	46.48
656.55	46.68
656.738	46.62
656.926	46.38
657.114	46.81
657.302	46.85
657.491	46.84
657.679	46.32
657.867	46.52
658.055	46.66
658.243	47.43
658.431	47.56
658.619	47.3
658.807	47
658.996	47.07
659.184	46.54
659.372	46.46
659.56	46.53
659.748	46.64
659.936	46.88
660.124	46.63
660.311	45.99
660.499	46.18
660.687	46.35
660.875	46.68
661.063	46.77
661.251	47.26
661.439	47.51
661.627	47.84
661.814	47.82
662.002	47.62
662.19	48.16
662.378	48.58
662.565	48.38
662.753	47.99
662.941	48.24
663.129	48.1
663.316	48.08
663.504	48.38
663.692	47.39
663.879	47.35
664.067	47.54
664.254	47.48
664.442	47.55
664.63	47.66
664.817	48.27
665.005	47.65
665.192	47.6
665.38	47.01
665.567	46.01
665.755	46.83
665.942	47.02
666.13	47.21
666.317	46.91
666.504	46.31
666.692	46.18
666.879	46.1
667.067	46.26
667.254	46.41
667.441	46.55
667.629	46.94
667.816	47.14
668.003	47.71
668.19	47.47
668.378	47.64
668.565	48
668.752	48.25
668.939	48.02
669.127	48.13
669.314	47.91
669.501	48.18
669.688	48.85
669.875	48.67
670.062	48.1
670.249	48.19
670.436	48.16
670.623	48.37
670.81	48.19
670.997	47.96
671.184	47.53
671.371	47.98
671.558	47.27
671.745	46.93
671.932	47.13
672.119	47.13
672.306	47.17
672.493	47.08
672.68	46.54
672.867	46.59
673.054	47.07
673.24	47.56
673.427	47.01
673.614	47.93
673.801	47.45
673.988	46.52
674.174	46.93
674.361	46.6
674.548	46.7
674.734	47.6
674.921	48.12
675.108	48.31
675.294	48.15
675.481	48.66
675.668	48.37
675.854	48.53
676.041	49.22
676.227	49.57
676.414	49.57
676.601	49.24
676.787	48.2
676.974	47.57
677.16	47.28
677.347	47.28
677.533	46.94
677.719	47.29
677.906	47.53
678.092	47.1
678.279	46.65
678.465	46.29
678.651	46.12
678.838	46.63
679.024	46.91
679.21	46.96
679.397	46.72
679.583	47.05
679.769	46.96
679.955	46.88
680.142	47.13
680.328	47.52
680.514	47.94
680.7	48.35
680.886	48.26
681.073	48.64
681.259	48.57
681.445	49.1
681.631	49.04
681.817	48.57
682.003	48.6
682.189	49.02
682.375	48.66
682.561	48.86
682.747	48.86
682.933	48.85
683.119	48.03
683.305	48.02
683.491	47.95
683.677	47.95
683.863	47.79
684.049	47.98
684.235	47.49
684.42	47.63
684.606	47.44
684.792	46.97
684.978	47
685.164	46.81
685.349	47.09
685.535	47.02
685.721	46.68
685.907	47.03
686.092	47.08
686.278	46.62
686.464	46.11
686.649	46.31
686.835	46.52
687.021	46.49
687.206	46.51
687.392	46.82
687.577	46.81
687.763	46.83
687.948	47.19
688.134	46.61
688.319	47.14
688.505	47.4
688.69	47.27
688.876	47.67
689.061	48.41
689.247	48.73
689.432	48.22
689.618	47.91
689.803	48.04
689.988	47.77
690.174	48.41
690.359	48.52
690.544	48.45
690.73	48.47
690.915	48.65
691.1	47.51
691.285	47.28
691.471	47.52
691.656	47.99
691.841	47.55
692.026	47.81
692.211	47.21
692.396	46.99
692.582	46.94
692.767	47.04
692.952	46.92
693.137	47.29
693.322	47.35
693.507	47.86
693.692	46.95
693.877	46.68
694.062	46.68
694.247	47.55
694.432	48.08
694.617	48.42
694.802	47.32
694.987	47.17
695.172	46.71
695.357	46.81
695.541	46.65
695.726	46.52
695.911	47.19
696.096	47.05
696.281	46.4
696.466	46.1
696.65	45.38
696.835	46.77
697.02	46.17
697.204	46.46
697.389	47.2
697.574	47.03
697.759	47.6
697.943	47.48
698.128	47.66
698.312	47.72
698.497	47.9
698.682	48.25
698.866	47.66
699.051	47.78
699.235	48.03
699.42	47.2
699.604	46.9
699.789	46.53
699.973	46.54
700.158	46.5
700.342	46.45
700.527	46.08
700.711	45.8
700.895	45.85
701.08	45.97
701.264	45.56
701.448	46.28
701.633	46.4
701.817	46.8
702.001	46.94
702.186	46.62
702.37	45.93
702.554	45.56
702.738	46.31
702.923	47.07
703.107	46.33
703.291	46.66
703.475	46.17
703.659	46.4
703.843	46.5
704.027	46.61
704.212	46.62
704.396	47.63
704.58	48.05
704.764	47.78
704.948	46.92
705.132	48.02
705.316	47.56
705.5	48.02
705.684	47.93
705.868	47.57
706.052	47.25
706.235	48
706.419	47.76
706.603	47.62
706.787	47.46
706.971	47.62
707.155	47.5
707.339	48.08
707.522	48.35
707.706	47.99
707.89	47.97
708.074	47.86
708.257	46.87
708.441	46.7
708.625	46.67
708.808	46.99
708.992	47.01
709.176	46.91
709.359	47.8
709.543	47.55
709.727	48.21
709.91	48.58
710.094	48.52
710.277	47.97
710.461	48.14
710.644	48.72
710.828	47.97
711.011	48.11
711.195	47.49
711.378	46.99
711.562	46.88
711.745	46.34
711.928	45.76
712.112	46.85
712.295	47.21
712.478	47.1
712.662	46.78
712.845	46.7
713.028	45.91
713.212	46.55
713.395	45.69
713.578	45.17
713.761	44.42
713.945	45
714.128	43.81
714.311	44.45
714.494	44.74
714.677	44.28
714.86	44.79
715.043	44.84
715.227	45.21
715.41	45
715.593	45.35
715.776	45.61
715.959	45.58
716.142	45.69
716.325	45.76
716.508	45.59
716.691	45.67
716.874	45.94
717.057	46.57
717.239	45.76
717.422	46.24
717.605	46.68
717.788	46.86
717.971	46.85
718.154	47.13
718.337	47.1
718.519	47.5
718.702	48.27
718.885	48.27
719.068	48.57
719.25	48.79
719.433	49.25
719.616	48.83
719.798	49.02
719.981	48.77
720.164	48.94
720.346	49.21
720.529	48.3
720.712	47.49
720.894	46.84
721.077	45.88
721.259	46.2
721.442	45.88
721.624	44.52
721.807	44.56
721.989	44.94
722.172	45.04
722.354	43.82
722.537	43.82
722.719	44.4
722.901	44.42
723.084	44.85
723.266	44.34
723.448	44.59
723.631	45.08
723.813	45.3
723.995	45.97
724.178	46.43
724.36	47.04
724.542	46.88
724.724	46.04
724.907	46.33
725.089	47.18
725.271	47.62
725.453	47.21
725.635	47.56
725.817	47.68
725.999	46.86
726.181	46.3
726.364	45.11
726.546	45.87
726.728	46.29
726.91	45.21
727.092	44.9
727.274	44.67
727.456	44.59
727.638	44.22
727.819	44.04
728.001	43.89
728.183	43.58
728.365	43.81
728.547	43.55
728.729	43.2
728.911	44.52
729.093	44.85
729.274	45.54
729.456	45.33
729.638	46.27
729.82	46.38
730.001	46.14
730.183	46.15
730.365	46.93
730.546	46.75
730.728	46.41
730.91	45.84
731.091	45.47
731.273	44.81
731.455	44.78
731.636	43.65
731.818	44.17
731.999	45.33
732.181	45.02
732.362	44.73
732.544	44.81
732.725	45.46
732.907	45.19
733.088	45.48
733.27	44.91
733.451	45.37
733.633	46.19
733.814	46.16
733.995	44.58
734.177	44.59
734.358	43.94
734.539	43.98
734.721	44.14
734.902	44.59
735.083	44.19
735.264	44.59
735.446	43.16
735.627	43.06
735.808	42.05
735.989	42.26
736.17	42.79
736.351	43.45
736.533	43.24
736.714	42.65
736.895	42.21
737.076	42.82
737.257	44.04
737.438	44.79
737.619	45.34
737.8	44.82
737.981	44.92
738.162	44.12
738.343	44.14
738.524	43.91
738.705	44.08
738.886	43.96
739.067	43.26
739.247	42.25
739.428	41.36
739.609	40
739.79	42.03
739.971	43.07
740.151	43.4
740.332	44.24
740.513	43.99
740.694	44.39
740.874	45.14
741.055	44.41
741.236	44.24
741.417	44.93
741.597	45.84
741.778	45.05
741.958	43.29
742.139	42.55
742.32	41.48
742.5	41.48
742.681	40.54
742.861	38.67
743.042	39.94
743.222	39.65
743.403	40.97
743.583	40.79
743.764	39.39
743.944	41.76
744.124	44.81
744.305	44.52
744.485	43.2
744.666	44.04
744.846	45.71
745.026	45.4
745.207	46.34
745.387	44.86
745.567	44.97
745.747	45.31
745.928	44.81
746.108	43.99
746.288	44.68
746.468	46.77
746.648	45.83
746.829	44.97
747.009	44.99
747.189	45.25
747.369	45.88
747.549	44.89
747.729	44.83
747.909	44.43
748.089	45.26
748.269	44.44
748.449	45.3
748.629	46.52
748.809	46.43
748.989	46.27
749.169	45.51
749.349	45.95
749.529	46.54
749.709	46.87
749.889	46.87
750.068	45.78
750.248	46.37
750.428	45.94
750.608	44.94
750.788	45.02
750.967	44.16
751.147	43.09
751.327	43.7
751.507	43.53
751.686	43.78
751.866	44.81
752.046	44.27
752.225	44.38
752.405	42.84
752.585	41.9
752.764	42.53
752.944	41.89
753.123	43.92
753.303	42.54
753.482	42.8
753.662	42.54
753.841	41.19
754.021	40.55
754.2	40.4
754.38	41.04
754.559	42.09
754.739	42.2
754.918	42.6
755.097	41.47
755.277	41.41
755.456	40.29
755.635	41.28
755.815	41.76
755.994	42.78
756.173	42.96
756.352	44.37
756.532	45.39
756.711	45.47
756.89	45.62
757.069	46.29
757.248	46.82
757.427	47.37
757.607	45.88
757.786	45.4
757.965	44.86
758.144	45.02
758.323	43.58
758.502	42.07
758.681	41.52
758.86	43.11
759.039	42.95
759.218	42.51
759.397	42.71
759.576	43.43
759.755	43.11
759.934	43.5
760.113	43.93
760.291	44.01
760.47	45.02
760.649	45.4
760.828	44.21
761.007	42.93
761.186	44.52
761.364	44.6
761.543	44.9
761.722	45.28
761.901	44.57
762.079	44.61
762.258	44.54
762.437	45.17
762.615	45.33
762.794	45.45
762.972	46.04
763.151	45.78
763.33	45.15
763.508	44.85
763.687	44.68
763.865	45.45
764.044	44.8
764.222	45.93
764.401	45.07
764.579	44.3
764.758	43.65
764.936	43.36
765.114	42.81
765.293	43.51
765.471	43.2
765.65	43.58
765.828	42.24
766.006	42.23
766.184	42.52
766.363	43.33
766.541	43.63
766.719	44.21
766.898	43.67
767.076	43.69
767.254	43.38
767.432	43.63
767.61	43.34
767.788	43.71
767.967	43.92
768.145	41.6
768.323	40.54
768.501	41.9
768.679	42.52
768.857	44.02
769.035	43.64
769.213	43.36
769.391	43.92
769.569	43.99
769.747	44.9
769.925	43.56
770.103	44.74
770.281	44.22
770.459	42.04
770.636	43.21
770.814	43.41
770.992	44.46
771.17	44.03
771.348	41.77
771.525	39.98
771.703	40.49
771.881	41.52
772.059	42.36
772.236	41.21
772.414	40.97
772.592	39.34
772.769	36.94
772.947	38.18
773.125	40.69
773.302	42.19
773.48	43.29
773.657	41.53
773.835	41.33
774.013	39.43
774.19	39.08
774.368	41.31
774.545	42.22
774.723	44.15
774.9	40.69
775.077	39.05
775.255	39.23
775.432	39.73
775.61	42.57
775.787	44.03
775.964	44.36
776.142	46.39
776.319	45.91
776.496	44.13
776.674	43.93
776.851	44.19
777.028	43.24
777.205	43.39
777.382	42.14
777.56	39.06
777.737	38.65
777.914	39.82
778.091	41.37
778.268	41.2
778.445	40.92
778.622	40.67
778.8	40.55
778.977	42.13
779.154	41.21
779.331	43.42
779.508	47.22
779.685	45.72
779.862	44.21
780.038	43.05
780.215	42.37
780.392	43.2
780.569	43.29
780.746	46.36
780.923	47.39
781.1	47.15
781.277	47.34
781.453	42.97
781.63	45.56
781.807	45.14
781.984	47.32
782.16	47.81
782.337	48.48
782.514	47.26
782.691	43.02
782.867	40.49
783.044	43.68
783.221	40.36
783.397	41.97
783.574	39.45
783.75	39.19
783.927	36.87
784.103	36.58
784.28	35.34
784.456	36.39
784.633	35.39
784.809	36.29
784.986	34.28
785.162	37.3
785.339	35.04
785.515	35.27
785.692	33.91
785.868	35.05
786.044	35.16
786.221	36.42
786.397	37.22
786.573	39.06
786.749	39.93
786.926	39.78
787.102	40.07
787.278	42.11
787.454	44.24
787.631	46.68
787.807	43.19
787.983	43.62
788.159	42.04
788.335	42.76
788.511	43.71
788.687	42.86
788.863	44.13
789.039	44.23
789.216	44.79
789.392	42.29
789.568	43.63
789.744	48.08
789.919	50.22
790.095	51.64
790.271	51.24
790.447	51.65
790.623	51.02
790.799	49.45
790.975	49.79
791.151	51.72
791.327	52.27
791.502	51.63
791.678	50.17
791.854	49.14
792.03	48.35
792.205	48.08
792.381	49.25
792.557	48.32
792.733	47.44
792.908	46.22
793.084	39.22
793.259	37.56
793.435	36.68
793.611	36.22
793.786	37.08
793.962	37.25
794.137	36.4
794.313	35.58
794.488	35.91
794.664	37.18
794.839	37.51
795.015	41.16
795.19	41.76
795.366	39.95
795.541	40
795.716	37.4
795.892	37.35
796.067	39.91
796.242	38.45
796.418	41.04
796.593	39.77
796.768	38.7
796.944	38.71
797.119	39.89
797.294	39.77
797.469	39.87
797.644	38.16
797.82	39
797.995	37.04
798.17	38.11
798.345	38.92
798.52	38.49
798.695	37.85
798.87	34.85
799.045	35.77
799.22	36.21
799.395	37.93
799.57	40.83
799.745	36.85
799.92	37.4
800.095	36.63
800.27	34.23
800.445	32.06
800.62	35.84
800.795	38.23
800.97	36.67
801.145	41.35
801.319	40.27
801.494	38.97
801.669	41.31
801.844	41.85
802.018	44.69
802.193	43.72
802.368	48.51
802.543	43.74
802.717	43.31
802.892	43.42
803.067	39.66
803.241	38.22
803.416	39.85
803.59	41.36
803.765	38.68
803.94	36.42
804.114	39.46
804.289	39.38
804.463	43.4
804.638	43.48
804.812	43.42
804.986	45.29
805.161	44.95
805.335	48.59
805.51	44.43
805.684	43.25
805.858	43.72
806.033	44.31
806.207	41.98
806.381	43.46
806.556	46.08
806.73	48.97
806.904	46.6
807.078	48.65
807.253	47.28
807.427	48.1
807.601	52.15
807.775	53.39
807.949	50.06
808.123	50.73
808.298	48.83
808.472	43.72
808.646	40.33
808.82	40
808.994	39.13
809.168	35.49
809.342	42.84
809.516	44.64
809.69	41.86
809.864	47.35
810.038	48.88
810.212	49.47
810.385	50.48
810.559	51.63
810.733	51.15
810.907	48.29
811.081	50.75
811.255	42.28
811.428	38.31
811.602	40.24
811.776	38.45
811.95	38.09
812.123	34.94
812.297	36.11
812.471	36.71
812.644	38.13
812.818	37.53
812.992	36.48
813.165	44.3
813.339	45.96
813.512	44.84
813.686	45.81
813.86	43.4
814.033	43.21
814.207	46.1
814.38	44.03
814.554	42.24
814.727	45.2
814.9	40.9
815.074	37.95
815.247	34.02
815.421	36.44
815.594	36.25
815.767	37.42
815.941	40.15
816.114	35.72
816.287	39.66
816.46	42.1
816.634	41.08
816.807	42.82
816.98	45.98
817.153	43.39
817.327	38.56
817.5	37.62
817.673	34.62
817.846	30.54
818.019	31.79
818.192	31.24
818.365	33.93
818.538	34.2
818.711	34.03
818.884	33.48
819.057	37.29
819.23	38.78
819.403	38.42
819.576	40.03
819.749	43.65
819.922	41.2
820.095	39.97
820.268	38.14
820.441	40.15
820.614	41.07
820.786	43.09
820.959	42.71
821.132	43.44
821.305	41.84
821.477	43.82
821.65	43.65
821.823	44.72
821.996	44.37
822.168	43.76
822.341	44.39
822.514	44.13
822.686	43.12
822.859	43.63
823.031	43.76
823.204	43.71
823.376	43.31
823.549	42.76
823.722	42.84
823.894	43.31
824.067	42.79
824.239	42.45
824.411	42.02
824.584	41.47
824.756	40.53
824.929	40.15
825.101	39.61
825.273	38.52
825.446	38.9
825.618	38.99
825.79	39.19
825.963	38.41
826.135	36.89
826.307	37.52
826.479	37.14
826.652	37.79
826.824	37.79
826.996	38.92
827.168	40.6
827.34	41.13
827.512	40.04
827.684	39.32
827.856	39.99
828.029	38.29
828.201	37.47
828.373	38.49
828.545	37.51
828.717	36.14
828.889	36.3
829.061	33.19
829.232	32.43
829.404	34.28
829.576	32.03
829.748	33.32
829.92	39.96
830.092	41.1
830.264	39.98
830.436	41.29
830.607	43.53
830.779	43.56
830.951	48
831.123	48.08
831.294	47.47
831.466	49.45
831.638	49.75
831.809	46.06
831.981	45.73
832.153	42.25
832.324	38.54
832.496	38.58
832.667	38.81
832.839	36.98
833.011	35.5
833.182	35.64
833.354	37.72
833.525	35.42
833.697	34.98
833.868	37.49
834.039	39.34
834.211	41.96
834.382	41.01
834.554	41.28
834.725	41.3
834.896	39.43
835.068	36.56
835.239	35.16
835.41	34.56
835.581	34.95
835.753	32.32
835.924	32.46
836.095	30.71
836.266	30.73
836.438	31.9
836.609	32.14
836.78	34.72
836.951	38.52
837.122	39.91
837.293	43.55
837.464	42.04
837.635	41.89
837.806	44.01
837.977	42.15
838.148	46.33
838.319	38.97
838.49	42.21
838.661	50.33
838.832	41.36
839.003	42.18
839.174	42.48
839.345	45.8
839.516	48.42
839.687	45.78
839.857	45.08
840.028	43.55
840.199	45.68
840.37	39.53
840.54	36.06
840.711	44.78
840.882	44.98
841.053	43.84
841.223	42.96
841.394	45.85
841.564	44.94
841.735	48.54
841.906	46.55
842.076	53.96
842.247	52.63
842.417	55.07
842.588	45.46
842.758	39.43
842.929	42.37
843.099	46.25
843.27	50.32
843.44	66.05
843.611	69.64
843.781	59.94
843.951	45.05
844.122	55.65
844.292	50.35
844.462	62.82
844.633	49.73
844.803	51.98
844.973	53.29
845.144	57.73
845.314	47.71
845.484	40.56
845.654	59.75
845.824	72.51
845.995	60.99
846.165	58.85
846.335	56.91
846.505	73.63
846.675	69.52
846.845	66.26
847.015	56.13
847.185	55.93
847.355	49.85
847.525	38.89
847.695	34.57
847.865	52.52
848.035	57.51
848.205	54.55
848.375	63.7
848.545	67.37
848.715	67.09
848.884	74.02
849.054	71.46
849.224	80.43
849.394	76.89
849.564	90.51
849.733	80.82
849.903	74.3
850.073	78.82
850.243	74.9
850.412	76.79
850.582	80.39
850.752	64.91
850.921	52.63
851.091	36.07
851.26	25.19
851.43	-26.47
851.599	8.06
851.769	27.74
851.939	34.22
852.108	0.99
852.278	-38.16
852.447	-21.55
852.616	-2.96
852.786	23.74
852.955	28.76
853.125	40.53
853.294	37.78
853.463	23.69
853.633	21.52
853.802	32.84
853.971	48.68
854.141	55.69
854.31	65.75
854.479	48.34
854.648	48.29
854.818	48.49
854.987	49.23
855.156	72.54
855.325	106.91
855.494	137.08
855.663	136.54
855.832	119.2
856.001	94.05
856.171	99.34
856.34	117.11
856.509	117.55
856.678	106.96
856.847	111.92
857.016	97.29
857.185	71.96
857.353	68.94
857.522	62.23
857.691	57.06
857.86	64.49
858.029	56.99
858.198	47.02
858.367	45.99
858.535	52.03
858.704	45.4
858.873	39.51
859.042	39.83
859.21	25.03
859.379	11.74
859.548	-10.45
859.717	-18.62
859.885	-22.72
860.054	-7.12
860.222	0.8
860.391	4.27
860.56	20.53
860.728	17.92
860.897	33.9
861.065	51.08
861.234	53.2
861.402	39.98
861.571	34.6
861.739	39.81
861.908	46.49
862.076	55.4
862.244	65.46
862.413	42.81
862.581	47.9
862.749	31.68
862.918	16.78
863.086	30.09
863.254	38.06
863.423	35.43
863.591	32.22
863.759	43.29
863.927	46.68
864.096	12.14
864.264	71.78
864.432	66.97
864.6	53.28
864.768	83.97
864.936	89.61
865.104	85.15
865.272	105.57
865.44	108.07
865.608	78.83
865.776	77.22
865.944	73.41
866.112	72.97
866.28	66.62
866.448	77.52
866.616	67.35
866.784	46.32
866.952	57.98
867.12	45.08
867.288	53.54
867.455	53.46
867.623	48.86
867.791	57.09
867.959	41.35
868.127	26.49
868.294	28.88
868.462	3.3
868.63	22.26
868.797	21.49
868.965	19.94
869.133	-3.02
869.3	-12.36
869.468	-10.77
869.636	-12.16
869.803	-34.94
869.971	-27.16
870.138	-41.12
870.306	-53.12
870.473	-34.18
870.641	-29.91
870.808	-21.83
870.975	-29.63
871.143	6.34
871.31	3.71
871.478	15.33
871.645	32.19
871.812	43.27
871.98	66.57
872.147	83.15
872.314	59.62
872.482	60.24
872.649	52.2
872.816	58.65
872.983	53.56
873.15	65.26
873.318	38.52
873.485	32.55
873.652	-2.58
873.819	-40.54
873.986	-38.03
874.153	-27.46
874.32	-1.14
874.487	-3.66
874.654	-26.18
874.821	-13.83
874.988	-8.55
875.155	11.39
875.322	-10.76
875.489	-1.13
875.656	19.71
875.823	23.12
875.99	39.29
876.157	6.56
876.324	1.07
876.49	29.01
876.657	21.67
876.824	30.5
876.991	32.69
877.157	45.95
877.324	32.79
877.491	26.93
877.658	51.31
877.824	55.1
877.991	95.72
878.157	101.76
878.324	111.77
878.491	116.19
878.657	97.52
878.824	91.44
878.99	86.08
879.157	86
879.323	67.06
879.49	48.73
879.656	-2.5
879.823	-4.3
879.989	-4.37
880.156	2.73
880.322	8.36
880.488	4.32
880.655	0.5
880.821	-3.51
880.987	8.42
881.154	19.04
881.32	21.17
881.486	40.79
881.652	42.04
881.819	48.55
881.985	51.36
882.151	48.74
882.317	47.04
882.483	50.85
882.649	52.13
882.816	46.47
882.982	45.01
883.148	42.5
883.314	40.53
883.48	38.34
883.646	33.41
883.812	30.58
883.978	28.26
884.144	29.72
884.31	29.9
884.476	29.4
884.642	31.43
884.807	31.4
884.973	33.7
885.139	30.86
885.305	31.36
885.471	36.31
885.637	39.95
885.802	44.86
885.968	43.09
886.134	41.25
886.3	45.07
886.465	39.85
886.631	39.59
886.797	39.67
886.962	39.43
887.128	44.06
887.293	45.3
887.459	48.47
887.625	47.75
887.79	52.82
887.956	52.06
888.121	41.69
888.287	56.14
888.452	57.16
888.618	60.28
888.783	99.11
