Data from 2938071_Reflection_1.txt Node
Date: Sat Jul 11 20:36:41 EDT 2015
User: robert
Spectrometer: USB4E03001
Autoset integration time: false
Trigger mode: 4
Integration Time (sec): 1.000000E-1
Scans to average: 10
Electric dark correction enabled: true
Nonlinearity correction enabled: false
Boxcar width: 5
Stray light correction enabled: false
XAxis mode: Wavelengths
Stop averaging: false
Number of Pixels in Spectrum: 3648
>>>>>Begin Spectral Data<<<<<
177.566	-12.45
177.785	69.79
178.005	67.55
178.225	-49.57
178.445	-11.49
178.665	36.35
178.885	-140.55
179.105	3.93
179.324	-15.41
179.544	-149.25
179.764	-131.27
179.984	240.9
180.204	-53.4
180.423	-7.84
180.643	127.6
180.863	90.24
181.083	34.42
181.302	48.79
181.522	26.37
181.742	9.04
181.961	-46.61
182.181	-16.79
182.401	-23.82
182.621	-19.25
182.84	-13.54
183.06	-35.3
183.279	-47.73
183.499	-19.96
183.719	-18.56
183.938	6.72
184.158	26.29
184.377	40.65
184.597	52.02
184.816	50.65
185.036	44.66
185.256	48.11
185.475	62.18
185.695	81.51
185.914	56.3
186.134	63.05
186.353	17.17
186.572	-8.14
186.792	-69.42
187.011	-50.42
187.231	-56.17
187.45	-116.12
187.67	-128.66
187.889	-197.47
188.108	2362.91
188.328	262.59
188.547	279.43
188.766	700.83
188.986	560.79
189.205	-202.13
189.424	-143.08
189.644	-134.99
189.863	-116.68
190.082	-129.61
190.302	-67.56
190.521	-88.05
190.74	-81.07
190.959	-138.84
191.178	-227.61
191.398	-232.93
191.617	-174.84
191.836	-172.66
192.055	-98.94
192.274	-97.55
192.494	-478.65
192.713	-364.27
192.932	-80.31
193.151	-52.55
193.37	-59.51
193.589	-46.89
193.808	-39.29
194.027	-27.72
194.246	-44.14
194.465	-39.67
194.685	-40.18
194.904	-0.94
195.123	-9.61
195.342	-5.71
195.561	-14.14
195.78	-46.29
195.999	-114.32
196.218	-131.19
196.436	311.71
196.655	103.04
196.874	18.55
197.093	-169.97
197.312	3.69
197.531	65.61
197.75	419.77
197.969	-206.29
198.188	-26.31
198.407	-12.39
198.625	15.57
198.844	15.4
199.063	-2.44
199.282	-44.97
199.501	-25.35
199.719	-5.19
199.938	-33.08
200.157	-19.16
200.376	-6.35
200.594	9.04
200.813	-11.22
201.032	-256.2
201.251	205.97
201.469	-48.39
201.688	6.29
201.907	0.02
202.125	-33.52
202.344	-34.7
202.563	-145.16
202.781	-18.39
203	-4.19
203.218	-0.54
203.437	27.49
203.656	-5.42
203.874	-32.78
204.093	-70.5
204.311	1520.82
204.53	-3219.32
204.748	182.47
204.967	120.11
205.185	53
205.404	133.28
205.622	74.56
205.841	82.85
206.059	59.02
206.278	-36.75
206.496	126.85
206.715	55.47
206.933	40.21
207.151	39.48
207.37	23.13
207.588	-29.94
207.806	11.52
208.025	25.53
208.243	31.07
208.461	52.85
208.68	59.82
208.898	31.04
209.116	34.57
209.335	25.35
209.553	44.16
209.771	46.57
209.989	77.07
210.208	55.75
210.426	70.74
210.644	87.37
210.862	61.6
211.081	33.43
211.299	47.17
211.517	39.25
211.735	43.35
211.953	27.15
212.171	32.97
212.39	14.88
212.608	15.75
212.826	-15.31
213.044	-97.92
213.262	-136.45
213.48	-92.72
213.698	-68.61
213.916	-176.51
214.134	-387.19
214.352	-219.2
214.57	-298.56
214.788	-250.54
215.006	-175.65
215.224	-122.07
215.442	-39.45
215.66	-71.78
215.878	-103.73
216.096	-135.01
216.314	-62.26
216.532	-35.17
216.75	-28.57
216.968	-33.15
217.185	-36.69
217.403	-63.91
217.621	-104.61
217.839	-78.68
218.057	-58.54
218.275	-72.69
218.492	-46.22
218.71	-77.19
218.928	-89.47
219.146	-95.39
219.363	-80.6
219.581	-74.98
219.799	-89.52
220.017	-105.54
220.234	-107.63
220.452	-97.67
220.67	-68.96
220.887	-41.62
221.105	-37.32
221.323	-40.78
221.54	-44.86
221.758	-21.97
221.976	-20.93
222.193	-22.86
222.411	-37.08
222.629	-65.66
222.846	-58.38
223.064	-63.78
223.281	-80.91
223.499	-107.43
223.716	-84.1
223.934	-105.06
224.151	-132.37
224.369	-138.72
224.586	-67.15
224.804	-38.83
225.021	-42.68
225.239	-31.27
225.456	-16.02
225.674	-14.03
225.891	-17.41
226.108	-13.73
226.326	-17.45
226.543	-14.32
226.76	-18.77
226.978	-25.88
227.195	-22.23
227.413	-12.59
227.63	-10.77
227.847	-16.22
228.064	-11.72
228.282	-7.54
228.499	-4.54
228.716	-1.33
228.934	2.28
229.151	4.32
229.368	6.46
229.585	6.21
229.802	7.34
230.02	4.79
230.237	6.12
230.454	6.43
230.671	6.06
230.888	5.2
231.105	1.71
231.323	-0.97
231.54	0.3
231.757	-2.67
231.974	0
232.191	-0.54
232.408	2.22
232.625	5.71
232.842	1.08
233.059	3.18
233.276	4.96
233.493	9.52
233.71	12.81
233.927	12.83
234.144	10.88
234.361	11.1
234.578	11.89
234.795	10.65
235.012	3.14
235.229	4.38
235.446	5.36
235.663	-0.53
235.879	0.79
236.096	0
236.313	-1.64
236.53	-6.24
236.747	-3.6
236.964	-8.75
237.181	-6.15
237.397	1.19
237.614	5.12
237.831	8.24
238.048	9.41
238.264	6.47
238.481	4
238.698	-0.32
238.915	7.63
239.131	2.2
239.348	1.99
239.565	1.72
239.781	2.64
239.998	-2.85
240.215	-1.51
240.431	1.31
240.648	5.8
240.865	7.43
241.081	13.08
241.298	11.81
241.514	10.81
241.731	12.62
241.947	12.24
242.164	10.45
242.38	11.07
242.597	10.83
242.814	11.52
243.03	11.2
243.246	11.76
243.463	10.02
243.679	9.88
243.896	11.23
244.112	10.09
244.329	10.64
244.545	13.35
244.762	13
244.978	11.92
245.194	10.19
245.411	9.49
245.627	6.6
245.843	6.82
246.06	7.03
246.276	4.83
246.492	4.96
246.709	5.09
246.925	3.99
247.141	5.28
247.357	4.75
247.574	5.79
247.79	5.51
248.006	6.35
248.222	6.05
248.439	4.36
248.655	4.69
248.871	4.53
249.087	3.32
249.303	2.8
249.519	2.15
249.736	1.9
249.952	0.32
250.168	0.58
250.384	-0.64
250.6	-1.3
250.816	2.51
251.032	3.76
251.248	1.69
251.464	2.62
251.68	5.34
251.896	3.94
252.112	2.78
252.328	2.89
252.544	1.71
252.76	2.5
252.976	3.77
253.192	5.28
253.408	3.89
253.624	4.22
253.84	1.95
254.056	-2.98
254.272	-4.12
254.487	-4.37
254.703	-6.73
254.919	-7.93
255.135	-5.77
255.351	-9.14
255.567	-13.31
255.782	-11.48
255.998	-5.55
256.214	0.82
256.43	2.68
256.646	4.8
256.861	7.61
257.077	7.72
257.293	9.55
257.508	6.46
257.724	5.57
257.94	6.23
258.155	6.98
258.371	5.67
258.587	5.23
258.802	5.14
259.018	4.43
259.234	5.05
259.449	6.07
259.665	5.69
259.88	5.53
260.096	5.66
260.312	5.94
260.527	5.27
260.743	5.23
260.958	5.45
261.174	5.9
261.389	6.11
261.605	5.93
261.82	5.23
262.036	5.48
262.251	5.59
262.466	5.81
262.682	4.62
262.897	3.64
263.113	2.75
263.328	1.48
263.543	-1.9
263.759	-2.17
263.974	-5.8
264.189	-6.62
264.405	-7.13
264.62	-7.83
264.835	-8.76
265.051	-8.87
265.266	-5.55
265.481	-5.69
265.696	-6.36
265.912	-1.87
266.127	-1.12
266.342	2
266.557	2.86
266.773	3.34
266.988	3.87
267.203	3.01
267.418	3.62
267.633	3.1
267.848	3.12
268.064	3.89
268.279	3.3
268.494	1.66
268.709	1.01
268.924	-1.02
269.139	-1.03
269.354	-0.9
269.569	0.27
269.784	0.71
269.999	0.69
270.214	-0.19
270.429	-1.14
270.644	-1.44
270.859	0.06
271.074	-0.43
271.289	1.03
271.504	3.01
271.719	3.89
271.934	3.54
272.149	3.37
272.363	3.9
272.578	4.79
272.793	5.43
273.008	5.51
273.223	6.11
273.438	6.28
273.653	6.42
273.867	3.75
274.082	3.24
274.297	3.84
274.512	2.47
274.726	2.03
274.941	3.09
275.156	3.7
275.371	4.55
275.585	3.57
275.8	4.39
276.015	4.26
276.229	3.71
276.444	4.66
276.659	4.98
276.873	6.93
277.088	6.47
277.302	5.32
277.517	5.34
277.732	4.08
277.946	4.5
278.161	5.08
278.375	6.3
278.59	8.7
278.804	7.93
279.019	7.51
279.233	5.16
279.448	4.5
279.662	5.17
279.877	2.81
280.091	2.98
280.306	2.55
280.52	3.7
280.735	1.88
280.949	1.07
281.163	1.07
281.378	0.89
281.592	2.02
281.806	4.44
282.021	4.51
282.235	5.36
282.449	5.04
282.664	5.14
282.878	3.93
283.092	4.24
283.307	4.99
283.521	3.51
283.735	3.97
283.949	4.43
284.164	3.26
284.378	3.88
284.592	3.93
284.806	4.02
285.02	4.99
285.234	4.43
285.449	5.61
285.663	5.4
285.877	7.06
286.091	7.16
286.305	7.01
286.519	7.44
286.733	7.59
286.947	7.64
287.161	7.96
287.375	7.36
287.589	7.6
287.803	6.83
288.017	7.3
288.231	5.83
288.445	4.92
288.659	4.89
288.873	5.48
289.087	5.04
289.301	5.88
289.515	7.28
289.729	7.3
289.943	6.95
290.157	6.26
290.371	5.9
290.584	6.57
290.798	7.06
291.012	6.75
291.226	6.59
291.44	5.93
291.654	5.05
291.867	4.02
292.081	4.79
292.295	4.71
292.509	5.72
292.722	5.29
292.936	5.97
293.15	6.57
293.364	7.25
293.577	5.86
293.791	6.41
294.005	7.01
294.218	7.22
294.432	7.17
294.645	8.01
294.859	7.95
295.073	7.56
295.286	7.32
295.5	6.32
295.713	5.41
295.927	6.96
296.14	7.51
296.354	7.4
296.568	7.37
296.781	7.68
296.994	7.31
297.208	7.43
297.421	7.83
297.635	7.38
297.848	8.04
298.062	8.59
298.275	7.43
298.489	7.26
298.702	6.42
298.915	6.3
299.129	5.13
299.342	4.94
299.555	4.59
299.769	3.99
299.982	3.7
300.195	3.25
300.409	2.73
300.622	3.72
300.835	4.15
301.048	5.44
301.262	7.24
301.475	7.58
301.688	8.15
301.901	8.7
302.115	9.72
302.328	11.14
302.541	10.54
302.754	10.96
302.967	9.9
303.18	9.49
303.393	9.07
303.607	7.87
303.82	7.02
304.033	6.89
304.246	4.78
304.459	5.18
304.672	3.88
304.885	5.16
305.098	4.74
305.311	5.61
305.524	7.57
305.737	7.09
305.95	6.29
306.163	6.72
306.376	8.95
306.589	10.72
306.802	10.18
307.015	11.08
307.228	12.02
307.44	12.75
307.653	12
307.866	8.77
308.079	9.03
308.292	9.4
308.505	10.18
308.718	8.78
308.93	9.35
309.143	7.17
309.356	7.61
309.569	5.94
309.781	5.55
309.994	6.97
310.207	8.01
310.42	7.87
310.632	8.33
310.845	7.81
311.058	7.62
311.27	6.76
311.483	8.82
311.696	8.44
311.908	9.34
312.121	9.56
312.333	9.3
312.546	9.35
312.759	10.47
312.971	8.92
313.184	9.2
313.396	9.27
313.609	9.38
313.821	8.53
314.034	7.46
314.246	6.91
314.459	6.87
314.671	6.04
314.884	6.01
315.096	5.2
315.309	6.28
315.521	7.83
315.733	7.5
315.946	8.24
316.158	9.42
316.371	11.13
316.583	12.12
316.795	12.29
317.008	13.56
317.22	13.68
317.432	14.68
317.644	16.38
317.857	14.8
318.069	13.79
318.281	14.69
318.494	13.16
318.706	13.83
318.918	11.71
319.13	12.71
319.342	12.09
319.555	10.19
319.767	8.75
319.979	7.57
320.191	7.26
320.403	7.5
320.615	6.07
320.827	9.43
321.039	8.02
321.252	10.11
321.464	8.83
321.676	7.73
321.888	8.95
322.1	8.44
322.312	8.07
322.524	9.34
322.736	11.16
322.948	11.61
323.16	9.99
323.372	9.43
323.584	8.84
323.796	9.16
324.007	9.66
324.219	9.85
324.431	10.46
324.643	10.4
324.855	10.17
325.067	8.59
325.279	7.66
325.491	8.07
325.702	8.42
325.914	9.49
326.126	9.63
326.338	10.85
326.55	11.1
326.761	11.06
326.973	10.77
327.185	11.41
327.396	11.8
327.608	12.33
327.82	11.87
328.032	12.24
328.243	11.19
328.455	10.77
328.666	8.37
328.878	8.98
329.09	8.47
329.301	8.75
329.513	7.29
329.725	7.44
329.936	8.09
330.148	7.96
330.359	7.73
330.571	7.71
330.782	8.56
330.994	10.96
331.205	9.94
331.417	10.73
331.628	11.13
331.84	11.68
332.051	12.64
332.262	10.38
332.474	9.58
332.685	9.32
332.897	9.36
333.108	9.61
333.319	8.93
333.531	8.95
333.742	9.24
333.953	8.66
334.165	10
334.376	8.76
334.587	11.67
334.799	11.96
335.01	12.71
335.221	11.75
335.432	9.26
335.644	9.15
335.855	8.98
336.066	8.1
336.277	7.96
336.488	6.34
336.7	6.92
336.911	5.52
337.122	6.41
337.333	6.2
337.544	7.78
337.755	9.25
337.966	9.46
338.177	10.78
338.388	11.13
338.599	12.22
338.811	11.83
339.022	10.82
339.233	10.97
339.444	10.62
339.655	10.8
339.866	10.04
340.076	10.34
340.287	10.79
340.498	11.05
340.709	11.56
340.92	10.68
341.131	10.55
341.342	11.46
341.553	12.33
341.764	11.65
341.975	11.29
342.185	9.49
342.396	10.23
342.607	10.78
342.818	9.28
343.029	9.77
343.239	8.8
343.45	10.24
343.661	10.29
343.872	9.03
344.082	9.85
344.293	9.64
344.504	10.52
344.714	8.92
344.925	8.08
345.136	9.47
345.346	9.07
345.557	9.66
345.768	8.75
345.978	7.69
346.189	8.23
346.399	8.37
346.61	8.72
346.821	9.2
347.031	10.65
347.242	11.4
347.452	9.81
347.663	9.38
347.873	10.04
348.084	10.23
348.294	10.62
348.504	10.01
348.715	9.19
348.925	9.04
349.136	9.18
349.346	8.2
349.557	6.8
349.767	6.91
349.977	8.23
350.188	7.43
350.398	7.85
350.608	9.33
350.819	8.66
351.029	8.48
351.239	7.95
351.449	8.34
351.66	8.28
351.87	9.28
352.08	9.74
352.29	7.17
352.501	8.08
352.711	8.34
352.921	7.6
353.131	8.6
353.341	8.68
353.552	8.15
353.762	7.7
353.972	8.6
354.182	8.89
354.392	8.1
354.602	9.49
354.812	9.66
355.022	9.86
355.232	10.54
355.442	11.31
355.652	12.72
355.862	13.95
356.072	14.08
356.282	13.53
356.492	12.91
356.702	13.96
356.912	13.73
357.122	12.5
357.332	12.05
357.542	11.78
357.752	10.79
357.962	10.98
358.171	10.14
358.381	10.63
358.591	10.49
358.801	10.74
359.011	9.84
359.221	8.94
359.43	9.74
359.64	9.69
359.85	9.93
360.06	9.58
360.269	8.45
360.479	9.2
360.689	8.17
360.899	8.03
361.108	7.33
361.318	7.96
361.528	9.07
361.737	8.46
361.947	9
362.156	8.22
362.366	8.96
362.576	8.5
362.785	7.9
362.995	8.06
363.204	8.87
363.414	8.82
363.623	8.04
363.833	7.1
364.042	8.03
364.252	7.58
364.461	8.18
364.671	8.05
364.88	8.59
365.09	9.23
365.299	9.88
365.509	9.36
365.718	10.08
365.927	10.16
366.137	10.91
366.346	10.41
366.555	10.44
366.765	10.06
366.974	9.83
367.183	8.75
367.393	8.37
367.602	7.8
367.811	7.92
368.021	7.4
368.23	8.63
368.439	7.96
368.648	8.34
368.857	8.53
369.067	7.92
369.276	8.12
369.485	9.27
369.694	9.81
369.903	10.23
370.112	9.66
370.321	9.33
370.531	8.23
370.74	8.3
370.949	8.36
371.158	7.67
371.367	8.14
371.576	7.52
371.785	7.96
371.994	6.89
372.203	5.85
372.412	6.32
372.621	7.06
372.83	7.34
373.039	7.79
373.248	7.15
373.457	6.54
373.666	6.53
373.874	6.81
374.083	6.24
374.292	7.27
374.501	8.47
374.71	8.2
374.919	7.72
375.128	7.7
375.336	7.6
375.545	7.53
375.754	8.06
375.963	8.17
376.171	7.57
376.38	7.04
376.589	6.8
376.798	6.41
377.006	5.98
377.215	5.94
377.424	5.98
377.632	5.48
377.841	6.08
378.05	6.79
378.258	6.2
378.467	6.78
378.675	7.58
378.884	7.16
379.093	7.1
379.301	7.1
379.51	6.67
379.718	6.73
379.927	6.6
380.135	6.58
380.344	5.49
380.552	5.71
380.761	6.01
380.969	5.99
381.177	5.76
381.386	5.41
381.594	5.98
381.803	6.47
382.011	6.52
382.219	7.05
382.428	6.66
382.636	6.98
382.845	6.93
383.053	6.27
383.261	5.62
383.469	5.74
383.678	6.23
383.886	5.82
384.094	5.75
384.302	5.74
384.511	5.83
384.719	5.77
384.927	5.79
385.135	6.29
385.343	6.73
385.552	7.06
385.76	7.55
385.968	7.46
386.176	7.62
386.384	7.88
386.592	7.54
386.8	7.75
387.008	7.28
387.216	7.42
387.424	7.27
387.633	7.27
387.841	7.21
388.049	6.78
388.257	6.3
388.465	5.8
388.672	5.5
388.88	5.49
389.088	5.25
389.296	5.69
389.504	5.4
389.712	4.75
389.92	4.14
390.128	4.07
390.336	4.23
390.544	4.55
390.751	4.85
390.959	4.95
391.167	4.89
391.375	4.93
391.583	5
391.79	5.21
391.998	5.49
392.206	5.89
392.414	5.67
392.621	5.58
392.829	5.52
393.037	5.54
393.244	5.72
393.452	5.79
393.66	5.6
393.867	5.45
394.075	5.21
394.283	5.29
394.49	5.58
394.698	5.84
394.905	5.87
395.113	5.74
395.32	5.22
395.528	4.89
395.735	5.03
395.943	5.27
396.15	5.54
396.358	5.41
396.565	5.14
396.773	4.63
396.98	4.3
397.188	4.23
397.395	4.5
397.602	5.02
397.81	4.8
398.017	4.58
398.225	3.97
398.432	3.58
398.639	3.92
398.847	3.96
399.054	4.06
399.261	4.53
399.468	4.3
399.676	3.94
399.883	4.07
400.09	4.14
400.297	3.93
400.505	4.29
400.712	4.41
400.919	4.27
401.126	4.53
401.333	4.59
401.54	3.76
401.748	4.14
401.955	3.83
402.162	3.84
402.369	4.14
402.576	4.33
402.783	4.08
402.99	4.03
403.197	4.07
403.404	3.96
403.611	3.88
403.818	4.31
404.025	3.97
404.232	4.14
404.439	3.97
404.646	3.77
404.853	3.49
405.06	3.36
405.267	3.26
405.474	3.22
405.681	3.12
405.887	3.14
406.094	3.11
406.301	3.13
406.508	3.32
406.715	3.29
406.922	3.14
407.128	3.55
407.335	3.84
407.542	3.75
407.749	3.78
407.955	4.1
408.162	4.24
408.369	4.06
408.575	4.1
408.782	4.05
408.989	4.06
409.195	4.19
409.402	3.79
409.609	3.82
409.815	3.95
410.022	4
410.228	3.8
410.435	3.48
410.642	3.66
410.848	3.54
411.055	3.52
411.261	3.57
411.468	3.38
411.674	3.77
411.881	3.83
412.087	3.96
412.294	3.73
412.5	3.73
412.706	3.95
412.913	3.8
413.119	4.08
413.326	4.22
413.532	3.96
413.738	3.91
413.945	3.59
414.151	3.48
414.357	3.36
414.564	3.45
414.77	3.6
414.976	3.57
415.182	3.68
415.389	3.74
415.595	3.74
415.801	4.03
416.007	4.14
416.214	4.26
416.42	4.21
416.626	4.03
416.832	3.95
417.038	3.6
417.244	3.37
417.45	3.28
417.657	3.1
417.863	3.04
418.069	3.05
418.275	3.26
418.481	3.24
418.687	3.31
418.893	3.27
419.099	3.33
419.305	3.39
419.511	3.64
419.717	3.66
419.923	3.75
420.129	3.78
420.335	3.63
420.541	3.46
420.746	3.43
420.952	3.36
421.158	3.44
421.364	3.48
421.57	3.57
421.776	3.51
421.982	3.59
422.187	3.53
422.393	3.47
422.599	3.47
422.805	3.46
423.01	3.43
423.216	3.5
423.422	3.49
423.628	3.42
423.833	3.5
424.039	3.42
424.245	3.35
424.45	3.39
424.656	3.3
424.862	3.36
425.067	3.48
425.273	3.49
425.478	3.41
425.684	3.49
425.889	3.44
426.095	3.26
426.301	3.12
426.506	3.03
426.712	3.01
426.917	3.16
427.123	3.19
427.328	3.11
427.533	3.14
427.739	3.33
427.944	3.29
428.15	3.29
428.355	3.2
428.561	3.47
428.766	3.6
428.971	3.62
429.177	3.55
429.382	3.5
429.587	3.43
429.793	3.4
429.998	3.14
430.203	3.08
430.408	3.13
430.614	3.27
430.819	3.27
431.024	3.19
431.229	3.05
431.434	2.87
431.64	2.84
431.845	2.98
432.05	3.05
432.255	2.95
432.46	2.96
432.665	3.03
432.87	3.1
433.076	3.1
433.281	2.98
433.486	2.92
433.691	3.14
433.896	3.08
434.101	3.03
434.306	3
434.511	3.14
434.716	3.3
434.921	3.23
435.126	3.27
435.331	3.12
435.535	3.25
435.74	3.37
435.945	3.22
436.15	3.28
436.355	3.22
436.56	3.11
436.765	3.1
436.97	3.21
437.174	3.28
437.379	3.06
437.584	2.89
437.789	2.74
437.993	2.98
438.198	2.86
438.403	2.71
438.608	2.77
438.812	2.97
439.017	2.92
439.222	2.84
439.426	2.87
439.631	3.09
439.836	3.35
440.04	3.52
440.245	3.27
440.45	3.43
440.654	3.69
440.859	3.64
441.063	3.45
441.268	3.37
441.472	3.25
441.677	3.06
441.881	2.93
442.086	3.09
442.29	3
442.495	3.07
442.699	3.15
442.904	2.97
443.108	3.06
443.312	3.16
443.517	3.26
443.721	3.01
443.925	3.22
444.13	3.36
444.334	3.06
444.538	3.04
444.743	3.22
444.947	3.12
445.151	3.16
445.356	3.03
445.56	2.96
445.764	3.07
445.968	3.27
446.173	3.24
446.377	3.11
446.581	3.17
446.785	3.28
446.989	3.08
447.193	3
447.398	2.95
447.602	2.92
447.806	3.03
448.01	2.97
448.214	2.94
448.418	3.03
448.622	3.02
448.826	2.86
449.03	2.64
449.234	2.69
449.438	2.89
449.642	2.77
449.846	2.98
450.05	2.97
450.254	3.04
450.458	3.19
450.662	2.97
450.866	3.06
451.069	3.31
451.273	3.44
451.477	3.56
451.681	3.31
451.885	3.31
452.089	3.12
452.292	2.97
452.496	2.86
452.7	2.69
452.904	2.74
453.107	2.69
453.311	2.56
453.515	2.48
453.719	2.3
453.922	2.49
454.126	2.68
454.33	2.71
454.533	2.76
454.737	2.79
454.94	2.71
455.144	2.58
455.348	2.63
455.551	2.71
455.755	2.61
455.958	2.66
456.162	2.48
456.365	2.41
456.569	2.44
456.772	2.38
456.976	2.54
457.179	2.65
457.383	2.75
457.586	2.96
457.79	2.86
457.993	2.99
458.196	2.86
458.4	3
458.603	2.94
458.807	2.89
459.01	2.97
459.213	2.8
459.417	2.83
459.62	2.87
459.823	2.58
460.026	2.66
460.23	2.66
460.433	2.78
460.636	2.61
460.839	2.68
461.042	2.66
461.246	2.61
461.449	2.68
461.652	2.59
461.855	2.53
462.058	2.58
462.261	2.49
462.464	2.39
462.668	2.46
462.871	2.71
463.074	2.59
463.277	2.47
463.48	2.69
463.683	2.59
463.886	2.73
464.089	2.77
464.292	2.8
464.495	2.96
464.698	3.3
464.901	3.15
465.104	3.16
465.306	3.26
465.509	3.48
465.712	3.3
465.915	3.22
466.118	3.1
466.321	3.13
466.524	3.2
466.726	3.07
466.929	2.86
467.132	2.94
467.335	2.83
467.538	2.81
467.74	2.72
467.943	2.68
468.146	2.97
468.348	3.16
468.551	3.24
468.754	3.15
468.956	3.11
469.159	3.11
469.362	2.86
469.564	2.89
469.767	2.92
469.969	3.07
470.172	3.14
470.375	3.01
470.577	2.84
470.78	2.85
470.982	2.95
471.185	2.99
471.387	3.05
471.59	3.32
471.792	3.27
471.995	3.28
472.197	3.23
472.399	3.33
472.602	3.14
472.804	3.31
473.007	3.09
473.209	3.13
473.411	3.14
473.614	2.98
473.816	2.94
474.018	2.95
474.22	2.96
474.423	2.86
474.625	2.77
474.827	2.88
475.03	2.74
475.232	2.76
475.434	2.64
475.636	2.57
475.838	2.98
476.04	2.87
476.243	2.97
476.445	2.85
476.647	2.85
476.849	2.84
477.051	2.79
477.253	2.81
477.455	2.86
477.657	2.92
477.859	3.01
478.061	2.72
478.263	2.75
478.465	2.6
478.667	2.68
478.869	2.68
479.071	2.65
479.273	2.6
479.475	2.65
479.677	2.69
479.879	2.7
480.081	2.78
480.283	2.88
480.485	2.95
480.686	2.88
480.888	2.89
481.09	2.82
481.292	2.82
481.494	2.88
481.695	2.83
481.897	2.71
482.099	2.72
482.301	2.69
482.502	2.63
482.704	2.67
482.906	2.72
483.107	2.77
483.309	2.81
483.511	2.79
483.712	2.84
483.914	2.85
484.115	2.92
484.317	2.9
484.519	2.88
484.72	2.89
484.922	2.85
485.123	2.87
485.325	2.84
485.526	2.85
485.728	2.85
485.929	2.82
486.131	2.78
486.332	2.8
486.534	2.84
486.735	2.81
486.936	2.84
487.138	2.89
487.339	2.97
487.541	2.95
487.742	2.94
487.943	2.92
488.144	2.87
488.346	2.94
488.547	2.86
488.748	2.78
488.95	2.85
489.151	2.83
489.352	2.8
489.553	2.64
489.755	2.66
489.956	2.77
490.157	2.7
490.358	2.83
490.559	2.79
490.76	2.86
490.961	2.87
491.163	2.85
491.364	2.84
491.565	2.9
491.766	3
491.967	3.01
492.168	2.92
492.369	3.04
492.57	2.98
492.771	2.97
492.972	2.95
493.173	2.92
493.374	2.94
493.575	3
493.776	2.84
493.976	2.68
494.177	2.63
494.378	2.66
494.579	2.7
494.78	2.7
494.981	2.7
495.182	2.8
495.382	2.97
495.583	2.77
495.784	2.66
495.985	2.76
496.185	3.02
496.386	3.11
496.587	2.98
496.788	2.99
496.988	2.93
497.189	2.86
497.39	2.8
497.59	2.74
497.791	2.82
497.992	2.93
498.192	2.99
498.393	2.83
498.593	2.69
498.794	2.68
498.994	2.57
499.195	2.6
499.395	2.66
499.596	2.75
499.796	2.64
499.997	2.81
500.197	2.7
500.398	2.75
500.598	2.54
500.799	2.58
500.999	2.68
501.199	2.85
501.4	2.9
501.6	2.84
501.801	2.62
502.001	2.85
502.201	2.7
502.402	2.8
502.602	2.59
502.802	2.79
503.002	2.78
503.203	2.92
503.403	2.7
503.603	2.65
503.803	2.92
504.003	3.19
504.204	3.02
504.404	3.09
504.604	3.01
504.804	3.11
505.004	3.11
505.204	3.11
505.404	3.11
505.604	3.23
505.804	3.54
506.005	3.34
506.205	3.13
506.405	3.33
506.605	3.38
506.805	3.48
507.005	3.52
507.204	3.57
507.404	3.72
507.604	3.71
507.804	3.58
508.004	3.44
508.204	3.55
508.404	3.6
508.604	3.46
508.804	3.51
509.003	3.44
509.203	3.45
509.403	3.44
509.603	3.39
509.803	3.47
510.002	3.55
510.202	3.42
510.402	3.32
510.602	3.42
510.801	3.57
511.001	3.5
511.201	3.62
511.4	3.49
511.6	3.53
511.8	3.61
511.999	3.48
512.199	3.41
512.398	3.58
512.598	3.64
512.797	3.55
512.997	3.47
513.197	3.46
513.396	3.54
513.596	3.78
513.795	3.86
513.994	3.82
514.194	3.86
514.393	3.97
514.593	3.99
514.792	4.04
514.992	4.01
515.191	4
515.39	3.99
515.59	3.88
515.789	3.72
515.988	3.7
516.188	3.75
516.387	3.92
516.586	4.03
516.786	3.89
516.985	3.76
517.184	3.95
517.383	4.04
517.582	4.08
517.782	3.99
517.981	4.09
518.18	4.08
518.379	4.06
518.578	3.86
518.777	3.74
518.976	3.75
519.176	3.91
519.375	3.82
519.574	3.75
519.773	3.73
519.972	3.87
520.171	3.76
520.37	3.82
520.569	3.73
520.768	3.86
520.967	3.93
521.166	3.96
521.365	3.86
521.564	3.96
521.762	4.02
521.961	4.05
522.16	3.84
522.359	3.92
522.558	3.72
522.757	3.83
522.956	3.67
523.154	3.91
523.353	4.02
523.552	3.89
523.751	3.8
523.949	3.62
524.148	3.52
524.347	3.62
524.546	3.64
524.744	3.76
524.943	3.8
525.142	3.85
525.34	3.71
525.539	3.71
525.737	3.83
525.936	3.81
526.135	4.02
526.333	4.17
526.532	4.19
526.73	4.11
526.929	4.22
527.127	4.12
527.326	4.16
527.524	4.23
527.723	4.19
527.921	4.28
528.12	4.31
528.318	4.34
528.516	4.34
528.715	4.32
528.913	4.39
529.112	4.42
529.31	4.48
529.508	4.46
529.707	4.38
529.905	4.41
530.103	4.36
530.301	4.39
530.5	4.31
530.698	4.3
530.896	4.37
531.094	4.36
531.293	4.23
531.491	4.32
531.689	4.34
531.887	4.42
532.085	4.49
532.283	4.53
532.481	4.56
532.68	4.59
532.878	4.56
533.076	4.58
533.274	4.65
533.472	4.78
533.67	4.74
533.868	4.86
534.066	4.82
534.264	4.8
534.462	4.83
534.66	4.87
534.858	4.96
535.056	5.04
535.253	5.06
535.451	5.04
535.649	4.93
535.847	5.03
536.045	5.01
536.243	5.19
536.441	5.18
536.638	5.22
536.836	5.27
537.034	5.3
537.232	5.33
537.43	5.37
537.627	5.45
537.825	5.57
538.023	5.46
538.22	5.53
538.418	5.55
538.616	5.54
538.813	5.71
539.011	5.71
539.209	5.73
539.406	5.82
539.604	5.79
539.801	5.7
539.999	5.63
540.196	5.73
540.394	5.82
540.591	5.86
540.789	5.82
540.986	5.65
541.184	5.7
541.381	5.8
541.579	5.79
541.776	5.81
541.974	5.85
542.171	5.94
542.368	5.97
542.566	5.92
542.763	5.88
542.96	5.99
543.158	6.04
543.355	6.06
543.552	5.94
543.75	5.84
543.947	5.87
544.144	5.92
544.341	5.89
544.539	5.85
544.736	5.9
544.933	5.89
545.13	5.83
545.327	5.95
545.524	5.95
545.722	6.1
545.919	6.33
546.116	6.4
546.313	6.42
546.51	6.53
546.707	6.51
546.904	6.45
547.101	6.42
547.298	6.53
547.495	6.59
547.692	6.56
547.889	6.57
548.086	6.55
548.283	6.61
548.48	6.69
548.677	6.42
548.874	6.57
549.07	6.68
549.267	6.9
549.464	6.97
549.661	6.92
549.858	6.94
550.055	6.81
550.251	6.89
550.448	6.99
550.645	6.97
550.842	7.26
551.038	7.53
551.235	7.43
551.432	7.64
551.628	7.85
551.825	7.88
552.022	7.99
552.218	8.26
552.415	8.18
552.612	8.18
552.808	8.31
553.005	8.34
553.201	8.38
553.398	8.48
553.594	8.42
553.791	8.47
553.987	8.54
554.184	8.56
554.38	8.51
554.577	8.76
554.773	8.87
554.97	8.91
555.166	9.02
555.362	8.92
555.559	8.94
555.755	8.96
555.952	8.93
556.148	9.29
556.344	9.27
556.541	9.68
556.737	9.69
556.933	9.69
557.129	9.71
557.326	9.86
557.522	10.11
557.718	10.45
557.914	10.59
558.11	10.75
558.307	10.54
558.503	10.86
558.699	10.67
558.895	10.47
559.091	10.59
559.287	10.7
559.483	10.83
559.679	10.87
559.876	10.86
560.072	10.68
560.268	10.58
560.464	10.94
560.66	10.71
560.856	10.76
561.052	10.89
561.247	11.16
561.443	11.19
561.639	11.18
561.835	11.15
562.031	11.25
562.227	11.41
562.423	11.55
562.619	11.38
562.815	11.6
563.01	11.52
563.206	11.55
563.402	11.23
563.598	11.25
563.793	11.56
563.989	11.49
564.185	11.5
564.381	11.56
564.576	11.56
564.772	11.46
564.968	11.56
565.163	11.78
565.359	11.93
565.555	12.12
565.75	12.26
565.946	12.11
566.141	12.24
566.337	12.39
566.532	12.67
566.728	12.62
566.923	12.76
567.119	12.81
567.314	12.72
567.51	12.76
567.705	12.7
567.901	12.79
568.096	12.79
568.292	12.95
568.487	12.83
568.682	12.71
568.878	12.63
569.073	12.69
569.268	12.65
569.464	12.85
569.659	12.92
569.854	13.03
570.05	12.91
570.245	13.2
570.44	13.17
570.635	13.21
570.831	13.38
571.026	13.57
571.221	13.64
571.416	13.81
571.611	13.81
571.806	13.87
572.002	13.88
572.197	13.95
572.392	13.78
572.587	13.69
572.782	13.66
572.977	13.47
573.172	13.6
573.367	13.7
573.562	13.66
573.757	13.71
573.952	13.56
574.147	13.69
574.342	13.75
574.537	13.83
574.732	13.94
574.927	14.17
575.121	14.38
575.316	14.41
575.511	14.36
575.706	14.4
575.901	14.32
576.096	14.56
576.29	14.58
576.485	14.56
576.68	14.39
576.875	14.37
577.069	14.31
577.264	14.02
577.459	14.01
577.654	13.77
577.848	13.8
578.043	13.79
578.238	13.84
578.432	13.84
578.627	14
578.821	14.25
579.016	14.24
579.21	14.32
579.405	14.52
579.6	14.73
579.794	14.94
579.989	15.07
580.183	15.25
580.378	15.16
580.572	15.26
580.766	15.15
580.961	15.06
581.155	15.32
581.35	15.27
581.544	15.27
581.738	15.41
581.933	15.46
582.127	15.47
582.321	15.44
582.516	15.81
582.71	15.8
582.904	15.87
583.099	16.26
583.293	16.09
583.487	15.95
583.681	16
583.875	15.7
584.07	15.78
584.264	15.51
584.458	15.62
584.652	15.35
584.846	15.13
585.04	15
585.234	14.45
585.428	14.49
585.623	14.7
585.817	14.73
586.011	14.85
586.205	15.05
586.399	15.22
586.593	15.15
586.787	15.28
586.981	15.43
587.174	15.52
587.368	15.98
587.562	16.12
587.756	16.1
587.95	16.45
588.144	16.23
588.338	16.07
588.532	16.07
588.725	16.05
588.919	15.99
589.113	16.09
589.307	16.08
589.501	15.89
589.694	15.96
589.888	15.99
590.082	15.52
590.275	15.91
590.469	15.9
590.663	16
590.856	16.12
591.05	15.91
591.244	15.82
591.437	16.11
591.631	16.1
591.824	15.96
592.018	15.94
592.212	16.31
592.405	15.93
592.599	15.9
592.792	15.93
592.986	15.72
593.179	15.85
593.372	16.04
593.566	15.87
593.759	15.99
593.953	15.97
594.146	16.17
594.339	16.18
594.533	16.25
594.726	16.18
594.92	15.8
595.113	15.86
595.306	15.8
595.499	15.76
595.693	15.85
595.886	15.94
596.079	16.12
596.272	16.06
596.466	15.9
596.659	15.91
596.852	16.09
597.045	16.66
597.238	16.75
597.431	16.87
597.624	16.98
597.818	16.98
598.011	17
598.204	16.78
598.397	16.71
598.59	16.84
598.783	17.1
598.976	16.83
599.169	16.41
599.362	16.41
599.555	16.45
599.748	16.19
599.941	16.33
600.134	16.14
600.326	16.4
600.519	16.57
600.712	16.67
600.905	16.54
601.098	16.87
601.291	16.79
601.483	16.82
601.676	16.91
601.869	17.21
602.062	17.22
602.255	17.25
602.447	17.15
602.64	17.29
602.833	17.22
603.025	16.99
603.218	16.97
603.411	17.08
603.603	17.11
603.796	17.08
603.989	16.89
604.181	16.95
604.374	17.01
604.566	16.92
604.759	16.82
604.951	16.72
605.144	16.89
605.336	16.89
605.529	16.99
605.721	17.02
605.914	17
606.106	17.2
606.299	17
606.491	17.11
606.683	17.22
606.876	17.23
607.068	17.14
607.26	16.92
607.453	16.65
607.645	16.78
607.837	16.54
608.03	16.45
608.222	16.2
608.414	16.14
608.606	16.05
608.799	16.23
608.991	16.33
609.183	16.49
609.375	16.5
609.567	16.53
609.759	16.34
609.952	16.34
610.144	16.36
610.336	16.5
610.528	16.5
610.72	16.36
610.912	16.31
611.104	16.04
611.296	15.99
611.488	16.05
611.68	16.05
611.872	16.03
612.064	16.21
612.256	16.22
612.448	16.13
612.64	16.03
612.832	16.06
613.023	15.8
613.215	15.77
613.407	15.79
613.599	16.05
613.791	16.34
613.983	16.44
614.174	16.4
614.366	16.2
614.558	15.97
614.75	16.11
614.941	16.2
615.133	16.45
615.325	16.63
615.516	16.75
615.708	16.7
615.9	16.77
616.091	16.77
616.283	16.69
616.475	17.26
616.666	17.55
616.858	17.68
617.049	17.54
617.241	17.25
617.432	17.06
617.624	16.91
617.815	16.85
618.007	16.37
618.198	16.13
618.39	16.23
618.581	16.08
618.773	16.12
618.964	16.1
619.155	16.22
619.347	16.54
619.538	16.64
619.729	16.38
619.921	16.31
620.112	16.79
620.303	16.91
620.494	16.85
620.686	16.55
620.877	16.44
621.068	16.2
621.259	16.39
621.451	16.29
621.642	16.37
621.833	16.81
622.024	16.84
622.215	16.48
622.406	16.56
622.597	16.77
622.788	17.06
622.98	17.01
623.171	17.08
623.362	17.19
623.553	17.29
623.744	17.38
623.935	17.27
624.126	17.33
624.317	17.41
624.508	17.3
624.698	17.14
624.889	17.14
625.08	17.13
625.271	17.18
625.462	17.03
625.653	16.72
625.844	16.9
626.034	17.07
626.225	16.97
626.416	17.08
626.607	17.39
626.798	17.36
626.988	17.13
627.179	17.41
627.37	17.46
627.56	17.68
627.751	18.05
627.942	17.84
628.132	17.6
628.323	17.69
628.514	17.88
628.704	17.78
628.895	17.87
629.085	18.11
629.276	17.95
629.466	18.22
629.657	17.65
629.847	17.65
630.038	17.77
630.228	17.84
630.419	18.08
630.609	17.99
630.8	18.27
630.99	18.38
631.181	18.2
631.371	18.23
631.561	17.92
631.752	18.38
631.942	18
632.132	17.93
632.323	18.18
632.513	18.08
632.703	17.98
632.893	17.67
633.084	17.6
633.274	17.97
633.464	17.84
633.654	17.83
633.844	17.72
634.034	17.94
634.225	17.69
634.415	17.7
634.605	17.5
634.795	17.34
634.985	17.31
635.175	17.3
635.365	16.87
635.555	17.04
635.745	17.13
635.935	17.12
636.125	17.28
636.315	17.37
636.505	17.3
636.695	17.55
636.885	17.99
637.075	17.88
637.265	18.07
637.455	18.12
637.644	17.75
637.834	17.71
638.024	17.68
638.214	17.67
638.404	17.98
638.593	17.92
638.783	17.65
638.973	17.35
639.163	17.57
639.352	17.16
639.542	17.21
639.732	17.84
639.921	17.78
640.111	17.88
640.301	17.96
640.49	17.96
640.68	17.64
640.87	17.69
641.059	17.85
641.249	17.52
641.438	17.6
641.628	17.48
641.817	16.89
642.007	16.87
642.196	16.56
642.386	15.92
642.575	15.94
642.764	16.42
642.954	16.7
643.143	16.15
643.333	16.49
643.522	16.54
643.711	16.77
643.901	17.02
644.09	16.93
644.279	16.91
644.469	17.4
644.658	17.28
644.847	17.33
645.036	16.99
645.226	17.39
645.415	17.27
645.604	17.35
645.793	17.16
645.982	17.35
646.171	17.56
646.361	18.07
646.55	18.17
646.739	17.96
646.928	17.56
647.117	18.05
647.306	18.2
647.495	18.24
647.684	18.51
647.873	18.63
648.062	18.45
648.251	18.41
648.44	17.81
648.629	17.58
648.818	17.78
649.007	17.95
649.196	17.82
649.384	17.87
649.573	18.02
649.762	17.71
649.951	17.81
650.14	18.02
650.328	18.11
650.517	18.49
650.706	18.66
650.895	18.4
651.083	18.43
651.272	18.01
651.461	18.27
651.65	18.18
651.838	18.29
652.027	18.07
652.216	18.22
652.404	18.29
652.593	18.33
652.781	18.59
652.97	18.9
653.158	18.87
653.347	18.88
653.535	18.73
653.724	19.13
653.912	18.76
654.101	19.2
654.289	19.03
654.478	19
654.666	18.77
654.855	18.41
655.043	18.39
655.231	18.65
655.42	19.39
655.608	19.26
655.796	19.16
655.985	19.36
656.173	19.23
656.361	19.12
656.55	19.16
656.738	19.14
656.926	18.79
657.114	19.16
657.302	19.05
657.491	19.17
657.679	19.33
657.867	19.15
658.055	19.21
658.243	19.44
658.431	19.3
658.619	19.1
658.807	19.13
658.996	19.06
659.184	18.7
659.372	18.79
659.56	18.29
659.748	18.27
659.936	18.09
660.124	17.99
660.311	17.66
660.499	17.81
660.687	17.81
660.875	17.9
661.063	18.23
661.251	18.41
661.439	18.28
661.627	18.63
661.814	18.61
662.002	18.64
662.19	18.94
662.378	18.98
662.565	19.08
662.753	19.31
662.941	19.46
663.129	19.62
663.316	19.52
663.504	19.54
663.692	19.15
663.879	19.05
664.067	19.01
664.254	18.56
664.442	18.64
664.63	18.69
664.817	18.55
665.005	18.25
665.192	18.54
665.38	18.43
665.567	18.48
665.755	18.72
665.942	18.26
666.13	18.82
666.317	18.57
666.504	18.88
666.692	18.78
666.879	18.72
667.067	19.19
667.254	18.43
667.441	18.34
667.629	18.14
667.816	18.03
668.003	18.2
668.19	18.02
668.378	18.81
668.565	18.43
668.752	18.63
668.939	18.53
669.127	17.95
669.314	18.2
669.501	18.43
669.688	18.6
669.875	19.01
670.062	19.08
670.249	18.86
670.436	18.45
670.623	18.37
670.81	18.03
670.997	18.41
671.184	18.29
671.371	18.26
671.558	18.5
671.745	18.35
671.932	18.01
672.119	17.99
672.306	18.3
672.493	18.44
672.68	18.66
672.867	18.69
673.054	18.4
673.24	18.53
673.427	18.92
673.614	18.85
673.801	19.19
673.988	19.33
674.174	19.32
674.361	18.78
674.548	18.7
674.734	18.26
674.921	18.28
675.108	18.52
675.294	18.85
675.481	18.29
675.668	18.39
675.854	18.27
676.041	18.08
676.227	18.26
676.414	18.74
676.601	18.99
676.787	19.38
676.974	19.54
677.16	19.9
677.347	19.92
677.533	20.55
677.719	20.4
677.906	20.08
678.092	20.16
678.279	20.32
678.465	20.34
678.651	20.11
678.838	19.78
679.024	19.96
679.21	19.87
679.397	20.16
679.583	19.72
679.769	19.7
679.955	20.19
680.142	19.96
680.328	20.06
680.514	20.17
680.7	20.16
680.886	20.42
681.073	20.07
681.259	20.02
681.445	19.55
681.631	19.67
681.817	19.62
682.003	19.4
682.189	19.47
682.375	19.23
682.561	19.12
682.747	19.29
682.933	19.51
683.119	19.42
683.305	19.87
683.491	20.48
683.677	20.43
683.863	19.91
684.049	20.1
684.235	19.83
684.42	19.91
684.606	19.66
684.792	19.81
684.978	19.57
685.164	20.04
685.349	19.12
685.535	18.83
685.721	19
685.907	19.77
686.092	19.03
686.278	20.08
686.464	19.9
686.649	20.09
686.835	19.96
687.021	19.92
687.206	19.26
687.392	19.34
687.577	19.36
687.763	19.2
687.948	19.08
688.134	19.43
688.319	18.81
688.505	18.55
688.69	18.32
688.876	17.83
689.061	18.36
689.247	18.73
689.432	19.17
689.618	19.55
689.803	19.47
689.988	19.08
690.174	19.07
690.359	19.02
690.544	19.62
690.73	19.61
690.915	19.72
691.1	19.65
691.285	19.65
691.471	19.71
691.656	19.32
691.841	19.56
692.026	20.02
692.211	20.59
692.396	20.07
692.582	19.85
692.767	20.08
692.952	20.24
693.137	20.38
693.322	20.28
693.507	19.66
693.692	19.34
693.877	19.2
694.062	18.86
694.247	18.78
694.432	18.95
694.617	18.14
694.802	18.16
694.987	18.42
695.172	18.15
695.357	17.92
695.541	18.01
695.726	18.11
695.911	17.75
696.096	17.58
696.281	17.5
696.466	18.15
696.65	18.62
696.835	18.6
697.02	19.03
697.204	18.46
697.389	18.92
697.574	19.2
697.759	19.11
697.943	19.61
698.128	19.88
698.312	20.09
698.497	19.88
698.682	19.88
698.866	19.58
699.051	19.48
699.235	19.61
699.42	19.58
699.604	19.24
699.789	19.03
699.973	19.15
700.158	18.97
700.342	18.31
700.527	18.41
700.711	18.89
700.895	18.76
701.08	18.38
701.264	18.56
701.448	18.64
701.633	19
701.817	19.55
702.001	18.89
702.186	19.07
702.37	19.38
702.554	19.35
702.738	19.1
702.923	19.91
703.107	20.08
703.291	20.43
703.475	20.62
703.659	21.08
703.843	21.06
704.027	21.12
704.212	21.21
704.396	21.29
704.58	21.71
704.764	21.78
704.948	21.2
705.132	21.27
705.316	20.92
705.5	20.84
705.684	20.1
705.868	20.5
706.052	20.54
706.235	20.61
706.419	20.77
706.603	19.74
706.787	19.62
706.971	19.92
707.155	20.18
707.339	20.31
707.522	20.26
707.706	20.3
707.89	19.76
708.074	19.74
708.257	19.53
708.441	19.09
708.625	19.7
708.808	19.86
708.992	20.03
709.176	19.3
709.359	18.42
709.543	18.3
709.727	18.43
709.91	18.57
710.094	18.69
710.277	18.88
710.461	19.1
710.644	18.88
710.828	18.7
711.011	18.37
711.195	18.33
711.378	18.81
711.562	18.56
711.745	18.28
711.928	18.08
712.112	18.1
712.295	17.53
712.478	17.16
712.662	16.72
712.845	17.29
713.028	17.98
713.212	18.78
713.395	19.66
713.578	19.97
713.761	20.41
713.945	20.06
714.128	20.8
714.311	21.17
714.494	22
714.677	23.54
714.86	22.63
715.043	22.39
715.227	22.1
715.41	21.33
715.593	21.38
715.776	21.32
715.959	21.6
716.142	20.28
716.325	19.91
716.508	19.91
716.691	18.08
716.874	17.42
717.057	17.6
717.239	17.57
717.422	17.52
717.605	18.01
717.788	17.97
717.971	18.26
718.154	18.84
718.337	19.75
718.519	19.01
718.702	19.27
718.885	20.35
719.068	19.86
719.25	19.83
719.433	20.52
719.616	20.2
719.798	20.16
719.981	19.46
720.164	19.69
720.346	19.43
720.529	19.57
720.712	19.64
720.894	20.29
721.077	19.92
721.259	19.68
721.442	19.06
721.624	18.12
721.807	18.35
721.989	18.42
722.172	17.8
722.354	17.18
722.537	17.12
722.719	18.18
722.901	17.62
723.084	17.56
723.266	18.25
723.448	18.14
723.631	18.53
723.813	18.66
723.995	18.69
724.178	18.93
724.36	19.51
724.542	19.17
724.724	18.49
724.907	19.08
725.089	19.77
725.271	18.62
725.453	18.42
725.635	18.35
725.817	18.55
725.999	18.59
726.181	18.63
726.364	18.29
726.546	19.07
726.728	18.87
726.91	18.25
727.092	17.7
727.274	18.09
727.456	17.53
727.638	18.17
727.819	17.3
728.001	17.76
728.183	17.72
728.365	18.04
728.547	17.28
728.729	16.96
728.911	16.32
729.093	16.82
729.274	17.18
729.456	17.97
729.638	16.81
729.82	16.86
730.001	15.96
730.183	16.05
730.365	16.08
730.546	17.25
730.728	18.49
730.91	19.86
731.091	19.53
731.273	19.39
731.455	18.81
731.636	19.91
731.818	20.63
731.999	21.33
732.181	21.98
732.362	21.94
732.544	21.57
732.725	21.12
732.907	20.29
733.088	20.11
733.27	20.32
733.451	20.77
733.633	20.2
733.814	20.32
733.995	20.34
734.177	20.07
734.358	19.43
734.539	18.78
734.721	18.68
734.902	18.31
735.083	19.29
735.264	18.46
735.446	19
735.627	18.94
735.808	17.64
735.989	17.9
736.17	17.23
736.351	16.87
736.533	17.71
736.714	17.43
736.895	17.29
737.076	17.46
737.257	18.39
737.438	17.58
737.619	18.18
737.8	18.9
737.981	19.1
738.162	19.83
738.343	20.29
738.524	19.86
738.705	19.91
738.886	20.92
739.067	20
739.247	19.21
739.428	19.36
739.609	19.28
739.79	18.75
739.971	18.55
740.151	18.53
740.332	19.44
740.513	20.43
740.694	20.36
740.874	20.65
741.055	21.32
741.236	21.85
741.417	22.66
741.597	22.3
741.778	23.93
741.958	23.17
742.139	22.98
742.32	23.08
742.5	23.24
742.681	23.81
742.861	23.08
743.042	22.45
743.222	23.3
743.403	21.97
743.583	21.86
743.764	21.32
743.944	21.33
744.124	21.86
744.305	21.75
744.485	20.22
744.666	19.87
744.846	20.16
745.026	20.08
745.207	19.63
745.387	21.07
745.567	20.68
745.747	19.28
745.928	20.57
746.108	21.28
746.288	20.38
746.468	19.54
746.648	19.23
746.829	19.09
747.009	20.24
747.189	20.96
747.369	20.87
747.549	20.61
747.729	20.65
747.909	21
748.089	19.34
748.269	19.32
748.449	21.42
748.629	22.61
748.809	22.9
748.989	21.18
749.169	20.13
749.349	18.38
749.529	18.56
749.709	19.73
749.889	18.78
750.068	19.79
750.248	19.94
750.428	19.09
750.608	17.67
750.788	16.92
750.967	18.26
751.147	17.43
751.327	19.59
751.507	20.02
751.686	18.72
751.866	19.67
752.046	19.45
752.225	20.17
752.405	20.32
752.585	20.45
752.764	19.87
752.944	18.89
753.123	19.56
753.303	18.76
753.482	17.89
753.662	19.12
753.841	18.42
754.021	18.97
754.2	18.43
754.38	19.14
754.559	20.56
754.739	21.05
754.918	21.61
755.097	21.56
755.277	21.6
755.456	22.23
755.635	21.32
755.815	22.26
755.994	21.93
756.173	22.32
756.352	20.32
756.532	18.83
756.711	20.3
756.89	20.6
757.069	20.15
757.248	19.59
757.427	21.04
757.607	21.44
757.786	19.18
757.965	18.01
758.144	18.47
758.323	20.18
758.502	21.43
758.681	19.8
758.86	19.2
759.039	19.58
759.218	19.41
759.397	17.12
759.576	18.09
759.755	19.53
759.934	20.22
760.113	20.48
760.291	18.94
760.47	18.84
760.649	20.21
760.828	20.07
761.007	20.45
761.186	22.1
761.364	23.72
761.543	23.14
761.722	23.23
761.901	23.47
762.079	22.6
762.258	22.49
762.437	21.46
762.615	21.25
762.794	22.12
762.972	22.42
763.151	21.17
763.33	20.17
763.508	19.79
763.687	19.58
763.865	19.57
764.044	20.31
764.222	20.34
764.401	20.43
764.579	20.4
764.758	20.85
764.936	20.98
765.114	23.04
765.293	23.81
765.471	23.59
765.65	23.16
765.828	22.86
766.006	21.62
766.184	22.13
766.363	22.42
766.541	21.19
766.719	20.48
766.898	20.56
767.076	19.45
767.254	19.3
767.432	20.11
767.61	20.3
767.788	20.81
767.967	22.47
768.145	22.64
768.323	22.31
768.501	22.39
768.679	21.41
768.857	20.28
769.035	18.82
769.213	17.32
769.391	18.14
769.569	19.49
769.747	19.63
769.925	17.2
770.103	16.29
770.281	15.72
770.459	16.01
770.636	15.79
770.814	13.63
770.992	14.67
771.17	16.59
771.348	16.01
771.525	14.42
771.703	15.33
771.881	16.15
772.059	16.4
772.236	17.17
772.414	18.3
772.592	19.3
772.769	20.8
772.947	18.09
773.125	17.16
773.302	17.79
773.48	20.76
773.657	18.71
773.835	20.31
774.013	18.81
774.19	19.96
774.368	19.32
774.545	18.79
774.723	18.18
774.9	21.14
775.077	25.08
775.255	24.43
775.432	23.7
775.61	24.04
775.787	21.51
775.964	24.63
776.142	22.54
776.319	23.45
776.496	24.36
776.674	25.86
776.851	23.89
777.028	21.39
777.205	20.56
777.382	16.17
777.56	17.12
777.737	18.69
777.914	17.61
778.091	18.35
778.268	16.28
778.445	16.93
778.622	17.09
778.8	15.71
778.977	15.63
779.154	15.72
779.331	17.47
779.508	15.41
779.685	15.23
779.862	16.8
780.038	17.09
780.215	18.25
780.392	17.09
780.569	16.77
780.746	20.08
780.923	20.84
781.1	21.14
781.277	22.42
781.453	24
781.63	22.2
781.807	23.24
781.984	22.07
782.16	20.79
782.337	19.44
782.514	18.29
782.691	17.43
782.867	15.91
783.044	16.4
783.221	15.91
783.397	15.5
783.574	18.31
783.75	15.02
783.927	16.38
784.103	16.96
784.28	17.88
784.456	19.59
784.633	21.72
784.809	20.35
784.986	21.99
785.162	22.11
785.339	22.3
785.515	21.16
785.692	21.41
785.868	22.64
786.044	25.16
786.221	25
786.397	25.45
786.573	22.06
786.749	21.95
786.926	17.81
787.102	18.26
787.278	16.92
787.454	17.06
787.631	18.21
787.807	17.35
787.983	15.52
788.159	17.22
788.335	17.66
788.511	19.65
788.687	20.75
788.863	21.83
789.039	19.64
789.216	21.5
789.392	21.17
789.568	20.76
789.744	21.61
789.919	21.85
790.095	17.27
790.271	15.95
790.447	13.78
790.623	15.28
790.799	17.21
790.975	20.49
791.151	19.52
791.327	21.57
791.502	20.93
791.678	19.25
791.854	21.11
792.03	25.24
792.205	25.56
792.381	27.68
792.557	28.13
792.733	27.75
792.908	23.71
793.084	23.9
793.259	22.83
793.435	23.24
793.611	22.67
793.786	21
793.962	20.14
794.137	21.62
794.313	19.01
794.488	17.83
794.664	18.08
794.839	20.91
795.015	19.33
795.19	16.75
795.366	17.33
795.541	18.4
795.716	17.29
795.892	15.92
796.067	13.2
796.242	15.4
796.418	13.78
796.593	11.78
796.768	11.19
796.944	14.29
797.119	15.52
797.294	12.49
797.469	13.72
797.644	14.33
797.82	13.69
797.995	12.77
798.17	7.28
798.345	4.37
798.52	6.54
798.695	6.13
798.87	5.07
799.045	5.77
799.22	9.11
799.395	11.09
799.57	11.46
799.745	11.94
799.92	12.2
800.095	18.69
800.27	24.15
800.445	24.32
800.62	25.41
800.795	25.3
800.97	26.6
801.145	26.48
801.319	19.92
801.494	16.69
801.669	19.97
801.844	18.5
802.018	17.18
802.193	14.9
802.368	18.25
802.543	19.09
802.717	20.48
802.892	19.55
803.067	18.07
803.241	21.18
803.416	25.39
803.59	25.9
803.765	28.59
803.94	28.09
804.114	30.15
804.289	25.84
804.463	21.89
804.638	21.91
804.812	20.83
804.986	23.09
805.161	21.76
805.335	18.63
805.51	16.56
805.684	20.1
805.858	19.9
806.033	18.13
806.207	18.13
806.381	17.99
806.556	13.59
806.73	9.54
806.904	7.97
807.078	10.47
807.253	14.25
807.427	15.09
807.601	12.39
807.775	8.52
807.949	5.79
808.123	4.47
808.298	6.55
808.472	12.88
808.646	16.81
808.82	16.8
808.994	16.02
809.168	16.95
809.342	19.5
809.516	19.66
809.69	21.24
809.864	23.9
810.038	26.44
810.212	26.83
810.385	22.38
810.559	21.95
810.733	22.52
810.907	21.11
811.081	17.4
811.255	11.09
811.428	9.35
811.602	13.08
811.776	13.83
811.95	7.05
812.123	5.18
812.297	5.5
812.471	5.8
812.644	-2.83
812.818	-0.64
812.992	2.73
813.165	4.54
813.339	3.72
813.512	1.36
813.686	3.03
813.86	6
814.033	6.18
814.207	7.2
814.38	5.73
814.554	14.92
814.727	15.21
814.9	13.91
815.074	14.35
815.247	14.39
815.421	12.2
815.594	11.33
815.767	11.09
815.941	11.63
816.114	12.82
816.287	14.68
816.46	11.83
816.634	7.48
816.807	8.48
816.98	8.28
817.153	10.49
817.327	9.39
817.5	10.21
817.673	12.16
817.846	12.21
818.019	13.66
818.192	14.28
818.365	14.53
818.538	17.95
818.711	15.35
818.884	14.9
819.057	13.46
819.23	15.23
819.403	15.35
819.576	15.6
819.749	17.94
819.922	17.31
820.095	16.37
820.268	18.8
820.441	19.1
820.614	18.45
820.786	20.2
820.959	19.33
821.132	21.4
821.305	22.55
821.477	22.45
821.65	21.33
821.823	21.43
821.996	22.21
822.168	23.6
822.341	23.41
822.514	24.26
822.686	24.28
822.859	24.7
823.031	24.41
823.204	23.67
823.376	23.47
823.549	23.86
823.722	24
823.894	23.77
824.067	22.35
824.239	22.36
824.411	22.28
824.584	21.95
824.756	22.18
824.929	22.18
825.101	22.38
825.273	22.9
825.446	22.59
825.618	22.31
825.79	21.56
825.963	20.84
826.135	20.01
826.307	19.94
826.479	19.65
826.652	19.18
826.824	19.36
826.996	19.62
827.168	18.7
827.34	18.88
827.512	18.36
827.684	19.47
827.856	21.07
828.029	21.34
828.201	21.45
828.373	21.27
828.545	19.62
828.717	19.68
828.889	19.3
829.061	20.15
829.232	20.14
829.404	19.42
829.576	18.73
829.748	17.46
829.92	19.85
830.092	20.84
830.264	21.76
830.436	23.22
830.607	23.6
830.779	22.71
830.951	26.5
831.123	27.42
831.294	30.43
831.466	31.17
831.638	31.26
831.809	26.18
831.981	24.75
832.153	23.33
832.324	21.5
832.496	19.01
832.667	18.89
832.839	13.77
833.011	12.67
833.182	12.51
833.354	11.9
833.525	15.6
833.697	18.47
833.868	16.85
834.039	17.02
834.211	19.03
834.382	19.97
834.554	21.53
834.725	22.78
834.896	22.74
835.068	22.05
835.239	23.36
835.41	22.31
835.581	21.44
835.753	20.6
835.924	19.34
836.095	18.33
836.266	19.7
836.438	17.79
836.609	16.43
836.78	14.44
836.951	12.98
837.122	13.9
837.293	11.7
837.464	12.15
837.635	16.43
837.806	17.6
837.977	19.24
838.148	13.14
838.319	12.5
838.49	8.82
838.661	15.15
838.832	16.87
839.003	16.35
839.174	16.68
839.345	16.1
839.516	14.89
839.687	12.91
839.857	4.96
840.028	10.72
840.199	9.56
840.37	12.36
840.54	12.11
840.711	16.72
840.882	15.24
841.053	14.57
841.223	15.52
841.394	14.32
841.564	15.2
841.735	20.81
841.906	19.32
842.076	22.87
842.247	27.51
842.417	23.27
842.588	21.26
842.758	15.91
842.929	16.29
843.099	14.49
843.27	11.3
843.44	21.45
843.611	24.46
843.781	27.76
843.951	24.53
844.122	9.66
844.292	11.57
844.462	13
844.633	11.92
844.803	15.73
844.973	17.61
845.144	23
845.314	12.03
845.484	3.82
845.654	-4.6
845.824	-12.73
845.995	8.22
846.165	3.07
846.335	-1.17
846.505	13.42
846.675	14.11
846.845	21.08
847.015	19.16
847.185	27.95
847.355	25.96
847.525	30.34
847.695	41.74
847.865	29.84
848.035	35.73
848.205	37.83
848.375	32.85
848.545	25.05
848.715	22.92
848.884	23.68
849.054	14.76
849.224	22.87
849.394	19.35
849.564	21.68
849.733	27.38
849.903	17.16
850.073	9.64
850.243	12.06
850.412	16.52
850.582	10.38
850.752	-3.74
850.921	8.36
851.091	-6.43
851.26	-7.8
851.43	-10.4
851.599	-21.88
851.769	-39.72
851.939	-39.29
852.108	-9.86
852.278	-0.61
852.447	-8.15
852.616	-1.09
852.786	-8.44
852.955	-4.04
853.125	-0.89
853.294	-14.3
853.463	-5.63
853.633	-3.54
853.802	-11.32
853.971	-34.27
854.141	-26.24
854.31	-20.89
854.479	-6.97
854.648	0.6
854.818	2.97
854.987	0.82
855.156	12.79
855.325	21.53
855.494	21.84
855.663	15.63
855.832	20.91
856.001	26.46
856.171	22.82
856.34	17.55
856.509	7.39
856.678	8.72
856.847	-1.61
857.016	-20.88
857.185	-84.09
857.353	-77.06
857.522	-100.66
857.691	-459.42
857.86	-1153.79
858.029	-297.76
858.198	-95.99
858.367	-61.47
858.535	-55.29
858.704	-100.97
858.873	-75.81
859.042	-62.56
859.21	-68.15
859.379	-24.83
859.548	1.92
859.717	17.04
859.885	13.12
860.054	-3.03
860.222	-8.66
860.391	-3.25
860.56	7.94
860.728	12.37
860.897	15.86
861.065	7.58
861.234	-9.53
861.402	-18.71
861.571	-34.73
861.739	-77.1
861.908	-75.77
862.076	-27.94
862.244	-32.06
862.413	-17.99
862.581	-18.84
862.749	-16.89
862.918	-6.94
863.086	3.48
863.254	14.02
863.423	14.65
863.591	26.14
863.759	26.74
863.927	24.71
864.096	27.35
864.264	33.21
864.432	30.23
864.6	32.1
864.768	36.58
864.936	33.41
865.104	32
865.272	40.3
865.44	14.4
865.608	11.95
865.776	-0.77
865.944	-8.63
866.112	-36.12
866.28	-25.93
866.448	-20.83
866.616	-27.13
866.784	-11.96
866.952	-9.64
867.12	-3.9
867.288	8.92
867.455	2.41
867.623	6.33
867.791	5.06
867.959	9.45
868.127	21.52
868.294	11.14
868.462	7.89
868.63	7.61
868.797	6.1
868.965	-11.9
869.133	-20.23
869.3	-4.25
869.468	-10.83
869.636	-9.95
869.803	-14.47
869.971	-37.29
870.138	-33.12
870.306	-33.81
870.473	-34.7
870.641	-39.87
870.808	-39.29
870.975	-32.86
871.143	-33.6
871.31	-15.64
871.478	-17.82
871.645	-21.59
871.812	-13.4
871.98	17.08
872.147	29.27
872.314	29.54
872.482	7.21
872.649	13.16
872.816	23.62
872.983	9.41
873.15	8.46
873.318	-0.64
873.485	17.72
873.652	17.53
873.819	-9.35
873.986	-10.66
874.153	-9.48
874.32	-8.71
874.487	-5.71
874.654	-21.24
874.821	0.3
874.988	4.68
875.155	22.9
875.322	9.57
875.489	7.66
875.656	4.77
875.823	13.5
875.99	24.15
876.157	33.26
876.324	45.6
876.49	35.5
876.657	25.87
876.824	44.96
876.991	39.63
877.157	42.45
877.324	34.93
877.491	31.65
877.658	18.82
877.824	11.81
877.991	9.08
878.157	-17.79
878.324	12.89
878.491	17.47
878.657	-8.98
878.824	-18.92
878.99	-28.11
879.157	-5.62
879.323	14.84
879.49	20.11
879.656	11.72
879.823	16.28
879.989	22
880.156	8.5
880.322	3.17
880.488	6.45
880.655	5.17
880.821	6.55
880.987	-6.06
881.154	-11.43
881.32	-1.78
881.486	-5.4
881.652	-5.6
881.819	-0.89
881.985	9.15
882.151	10.33
882.317	15.1
882.483	19.56
882.649	22.85
882.816	21.1
882.982	24.59
883.148	25.36
883.314	26.94
883.48	27.8
883.646	26.36
883.812	28.09
883.978	27.88
884.144	25.75
884.31	22.54
884.476	21.82
884.642	22.97
884.807	22.43
884.973	21.68
885.139	20.09
885.305	19.88
885.471	22.4
885.637	19.03
885.802	21.57
885.968	19.47
886.134	22.27
886.3	17.74
886.465	21.49
886.631	14.64
886.797	6.85
886.962	11.2
887.128	4.28
887.293	-10.52
887.459	-15.35
887.625	-22.7
887.79	-15.14
887.956	-31.01
888.121	-31.08
888.287	-67.85
888.452	-57.27
888.618	-57.95
888.783	-107.93
