Data from 2938026_Reflection_2.txt Node
Date: Sun Jul 12 15:15:13 EDT 2015
User: robert
Spectrometer: USB4E03001
Autoset integration time: false
Trigger mode: 4
Integration Time (sec): 1.000000E-1
Scans to average: 10
Electric dark correction enabled: true
Nonlinearity correction enabled: false
Boxcar width: 5
Stray light correction enabled: false
XAxis mode: Wavelengths
Stop averaging: false
Number of Pixels in Spectrum: 3648
>>>>>Begin Spectral Data<<<<<
177.566	73.61
177.785	-21.9
178.005	-27.82
178.225	324.66
178.445	-84.26
178.665	187.15
178.885	131.08
179.105	47.53
179.324	109.37
179.544	116.3
179.764	124.17
179.984	-224.8
180.204	-1005.11
180.423	903.18
180.643	135.06
180.863	175.12
181.083	165.15
181.302	166.87
181.522	102.36
181.742	95.87
181.961	255.92
182.181	317.68
182.401	161.18
182.621	136.41
182.84	156.26
183.06	338.37
183.279	206.72
183.499	172.01
183.719	391.94
183.938	-399.41
184.158	402.63
184.377	99.55
184.597	85.7
184.816	102.14
185.036	101.61
185.256	111.08
185.475	78.84
185.695	100.76
185.914	94.16
186.134	69.04
186.353	58.05
186.572	57.16
186.792	53.01
187.011	60.52
187.231	78.77
187.45	93.22
187.67	86.39
187.889	89.74
188.108	62.81
188.328	-10.34
188.547	421.95
188.766	434.09
188.986	2304.76
189.205	185.4
189.424	123.66
189.644	149.04
189.863	97.04
190.082	119.36
190.302	56.94
190.521	18.05
190.74	33.17
190.959	32.85
191.178	61.07
191.398	22.82
191.617	97.42
191.836	78.05
192.055	57.5
192.274	53.09
192.494	64.15
192.713	75.05
192.932	61.35
193.151	57.16
193.37	54.47
193.589	58.24
193.808	44.21
194.027	77.65
194.246	81.6
194.465	119.24
194.685	113.57
194.904	88.51
195.123	73.34
195.342	75.31
195.561	67.68
195.78	97.8
195.999	35.9
196.218	43.86
196.436	507.3
196.655	255.4
196.874	269.05
197.093	197.13
197.312	193.75
197.531	112.99
197.75	99.04
197.969	83.55
198.188	159.05
198.407	206.06
198.625	99.13
198.844	33.23
199.063	-75.68
199.282	-1838.14
199.501	-148.13
199.719	-50.25
199.938	52.71
200.157	63.83
200.376	-98.21
200.594	-339.36
200.813	-25.08
201.032	39.21
201.251	18.19
201.469	13.01
201.688	-22.46
201.907	-53.35
202.125	-3.7
202.344	6.53
202.563	-14.32
202.781	-51.09
203	-50.05
203.218	0.29
203.437	-38.61
203.656	-848.79
203.874	25.91
204.093	119.19
204.311	91.7
204.53	69.72
204.748	78.37
204.967	67.15
205.185	107.45
205.404	184.87
205.622	106.34
205.841	112.25
206.059	92.48
206.278	63.1
206.496	32.04
206.715	15.94
206.933	-14.42
207.151	-6.7
207.37	34.87
207.588	27.07
207.806	-33.18
208.025	-89.7
208.243	-2.66
208.461	-46.82
208.68	-244.46
208.898	20.71
209.116	-8.9
209.335	31.81
209.553	69.34
209.771	60.82
209.989	102.71
210.208	18.49
210.426	-9.64
210.644	7.35
210.862	-178.44
211.081	242.3
211.299	-33.03
211.517	-89.04
211.735	-93.55
211.953	-287.91
212.171	626.43
212.39	-1613.35
212.608	-413.16
212.826	-98.34
213.044	-92.34
213.262	-211.6
213.48	1309.84
213.698	136.99
213.916	85.69
214.134	73.31
214.352	119.27
214.57	-69.08
214.788	-23.01
215.006	14.01
215.224	3.3
215.442	-11.65
215.66	-42.05
215.878	-50.8
216.096	-5.81
216.314	111.23
216.532	151.85
216.75	69.78
216.968	93.33
217.185	87.25
217.403	53.45
217.621	70.05
217.839	78.58
218.057	91.76
218.275	119.89
218.492	63.16
218.71	60.79
218.928	44.94
219.146	81.63
219.363	82.22
219.581	146.26
219.799	-2499.05
220.017	158.73
220.234	131.71
220.452	196.92
220.67	139.65
220.887	128.83
221.105	102.09
221.323	113.64
221.54	109.88
221.758	90.57
221.976	81.95
222.193	94.89
222.411	101.85
222.629	123.23
222.846	110.26
223.064	100.73
223.281	77.8
223.499	67.9
223.716	43.78
223.934	33.25
224.151	21.33
224.369	29.31
224.586	23.72
224.804	0.16
225.021	42.42
225.239	31.29
225.456	40.41
225.674	52.08
225.891	62.56
226.108	70.06
226.326	60.28
226.543	58.55
226.76	55.31
226.978	53.74
227.195	49.67
227.413	25.12
227.63	21.57
227.847	23.32
228.064	22.41
228.282	20.86
228.499	18.31
228.716	18.08
228.934	17.84
229.151	18.1
229.368	15.66
229.585	17.31
229.802	19.63
230.02	16.57
230.237	18.69
230.454	16.27
230.671	16.49
230.888	21.59
231.105	24.53
231.323	23.22
231.54	15.97
231.757	19.53
231.974	18.12
232.191	19.97
232.408	27.07
232.625	24.81
232.842	27.46
233.059	24.71
233.276	12.88
233.493	7.96
233.71	12.73
233.927	17.3
234.144	18.74
234.361	18.64
234.578	16.58
234.795	15.9
235.012	12.58
235.229	11.79
235.446	8.75
235.663	12.56
235.879	9.81
236.096	7.69
236.313	9.72
236.53	5.41
236.747	9.37
236.964	8.37
237.181	9.31
237.397	9.64
237.614	9.21
237.831	18.75
238.048	25.62
238.264	26.39
238.481	23.12
238.698	20.64
238.915	21.11
239.131	17.35
239.348	19.33
239.565	19.76
239.781	19.93
239.998	17.87
240.215	14.09
240.431	10.2
240.648	13.39
240.865	12.98
241.081	14.69
241.298	16.18
241.514	15.99
241.731	16.25
241.947	15.42
242.164	16.06
242.38	15.57
242.597	17.81
242.814	15.55
243.03	15.96
243.246	16.1
243.463	14.45
243.679	13.65
243.896	13.86
244.112	13.46
244.329	15
244.545	13.2
244.762	13.61
244.978	11.13
245.194	12.96
245.411	11.82
245.627	13.36
245.843	12.68
246.06	12.95
246.276	13.31
246.492	13.36
246.709	11.47
246.925	11.21
247.141	11.92
247.357	10.93
247.574	10.53
247.79	10.83
248.006	10.77
248.222	12.54
248.439	12.44
248.655	12.51
248.871	13.11
249.087	14.13
249.303	14.69
249.519	15.64
249.736	17.68
249.952	19.07
250.168	18.66
250.384	20.25
250.6	21.16
250.816	21.12
251.032	19.85
251.248	17.51
251.464	13.66
251.68	17.1
251.896	16.21
252.112	17.04
252.328	15.35
252.544	14.1
252.76	10.8
252.976	8.34
253.192	2.96
253.408	4.22
253.624	3.72
253.84	4.98
254.056	-1.58
254.272	-1.36
254.487	-3.52
254.703	-3.24
254.919	-2.25
255.135	-2.02
255.351	-3.69
255.567	1.94
255.782	4.04
255.998	7.2
256.214	10.42
256.43	13.42
256.646	11.37
256.861	9.22
257.077	12.63
257.293	10.31
257.508	11.41
257.724	12.18
257.94	11.94
258.155	9.98
258.371	11.21
258.587	11.15
258.802	9.95
259.018	9.06
259.234	9.75
259.449	9.16
259.665	9.54
259.88	9.45
260.096	9.2
260.312	9.15
260.527	9.58
260.743	8.3
260.958	7.29
261.174	6.76
261.389	6.98
261.605	5.64
261.82	5.13
262.036	4.92
262.251	4.47
262.466	5.71
262.682	5.62
262.897	4.87
263.113	4.8
263.328	3.59
263.543	2.3
263.759	1.28
263.974	3.84
264.189	3.79
264.405	4.58
264.62	5.84
264.835	5.28
265.051	7.48
265.266	9.25
265.481	10.51
265.696	14.51
265.912	15.36
266.127	15.91
266.342	15.81
266.557	13.42
266.773	13.24
266.988	13.45
267.203	11
267.418	9.55
267.633	9.48
267.848	7.86
268.064	7.02
268.279	9.13
268.494	9.53
268.709	9.69
268.924	13.45
269.139	11.97
269.354	11.62
269.569	12.17
269.784	13.39
269.999	12.4
270.214	13.53
270.429	11.09
270.644	8.76
270.859	6.96
271.074	5.82
271.289	3.7
271.504	4.78
271.719	4.76
271.934	5.5
272.149	5.75
272.363	6.27
272.578	6.26
272.793	8.09
273.008	9.83
273.223	10.77
273.438	10.65
273.653	11.07
273.867	12.52
274.082	12.58
274.297	13.08
274.512	11.99
274.726	10.7
274.941	10.93
275.156	10.81
275.371	9.62
275.585	10.94
275.8	10.53
276.015	10.51
276.229	10.75
276.444	9.83
276.659	10.34
276.873	13.33
277.088	13.4
277.302	13.04
277.517	12.06
277.732	12.71
277.946	10.62
278.161	13.63
278.375	12.98
278.59	10.81
278.804	11.42
279.019	10.5
279.233	7.25
279.448	7.54
279.662	7.38
279.877	6.79
280.091	6.12
280.306	6.83
280.52	6.49
280.735	8.07
280.949	9.29
281.163	9.78
281.378	9.5
281.592	10.1
281.806	11.61
282.021	10.77
282.235	11.9
282.449	10.62
282.664	9
282.878	6.15
283.092	5.54
283.307	4.84
283.521	3.53
283.735	3.39
283.949	2.33
284.164	0.66
284.378	0.63
284.592	2.58
284.806	4.58
285.02	5.34
285.234	7.82
285.449	7.76
285.663	7.03
285.877	7.76
286.091	8.13
286.305	9.58
286.519	9.36
286.733	10.75
286.947	8.92
287.161	8.22
287.375	8.35
287.589	6.93
287.803	6.79
288.017	7.68
288.231	7.71
288.445	8.45
288.659	8.19
288.873	9.65
289.087	7.66
289.301	8.82
289.515	8.91
289.729	8.27
289.943	8.96
290.157	9.09
290.371	9.12
290.584	9.22
290.798	9.55
291.012	9.67
291.226	7.97
291.44	8.09
291.654	9.6
291.867	9.39
292.081	9.45
292.295	7.18
292.509	7.14
292.722	7.66
292.936	6.04
293.15	3.5
293.364	3.88
293.577	4.05
293.791	5.29
294.005	0.94
294.218	1.03
294.432	3.52
294.645	7.86
294.859	8.39
295.073	8.33
295.286	8.48
295.5	9
295.713	8.73
295.927	9.97
296.14	9.96
296.354	11.11
296.568	12.21
296.781	10.65
296.994	10.21
297.208	9.98
297.421	10.68
297.635	10.9
297.848	10.79
298.062	10.28
298.275	9.6
298.489	9.2
298.702	8.94
298.915	8.73
299.129	9.61
299.342	6.95
299.555	7.8
299.769	7.36
299.982	8.53
300.195	9.88
300.409	10.2
300.622	11.83
300.835	12.26
301.048	12.83
301.262	11.75
301.475	11.67
301.688	15.55
301.901	13.97
302.115	14.06
302.328	13.09
302.541	12.05
302.754	12.09
302.967	11.57
303.18	11.29
303.393	11.44
303.607	11.67
303.82	11.03
304.033	6.06
304.246	5.75
304.459	7.09
304.672	7.57
304.885	8.63
305.098	8.23
305.311	7.6
305.524	8.9
305.737	7.51
305.95	7.55
306.163	9.19
306.376	11.59
306.589	11.75
306.802	8.88
307.015	10.02
307.228	8.18
307.44	8.36
307.653	9.97
307.866	10.3
308.079	11.75
308.292	12.26
308.505	11.59
308.718	10.63
308.93	10.18
309.143	12.2
309.356	11.4
309.569	11.92
309.781	12.7
309.994	11.09
310.207	11.31
310.42	11.21
310.632	10.54
310.845	10.5
311.058	11.78
311.27	13.74
311.483	13.25
311.696	12.46
311.908	14.62
312.121	15.29
312.333	15.63
312.546	15.57
312.759	15.1
312.971	13.65
313.184	12.7
313.396	11.31
313.609	8.83
313.821	8.19
314.034	8.3
314.246	6.28
314.459	6.54
314.671	8.03
314.884	7.68
315.096	7.84
315.309	9.46
315.521	10.52
315.733	14.07
315.946	16.95
316.158	17.79
316.371	19.49
316.583	20.06
316.795	19.15
317.008	18.05
317.22	16.19
317.432	16.52
317.644	14.77
317.857	14.89
318.069	11.33
318.281	8.72
318.494	6.12
318.706	5.23
318.918	1.75
319.13	-0.08
319.342	-0.96
319.555	0.16
319.767	0.61
319.979	0.65
320.191	1.79
320.403	4.73
320.615	6.93
320.827	8.88
321.039	8.65
321.252	12.29
321.464	13.88
321.676	14.73
321.888	15.25
322.1	14.21
322.312	16.31
322.524	16.1
322.736	13.92
322.948	12.13
323.16	11.05
323.372	10.18
323.584	8.09
323.796	7.9
324.007	8.34
324.219	8.9
324.431	9.23
324.643	9.89
324.855	10.22
325.067	11.25
325.279	11.42
325.491	12.02
325.702	10.08
325.914	10.8
326.126	12.55
326.338	12.75
326.55	12.56
326.761	13.07
326.973	12.62
327.185	12.35
327.396	12.42
327.608	13.5
327.82	13.04
328.032	15.4
328.243	14.8
328.455	11.29
328.666	11.14
328.878	11.5
329.09	10.8
329.301	12.43
329.513	11.56
329.725	11.71
329.936	10.16
330.148	10.8
330.359	9.82
330.571	10.93
330.782	14.21
330.994	14.13
331.205	11.01
331.417	11.54
331.628	10.5
331.84	9.04
332.051	8.01
332.262	7.98
332.474	7.68
332.685	10.39
332.897	10.03
333.108	8.76
333.319	9.15
333.531	11.72
333.742	11.69
333.953	11.02
334.165	12.37
334.376	13.62
334.587	13.53
334.799	13.6
335.01	12.4
335.221	12.61
335.432	12.36
335.644	11.36
335.855	9.13
336.066	9.11
336.277	8.62
336.488	8.66
336.7	6.1
336.911	7.3
337.122	7.71
337.333	7.71
337.544	6.24
337.755	7.48
337.966	9.23
338.177	10.79
338.388	10.7
338.599	10.97
338.811	12.04
339.022	13.63
339.233	12.66
339.444	11.75
339.655	10.85
339.866	13.09
340.076	10.64
340.287	9.91
340.498	8.16
340.709	7.9
340.92	7.36
341.131	6.23
341.342	6.35
341.553	7.1
341.764	7.42
341.975	7.61
342.185	6.65
342.396	9.38
342.607	7.21
342.818	9.05
343.029	8.96
343.239	9.42
343.45	9.54
343.661	9.34
343.872	9.38
344.082	10.1
344.293	10.33
344.504	10.42
344.714	8.27
344.925	10.3
345.136	11.63
345.346	11.92
345.557	12.17
345.768	11.75
345.978	12.32
346.189	11.63
346.399	10.36
346.61	10.87
346.821	11.15
347.031	11.96
347.242	11.77
347.452	9.76
347.663	9.93
347.873	8.92
348.084	8.48
348.294	7.97
348.504	8.77
348.715	9.28
348.925	8.17
349.136	8.1
349.346	8.47
349.557	7.76
349.767	8.06
349.977	6.79
350.188	7.06
350.398	9.23
350.608	9.16
350.819	8.95
351.029	9.07
351.239	10.52
351.449	9.52
351.66	8.99
351.87	8.59
352.08	7.81
352.29	8.64
352.501	8.94
352.711	8.74
352.921	8.77
353.131	9.32
353.341	9.47
353.552	9.88
353.762	9.09
353.972	10.12
354.182	10.09
354.392	11.75
354.602	12.7
354.812	12.22
355.022	10.83
355.232	11.52
355.442	10.98
355.652	10.26
355.862	9.83
356.072	11.32
356.282	10.14
356.492	11.04
356.702	10.36
356.912	9.8
357.122	8.83
357.332	7.89
357.542	6.73
357.752	6.69
357.962	7.37
358.171	5.79
358.381	6.27
358.591	6.32
358.801	5.5
359.011	4.82
359.221	4.8
359.43	6
359.64	6.83
359.85	6.68
360.06	6.03
360.269	4.96
360.479	6.2
360.689	5.08
360.899	5.38
361.108	6.09
361.318	6.51
361.528	6.72
361.737	7.02
361.947	6.44
362.156	7.47
362.366	7.67
362.576	8.04
362.785	7.63
362.995	8.25
363.204	8.01
363.414	8.08
363.623	8.4
363.833	8.19
364.042	7.97
364.252	9.18
364.461	8.67
364.671	9.39
364.88	9.15
365.09	9.53
365.299	10.14
365.509	9.3
365.718	9.19
365.927	8.7
366.137	9.78
366.346	9.82
366.555	9.3
366.765	8.87
366.974	8.03
367.183	8.2
367.393	8.28
367.602	6.93
367.811	7.64
368.021	7.68
368.23	8.37
368.439	7.55
368.648	7.51
368.857	8.3
369.067	8.05
369.276	8.63
369.485	8.47
369.694	8.9
369.903	9.87
370.112	9.72
370.321	9.84
370.531	8.5
370.74	8.14
370.949	7.94
371.158	6.48
371.367	6.69
371.576	6.56
371.785	7.55
371.994	7.46
372.203	6.74
372.412	7.01
372.621	6.71
372.83	7.17
373.039	6.35
373.248	6.78
373.457	7.53
373.666	8.51
373.874	8.66
374.083	7.88
374.292	7.05
374.501	6.87
374.71	6.94
374.919	6.66
375.128	6.8
375.336	8.39
375.545	8.13
375.754	7.82
375.963	7.1
376.171	7.31
376.38	7.7
376.589	8.03
376.798	8.03
377.006	7.86
377.215	7.88
377.424	7.88
377.632	7.29
377.841	6.88
378.05	6.71
378.258	7.33
378.467	7.28
378.675	7.59
378.884	6.68
379.093	6.83
379.301	7.22
379.51	7.31
379.718	7.18
379.927	6.85
380.135	7.45
380.344	7.9
380.552	6.88
380.761	6.53
380.969	6.44
381.177	7.32
381.386	6.92
381.594	6.85
381.803	7.26
382.011	7.5
382.219	6.95
382.428	6.76
382.636	6.43
382.845	6.97
383.053	7.42
383.261	7.24
383.469	7.34
383.678	8.23
383.886	7.88
384.094	7.59
384.302	7.64
384.511	7.99
384.719	7.97
384.927	7.8
385.135	7.21
385.343	6.66
385.552	6.18
385.76	5.94
385.968	5.87
386.176	5.78
386.384	5.23
386.592	4.5
386.8	4.33
387.008	4.35
387.216	3.95
387.424	3.17
387.633	2.8
387.841	2.88
388.049	3.06
388.257	2.86
388.465	2.97
388.672	3.34
388.88	3.85
389.088	4.39
389.296	4.55
389.504	4.9
389.712	5.49
389.92	5.83
390.128	5.75
390.336	5.93
390.544	5.67
390.751	5.91
390.959	5.64
391.167	5.28
391.375	4.73
391.583	4.32
391.79	4.34
391.998	4.95
392.206	4.97
392.414	5.3
392.621	4.88
392.829	4.64
393.037	4.44
393.244	4.58
393.452	4.76
393.66	4.96
393.867	4.66
394.075	4.75
394.283	4.13
394.49	3.72
394.698	3.57
394.905	3.01
395.113	2.96
395.32	2.93
395.528	2.72
395.735	2.55
395.943	2.73
396.15	2.98
396.358	2.66
396.565	2.88
396.773	3.33
396.98	3.25
397.188	3.48
397.395	3.43
397.602	3.2
397.81	3.09
398.017	3.04
398.225	3.02
398.432	2.85
398.639	2.95
398.847	3.03
399.054	2.97
399.261	3.14
399.468	3.66
399.676	4.33
399.883	4.07
400.09	4.07
400.297	3.78
400.505	3.53
400.712	4.16
400.919	4.36
401.126	4.78
401.333	4.44
401.54	3.97
401.748	3.63
401.955	3.27
402.162	3.46
402.369	3.73
402.576	4.12
402.783	3.98
402.99	3.66
403.197	3.69
403.404	3.25
403.611	3.51
403.818	3.58
404.025	3.46
404.232	3.3
404.439	3.41
404.646	3.58
404.853	3.68
405.06	3.72
405.267	3.78
405.474	3.79
405.681	3.7
405.887	3.53
406.094	3.45
406.301	3.64
406.508	3.64
406.715	3.6
406.922	3.11
407.128	2.99
407.335	2.88
407.542	2.62
407.749	2.52
407.955	2.61
408.162	2.8
408.369	3.14
408.575	3.08
408.782	3.11
408.989	3.41
409.195	3.49
409.402	3.6
409.609	3.89
409.815	3.96
410.022	3.86
410.228	3.67
410.435	3.63
410.642	3.35
410.848	3.52
411.055	3.33
411.261	3.17
411.468	3.02
411.674	3.03
411.881	2.96
412.087	3.19
412.294	3.25
412.5	3.44
412.706	3.38
412.913	3.2
413.119	2.97
413.326	3.2
413.532	3.03
413.738	2.96
413.945	3.04
414.151	3.01
414.357	2.93
414.564	3.1
414.77	3.14
414.976	3.11
415.182	3.37
415.389	3.29
415.595	3.17
415.801	3.29
416.007	3.55
416.214	3.41
416.42	3.38
416.626	3.29
416.832	3.09
417.038	2.97
417.244	3.15
417.45	3.06
417.657	3.31
417.863	3.54
418.069	3.31
418.275	3.27
418.481	3.26
418.687	3.32
418.893	3.25
419.099	3.31
419.305	3.4
419.511	3.03
419.717	3.2
419.923	2.99
420.129	2.64
420.335	2.66
420.541	2.77
420.746	2.82
420.952	2.76
421.158	2.77
421.364	2.52
421.57	2.52
421.776	2.78
421.982	2.8
422.187	3.01
422.393	3.18
422.599	3.18
422.805	3.05
423.01	3.09
423.216	3.04
423.422	3.12
423.628	3.28
423.833	3.23
424.039	3.24
424.245	3.13
424.45	3
424.656	2.91
424.862	2.98
425.067	2.94
425.273	2.75
425.478	2.74
425.684	2.63
425.889	2.7
426.095	2.59
426.301	2.6
426.506	2.5
426.712	2.59
426.917	2.59
427.123	2.46
427.328	2.76
427.533	2.82
427.739	2.81
427.944	3.03
428.15	2.98
428.355	3.1
428.561	2.83
428.766	2.7
428.971	2.6
429.177	2.52
429.382	2.64
429.587	2.42
429.793	2.45
429.998	2.49
430.203	2.28
430.408	2
430.614	2.02
430.819	2.21
431.024	2.37
431.229	2.3
431.434	2.48
431.64	2.49
431.845	2.31
432.05	2.22
432.255	2.2
432.46	2.28
432.665	2.4
432.87	2.34
433.076	2.31
433.281	2.37
433.486	2.33
433.691	2.38
433.896	2.31
434.101	2.32
434.306	2.53
434.511	2.44
434.716	2.5
434.921	2.32
435.126	2.41
435.331	2.36
435.535	2.5
435.74	2.48
435.945	2.43
436.15	2.41
436.355	2.44
436.56	2.47
436.765	2.71
436.97	2.58
437.174	2.58
437.379	2.33
437.584	2.21
437.789	2.04
437.993	2.21
438.198	2.02
438.403	1.94
438.608	2.1
438.812	2.13
439.017	1.97
439.222	1.71
439.426	2.04
439.631	2.31
439.836	2.43
440.04	2.41
440.245	2.31
440.45	2.59
440.654	2.65
440.859	2.7
441.063	2.48
441.268	2.62
441.472	2.86
441.677	2.66
441.881	2.48
442.086	2.55
442.29	2.51
442.495	2.61
442.699	2.46
442.904	2.59
443.108	2.52
443.312	2.61
443.517	2.33
443.721	2.27
443.925	2.39
444.13	2.51
444.334	2.41
444.538	2.46
444.743	2.41
444.947	2.45
445.151	2.5
445.356	2.42
445.56	2.56
445.764	2.62
445.968	2.68
446.173	2.62
446.377	2.56
446.581	2.5
446.785	2.55
446.989	2.56
447.193	2.46
447.398	2.35
447.602	2.43
447.806	2.31
448.01	2.4
448.214	2.22
448.418	2.2
448.622	2.19
448.826	2.31
449.03	2.3
449.234	2.21
449.438	2.38
449.642	2.38
449.846	2.41
450.05	2.32
450.254	2.18
450.458	2.35
450.662	2.5
450.866	2.84
451.069	2.76
451.273	2.85
451.477	2.97
451.681	2.99
451.885	3.2
452.089	3.08
452.292	3.03
452.496	3.2
452.7	3.18
452.904	3.09
453.107	2.73
453.311	2.62
453.515	2.36
453.719	2.11
453.922	1.9
454.126	1.55
454.33	1.46
454.533	1.38
454.737	1.27
454.94	1.28
455.144	1.3
455.348	1.26
455.551	1.35
455.755	1.69
455.958	1.74
456.162	1.85
456.365	1.96
456.569	1.92
456.772	1.97
456.976	1.99
457.179	2.19
457.383	2.14
457.586	2.39
457.79	2.38
457.993	2.24
458.196	2.56
458.4	2.51
458.603	2.59
458.807	2.64
459.01	2.69
459.213	2.76
459.417	2.63
459.62	2.66
459.823	2.55
460.026	2.62
460.23	2.45
460.433	2.2
460.636	2.39
460.839	2.36
461.042	2.35
461.246	2.27
461.449	2.26
461.652	2.15
461.855	2.21
462.058	2.26
462.261	2.13
462.464	2.13
462.668	2.23
462.871	1.95
463.074	1.88
463.277	1.89
463.48	2.07
463.683	2.02
463.886	2.17
464.089	1.84
464.292	1.89
464.495	2
464.698	2.25
464.901	2.2
465.104	2.09
465.306	2.12
465.509	2.24
465.712	2.33
465.915	2.39
466.118	2.37
466.321	2.49
466.524	2.54
466.726	2.44
466.929	2.38
467.132	2.48
467.335	2.45
467.538	2.36
467.74	2.3
467.943	2.02
468.146	2.02
468.348	1.91
468.551	1.99
468.754	1.85
468.956	1.7
469.159	1.74
469.362	1.67
469.564	1.92
469.767	1.85
469.969	1.72
470.172	1.92
470.375	1.75
470.577	1.8
470.78	1.89
470.982	1.79
471.185	1.92
471.387	1.9
471.59	1.94
471.792	1.89
471.995	2.12
472.197	2.33
472.399	2.41
472.602	2.5
472.804	2.35
473.007	2.52
473.209	2.67
473.411	2.91
473.614	2.97
473.816	2.91
474.018	2.98
474.22	2.79
474.423	2.63
474.625	2.55
474.827	2.24
475.03	2.46
475.232	2.3
475.434	2.04
475.636	1.75
475.838	1.59
476.04	1.66
476.243	1.72
476.445	1.94
476.647	1.84
476.849	1.96
477.051	2.14
477.253	2.02
477.455	2.12
477.657	2.15
477.859	2.29
478.061	2.41
478.263	2.3
478.465	2.28
478.667	2.15
478.869	2.34
479.071	2.33
479.273	2.46
479.475	2.45
479.677	2.35
479.879	2.41
480.081	2.39
480.283	2.36
480.485	2.24
480.686	2.3
480.888	2.15
481.09	2.01
481.292	1.84
481.494	1.76
481.695	1.84
481.897	1.9
482.099	1.92
482.301	1.97
482.502	1.87
482.704	1.95
482.906	1.9
483.107	1.96
483.309	2
483.511	1.98
483.712	2.02
483.914	1.99
484.115	1.98
484.317	2.05
484.519	2.05
484.72	2.1
484.922	2.09
485.123	2.09
485.325	2.13
485.526	2.16
485.728	2.26
485.929	2.16
486.131	2.15
486.332	2.14
486.534	2.06
486.735	2.01
486.936	1.98
487.138	1.95
487.339	1.93
487.541	1.94
487.742	1.91
487.943	1.9
488.144	2.05
488.346	2.06
488.547	2.07
488.748	2.05
488.95	2.09
489.151	2.16
489.352	2.26
489.553	2.3
489.755	2.3
489.956	2.36
490.157	2.36
490.358	2.35
490.559	2.34
490.76	2.37
490.961	2.41
491.163	2.44
491.364	2.35
491.565	2.35
491.766	2.34
491.967	2.39
492.168	2.43
492.369	2.47
492.57	2.5
492.771	2.57
492.972	2.54
493.173	2.66
493.374	2.61
493.575	2.73
493.776	2.73
493.976	2.75
494.177	2.71
494.378	2.64
494.579	2.66
494.78	2.77
494.981	2.79
495.182	2.82
495.382	2.63
495.583	2.74
495.784	2.64
495.985	2.72
496.185	2.57
496.386	2.64
496.587	2.57
496.788	2.51
496.988	2.39
497.189	2.16
497.39	2.12
497.59	2.07
497.791	1.93
497.992	2.01
498.192	1.95
498.393	2.22
498.593	2.33
498.794	2.5
498.994	2.52
499.195	2.45
499.395	2.65
499.596	2.79
499.796	2.84
499.997	2.9
500.197	2.77
500.398	2.84
500.598	2.77
500.799	2.57
500.999	2.66
501.199	2.74
501.4	2.61
501.6	2.56
501.801	2.54
502.001	2.59
502.201	2.33
502.402	2.48
502.602	2.3
502.802	2.26
503.002	2.23
503.203	2.05
503.403	1.91
503.603	2.06
503.803	2.09
504.003	2.01
504.204	2
504.404	2.13
504.604	2.18
504.804	2.39
505.004	2.3
505.204	2.21
505.404	2.19
505.604	2.35
505.804	2.36
506.005	2.36
506.205	2.35
506.405	2.21
506.605	2.54
506.805	2.3
507.005	2.4
507.204	2.39
507.404	2.55
507.604	2.59
507.804	2.34
508.004	2.33
508.204	2.37
508.404	2.54
508.604	2.66
508.804	2.54
509.003	2.61
509.203	2.51
509.403	2.55
509.603	2.6
509.803	2.7
510.002	2.84
510.202	2.76
510.402	2.69
510.602	2.55
510.801	2.65
511.001	2.63
511.201	2.73
511.4	2.69
511.6	2.7
511.8	2.66
511.999	2.57
512.199	2.49
512.398	2.51
512.598	2.6
512.797	2.65
512.997	2.55
513.197	2.6
513.396	2.73
513.596	2.74
513.795	2.61
513.994	2.65
514.194	2.7
514.393	2.76
514.593	2.9
514.792	2.87
514.992	2.83
515.191	2.86
515.39	2.81
515.59	2.8
515.789	2.74
515.988	2.7
516.188	2.53
516.387	2.53
516.586	2.61
516.786	2.66
516.985	2.73
517.184	2.72
517.383	2.79
517.582	2.65
517.782	2.51
517.981	2.61
518.18	2.84
518.379	2.86
518.578	2.78
518.777	2.7
518.976	2.66
519.176	2.65
519.375	2.58
519.574	2.59
519.773	2.65
519.972	2.79
520.171	2.82
520.37	2.72
520.569	2.71
520.768	2.73
520.967	2.8
521.166	2.61
521.365	2.53
521.564	2.73
521.762	2.6
521.961	2.7
522.16	2.53
522.359	2.49
522.558	2.5
522.757	2.55
522.956	2.59
523.154	2.54
523.353	2.72
523.552	2.77
523.751	2.6
523.949	2.68
524.148	2.74
524.347	2.77
524.546	2.71
524.744	2.79
524.943	2.82
525.142	2.75
525.34	2.87
525.539	2.94
525.737	2.91
525.936	2.98
526.135	3.1
526.333	3.04
526.532	3.14
526.73	3.14
526.929	3.09
527.127	3.02
527.326	3.08
527.524	3
527.723	2.97
527.921	2.97
528.12	2.95
528.318	2.82
528.516	2.84
528.715	2.84
528.913	2.91
529.112	2.93
529.31	3.02
529.508	3
529.707	3.02
529.905	2.96
530.103	3.03
530.301	3.11
530.5	3.11
530.698	3.13
530.896	3.12
531.094	3.18
531.293	3.15
531.491	3.11
531.689	3.15
531.887	3.21
532.085	3.32
532.283	3.33
532.481	3.22
532.68	3.38
532.878	3.37
533.076	3.34
533.274	3.34
533.472	3.42
533.67	3.37
533.868	3.31
534.066	3.29
534.264	3.3
534.462	3.27
534.66	3.38
534.858	3.32
535.056	3.37
535.253	3.5
535.451	3.46
535.649	3.48
535.847	3.44
536.045	3.54
536.243	3.51
536.441	3.59
536.638	3.63
536.836	3.61
537.034	3.76
537.232	3.71
537.43	3.58
537.627	3.5
537.825	3.5
538.023	3.69
538.22	3.73
538.418	3.78
538.616	3.7
538.813	3.61
539.011	3.67
539.209	3.66
539.406	3.57
539.604	3.75
539.801	3.99
539.999	4.02
540.196	3.96
540.394	3.93
540.591	3.9
540.789	3.98
540.986	4.03
541.184	4.06
541.381	4.12
541.579	4.27
541.776	4.21
541.974	4.16
542.171	4.24
542.368	4.28
542.566	4.34
542.763	4.47
542.96	4.5
543.158	4.55
543.355	4.54
543.552	4.53
543.75	4.45
543.947	4.47
544.144	4.37
544.341	4.33
544.539	4.42
544.736	4.51
544.933	4.46
545.13	4.62
545.327	4.57
545.524	4.57
545.722	4.61
545.919	4.87
546.116	4.98
546.313	5.12
546.51	5.17
546.707	5.12
546.904	5.22
547.101	5.36
547.298	5.28
547.495	5.46
547.692	5.53
547.889	5.56
548.086	5.49
548.283	5.59
548.48	5.58
548.677	5.53
548.874	5.53
549.07	5.48
549.267	5.41
549.464	5.46
549.661	5.39
549.858	5.5
550.055	5.51
550.251	5.72
550.448	5.62
550.645	5.75
550.842	5.79
551.038	5.96
551.235	5.91
551.432	6
551.628	6.06
551.825	6.27
552.022	6.31
552.218	6.34
552.415	6.34
552.612	6.47
552.808	6.48
553.005	6.65
553.201	6.71
553.398	6.68
553.594	6.86
553.791	6.94
553.987	6.94
554.184	7.07
554.38	7.11
554.577	7.01
554.773	7.11
554.97	7.29
555.166	7.14
555.362	7.08
555.559	7.34
555.755	6.98
555.952	6.88
556.148	6.83
556.344	6.94
556.541	6.83
556.737	6.83
556.933	7.06
557.129	6.81
557.326	7.09
557.522	7.27
557.718	7.18
557.914	7.62
558.11	7.73
558.307	7.9
558.503	7.86
558.699	8.04
558.895	8.19
559.091	8.08
559.287	8.48
559.483	8.55
559.679	8.58
559.876	8.63
560.072	8.69
560.268	8.65
560.464	8.65
560.66	8.67
560.856	8.73
561.052	8.93
561.247	8.78
561.443	8.65
561.639	8.61
561.835	8.51
562.031	8.53
562.227	8.44
562.423	8.54
562.619	8.54
562.815	8.75
563.01	8.77
563.206	8.62
563.402	8.91
563.598	8.83
563.793	8.87
563.989	8.98
564.185	9.18
564.381	9.29
564.576	9.3
564.772	9.47
564.968	9.54
565.163	9.39
565.359	9.51
565.555	9.38
565.75	9.57
565.946	9.62
566.141	9.69
566.337	9.7
566.532	9.84
566.728	9.85
566.923	9.8
567.119	9.59
567.314	9.77
567.51	9.67
567.705	9.91
567.901	10.01
568.096	10.22
568.292	10.2
568.487	10.34
568.682	10.26
568.878	10.44
569.073	10.54
569.268	10.91
569.464	11.03
569.659	11.34
569.854	11.26
570.05	11.25
570.245	11.32
570.44	11.53
570.635	11.37
570.831	11.31
571.026	11.41
571.221	11.45
571.416	11.28
571.611	11.39
571.806	11.42
572.002	11.52
572.197	11.69
572.392	11.65
572.587	11.6
572.782	11.7
572.977	11.86
573.172	12.02
573.367	12.02
573.562	12.12
573.757	12.06
573.952	11.73
574.147	11.58
574.342	11.68
574.537	11.71
574.732	11.92
574.927	12.02
575.121	11.96
575.316	11.87
575.511	11.96
575.706	12.07
575.901	12.09
576.096	12.33
576.29	12.42
576.485	12.28
576.68	12.31
576.875	12.14
577.069	12.11
577.264	12.29
577.459	12.22
577.654	12.24
577.848	12.21
578.043	12.39
578.238	12.78
578.432	12.68
578.627	12.69
578.821	12.71
579.016	13.2
579.21	13.19
579.405	12.94
579.6	13.11
579.794	12.92
579.989	12.94
580.183	12.71
580.378	12.69
580.572	13.06
580.766	12.92
580.961	12.75
581.155	12.47
581.35	12.86
581.544	13.01
581.738	12.9
581.933	13.41
582.127	13.49
582.321	13.76
582.516	13.65
582.71	13.51
582.904	13.93
583.099	14.11
583.293	14.2
583.487	13.97
583.681	13.79
583.875	13.93
584.07	13.71
584.264	13.52
584.458	13.48
584.652	13.22
584.846	13.13
585.04	13.09
585.234	13.08
585.428	12.78
585.623	12.81
585.817	13.16
586.011	12.98
586.205	13.11
586.399	13.27
586.593	13.43
586.787	13.38
586.981	13.4
587.174	13.32
587.368	13.2
587.562	13.31
587.756	13.17
587.95	13.08
588.144	13.17
588.338	13.09
588.532	12.93
588.725	12.76
588.919	12.67
589.113	12.6
589.307	12.7
589.501	12.51
589.694	12.41
589.888	12.88
590.082	12.77
590.275	12.64
590.469	12.25
590.663	12.41
590.856	12.17
591.05	12.62
591.244	12.69
591.437	12.69
591.631	13.04
591.824	13.06
592.018	12.79
592.212	12.99
592.405	13.14
592.599	13.53
592.792	13.55
592.986	13.68
593.179	13.57
593.372	13.64
593.566	13.63
593.759	13.8
593.953	14.05
594.146	13.87
594.339	13.81
594.533	13.72
594.726	13.85
594.92	13.79
595.113	13.96
595.306	13.72
595.499	13.89
595.693	13.65
595.886	13.58
596.079	13.5
596.272	13.56
596.466	13.55
596.659	13.43
596.852	13.43
597.045	13.45
597.238	13.54
597.431	13.86
597.624	13.71
597.818	13.83
598.011	13.64
598.204	13.86
598.397	13.87
598.59	13.84
598.783	14.04
598.976	13.86
599.169	13.89
599.362	13.83
599.555	13.69
599.748	13.71
599.941	14.01
600.134	14.15
600.326	13.72
600.519	13.9
600.712	13.94
600.905	14.15
601.098	14.5
601.291	14.43
601.483	14.22
601.676	14.18
601.869	14.22
602.062	14
602.255	13.89
602.447	13.98
602.64	13.96
602.833	14.11
603.025	13.82
603.218	13.7
603.411	13.77
603.603	14.12
603.796	14.28
603.989	14.3
604.181	14.19
604.374	14.27
604.566	14.52
604.759	14.58
604.951	14.67
605.144	14.82
605.336	15.04
605.529	15.38
605.721	15.18
605.914	14.84
606.106	14.64
606.299	14.62
606.491	14.84
606.683	14.66
606.876	14.73
607.068	14.58
607.26	14.66
607.453	14.31
607.645	13.82
607.837	13.78
608.03	13.93
608.222	14.29
608.414	14.6
608.606	14.45
608.799	14.54
608.991	14.38
609.183	14.35
609.375	14.33
609.567	14.52
609.759	14.54
609.952	14.75
610.144	15.01
610.336	15.06
610.528	14.92
610.72	14.77
610.912	14.72
611.104	14.73
611.296	14.66
611.488	14.73
611.68	14.42
611.872	14.38
612.064	14.35
612.256	14.24
612.448	13.99
612.64	14.09
612.832	14.3
613.023	14.26
613.215	14.22
613.407	14.45
613.599	14.31
613.791	14.34
613.983	14.77
614.174	14.8
614.366	14.92
614.558	14.93
614.75	14.57
614.941	14.39
615.133	13.97
615.325	14.07
615.516	13.76
615.708	13.62
615.9	13.75
616.091	13.43
616.283	13.34
616.475	13.1
616.666	13.07
616.858	13.37
617.049	13.41
617.241	14.17
617.432	13.82
617.624	14.02
617.815	14.49
618.007	14.69
618.198	14.52
618.39	14.2
618.581	14.13
618.773	14.14
618.964	14.09
619.155	14.37
619.347	13.79
619.538	13.92
619.729	14.17
619.921	14.22
620.112	14.27
620.303	14.4
620.494	14.85
620.686	15.08
620.877	15.09
621.068	15.16
621.259	14.98
621.451	14.99
621.642	15.11
621.833	14.98
622.024	14.57
622.215	14.03
622.406	14.27
622.597	14.41
622.788	14.5
622.98	14.5
623.171	14.58
623.362	14.55
623.553	14.7
623.744	14.73
623.935	14.75
624.126	14.67
624.317	14.92
624.508	14.95
624.698	14.73
624.889	14.68
625.08	14.95
625.271	14.92
625.462	14.86
625.653	14.77
625.844	14.99
626.034	14.68
626.225	14.6
626.416	14.69
626.607	14.15
626.798	14.26
626.988	14.37
627.179	14.19
627.37	14.09
627.56	14.15
627.751	14.43
627.942	14.37
628.132	14.44
628.323	14.48
628.514	14.5
628.704	15.15
628.895	15.25
629.085	14.96
629.276	15.06
629.466	15
629.657	15.32
629.847	15.16
630.038	15.14
630.228	15.19
630.419	15.51
630.609	15.64
630.8	15.34
630.99	14.89
631.181	15.02
631.371	14.87
631.561	14.98
631.752	14.65
631.942	14.38
632.132	14.31
632.323	14.23
632.513	13.95
632.703	13.87
632.893	13.86
633.084	14.11
633.274	13.97
633.464	14.04
633.654	14.17
633.844	14.19
634.034	14.48
634.225	14.39
634.415	14.48
634.605	14.65
634.795	14.9
634.985	14.62
635.175	14.39
635.365	14.51
635.555	14.58
635.745	14.27
635.935	14.13
636.125	14.1
636.315	13.95
636.505	13.97
636.695	14.13
636.885	13.45
637.075	13.65
637.265	13.81
637.455	13.89
637.644	13.8
637.834	13.95
638.024	14.4
638.214	14.66
638.404	14.69
638.593	14.6
638.783	14.4
638.973	14.64
639.163	14.72
639.352	14.63
639.542	14.24
639.732	14.17
639.921	14.39
640.111	13.99
640.301	13.39
640.49	13.62
640.68	13.7
640.87	13.79
641.059	13.7
641.249	13.25
641.438	13.5
641.628	13.65
641.817	13.96
642.007	13.83
642.196	14.21
642.386	14.85
642.575	14.81
642.764	14.71
642.954	14.4
643.143	14.38
643.333	15.07
643.522	14.81
643.711	14.61
643.901	14.26
644.09	14.19
644.279	14.01
644.469	13.54
644.658	13
644.847	12.83
645.036	12.93
645.226	13.28
645.415	13.24
645.604	13.02
645.793	13.91
645.982	14.06
646.171	13.85
646.361	14
646.55	14.12
646.739	15.1
646.928	15.68
647.117	15.62
647.306	15.71
647.495	15.4
647.684	15.65
647.873	15.28
648.062	15.21
648.251	15.47
648.44	15.14
648.629	15.44
648.818	14.71
649.007	14.34
649.196	14.51
649.384	14.39
649.573	15
649.762	14.98
649.951	15.26
650.14	15.47
650.328	15.19
650.517	15.27
650.706	15.26
650.895	15.63
651.083	15.26
651.272	15.5
651.461	15.3
651.65	14.51
651.838	14.46
652.027	14.24
652.216	13.94
652.404	14.14
652.593	14.15
652.781	13.85
652.97	13.57
653.158	13.85
653.347	13.6
653.535	13.78
653.724	14.07
653.912	14.17
654.101	14.1
654.289	14.19
654.478	14.3
654.666	13.97
654.855	14.05
655.043	14.12
655.231	14.16
655.42	14.14
655.608	14.18
655.796	13.82
655.985	13.82
656.173	13.47
656.361	13.64
656.55	13.87
656.738	14.45
656.926	14.19
657.114	14.45
657.302	14.1
657.491	14.01
657.679	13.86
657.867	14.62
658.055	14.74
658.243	14.98
658.431	15.21
658.619	14.79
658.807	14.44
658.996	14.67
659.184	14.79
659.372	14.92
659.56	15.33
659.748	15.32
659.936	15.01
660.124	14.94
660.311	14.96
660.499	14.6
660.687	15.17
660.875	15.48
661.063	15.29
661.251	14.63
661.439	15
661.627	14.83
661.814	14.6
662.002	14.75
662.19	14.49
662.378	14.16
662.565	14.45
662.753	13.72
662.941	13.71
663.129	13.59
663.316	14.11
663.504	14.35
663.692	14.24
663.879	14.4
664.067	14.31
664.254	14.64
664.442	14.77
664.63	14.16
664.817	14.45
665.005	14.16
665.192	14.55
665.38	14.77
665.567	14.65
665.755	14.84
665.942	14.92
666.13	15.08
666.317	14.58
666.504	14.92
666.692	14.92
666.879	14.61
667.067	14.45
667.254	14.48
667.441	14.8
667.629	15.12
667.816	14.94
668.003	14.91
668.19	14.85
668.378	15.29
668.565	15.11
668.752	15.48
668.939	16.07
669.127	16.52
669.314	16.61
669.501	15.68
669.688	15.11
669.875	14.71
670.062	14.6
670.249	14.3
670.436	13.98
670.623	14.28
670.81	13.72
670.997	13.25
671.184	13.12
671.371	13.1
671.558	13.2
671.745	12.88
671.932	12.85
672.119	12.89
672.306	13.24
672.493	13.17
672.68	12.87
672.867	13.42
673.054	13.43
673.24	13.41
673.427	13.09
673.614	12.94
673.801	13.3
673.988	13.84
674.174	14.23
674.361	13.87
674.548	14.19
674.734	14.05
674.921	14.43
675.108	14.63
675.294	14.09
675.481	14.56
675.668	15.89
675.854	16.04
676.041	15.67
676.227	15.42
676.414	15.61
676.601	15.71
676.787	16.05
676.974	15.64
677.16	15.65
677.347	15.92
677.533	16.11
677.719	15.3
677.906	15.04
678.092	15.2
678.279	14.7
678.465	14.84
678.651	14.37
678.838	13.71
679.024	13.49
679.21	13.33
679.397	13.34
679.583	12.85
679.769	12.71
679.955	12.96
680.142	12.62
680.328	12.8
680.514	12.97
680.7	13.49
680.886	14.28
681.073	14.44
681.259	14.2
681.445	14.35
681.631	14.15
681.817	14.48
682.003	14.39
682.189	14.58
682.375	15.01
682.561	14.82
682.747	14.7
682.933	14.53
683.119	14.86
683.305	15.66
683.491	15.69
683.677	16.18
683.863	15.75
684.049	15.48
684.235	15.85
684.42	16.19
684.606	16.2
684.792	16.5
684.978	16.45
685.164	15.68
685.349	15.18
685.535	15.55
685.721	15.52
685.907	15.94
686.092	16.4
686.278	15.53
686.464	15.07
686.649	14.9
686.835	14.53
687.021	14.64
687.206	15.5
687.392	15.79
687.577	15.75
687.763	15.84
687.948	15.89
688.134	15.34
688.319	16.56
688.505	16.95
688.69	17.37
688.876	17.54
689.061	17.21
689.247	17.24
689.432	16.81
689.618	16.67
689.803	16.45
689.988	16.29
690.174	16.55
690.359	16.19
690.544	15.22
690.73	14.62
690.915	14.8
691.1	14.98
691.285	14.59
691.471	14.55
691.656	14.28
691.841	14.89
692.026	14.8
692.211	14.34
692.396	14.24
692.582	14.44
692.767	14.86
692.952	14.11
693.137	14.16
693.322	13.93
693.507	14.82
693.692	15.61
693.877	14.78
694.062	14.61
694.247	15.23
694.432	15.38
694.617	15.84
694.802	15.47
694.987	15.98
695.172	15.79
695.357	15.94
695.541	15.39
695.726	14.4
695.911	14.78
696.096	14.56
696.281	14.72
696.466	14.38
696.65	13.85
696.835	14.02
697.02	14.12
697.204	14.08
697.389	14.25
697.574	14.24
697.759	14.56
697.943	14.5
698.128	14.9
698.312	14.73
698.497	14.81
698.682	15.12
698.866	15.4
699.051	14.88
699.235	14.77
699.42	14.55
699.604	14.83
699.789	15.05
699.973	14.96
700.158	14.48
700.342	14.76
700.527	14.57
700.711	14.61
700.895	14.68
701.08	15.18
701.264	15.45
701.448	16.24
701.633	16.76
701.817	16.43
702.001	16.6
702.186	17.54
702.37	17.6
702.554	18.2
702.738	18.4
702.923	18.08
703.107	18.06
703.291	18.13
703.475	17.88
703.659	16.55
703.843	16.83
704.027	17.44
704.212	17.76
704.396	17.22
704.58	17.21
704.764	16.68
704.948	16.64
705.132	16.56
705.316	15.81
705.5	14.77
705.684	14.56
705.868	14.18
706.052	13.75
706.235	13.03
706.419	12.62
706.603	12.65
706.787	12.57
706.971	12.8
707.155	12.91
707.339	13.64
707.522	14.56
707.706	15.46
707.89	15.8
708.074	15.98
708.257	16.27
708.441	17.34
708.625	16.75
708.808	16.51
708.992	15.5
709.176	15.72
709.359	15.7
709.543	15.64
709.727	16
709.91	14.79
710.094	15.07
710.277	15.1
710.461	14.47
710.644	15.49
710.828	16.37
711.011	17.17
711.195	16.84
711.378	16.8
711.562	16.82
711.745	15.13
711.928	16.83
712.112	16.55
712.295	16.49
712.478	16.37
712.662	15.14
712.845	14.6
713.028	14.47
713.212	14.77
713.395	14.87
713.578	14.55
713.761	16.25
713.945	16.05
714.128	15.76
714.311	15.27
714.494	15.94
714.677	15.88
714.86	16.04
715.043	16.11
715.227	16.38
715.41	16.25
715.593	16.83
715.776	16.36
715.959	15.75
716.142	15.91
716.325	15.93
716.508	15.74
716.691	16.74
716.874	16.72
717.057	16.91
717.239	16.75
717.422	17.16
717.605	16.75
717.788	16.99
717.971	17.05
718.154	16.72
718.337	17.46
718.519	17.02
718.702	16.14
718.885	15.78
719.068	15.86
719.25	14.98
719.433	14.68
719.616	13.85
719.798	13.42
719.981	12.74
720.164	12.4
720.346	10.93
720.529	11.93
720.712	12.02
720.894	12.51
721.077	11.52
721.259	12.52
721.442	12.4
721.624	13.52
721.807	14.22
721.989	14.83
722.172	15.6
722.354	16.67
722.537	14.9
722.719	14.74
722.901	14.64
723.084	14.88
723.266	14.95
723.448	14.76
723.631	14.94
723.813	13.9
723.995	14.43
724.178	13.61
724.36	13.38
724.542	14.35
724.724	14.61
724.907	13.69
725.089	13.61
725.271	13.73
725.453	13.6
725.635	12.68
725.817	13.25
725.999	12.93
726.181	12.61
726.364	12.07
726.546	11.72
726.728	12.32
726.91	13.55
727.092	12.85
727.274	11.51
727.456	11.39
727.638	12.13
727.819	12.19
728.001	11.82
728.183	12.91
728.365	14.46
728.547	15.08
728.729	14.84
728.911	15
729.093	16.05
729.274	17.08
729.456	17.41
729.638	16.91
729.82	18.07
730.001	18.04
730.183	16.97
730.365	16.15
730.546	14.91
730.728	14.69
730.91	14.46
731.091	14.89
731.273	14.49
731.455	14.46
731.636	16.29
731.818	14.64
731.999	14.26
732.181	14.84
732.362	15.25
732.544	15.83
732.725	16.13
732.907	15.69
733.088	15.19
733.27	15.12
733.451	14.7
733.633	12.88
733.814	13.83
733.995	14.25
734.177	15.19
734.358	15.08
734.539	15.77
734.721	16.55
734.902	16.27
735.083	15.58
735.264	16.4
735.446	16.55
735.627	16.46
735.808	14.89
735.989	15.36
736.17	15.13
736.351	14.59
736.533	14.25
736.714	12.94
736.895	13.42
737.076	13.96
737.257	13.89
737.438	14.08
737.619	14.04
737.8	15.11
737.981	14.77
738.162	13.53
738.343	13.94
738.524	14.35
738.705	15.11
738.886	15.28
739.067	15.44
739.247	15.18
739.428	16.23
739.609	16.45
739.79	17.01
739.971	17.4
740.151	17.09
740.332	16.29
740.513	15.85
740.694	15.76
740.874	15.13
741.055	14.19
741.236	14.1
741.417	13.11
741.597	13.24
741.778	12.96
741.958	12.47
742.139	14.26
742.32	16.05
742.5	15.5
742.681	14.95
742.861	15.7
743.042	16.76
743.222	17.16
743.403	17.38
743.583	16.87
743.764	15.96
743.944	16.92
744.124	15.86
744.305	14.62
744.485	15.18
744.666	14.64
744.846	14.96
745.026	14.91
745.207	12.65
745.387	12.86
745.567	14.66
745.747	14.72
745.928	14.15
746.108	15.23
746.288	14.29
746.468	13.78
746.648	14.35
746.829	14.66
747.009	13.36
747.189	14.76
747.369	15.83
747.549	14.78
747.729	15.98
747.909	16.01
748.089	15.95
748.269	17.01
748.449	15.82
748.629	17.12
748.809	16.71
748.989	19.05
749.169	19.58
749.349	18.3
749.529	19.57
749.709	17.91
749.889	17.6
750.068	17.31
750.248	17.34
750.428	18.57
750.608	16.14
750.788	17.25
750.967	15.11
751.147	15.41
751.327	15.36
751.507	13.8
751.686	14.27
751.866	13.68
752.046	13.48
752.225	12.61
752.405	14.68
752.585	15.13
752.764	12.58
752.944	14.19
753.123	13.95
753.303	14.21
753.482	12.28
753.662	12.11
753.841	11.6
754.021	11.37
754.2	12.73
754.38	11.57
754.559	13.11
754.739	13.13
754.918	11.48
755.097	9.99
755.277	8.52
755.456	11.12
755.635	11.85
755.815	13.94
755.994	14.09
756.173	12.04
756.352	10.58
756.532	9.05
756.711	10.35
756.89	10.99
757.069	12.97
757.248	13
757.427	11.51
757.607	12.06
757.786	11.31
757.965	12.49
758.144	14
758.323	15.81
758.502	15.67
758.681	15.96
758.86	16.98
759.039	16.29
759.218	17.77
759.397	18.49
759.576	18.65
759.755	18.92
759.934	17.68
760.113	17.55
760.291	16.2
760.47	17.31
760.649	17.73
760.828	17.06
761.007	18.76
761.186	20.02
761.364	19.31
761.543	18.53
761.722	17.13
761.901	17.61
762.079	17.61
762.258	18.12
762.437	17.9
762.615	18.4
762.794	18.65
762.972	17.11
763.151	15.16
763.33	16.39
763.508	16.48
763.687	16
763.865	16
764.044	15.24
764.222	14.86
764.401	15.18
764.579	15.47
764.758	15.33
764.936	15.81
765.114	16.66
765.293	15.7
765.471	15.69
765.65	17.04
765.828	16.88
766.006	18.16
766.184	18.63
766.363	18.3
766.541	16.9
766.719	17.68
766.898	16.64
767.076	16.09
767.254	16.91
767.432	16.04
767.61	16.54
767.788	17.13
767.967	17.9
768.145	18.97
768.323	17.83
768.501	17.74
768.679	17.64
768.857	17.85
769.035	18.66
769.213	18.18
769.391	18.54
769.569	16.25
769.747	16.29
769.925	17.5
770.103	18.33
770.281	18.22
770.459	19.52
770.636	18.13
770.814	18.97
770.992	18.46
771.17	17.55
771.348	17.63
771.525	19.11
771.703	18.98
771.881	15.99
772.059	15.08
772.236	16.77
772.414	16.17
772.592	18.14
772.769	19
772.947	20.76
773.125	23.6
773.302	24.7
773.48	23.82
773.657	23.36
773.835	22.16
774.013	19.61
774.19	20.24
774.368	20.93
774.545	22.49
774.723	21.08
774.9	19.46
775.077	18.43
775.255	18.7
775.432	18.68
775.61	21.04
775.787	20.39
775.964	21.6
776.142	19.2
776.319	19.78
776.496	18.79
776.674	20.22
776.851	18.97
777.028	19.93
777.205	17.97
777.382	20.35
777.56	18.07
777.737	18.96
777.914	21.41
778.091	22.42
778.268	20.84
778.445	18.31
778.622	18.19
778.8	18.81
778.977	17.74
779.154	18.7
779.331	16.97
779.508	17.35
779.685	17.87
779.862	16.04
780.038	17.15
780.215	16.74
780.392	15.44
780.569	13.86
780.746	14.15
780.923	13.73
781.1	11.5
781.277	13.63
781.453	12
781.63	12.95
781.807	14.56
781.984	11.39
782.16	11.78
782.337	10.72
782.514	12.95
782.691	12.08
782.867	11.55
783.044	14.88
783.221	10.55
783.397	7.96
783.574	6.71
783.75	5.58
783.927	11.26
784.103	9.52
784.28	12.03
784.456	9.17
784.633	10.16
784.809	11.14
784.986	7.92
785.162	7.73
785.339	11.71
785.515	15.3
785.692	13.79
785.868	5.88
786.044	6.64
786.221	8.19
786.397	5.95
786.573	8.32
786.749	8.58
786.926	10.36
787.102	14.15
787.278	10.83
787.454	7.64
787.631	7.75
787.807	12.88
787.983	13.47
788.159	12.96
788.335	15.32
788.511	12.14
788.687	10.82
788.863	9.38
789.039	5.61
789.216	6.95
789.392	7.94
789.568	8.69
789.744	7.42
789.919	5.72
790.095	7.62
790.271	7.46
790.447	10.99
790.623	11.42
790.799	11.04
790.975	15.1
791.151	14.57
791.327	12.54
791.502	11.91
791.678	15.18
791.854	15.61
792.03	10
792.205	11.65
792.381	11.04
792.557	7.69
792.733	12.28
792.908	11.49
793.084	18.03
793.259	18.61
793.435	15.78
793.611	12.22
793.786	14.47
793.962	18.43
794.137	18.4
794.313	18.08
794.488	20.6
794.664	17.21
794.839	15.64
795.015	11.92
795.19	12.28
795.366	14.71
795.541	15.12
795.716	15.65
795.892	14.13
796.067	13.8
796.242	13.55
796.418	13.43
796.593	15.65
796.768	15.56
796.944	19.27
797.119	21.04
797.294	21.41
797.469	21.75
797.644	21.99
797.82	20.58
797.995	21.5
798.17	18.7
798.345	20.4
798.52	21.82
798.695	23.78
798.87	18.03
799.045	14.72
799.22	15.07
799.395	13.33
799.57	11.09
799.745	12.45
799.92	9.57
800.095	15.55
800.27	13.36
800.445	9.96
800.62	8.89
800.795	9.58
800.97	13.81
801.145	13.63
801.319	18.19
801.494	15.76
801.669	16.41
801.844	16.91
802.018	11.52
802.193	10.33
802.368	12.53
802.543	8.94
802.717	9.81
802.892	6.1
803.067	7.95
803.241	4.61
803.416	10.36
803.59	10.34
803.765	7.22
803.94	10.13
804.114	11.41
804.289	8.91
804.463	13.85
804.638	16.05
804.812	17.41
804.986	12.62
805.161	14.43
805.335	8.77
805.51	7.57
805.684	12.14
805.858	10.78
806.033	10.03
806.207	12.5
806.381	13.62
806.556	14.78
806.73	16.54
806.904	18.93
807.078	18.91
807.253	22.28
807.427	24.31
807.601	24.62
807.775	27.73
807.949	28.8
808.123	27.25
808.298	25.08
808.472	23.29
808.646	18.39
808.82	16.07
808.994	16.82
809.168	11.22
809.342	10.31
809.516	8.63
809.69	11.26
809.864	14.7
810.038	16.98
810.212	18.28
810.385	18.74
810.559	23.3
810.733	24.47
810.907	22.2
811.081	26.87
811.255	24.71
811.428	23.98
811.602	18.29
811.776	15.73
811.95	12.28
812.123	8.44
812.297	5.63
812.471	5.56
812.644	4.59
812.818	1.01
812.992	-3.26
813.165	0.18
813.339	-0.69
813.512	-2.68
813.686	-7.27
813.86	-3.52
814.033	6.6
814.207	4.39
814.38	3.27
814.554	11.01
814.727	19.03
814.9	23.46
815.074	24.9
815.247	27.88
815.421	30.07
815.594	31.43
815.767	29.49
815.941	21.21
816.114	27.3
816.287	29.29
816.46	20.53
816.634	13.61
816.807	13.62
816.98	3.6
817.153	-0.01
817.327	0.08
817.5	1.65
817.673	3.84
817.846	4.67
818.019	1.35
818.192	-4.58
818.365	2.38
818.538	9.35
818.711	8.08
818.884	13.67
819.057	14.53
819.23	18.14
819.403	20.63
819.576	20.99
819.749	22.76
819.922	22.16
820.095	24.09
820.268	22.88
820.441	21.88
820.614	20.89
820.786	23.57
820.959	20.87
821.132	17.07
821.305	17.48
821.477	18.06
821.65	16.24
821.823	16.36
821.996	14.74
822.168	14.98
822.341	14.84
822.514	16.1
822.686	15.88
822.859	16.5
823.031	17.22
823.204	17.04
823.376	16.56
823.549	17.52
823.722	18.02
823.894	18.36
824.067	18.75
824.239	18.39
824.411	17.83
824.584	17.53
824.756	18.22
824.929	17.37
825.101	17.8
825.273	17.86
825.446	17.93
825.618	16.04
825.79	16.77
825.963	16.54
826.135	16.67
826.307	16.12
826.479	14.79
826.652	14.43
826.824	13.64
826.996	12.18
827.168	12.71
827.34	12.04
827.512	15.19
827.684	16.68
827.856	17.17
828.029	18.83
828.201	19.64
828.373	20.64
828.545	20.62
828.717	23.82
828.889	24.01
829.061	24.32
829.232	24.02
829.404	22.31
829.576	21.51
829.748	21.58
829.92	20.49
830.092	22.18
830.264	21.52
830.436	20.64
830.607	18.01
830.779	21.27
830.951	21.25
831.123	17.66
831.294	15.99
831.466	16.71
831.638	17.58
831.809	15.12
831.981	12.04
832.153	13.85
832.324	16.25
832.496	19.06
832.667	16.96
832.839	14.25
833.011	20.59
833.182	19.08
833.354	15.52
833.525	15.31
833.697	17.98
833.868	19.56
834.039	18.8
834.211	18.4
834.382	16.32
834.554	18.22
834.725	18.19
834.896	17.16
835.068	18.99
835.239	21.19
835.41	20.11
835.581	17.65
835.753	17.18
835.924	16.72
836.095	12.2
836.266	14.11
836.438	12.24
836.609	16.65
836.78	17.31
836.951	17.42
837.122	15.16
837.293	10.9
837.464	15.72
837.635	14.1
837.806	14.51
837.977	19.72
838.148	20.81
838.319	18.53
838.49	7.83
838.661	12.95
838.832	12.88
839.003	7.23
839.174	14.06
839.345	13.32
839.516	11.88
839.687	15.99
839.857	15.86
840.028	5.48
840.199	14.62
840.37	20.11
840.54	14.58
840.711	6.3
840.882	19.84
841.053	22.84
841.223	24.65
841.394	25.48
841.564	16.53
841.735	10.76
841.906	21.21
842.076	4.44
842.247	-0.49
842.417	6.24
842.588	17.02
842.758	13.43
842.929	8.39
843.099	9.17
843.27	8.28
843.44	10.6
843.611	18.24
843.781	14.84
843.951	18.07
844.122	21.01
844.292	26.9
844.462	29.7
844.633	27.92
844.803	35.75
844.973	35.44
845.144	37.88
845.314	47.78
845.484	45.13
845.654	48.99
845.824	55.77
845.995	61.68
846.165	60.66
846.335	57.95
846.505	64.17
846.675	57.44
846.845	57.99
847.015	68.6
847.185	66.35
847.355	63.67
847.525	59.98
847.695	48.98
847.865	45.92
848.035	38.19
848.205	37.65
848.375	40.01
848.545	43.87
848.715	41.66
848.884	36.27
849.054	26.72
849.224	34.79
849.394	34.2
849.564	38.69
849.733	29.2
849.903	31.84
850.073	35.21
850.243	22.2
850.412	13.74
850.582	8.12
850.752	-14.06
850.921	-28.04
851.091	-35.85
851.26	-34.98
851.43	-43.52
851.599	-29.57
851.769	-28.08
851.939	-17.84
852.108	-4.87
852.278	-0.02
852.447	21.13
852.616	27.23
852.786	38.71
852.955	31.54
853.125	24.99
853.294	27.93
853.463	10.41
853.633	10.62
853.802	9.47
853.971	12.15
854.141	6.53
854.31	1.94
854.479	2.22
854.648	1.03
854.818	14.62
854.987	19.45
855.156	21.62
855.325	33.37
855.494	18.16
855.663	13.93
855.832	16.47
856.001	31.29
856.171	23.98
856.34	24.01
856.509	24.55
856.678	21.76
856.847	16.64
857.016	17.39
857.185	23.71
857.353	43.63
857.522	55.24
857.691	45.58
857.86	54.44
858.029	58.17
858.198	66.79
858.367	68.04
858.535	64.78
858.704	66.66
858.873	66.92
859.042	54.13
859.21	61.29
859.379	48.53
859.548	45.94
859.717	28.9
859.885	24.97
860.054	20.48
860.222	29.65
860.391	35.79
860.56	32.62
860.728	34.44
860.897	38.05
861.065	24.13
861.234	18
861.402	33.61
861.571	33.99
861.739	39.58
861.908	38.12
862.076	37.64
862.244	13.81
862.413	34.88
862.581	34.44
862.749	36.41
862.918	32.26
863.086	30.38
863.254	34
863.423	35.46
863.591	28.52
863.759	35.5
863.927	21.76
864.096	35.46
864.264	34.92
864.432	32.28
864.6	39.68
864.768	38.4
864.936	36.59
865.104	26.09
865.272	29.07
865.44	29.47
865.608	21.86
865.776	26.4
865.944	24.78
866.112	34.46
866.28	33.5
866.448	14
866.616	15.59
866.784	21.44
866.952	28.03
867.12	27.21
867.288	20.65
867.455	20.66
867.623	23.44
867.791	34.54
867.959	23.56
868.127	25.32
868.294	31.31
868.462	39.65
868.63	37.61
868.797	29.56
868.965	22.32
869.133	38.16
869.3	29.51
869.468	6.18
869.636	-9.24
869.803	-22.06
869.971	-7.28
870.138	5.26
870.306	3.09
870.473	-21.44
870.641	-21.98
870.808	-19.83
870.975	-14.3
871.143	-11.44
871.31	-3.58
871.478	-6.23
871.645	3.57
871.812	-7.54
871.98	-29.39
872.147	-42.34
872.314	-15.74
872.482	-14.75
872.649	-31.28
872.816	-25.79
872.983	-13.27
873.15	-17.71
873.318	-21.9
873.485	-36.75
873.652	-44.15
873.819	-13.89
873.986	10.44
874.153	21.91
874.32	-5.5
874.487	5.13
874.654	10.44
874.821	9.1
874.988	19.53
875.155	-2.31
875.322	13.29
875.489	7.54
875.656	0.57
875.823	-2.75
875.99	-0.84
876.157	20.83
876.324	30.89
876.49	40.04
876.657	39.54
876.824	35.72
876.991	35
877.157	30.82
877.324	40.25
877.491	50.71
877.658	56.09
877.824	60.08
877.991	48.25
878.157	38.94
878.324	8.05
878.491	3.21
878.657	-1.56
878.824	10.74
878.99	16.26
879.157	6.73
879.323	-8.44
879.49	-11.18
879.656	-11.71
879.823	-16.35
879.989	-11.42
880.156	5.04
880.322	5.49
880.488	24.41
880.655	21.18
880.821	22.34
880.987	26.34
881.154	29.4
881.32	24.59
881.486	28.46
881.652	31.16
881.819	30.84
881.985	31.7
882.151	33.56
882.317	27.48
882.483	30.46
882.649	28.67
882.816	27.26
882.982	29.57
883.148	31.5
883.314	29.65
883.48	27.96
883.646	22.23
883.812	17.76
883.978	16.61
884.144	16.58
884.31	15.13
884.476	14.42
884.642	12.96
884.807	11.62
884.973	5.86
885.139	8.8
885.305	7.76
885.471	10.73
885.637	12.02
885.802	14.24
885.968	14.76
886.134	16.42
886.3	18.01
886.465	20.68
886.631	20.26
886.797	31.78
886.962	25.17
887.128	27.67
887.293	27.59
887.459	37.09
887.625	35.35
887.79	35.98
887.956	31.28
888.121	29.07
888.287	31.38
888.452	33.32
888.618	21.4
888.783	29.42
