Data from 2938038_Reflection_2.txt Node
Date: Sun Jul 12 14:44:15 EDT 2015
User: robert
Spectrometer: USB4E03001
Autoset integration time: false
Trigger mode: 4
Integration Time (sec): 1.000000E-1
Scans to average: 10
Electric dark correction enabled: true
Nonlinearity correction enabled: false
Boxcar width: 5
Stray light correction enabled: false
XAxis mode: Wavelengths
Stop averaging: false
Number of Pixels in Spectrum: 3648
>>>>>Begin Spectral Data<<<<<
177.566	104.67
177.785	132.21
178.005	-378
178.225	28.45
178.445	-35.47
178.665	13.14
178.885	91.96
179.105	-239.53
179.324	234.2
179.544	1667.89
179.764	-85.9
179.984	-197.92
180.204	-103.98
180.423	-469.47
180.643	228.46
180.863	116.76
181.083	104.71
181.302	187.65
181.522	233.01
181.742	170.81
181.961	138.61
182.181	112.83
182.401	83.21
182.621	69.85
182.84	84.96
183.06	75.38
183.279	107.23
183.499	109.53
183.719	86.92
183.938	66.47
184.158	57.07
184.377	72.11
184.597	71.43
184.816	48.15
185.036	64.03
185.256	71.58
185.475	111.77
185.695	-15.59
185.914	4.57
186.134	7.1
186.353	14.37
186.572	32.79
186.792	11.16
187.011	57
187.231	97.77
187.45	206.51
187.67	140.5
187.889	160.64
188.108	130.91
188.328	140.21
188.547	169.93
188.766	173.91
188.986	193.79
189.205	165.81
189.424	126.4
189.644	139.05
189.863	95.57
190.082	85.76
190.302	99.62
190.521	109.94
190.74	90.11
190.959	76.98
191.178	44.68
191.398	55.02
191.617	42.76
191.836	81.52
192.055	92.3
192.274	76.74
192.494	64.73
192.713	42.89
192.932	40.91
193.151	66.12
193.37	110.04
193.589	94.63
193.808	92.01
194.027	82.88
194.246	90.71
194.465	80.28
194.685	92.71
194.904	105.2
195.123	101.4
195.342	99.75
195.561	99.89
195.78	83.42
195.999	158.4
196.218	154.16
196.436	230.67
196.655	508.89
196.874	709.56
197.093	135.2
197.312	119.95
197.531	108.69
197.75	109.88
197.969	101.32
198.188	84.78
198.407	49.79
198.625	23.78
198.844	-9.82
199.063	-4.79
199.282	11.4
199.501	-8.32
199.719	41.02
199.938	57.92
200.157	45.01
200.376	42.95
200.594	62.83
200.813	55.39
201.032	68.38
201.251	86.72
201.469	90.66
201.688	56.75
201.907	71.49
202.125	0.97
202.344	-265.79
202.563	89.67
202.781	312.14
203	245.1
203.218	234.26
203.437	148.36
203.656	107.6
203.874	148.1
204.093	168.56
204.311	155.89
204.53	153.03
204.748	160.92
204.967	260.2
205.185	154.76
205.404	161.63
205.622	116.02
205.841	88.31
206.059	95.58
206.278	71.05
206.496	94.09
206.715	125.16
206.933	134.6
207.151	129.08
207.37	113.55
207.588	92.17
207.806	102.35
208.025	80.44
208.243	120.7
208.461	128.75
208.68	125.59
208.898	126.16
209.116	113.58
209.335	136.08
209.553	100.61
209.771	146.78
209.989	280.53
210.208	551.83
210.426	585.19
210.644	247.86
210.862	542.23
211.081	181.2
211.299	153.63
211.517	152.58
211.735	165.38
211.953	129.95
212.171	68.66
212.39	25.93
212.608	48.55
212.826	59.8
213.044	64.51
213.262	79.73
213.48	101.31
213.698	67.37
213.916	99.4
214.134	104.92
214.352	104.53
214.57	102.24
214.788	119.57
215.006	130.44
215.224	108.35
215.442	99.02
215.66	86.44
215.878	104.77
216.096	121.07
216.314	110.45
216.532	96.27
216.75	100.75
216.968	101.44
217.185	82.65
217.403	76.81
217.621	87.53
217.839	75.07
218.057	77.23
218.275	54.02
218.492	30.79
218.71	26.09
218.928	22.15
219.146	20.23
219.363	29.54
219.581	37
219.799	64.28
220.017	62.14
220.234	68.65
220.452	61.26
220.67	72.95
220.887	75.86
221.105	63.44
221.323	56.33
221.54	65.3
221.758	59.46
221.976	60.21
222.193	38.82
222.411	33.93
222.629	41.01
222.846	52.64
223.064	23.46
223.281	37.83
223.499	44.81
223.716	63.7
223.934	63.71
224.151	41.73
224.369	61.37
224.586	58.27
224.804	42.38
225.021	25.59
225.239	-3.62
225.456	39.07
225.674	17.86
225.891	36.56
226.108	17.43
226.326	15.76
226.543	32.16
226.76	24.12
226.978	12.89
227.195	12.37
227.413	11.87
227.63	14.63
227.847	9.98
228.064	12.87
228.282	12.59
228.499	13.55
228.716	8.26
228.934	6.77
229.151	5.82
229.368	7.35
229.585	10.89
229.802	10.68
230.02	10.8
230.237	8.83
230.454	10.15
230.671	8.86
230.888	6.24
231.105	6.95
231.323	5.04
231.54	2.9
231.757	5.28
231.974	7.2
232.191	7.26
232.408	12.02
232.625	12.65
232.842	9.79
233.059	6.47
233.276	14.45
233.493	20.43
233.71	23.32
233.927	33.94
234.144	36.33
234.361	31.8
234.578	31.47
234.795	27.15
235.012	29.8
235.229	31.92
235.446	33.76
235.663	25.67
235.879	27.59
236.096	26.72
236.313	20.47
236.53	16.59
236.747	15.47
236.964	16.85
237.181	17.69
237.397	16.29
237.614	17.46
237.831	18.8
238.048	24.09
238.264	24.96
238.481	26.44
238.698	29.09
238.915	34.39
239.131	29.7
239.348	34.07
239.565	36.75
239.781	42.23
239.998	36.53
240.215	36.23
240.431	31.99
240.648	25.57
240.865	22
241.081	18.98
241.298	13.17
241.514	13.49
241.731	10.43
241.947	10.4
242.164	7.19
242.38	8.88
242.597	6.44
242.814	6.46
243.03	6.69
243.246	9.29
243.463	10.16
243.679	13.01
243.896	14.16
244.112	15.66
244.329	14.94
244.545	15.6
244.762	16.37
244.978	19.16
245.194	19.83
245.411	21.77
245.627	20.06
245.843	21.5
246.06	19.62
246.276	19.09
246.492	17.34
246.709	16.87
246.925	15.43
247.141	15.13
247.357	14.51
247.574	14.56
247.79	13.34
248.006	13.87
248.222	12.26
248.439	11.65
248.655	11.03
248.871	10.66
249.087	10.1
249.303	10.02
249.519	7.57
249.736	7.43
249.952	6.32
250.168	6.94
250.384	3.42
250.6	4.13
250.816	5.37
251.032	6.78
251.248	6.51
251.464	6.5
251.68	10.77
251.896	13.45
252.112	12.89
252.328	12.54
252.544	11.63
252.76	12.4
252.976	13.53
253.192	13.32
253.408	13.2
253.624	13.86
253.84	14.91
254.056	13.15
254.272	11.93
254.487	12.01
254.703	13.88
254.919	14.72
255.135	15.8
255.351	14.1
255.567	13.08
255.782	11.82
255.998	12.03
256.214	9.54
256.43	8.11
256.646	9.71
256.861	10.1
257.077	9.28
257.293	9.4
257.508	7.61
257.724	7.46
257.94	8.13
258.155	7.62
258.371	8.75
258.587	11.19
258.802	11.82
259.018	11.32
259.234	11.44
259.449	11.32
259.665	11.29
259.88	11.44
260.096	11.05
260.312	10.31
260.527	10.46
260.743	9.24
260.958	8.03
261.174	8.2
261.389	8.31
261.605	7.6
261.82	6.93
262.036	6.51
262.251	7.06
262.466	6.81
262.682	7.3
262.897	5.67
263.113	8.47
263.328	7.54
263.543	7.47
263.759	7.75
263.974	9.46
264.189	10.74
264.405	8.37
264.62	7.18
264.835	8.54
265.051	7.79
265.266	9.65
265.481	8.92
265.696	10.44
265.912	8.61
266.127	6.51
266.342	6.12
266.557	6.2
266.773	8.06
266.988	8.81
267.203	7.19
267.418	7.97
267.633	9.32
267.848	8.35
268.064	7.94
268.279	7.55
268.494	8.75
268.709	8.96
268.924	8.73
269.139	8.06
269.354	6.91
269.569	8.43
269.784	7.75
269.999	7.19
270.214	7.44
270.429	8.5
270.644	9.81
270.859	8.75
271.074	7.43
271.289	7.42
271.504	8.27
271.719	9.37
271.934	9.7
272.149	10.14
272.363	9.77
272.578	8.99
272.793	9.35
273.008	8.91
273.223	10.22
273.438	9.88
273.653	9.34
273.867	9.77
274.082	9.04
274.297	9.74
274.512	9.03
274.726	8.86
274.941	11.11
275.156	10.41
275.371	10.26
275.585	7.97
275.8	9.62
276.015	9.23
276.229	9.38
276.444	9.7
276.659	8.07
276.873	11.23
277.088	11.33
277.302	10.22
277.517	8.74
277.732	8.64
277.946	10.51
278.161	10.09
278.375	11.99
278.59	10.38
278.804	10.68
279.019	8.98
279.233	6.72
279.448	6.96
279.662	6.22
279.877	7.95
280.091	9.2
280.306	9.63
280.52	8.02
280.735	6.71
280.949	8.83
281.163	8
281.378	7.93
281.592	7.78
281.806	7.56
282.021	8.67
282.235	7.62
282.449	7.35
282.664	8.12
282.878	9.15
283.092	9.31
283.307	9.9
283.521	8.87
283.735	10.04
283.949	10.06
284.164	9.63
284.378	8.07
284.592	9.04
284.806	8.05
285.02	6.68
285.234	7
285.449	7.93
285.663	6
285.877	7.13
286.091	7.08
286.305	7.26
286.519	7.33
286.733	7.26
286.947	6.91
287.161	8.06
287.375	7.88
287.589	7.89
287.803	7.45
288.017	8.31
288.231	8.14
288.445	8.39
288.659	7.56
288.873	8.08
289.087	9.22
289.301	9.65
289.515	9.55
289.729	9.83
289.943	10.83
290.157	11.84
290.371	10.58
290.584	11.25
290.798	10.66
291.012	12.91
291.226	13.47
291.44	14.08
291.654	13.94
291.867	14.98
292.081	14.82
292.295	13.31
292.509	11.26
292.722	12.62
292.936	12.26
293.15	12.6
293.364	10.43
293.577	10.56
293.791	9.11
294.005	10.11
294.218	9.83
294.432	10.29
294.645	11.13
294.859	11.9
295.073	12.15
295.286	11.62
295.5	11.66
295.713	12.66
295.927	12.09
296.14	11.56
296.354	10.27
296.568	8.85
296.781	8.72
296.994	9.39
297.208	8.94
297.421	9.75
297.635	11.19
297.848	11.63
298.062	11.85
298.275	11.84
298.489	12.22
298.702	12.71
298.915	14.11
299.129	15.07
299.342	14.19
299.555	14.96
299.769	14.35
299.982	12.19
300.195	11.68
300.409	11.03
300.622	11.77
300.835	12.13
301.048	12.4
301.262	12.31
301.475	12.95
301.688	14.56
301.901	14.09
302.115	14.12
302.328	15.55
302.541	15.02
302.754	14.21
302.967	14.11
303.18	15.58
303.393	17.33
303.607	17.47
303.82	14.7
304.033	14.26
304.246	13.34
304.459	13.64
304.672	13
304.885	15.04
305.098	16.76
305.311	15.88
305.524	14.72
305.737	13.13
305.95	11.66
306.163	14.71
306.376	12.78
306.589	14.61
306.802	13.7
307.015	13.47
307.228	12.7
307.44	12.16
307.653	13.56
307.866	14.47
308.079	13.85
308.292	15.42
308.505	13.05
308.718	13.17
308.93	12.94
309.143	13.79
309.356	14.37
309.569	13.49
309.781	12
309.994	11.92
310.207	11.31
310.42	11.11
310.632	11.04
310.845	12.45
311.058	12.93
311.27	13.14
311.483	13.13
311.696	11.9
311.908	12.87
312.121	12.63
312.333	11.35
312.546	11.15
312.759	11.11
312.971	10.11
313.184	10.85
313.396	11.31
313.609	10.01
313.821	9.08
314.034	10.23
314.246	9.99
314.459	10.85
314.671	12.36
314.884	13.79
315.096	15.23
315.309	14.74
315.521	13.04
315.733	13.52
315.946	14.65
316.158	15.49
316.371	16.28
316.583	16.7
316.795	18.03
317.008	17.7
317.22	16.99
317.432	15.83
317.644	16.62
317.857	16.62
318.069	16.92
318.281	17.22
318.494	17.81
318.706	17.03
318.918	17.06
319.13	16.38
319.342	17.02
319.555	16.97
319.767	18
319.979	18.71
320.191	20.94
320.403	20.49
320.615	20.39
320.827	19.69
321.039	19.71
321.252	18.71
321.464	19.09
321.676	18.8
321.888	17.84
322.1	17.89
322.312	15.75
322.524	15.28
322.736	15.46
322.948	15.52
323.16	15.75
323.372	15.9
323.584	16.51
323.796	16.3
324.007	16.17
324.219	17.19
324.431	17.3
324.643	18.03
324.855	16.31
325.067	16.2
325.279	15.18
325.491	15.4
325.702	15.47
325.914	16.2
326.126	16.38
326.338	15.75
326.55	13.64
326.761	13.15
326.973	13.79
327.185	15.06
327.396	14.8
327.608	14.8
327.82	14.39
328.032	13.12
328.243	11.69
328.455	11.54
328.666	10.62
328.878	13.86
329.09	12.86
329.301	12.09
329.513	11.77
329.725	12.04
329.936	13.54
330.148	12.72
330.359	14.69
330.571	14.64
330.782	14.58
330.994	15.09
331.205	13.35
331.417	12.28
331.628	14.19
331.84	14.15
332.051	13.07
332.262	12.98
332.474	12.69
332.685	11
332.897	12.08
333.108	11.07
333.319	11.45
333.531	11.75
333.742	13.63
333.953	14.14
334.165	13.01
334.376	13.97
334.587	14.12
334.799	14.9
335.01	15.85
335.221	14.95
335.432	16.06
335.644	17.51
335.855	17.83
336.066	16.75
336.277	14.79
336.488	14.6
336.7	14.39
336.911	14.41
337.122	13.92
337.333	13.34
337.544	14.18
337.755	14
337.966	13.67
338.177	13.38
338.388	14.16
338.599	15.34
338.811	16.46
339.022	16.74
339.233	17.47
339.444	17.84
339.655	18.77
339.866	16.76
340.076	16.91
340.287	15.89
340.498	16.38
340.709	17.05
340.92	17.29
341.131	17.58
341.342	17.89
341.553	16.73
341.764	17.34
341.975	16.17
342.185	17.27
342.396	17.12
342.607	18.4
342.818	16.53
343.029	15.87
343.239	15.4
343.45	14.17
343.661	14.6
343.872	13.92
344.082	13.05
344.293	14.63
344.504	14.09
344.714	13.24
344.925	13.05
345.136	14
345.346	14.8
345.557	14.9
345.768	16.2
345.978	15.44
346.189	15.99
346.399	15.86
346.61	16.2
346.821	16.94
347.031	17.86
347.242	17.09
347.452	17.68
347.663	16.05
347.873	16.26
348.084	15.4
348.294	15.27
348.504	15.24
348.715	16.58
348.925	16.7
349.136	16.85
349.346	17.35
349.557	18.78
349.767	19.11
349.977	19.49
350.188	19.39
350.398	20.01
350.608	20.68
350.819	20.89
351.029	19.59
351.239	18.79
351.449	18.77
351.66	18.7
351.87	16.88
352.08	16.29
352.29	17.26
352.501	16.7
352.711	15.95
352.921	14.39
353.131	14.6
353.341	14.68
353.552	14.68
353.762	14.63
353.972	14.27
354.182	14.49
354.392	13.55
354.602	13.41
354.812	13.53
355.022	14.24
355.232	15.52
355.442	15.75
355.652	16.19
355.862	16.4
356.072	16.75
356.282	16.68
356.492	16.67
356.702	17.56
356.912	17.52
357.122	17.81
357.332	17.94
357.542	17.33
357.752	16.9
357.962	16.48
358.171	15.74
358.381	15.6
358.591	15.62
358.801	16.35
359.011	16.55
359.221	16.55
359.43	16.74
359.64	16.46
359.85	16.44
360.06	17.38
360.269	17.75
360.479	17.65
360.689	16.38
360.899	15.46
361.108	14.41
361.318	13.66
361.528	13.99
361.737	13.56
361.947	13.44
362.156	13.14
362.366	12.15
362.576	12.48
362.785	12.85
362.995	13.98
363.204	14.49
363.414	15.56
363.623	15.91
363.833	15.5
364.042	14.52
364.252	14.59
364.461	15.25
364.671	15.56
364.88	15.21
365.09	14.94
365.299	15.18
365.509	15.31
365.718	14.61
365.927	13.97
366.137	13.97
366.346	15.42
366.555	15.06
366.765	14.33
366.974	13.67
367.183	13.59
367.393	13.74
367.602	12.1
367.811	11.83
368.021	12.17
368.23	12.81
368.439	12.37
368.648	11.24
368.857	10.8
369.067	11
369.276	11.43
369.485	10.84
369.694	10.77
369.903	11.61
370.112	11.53
370.321	11.37
370.531	11.61
370.74	11.81
370.949	11.75
371.158	11.94
371.367	11.69
371.576	11.78
371.785	12.46
371.994	12.06
372.203	12.57
372.412	12.79
372.621	12.73
372.83	12.48
373.039	12.81
373.248	12.61
373.457	12.49
373.666	12.81
373.874	12.81
374.083	11.49
374.292	12.48
374.501	12.71
374.71	12.26
374.919	12
375.128	11.63
375.336	10.67
375.545	11.9
375.754	11.77
375.963	11.42
376.171	10.94
376.38	11.43
376.589	10.42
376.798	9.97
377.006	10.47
377.215	11.04
377.424	11.26
377.632	11.24
377.841	10.76
378.05	10.89
378.258	11.12
378.467	11.39
378.675	11.36
378.884	11.75
379.093	11.28
379.301	11.13
379.51	10.18
379.718	9.94
379.927	9.83
380.135	9.71
380.344	9.7
380.552	9.71
380.761	9.5
380.969	9.78
381.177	9.54
381.386	9.17
381.594	9.49
381.803	9.6
382.011	9.81
382.219	10.95
382.428	10.48
382.636	10.55
382.845	10.74
383.053	10.96
383.261	10.84
383.469	11.33
383.678	11.13
383.886	10.61
384.094	10.65
384.302	10.75
384.511	10.04
384.719	10.27
384.927	9.78
385.135	9.32
385.343	9.13
385.552	9.1
385.76	8.66
385.968	8.74
386.176	8.62
386.384	8.42
386.592	8.49
386.8	8.52
387.008	8.63
387.216	8.94
387.424	8.86
387.633	8.48
387.841	8.66
388.049	9.15
388.257	9.16
388.465	8.9
388.672	9.35
388.88	9.47
389.088	9.37
389.296	9.19
389.504	8.83
389.712	9.02
389.92	9.07
390.128	8.7
390.336	7.85
390.544	8.06
390.751	8.32
390.959	8.08
391.167	7.66
391.375	7.62
391.583	7.51
391.79	7.44
391.998	7.23
392.206	7.2
392.414	7.15
392.621	7.03
392.829	6.82
393.037	6.7
393.244	6.46
393.452	6.43
393.66	6.78
393.867	6.42
394.075	6.71
394.283	6.73
394.49	6.94
394.698	6.75
394.905	6.91
395.113	7.06
395.32	7.05
395.528	7.16
395.735	7.33
395.943	7.01
396.15	7.18
396.358	6.87
396.565	6.86
396.773	6.49
396.98	6.51
397.188	6.6
397.395	6.63
397.602	6.8
397.81	6.96
398.017	6.51
398.225	6.25
398.432	6.45
398.639	6.84
398.847	6.88
399.054	6.93
399.261	6.73
399.468	6.53
399.676	6.3
399.883	6.26
400.09	6.41
400.297	7.01
400.505	6.67
400.712	6.43
400.919	6.01
401.126	6.05
401.333	5.63
401.54	5.78
401.748	5.8
401.955	5.98
402.162	6.16
402.369	5.58
402.576	5.05
402.783	5.36
402.99	5.29
403.197	5.73
403.404	5.57
403.611	5.95
403.818	5.69
404.025	5.84
404.232	5.62
404.439	5.16
404.646	5.29
404.853	5.32
405.06	5.36
405.267	5.56
405.474	5.57
405.681	5.68
405.887	5.64
406.094	6.04
406.301	6.04
406.508	5.96
406.715	6.17
406.922	6.02
407.128	5.87
407.335	5.8
407.542	5.58
407.749	5.26
407.955	5.06
408.162	4.82
408.369	4.89
408.575	4.88
408.782	4.99
408.989	5.17
409.195	5.28
409.402	5.27
409.609	5.46
409.815	5.59
410.022	5.53
410.228	5.88
410.435	6.17
410.642	6.22
410.848	6.37
411.055	6.48
411.261	6.05
411.468	6.2
411.674	6.37
411.881	6.2
412.087	6.28
412.294	6.39
412.5	5.87
412.706	5.75
412.913	5.44
413.119	5.28
413.326	5.24
413.532	5.11
413.738	5.09
413.945	4.76
414.151	4.71
414.357	4.61
414.564	4.55
414.77	4.91
414.976	5.05
415.182	5.43
415.389	5.2
415.595	5.24
415.801	5.41
416.007	5.21
416.214	5.42
416.42	5.53
416.626	5.53
416.832	5.56
417.038	5.41
417.244	5.66
417.45	5.39
417.657	5.31
417.863	5.13
418.069	5.12
418.275	5.19
418.481	5.2
418.687	5.05
418.893	4.94
419.099	4.77
419.305	4.72
419.511	4.6
419.717	4.54
419.923	4.71
420.129	4.76
420.335	4.63
420.541	4.56
420.746	4.53
420.952	4.56
421.158	4.76
421.364	4.86
421.57	4.97
421.776	4.83
421.982	4.85
422.187	4.98
422.393	5.04
422.599	5.08
422.805	5.08
423.01	5.01
423.216	5
423.422	4.87
423.628	4.76
423.833	4.61
424.039	4.59
424.245	4.57
424.45	4.31
424.656	4.37
424.862	4.41
425.067	4.39
425.273	4.53
425.478	4.51
425.684	4.36
425.889	4.48
426.095	4.58
426.301	4.66
426.506	4.57
426.712	4.61
426.917	4.35
427.123	4.4
427.328	4.49
427.533	4.42
427.739	4.33
427.944	4.58
428.15	4.51
428.355	4.26
428.561	4.33
428.766	4.47
428.971	4.42
429.177	4.37
429.382	4.39
429.587	4.37
429.793	4.42
429.998	4.48
430.203	4.57
430.408	4.63
430.614	4.81
430.819	4.62
431.024	4.73
431.229	4.91
431.434	5.07
431.64	4.95
431.845	5.08
432.05	4.77
432.255	4.88
432.46	4.75
432.665	4.86
432.87	4.8
433.076	4.79
433.281	4.8
433.486	4.56
433.691	4.51
433.896	4.69
434.101	4.58
434.306	4.82
434.511	4.99
434.716	4.85
434.921	4.78
435.126	4.99
435.331	5.12
435.535	4.85
435.74	5.11
435.945	5.02
436.15	4.93
436.355	5.01
436.56	4.91
436.765	4.71
436.97	4.84
437.174	4.72
437.379	4.62
437.584	4.52
437.789	4.6
437.993	4.43
438.198	4.47
438.403	4.48
438.608	4.22
438.812	4.18
439.017	4.22
439.222	4.34
439.426	4.32
439.631	4.24
439.836	4.38
440.04	4.37
440.245	4.42
440.45	4.56
440.654	4.41
440.859	4.54
441.063	4.61
441.268	4.54
441.472	4.4
441.677	4.39
441.881	4.4
442.086	4.24
442.29	4.34
442.495	4.33
442.699	4.22
442.904	4.14
443.108	4.23
443.312	4.17
443.517	4.2
443.721	4.37
443.925	4.43
444.13	4.51
444.334	4.6
444.538	4.67
444.743	4.67
444.947	4.73
445.151	4.81
445.356	4.61
445.56	4.56
445.764	4.52
445.968	4.35
446.173	4.43
446.377	4.41
446.581	4.3
446.785	4.21
446.989	4.1
447.193	3.99
447.398	3.95
447.602	4.04
447.806	4.18
448.01	4.23
448.214	4.27
448.418	4.22
448.622	4.07
448.826	4.12
449.03	4.05
449.234	4.29
449.438	4.29
449.642	4.33
449.846	4.2
450.05	4.05
450.254	3.95
450.458	3.88
450.662	3.82
450.866	3.8
451.069	3.91
451.273	3.9
451.477	3.6
451.681	3.72
451.885	3.79
452.089	4.08
452.292	4.19
452.496	4.23
452.7	4.11
452.904	4.09
453.107	4.21
453.311	4.27
453.515	4.39
453.719	4.68
453.922	4.75
454.126	4.68
454.33	4.47
454.533	4.34
454.737	4.24
454.94	4.39
455.144	4.47
455.348	4.47
455.551	4.42
455.755	4.29
455.958	4.37
456.162	4.37
456.365	4.45
456.569	4.44
456.772	4.58
456.976	4.69
457.179	4.68
457.383	4.55
457.586	4.36
457.79	4.26
457.993	4.29
458.196	4.16
458.4	4.06
458.603	4.08
458.807	4.13
459.01	3.91
459.213	3.8
459.417	3.94
459.62	4.04
459.823	4.05
460.026	4.12
460.23	4.2
460.433	4.24
460.636	4.22
460.839	4.2
461.042	4.18
461.246	4.29
461.449	4.36
461.652	4.25
461.855	4.11
462.058	4.36
462.261	4.26
462.464	4.24
462.668	4.18
462.871	4.19
463.074	4.13
463.277	4.17
463.48	4.15
463.683	4.16
463.886	4.07
464.089	4.15
464.292	4.01
464.495	4.1
464.698	4.21
464.901	4.18
465.104	4.36
465.306	4.65
465.509	4.61
465.712	4.66
465.915	4.68
466.118	4.77
466.321	4.68
466.524	4.62
466.726	4.77
466.929	4.7
467.132	4.58
467.335	4.46
467.538	4.4
467.74	4.46
467.943	4.57
468.146	4.62
468.348	4.52
468.551	4.53
468.754	4.63
468.956	4.45
469.159	4.45
469.362	4.53
469.564	4.44
469.767	4.44
469.969	4.24
470.172	4.18
470.375	4.21
470.577	4.42
470.78	4.49
470.982	4.47
471.185	4.61
471.387	4.4
471.59	4.37
471.792	4.51
471.995	4.31
472.197	4.3
472.399	4.2
472.602	4.22
472.804	4.11
473.007	4.12
473.209	4.04
473.411	3.82
473.614	3.81
473.816	3.86
474.018	3.66
474.22	3.73
474.423	3.87
474.625	3.98
474.827	4.01
475.03	4.13
475.232	4.08
475.434	4.02
475.636	3.97
475.838	4.05
476.04	4.05
476.243	4.24
476.445	4.19
476.647	4.26
476.849	4.06
477.051	4.07
477.253	3.91
477.455	3.88
477.657	4.1
477.859	4.21
478.061	4.38
478.263	4.49
478.465	4.47
478.667	4.52
478.869	4.48
479.071	4.62
479.273	4.3
479.475	4.2
479.677	4.42
479.879	4.43
480.081	4.51
480.283	4.42
480.485	4.29
480.686	4.27
480.888	4.29
481.09	4.19
481.292	4.17
481.494	4.28
481.695	4.37
481.897	4.33
482.099	4.15
482.301	3.96
482.502	3.93
482.704	4
482.906	3.96
483.107	3.92
483.309	3.87
483.511	3.85
483.712	3.8
483.914	3.81
484.115	3.81
484.317	3.81
484.519	3.89
484.72	3.88
484.922	3.87
485.123	3.81
485.325	3.8
485.526	3.86
485.728	3.86
485.929	3.97
486.131	4.01
486.332	3.97
486.534	4.06
486.735	4.01
486.936	4
487.138	3.96
487.339	4
487.541	3.96
487.742	3.96
487.943	3.99
488.144	4
488.346	3.92
488.547	3.89
488.748	3.82
488.95	3.86
489.151	3.88
489.352	3.87
489.553	3.95
489.755	4.11
489.956	4.12
490.157	4.1
490.358	4.07
490.559	4.16
490.76	4.24
490.961	4.26
491.163	4.27
491.364	4.28
491.565	4.25
491.766	4.21
491.967	4.16
492.168	4.13
492.369	4.12
492.57	4.05
492.771	3.95
492.972	3.95
493.173	4.01
493.374	4
493.575	4.03
493.776	4.02
493.976	3.98
494.177	4.07
494.378	4.18
494.579	4.32
494.78	4.44
494.981	4.47
495.182	4.45
495.382	4.45
495.583	4.45
495.784	4.5
495.985	4.58
496.185	4.68
496.386	4.49
496.587	4.54
496.788	4.45
496.988	4.52
497.189	4.64
497.39	4.62
497.59	4.56
497.791	4.57
497.992	4.6
498.192	4.63
498.393	4.61
498.593	4.77
498.794	4.7
498.994	4.89
499.195	4.78
499.395	4.77
499.596	4.81
499.796	4.72
499.997	4.76
500.197	4.65
500.398	4.64
500.598	4.5
500.799	4.33
500.999	4.24
501.199	4.03
501.4	4.14
501.6	4.28
501.801	4.18
502.001	4.2
502.201	4.19
502.402	4.16
502.602	4.12
502.802	4.14
503.002	4.33
503.203	4.32
503.403	4.48
503.603	4.3
503.803	4.23
504.003	4.42
504.204	4.56
504.404	4.52
504.604	4.45
504.804	4.55
505.004	4.58
505.204	4.61
505.404	4.8
505.604	4.68
505.804	4.69
506.005	4.56
506.205	4.48
506.405	4.37
506.605	4.49
506.805	4.47
507.005	4.37
507.204	4.32
507.404	4.28
507.604	4.22
507.804	4.19
508.004	4.18
508.204	4.24
508.404	4.2
508.604	4.29
508.804	4.23
509.003	4.38
509.203	4.57
509.403	4.73
509.603	4.67
509.803	4.7
510.002	4.82
510.202	4.96
510.402	4.97
510.602	4.87
510.801	4.88
511.001	4.84
511.201	4.78
511.4	4.66
511.6	4.56
511.8	4.63
511.999	4.56
512.199	4.42
512.398	4.36
512.598	4.37
512.797	4.49
512.997	4.5
513.197	4.57
513.396	4.53
513.596	4.53
513.795	4.68
513.994	4.49
514.194	4.54
514.393	4.59
514.593	4.61
514.792	4.54
514.992	4.63
515.191	4.57
515.39	4.55
515.59	4.63
515.789	4.55
515.988	4.52
516.188	4.67
516.387	4.68
516.586	4.73
516.786	4.8
516.985	4.9
517.184	4.82
517.383	5.09
517.582	5.03
517.782	4.9
517.981	4.97
518.18	5.11
518.379	5.05
518.578	5.05
518.777	5.07
518.976	5.09
519.176	5.12
519.375	5.14
519.574	5.01
519.773	5.03
519.972	5.25
520.171	5.41
520.37	5.24
520.569	5.33
520.768	5.28
520.967	5.28
521.166	5.28
521.365	5.28
521.564	5.27
521.762	5.23
521.961	5.41
522.16	5.33
522.359	5.29
522.558	5.45
522.757	5.41
522.956	5.44
523.154	5.41
523.353	5.37
523.552	5.35
523.751	5.43
523.949	5.49
524.148	5.2
524.347	5.27
524.546	5.16
524.744	5
524.943	4.94
525.142	5
525.34	5.11
525.539	5.2
525.737	5.28
525.936	5.25
526.135	5.34
526.333	5.49
526.532	5.44
526.73	5.45
526.929	5.52
527.127	5.62
527.326	5.61
527.524	5.63
527.723	5.54
527.921	5.54
528.12	5.49
528.318	5.45
528.516	5.45
528.715	5.45
528.913	5.47
529.112	5.42
529.31	5.47
529.508	5.48
529.707	5.47
529.905	5.46
530.103	5.4
530.301	5.48
530.5	5.45
530.698	5.45
530.896	5.45
531.094	5.5
531.293	5.55
531.491	5.49
531.689	5.54
531.887	5.51
532.085	5.63
532.283	5.73
532.481	5.69
532.68	5.7
532.878	5.7
533.076	5.66
533.274	5.57
533.472	5.69
533.67	5.61
533.868	5.58
534.066	5.59
534.264	5.59
534.462	5.52
534.66	5.57
534.858	5.63
535.056	5.78
535.253	5.87
535.451	6.01
535.649	5.94
535.847	6.08
536.045	6.01
536.243	5.98
536.441	5.89
536.638	5.95
536.836	5.88
537.034	5.81
537.232	5.66
537.43	5.71
537.627	5.64
537.825	5.71
538.023	5.69
538.22	5.84
538.418	6
538.616	6.05
538.813	5.99
539.011	6.12
539.209	6.09
539.406	6.29
539.604	6.31
539.801	6.38
539.999	6.44
540.196	6.46
540.394	6.46
540.591	6.47
540.789	6.57
540.986	6.69
541.184	6.65
541.381	6.73
541.579	6.62
541.776	6.59
541.974	6.59
542.171	6.55
542.368	6.55
542.566	6.61
542.763	6.52
542.96	6.48
543.158	6.52
543.355	6.65
543.552	6.73
543.75	6.9
543.947	6.98
544.144	7.06
544.341	7.12
544.539	7.16
544.736	7.24
544.933	7.4
545.13	7.5
545.327	7.51
545.524	7.43
545.722	7.42
545.919	7.31
546.116	7.43
546.313	7.43
546.51	7.48
546.707	7.53
546.904	7.51
547.101	7.52
547.298	7.59
547.495	7.6
547.692	7.64
547.889	7.64
548.086	7.69
548.283	7.69
548.48	7.68
548.677	7.67
548.874	7.68
549.07	7.7
549.267	7.87
549.464	7.92
549.661	8.08
549.858	8.02
550.055	8
550.251	8.08
550.448	7.92
550.645	7.89
550.842	7.79
551.038	7.95
551.235	7.83
551.432	7.71
551.628	7.79
551.825	7.85
552.022	8
552.218	8.09
552.415	8.11
552.612	8.48
552.808	8.71
553.005	8.95
553.201	8.97
553.398	9.18
553.594	9.35
553.791	9.24
553.987	9.2
554.184	9.3
554.38	9.46
554.577	9.56
554.773	9.44
554.97	9.47
555.166	9.52
555.362	9.54
555.559	9.51
555.755	9.43
555.952	9.72
556.148	9.9
556.344	10.03
556.541	10.03
556.737	10.02
556.933	10.16
557.129	10.31
557.326	10.18
557.522	10.34
557.718	10.22
557.914	10.34
558.11	10.17
558.307	10.04
558.503	10.1
558.699	10.08
558.895	10.31
559.091	10.1
559.287	10.1
559.483	10.24
559.679	10.21
559.876	10.59
560.072	10.77
560.268	10.81
560.464	10.8
560.66	10.68
560.856	10.81
561.052	10.73
561.247	11.14
561.443	11.07
561.639	11.06
561.835	11.13
562.031	10.92
562.227	10.92
562.423	11.11
562.619	11.43
562.815	11.65
563.01	11.78
563.206	11.77
563.402	11.54
563.598	11.54
563.793	11.74
563.989	11.82
564.185	11.97
564.381	11.97
564.576	11.86
564.772	11.65
564.968	11.63
565.163	11.76
565.359	12.02
565.555	12.26
565.75	12.29
565.946	12.23
566.141	12.07
566.337	12.23
566.532	12.35
566.728	12.49
566.923	12.78
567.119	12.74
567.314	12.79
567.51	12.82
567.705	12.75
567.901	12.81
568.096	12.96
568.292	13.18
568.487	13.08
568.682	12.95
568.878	13.08
569.073	12.94
569.268	13.1
569.464	13.1
569.659	13.24
569.854	13.31
570.05	13.45
570.245	13.55
570.44	13.47
570.635	13.63
570.831	13.69
571.026	13.58
571.221	13.66
571.416	13.71
571.611	13.6
571.806	13.31
572.002	13.27
572.197	13.52
572.392	13.49
572.587	13.69
572.782	13.75
572.977	13.9
573.172	13.88
573.367	13.84
573.562	13.87
573.757	13.85
573.952	14.05
574.147	14.14
574.342	13.96
574.537	13.87
574.732	13.86
574.927	13.85
575.121	13.84
575.316	14.13
575.511	14.34
575.706	14.32
575.901	14.54
576.096	14.52
576.29	14.75
576.485	14.72
576.68	14.73
576.875	14.69
577.069	14.37
577.264	14.33
577.459	14.09
577.654	13.96
577.848	14.16
578.043	14.08
578.238	14.12
578.432	13.98
578.627	13.95
578.821	14.23
579.016	14.52
579.21	14.93
579.405	14.92
579.6	15.11
579.794	15.11
579.989	14.66
580.183	14.68
580.378	14.83
580.572	14.82
580.766	15.08
580.961	15.12
581.155	14.91
581.35	15.06
581.544	15.18
581.738	15.23
581.933	15.36
582.127	15.93
582.321	16.01
582.516	15.87
582.71	15.87
582.904	15.66
583.099	15.35
583.293	15.38
583.487	15.43
583.681	15.58
583.875	15.69
584.07	15.65
584.264	15.52
584.458	15.51
584.652	15.57
584.846	15.56
585.04	15.77
585.234	16.25
585.428	16.21
585.623	16.11
585.817	16.11
586.011	16.01
586.205	16.1
586.399	16.2
586.593	16.28
586.787	16.47
586.981	16.75
587.174	16.65
587.368	16.52
587.562	16.43
587.756	16.54
587.95	16.59
588.144	16.74
588.338	17.02
588.532	16.89
588.725	16.88
588.919	16.62
589.113	16.61
589.307	16.65
589.501	16.64
589.694	16.69
589.888	16.45
590.082	16.3
590.275	16.12
590.469	15.82
590.663	15.83
590.856	15.64
591.05	15.92
591.244	15.83
591.437	15.76
591.631	15.93
591.824	15.92
592.018	16.18
592.212	16.17
592.405	16.32
592.599	16.34
592.792	16.21
592.986	16.41
593.179	16.31
593.372	16.23
593.566	16.47
593.759	16.33
593.953	16.46
594.146	16.29
594.339	16.55
594.533	16.69
594.726	16.78
594.92	16.93
595.113	17.18
595.306	16.97
595.499	17
595.693	17.01
595.886	16.77
596.079	16.76
596.272	16.97
596.466	16.84
596.659	16.69
596.852	16.72
597.045	16.75
597.238	16.53
597.431	16.8
597.624	16.82
597.818	16.72
598.011	17.15
598.204	17.2
598.397	17.1
598.59	17.04
598.783	17.11
598.976	17.08
599.169	17.1
599.362	17.32
599.555	17.34
599.748	17.38
599.941	17.39
600.134	17.34
600.326	17.44
600.519	17.54
600.712	17.69
600.905	17.46
601.098	17.38
601.291	17.31
601.483	16.92
601.676	17.09
601.869	17.04
602.062	17.09
602.255	16.77
602.447	16.96
602.64	16.88
602.833	16.91
603.025	16.91
603.218	16.94
603.411	16.82
603.603	17.03
603.796	16.72
603.989	16.82
604.181	16.73
604.374	16.85
604.566	16.76
604.759	16.76
604.951	16.75
605.144	16.97
605.336	17.12
605.529	17.21
605.721	17.19
605.914	17.13
606.106	17.18
606.299	17.22
606.491	17.03
606.683	16.85
606.876	16.72
607.068	16.53
607.26	16.38
607.453	16.18
607.645	16.19
607.837	16.03
608.03	16.51
608.222	16.41
608.414	16.62
608.606	16.8
608.799	16.93
608.991	17.03
609.183	17.19
609.375	17.25
609.567	17.43
609.759	17.35
609.952	17.67
610.144	17.54
610.336	17.78
610.528	17.67
610.72	17.6
610.912	17.75
611.104	17.97
611.296	17.99
611.488	18.09
611.68	17.88
611.872	18.07
612.064	18.05
612.256	17.88
612.448	17.71
612.64	17.63
612.832	17.73
613.023	17.45
613.215	17.13
613.407	17.11
613.599	17.18
613.791	17.23
613.983	17.29
614.174	17.11
614.366	17.17
614.558	17.13
614.75	17.34
614.941	17.41
615.133	17.68
615.325	17.53
615.516	17.28
615.708	17.04
615.9	17.27
616.091	17.23
616.283	17.15
616.475	16.86
616.666	16.68
616.858	16.6
617.049	16.45
617.241	16.08
617.432	16.68
617.624	16.9
617.815	16.98
618.007	16.93
618.198	16.68
618.39	16.81
618.581	17.1
618.773	17.27
618.964	17.24
619.155	17.44
619.347	17.69
619.538	17.47
619.729	17.5
619.921	17.3
620.112	17.11
620.303	17.53
620.494	17.3
620.686	17.47
620.877	17.15
621.068	17.08
621.259	17.25
621.451	17.09
621.642	17.32
621.833	17.29
622.024	17.52
622.215	17.68
622.406	17.26
622.597	17.4
622.788	17.35
622.98	17.32
623.171	17.49
623.362	17.38
623.553	17.35
623.744	17.28
623.935	17.4
624.126	17.51
624.317	17.57
624.508	17.76
624.698	17.79
624.889	17.61
625.08	18.22
625.271	18.34
625.462	18.27
625.653	18.47
625.844	18.18
626.034	18.12
626.225	17.96
626.416	17.79
626.607	17.86
626.798	18.17
626.988	18.2
627.179	18.06
627.37	18.05
627.56	18.05
627.751	18.05
627.942	18.25
628.132	18.33
628.323	18.51
628.514	18.45
628.704	18.27
628.895	17.79
629.085	18.01
629.276	17.81
629.466	17.83
629.657	18.11
629.847	17.93
630.038	17.72
630.228	17.54
630.419	17.29
630.609	17.54
630.8	17.54
630.99	17.53
631.181	17.22
631.371	17.59
631.561	17.51
631.752	17.44
631.942	17.55
632.132	17.42
632.323	17.37
632.513	17.63
632.703	17.4
632.893	17.51
633.084	17.66
633.274	17.88
633.464	17.78
633.654	17.57
633.844	17.16
634.034	17.18
634.225	17.38
634.415	17.64
634.605	17.59
634.795	17.77
634.985	17.91
635.175	18.07
635.365	18.07
635.555	17.82
635.745	17.94
635.935	18.3
636.125	18.12
636.315	18.04
636.505	17.99
636.695	17.88
636.885	17.67
637.075	17.58
637.265	17.32
637.455	17.18
637.644	17.09
637.834	17.23
638.024	17.09
638.214	17.37
638.404	17.19
638.593	16.93
638.783	17.04
638.973	17.21
639.163	17.67
639.352	17.49
639.542	17.82
639.732	17.83
639.921	17.73
640.111	17.74
640.301	17.76
640.49	18.3
640.68	18.53
640.87	18.47
641.059	18.51
641.249	17.91
641.438	18.51
641.628	18.23
641.817	18.44
642.007	18.14
642.196	17.93
642.386	17.94
642.575	17.58
642.764	17.63
642.954	17.21
643.143	17.04
643.333	16.71
643.522	16.11
643.711	15.91
643.901	15.72
644.09	16.23
644.279	16.37
644.469	16.39
644.658	16.38
644.847	16.1
645.036	16.74
645.226	16.93
645.415	18.05
645.604	18.35
645.793	18.93
645.982	18.94
646.171	18.79
646.361	19.01
646.55	18.75
646.739	19.07
646.928	19.48
647.117	19.14
647.306	19.05
647.495	18.74
647.684	19.21
647.873	18.71
648.062	18.65
648.251	18.8
648.44	18.7
648.629	18.99
648.818	18.71
649.007	19.01
649.196	19.37
649.384	19.23
649.573	18.92
649.762	18.08
649.951	18.5
650.14	18.43
650.328	18.54
650.517	18.75
650.706	18.93
650.895	19.27
651.083	18.99
651.272	18.51
651.461	18.75
651.65	18.67
651.838	19.09
652.027	18.6
652.216	19.13
652.404	18.63
652.593	18.78
652.781	18.49
652.97	18.34
653.158	18.3
653.347	18.68
653.535	18.37
653.724	18.62
653.912	18.78
654.101	19.16
654.289	19.37
654.478	19.84
654.666	19.09
654.855	18.98
655.043	18.87
655.231	18.6
655.42	18.34
655.608	18.56
655.796	18.53
655.985	18.19
656.173	17.77
656.361	17.27
656.55	17.41
656.738	18.18
656.926	18.6
657.114	18.65
657.302	18.52
657.491	18.28
657.679	18.18
657.867	17.85
658.055	17.8
658.243	18.08
658.431	18.18
658.619	17.84
658.807	17.85
658.996	17.65
659.184	17.54
659.372	17.73
659.56	17.94
659.748	18.09
659.936	18.46
660.124	18.57
660.311	18.5
660.499	18.51
660.687	18.49
660.875	17.98
661.063	18.33
661.251	18.35
661.439	18.28
661.627	18.34
661.814	18.31
662.002	18.46
662.19	18.32
662.378	18.3
662.565	18.04
662.753	18.07
662.941	18.1
663.129	17.55
663.316	17.65
663.504	17.62
663.692	18.14
663.879	18.69
664.067	18.23
664.254	18.57
664.442	18.61
664.63	18.59
664.817	19.28
665.005	19.47
665.192	19.73
665.38	19.82
665.567	20.03
665.755	19.46
665.942	19.06
666.13	19.07
666.317	18.88
666.504	19.12
666.692	19.24
666.879	18.81
667.067	18.47
667.254	18.57
667.441	18.81
667.629	19.37
667.816	19.43
668.003	19.48
668.19	19.25
668.378	19.49
668.565	19.34
668.752	19.68
668.939	19.86
669.127	20.25
669.314	20.37
669.501	20.16
669.688	19.73
669.875	19.82
670.062	19.18
670.249	19.36
670.436	18.71
670.623	18.71
670.81	18.35
670.997	18.37
671.184	17.72
671.371	17.38
671.558	17.09
671.745	16.63
671.932	17.14
672.119	17.54
672.306	17.56
672.493	18.09
672.68	18.14
672.867	18.03
673.054	17.44
673.24	17.99
673.427	17.97
673.614	18.49
673.801	18.82
673.988	18.47
674.174	18.71
674.361	18.86
674.548	18.45
674.734	18.5
674.921	18.67
675.108	18.53
675.294	18.59
675.481	18.44
675.668	18.28
675.854	18.62
676.041	18.74
676.227	18.37
676.414	18.4
676.601	18.5
676.787	18.19
676.974	18.33
677.16	18.08
677.347	18.42
677.533	18.58
677.719	18.57
677.906	18.26
678.092	17.91
678.279	18.14
678.465	18.15
678.651	18.52
678.838	18.43
679.024	18.29
679.21	19.28
679.397	19.14
679.583	19.11
679.769	18.77
679.955	18.46
680.142	18.52
680.328	18.34
680.514	18.62
680.7	18.83
680.886	19.26
681.073	19.54
681.259	19.08
681.445	18.9
681.631	18.22
681.817	18.74
682.003	19.35
682.189	19.35
682.375	19.76
682.561	19.55
682.747	19.28
682.933	19.29
683.119	19.36
683.305	19.46
683.491	19.62
683.677	20.63
683.863	20.46
684.049	20.09
684.235	19.78
684.42	20.02
684.606	19.9
684.792	20.24
684.978	20.52
685.164	19.99
685.349	20.01
685.535	20.45
685.721	19.96
685.907	19.94
686.092	20.39
686.278	20.81
686.464	20.32
686.649	20.36
686.835	19.63
687.021	19.2
687.206	19.82
687.392	19.78
687.577	19.47
687.763	19.94
687.948	19.81
688.134	19.53
688.319	18.93
688.505	19.3
688.69	19.53
688.876	19.88
689.061	19.92
689.247	19.56
689.432	19.46
689.618	19.44
689.803	19.28
689.988	18.79
690.174	18.5
690.359	19.2
690.544	18.84
690.73	18.97
690.915	19.1
691.1	19.16
691.285	19.27
691.471	19.16
691.656	19.27
691.841	18.93
692.026	19.6
692.211	19.31
692.396	19.75
692.582	19.24
692.767	18.91
692.952	19.05
693.137	18.9
693.322	18.56
693.507	18.66
693.692	18.18
693.877	18.63
694.062	18.63
694.247	18.85
694.432	18.18
694.617	18.28
694.802	18.44
694.987	18.27
695.172	18.56
695.357	18.53
695.541	19
695.726	19.18
695.911	19.22
696.096	19.2
696.281	19.89
696.466	19.86
696.65	20.37
696.835	19.7
697.02	19.54
697.204	19.27
697.389	19.84
697.574	20.1
697.759	19.83
697.943	19.41
698.128	19.68
698.312	19.8
698.497	19.92
698.682	19.88
698.866	20.27
699.051	20.61
699.235	20.58
699.42	20.5
699.604	20.36
699.789	20.56
699.973	20.71
700.158	20.27
700.342	19.99
700.527	19.96
700.711	20.08
700.895	19.93
701.08	19.47
701.264	19.25
701.448	19.76
701.633	20.05
701.817	20.65
702.001	20.8
702.186	21.49
702.37	21.27
702.554	21.57
702.738	22.11
702.923	22.12
703.107	23.3
703.291	23.66
703.475	22.71
703.659	22.06
703.843	21.69
704.027	21.71
704.212	21.65
704.396	21.62
704.58	20.83
704.764	20.35
704.948	21.04
705.132	20.28
705.316	20.58
705.5	20.46
705.684	20.28
705.868	20.29
706.052	20.07
706.235	19.75
706.419	20.08
706.603	20.56
706.787	20.17
706.971	18.83
707.155	19.01
707.339	18.93
707.522	18.96
707.706	18.9
707.89	18.56
708.074	18.7
708.257	18.58
708.441	18.46
708.625	18.67
708.808	18.4
708.992	19.47
709.176	19.83
709.359	20.11
709.543	20.32
709.727	20.34
709.91	21
710.094	21.33
710.277	21.16
710.461	21.19
710.644	21.18
710.828	21.58
711.011	21.7
711.195	20.19
711.378	19.68
711.562	19.23
711.745	19.23
711.928	18.71
712.112	18.32
712.295	18.38
712.478	18.05
712.662	17.56
712.845	17.25
713.028	16.01
713.212	16.44
713.395	16.34
713.578	17.07
713.761	17.04
713.945	17.09
714.128	17.82
714.311	17.11
714.494	17.42
714.677	17.27
714.86	17.71
715.043	18.18
715.227	18.64
715.41	18.5
715.593	18.38
715.776	18.48
715.959	18.5
716.142	17.89
716.325	18.77
716.508	18.8
716.691	19.33
716.874	19.33
717.057	19.81
717.239	19.87
717.422	20.41
717.605	20.56
717.788	20.91
717.971	20.84
718.154	21.59
718.337	21.33
718.519	21.37
718.702	21.88
718.885	21.64
719.068	20.24
719.25	20.05
719.433	19.96
719.616	19.21
719.798	19.24
719.981	18.33
720.164	17.57
720.346	17.61
720.529	18.14
720.712	18
720.894	18.01
721.077	19.09
721.259	19.05
721.442	19.72
721.624	20.54
721.807	19.95
721.989	21.25
722.172	21.47
722.354	20.51
722.537	19.62
722.719	19.04
722.901	19.08
723.084	19.24
723.266	19.94
723.448	19.64
723.631	19.57
723.813	19.45
723.995	19.46
724.178	20.67
724.36	21.99
724.542	22.14
724.724	22.54
724.907	23.66
725.089	24.53
725.271	24.79
725.453	23.83
725.635	24.17
725.817	25.22
725.999	24.79
726.181	23.4
726.364	23.6
726.546	23.48
726.728	23.63
726.91	21.12
727.092	20.47
727.274	19.5
727.456	20.45
727.638	18.96
727.819	18.29
728.001	18.86
728.183	18.48
728.365	18.73
728.547	19.34
728.729	19.05
728.911	19.91
729.093	19.77
729.274	19.87
729.456	19.55
729.638	19.97
729.82	19.71
730.001	19.35
730.183	20.27
730.365	19.41
730.546	19.91
730.728	20.17
730.91	20.38
731.091	20.65
731.273	20.17
731.455	20.23
731.636	20.35
731.818	20.35
731.999	19.31
732.181	18.74
732.362	19.47
732.544	18.31
732.725	18.37
732.907	18.82
733.088	19.92
733.27	20.32
733.451	20.22
733.633	20.43
733.814	21.21
733.995	21.72
734.177	21.62
734.358	21.54
734.539	21.87
734.721	22.11
734.902	22.48
735.083	20.5
735.264	20.57
735.446	20.56
735.627	21.42
735.808	21.19
735.989	22.52
736.17	22.88
736.351	22.21
736.533	22.46
736.714	21.2
736.895	21.22
737.076	22.29
737.257	23.1
737.438	22.89
737.619	21.7
737.8	21.5
737.981	20.4
738.162	20.3
738.343	21.13
738.524	21.11
738.705	22.05
738.886	21.76
739.067	21.24
739.247	21.65
739.428	21.16
739.609	21.54
739.79	21.79
739.971	23.39
740.151	23.77
740.332	22.62
740.513	22.14
740.694	21.35
740.874	21.38
741.055	21
741.236	19.71
741.417	20.58
741.597	20.04
741.778	19.19
741.958	18.46
742.139	19.3
742.32	20.33
742.5	21.18
742.681	20.93
742.861	20.7
743.042	20.59
743.222	20.39
743.403	20.29
743.583	21.62
743.764	22.13
743.944	21.55
744.124	20.78
744.305	18.97
744.485	18.67
744.666	18.59
744.846	19.1
745.026	19.75
745.207	20.05
745.387	20.35
745.567	19.02
745.747	19.51
745.928	19.43
746.108	18.96
746.288	21.28
746.468	21.36
746.648	22.29
746.829	21.99
747.009	22.31
747.189	23.77
747.369	23.52
747.549	24.98
747.729	24.41
747.909	24.13
748.089	24.57
748.269	23.54
748.449	22.76
748.629	21.97
748.809	21.27
748.989	21.99
749.169	20.78
749.349	20.37
749.529	20.34
749.709	20.77
749.889	19.92
750.068	20.18
750.248	19.85
750.428	19.13
750.608	19.82
750.788	20.89
750.967	20.28
751.147	20.82
751.327	20.93
751.507	20.86
751.686	20
751.866	21.48
752.046	20.42
752.225	20.92
752.405	22.12
752.585	21.58
752.764	21.06
752.944	20.44
753.123	19.34
753.303	18.13
753.482	17.99
753.662	18.47
753.841	18.41
754.021	20.16
754.2	21.67
754.38	21.13
754.559	22.16
754.739	21.21
754.918	21.41
755.097	21.44
755.277	23.04
755.456	22.08
755.635	21.68
755.815	21.66
755.994	19.99
756.173	18.01
756.352	18.81
756.532	18.87
756.711	20.81
756.89	20.5
757.069	19.9
757.248	19.43
757.427	21.03
757.607	21
757.786	20.82
757.965	21.16
758.144	21.22
758.323	20.62
758.502	20.4
758.681	17.95
758.86	17.19
759.039	17.61
759.218	17.35
759.397	16.58
759.576	18.43
759.755	19.01
759.934	19.95
760.113	19.62
760.291	20.47
760.47	19.61
760.649	21.62
760.828	23.76
761.007	25.37
761.186	26.64
761.364	25.84
761.543	25
761.722	24.07
761.901	23.52
762.079	24
762.258	22.82
762.437	23.45
762.615	22.81
762.794	21.47
762.972	20.17
763.151	19.64
763.33	19.5
763.508	19.39
763.687	19.85
763.865	19.07
764.044	20.26
764.222	20.74
764.401	19.7
764.579	20.32
764.758	21.41
764.936	21.7
765.114	21.48
765.293	23.12
765.471	23.04
765.65	23.01
765.828	23.67
766.006	22.56
766.184	22.69
766.363	23.17
766.541	22.76
766.719	22.88
766.898	22.65
767.076	23.38
767.254	21.83
767.432	20.48
767.61	20.74
767.788	21.94
767.967	22.33
768.145	23.45
768.323	23.63
768.501	22.8
768.679	22.39
768.857	22.86
769.035	21.94
769.213	22.95
769.391	23.46
769.569	24.58
769.747	24.19
769.925	22.59
770.103	21.11
770.281	19.88
770.459	20.27
770.636	20.29
770.814	20.72
770.992	21.56
771.17	20.82
771.348	21.69
771.525	19.8
771.703	17.49
771.881	18.82
772.059	19.5
772.236	20.57
772.414	20.43
772.592	20.06
772.769	21.4
772.947	20.85
773.125	22.33
773.302	21.87
773.48	22.62
773.657	23.8
773.835	22.33
774.013	22.65
774.19	23.54
774.368	24.74
774.545	23.07
774.723	22.32
774.9	20.89
775.077	21.58
775.255	24
775.432	24.36
775.61	23.18
775.787	24.73
775.964	25.4
776.142	25.52
776.319	25.58
776.496	27.2
776.674	25.98
776.851	28.33
777.028	25.62
777.205	24.51
777.382	22.53
777.56	23.81
777.737	24.96
777.914	22.81
778.091	22.92
778.268	22.72
778.445	23.02
778.622	23.96
778.8	24.07
778.977	23.09
779.154	21.68
779.331	22.04
779.508	22.29
779.685	21.15
779.862	22.61
780.038	22.51
780.215	22.05
780.392	21.45
780.569	18.9
780.746	19.75
780.923	22.01
781.1	22.05
781.277	21.37
781.453	20.64
781.63	20.52
781.807	21.81
781.984	20.82
782.16	22.54
782.337	23.46
782.514	26.86
782.691	25.49
782.867	23.53
783.044	24.81
783.221	25.44
783.397	27.39
783.574	28.39
783.75	25.26
783.927	28.33
784.103	29.07
784.28	29.44
784.456	29.87
784.633	28.39
784.809	28.06
784.986	28.14
785.162	27.62
785.339	24.43
785.515	23.22
785.692	25.56
785.868	22.51
786.044	20.42
786.221	17.9
786.397	17.17
786.573	18.79
786.749	19.33
786.926	19.06
787.102	21.22
787.278	24.17
787.454	22.89
787.631	23.17
787.807	20.61
787.983	21.69
788.159	23.53
788.335	22.39
788.511	22.11
788.687	23.27
788.863	23.27
789.039	21.57
789.216	22.02
789.392	23.65
789.568	21
789.744	26.1
789.919	24.62
790.095	24.05
790.271	25.79
790.447	25.97
790.623	26.02
790.799	25.58
790.975	26.32
791.151	23.97
791.327	22.87
791.502	24
791.678	24.6
791.854	24.57
792.03	22.82
792.205	21.45
792.381	22.59
792.557	23.27
792.733	23.08
792.908	23.2
793.084	23.61
793.259	25.26
793.435	23.47
793.611	21.84
793.786	22.49
793.962	23.54
794.137	25.61
794.313	21.76
794.488	18.47
794.664	18.42
794.839	17.53
795.015	18.59
795.19	17.1
795.366	18.95
795.541	18.27
795.716	17.92
795.892	19.07
796.067	17.41
796.242	19.77
796.418	22.66
796.593	22.53
796.768	23.84
796.944	23.59
797.119	25.62
797.294	25.62
797.469	24.89
797.644	26.18
797.82	25.69
797.995	25.05
798.17	27.49
798.345	27.78
798.52	29.8
798.695	28.99
798.87	28.44
799.045	25.81
799.22	28.16
799.395	29.18
799.57	29.31
799.745	29.79
799.92	32.37
800.095	29.81
800.27	28.97
800.445	28.8
800.62	31.09
800.795	32.27
800.97	34.2
801.145	33.08
801.319	33.99
801.494	33.2
801.669	29.07
801.844	25.56
802.018	26.41
802.193	30.09
802.368	29.65
802.543	28.85
802.717	32.53
802.892	32.05
803.067	32.06
803.241	31.56
803.416	32.29
803.59	32.87
803.765	32.64
803.94	30.03
804.114	28.76
804.289	30.23
804.463	30.17
804.638	24.63
804.812	24.38
804.986	22.27
805.161	23.66
805.335	24.47
805.51	26.79
805.684	26.66
805.858	29.05
806.033	27.16
806.207	25.54
806.381	24.87
806.556	24.12
806.73	22.49
806.904	22.33
807.078	18.99
807.253	18.03
807.427	20.39
807.601	21.14
807.775	21.52
807.949	23.37
808.123	23.13
808.298	21.5
808.472	24.42
808.646	26.01
808.82	26.87
808.994	25.24
809.168	24.94
809.342	24.9
809.516	28.36
809.69	28.7
809.864	27.43
810.038	27.16
810.212	27.79
810.385	27.8
810.559	29.87
810.733	30.07
810.907	35.43
811.081	34.33
811.255	33.91
811.428	29.21
811.602	29.1
811.776	28.42
811.95	28.65
812.123	27.63
812.297	24.62
812.471	25.42
812.644	25.15
812.818	24.6
812.992	28.34
813.165	28.38
813.339	29.06
813.512	26.11
813.686	26.59
813.86	27.56
814.033	30.84
814.207	30.74
814.38	30.23
814.554	28.49
814.727	28.06
814.9	22.74
815.074	20.8
815.247	21.53
815.421	24.84
815.594	26.71
815.767	21.79
815.941	21.46
816.114	20.37
816.287	17.98
816.46	21.15
816.634	19.04
816.807	22.04
816.98	24.88
817.153	25.98
817.327	26.12
817.5	22.86
817.673	25.15
817.846	28.06
818.019	28.6
818.192	27.91
818.365	30.4
818.538	30.06
818.711	26.7
818.884	23.26
819.057	24.67
819.23	23.34
819.403	24.77
819.576	25.37
819.749	25.04
819.922	26.79
820.095	29.86
820.268	24.77
820.441	25.95
820.614	28.16
820.786	28.68
820.959	28.28
821.132	26.96
821.305	27.62
821.477	26.86
821.65	24.71
821.823	25.02
821.996	23.67
822.168	24.5
822.341	23.64
822.514	23.3
822.686	23.3
822.859	22.72
823.031	22.94
823.204	21.93
823.376	21.99
823.549	22.7
823.722	22.65
823.894	22.86
824.067	22.68
824.239	23.42
824.411	22.62
824.584	22.25
824.756	21.39
824.929	22.21
825.101	23.8
825.273	24.3
825.446	24.62
825.618	25.19
825.79	25.13
825.963	24.85
826.135	24.33
826.307	25.6
826.479	25.58
826.652	26.58
826.824	25.89
826.996	24.73
827.168	24.74
827.34	21.95
827.512	20.96
827.684	20.51
827.856	19.23
828.029	17.53
828.201	16.1
828.373	16.76
828.545	16.13
828.717	13.62
828.889	14.52
829.061	12.98
829.232	14.49
829.404	14.51
829.576	16.18
829.748	17.59
829.92	20.95
830.092	22.38
830.264	21.71
830.436	22.69
830.607	27.52
830.779	24.86
830.951	27.6
831.123	29.31
831.294	33.3
831.466	32.43
831.638	33.46
831.809	34.62
831.981	38.82
832.153	39.55
832.324	39.52
832.496	36.69
832.667	41.6
832.839	34.68
833.011	31.62
833.182	28.12
833.354	25.98
833.525	27.83
833.697	27.84
833.868	25.81
834.039	24.84
834.211	25.44
834.382	25.21
834.554	22.68
834.725	25.47
834.896	26.42
835.068	25.02
835.239	26.19
835.41	26.08
835.581	26.57
835.753	24.93
835.924	25.92
836.095	24.65
836.266	23.41
836.438	23.91
836.609	23.73
836.78	26.21
836.951	25.55
837.122	24.99
837.293	26.58
837.464	21.93
837.635	24
837.806	25.36
837.977	27.36
838.148	30.39
838.319	28.68
838.49	29.12
838.661	26.77
838.832	28.01
839.003	27.31
839.174	24.37
839.345	28.4
839.516	30.4
839.687	31.6
839.857	36.68
840.028	36.43
840.199	37.84
840.37	40.13
840.54	35.32
840.711	41.21
840.882	45.16
841.053	45.27
841.223	43.73
841.394	40.79
841.564	34.29
841.735	27.2
841.906	25.24
842.076	22.05
842.247	19.5
842.417	22.12
842.588	18.03
842.758	10.96
842.929	9.34
843.099	7.51
843.27	3.47
843.44	12.09
843.611	16.01
843.781	16.64
843.951	17.53
844.122	21.25
844.292	27.97
844.462	32.23
844.633	36.7
844.803	31.79
844.973	36.31
845.144	38.45
845.314	39.87
845.484	41.91
845.654	43.97
845.824	47.64
845.995	43.37
846.165	43.98
846.335	44.77
846.505	48.82
846.675	56.1
846.845	48.81
847.015	46.6
847.185	39.78
847.355	37.03
847.525	39.34
847.695	38.07
847.865	37.36
848.035	39.98
848.205	33
848.375	31.76
848.545	29.88
848.715	39.12
848.884	40.06
849.054	38.49
849.224	44.08
849.394	41.7
849.564	41.58
849.733	45.11
849.903	43.67
850.073	48.25
850.243	49.66
850.412	47.73
850.582	39.38
850.752	44.36
850.921	42.05
851.091	34.21
851.26	40.19
851.43	22.66
851.599	12.99
851.769	3.81
851.939	14.92
852.108	11.11
852.278	16.73
852.447	3.8
852.616	-1.51
852.786	9.44
852.955	20.44
853.125	10.39
853.294	39.2
853.463	54.16
853.633	62.71
853.802	51.76
853.971	46.39
854.141	50.67
854.31	65.3
854.479	54.86
854.648	59.58
854.818	45.77
854.987	37.28
855.156	26.84
855.325	24.15
855.494	22.98
855.663	24.08
855.832	21.47
856.001	15.24
856.171	20.57
856.34	28.7
856.509	20.79
856.678	34.81
856.847	38
857.016	46.05
857.185	51.79
857.353	43.33
857.522	47.95
857.691	52.93
857.86	52.78
858.029	51.84
858.198	50.93
858.367	63.57
858.535	46.37
858.704	43.82
858.873	41.97
859.042	39.03
859.21	46.12
859.379	43.43
859.548	49.64
859.717	47.74
859.885	42.77
860.054	40.82
860.222	38.07
860.391	38.72
860.56	43.4
860.728	34.98
860.897	32.41
861.065	23.69
861.234	22.13
861.402	10.46
861.571	8.47
861.739	12.88
861.908	-0.85
862.076	-7.83
862.244	6.08
862.413	7.19
862.581	20.56
862.749	27.25
862.918	36.94
863.086	39.04
863.254	37.79
863.423	38.46
863.591	39.18
863.759	53.23
863.927	55.32
864.096	54.63
864.264	40.4
864.432	55.63
864.6	45.47
864.768	43.23
864.936	28.9
865.104	38.95
865.272	29.68
865.44	51.58
865.608	36.87
865.776	41.17
865.944	58.62
866.112	68.18
866.28	49.66
866.448	59.35
866.616	71.19
866.784	71.26
866.952	72.56
867.12	91.38
867.288	79.72
867.455	93.42
867.623	84.78
867.791	52.68
867.959	55.03
868.127	72.13
868.294	53.44
868.462	13.89
868.63	13.77
868.797	11.73
868.965	-7.34
869.133	31.48
869.3	36.09
869.468	46.47
869.636	45.12
869.803	77.58
869.971	55.55
870.138	71.93
870.306	118.06
870.473	95.58
870.641	83.82
870.808	75.07
870.975	64.53
871.143	77.69
871.31	65.59
871.478	69.23
871.645	57.69
871.812	77.22
871.98	71.61
872.147	70.28
872.314	60.46
872.482	50.39
872.649	52.99
872.816	42.89
872.983	32.72
873.15	37.83
873.318	33.62
873.485	29.72
873.652	23.2
873.819	19.47
873.986	11.38
874.153	12.73
874.32	24.9
874.487	10.4
874.654	18.22
874.821	21.43
874.988	1.02
875.155	16.3
875.322	23.32
875.489	10.8
875.656	17.74
875.823	28.59
875.99	26.16
876.157	35.29
876.324	36.21
876.49	41.08
876.657	26.52
876.824	45.67
876.991	59.7
877.157	53.35
877.324	55.25
877.491	61.97
877.658	58.38
877.824	69.13
877.991	71.1
878.157	90.08
878.324	92.92
878.491	115.23
878.657	98.34
878.824	80.84
878.99	83.88
879.157	105.91
879.323	96.86
879.49	83.99
879.656	78.66
879.823	80.39
879.989	69.41
880.156	65.97
880.322	66.2
880.488	60.33
880.655	59.71
880.821	52.38
880.987	49.27
881.154	36.71
881.32	40.96
881.486	29.33
881.652	21.73
881.819	19.39
881.985	16.86
882.151	19.65
882.317	21.62
882.483	25.22
882.649	28.64
882.816	24.75
882.982	23.34
883.148	25.32
883.314	28.52
883.48	32.71
883.646	31.03
883.812	32.26
883.978	30.51
884.144	30.82
884.31	30.86
884.476	30.37
884.642	30.3
884.807	35.87
884.973	33.72
885.139	33.23
885.305	28.93
885.471	28.52
885.637	28.82
885.802	28.51
885.968	30.43
886.134	28.64
886.3	30.32
886.465	32.54
886.631	25.83
886.797	23.62
886.962	19.66
887.128	23.36
887.293	30.97
887.459	35.3
887.625	34.24
887.79	29.86
887.956	39.42
888.121	38.73
888.287	41.86
888.452	47.17
888.618	62.28
888.783	64.22
