Data from 2938073_Reflection_2.txt Node
Date: Sat Jul 11 20:31:55 EDT 2015
User: robert
Spectrometer: USB4E03001
Autoset integration time: false
Trigger mode: 4
Integration Time (sec): 1.000000E-1
Scans to average: 10
Electric dark correction enabled: true
Nonlinearity correction enabled: false
Boxcar width: 5
Stray light correction enabled: false
XAxis mode: Wavelengths
Stop averaging: false
Number of Pixels in Spectrum: 3648
>>>>>Begin Spectral Data<<<<<
177.566	-401
177.785	-645.33
178.005	-113.6
178.225	-20.1
178.445	22.5
178.665	-1.59
178.885	19.78
179.105	91.9
179.324	110.03
179.544	-259.59
179.764	-7.69
179.984	-55.3
180.204	-227.32
180.423	-231.62
180.643	-14.77
180.863	37.35
181.083	83.85
181.302	110.27
181.522	122.98
181.742	101.86
181.961	69.47
182.181	153.44
182.401	-27.64
182.621	52.62
182.84	68.84
183.06	179.94
183.279	448.96
183.499	-12.76
183.719	-2.36
183.938	10.86
184.158	22.45
184.377	89.53
184.597	46.44
184.816	115.29
185.036	83.58
185.256	197.76
185.475	46.6
185.695	39.9
185.914	50.88
186.134	75.28
186.353	84.8
186.572	114.97
186.792	82.13
187.011	165.83
187.231	131.42
187.45	172.83
187.67	146.55
187.889	184.75
188.108	194.82
188.328	193.85
188.547	184.1
188.766	138.31
188.986	161.33
189.205	96.06
189.424	54.93
189.644	49.44
189.863	17.9
190.082	19.68
190.302	-76.19
190.521	-47.07
190.74	13.14
190.959	12.79
191.178	-9.87
191.398	-10.94
191.617	3.95
191.836	-54.07
192.055	-165.27
192.274	-44.21
192.494	-34.51
192.713	-5.46
192.932	2.87
193.151	-64.72
193.37	-59.67
193.589	-61.23
193.808	-75.04
194.027	-51.93
194.246	31.92
194.465	41.14
194.685	8.61
194.904	-5.34
195.123	8.05
195.342	18.37
195.561	32.02
195.78	14.97
195.999	35.72
196.218	60.59
196.436	35.91
196.655	26.13
196.874	25.6
197.093	27.39
197.312	16.51
197.531	19.44
197.75	27.16
197.969	32.53
198.188	-10.98
198.407	-17.18
198.625	-41.31
198.844	-4.14
199.063	-65.48
199.282	-206.64
199.501	-27.19
199.719	30.55
199.938	21.52
200.157	81.3
200.376	78.09
200.594	258.11
200.813	2750
201.032	-240.64
201.251	-35.63
201.469	9.6
201.688	29.86
201.907	65.41
202.125	253.08
202.344	-384.44
202.563	286.67
202.781	201.33
203	-305
203.218	61.98
203.437	34.35
203.656	42.69
203.874	58.61
204.093	53
204.311	52.04
204.53	40.65
204.748	40.1
204.967	28.78
205.185	18.79
205.404	26.93
205.622	17.67
205.841	23.34
206.059	15.39
206.278	9.19
206.496	25.61
206.715	31.58
206.933	30.71
207.151	38.02
207.37	52.22
207.588	54.16
207.806	58.16
208.025	72.94
208.243	68.18
208.461	53.49
208.68	66.88
208.898	-9
209.116	-88.09
209.335	-69.92
209.553	-85.28
209.771	-222.79
209.989	-131.94
210.208	-424.38
210.426	-1108.94
210.644	550.17
210.862	822.2
211.081	166.72
211.299	68.1
211.517	-33.59
211.735	-117.15
211.953	-119.05
212.171	65.56
212.39	45.2
212.608	-134.59
212.826	-938.04
213.044	59.39
213.262	160.3
213.48	53.18
213.698	42.97
213.916	98.08
214.134	32.31
214.352	-4.74
214.57	171.81
214.788	17.81
215.006	-57.64
215.224	-12.04
215.442	-107.92
215.66	-132.32
215.878	-350.62
216.096	-130.13
216.314	-197.65
216.532	-342
216.75	-604.28
216.968	-325.75
217.185	-343.76
217.403	-127.17
217.621	-122.7
217.839	149.47
218.057	85.39
218.275	92.94
218.492	58.75
218.71	49.99
218.928	39.2
219.146	30.6
219.363	15.45
219.581	14.49
219.799	20.79
220.017	6.12
220.234	-10.32
220.452	26.67
220.67	35.38
220.887	74.19
221.105	78.52
221.323	75.14
221.54	68.13
221.758	83.41
221.976	81.77
222.193	76.26
222.411	85.26
222.629	72.38
222.846	72.43
223.064	82.68
223.281	71.69
223.499	57.99
223.716	58.73
223.934	53.48
224.151	49.45
224.369	39.88
224.586	35.03
224.804	32.91
225.021	24.91
225.239	7.36
225.456	-0.6
225.674	7.18
225.891	10.45
226.108	18.81
226.326	14.52
226.543	12.39
226.76	9.94
226.978	3.37
227.195	2.13
227.413	6.08
227.63	10.37
227.847	12.37
228.064	4.54
228.282	5.8
228.499	2.05
228.716	7.2
228.934	9.23
229.151	8.35
229.368	8.97
229.585	8.04
229.802	10.8
230.02	8.94
230.237	8.02
230.454	7.74
230.671	5.93
230.888	2.86
231.105	-0.47
231.323	-2.25
231.54	1.92
231.757	1.94
231.974	5.04
232.191	3.48
232.408	6.69
232.625	8.04
232.842	4.17
233.059	10.89
233.276	15.75
233.493	15.61
233.71	11.37
233.927	8.37
234.144	13.22
234.361	12.39
234.578	4.59
234.795	5.07
235.012	6.35
235.229	16.36
235.446	15.15
235.663	15.72
235.879	16.86
236.096	15.79
236.313	15.12
236.53	10.67
236.747	7.26
236.964	13.37
237.181	17.03
237.397	20.34
237.614	17.32
237.831	14.85
238.048	16.34
238.264	15.44
238.481	19.55
238.698	19.87
238.915	19.92
239.131	22.56
239.348	21.39
239.565	15.47
239.781	11.29
239.998	9.56
240.215	11.04
240.431	8.67
240.648	10.29
240.865	10.26
241.081	10.17
241.298	9.62
241.514	8.2
241.731	8.09
241.947	9.56
242.164	10.03
242.38	11.49
242.597	11.97
242.814	11.98
243.03	12.04
243.246	12.02
243.463	13.23
243.679	14.17
243.896	16.44
244.112	16.91
244.329	16.44
244.545	16.27
244.762	14.96
244.978	14.21
245.194	14.11
245.411	15.04
245.627	13.72
245.843	12.99
246.06	12.42
246.276	10.84
246.492	11.18
246.709	11.21
246.925	11.08
247.141	11.59
247.357	11.55
247.574	12.17
247.79	11.56
248.006	11.93
248.222	11.3
248.439	10.81
248.655	10.7
248.871	10.02
249.087	9.26
249.303	9.68
249.519	8.89
249.736	8.5
249.952	7.93
250.168	6.89
250.384	7.21
250.6	7.12
250.816	6.88
251.032	4.98
251.248	6.14
251.464	7.3
251.68	7.87
251.896	9.15
252.112	9.8
252.328	8.22
252.544	9.94
252.76	9.14
252.976	10.13
253.192	10.92
253.408	11.4
253.624	10.99
253.84	11.9
254.056	10.22
254.272	8.41
254.487	8.2
254.703	9.53
254.919	6.17
255.135	6.31
255.351	3.6
255.567	1.08
255.782	1.38
255.998	-1.03
256.214	1.82
256.43	1.26
256.646	2.07
256.861	2.77
257.077	4.76
257.293	9.24
257.508	9.02
257.724	10.74
257.94	13.41
258.155	12.73
258.371	13.96
258.587	11.96
258.802	12.58
259.018	11.37
259.234	10.49
259.449	9.52
259.665	7.93
259.88	7.35
260.096	6.71
260.312	6.02
260.527	6.97
260.743	7.76
260.958	8.06
261.174	7.44
261.389	6.94
261.605	6.76
261.82	6.28
262.036	6.68
262.251	7.36
262.466	7.81
262.682	8.55
262.897	8.49
263.113	7.18
263.328	6.8
263.543	5.35
263.759	8.39
263.974	9.86
264.189	12.76
264.405	11.46
264.62	10.8
264.835	10.47
265.051	10.66
265.266	9.79
265.481	9.26
265.696	7.91
265.912	9.03
266.127	7.48
266.342	5.44
266.557	4.08
266.773	5.22
266.988	5.72
267.203	6.35
267.418	5.45
267.633	4.18
267.848	3.71
268.064	4.24
268.279	5.36
268.494	7.44
268.709	8.12
268.924	7.15
269.139	5.28
269.354	5.46
269.569	4.96
269.784	6.25
269.999	7.42
270.214	6.48
270.429	6.92
270.644	6.31
270.859	4.44
271.074	5.04
271.289	5.35
271.504	5.77
271.719	5.17
271.934	5.96
272.149	5.99
272.363	5.58
272.578	6.76
272.793	6.73
273.008	6.37
273.223	7.44
273.438	8.05
273.653	8.46
273.867	9.03
274.082	10.46
274.297	8.82
274.512	9.12
274.726	9.45
274.941	9.67
275.156	9.09
275.371	8.55
275.585	8.96
275.8	7.52
276.015	7.44
276.229	7.52
276.444	6.25
276.659	7.68
276.873	6.3
277.088	4.94
277.302	3.48
277.517	4.1
277.732	5.59
277.946	3.55
278.161	3.73
278.375	3.94
278.59	5.14
278.804	6.13
279.019	5.05
279.233	4.73
279.448	6.4
279.662	6.77
279.877	6.32
280.091	6.27
280.306	7.54
280.52	7.14
280.735	7.24
280.949	7.46
281.163	6.65
281.378	7.4
281.592	7.7
281.806	7.13
282.021	6.44
282.235	6.18
282.449	5.9
282.664	4.62
282.878	5.58
283.092	5.93
283.307	5.66
283.521	6.43
283.735	5.51
283.949	4.86
284.164	5.12
284.378	6.21
284.592	6.38
284.806	7.48
285.02	7.34
285.234	7.74
285.449	7.38
285.663	6.81
285.877	6.4
286.091	7.08
286.305	7.66
286.519	7.46
286.733	8.21
286.947	9.12
287.161	8.9
287.375	9.1
287.589	8.36
287.803	8.18
288.017	8.82
288.231	9.91
288.445	9.83
288.659	10.05
288.873	10.32
289.087	8.88
289.301	7.79
289.515	8.54
289.729	10.03
289.943	10.32
290.157	9.7
290.371	10.07
290.584	9.31
290.798	8.25
291.012	7.63
291.226	7.34
291.44	8.01
291.654	7.9
291.867	6.7
292.081	6.13
292.295	6.3
292.509	7.49
292.722	6.88
292.936	6.59
293.15	9.31
293.364	9.1
293.577	9.52
293.791	9.72
294.005	9.81
294.218	10.01
294.432	8.42
294.645	7.42
294.859	7.1
295.073	6.64
295.286	6.19
295.5	5.89
295.713	5.46
295.927	5.44
296.14	5.02
296.354	5.42
296.568	4.93
296.781	5.71
296.994	6.37
297.208	6.66
297.421	7.02
297.635	7.24
297.848	6.75
298.062	7.57
298.275	8.05
298.489	8.78
298.702	9.98
298.915	10.05
299.129	11.02
299.342	11.35
299.555	10.91
299.769	11.59
299.982	12.23
300.195	12.45
300.409	13.34
300.622	12.94
300.835	14.09
301.048	14.16
301.262	14.49
301.475	14.65
301.688	14.1
301.901	13.34
302.115	12.06
302.328	12.53
302.541	12.69
302.754	11.52
302.967	10.98
303.18	8.62
303.393	7.27
303.607	6.72
303.82	5.07
304.033	5.4
304.246	7.51
304.459	8.49
304.672	5.36
304.885	3.86
305.098	4.57
305.311	5.72
305.524	5.82
305.737	5.04
305.95	6.72
306.163	6.73
306.376	6.15
306.589	4.12
306.802	4
307.015	7.23
307.228	8.22
307.44	8.52
307.653	8.61
307.866	8.61
308.079	7.26
308.292	6.49
308.505	7.57
308.718	7.65
308.93	9.47
309.143	9.88
309.356	10.3
309.569	10.63
309.781	9.42
309.994	9.43
310.207	10.46
310.42	12.56
310.632	12.73
310.845	12.97
311.058	13.39
311.27	12.09
311.483	11.33
311.696	11.53
311.908	11.51
312.121	12.61
312.333	12.67
312.546	12.95
312.759	12.83
312.971	12.96
313.184	13.92
313.396	13.09
313.609	14.22
313.821	15.05
314.034	14.51
314.246	14.04
314.459	13.55
314.671	13.38
314.884	11.02
315.096	9.56
315.309	8.94
315.521	8.17
315.733	8.5
315.946	8.45
316.158	7.22
316.371	5.44
316.583	7.84
316.795	8.36
317.008	8.3
317.22	9.28
317.432	10.58
317.644	10.05
317.857	9.34
318.069	9.35
318.281	9.24
318.494	9.22
318.706	11.08
318.918	9.64
319.13	9.45
319.342	8.52
319.555	9.95
319.767	8.9
319.979	10.09
320.191	11.27
320.403	12.25
320.615	12.56
320.827	12.54
321.039	11.99
321.252	13
321.464	14.06
321.676	13.77
321.888	13.51
322.1	13.16
322.312	13.51
322.524	10.78
322.736	10.06
322.948	9.46
323.16	10.49
323.372	10.57
323.584	8.18
323.796	6.22
324.007	6.9
324.219	6.51
324.431	7.84
324.643	6.07
324.855	6.92
325.067	7.52
325.279	6.68
325.491	5.92
325.702	7.37
325.914	8.77
326.126	9.63
326.338	8.98
326.55	9.4
326.761	8.3
326.973	8.71
327.185	9.2
327.396	7.81
327.608	9.51
327.82	9.52
328.032	6.6
328.243	5.56
328.455	4.73
328.666	4.82
328.878	5.91
329.09	5.51
329.301	4.54
329.513	4.23
329.725	5.59
329.936	4.03
330.148	5.38
330.359	7.27
330.571	6.84
330.782	8.19
330.994	8.8
331.205	6.26
331.417	6.76
331.628	9.54
331.84	9.54
332.051	8.38
332.262	8.7
332.474	8.03
332.685	6.91
332.897	7.52
333.108	7.45
333.319	7.74
333.531	7.95
333.742	8.76
333.953	8.07
334.165	8.2
334.376	7.69
334.587	9.23
334.799	9.37
335.01	10.74
335.221	10.91
335.432	11.39
335.644	11.83
335.855	12.18
336.066	12.35
336.277	11.4
336.488	10.4
336.7	10.89
336.911	9.79
337.122	10.08
337.333	10.56
337.544	10.31
337.755	8.59
337.966	8.56
338.177	9.16
338.388	9.02
338.599	9.42
338.811	9.31
339.022	10.49
339.233	10.4
339.444	9.74
339.655	8.65
339.866	9.63
340.076	10.76
340.287	9.04
340.498	7.28
340.709	6.84
340.92	7.55
341.131	8.61
341.342	7.84
341.553	8.78
341.764	8.8
341.975	7.43
342.185	8.04
342.396	8.85
342.607	9.98
342.818	10.94
343.029	11.1
343.239	10.94
343.45	11.26
343.661	11.85
343.872	11.09
344.082	12.08
344.293	13.19
344.504	12.57
344.714	11.12
344.925	11.09
345.136	10.11
345.346	10.51
345.557	11.38
345.768	11.25
345.978	11.65
346.189	11.04
346.399	10.91
346.61	10.62
346.821	11.04
347.031	12.09
347.242	11.48
347.452	12.76
347.663	11.47
347.873	9.9
348.084	9.97
348.294	8.84
348.504	8.81
348.715	8.29
348.925	9.86
349.136	9.5
349.346	8.69
349.557	10.33
349.767	10.85
349.977	11.34
350.188	12.03
350.398	12.47
350.608	13.06
350.819	13.97
351.029	13.86
351.239	13.2
351.449	13.55
351.66	13.61
351.87	12.69
352.08	11.89
352.29	12.22
352.501	12.03
352.711	10.5
352.921	10.78
353.131	10.46
353.341	10.17
353.552	9.35
353.762	8.78
353.972	8.86
354.182	8.73
354.392	8.27
354.602	7.69
354.812	6.91
355.022	7.49
355.232	6.55
355.442	6.48
355.652	6.34
355.862	5.88
356.072	6.03
356.282	6.12
356.492	6.19
356.702	6.36
356.912	7.24
357.122	8.3
357.332	8.56
357.542	8.08
357.752	7.43
357.962	7.39
358.171	7.85
358.381	8.02
358.591	7.82
358.801	8.01
359.011	8.21
359.221	7.72
359.43	7.65
359.64	7.7
359.85	7.97
360.06	8.28
360.269	7.72
360.479	7.97
360.689	7.78
360.899	7.85
361.108	8.02
361.318	7.54
361.528	7.51
361.737	7.41
361.947	7.26
362.156	7.46
362.366	7.78
362.576	7.99
362.785	7.82
362.995	7.61
363.204	7.38
363.414	7.06
363.623	7.36
363.833	6.95
364.042	6.77
364.252	6.01
364.461	6.47
364.671	6.03
364.88	6.11
365.09	6.97
365.299	7.36
365.509	7.59
365.718	7.2
365.927	7.57
366.137	8.36
366.346	8.39
366.555	9.94
366.765	9.74
366.974	10.36
367.183	10.06
367.393	9.2
367.602	8.29
367.811	9
368.021	10.35
368.23	9.68
368.439	9.08
368.648	8.84
368.857	7.96
369.067	8.41
369.276	8.36
369.485	9.14
369.694	9.06
369.903	8.55
370.112	8.44
370.321	7.16
370.531	6.91
370.74	7.56
370.949	7.08
371.158	7.26
371.367	6.77
371.576	6.79
371.785	7.02
371.994	7.71
372.203	8.36
372.412	7.63
372.621	8.08
372.83	8.87
373.039	8.62
373.248	9.24
373.457	8.99
373.666	8.97
373.874	8.37
374.083	8.38
374.292	7.62
374.501	7.21
374.71	7.38
374.919	7.03
375.128	6.98
375.336	7.05
375.545	6.53
375.754	5.93
375.963	5.9
376.171	6.08
376.38	5.92
376.589	6.37
376.798	7.15
377.006	7.42
377.215	7.49
377.424	6.89
377.632	6.16
377.841	6.61
378.05	7.51
378.258	7.19
378.467	7.19
378.675	7.33
378.884	7.09
379.093	6.42
379.301	6.35
379.51	6.3
379.718	6.19
379.927	6.35
380.135	5.77
380.344	5.25
380.552	5.42
380.761	5.52
380.969	5.33
381.177	4.89
381.386	5.79
381.594	5.78
381.803	5.95
382.011	6.84
382.219	7.21
382.428	7.37
382.636	7.3
382.845	6.83
383.053	6.49
383.261	6.12
383.469	6.51
383.678	5.63
383.886	5.62
384.094	5.45
384.302	4.87
384.511	4.57
384.719	4.81
384.927	5.01
385.135	4.78
385.343	4.94
385.552	5.16
385.76	4.71
385.968	4.91
386.176	4.82
386.384	5.04
386.592	5
386.8	5.03
387.008	4.87
387.216	4.63
387.424	5.2
387.633	5.09
387.841	4.98
388.049	5.1
388.257	5.09
388.465	4.58
388.672	4.37
388.88	4.62
389.088	4.45
389.296	4.54
389.504	4.69
389.712	4.44
389.92	4.37
390.128	3.91
390.336	3.93
390.544	3.87
390.751	4.13
390.959	3.77
391.167	3.45
391.375	3.61
391.583	3.51
391.79	3.46
391.998	3.55
392.206	3.34
392.414	3.66
392.621	3.79
392.829	3.54
393.037	3.61
393.244	3.87
393.452	3.98
393.66	4.03
393.867	3.81
394.075	3.88
394.283	3.88
394.49	4.24
394.698	4.28
394.905	4.28
395.113	4.7
395.32	4.55
395.528	4.65
395.735	4.65
395.943	4.44
396.15	4.58
396.358	4.9
396.565	4.73
396.773	4.67
396.98	4.78
397.188	4.83
397.395	4.7
397.602	4.88
397.81	4.91
398.017	4.79
398.225	4.75
398.432	4.7
398.639	4.2
398.847	4.47
399.054	4.38
399.261	4.62
399.468	4.42
399.676	4.04
399.883	3.9
400.09	3.62
400.297	3.79
400.505	3.95
400.712	4.24
400.919	4.4
401.126	4.07
401.333	3.82
401.54	3.2
401.748	2.94
401.955	3.27
402.162	3.29
402.369	3.54
402.576	3.74
402.783	3.65
402.99	3.51
403.197	3.12
403.404	3.41
403.611	3.56
403.818	3.72
404.025	3.97
404.232	3.63
404.439	3.53
404.646	3.59
404.853	3.36
405.06	3.52
405.267	3.42
405.474	3.63
405.681	3.3
405.887	3.27
406.094	3.28
406.301	3.26
406.508	3.67
406.715	3.78
406.922	3.44
407.128	3.36
407.335	3.19
407.542	3.18
407.749	3.19
407.955	3.37
408.162	3.5
408.369	3.63
408.575	3.73
408.782	3.53
408.989	3.46
409.195	3.73
409.402	4.02
409.609	4.07
409.815	4.42
410.022	4.53
410.228	4.26
410.435	4.21
410.642	4.12
410.848	4.13
411.055	4.35
411.261	4.15
411.468	3.95
411.674	3.68
411.881	3.43
412.087	3.13
412.294	2.8
412.5	3.39
412.706	3.24
412.913	3.17
413.119	3.17
413.326	2.91
413.532	3.32
413.738	3.36
413.945	3.5
414.151	3.38
414.357	3.47
414.564	3.63
414.77	3.18
414.976	3.36
415.182	3.42
415.389	3.35
415.595	3.27
415.801	3.15
416.007	3.04
416.214	2.99
416.42	3.35
416.626	3.26
416.832	3.2
417.038	3.41
417.244	3.38
417.45	3.33
417.657	3.35
417.863	3.48
418.069	3.36
418.275	3.54
418.481	3.52
418.687	3.43
418.893	3.49
419.099	3.45
419.305	3.37
419.511	3.3
419.717	3.36
419.923	3.27
420.129	3.21
420.335	3.33
420.541	3.23
420.746	3.17
420.952	3.06
421.158	3.07
421.364	3.02
421.57	3.17
421.776	3.25
421.982	2.99
422.187	2.95
422.393	2.89
422.599	2.72
422.805	2.65
423.01	2.57
423.216	2.83
423.422	2.73
423.628	2.78
423.833	2.6
424.039	2.45
424.245	2.66
424.45	2.73
424.656	2.9
424.862	2.95
425.067	2.99
425.273	3.05
425.478	2.99
425.684	3.1
425.889	3.16
426.095	3.28
426.301	3.31
426.506	3.36
426.712	3.39
426.917	3.22
427.123	3.3
427.328	3.33
427.533	3.47
427.739	3.25
427.944	3.07
428.15	3.04
428.355	2.88
428.561	3.02
428.766	2.9
428.971	2.82
429.177	3.13
429.382	3.13
429.587	3.32
429.793	3.16
429.998	3.24
430.203	3.49
430.408	3.55
430.614	3.57
430.819	3.61
431.024	3.64
431.229	3.46
431.434	3.28
431.64	3.09
431.845	3.18
432.05	3.25
432.255	3.29
432.46	3.19
432.665	3.03
432.87	2.9
433.076	2.75
433.281	2.78
433.486	2.88
433.691	2.87
433.896	3.08
434.101	3
434.306	2.93
434.511	2.91
434.716	2.87
434.921	2.94
435.126	2.89
435.331	2.81
435.535	2.94
435.74	2.92
435.945	2.76
436.15	2.66
436.355	2.54
436.56	2.72
436.765	2.8
436.97	2.59
437.174	2.61
437.379	2.85
437.584	3.06
437.789	2.78
437.993	2.75
438.198	2.83
438.403	2.82
438.608	2.83
438.812	2.78
439.017	2.66
439.222	2.9
439.426	2.9
439.631	2.68
439.836	2.7
440.04	2.71
440.245	2.76
440.45	2.69
440.654	2.68
440.859	2.64
441.063	2.58
441.268	2.61
441.472	2.58
441.677	2.45
441.881	2.64
442.086	2.63
442.29	2.78
442.495	2.86
442.699	3.02
442.904	2.99
443.108	2.9
443.312	2.86
443.517	2.92
443.721	3.03
443.925	3.13
444.13	3.03
444.334	2.9
444.538	2.91
444.743	2.92
444.947	2.84
445.151	2.92
445.356	3.07
445.56	3.02
445.764	3.03
445.968	2.93
446.173	2.97
446.377	2.85
446.581	2.92
446.785	2.72
446.989	2.52
447.193	2.49
447.398	2.41
447.602	2.37
447.806	2.37
448.01	2.29
448.214	2.2
448.418	2.2
448.622	2.3
448.826	2.4
449.03	2.6
449.234	2.69
449.438	2.72
449.642	2.7
449.846	2.67
450.05	2.7
450.254	2.82
450.458	2.92
450.662	2.58
450.866	2.71
451.069	2.46
451.273	2.38
451.477	2.54
451.681	2.52
451.885	2.5
452.089	2.51
452.292	2.76
452.496	2.67
452.7	2.53
452.904	2.95
453.107	2.85
453.311	2.97
453.515	3
453.719	2.99
453.922	3.24
454.126	3.26
454.33	3.31
454.533	3
454.737	3.04
454.94	3.2
455.144	3.03
455.348	3.13
455.551	3.24
455.755	3.23
455.958	3.31
456.162	3.17
456.365	3.14
456.569	2.97
456.772	2.98
456.976	2.79
457.179	2.63
457.383	2.48
457.586	2.54
457.79	2.14
457.993	2.3
458.196	2.07
458.4	1.94
458.603	2.09
458.807	2.21
459.01	2.32
459.213	2.33
459.417	2.5
459.62	2.67
459.823	2.61
460.026	2.83
460.23	2.69
460.433	2.79
460.636	2.89
460.839	2.79
461.042	2.79
461.246	2.74
461.449	2.87
461.652	2.77
461.855	2.8
462.058	2.85
462.261	2.85
462.464	2.73
462.668	2.75
462.871	2.63
463.074	2.71
463.277	2.72
463.48	2.65
463.683	2.53
463.886	2.64
464.089	2.46
464.292	2.41
464.495	2.47
464.698	2.64
464.901	2.46
465.104	2.6
465.306	2.63
465.509	2.77
465.712	3.08
465.915	3.15
466.118	3.14
466.321	3.11
466.524	3.05
466.726	3
466.929	3.02
467.132	3.1
467.335	3.03
467.538	3.07
467.74	2.93
467.943	2.79
468.146	2.87
468.348	2.69
468.551	2.98
468.754	3.09
468.956	3.03
469.159	3.04
469.362	3.09
469.564	3.15
469.767	3.1
469.969	3.02
470.172	3.22
470.375	3.27
470.577	3.43
470.78	3.25
470.982	3.06
471.185	2.92
471.387	2.93
471.59	3.04
471.792	3.04
471.995	2.97
472.197	3.14
472.399	2.96
472.602	2.96
472.804	2.92
473.007	2.87
473.209	2.98
473.411	3.08
473.614	3.11
473.816	3.07
474.018	3.07
474.22	3.08
474.423	3.06
474.625	3.01
474.827	2.78
475.03	2.83
475.232	3.04
475.434	3.12
475.636	3.06
475.838	3.07
476.04	2.92
476.243	2.92
476.445	2.94
476.647	2.82
476.849	2.92
477.051	3.07
477.253	2.99
477.455	2.9
477.657	2.78
477.859	2.96
478.061	2.94
478.263	3.07
478.465	3.07
478.667	3.04
478.869	2.96
479.071	2.89
479.273	2.8
479.475	2.88
479.677	2.98
479.879	2.92
480.081	2.77
480.283	2.76
480.485	2.8
480.686	2.71
480.888	2.71
481.09	2.88
481.292	2.86
481.494	2.85
481.695	2.82
481.897	2.56
482.099	2.64
482.301	2.61
482.502	2.54
482.704	2.52
482.906	2.56
483.107	2.59
483.309	2.62
483.511	2.62
483.712	2.64
483.914	2.62
484.115	2.67
484.317	2.67
484.519	2.71
484.72	2.72
484.922	2.7
485.123	2.71
485.325	2.71
485.526	2.66
485.728	2.67
485.929	2.68
486.131	2.67
486.332	2.65
486.534	2.57
486.735	2.62
486.936	2.66
487.138	2.64
487.339	2.6
487.541	2.62
487.742	2.66
487.943	2.55
488.144	2.56
488.346	2.61
488.547	2.68
488.748	2.71
488.95	2.62
489.151	2.66
489.352	2.63
489.553	2.66
489.755	2.64
489.956	2.63
490.157	2.76
490.358	2.65
490.559	2.61
490.76	2.55
490.961	2.57
491.163	2.63
491.364	2.58
491.565	2.67
491.766	2.69
491.967	2.74
492.168	2.7
492.369	2.75
492.57	2.92
492.771	2.88
492.972	2.9
493.173	2.99
493.374	2.9
493.575	2.88
493.776	2.92
493.976	2.95
494.177	3.03
494.378	3.16
494.579	3.11
494.78	3.04
494.981	3.15
495.182	3.12
495.382	3.1
495.583	3.28
495.784	3.24
495.985	3.23
496.185	3.29
496.386	3.12
496.587	3.13
496.788	3.18
496.988	3.19
497.189	3.15
497.39	3.19
497.59	3.2
497.791	3.07
497.992	3.17
498.192	3.15
498.393	3.11
498.593	3.22
498.794	3.05
498.994	2.97
499.195	2.82
499.395	2.9
499.596	3.03
499.796	3.02
499.997	3.04
500.197	3.06
500.398	3.03
500.598	3.2
500.799	3.03
500.999	3.05
501.199	2.94
501.4	2.96
501.6	2.96
501.801	2.83
502.001	2.89
502.201	2.93
502.402	2.86
502.602	2.84
502.802	2.64
503.002	2.69
503.203	2.85
503.403	3.04
503.603	3.15
503.803	3.2
504.003	3.19
504.204	3.17
504.404	3.19
504.604	3.13
504.804	3.21
505.004	3.17
505.204	3.31
505.404	3.14
505.604	3.06
505.804	3.01
506.005	3
506.205	3.12
506.405	3.04
506.605	3.11
506.805	3.14
507.005	2.93
507.204	2.92
507.404	2.81
507.604	3.04
507.804	3.04
508.004	3.09
508.204	3.09
508.404	2.98
508.604	3.07
508.804	2.93
509.003	2.94
509.203	3.08
509.403	3.08
509.603	3.03
509.803	2.97
510.002	3.06
510.202	3.1
510.402	3.03
510.602	3.05
510.801	3.09
511.001	3.23
511.201	3.3
511.4	3.27
511.6	3.34
511.8	3.24
511.999	3.1
512.199	3.05
512.398	3.03
512.598	3.12
512.797	3
512.997	3.06
513.197	3.02
513.396	2.99
513.596	3.04
513.795	2.88
513.994	3.12
514.194	3.26
514.393	3.38
514.593	3.47
514.792	3.47
514.992	3.56
515.191	3.48
515.39	3.67
515.59	3.82
515.789	3.82
515.988	4.16
516.188	4.1
516.387	4.03
516.586	3.94
516.786	3.82
516.985	3.64
517.184	3.84
517.383	3.81
517.582	3.7
517.782	3.57
517.981	3.6
518.18	3.39
518.379	3.46
518.578	3.51
518.777	3.54
518.976	3.69
519.176	3.8
519.375	3.72
519.574	3.6
519.773	3.64
519.972	3.71
520.171	3.77
520.37	3.79
520.569	3.75
520.768	3.56
520.967	3.57
521.166	3.48
521.365	3.62
521.564	3.56
521.762	3.72
521.961	3.62
522.16	3.59
522.359	3.5
522.558	3.57
522.757	3.51
522.956	3.7
523.154	3.58
523.353	3.62
523.552	3.5
523.751	3.53
523.949	3.48
524.148	3.58
524.347	3.68
524.546	3.67
524.744	3.7
524.943	3.74
525.142	3.75
525.34	3.93
525.539	3.88
525.737	3.84
525.936	3.87
526.135	3.94
526.333	3.88
526.532	3.83
526.73	3.87
526.929	3.91
527.127	3.95
527.326	4.01
527.524	3.93
527.723	3.92
527.921	4
528.12	3.96
528.318	4
528.516	4.08
528.715	4.09
528.913	4.08
529.112	4.06
529.31	4.03
529.508	4.03
529.707	4.03
529.905	4.1
530.103	4.04
530.301	4.07
530.5	4.02
530.698	3.96
530.896	4.07
531.094	4.14
531.293	4.19
531.491	4.19
531.689	4.18
531.887	4.26
532.085	4.2
532.283	4.24
532.481	4.21
532.68	4.41
532.878	4.47
533.076	4.38
533.274	4.27
533.472	4.3
533.67	4.38
533.868	4.39
534.066	4.45
534.264	4.42
534.462	4.42
534.66	4.59
534.858	4.45
535.056	4.41
535.253	4.5
535.451	4.61
535.649	4.63
535.847	4.59
536.045	4.66
536.243	4.61
536.441	4.6
536.638	4.72
536.836	4.59
537.034	4.6
537.232	4.59
537.43	4.5
537.627	4.5
537.825	4.38
538.023	4.46
538.22	4.42
538.418	4.51
538.616	4.73
538.813	4.73
539.011	4.78
539.209	4.89
539.406	5.06
539.604	5.13
539.801	5.27
539.999	5.44
540.196	5.38
540.394	5.35
540.591	5.33
540.789	5.26
540.986	5.21
541.184	5.23
541.381	5.23
541.579	5.21
541.776	5.25
541.974	5.2
542.171	5.22
542.368	5.25
542.566	5.3
542.763	5.33
542.96	5.3
543.158	5.38
543.355	5.37
543.552	5.44
543.75	5.48
543.947	5.46
544.144	5.49
544.341	5.51
544.539	5.64
544.736	5.75
544.933	5.69
545.13	5.83
545.327	5.93
545.524	6.05
545.722	5.97
545.919	5.99
546.116	6.06
546.313	6.12
546.51	6.19
546.707	6.19
546.904	6.21
547.101	6.36
547.298	6.28
547.495	6.23
547.692	6.31
547.889	6.36
548.086	6.33
548.283	6.38
548.48	6.41
548.677	6.35
548.874	6.3
549.07	6.2
549.267	6.11
549.464	6.28
549.661	6.32
549.858	6.36
550.055	6.38
550.251	6.41
550.448	6.36
550.645	6.38
550.842	6.44
551.038	6.54
551.235	6.71
551.432	6.6
551.628	6.73
551.825	6.75
552.022	6.75
552.218	6.92
552.415	6.99
552.612	7.08
552.808	7.18
553.005	7.21
553.201	7.22
553.398	7.32
553.594	7.52
553.791	7.61
553.987	7.83
554.184	7.85
554.38	7.86
554.577	8.06
554.773	8.11
554.97	8.12
555.166	7.99
555.362	8.22
555.559	8.18
555.755	8.3
555.952	8.27
556.148	8.07
556.344	8.13
556.541	8.16
556.737	8.16
556.933	8.37
557.129	8.59
557.326	8.89
557.522	8.88
557.718	8.76
557.914	8.79
558.11	8.78
558.307	9.1
558.503	9.28
558.699	9.52
558.895	9.57
559.091	9.46
559.287	9.19
559.483	9.35
559.679	9.26
559.876	9.62
560.072	9.61
560.268	9.72
560.464	9.57
560.66	9.66
560.856	9.53
561.052	9.46
561.247	9.64
561.443	9.84
561.639	9.75
561.835	9.89
562.031	9.75
562.227	9.81
562.423	9.9
562.619	10.01
562.815	9.94
563.01	9.99
563.206	10.05
563.402	9.96
563.598	10.07
563.793	10.07
563.989	10.11
564.185	10.37
564.381	10.43
564.576	10.37
564.772	10.44
564.968	10.51
565.163	10.64
565.359	10.71
565.555	10.97
565.75	11.13
565.946	11.19
566.141	11.29
566.337	11.35
566.532	11.58
566.728	11.65
566.923	11.73
567.119	11.75
567.314	11.79
567.51	11.83
567.705	11.87
567.901	11.92
568.096	11.84
568.292	11.73
568.487	11.55
568.682	11.47
568.878	11.72
569.073	11.74
569.268	11.77
569.464	11.76
569.659	11.85
569.854	11.75
570.05	11.66
570.245	11.9
570.44	12.17
570.635	12.28
570.831	12.21
571.026	12.18
571.221	12.2
571.416	12.18
571.611	12.18
571.806	12.25
572.002	12.32
572.197	12.52
572.392	12.55
572.587	12.55
572.782	12.66
572.977	12.71
573.172	12.65
573.367	12.63
573.562	12.77
573.757	12.8
573.952	12.78
574.147	12.92
574.342	12.74
574.537	12.81
574.732	12.77
574.927	12.65
575.121	12.61
575.316	12.69
575.511	12.61
575.706	12.57
575.901	12.67
576.096	12.91
576.29	12.87
576.485	12.78
576.68	12.68
576.875	12.86
577.069	13
577.264	13.2
577.459	13.17
577.654	13.44
577.848	13.49
578.043	13.68
578.238	13.42
578.432	13.72
578.627	13.88
578.821	14.07
579.016	14.05
579.21	14.15
579.405	14.38
579.6	14.48
579.794	14.32
579.989	14.1
580.183	14.17
580.378	14.44
580.572	14.25
580.766	14.3
580.961	14.17
581.155	13.75
581.35	13.8
581.544	13.61
581.738	13.67
581.933	13.92
582.127	14.05
582.321	14.06
582.516	14.23
582.71	13.99
582.904	14.12
583.099	14.23
583.293	14.22
583.487	14.17
583.681	14.37
583.875	14.23
584.07	14.39
584.264	14.69
584.458	14.11
584.652	13.63
584.846	13.97
585.04	14.01
585.234	13.94
585.428	14.51
585.623	14.74
585.817	14.8
586.011	14.76
586.205	14.59
586.399	14.3
586.593	14.63
586.787	14.78
586.981	14.5
587.174	14.46
587.368	14.49
587.562	14.35
587.756	14.21
587.95	14.1
588.144	14.25
588.338	14.34
588.532	14.58
588.725	14.89
588.919	14.88
589.113	15.06
589.307	15.23
589.501	15.11
589.694	15.28
589.888	15.32
590.082	15.23
590.275	15.32
590.469	15.04
590.663	15.02
590.856	14.88
591.05	15.03
591.244	14.92
591.437	14.65
591.631	15.08
591.824	14.96
592.018	15.03
592.212	14.93
592.405	14.83
592.599	14.93
592.792	14.97
592.986	14.99
593.179	14.86
593.372	15.05
593.566	15.07
593.759	14.93
593.953	14.9
594.146	14.75
594.339	15.11
594.533	15.26
594.726	15.31
594.92	15.42
595.113	15.6
595.306	15.51
595.499	15.58
595.693	15.74
595.886	15.73
596.079	15.8
596.272	15.84
596.466	15.79
596.659	15.71
596.852	15.6
597.045	15.67
597.238	15.75
597.431	15.87
597.624	15.75
597.818	15.86
598.011	15.97
598.204	16.03
598.397	16.03
598.59	15.94
598.783	15.75
598.976	15.99
599.169	15.87
599.362	15.47
599.555	15.69
599.748	15.63
599.941	15.33
600.134	15.3
600.326	15.22
600.519	15.46
600.712	15.42
600.905	15.78
601.098	15.69
601.291	15.72
601.483	15.79
601.676	15.71
601.869	15.89
602.062	16.07
602.255	15.82
602.447	15.76
602.64	15.6
602.833	15.56
603.025	15.51
603.218	15.72
603.411	15.81
603.603	15.92
603.796	15.87
603.989	15.86
604.181	15.83
604.374	16.02
604.566	16.08
604.759	16.09
604.951	16.23
605.144	16.28
605.336	16.2
605.529	16.15
605.721	16.25
605.914	16.1
606.106	15.83
606.299	15.78
606.491	15.89
606.683	15.75
606.876	15.69
607.068	15.54
607.26	15.58
607.453	15.55
607.645	15.3
607.837	15.12
608.03	15.31
608.222	15.32
608.414	15.41
608.606	15.25
608.799	15.55
608.991	15.63
609.183	15.69
609.375	15.61
609.567	15.76
609.759	15.97
609.952	15.81
610.144	15.86
610.336	16.08
610.528	15.87
610.72	15.78
610.912	15.64
611.104	15.53
611.296	15.46
611.488	15.36
611.68	15.08
611.872	14.85
612.064	15.01
612.256	15
612.448	14.89
612.64	15.12
612.832	14.92
613.023	14.88
613.215	14.99
613.407	15.21
613.599	15.25
613.791	15.44
613.983	15.46
614.174	15.47
614.366	15.34
614.558	15.55
614.75	15.34
614.941	15.66
615.133	15.72
615.325	15.77
615.516	15.49
615.708	15.54
615.9	15.69
616.091	15.83
616.283	15.59
616.475	15.53
616.666	15.45
616.858	15.94
617.049	15.94
617.241	15.85
617.432	15.82
617.624	16.16
617.815	16.16
618.007	16.21
618.198	16.4
618.39	16.82
618.581	17.01
618.773	17.06
618.964	16.5
619.155	16.67
619.347	16.5
619.538	16.38
619.729	15.96
619.921	16.34
620.112	15.93
620.303	15.81
620.494	15.91
620.686	16.07
620.877	15.88
621.068	16.25
621.259	16.22
621.451	16.03
621.642	16.1
621.833	16.37
622.024	16.07
622.215	16.29
622.406	16.14
622.597	15.92
622.788	15.84
622.98	15.78
623.171	15.81
623.362	15.58
623.553	15.86
623.744	15.92
623.935	15.84
624.126	15.8
624.317	16.1
624.508	16.3
624.698	16.4
624.889	16.15
625.08	16.44
625.271	16.29
625.462	16.21
625.653	16.37
625.844	16.5
626.034	16.57
626.225	16.61
626.416	16.51
626.607	16.32
626.798	16.44
626.988	16.73
627.179	16.38
627.37	16.49
627.56	16.74
627.751	16.62
627.942	16.73
628.132	16.76
628.323	16.92
628.514	16.74
628.704	17.05
628.895	16.96
629.085	16.89
629.276	17.17
629.466	16.89
629.657	16.96
629.847	17.2
630.038	17.22
630.228	17.03
630.419	16.66
630.609	16.71
630.8	16.47
630.99	16.31
631.181	16.1
631.371	16.27
631.561	16.54
631.752	16.55
631.942	16.62
632.132	16.42
632.323	16.49
632.513	16.74
632.703	16.97
632.893	17.09
633.084	17.28
633.274	17.06
633.464	17.04
633.654	16.86
633.844	16.71
634.034	16.81
634.225	16.64
634.415	16.65
634.605	16.51
634.795	16.42
634.985	16.3
635.175	16.41
635.365	16.65
635.555	16.57
635.745	16.61
635.935	16.98
636.125	16.41
636.315	16.65
636.505	16.79
636.695	16.93
636.885	16.86
637.075	17.07
637.265	16.64
637.455	16.77
637.644	16.8
637.834	17.37
638.024	17.04
638.214	17.58
638.404	17.36
638.593	17.61
638.783	17.52
638.973	17.44
639.163	17.15
639.352	17.28
639.542	17.21
639.732	17.31
639.921	16.62
640.111	16.62
640.301	16.12
640.49	16.22
640.68	15.99
640.87	16.1
641.059	16.64
641.249	16.96
641.438	17.13
641.628	17.11
641.817	16.88
642.007	17.3
642.196	17.25
642.386	17.56
642.575	17.66
642.764	17.31
642.954	17.26
643.143	16.68
643.333	16.47
643.522	16.28
643.711	16.69
643.901	17.06
644.09	17
644.279	16.85
644.469	16.68
644.658	16.63
644.847	16.83
645.036	16.78
645.226	16.29
645.415	16.36
645.604	16.24
645.793	15.99
645.982	15.64
646.171	15.49
646.361	15.53
646.55	15.98
646.739	15.96
646.928	16.05
647.117	15.93
647.306	16.75
647.495	16.61
647.684	16.84
647.873	16.57
648.062	16.45
648.251	16.13
648.44	16.37
648.629	16.05
648.818	16.17
649.007	15.95
649.196	16.4
649.384	15.97
649.573	16.32
649.762	16.63
649.951	17.26
650.14	17.41
650.328	17.78
650.517	17.7
650.706	18.09
650.895	17.76
651.083	17.66
651.272	17.24
651.461	17.48
651.65	17.2
651.838	16.75
652.027	16.36
652.216	16.4
652.404	16.72
652.593	16.66
652.781	16.32
652.97	16.86
653.158	17.18
653.347	17.71
653.535	17.6
653.724	17.66
653.912	17.65
654.101	17.85
654.289	18.16
654.478	17.42
654.666	17.99
654.855	18.12
655.043	18.1
655.231	17.8
655.42	17.65
655.608	17.56
655.796	17.85
655.985	18.02
656.173	17.66
656.361	17.69
656.55	18.49
656.738	18.29
656.926	18.2
657.114	17.91
657.302	18.13
657.491	17.97
657.679	18.36
657.867	18.07
658.055	18.03
658.243	18.08
658.431	17.76
658.619	17.71
658.807	17.32
658.996	17
659.184	17.49
659.372	17.7
659.56	17.67
659.748	17.39
659.936	17.8
660.124	17.66
660.311	17.69
660.499	17.7
660.687	17.62
660.875	17.65
661.063	18.06
661.251	17.83
661.439	17.5
661.627	17.67
661.814	17.91
662.002	17.33
662.19	17.51
662.378	17.31
662.565	17.25
662.753	17.4
662.941	18.04
663.129	17.8
663.316	17.66
663.504	17.67
663.692	17.59
663.879	17.3
664.067	17.36
664.254	17.68
664.442	17.92
664.63	17.77
664.817	17.34
665.005	16.81
665.192	16.52
665.38	16.35
665.567	16.28
665.755	16.1
665.942	16.34
666.13	16.58
666.317	16.42
666.504	16.3
666.692	16.59
666.879	16.99
667.067	17.34
667.254	17.25
667.441	17.42
667.629	17.72
667.816	17.77
668.003	18.02
668.19	17.81
668.378	17.42
668.565	17.5
668.752	17.43
668.939	16.94
669.127	16.78
669.314	17.43
669.501	17.57
669.688	17.48
669.875	17.65
670.062	17.3
670.249	17.63
670.436	17.96
670.623	18.05
670.81	17.76
670.997	18.34
671.184	18.17
671.371	17.81
671.558	17.46
671.745	17.33
671.932	17.15
672.119	17.19
672.306	16.75
672.493	16.51
672.68	16.31
672.867	16.68
673.054	16.06
673.24	16.34
673.427	16.57
673.614	17.27
673.801	17.02
673.988	16.6
674.174	16.9
674.361	17.21
674.548	17.4
674.734	17.67
674.921	17.76
675.108	18.04
675.294	17.53
675.481	17.3
675.668	16.83
675.854	17.63
676.041	18.75
676.227	18.48
676.414	18.14
676.601	18.34
676.787	17.9
676.974	17.6
677.16	17.46
677.347	17.78
677.533	17.76
677.719	17.99
677.906	17.87
678.092	17.28
678.279	17.24
678.465	17.82
678.651	17.61
678.838	18.12
679.024	18.25
679.21	18.36
679.397	18.57
679.583	18.9
679.769	18.76
679.955	18.37
680.142	18.12
680.328	18.51
680.514	18.27
680.7	18.68
680.886	18.56
681.073	18.81
681.259	18.77
681.445	18.21
681.631	17.96
681.817	17.56
682.003	17.62
682.189	17.69
682.375	17.47
682.561	17.56
682.747	17.63
682.933	17.72
683.119	17.47
683.305	17.02
683.491	17.51
683.677	18.22
683.863	18.67
684.049	19.2
684.235	19.52
684.42	19.63
684.606	19.57
684.792	19.32
684.978	19.26
685.164	19.19
685.349	19.71
685.535	19.51
685.721	18.41
685.907	18.11
686.092	17.63
686.278	17.71
686.464	17.42
686.649	17.46
686.835	17.47
687.021	17.5
687.206	17.73
687.392	17.9
687.577	17.98
687.763	18.05
687.948	18.44
688.134	18.01
688.319	18.28
688.505	18.32
688.69	18.05
688.876	17.91
689.061	17.6
689.247	17.65
689.432	17.4
689.618	17.48
689.803	17.4
689.988	17.44
690.174	17.81
690.359	17.57
690.544	17.63
690.73	18.2
690.915	18.09
691.1	18.42
691.285	18.21
691.471	18.48
691.656	18.12
691.841	18.72
692.026	18.3
692.211	18.33
692.396	17.73
692.582	17.57
692.767	17.31
692.952	17.27
693.137	16.59
693.322	16.43
693.507	16.67
693.692	16.37
693.877	15.99
694.062	16.07
694.247	16.28
694.432	16.36
694.617	16.09
694.802	16.08
694.987	15.68
695.172	16.27
695.357	16.39
695.541	15.97
695.726	16.41
695.911	16.33
696.096	16.44
696.281	16.36
696.466	16.9
696.65	17.26
696.835	17.5
697.02	18.33
697.204	18.02
697.389	18.33
697.574	18.39
697.759	18.67
697.943	18.87
698.128	18.69
698.312	18.79
698.497	18.64
698.682	18.98
698.866	18.76
699.051	18.61
699.235	19.25
699.42	19.07
699.604	19.27
699.789	19.41
699.973	19.44
700.158	19.91
700.342	19.76
700.527	20.01
700.711	19.18
700.895	18.91
701.08	19.18
701.264	19.32
701.448	19.11
701.633	19.08
701.817	18.58
702.001	18.63
702.186	18.21
702.37	18.74
702.554	18.72
702.738	19.51
702.923	19.59
703.107	19.04
703.291	17.46
703.475	17.82
703.659	17.06
703.843	16.25
704.027	16.02
704.212	15.81
704.396	14.92
704.58	14.91
704.764	14.83
704.948	15.75
705.132	16.3
705.316	16.77
705.5	16.76
705.684	17.43
705.868	18.32
706.052	18.71
706.235	18.98
706.419	19.6
706.603	18.94
706.787	19.14
706.971	18.44
707.155	18.25
707.339	18.47
707.522	18.62
707.706	17.49
707.89	17.39
708.074	17.62
708.257	18.04
708.441	18.57
708.625	19.11
708.808	18.5
708.992	18.61
709.176	18.43
709.359	18.23
709.543	18.16
709.727	19.29
709.91	19.3
710.094	19.11
710.277	19.22
710.461	18.27
710.644	18.34
710.828	18.6
711.011	18.83
711.195	19.07
711.378	19.77
711.562	19.59
711.745	18.99
711.928	19.71
712.112	20.05
712.295	19.48
712.478	19.85
712.662	19.82
712.845	20.08
713.028	20.11
713.212	20
713.395	19.71
713.578	19.93
713.761	20.08
713.945	19.56
714.128	18.83
714.311	18.99
714.494	19.46
714.677	19.01
714.86	19.08
715.043	19.34
715.227	18.59
715.41	18.51
715.593	18.59
715.776	18.97
715.959	18.65
716.142	18.39
716.325	18.66
716.508	18.93
716.691	19.17
716.874	18.87
717.057	18.32
717.239	18.83
717.422	19.33
717.605	18.95
717.788	18.53
717.971	19.07
718.154	19.77
718.337	19.54
718.519	19.02
718.702	20.05
718.885	20.6
719.068	20.82
719.25	20.44
719.433	19.16
719.616	19.03
719.798	19.82
719.981	19.59
720.164	19.71
720.346	18.61
720.529	17.86
720.712	16.82
720.894	16.23
721.077	15.72
721.259	17.12
721.442	17.63
721.624	18.3
721.807	17.92
721.989	18.45
722.172	18.27
722.354	19.08
722.537	19.35
722.719	19.84
722.901	20.6
723.084	20.66
723.266	19.05
723.448	19.2
723.631	18.09
723.813	17.53
723.995	17.59
724.178	18
724.36	18.77
724.542	18.36
724.724	17.72
724.907	17.24
725.089	18.19
725.271	19.5
725.453	19.14
725.635	19.62
725.817	19.96
725.999	19.47
726.181	19.43
726.364	19.13
726.546	19.96
726.728	19
726.91	18.8
727.092	18.53
727.274	17.91
727.456	19.06
727.638	19.57
727.819	19.74
728.001	19.84
728.183	19.68
728.365	19.06
728.547	18.43
728.729	19.76
728.911	19.58
729.093	19.12
729.274	19.01
729.456	17.96
729.638	18.36
729.82	18.12
730.001	18.63
730.183	18.6
730.365	18.23
730.546	19.25
730.728	17.9
730.91	18.08
731.091	18.09
731.273	18.69
731.455	18.81
731.636	18.21
731.818	17.87
731.999	17.46
732.181	17.11
732.362	17.96
732.544	18.3
732.725	19.92
732.907	19.71
733.088	19.39
733.27	18.75
733.451	19.61
733.633	18.98
733.814	20.06
733.995	19.96
734.177	19.84
734.358	20.14
734.539	18.76
734.721	18.15
734.902	18.48
735.083	18.78
735.264	19.75
735.446	19.46
735.627	19.54
735.808	18.85
735.989	18.94
736.17	18.52
736.351	18.6
736.533	19.18
736.714	18.8
736.895	18.81
737.076	18.18
737.257	17.55
737.438	17.3
737.619	19.16
737.8	18.87
737.981	18.53
738.162	19.77
738.343	18.21
738.524	17.67
738.705	17.72
738.886	18.52
739.067	20.34
739.247	19.59
739.428	19.3
739.609	18.45
739.79	18.41
739.971	20.29
740.151	20.09
740.332	21.68
740.513	22.34
740.694	23.54
740.874	22.22
741.055	21.05
741.236	22.01
741.417	22.28
741.597	22.25
741.778	22.21
741.958	20.46
742.139	19.07
742.32	19.29
742.5	19.83
742.681	18.31
742.861	18.61
743.042	18.82
743.222	19.35
743.403	17.95
743.583	18.08
743.764	19.2
743.944	18.07
744.124	18.54
744.305	18.74
744.485	16.97
744.666	18.64
744.846	18.96
745.026	17.95
745.207	17.81
745.387	20.17
745.567	19.41
745.747	19.1
745.928	19.54
746.108	20.06
746.288	19.5
746.468	20.03
746.648	18.82
746.829	18.03
747.009	18.93
747.189	18.74
747.369	17.92
747.549	17.99
747.729	17.56
747.909	19.54
748.089	19.44
748.269	18.78
748.449	19.94
748.629	19.65
748.809	20.72
748.989	21.39
749.169	21.08
749.349	21.15
749.529	21.79
749.709	22.38
749.889	20.63
750.068	21.89
750.248	21.68
750.428	20.37
750.608	20.23
750.788	19.49
750.967	18.8
751.147	19.81
751.327	18.31
751.507	17.7
751.686	16.06
751.866	16.79
752.046	14.56
752.225	14.78
752.405	15.09
752.585	15.77
752.764	17.16
752.944	17.25
753.123	16.37
753.303	17.6
753.482	17.3
753.662	18.04
753.841	17.4
754.021	17.51
754.2	18.63
754.38	18.52
754.559	18.95
754.739	18.63
754.918	17.68
755.097	17.09
755.277	16.75
755.456	16.19
755.635	16.32
755.815	16.56
755.994	18.12
756.173	16.94
756.352	17.86
756.532	17.26
756.711	16.79
756.89	18.14
757.069	17.16
757.248	15.98
757.427	16.24
757.607	16.13
757.786	15.05
757.965	14.91
758.144	15.28
758.323	15.04
758.502	15.2
758.681	13.56
758.86	12.57
759.039	13.05
759.218	14.32
759.397	16.14
759.576	15.65
759.755	16.84
759.934	16.82
760.113	16.21
760.291	15.66
760.47	14.34
760.649	15.51
760.828	17.1
761.007	17.74
761.186	18.09
761.364	16.88
761.543	16.81
761.722	16.15
761.901	15.76
762.079	16.2
762.258	17.57
762.437	18.49
762.615	18.91
762.794	18.92
762.972	19.61
763.151	20.14
763.33	20.73
763.508	22.1
763.687	22.79
763.865	22.63
764.044	23.21
764.222	22.99
764.401	22.91
764.579	23.31
764.758	22.53
764.936	22.95
765.114	22.78
765.293	21.76
765.471	20.31
765.65	21.11
765.828	22.42
766.006	21.96
766.184	20.35
766.363	20.09
766.541	19.48
766.719	21.04
766.898	20.78
767.076	20.61
767.254	21.54
767.432	22.79
767.61	22.32
767.788	21.33
767.967	20.95
768.145	22.12
768.323	22.83
768.501	23.47
768.679	23.65
768.857	21.3
769.035	20.5
769.213	21.25
769.391	18.09
769.569	17.39
769.747	17.98
769.925	17.3
770.103	16.92
770.281	16.9
770.459	15.34
770.636	13.75
770.814	16.23
770.992	16.58
771.17	14.78
771.348	17.43
771.525	16.66
771.703	16.02
771.881	15.08
772.059	14.93
772.236	14.45
772.414	15.54
772.592	15.56
772.769	14.29
772.947	15.49
773.125	18.05
773.302	19.49
773.48	20.12
773.657	20.75
773.835	23.04
774.013	23.92
774.19	24.47
774.368	25.27
774.545	23.85
774.723	23.8
774.9	24.12
775.077	22.34
775.255	21.68
775.432	21.44
775.61	19.77
775.787	20.76
775.964	18.25
776.142	17.4
776.319	16.83
776.496	16.74
776.674	18
776.851	16.91
777.028	16.57
777.205	13.65
777.382	14.03
777.56	14.39
777.737	13.48
777.914	15.9
778.091	18.44
778.268	18.26
778.445	20.37
778.622	17.94
778.8	17.73
778.977	18.41
779.154	19.45
779.331	20.01
779.508	21.35
779.685	20.78
779.862	21.03
780.038	19.98
780.215	20.32
780.392	19.17
780.569	21.44
780.746	21.33
780.923	22.93
781.1	24.49
781.277	24.31
781.453	20.14
781.63	20.78
781.807	18.79
781.984	16.97
782.16	15.3
782.337	14.49
782.514	12.51
782.691	11.81
782.867	8.23
783.044	10.78
783.221	8.3
783.397	12.93
783.574	12.25
783.75	14.31
783.927	15.49
784.103	13.33
784.28	12.46
784.456	12.82
784.633	13.12
784.809	17.6
784.986	17.2
785.162	18.88
785.339	16.46
785.515	15.93
785.692	16.03
785.868	14.99
786.044	16.61
786.221	18.44
786.397	17.03
786.573	14.85
786.749	14.36
786.926	12.21
787.102	13.33
787.278	16.35
787.454	17.24
787.631	15.57
787.807	16.87
787.983	21
788.159	21.16
788.335	24.49
788.511	27.01
788.687	24.08
788.863	24.42
789.039	23.55
789.216	24.59
789.392	25.03
789.568	25.83
789.744	24.93
789.919	21.98
790.095	24.56
790.271	24.3
790.447	24.31
790.623	24.89
790.799	23.86
790.975	22.54
791.151	21.27
791.327	19.86
791.502	21.19
791.678	23.34
791.854	22.5
792.03	21
792.205	20.11
792.381	18.84
792.557	18.67
792.733	20.69
792.908	21.62
793.084	20.95
793.259	20.68
793.435	18.13
793.611	16.42
793.786	18.49
793.962	15
794.137	13.46
794.313	14.37
794.488	15.04
794.664	13.97
794.839	15.36
795.015	14.46
795.19	16.71
795.366	19.1
795.541	20.1
795.716	18.28
795.892	21.05
796.067	20.83
796.242	19.19
796.418	20.47
796.593	20.22
796.768	20.3
796.944	20.95
797.119	22.37
797.294	20.15
797.469	19.05
797.644	18.91
797.82	16.81
797.995	17.37
798.17	18.06
798.345	17.83
798.52	15.95
798.695	14.52
798.87	17.99
799.045	15.68
799.22	17.09
799.395	18.21
799.57	18.22
799.745	22.49
799.92	24.09
800.095	27.51
800.27	26.2
800.445	28.03
800.62	29.5
800.795	24.95
800.97	24.59
801.145	20.63
801.319	18.55
801.494	19.18
801.669	17.52
801.844	14.24
802.018	11.49
802.193	11.14
802.368	10.31
802.543	8.38
802.717	9.61
802.892	9.42
803.067	10.33
803.241	8.88
803.416	8.69
803.59	7.01
803.765	10.47
803.94	11.44
804.114	14.58
804.289	13.47
804.463	12.13
804.638	14.5
804.812	17.95
804.986	20.43
805.161	24.56
805.335	25.66
805.51	26.78
805.684	25.28
805.858	24.26
806.033	22.93
806.207	27.03
806.381	27.52
806.556	28.23
806.73	29.82
806.904	31.06
807.078	29.19
807.253	25.87
807.427	24.39
807.601	23.64
807.775	20.74
807.949	20.51
808.123	20.36
808.298	22.63
808.472	18.37
808.646	13.92
808.82	13.16
808.994	13.19
809.168	13.53
809.342	14.86
809.516	15.07
809.69	18.39
809.864	19.21
810.038	20.37
810.212	23.49
810.385	27.41
810.559	29.27
810.733	29.75
810.907	27.02
811.081	26.82
811.255	23.45
811.428	24.61
811.602	21.12
811.776	18.24
811.95	16.12
812.123	10.18
812.297	9.26
812.471	9.34
812.644	7.72
812.818	8.05
812.992	6.03
813.165	4.9
813.339	8.58
813.512	6.48
813.686	8.86
813.86	13.07
814.033	13.37
814.207	10.63
814.38	6.81
814.554	4.54
814.727	9.56
814.9	14.34
815.074	19.01
815.247	18.73
815.421	21.91
815.594	23.01
815.767	17.62
815.941	21.71
816.114	23.65
816.287	28.62
816.46	28.29
816.634	27.14
816.807	24.33
816.98	23.99
817.153	23.88
817.327	23.65
817.5	23.64
817.673	25.56
817.846	25.08
818.019	24.06
818.192	19.09
818.365	23.72
818.538	23.34
818.711	31.08
818.884	29.8
819.057	26.71
819.23	28.49
819.403	30.23
819.576	28.46
819.749	25.07
819.922	26.44
820.095	24.82
820.268	23.26
820.441	21.32
820.614	20.81
820.786	20.8
820.959	22.19
821.132	21.39
821.305	21.27
821.477	20.81
821.65	20.71
821.823	20.77
821.996	22.04
822.168	22.49
822.341	23.68
822.514	21.84
822.686	21.69
822.859	20.98
823.031	20.61
823.204	20.72
823.376	21.19
823.549	22.05
823.722	22.31
823.894	21.57
824.067	21.33
824.239	20.9
824.411	22.02
824.584	22.12
824.756	22.78
824.929	22.67
825.101	21.71
825.273	22.9
825.446	21.78
825.618	20.67
825.79	20.66
825.963	19.59
826.135	19.16
826.307	19.31
826.479	17.62
826.652	17.26
826.824	17.47
826.996	17.25
827.168	15.53
827.34	16.34
827.512	15.9
827.684	15.42
827.856	15.2
828.029	14.9
828.201	14.46
828.373	15.97
828.545	16.76
828.717	18.23
828.889	17.21
829.061	17.43
829.232	16.2
829.404	16.4
829.576	17.55
829.748	18.28
829.92	20.39
830.092	20.62
830.264	21.84
830.436	19.33
830.607	19.48
830.779	19.14
830.951	16.23
831.123	16.19
831.294	15.19
831.466	17.29
831.638	18.59
831.809	17.4
831.981	14.41
832.153	17.7
832.324	19.29
832.496	13.92
832.667	18.5
832.839	22.08
833.011	24
833.182	26.21
833.354	21.69
833.525	19.72
833.697	16.49
833.868	16.57
834.039	12.58
834.211	12.67
834.382	12.98
834.554	10.98
834.725	9.03
834.896	7.62
835.068	6.82
835.239	7.62
835.41	10.72
835.581	13.01
835.753	13.49
835.924	13.68
836.095	12.88
836.266	16.01
836.438	19.06
836.609	21.1
836.78	20.87
836.951	24.55
837.122	26.59
837.293	23.08
837.464	24.92
837.635	23.98
837.806	26.24
837.977	29.73
838.148	25.96
838.319	24.53
838.49	23.26
838.661	26.03
838.832	20.82
839.003	23.33
839.174	24.97
839.345	22.71
839.516	28.06
839.687	23
839.857	19.48
840.028	20.41
840.199	20.43
840.37	23.12
840.54	20.94
840.711	22.97
840.882	21.5
841.053	24.29
841.223	22.58
841.394	18.2
841.564	21.48
841.735	21.38
841.906	18.74
842.076	20.36
842.247	20.35
842.417	20.34
842.588	23.51
842.758	19.95
842.929	16.19
843.099	14.67
843.27	15.52
843.44	14.81
843.611	13.24
843.781	19.16
843.951	15.77
844.122	9.11
844.292	8.82
844.462	-5.67
844.633	5.1
844.803	6.83
844.973	8.86
845.144	6.66
845.314	16.92
845.484	28.95
845.654	27.91
845.824	25.24
845.995	36.78
846.165	39.06
846.335	41.98
846.505	39.7
846.675	39.36
846.845	52.92
847.015	63.61
847.185	55.89
847.355	54.14
847.525	48.48
847.695	56.16
847.865	55.4
848.035	57.97
848.205	72.65
848.375	63.34
848.545	60.26
848.715	42.21
848.884	32.07
849.054	36.61
849.224	29.7
849.394	32.21
849.564	22.09
849.733	19.98
849.903	12.98
850.073	8.15
850.243	3.09
850.412	5.55
850.582	-6.8
850.752	-23.07
850.921	-18.56
851.091	-32.93
851.26	-17.84
851.43	-24.04
851.599	-30.64
851.769	-24.11
851.939	-26.15
852.108	-6.43
852.278	-9.76
852.447	3.74
852.616	22.03
852.786	5.52
852.955	15.82
853.125	4.18
853.294	5.86
853.463	5.87
853.633	-13.36
853.802	-6.87
853.971	-5.69
854.141	15.63
854.31	14.56
854.479	1.26
854.648	12.12
854.818	9.13
854.987	20.73
855.156	27.41
855.325	31.2
855.494	33.19
855.663	40.1
855.832	45.3
856.001	38.9
856.171	37.41
856.34	47.33
856.509	54.09
856.678	58.44
856.847	59.82
857.016	63.47
857.185	55.87
857.353	51.96
857.522	54.54
857.691	52.39
857.86	54
858.029	69.84
858.198	59.26
858.367	59.36
858.535	52.41
858.704	31.99
858.873	11.8
859.042	20.86
859.21	35.59
859.379	36.23
859.548	34.76
859.717	12.6
859.885	-2.72
860.054	2.22
860.222	-2.38
860.391	5.46
860.56	21.45
860.728	25.67
860.897	27.8
861.065	30.38
861.234	26.51
861.402	33.46
861.571	61.05
861.739	86.61
861.908	89.97
862.076	74.27
862.244	81.45
862.413	83.81
862.581	72.84
862.749	66.88
862.918	59.03
863.086	64.29
863.254	72.17
863.423	56.23
863.591	55.25
863.759	31.88
863.927	60.07
864.096	71.65
864.264	74.18
864.432	75.23
864.6	64.94
864.768	78.21
864.936	88.44
865.104	83.25
865.272	85.68
865.44	74.15
865.608	78.18
865.776	70.67
865.944	65.65
866.112	45.4
866.28	48.98
866.448	53.98
866.616	52.39
866.784	37.99
866.952	31.74
867.12	21.06
867.288	13.08
867.455	12.7
867.623	7.52
867.791	3.41
867.959	28.63
868.127	42.73
868.294	41.69
868.462	39.54
868.63	50.99
868.797	43.25
868.965	42.66
869.133	40.39
869.3	50.68
869.468	65.18
869.636	66.1
869.803	75.13
869.971	68.32
870.138	67.22
870.306	72.68
870.473	49.46
870.641	58.8
870.808	60.31
870.975	60
871.143	51.53
871.31	43.52
871.478	39.6
871.645	39.52
871.812	32.74
871.98	40.86
872.147	40.42
872.314	32.64
872.482	19.93
872.649	-5.62
872.816	11.62
872.983	7.68
873.15	-0.22
873.318	-26.34
873.485	-24.9
873.652	-54.51
873.819	-156.74
873.986	-115.51
874.153	-83.83
874.32	-31.52
874.487	-19.41
874.654	-24.55
874.821	-29.59
874.988	-25.1
875.155	-6.96
875.322	9.12
875.489	25.22
875.656	23.46
875.823	26.52
875.99	27.85
876.157	20.9
876.324	31.75
876.49	35.57
876.657	43.68
876.824	40.32
876.991	23.34
877.157	16.05
877.324	6.94
877.491	-4.25
877.658	-3.03
877.824	-3.86
877.991	9.47
878.157	-4.34
878.324	-2.63
878.491	-3.62
878.657	-21.36
878.824	12.42
878.99	2.21
879.157	-2.95
879.323	15.09
879.49	20.86
879.656	24.86
879.823	24.01
879.989	26.36
880.156	25.02
880.322	27.09
880.488	32.1
880.655	21.68
880.821	28.47
880.987	33.87
881.154	31.45
881.32	37.38
881.486	34.69
881.652	38.94
881.819	38.93
881.985	35.79
882.151	32.74
882.317	34.99
882.483	35.03
882.649	30.58
882.816	28.35
882.982	25.18
883.148	19.65
883.314	22.56
883.48	20.85
883.646	24.66
883.812	24.28
883.978	26.7
884.144	24.68
884.31	24
884.476	25.2
884.642	26.53
884.807	27.28
884.973	28.9
885.139	27.45
885.305	24.53
885.471	21.61
885.637	21.29
885.802	22.62
885.968	24.32
886.134	24.7
886.3	23.77
886.465	19.15
886.631	24.71
886.797	26.24
886.962	21.6
887.128	22.13
887.293	20.59
887.459	16.04
887.625	12.52
887.79	9.03
887.956	11.02
888.121	14.29
888.287	21.02
888.452	12.37
888.618	6.69
888.783	21.01
