Data from 2938037_Reflection_1.txt Node
Date: Sun Jul 12 14:46:05 EDT 2015
User: robert
Spectrometer: USB4E03001
Autoset integration time: false
Trigger mode: 4
Integration Time (sec): 1.000000E-1
Scans to average: 10
Electric dark correction enabled: true
Nonlinearity correction enabled: false
Boxcar width: 5
Stray light correction enabled: false
XAxis mode: Wavelengths
Stop averaging: false
Number of Pixels in Spectrum: 3648
>>>>>Begin Spectral Data<<<<<
177.566	-46.29
177.785	-84.93
178.005	376.73
178.225	12.66
178.445	4.72
178.665	48.5
178.885	-119.43
179.105	49.28
179.324	11.33
179.544	-7.67
179.764	-10.36
179.984	-60.23
180.204	-74.2
180.423	-118.1
180.643	-14.33
180.863	6.58
181.083	27.51
181.302	4.73
181.522	-16.98
181.742	-1.16
181.961	2.18
182.181	-24.71
182.401	7.29
182.621	11.07
182.84	-2.23
183.06	-23.12
183.279	-74.62
183.499	-91.68
183.719	-87.51
183.938	-127
184.158	-101.97
184.377	-2096.9
184.597	565.49
184.816	-519.49
185.036	-1056.16
185.256	511.03
185.475	434.9
185.695	650.25
185.914	367.15
186.134	-1018.38
186.353	-448.44
186.572	681.47
186.792	5072.5
187.011	-322.89
187.231	-247.57
187.45	-398.33
187.67	-70.77
187.889	-66.05
188.108	-171.85
188.328	-0.96
188.547	-139.95
188.766	55.88
188.986	49.38
189.205	89.42
189.424	53.71
189.644	43.63
189.863	54.61
190.082	-23.77
190.302	-50.34
190.521	151.66
190.74	-230.91
190.959	-33.63
191.178	173.52
191.398	219.18
191.617	440.63
191.836	325.13
192.055	1086.47
192.274	224.49
192.494	183.11
192.713	244.24
192.932	128.1
193.151	67.22
193.37	24.53
193.589	32.48
193.808	19.91
194.027	13.83
194.246	-1.7
194.465	4.19
194.685	-8.68
194.904	-58.4
195.123	-109.98
195.342	153.85
195.561	104.72
195.78	34.98
195.999	59.24
196.218	41.1
196.436	10.98
196.655	57.18
196.874	41.56
197.093	94.48
197.312	5.82
197.531	-272.87
197.75	242.75
197.969	-218.09
198.188	158.37
198.407	-560.94
198.625	1250.96
198.844	899.15
199.063	-1019.21
199.282	725.74
199.501	238.61
199.719	849.65
199.938	-762.95
200.157	-386.75
200.376	-698.65
200.594	-272.09
200.813	1447.02
201.032	-731.33
201.251	-514.63
201.469	-2041.97
201.688	-263.97
201.907	-156.72
202.125	-81.82
202.344	-67.35
202.563	-740.52
202.781	105.62
203	-14.53
203.218	72.15
203.437	151.52
203.656	127.8
203.874	116.72
204.093	85.91
204.311	70.33
204.53	117.02
204.748	102.68
204.967	99.37
205.185	135.04
205.404	204.35
205.622	141.92
205.841	205.01
206.059	297.13
206.278	213.58
206.496	233.57
206.715	228.42
206.933	682.76
207.151	280.11
207.37	-314.73
207.588	-28.94
207.806	-42.82
208.025	23.41
208.243	38.41
208.461	72.93
208.68	53.95
208.898	23.3
209.116	89.49
209.335	-63.67
209.553	725.79
209.771	10.06
209.989	-12.36
210.208	10.31
210.426	46.67
210.644	-7.83
210.862	30.39
211.081	9.74
211.299	-12.56
211.517	75.53
211.735	129.84
211.953	230.72
212.171	712.4
212.39	607.23
212.608	553.28
212.826	-711.6
213.044	516.31
213.262	164.59
213.48	252.16
213.698	517.86
213.916	176.95
214.134	-82.27
214.352	426.48
214.57	194.43
214.788	628.47
215.006	-377.45
215.224	259.65
215.442	-98.14
215.66	-71.69
215.878	-47.74
216.096	-102.76
216.314	-55.63
216.532	-248.68
216.75	-62.57
216.968	-251.22
217.185	-107.5
217.403	-17.6
217.621	-31.2
217.839	-2.77
218.057	-14.9
218.275	-262.14
218.492	522.8
218.71	-2582.98
218.928	-151.59
219.146	270.41
219.363	260.77
219.581	526.14
219.799	1096.43
220.017	271.36
220.234	219.84
220.452	205.07
220.67	-1567.68
220.887	-986.13
221.105	232.85
221.323	204.21
221.54	331.49
221.758	-135.97
221.976	-57.58
222.193	135.09
222.411	-263.46
222.629	-91.33
222.846	-24.47
223.064	226.58
223.281	486.18
223.499	-161.01
223.716	-72.39
223.934	8439.02
224.151	179.14
224.369	219.24
224.586	207.72
224.804	152.95
225.021	97.32
225.239	93.87
225.456	70.54
225.674	70.86
225.891	48.11
226.108	41.74
226.326	18.21
226.543	26.03
226.76	7.88
226.978	-0.54
227.195	5.96
227.413	10.89
227.63	13.09
227.847	13.82
228.064	11
228.282	12.93
228.499	8.39
228.716	10.65
228.934	12.1
229.151	14.91
229.368	15.07
229.585	16.47
229.802	15.78
230.02	15.05
230.237	15.85
230.454	13.26
230.671	13.52
230.888	16.57
231.105	20.25
231.323	19.22
231.54	15.1
231.757	22.23
231.974	26.13
232.191	26.12
232.408	29.07
232.625	30.76
232.842	42.36
233.059	43.51
233.276	44.68
233.493	36.85
233.71	44.55
233.927	46.08
234.144	39.62
234.361	36.45
234.578	35.24
234.795	36.52
235.012	33.21
235.229	28.98
235.446	24.79
235.663	29.14
235.879	31.94
236.096	23.24
236.313	19.52
236.53	18.92
236.747	13.55
236.964	16.5
237.181	20.75
237.397	24.34
237.614	23.02
237.831	28.25
238.048	23.5
238.264	21
238.481	22.44
238.698	30.56
238.915	30.1
239.131	29.58
239.348	26.64
239.565	22.65
239.781	16.17
239.998	19.3
240.215	20.18
240.431	23.03
240.648	27.19
240.865	26.94
241.081	25.39
241.298	23.95
241.514	23.32
241.731	23.5
241.947	23.13
242.164	24.74
242.38	22.81
242.597	19.45
242.814	15.76
243.03	13.4
243.246	13.27
243.463	11.54
243.679	9.72
243.896	8.34
244.112	6.88
244.329	5.25
244.545	4.06
244.762	2.27
244.978	5.37
245.194	7.15
245.411	8.7
245.627	6.32
245.843	6.77
246.06	8.66
246.276	10.9
246.492	11.62
246.709	13.45
246.925	12.69
247.141	12.5
247.357	10.38
247.574	9.91
247.79	9.77
248.006	11.12
248.222	10.68
248.439	11.16
248.655	10.34
248.871	10.95
249.087	8.77
249.303	8.19
249.519	10.45
249.736	12.35
249.952	12.67
250.168	12.96
250.384	14.09
250.6	15.5
250.816	15.04
251.032	15.65
251.248	15.05
251.464	16.42
251.68	17.6
251.896	16.26
252.112	16.34
252.328	15.6
252.544	16.2
252.76	14.15
252.976	15.31
253.192	14.72
253.408	13.66
253.624	14.37
253.84	13.63
254.056	12.9
254.272	11.84
254.487	10.1
254.703	10.8
254.919	8.65
255.135	8.1
255.351	4.38
255.567	3.6
255.782	4.43
255.998	1.93
256.214	1.57
256.43	0.57
256.646	-0.18
256.861	5.78
257.077	6.93
257.293	6.47
257.508	6.8
257.724	9.58
257.94	10.2
258.155	10.27
258.371	10.55
258.587	10.03
258.802	10.21
259.018	10.98
259.234	9.27
259.449	8.42
259.665	8.34
259.88	8.7
260.096	8.88
260.312	8.96
260.527	9.29
260.743	9.64
260.958	10.14
261.174	10.1
261.389	10.53
261.605	11.18
261.82	11.95
262.036	13.12
262.251	13.95
262.466	14.07
262.682	13.2
262.897	12
263.113	13.27
263.328	15.14
263.543	15.06
263.759	12.93
263.974	13.09
264.189	12.62
264.405	10.81
264.62	9.15
264.835	6.6
265.051	9.52
265.266	11.13
265.481	6.73
265.696	2.99
265.912	2.7
266.127	5.63
266.342	6.35
266.557	8.16
266.773	8.94
266.988	9.44
267.203	10.22
267.418	10.62
267.633	9.58
267.848	12.61
268.064	14.06
268.279	14.74
268.494	12.36
268.709	11.41
268.924	10.29
269.139	10.13
269.354	10.41
269.569	10.9
269.784	9.16
269.999	9.23
270.214	6.07
270.429	5.99
270.644	5.46
270.859	6.91
271.074	6.7
271.289	8.02
271.504	8.76
271.719	9.26
271.934	8.66
272.149	8.11
272.363	7.81
272.578	8.94
272.793	8.13
273.008	9.99
273.223	8.54
273.438	8.86
273.653	7.71
273.867	7.86
274.082	7.03
274.297	6.95
274.512	6.43
274.726	5.93
274.941	5.65
275.156	5.88
275.371	5.06
275.585	6.49
275.8	6.17
276.015	6.56
276.229	5.66
276.444	5.61
276.659	3.94
276.873	6.38
277.088	9.81
277.302	9.59
277.517	10.09
277.732	9.73
277.946	9.02
278.161	9.28
278.375	9.83
278.59	10.29
278.804	11.15
279.019	12.68
279.233	11.83
279.448	10.4
279.662	9.4
279.877	10.41
280.091	9.93
280.306	11.55
280.52	11.6
280.735	10.15
280.949	9.38
281.163	9.41
281.378	8.25
281.592	8.62
281.806	7.88
282.021	10.12
282.235	9.43
282.449	9.88
282.664	8.6
282.878	8.72
283.092	8.68
283.307	8.83
283.521	8.78
283.735	10.01
283.949	11
284.164	11.7
284.378	11.32
284.592	11.7
284.806	11.21
285.02	13.13
285.234	11.69
285.449	12.15
285.663	13.21
285.877	12.42
286.091	12.75
286.305	12.51
286.519	11.34
286.733	11.75
286.947	12.12
287.161	11.2
287.375	8.29
287.589	9.54
287.803	9.45
288.017	8.23
288.231	8.04
288.445	6.85
288.659	4.8
288.873	6.26
289.087	5.26
289.301	4.37
289.515	6.16
289.729	8.31
289.943	7.4
290.157	6.78
290.371	6.75
290.584	6.78
290.798	8.97
291.012	10.83
291.226	10.77
291.44	12.55
291.654	12.61
291.867	13.56
292.081	14.33
292.295	15.66
292.509	16.83
292.722	18.15
292.936	19.01
293.15	17.35
293.364	16.5
293.577	16.7
293.791	14.15
294.005	13.38
294.218	11.02
294.432	9.99
294.645	8.79
294.859	9.8
295.073	7.39
295.286	7.17
295.5	6.09
295.713	5.07
295.927	4.95
296.14	6.49
296.354	7.32
296.568	8.68
296.781	8.09
296.994	8.11
297.208	7.23
297.421	8.3
297.635	8.34
297.848	9.7
298.062	10.9
298.275	10.52
298.489	10.2
298.702	9.46
298.915	9.02
299.129	10.17
299.342	11.02
299.555	10.28
299.769	9.48
299.982	9.29
300.195	8.35
300.409	9.18
300.622	8.5
300.835	7.82
301.048	10.21
301.262	10.33
301.475	10.24
301.688	9.24
301.901	10.46
302.115	10.97
302.328	10.72
302.541	11.49
302.754	9.27
302.967	12.03
303.18	13.6
303.393	11.67
303.607	10.93
303.82	10.44
304.033	11.48
304.246	12.07
304.459	11.98
304.672	13.25
304.885	13.04
305.098	14.96
305.311	13.66
305.524	12.67
305.737	12.96
305.95	12.99
306.163	11.94
306.376	11.4
306.589	11.46
306.802	12.39
307.015	12.86
307.228	12.35
307.44	11.16
307.653	11.08
307.866	11.21
308.079	10.84
308.292	12.08
308.505	13.08
308.718	13.56
308.93	13.35
309.143	13.26
309.356	13.52
309.569	13.8
309.781	13.35
309.994	13.28
310.207	13.14
310.42	13.64
310.632	13
310.845	12.81
311.058	13.09
311.27	13.68
311.483	12.07
311.696	10.82
311.908	11.27
312.121	11.24
312.333	11.84
312.546	11.53
312.759	10.67
312.971	10.58
313.184	11.13
313.396	10.82
313.609	9.69
313.821	11.01
314.034	10.57
314.246	9.83
314.459	10.79
314.671	11.12
314.884	9.75
315.096	11.42
315.309	12.01
315.521	11.59
315.733	10.25
315.946	10.47
316.158	10.4
316.371	12.17
316.583	12.55
316.795	12.4
317.008	13.26
317.22	14.89
317.432	13.6
317.644	15.06
317.857	14.35
318.069	16.82
318.281	18.27
318.494	18.86
318.706	18.1
318.918	17.59
319.13	16.13
319.342	14.7
319.555	14.47
319.767	17.17
319.979	15.76
320.191	16.14
320.403	15.53
320.615	14.17
320.827	14.17
321.039	13.36
321.252	15.73
321.464	16.37
321.676	15.86
321.888	16.21
322.1	15.42
322.312	15.79
322.524	16.52
322.736	16.59
322.948	15.68
323.16	16.73
323.372	17.28
323.584	15.21
323.796	16.17
324.007	15.63
324.219	15.88
324.431	15.43
324.643	15.69
324.855	14.09
325.067	13.91
325.279	14.19
325.491	13.04
325.702	12.76
325.914	12.79
326.126	12.3
326.338	12.85
326.55	12.45
326.761	11.91
326.973	11.46
327.185	12.18
327.396	12.17
327.608	13.22
327.82	13.44
328.032	14.38
328.243	14.39
328.455	15.16
328.666	15.25
328.878	15.61
329.09	15.97
329.301	15.66
329.513	18.08
329.725	19.3
329.936	17.7
330.148	17.36
330.359	15.7
330.571	16.77
330.782	14
330.994	14.7
331.205	15.48
331.417	15.14
331.628	15.12
331.84	13.52
332.051	11.68
332.262	12.24
332.474	12.64
332.685	12.69
332.897	11.94
333.108	14.21
333.319	12.84
333.531	11.8
333.742	10.89
333.953	11.37
334.165	10.1
334.376	10.13
334.587	10.59
334.799	10.43
335.01	12.51
335.221	11.73
335.432	12.2
335.644	12.41
335.855	13.37
336.066	14.49
336.277	13.65
336.488	14.15
336.7	13.72
336.911	13.64
337.122	14.1
337.333	11.56
337.544	13.38
337.755	13.4
337.966	15.02
338.177	14.35
338.388	13.29
338.599	14.27
338.811	13.14
339.022	13.86
339.233	13.99
339.444	13
339.655	14.58
339.866	13.56
340.076	11.69
340.287	10.02
340.498	9.7
340.709	10.43
340.92	9.84
341.131	10.9
341.342	11.55
341.553	12.38
341.764	12.56
341.975	12.45
342.185	11.28
342.396	11.86
342.607	12.43
342.818	12.82
343.029	13.45
343.239	14.4
343.45	14.39
343.661	13.06
343.872	11.8
344.082	11.93
344.293	10.98
344.504	11.68
344.714	11.34
344.925	11.45
345.136	12.59
345.346	12.43
345.557	11.24
345.768	10.24
345.978	10.63
346.189	10.1
346.399	10.82
346.61	11.45
346.821	12.05
347.031	12.93
347.242	12.67
347.452	10.7
347.663	9.61
347.873	10.14
348.084	11.31
348.294	10.45
348.504	10.68
348.715	11.41
348.925	10.28
349.136	9.62
349.346	9.65
349.557	9.66
349.767	10.25
349.977	10.53
350.188	11.12
350.398	10.9
350.608	11.98
350.819	13.27
351.029	11.07
351.239	11.51
351.449	12
351.66	10.58
351.87	9.56
352.08	8.69
352.29	9.02
352.501	8.38
352.711	8.48
352.921	8.54
353.131	8.43
353.341	9.99
353.552	10.71
353.762	9.64
353.972	10.91
354.182	11.87
354.392	12.84
354.602	11.99
354.812	11.13
355.022	11.04
355.232	10.31
355.442	10.32
355.652	10.01
355.862	9.76
356.072	10.7
356.282	9.62
356.492	8.86
356.702	8.97
356.912	9.18
357.122	9.78
357.332	9.52
357.542	9.86
357.752	9.51
357.962	8.68
358.171	9.06
358.381	9.24
358.591	9.4
358.801	10.38
359.011	9.42
359.221	9.59
359.43	9.48
359.64	10.29
359.85	10.5
360.06	10.47
360.269	11.1
360.479	10.77
360.689	10.43
360.899	10.45
361.108	9.56
361.318	9.77
361.528	9.74
361.737	10.36
361.947	9.33
362.156	9.41
362.366	9.2
362.576	8.87
362.785	8.58
362.995	9.06
363.204	9.4
363.414	9.69
363.623	9.59
363.833	10.27
364.042	9.79
364.252	10.75
364.461	10.9
364.671	10.65
364.88	10.13
365.09	10.12
365.299	8.89
365.509	7.81
365.718	8.08
365.927	8.51
366.137	7.7
366.346	7.51
366.555	7.17
366.765	6.93
366.974	7.38
367.183	7.96
367.393	8.02
367.602	7.89
367.811	8.85
368.021	8.53
368.23	8.73
368.439	9.79
368.648	9.09
368.857	8.87
369.067	8.48
369.276	7.68
369.485	7.47
369.694	7.59
369.903	8.28
370.112	8.2
370.321	7.79
370.531	6.78
370.74	5.91
370.949	6.6
371.158	6.47
371.367	6.05
371.576	6.36
371.785	6.1
371.994	6.2
372.203	6.2
372.412	5.7
372.621	6.39
372.83	7.13
373.039	7.08
373.248	6.92
373.457	7.15
373.666	7.81
373.874	8.06
374.083	8.71
374.292	8.49
374.501	7.5
374.71	8.31
374.919	7.98
375.128	8.34
375.336	8.32
375.545	8.41
375.754	8.51
375.963	7.94
376.171	7.9
376.38	7.57
376.589	7.98
376.798	8.6
377.006	8.4
377.215	8.71
377.424	7.99
377.632	8.13
377.841	7.57
378.05	7.57
378.258	7.77
378.467	7.3
378.675	7.35
378.884	7.46
379.093	7.63
379.301	7.45
379.51	6.94
379.718	6.8
379.927	6.65
380.135	6.67
380.344	6.59
380.552	6.6
380.761	7.39
380.969	7
381.177	6.42
381.386	6.1
381.594	5.58
381.803	6.4
382.011	6.52
382.219	6.27
382.428	6.92
382.636	6.68
382.845	6.9
383.053	6.47
383.261	6.4
383.469	6.43
383.678	6.27
383.886	6.49
384.094	5.98
384.302	5.83
384.511	5.96
384.719	5.41
384.927	5.33
385.135	5.13
385.343	5.68
385.552	6.31
385.76	6.14
385.968	6.37
386.176	6.26
386.384	6.18
386.592	6.24
386.8	6.22
387.008	6.46
387.216	6.38
387.424	6.42
387.633	6.29
387.841	5.9
388.049	5.89
388.257	6.09
388.465	6.42
388.672	6.79
388.88	7.07
389.088	7.4
389.296	7.3
389.504	7.16
389.712	7.08
389.92	6.49
390.128	6.64
390.336	6.65
390.544	6
390.751	6.13
390.959	6.12
391.167	6
391.375	5.88
391.583	5.52
391.79	5.9
391.998	5.63
392.206	5.34
392.414	5.28
392.621	5.62
392.829	5.82
393.037	5.5
393.244	4.96
393.452	4.97
393.66	4.65
393.867	5.07
394.075	4.91
394.283	5.05
394.49	5.56
394.698	5.7
394.905	5.41
395.113	5.38
395.32	5.18
395.528	5.32
395.735	5.06
395.943	4.83
396.15	4.79
396.358	4.8
396.565	4.52
396.773	4.34
396.98	4.34
397.188	4.26
397.395	4.1
397.602	4.26
397.81	4.44
398.017	4.57
398.225	4.99
398.432	5.1
398.639	5.23
398.847	5.41
399.054	5.18
399.261	5.01
399.468	5.11
399.676	5.09
399.883	5.14
400.09	4.99
400.297	5.17
400.505	5.16
400.712	4.91
400.919	4.66
401.126	4.48
401.333	4.47
401.54	4.5
401.748	4.11
401.955	4.15
402.162	4.49
402.369	4.41
402.576	4.5
402.783	4.59
402.99	4.65
403.197	4.66
403.404	5.06
403.611	5.22
403.818	5.2
404.025	5.4
404.232	5.51
404.439	5.27
404.646	5.22
404.853	5.15
405.06	5.01
405.267	4.83
405.474	4.96
405.681	4.7
405.887	4.88
406.094	4.46
406.301	4.34
406.508	4.09
406.715	3.95
406.922	3.68
407.128	3.23
407.335	3.11
407.542	3.05
407.749	2.75
407.955	2.78
408.162	2.37
408.369	2.61
408.575	2.79
408.782	3.03
408.989	2.83
409.195	2.93
409.402	3.21
409.609	3.15
409.815	3.31
410.022	3.31
410.228	3.03
410.435	3.12
410.642	3.16
410.848	3.28
411.055	3.22
411.261	3.66
411.468	3.89
411.674	3.82
411.881	3.6
412.087	3.57
412.294	3.44
412.5	3.75
412.706	3.98
412.913	3.51
413.119	2.94
413.326	2.98
413.532	2.94
413.738	3.15
413.945	3.21
414.151	3.54
414.357	3.5
414.564	3.96
414.77	3.6
414.976	3.43
415.182	3.85
415.389	4.3
415.595	4.1
415.801	3.84
416.007	3.55
416.214	3.54
416.42	3.55
416.626	3.55
416.832	3.3
417.038	3.4
417.244	3.49
417.45	3.5
417.657	3.3
417.863	3.31
418.069	3.14
418.275	3.17
418.481	3.16
418.687	3.25
418.893	3.16
419.099	3.11
419.305	3.17
419.511	3.09
419.717	2.88
419.923	2.94
420.129	3.05
420.335	3.27
420.541	3.15
420.746	3.21
420.952	3.05
421.158	2.93
421.364	2.95
421.57	2.88
421.776	2.85
421.982	3.04
422.187	3.11
422.393	3.03
422.599	2.97
422.805	3.12
423.01	3
423.216	3.1
423.422	3.24
423.628	3.25
423.833	3.19
424.039	3.11
424.245	3.17
424.45	3.02
424.656	3.06
424.862	3.05
425.067	2.88
425.273	2.95
425.478	2.92
425.684	2.98
425.889	2.98
426.095	3.13
426.301	3.21
426.506	3.06
426.712	3.11
426.917	3.11
427.123	2.98
427.328	3.03
427.533	3.11
427.739	2.87
427.944	2.74
428.15	2.82
428.355	2.75
428.561	2.59
428.766	2.61
428.971	2.6
429.177	2.73
429.382	2.87
429.587	2.81
429.793	2.62
429.998	2.9
430.203	3.29
430.408	3.29
430.614	3.2
430.819	3.41
431.024	3.46
431.229	3.55
431.434	3.51
431.64	3.52
431.845	3.65
432.05	3.57
432.255	3.26
432.46	2.93
432.665	2.77
432.87	2.72
433.076	2.83
433.281	2.8
433.486	2.8
433.691	2.82
433.896	2.88
434.101	2.98
434.306	2.93
434.511	3.08
434.716	3.11
434.921	3.11
435.126	3.21
435.331	3.28
435.535	3.14
435.74	3.17
435.945	3.13
436.15	3.15
436.355	3.12
436.56	3.28
436.765	3.26
436.97	3.24
437.174	3.53
437.379	3.49
437.584	3.28
437.789	3.29
437.993	3.11
438.198	2.95
438.403	2.74
438.608	2.61
438.812	2.58
439.017	2.74
439.222	2.83
439.426	2.69
439.631	2.8
439.836	2.8
440.04	2.87
440.245	2.97
440.45	3.01
440.654	3.1
440.859	3.16
441.063	3.05
441.268	2.87
441.472	2.75
441.677	2.81
441.881	2.79
442.086	2.79
442.29	2.77
442.495	2.78
442.699	2.85
442.904	2.8
443.108	2.95
443.312	3.02
443.517	3.07
443.721	3.03
443.925	3.06
444.13	3.18
444.334	3.18
444.538	3.03
444.743	3.18
444.947	3.15
445.151	3.18
445.356	2.93
445.56	2.98
445.764	2.96
445.968	3.03
446.173	2.95
446.377	2.78
446.581	2.8
446.785	2.87
446.989	2.7
447.193	2.7
447.398	2.75
447.602	2.8
447.806	2.92
448.01	2.97
448.214	2.87
448.418	2.68
448.622	2.72
448.826	2.68
449.03	2.76
449.234	2.63
449.438	2.65
449.642	2.61
449.846	2.66
450.05	2.27
450.254	2.21
450.458	2.36
450.662	2.45
450.866	2.46
451.069	2.5
451.273	2.43
451.477	2.64
451.681	2.61
451.885	2.67
452.089	2.63
452.292	2.8
452.496	2.81
452.7	2.8
452.904	2.72
453.107	2.71
453.311	2.8
453.515	2.89
453.719	2.92
453.922	2.89
454.126	2.69
454.33	2.6
454.533	2.68
454.737	2.86
454.94	2.85
455.144	3
455.348	2.82
455.551	2.74
455.755	2.69
455.958	2.78
456.162	2.75
456.365	2.83
456.569	3.03
456.772	3.1
456.976	2.97
457.179	2.88
457.383	2.9
457.586	2.97
457.79	3.05
457.993	3.11
458.196	2.9
458.4	2.95
458.603	3.01
458.807	2.78
459.01	2.81
459.213	2.82
459.417	2.91
459.62	2.82
459.823	2.9
460.026	2.78
460.23	2.8
460.433	2.83
460.636	2.74
460.839	2.72
461.042	2.81
461.246	2.85
461.449	2.94
461.652	2.93
461.855	3.11
462.058	3.22
462.261	3.22
462.464	3.05
462.668	3.02
462.871	3.11
463.074	2.9
463.277	3.05
463.48	2.76
463.683	2.58
463.886	2.58
464.089	2.57
464.292	2.43
464.495	2.48
464.698	2.47
464.901	2.62
465.104	2.68
465.306	2.86
465.509	2.59
465.712	2.84
465.915	2.95
466.118	2.8
466.321	2.73
466.524	2.85
466.726	2.92
466.929	2.98
467.132	2.83
467.335	2.85
467.538	2.9
467.74	2.94
467.943	2.75
468.146	2.76
468.348	2.92
468.551	2.89
468.754	2.74
468.956	2.78
469.159	2.87
469.362	2.78
469.564	2.53
469.767	2.53
469.969	2.63
470.172	2.64
470.375	2.57
470.577	2.65
470.78	2.55
470.982	2.58
471.185	2.39
471.387	2.47
471.59	2.38
471.792	2.54
471.995	2.45
472.197	2.54
472.399	2.58
472.602	2.39
472.804	2.12
473.007	2.12
473.209	2.33
473.411	2.44
473.614	2.3
473.816	2.69
474.018	2.6
474.22	2.68
474.423	2.49
474.625	2.64
474.827	2.71
475.03	2.87
475.232	3.01
475.434	2.83
475.636	2.69
475.838	2.65
476.04	2.56
476.243	2.54
476.445	2.59
476.647	2.7
476.849	2.59
477.051	2.65
477.253	2.6
477.455	2.59
477.657	2.57
477.859	2.7
478.061	2.84
478.263	2.75
478.465	2.97
478.667	2.89
478.869	2.8
479.071	2.76
479.273	2.72
479.475	2.83
479.677	2.78
479.879	2.62
480.081	2.5
480.283	2.45
480.485	2.44
480.686	2.37
480.888	2.29
481.09	2.41
481.292	2.29
481.494	2.21
481.695	2.21
481.897	2.12
482.099	2.16
482.301	2.26
482.502	2.25
482.704	2.3
482.906	2.22
483.107	2.27
483.309	2.25
483.511	2.31
483.712	2.41
483.914	2.43
484.115	2.49
484.317	2.57
484.519	2.57
484.72	2.59
484.922	2.6
485.123	2.66
485.325	2.67
485.526	2.65
485.728	2.68
485.929	2.66
486.131	2.55
486.332	2.49
486.534	2.4
486.735	2.4
486.936	2.42
487.138	2.41
487.339	2.37
487.541	2.3
487.742	2.31
487.943	2.27
488.144	2.3
488.346	2.31
488.547	2.36
488.748	2.39
488.95	2.31
489.151	2.17
489.352	2.19
489.553	2.2
489.755	2.36
489.956	2.39
490.157	2.41
490.358	2.39
490.559	2.41
490.76	2.39
490.961	2.39
491.163	2.55
491.364	2.67
491.565	2.63
491.766	2.6
491.967	2.53
492.168	2.55
492.369	2.59
492.57	2.58
492.771	2.66
492.972	2.6
493.173	2.63
493.374	2.51
493.575	2.53
493.776	2.52
493.976	2.48
494.177	2.44
494.378	2.37
494.579	2.35
494.78	2.35
494.981	2.23
495.182	2.39
495.382	2.48
495.583	2.62
495.784	2.46
495.985	2.45
496.185	2.55
496.386	2.73
496.587	2.78
496.788	2.8
496.988	2.87
497.189	2.92
497.39	2.88
497.59	2.86
497.791	2.77
497.992	2.74
498.192	2.72
498.393	2.73
498.593	2.54
498.794	2.48
498.994	2.43
499.195	2.37
499.395	2.38
499.596	2.42
499.796	2.35
499.997	2.43
500.197	2.6
500.398	2.78
500.598	2.88
500.799	2.97
500.999	2.95
501.199	3.11
501.4	2.98
501.6	3.2
501.801	2.98
502.001	3.1
502.201	2.98
502.402	2.82
502.602	2.8
502.802	2.8
503.002	2.91
503.203	3.01
503.403	2.77
503.603	2.82
503.803	2.71
504.003	3.04
504.204	2.92
504.404	3.04
504.604	3.09
504.804	2.94
505.004	2.9
505.204	2.78
505.404	2.82
505.604	3.01
505.804	2.95
506.005	2.91
506.205	2.87
506.405	3.03
506.605	3.03
506.805	3.13
507.005	3.17
507.204	3.13
507.404	3.11
507.604	3.08
507.804	2.95
508.004	3.08
508.204	3.22
508.404	3.12
508.604	2.88
508.804	2.99
509.003	2.88
509.203	2.93
509.403	2.95
509.603	3.05
509.803	2.95
510.002	2.93
510.202	2.88
510.402	2.82
510.602	2.77
510.801	2.79
511.001	2.53
511.201	2.5
511.4	2.57
511.6	2.6
511.8	2.54
511.999	2.7
512.199	2.77
512.398	3
512.598	2.95
512.797	2.98
512.997	3.14
513.197	3.3
513.396	3.42
513.596	3.29
513.795	3.32
513.994	3.35
514.194	3.21
514.393	3.27
514.593	3.07
514.792	3.02
514.992	2.99
515.191	3.11
515.39	3.28
515.59	3.31
515.789	3.24
515.988	3.28
516.188	3.18
516.387	3.28
516.586	3.24
516.786	3.47
516.985	3.35
517.184	3.44
517.383	3.19
517.582	2.9
517.782	2.83
517.981	2.78
518.18	2.74
518.379	2.79
518.578	2.79
518.777	2.79
518.976	2.66
519.176	2.83
519.375	2.8
519.574	2.87
519.773	2.96
519.972	2.98
520.171	3.06
520.37	3.09
520.569	3.12
520.768	3.23
520.967	3.18
521.166	3.2
521.365	3.19
521.564	3.11
521.762	3.02
521.961	2.93
522.16	2.99
522.359	2.96
522.558	2.98
522.757	3.12
522.956	3.03
523.154	3.02
523.353	3.16
523.552	3.17
523.751	3.25
523.949	3.3
524.148	3.46
524.347	3.34
524.546	3.55
524.744	3.45
524.943	3.35
525.142	3.31
525.34	3.33
525.539	3.17
525.737	3.07
525.936	3.13
526.135	3.22
526.333	3.29
526.532	3.32
526.73	3.25
526.929	3.3
527.127	3.29
527.326	3.32
527.524	3.32
527.723	3.39
527.921	3.43
528.12	3.41
528.318	3.41
528.516	3.41
528.715	3.42
528.913	3.42
529.112	3.46
529.31	3.48
529.508	3.58
529.707	3.57
529.905	3.55
530.103	3.6
530.301	3.63
530.5	3.68
530.698	3.66
530.896	3.68
531.094	3.69
531.293	3.76
531.491	3.73
531.689	3.62
531.887	3.64
532.085	3.63
532.283	3.6
532.481	3.69
532.68	3.73
532.878	3.79
533.076	3.79
533.274	3.79
533.472	3.81
533.67	3.85
533.868	3.87
534.066	3.98
534.264	3.99
534.462	4.03
534.66	3.94
534.858	3.92
535.056	3.88
535.253	3.9
535.451	4.01
535.649	3.95
535.847	3.98
536.045	4
536.243	4.01
536.441	4.04
536.638	4.07
536.836	4.07
537.034	3.97
537.232	3.96
537.43	4.02
537.627	4.06
537.825	4.04
538.023	4.1
538.22	4.14
538.418	4.3
538.616	4.33
538.813	4.45
539.011	4.58
539.209	4.8
539.406	5
539.604	5.03
539.801	4.99
539.999	5.1
540.196	5.08
540.394	5.07
540.591	5.01
540.789	5.02
540.986	5
541.184	4.92
541.381	4.85
541.579	4.87
541.776	4.91
541.974	4.89
542.171	4.87
542.368	4.89
542.566	4.96
542.763	4.9
542.96	4.94
543.158	4.9
543.355	5.02
543.552	5.11
543.75	5.13
543.947	5.07
544.144	5.17
544.341	5.24
544.539	5.34
544.736	5.4
544.933	5.55
545.13	5.52
545.327	5.67
545.524	5.77
545.722	5.87
545.919	5.74
546.116	5.91
546.313	5.91
546.51	5.91
546.707	5.83
546.904	5.78
547.101	5.66
547.298	5.85
547.495	5.72
547.692	5.71
547.889	5.64
548.086	5.8
548.283	5.75
548.48	5.75
548.677	5.74
548.874	5.91
549.07	6.07
549.267	6.21
549.464	6.18
549.661	6.48
549.858	6.55
550.055	6.87
550.251	7.08
550.448	7.23
550.645	7.52
550.842	7.52
551.038	7.53
551.235	7.48
551.432	7.62
551.628	7.78
551.825	7.86
552.022	7.97
552.218	7.89
552.415	7.82
552.612	7.88
552.808	7.79
553.005	8.06
553.201	8.23
553.398	8.29
553.594	8.33
553.791	8.39
553.987	8.34
554.184	8.07
554.38	8.09
554.577	8.2
554.773	8.17
554.97	8.23
555.166	8.27
555.362	8.19
555.559	8.3
555.755	8.34
555.952	8.41
556.148	8.63
556.344	9
556.541	8.84
556.737	8.82
556.933	9.12
557.129	9.02
557.326	9
557.522	8.92
557.718	8.8
557.914	8.71
558.11	8.6
558.307	8.84
558.503	9.01
558.699	9.36
558.895	9.63
559.091	9.37
559.287	9.6
559.483	9.85
559.679	10.14
559.876	10.35
560.072	10.58
560.268	10.48
560.464	10.42
560.66	10.41
560.856	10.36
561.052	10.08
561.247	10.21
561.443	10.41
561.639	10.29
561.835	10.43
562.031	10.59
562.227	10.58
562.423	10.99
562.619	11
562.815	10.99
563.01	11.13
563.206	11.36
563.402	11.41
563.598	11.45
563.793	11.56
563.989	11.68
564.185	11.72
564.381	11.74
564.576	11.6
564.772	11.67
564.968	11.85
565.163	11.85
565.359	11.95
565.555	12.19
565.75	12.12
565.946	12.07
566.141	12.09
566.337	12.02
566.532	12.28
566.728	12.41
566.923	12.52
567.119	12.52
567.314	12.59
567.51	12.84
567.705	12.87
567.901	13.14
568.096	13.42
568.292	13.6
568.487	13.89
568.682	13.89
568.878	14
569.073	13.95
569.268	14.15
569.464	14.16
569.659	14
569.854	14.04
570.05	14.03
570.245	13.91
570.44	13.98
570.635	14.03
570.831	14.08
571.026	14.34
571.221	14.65
571.416	14.65
571.611	14.74
571.806	14.85
572.002	14.95
572.197	15.06
572.392	15.28
572.587	15.27
572.782	15.34
572.977	15.63
573.172	15.52
573.367	15.43
573.562	15.51
573.757	15.86
573.952	15.79
574.147	15.87
574.342	15.87
574.537	15.86
574.732	15.99
574.927	16.06
575.121	15.74
575.316	15.96
575.511	16.06
575.706	15.94
575.901	15.95
576.096	16.18
576.29	16.29
576.485	16.34
576.68	16.55
576.875	16.45
577.069	16.54
577.264	16.92
577.459	16.79
577.654	16.69
577.848	17.16
578.043	17.01
578.238	16.85
578.432	16.72
578.627	16.86
578.821	16.74
579.016	16.98
579.21	16.85
579.405	16.67
579.6	16.73
579.794	17.11
579.989	17.25
580.183	17.48
580.378	17.67
580.572	18
580.766	18.06
580.961	18.28
581.155	18.32
581.35	18.56
581.544	18.86
581.738	19.05
581.933	18.84
582.127	18.47
582.321	18.29
582.516	18.71
582.71	18.46
582.904	18.17
583.099	18.14
583.293	18.17
583.487	18.43
583.681	18.55
583.875	18.47
584.07	18.55
584.264	18.95
584.458	19.12
584.652	18.75
584.846	19.14
585.04	19.36
585.234	19.35
585.428	19.35
585.623	19.04
585.817	19.06
586.011	18.88
586.205	19.06
586.399	18.76
586.593	18.64
586.787	18.96
586.981	18.68
587.174	18.72
587.368	19.02
587.562	19.19
587.756	19.36
587.95	19.09
588.144	19.58
588.338	19.45
588.532	19.58
588.725	19.87
588.919	19.82
589.113	20.18
589.307	20.45
589.501	20.37
589.694	20.24
589.888	20.27
590.082	20.36
590.275	20.41
590.469	20.54
590.663	20.74
590.856	20.5
591.05	20.4
591.244	20.23
591.437	20.15
591.631	19.97
591.824	19.99
592.018	19.9
592.212	19.78
592.405	19.7
592.599	19.74
592.792	19.55
592.986	19.71
593.179	19.55
593.372	19.31
593.566	19.28
593.759	19.34
593.953	19.32
594.146	19.35
594.339	19.87
594.533	19.64
594.726	19.69
594.92	19.84
595.113	19.81
595.306	20.01
595.499	20.38
595.693	20.28
595.886	20.4
596.079	20.6
596.272	20.69
596.466	20.53
596.659	20.7
596.852	20.62
597.045	20.56
597.238	20.57
597.431	20.69
597.624	20.54
597.818	20.72
598.011	20.82
598.204	20.82
598.397	20.77
598.59	20.65
598.783	20.62
598.976	20.97
599.169	20.99
599.362	21.04
599.555	20.92
599.748	21.18
599.941	21.2
600.134	21.27
600.326	21.26
600.519	21.32
600.712	21.68
600.905	21.74
601.098	21.36
601.291	21.35
601.483	21.38
601.676	21.66
601.869	21.73
602.062	21.9
602.255	21.8
602.447	21.77
602.64	21.85
602.833	21.64
603.025	21.71
603.218	21.91
603.411	21.98
603.603	22.02
603.796	22
603.989	21.88
604.181	21.88
604.374	21.92
604.566	21.92
604.759	21.93
604.951	22.08
605.144	22.11
605.336	22.14
605.529	22.14
605.721	22.39
605.914	22.39
606.106	22.43
606.299	22.19
606.491	22.16
606.683	22.24
606.876	22.26
607.068	22.25
607.26	22.47
607.453	22.52
607.645	22.41
607.837	22.17
608.03	21.91
608.222	22.02
608.414	22.27
608.606	22.34
608.799	22.3
608.991	22.25
609.183	22.16
609.375	21.92
609.567	21.87
609.759	22.14
609.952	21.99
610.144	22.26
610.336	22.39
610.528	22.36
610.72	22.48
610.912	22.7
611.104	22.73
611.296	22.92
611.488	23.06
611.68	23.09
611.872	23.16
612.064	23.49
612.256	23.18
612.448	22.94
612.64	22.86
612.832	22.68
613.023	22.27
613.215	22.32
613.407	22.19
613.599	22.17
613.791	21.95
613.983	21.66
614.174	21.68
614.366	22.06
614.558	22.35
614.75	22.48
614.941	22.29
615.133	22.53
615.325	22.62
615.516	22.65
615.708	22.64
615.9	22.79
616.091	22.64
616.283	22.54
616.475	22.58
616.666	22.52
616.858	22.41
617.049	22.61
617.241	22.77
617.432	22.79
617.624	22.89
617.815	23.03
618.007	23.07
618.198	23
618.39	23.19
618.581	23.07
618.773	23.03
618.964	23.32
619.155	23.39
619.347	23.08
619.538	23.28
619.729	23.08
619.921	23
620.112	22.89
620.303	23.34
620.494	22.98
620.686	23.07
620.877	23.32
621.068	23.02
621.259	22.83
621.451	23.14
621.642	22.95
621.833	23.04
622.024	22.88
622.215	23.04
622.406	22.84
622.597	23
622.788	22.9
622.98	23.06
623.171	22.96
623.362	23.23
623.553	23.34
623.744	23.24
623.935	23.38
624.126	23.76
624.317	23.91
624.508	24.04
624.698	24.12
624.889	24.24
625.08	23.98
625.271	23.93
625.462	23.82
625.653	23.55
625.844	23.68
626.034	23.62
626.225	23.69
626.416	23.44
626.607	23.53
626.798	23.81
626.988	23.87
627.179	23.66
627.37	23.91
627.56	24.11
627.751	24.37
627.942	24.34
628.132	24.28
628.323	24.05
628.514	24.41
628.704	24.33
628.895	24.12
629.085	24.02
629.276	23.88
629.466	24.03
629.657	23.75
629.847	23.58
630.038	23.72
630.228	23.69
630.419	23.74
630.609	23.55
630.8	23.65
630.99	23.55
631.181	23.55
631.371	23.73
631.561	23.48
631.752	23.54
631.942	23.8
632.132	23.52
632.323	23.62
632.513	23.39
632.703	23.2
632.893	23.37
633.084	23.3
633.274	23.17
633.464	23.36
633.654	23.53
633.844	23.74
634.034	23.34
634.225	23.43
634.415	23.68
634.605	23.86
634.795	24.27
634.985	24.08
635.175	24.37
635.365	24.77
635.555	24.55
635.745	24.4
635.935	24.36
636.125	24.56
636.315	24.63
636.505	24.57
636.695	24.61
636.885	24.17
637.075	24.13
637.265	23.78
637.455	23.51
637.644	23.59
637.834	24.04
638.024	23.91
638.214	23.83
638.404	23.75
638.593	23.48
638.783	23.45
638.973	23.52
639.163	23.6
639.352	23.79
639.542	24.15
639.732	24.27
639.921	23.85
640.111	23.75
640.301	23.68
640.49	23.61
640.68	23.9
640.87	23.84
641.059	24.13
641.249	24.33
641.438	24.2
641.628	24.01
641.817	23.92
642.007	24.33
642.196	24.82
642.386	25.25
642.575	25.44
642.764	25.44
642.954	25.16
643.143	24.81
643.333	24.72
643.522	25
643.711	24.88
643.901	24.85
644.09	24.65
644.279	24.25
644.469	23.87
644.658	23.77
644.847	23.36
645.036	23.7
645.226	23.88
645.415	23.52
645.604	23.19
645.793	23.18
645.982	23.7
646.171	24.03
646.361	24.16
646.55	24.39
646.739	24.13
646.928	24.53
647.117	24.81
647.306	24.97
647.495	24.98
647.684	25.49
647.873	25.59
648.062	25.08
648.251	24.61
648.44	24.5
648.629	24.66
648.818	25.23
649.007	24.84
649.196	24.5
649.384	24.36
649.573	24.74
649.762	24.76
649.951	24.82
650.14	24.84
650.328	24.96
650.517	24.86
650.706	24.98
650.895	25.02
651.083	25.45
651.272	25.85
651.461	25.9
651.65	25.81
651.838	25.87
652.027	25.53
652.216	25.76
652.404	25.28
652.593	25.45
652.781	24.73
652.97	25.1
653.158	24.71
653.347	24.86
653.535	24.82
653.724	24.98
653.912	24.63
654.101	24.97
654.289	24.73
654.478	25.34
654.666	25.53
654.855	25.79
655.043	25.19
655.231	25.48
655.42	25.23
655.608	25.1
655.796	25.26
655.985	25.16
656.173	24.94
656.361	25.51
656.55	25.28
656.738	25.34
656.926	25.82
657.114	25.9
657.302	26.03
657.491	26.04
657.679	26.43
657.867	25.92
658.055	25.73
658.243	25.85
658.431	25.75
658.619	25.72
658.807	25.76
658.996	25.4
659.184	25.51
659.372	25.54
659.56	25.64
659.748	25.76
659.936	26.19
660.124	26.67
660.311	26.36
660.499	26.22
660.687	25.91
660.875	25.81
661.063	25.82
661.251	25.62
661.439	25.14
661.627	25.14
661.814	24.97
662.002	24.91
662.19	24.6
662.378	24.94
662.565	25.03
662.753	25.55
662.941	25.68
663.129	25.94
663.316	26.05
663.504	26.41
663.692	26.23
663.879	25.92
664.067	25.96
664.254	26.4
664.442	26.74
664.63	26.52
664.817	26.97
665.005	26.83
665.192	27.08
665.38	26.94
665.567	26.91
665.755	26.9
665.942	27.57
666.13	27.23
666.317	26.66
666.504	26.09
666.692	26.24
666.879	25.77
667.067	25.43
667.254	25.16
667.441	25.24
667.629	25.15
667.816	25.56
668.003	25.37
668.19	25.29
668.378	25.82
668.565	26.28
668.752	26.58
668.939	26.77
669.127	27.55
669.314	27.92
669.501	27.77
669.688	27.8
669.875	27.2
670.062	26.81
670.249	27.41
670.436	26.82
670.623	26.71
670.81	25.93
670.997	26.05
671.184	25.73
671.371	25.32
671.558	25.38
671.745	25.75
671.932	25.9
672.119	26.39
672.306	26.14
672.493	26.51
672.68	26.44
672.867	26.48
673.054	25.78
673.24	25.64
673.427	25.58
673.614	25.44
673.801	25.17
673.988	25.05
674.174	24.65
674.361	24.41
674.548	24.51
674.734	24.62
674.921	24.99
675.108	25.47
675.294	25.46
675.481	25.22
675.668	25.74
675.854	25.96
676.041	26.33
676.227	26.15
676.414	26.42
676.601	26.17
676.787	25.96
676.974	25.92
677.16	26.62
677.347	27.05
677.533	27.45
677.719	27.35
677.906	27.31
678.092	27.39
678.279	27.25
678.465	26.83
678.651	26.56
678.838	26.53
679.024	26.68
679.21	26.14
679.397	25.82
679.583	26.39
679.769	26.11
679.955	25.93
680.142	25.65
680.328	25.66
680.514	25.85
680.7	26.51
680.886	26.89
681.073	26.89
681.259	27.09
681.445	27.09
681.631	26.82
681.817	26.94
682.003	26.96
682.189	26.71
682.375	27.16
682.561	27.44
682.747	27.21
682.933	27.36
683.119	27.52
683.305	26.92
683.491	26.82
683.677	26.5
683.863	26.57
684.049	26.21
684.235	26.42
684.42	26.36
684.606	25.93
684.792	25.79
684.978	25.71
685.164	25.91
685.349	26.25
685.535	26.88
685.721	26.7
685.907	26.49
686.092	26.75
686.278	27.26
686.464	27.66
686.649	27.69
686.835	27.76
687.021	27.36
687.206	27.07
687.392	27.22
687.577	27.06
687.763	26.94
687.948	27.47
688.134	27.67
688.319	27.03
688.505	26.91
688.69	26.69
688.876	26.68
689.061	26.58
689.247	25.87
689.432	25.77
689.618	25.34
689.803	25.79
689.988	25.54
690.174	25.66
690.359	26.26
690.544	25.93
690.73	26.88
690.915	27.27
691.1	27.42
691.285	27.58
691.471	27.13
691.656	26.94
691.841	26.87
692.026	26.64
692.211	26.78
692.396	26.45
692.582	26.24
692.767	25.47
692.952	24.68
693.137	24.86
693.322	25.82
693.507	26.32
693.692	26.46
693.877	25.95
694.062	26.56
694.247	26.52
694.432	26.88
694.617	27.06
694.802	27.42
694.987	27.65
695.172	28.01
695.357	27.8
695.541	27.68
695.726	28.42
695.911	28.93
696.096	28.61
696.281	28.31
696.466	28.03
696.65	28.33
696.835	27.98
697.02	28.26
697.204	28.18
697.389	28
697.574	28.5
697.759	28.19
697.943	28.38
698.128	28.01
698.312	28.06
698.497	28.05
698.682	27.42
698.866	27.37
699.051	27.57
699.235	27.3
699.42	27.44
699.604	27.01
699.789	27.21
699.973	27
700.158	27.55
700.342	27.53
700.527	27.17
700.711	27.1
700.895	26.89
701.08	26.82
701.264	26.86
701.448	26.22
701.633	26.66
701.817	26.22
702.001	25.9
702.186	25.42
702.37	25.84
702.554	26.99
702.738	27.65
702.923	28.69
703.107	28.32
703.291	28.52
703.475	29.46
703.659	29.59
703.843	29.07
704.027	29.15
704.212	29.49
704.396	28.71
704.58	27.81
704.764	27.29
704.948	26.79
705.132	26.99
705.316	27.09
705.5	27.64
705.684	27.49
705.868	27.41
706.052	27.78
706.235	26.48
706.419	26.68
706.603	26.88
706.787	27.62
706.971	27.01
707.155	26.77
707.339	26.15
707.522	24.92
707.706	24.51
707.89	24.83
708.074	24.86
708.257	25.29
708.441	25.64
708.625	25.1
708.808	24.81
708.992	24.44
709.176	24.66
709.359	25.38
709.543	25.37
709.727	25.05
709.91	25.18
710.094	25.1
710.277	25.56
710.461	25.57
710.644	26.57
710.828	27.14
711.011	28.05
711.195	27.81
711.378	27.28
711.562	27.88
711.745	28.45
711.928	28.6
712.112	28.34
712.295	27.95
712.478	27.7
712.662	27.43
712.845	27.08
713.028	26.84
713.212	27.04
713.395	26.87
713.578	26.71
713.761	26.17
713.945	26.33
714.128	26.45
714.311	26.97
714.494	27
714.677	27.25
714.86	27.38
715.043	27.66
715.227	27.25
715.41	27.86
715.593	27.87
715.776	28.27
715.959	27.99
716.142	28.44
716.325	28.58
716.508	28.98
716.691	28.4
716.874	28.32
717.057	28.06
717.239	28.39
717.422	27.75
717.605	27.74
717.788	27.41
717.971	27.69
718.154	26.7
718.337	26.49
718.519	26.06
718.702	26.14
718.885	26.99
719.068	27.28
719.25	27.67
719.433	28.53
719.616	29.24
719.798	29.83
719.981	29.46
720.164	30.11
720.346	30.15
720.529	29.44
720.712	28.73
720.894	28.46
721.077	28.75
721.259	27.88
721.442	27.89
721.624	27.19
721.807	27.61
721.989	27.89
722.172	28.31
722.354	28.16
722.537	29.25
722.719	29.75
722.901	29.41
723.084	28.35
723.266	29.24
723.448	28.44
723.631	29.47
723.813	28.83
723.995	28.32
724.178	28.2
724.36	27.75
724.542	27.68
724.724	28.26
724.907	28.24
725.089	28.68
725.271	28.65
725.453	29.24
725.635	27.15
725.817	27.25
725.999	27.79
726.181	27.16
726.364	27.4
726.546	27.99
726.728	27.45
726.91	26.82
727.092	27.95
727.274	27.63
727.456	28.18
727.638	29.33
727.819	29.38
728.001	30.08
728.183	30.84
728.365	31.03
728.547	29.93
728.729	30.34
728.911	30.97
729.093	29.35
729.274	28.85
729.456	27.78
729.638	27.41
729.82	27.25
730.001	26.53
730.183	25.87
730.365	25.42
730.546	25.73
730.728	24.78
730.91	25.18
731.091	25.85
731.273	26.04
731.455	26.48
731.636	26.28
731.818	26.64
731.999	26.17
732.181	26.57
732.362	26.97
732.544	26.91
732.725	28.09
732.907	28.28
733.088	27.34
733.27	27.89
733.451	27.59
733.633	27.67
733.814	27.03
733.995	27.97
734.177	27.34
734.358	27.95
734.539	28.81
734.721	27.74
734.902	26.31
735.083	27.25
735.264	25.96
735.446	26.03
735.627	26.01
735.808	26.48
735.989	26.25
736.17	26.46
736.351	26.87
736.533	27.31
736.714	28.94
736.895	29.37
737.076	30.53
737.257	30.87
737.438	29.8
737.619	29.67
737.8	28.81
737.981	28.59
738.162	28.31
738.343	27.51
738.524	26.27
738.705	25.38
738.886	25.53
739.067	24.52
739.247	25.62
739.428	26.2
739.609	27.05
739.79	28.27
739.971	28.51
740.151	29.68
740.332	30.69
740.513	31.15
740.694	30.96
740.874	31
741.055	30.74
741.236	29.68
741.417	30.31
741.597	29.32
741.778	29.29
741.958	28.28
742.139	27.61
742.32	27.48
742.5	25.8
742.681	25.98
742.861	26.42
743.042	26.98
743.222	27.41
743.403	27.55
743.583	26.99
743.764	27.72
743.944	28
744.124	27.97
744.305	26.08
744.485	27.48
744.666	28.31
744.846	28.15
745.026	28.07
745.207	28.44
745.387	28.69
745.567	30.27
745.747	29.33
745.928	30.38
746.108	30.36
746.288	31.05
746.468	30.89
746.648	30.59
746.829	30.77
747.009	31.62
747.189	30.05
747.369	28.02
747.549	26.95
747.729	27.41
747.909	27.5
748.089	27.16
748.269	27.76
748.449	27.53
748.629	27.5
748.809	27.44
748.989	28.6
749.169	29.83
749.349	31.67
749.529	32.86
749.709	31.97
749.889	31.51
750.068	33.44
750.248	33.92
750.428	34.4
750.608	35.01
750.788	35.42
750.967	32.77
751.147	32.3
751.327	31.07
751.507	31.19
751.686	32.4
751.866	32.67
752.046	31.79
752.225	31.02
752.405	30.71
752.585	29.76
752.764	28.59
752.944	27.85
753.123	28.71
753.303	29.97
753.482	28.33
753.662	26.91
753.841	26.84
754.021	25.87
754.2	25.41
754.38	25.46
754.559	26.24
754.739	26.66
754.918	27.24
755.097	26.46
755.277	26.07
755.456	27
755.635	28.22
755.815	28.69
755.994	29.36
756.173	29.55
756.352	29.15
756.532	27.69
756.711	28.13
756.89	29.99
757.069	30.82
757.248	32.39
757.427	33.08
757.607	33.22
757.786	32.56
757.965	31.58
758.144	32.76
758.323	32.19
758.502	32.69
758.681	32.25
758.86	30.75
759.039	29.75
759.218	28.36
759.397	28.32
759.576	25.81
759.755	27.13
759.934	26.9
760.113	26.1
760.291	27.56
760.47	27.65
760.649	27.34
760.828	28.8
761.007	30.12
761.186	29.29
761.364	28.09
761.543	29.69
761.722	29.39
761.901	30.15
762.079	30.59
762.258	28.94
762.437	28.65
762.615	28.69
762.794	28.14
762.972	28.34
763.151	29.04
763.33	29.39
763.508	29.59
763.687	29.24
763.865	29.1
764.044	29.07
764.222	29.55
764.401	29.73
764.579	29.45
764.758	28.32
764.936	27.77
765.114	28
765.293	27.81
765.471	27.37
765.65	26.71
765.828	26.49
766.006	25.45
766.184	25.26
766.363	25.16
766.541	26.07
766.719	26.86
766.898	27.83
767.076	27.28
767.254	27.37
767.432	26.76
767.61	28
767.788	28.02
767.967	28.11
768.145	29.29
768.323	29.2
768.501	29.36
768.679	29.54
768.857	27.51
769.035	26.65
769.213	26.55
769.391	28.41
769.569	28.3
769.747	28.56
769.925	29.46
770.103	29.92
770.281	29.85
770.459	29.18
770.636	30.73
770.814	30.03
770.992	31.4
771.17	29.87
771.348	30.19
771.525	29.04
771.703	30.06
771.881	30.3
772.059	31.86
772.236	32.35
772.414	33.62
772.592	32.56
772.769	35.19
772.947	34.37
773.125	36.59
773.302	37.18
773.48	36.77
773.657	34.25
773.835	35.77
774.013	34.33
774.19	33.88
774.368	33.65
774.545	33.17
774.723	31.03
774.9	32.41
775.077	33.62
775.255	32.94
775.432	34.23
775.61	34.37
775.787	32.56
775.964	30.33
776.142	29.44
776.319	29.71
776.496	29.73
776.674	30.77
776.851	32.38
777.028	29.89
777.205	29.22
777.382	30.29
777.56	31.95
777.737	33.05
777.914	33.09
778.091	35.34
778.268	35.35
778.445	36.22
778.622	37.08
778.8	35.57
778.977	36.85
779.154	35.81
779.331	34.41
779.508	34.6
779.685	29.99
779.862	32.47
780.038	30.94
780.215	27.36
780.392	27.86
780.569	28.17
780.746	27.16
780.923	28.35
781.1	31.58
781.277	31.72
781.453	31.16
781.63	33.06
781.807	32.49
781.984	31.85
782.16	34.68
782.337	35.48
782.514	35.7
782.691	37.11
782.867	36.71
783.044	36.04
783.221	35.63
783.397	35.4
783.574	36.78
783.75	38.09
783.927	39.52
784.103	38.13
784.28	38.87
784.456	38.54
784.633	36.21
784.809	34.57
784.986	33.68
785.162	34.06
785.339	34.4
785.515	34.23
785.692	30.87
785.868	31.07
786.044	32.79
786.221	30.31
786.397	28.08
786.573	28.88
786.749	27.38
786.926	25.58
787.102	24.26
787.278	24.13
787.454	24.83
787.631	27.25
787.807	24.87
787.983	25.08
788.159	23.95
788.335	25.25
788.511	24.55
788.687	26.21
788.863	28.29
789.039	29.69
789.216	32.04
789.392	30.97
789.568	30.92
789.744	33
789.919	32.4
790.095	35.71
790.271	33.43
790.447	33.58
790.623	33.02
790.799	31.79
790.975	31.52
791.151	26.43
791.327	26.94
791.502	26.52
791.678	25.57
791.854	26.19
792.03	23.47
792.205	27.35
792.381	28.33
792.557	29.13
792.733	28.58
792.908	30.37
793.084	35.52
793.259	38.49
793.435	38.45
793.611	41.75
793.786	42.69
793.962	45.58
794.137	43.36
794.313	41.99
794.488	40.63
794.664	38.75
794.839	34.99
795.015	31.49
795.19	28.56
795.366	27.94
795.541	26.82
795.716	25.47
795.892	21.99
796.067	21.41
796.242	24.11
796.418	23.15
796.593	26.45
796.768	26.92
796.944	31.08
797.119	30.98
797.294	32.71
797.469	31.76
797.644	29.34
797.82	29.84
797.995	31.23
798.17	29.58
798.345	33.44
798.52	35.11
798.695	38.88
798.87	38.46
799.045	39.96
799.22	40.34
799.395	38.42
799.57	39.69
799.745	40.62
799.92	39.99
800.095	39.93
800.27	42.03
800.445	41.32
800.62	38.99
800.795	35.55
800.97	32.72
801.145	31.05
801.319	35.89
801.494	36.05
801.669	36.39
801.844	37.64
802.018	38.04
802.193	36.83
802.368	37.06
802.543	36.63
802.717	36.7
802.892	37.8
803.067	36.81
803.241	37.33
803.416	36.47
803.59	36.26
803.765	39.51
803.94	38.36
804.114	33.55
804.289	29.28
804.463	27.46
804.638	30.34
804.812	32.44
804.986	34.64
805.161	29.79
805.335	31.03
805.51	33.93
805.684	28.33
805.858	32.46
806.033	34.67
806.207	36.48
806.381	41.22
806.556	39.54
806.73	38.78
806.904	39.3
807.078	39.83
807.253	40.01
807.427	37.99
807.601	36.2
807.775	35.1
807.949	30.55
808.123	33.29
808.298	28.78
808.472	28.88
808.646	27.92
808.82	24.86
808.994	27.45
809.168	27.33
809.342	27.27
809.516	28.83
809.69	31.72
809.864	32.88
810.038	30.55
810.212	31.33
810.385	30.53
810.559	30.14
810.733	28.92
810.907	25.77
811.081	23.61
811.255	24.57
811.428	28.49
811.602	26.13
811.776	29.43
811.95	31.5
812.123	32.23
812.297	31.02
812.471	32.27
812.644	32.95
812.818	38
812.992	37.92
813.165	38.05
813.339	30.23
813.512	28.89
813.686	30.22
813.86	30.86
814.033	32.38
814.207	35.69
814.38	32.9
814.554	31.61
814.727	30.37
814.9	32.67
815.074	30.15
815.247	35.36
815.421	34.81
815.594	30.8
815.767	23.48
815.941	20.35
816.114	13.06
816.287	17.63
816.46	17.94
816.634	18.22
816.807	13.81
816.98	12.13
817.153	9.83
817.327	6.01
817.5	10.1
817.673	14.46
817.846	15.93
818.019	25.23
818.192	19.82
818.365	21.32
818.538	14.2
818.711	21.89
818.884	22.2
819.057	25.29
819.23	26.65
819.403	27.24
819.576	29.07
819.749	25.57
819.922	25.15
820.095	30.75
820.268	31.97
820.441	35.87
820.614	34.2
820.786	32.77
820.959	30.58
821.132	30.57
821.305	32.35
821.477	31.4
821.65	32.6
821.823	30.5
821.996	28.91
822.168	28.45
822.341	27.6
822.514	27.74
822.686	28.76
822.859	29.7
823.031	29.77
823.204	28.93
823.376	29.39
823.549	30.18
823.722	30.44
823.894	30.58
824.067	30.95
824.239	31.15
824.411	31.27
824.584	30.33
824.756	30.16
824.929	30.09
825.101	29.95
825.273	28.81
825.446	26.47
825.618	28.27
825.79	27.1
825.963	27.74
826.135	27.48
826.307	27.67
826.479	28.48
826.652	28.66
826.824	29.74
826.996	30.15
827.168	30.13
827.34	31.72
827.512	29.73
827.684	29.88
827.856	29.16
828.029	29.44
828.201	29.85
828.373	30.41
828.545	30.15
828.717	31.13
828.889	30.48
829.061	32.14
829.232	32.33
829.404	33.2
829.576	33.48
829.748	32.23
829.92	34.95
830.092	33.26
830.264	32.15
830.436	32.34
830.607	32.4
830.779	33.95
830.951	31.77
831.123	30.76
831.294	29.8
831.466	31.81
831.638	38.59
831.809	37.07
831.981	39.22
832.153	41.34
832.324	39.87
832.496	36.01
832.667	35.39
832.839	38
833.011	36.58
833.182	35.98
833.354	37.39
833.525	32.38
833.697	33.09
833.868	30.64
834.039	30.07
834.211	30
834.382	30.3
834.554	30.1
834.725	29.03
834.896	32.4
835.068	33.14
835.239	33.89
835.41	34.07
835.581	31.58
835.753	30.55
835.924	31.94
836.095	34.28
836.266	34.89
836.438	35.87
836.609	35.42
836.78	31.75
836.951	34.34
837.122	36.11
837.293	35.56
837.464	35.66
837.635	42.64
837.806	40
837.977	42.76
838.148	38.74
838.319	37.98
838.49	42.82
838.661	42.82
838.832	40.16
839.003	38.65
839.174	38.43
839.345	34.92
839.516	31.48
839.687	30.46
839.857	21.28
840.028	23.56
840.199	20.49
840.37	18.3
840.54	22.85
840.711	25.53
840.882	16.6
841.053	16.18
841.223	20.21
841.394	20.46
841.564	22.08
841.735	21.18
841.906	24.04
842.076	23.42
842.247	24.79
842.417	25.3
842.588	25.95
842.758	35.59
842.929	39.72
843.099	42.05
843.27	36.99
843.44	35.06
843.611	39.71
843.781	39.95
843.951	39.92
844.122	51.98
844.292	55.25
844.462	54.92
844.633	51.63
844.803	53.56
844.973	46.82
845.144	51.83
845.314	62.95
845.484	60.84
845.654	63.02
845.824	83.13
845.995	70.24
846.165	59.25
846.335	60.24
846.505	52.49
846.675	50.17
846.845	54.02
847.015	61
847.185	64.93
847.355	71.64
847.525	64.7
847.695	39.04
847.865	43.59
848.035	51.57
848.205	35.8
848.375	41.79
848.545	38.53
848.715	42.23
848.884	42.68
849.054	44.19
849.224	54.36
849.394	49.22
849.564	45.92
849.733	55.05
849.903	52.85
850.073	74.06
850.243	71.41
850.412	63.81
850.582	59.52
850.752	74.49
850.921	78.27
851.091	58.11
851.26	73.47
851.43	80.09
851.599	56.5
851.769	59.08
851.939	60.83
852.108	63.15
852.278	68.74
852.447	79.46
852.616	84.75
852.786	82.96
852.955	67.7
853.125	47.4
853.294	17.62
853.463	77.52
853.633	64.99
853.802	65.27
853.971	82.06
854.141	87.44
854.31	101.41
854.479	61.73
854.648	69.43
854.818	84.62
854.987	102.6
855.156	179.58
855.325	143.57
855.494	170.26
855.663	202.63
855.832	126.03
856.001	117.51
856.171	106.89
856.34	118.55
856.509	87.48
856.678	80.79
856.847	78.86
857.016	44.69
857.185	56.86
857.353	52.13
857.522	53.93
857.691	80.85
857.86	77.9
858.029	45.94
858.198	29.5
858.367	32.33
858.535	58.63
858.704	43.34
858.873	64.4
859.042	59.96
859.21	52.09
859.379	53.28
859.548	45.38
859.717	52.77
859.885	59.39
860.054	53.39
860.222	70.18
860.391	46.2
860.56	51.09
860.728	51.02
860.897	45.33
861.065	50.73
861.234	50.81
861.402	47.43
861.571	51.2
861.739	56.47
861.908	54.97
862.076	49.46
862.244	53.93
862.413	55.82
862.581	63.15
862.749	53.71
862.918	50.66
863.086	49.79
863.254	41.99
863.423	34.67
863.591	24.1
863.759	34.26
863.927	32.39
864.096	29.63
864.264	22.15
864.432	-6.78
864.6	29.19
864.768	39.53
864.936	31.76
865.104	56.16
865.272	70.81
865.44	80.93
865.608	69.65
865.776	50.44
865.944	68.06
866.112	76.79
866.28	87.73
866.448	95.46
866.616	83.75
866.784	94.57
866.952	71.01
867.12	61.46
867.288	67.49
867.455	85.87
867.623	102.77
867.791	91.73
867.959	78.83
868.127	70.61
868.294	69.16
868.462	72.24
868.63	79.47
868.797	96.95
868.965	89.22
869.133	92.22
869.3	95.53
869.468	93.56
869.636	98.01
869.803	90.78
869.971	107.03
870.138	81.05
870.306	81.16
870.473	71.92
870.641	48.61
870.808	47.03
870.975	60.91
871.143	64.95
871.31	66.87
871.478	60.29
871.645	70.04
871.812	38.18
871.98	43.44
872.147	47.14
872.314	66.91
872.482	105.83
872.649	137.15
872.816	113.11
872.983	-6.84
873.15	-21.3
873.318	72.25
873.485	108.41
873.652	216.27
873.819	249.84
873.986	156.86
874.153	106.73
874.32	83.4
874.487	70.01
874.654	79.44
874.821	88.19
874.988	77
875.155	76
875.322	59.39
875.489	63.23
875.656	60.78
875.823	70.03
875.99	54.26
876.157	64.09
876.324	71.96
876.49	76.55
876.657	79.23
876.824	57.05
876.991	58.02
877.157	71.83
877.324	51.04
877.491	49.8
877.658	50.14
877.824	57.41
877.991	43.36
878.157	34.41
878.324	35.88
878.491	48.7
878.657	71.04
878.824	60.46
878.99	75.08
879.157	75.72
879.323	88.35
879.49	94.01
879.656	154.91
879.823	284.12
879.989	212.24
880.156	180.69
880.322	89.85
880.488	73.44
880.655	54.14
880.821	29.56
880.987	28.82
881.154	3.84
881.32	30.77
881.486	21.67
881.652	21.2
881.819	17.35
881.985	13.91
882.151	20.33
882.317	22.26
882.483	28.26
882.649	32.18
882.816	30.57
882.982	32.31
883.148	27.28
883.314	28.26
883.48	28.01
883.646	30.56
883.812	29.26
883.978	30.47
884.144	32.24
884.31	30.85
884.476	29.79
884.642	29.01
884.807	32.28
884.973	32.99
885.139	36.58
885.305	38.25
885.471	36.78
885.637	37.89
885.802	35.89
885.968	30.8
886.134	30.79
886.3	36.16
886.465	38.06
886.631	34.32
886.797	38.49
886.962	32.69
887.128	23.99
887.293	18.53
887.459	18.31
887.625	13.75
887.79	24.15
887.956	25.31
888.121	14.81
888.287	17.4
888.452	0.06
888.618	-19.19
888.783	-17
