Data from 2938041_Reflection_2.txt Node
Date: Sun Jul 12 14:38:00 EDT 2015
User: robert
Spectrometer: USB4E03001
Autoset integration time: false
Trigger mode: 4
Integration Time (sec): 1.000000E-1
Scans to average: 10
Electric dark correction enabled: true
Nonlinearity correction enabled: false
Boxcar width: 5
Stray light correction enabled: false
XAxis mode: Wavelengths
Stop averaging: false
Number of Pixels in Spectrum: 3648
>>>>>Begin Spectral Data<<<<<
177.566	176.13
177.785	241.89
178.005	-8462.5
178.225	-17.25
178.445	46.1
178.665	61.86
178.885	21.38
179.105	38.38
179.324	110.18
179.544	-154.43
179.764	1111.84
179.984	-327.9
180.204	-87.8
180.423	-27.45
180.643	-58.12
180.863	-25.05
181.083	-48.77
181.302	-21.03
181.522	-3.38
181.742	0.32
181.961	-15.32
182.181	-6.02
182.401	4.8
182.621	-2.29
182.84	-4.94
183.06	14.28
183.279	-20.79
183.499	2.6
183.719	3.15
183.938	-1.68
184.158	16.86
184.377	20.62
184.597	34.68
184.816	41.69
185.036	41.57
185.256	40.55
185.475	36.2
185.695	58.71
185.914	32.44
186.134	49.07
186.353	68.35
186.572	106.37
186.792	79.4
187.011	68.07
187.231	50.85
187.45	33.77
187.67	25.66
187.889	41.67
188.108	22.44
188.328	32.67
188.547	32.23
188.766	24
188.986	-4.82
189.205	13.45
189.424	-115.4
189.644	-115.04
189.863	-47.14
190.082	-4.24
190.302	-4.25
190.521	-42.5
190.74	-13.91
190.959	-0.45
191.178	-75.24
191.398	-47.47
191.617	-458.06
191.836	23.71
192.055	48.83
192.274	-103.62
192.494	-44.17
192.713	-403.09
192.932	326.39
193.151	-55.43
193.37	40377.78
193.589	-18.6
193.808	-67.02
194.027	-34.52
194.246	-98.57
194.465	-210.81
194.685	-107.44
194.904	-276.07
195.123	-183.72
195.342	-240.52
195.561	1183.39
195.78	271.37
195.999	207.35
196.218	134.19
196.436	167.37
196.655	146.79
196.874	133
197.093	89.45
197.312	75.12
197.531	71.62
197.75	60.94
197.969	92.6
198.188	85.63
198.407	91.1
198.625	87.3
198.844	84.69
199.063	85.42
199.282	75.3
199.501	79.89
199.719	77.62
199.938	55.08
200.157	51.67
200.376	39.83
200.594	36.71
200.813	31.28
201.032	8.77
201.251	14.8
201.469	9.8
201.688	16.71
201.907	26.47
202.125	44.15
202.344	49.19
202.563	36.5
202.781	5.96
203	49.14
203.218	43.6
203.437	49.38
203.656	78.15
203.874	77.49
204.093	96.11
204.311	91.93
204.53	63.23
204.748	52.62
204.967	50.23
205.185	93.76
205.404	62.52
205.622	72.49
205.841	99.88
206.059	1019.57
206.278	321.75
206.496	307.03
206.715	-1379.41
206.933	-154.75
207.151	-1647.06
207.37	-41.45
207.588	-61.84
207.806	-30.91
208.025	-10.12
208.243	-2.68
208.461	-18.94
208.68	-23.73
208.898	-4.75
209.116	26.34
209.335	15.6
209.553	31.62
209.771	51.56
209.989	69.05
210.208	75.92
210.426	91.47
210.644	72.09
210.862	129.45
211.081	122.31
211.299	24.41
211.517	-478.33
211.735	-413.07
211.953	-1370.12
212.171	-2759.11
212.39	390.21
212.608	333.43
212.826	1394.89
213.044	-317.49
213.262	-118.76
213.48	-138.58
213.698	-202.46
213.916	-93.97
214.134	-105.34
214.352	-20.19
214.57	-26.66
214.788	-10.38
215.006	-2.11
215.224	32.34
215.442	12.42
215.66	33.12
215.878	61.16
216.096	59.86
216.314	48.82
216.532	65.56
216.75	89.54
216.968	109.13
217.185	97.16
217.403	77.55
217.621	79.72
217.839	85.33
218.057	57.91
218.275	28.52
218.492	36.58
218.71	34.66
218.928	28.29
219.146	22.4
219.363	25.54
219.581	35.01
219.799	33.97
220.017	36.98
220.234	40.82
220.452	31.66
220.67	38.51
220.887	21.76
221.105	26.71
221.323	35.39
221.54	28.81
221.758	1.96
221.976	5.54
222.193	1.09
222.411	-40.65
222.629	-82.46
222.846	-63.53
223.064	-71.48
223.281	1.26
223.499	-0.23
223.716	-10.8
223.934	-7.17
224.151	-9.2
224.369	-30.04
224.586	-2.9
224.804	1.3
225.021	8.69
225.239	22.34
225.456	24.57
225.674	10.56
225.891	6.45
226.108	17.94
226.326	3.06
226.543	4.99
226.76	14.37
226.978	6.39
227.195	7.13
227.413	12.73
227.63	12.82
227.847	11.74
228.064	6.78
228.282	10.33
228.499	9.85
228.716	10.28
228.934	14.98
229.151	15.76
229.368	15.93
229.585	17.3
229.802	15
230.02	12.98
230.237	14.86
230.454	19.34
230.671	19.13
230.888	16.43
231.105	19.83
231.323	17.91
231.54	16.21
231.757	10.37
231.974	11.48
232.191	12.89
232.408	17.1
232.625	14.81
232.842	15.91
233.059	16.01
233.276	14.94
233.493	15.47
233.71	15.47
233.927	17
234.144	24.07
234.361	23.16
234.578	22.93
234.795	17.06
235.012	15.51
235.229	12.29
235.446	9.8
235.663	12.14
235.879	15.4
236.096	17.04
236.313	17.82
236.53	13.96
236.747	20.91
236.964	24.94
237.181	28.19
237.397	29.41
237.614	30.15
237.831	33.32
238.048	32.25
238.264	17.95
238.481	9.25
238.698	9.71
238.915	13
239.131	7.42
239.348	2.81
239.565	2.2
239.781	5.96
239.998	7.39
240.215	6.22
240.431	2.74
240.648	8.6
240.865	13.15
241.081	11.12
241.298	8.4
241.514	10.53
241.731	14.02
241.947	15.41
242.164	14.26
242.38	13.99
242.597	13.9
242.814	15.22
243.03	14.93
243.246	13.92
243.463	13.87
243.679	14.53
243.896	12.7
244.112	10.63
244.329	6.89
244.545	6.77
244.762	5.21
244.978	3.8
245.194	4.81
245.411	7.05
245.627	8.45
245.843	11
246.06	9.34
246.276	10.04
246.492	10.6
246.709	11.54
246.925	12.04
247.141	12.62
247.357	13.38
247.574	12.97
247.79	12.71
248.006	12.31
248.222	11.18
248.439	12.83
248.655	13.65
248.871	13.43
249.087	13.69
249.303	12.73
249.519	10.99
249.736	10.97
249.952	10.38
250.168	10.22
250.384	10.79
250.6	11.77
250.816	10.59
251.032	9.98
251.248	8.43
251.464	7.34
251.68	8.33
251.896	9.33
252.112	8.41
252.328	9.81
252.544	7.89
252.76	5.67
252.976	5.02
253.192	4.09
253.408	1.29
253.624	1.14
253.84	-0.29
254.056	0.7
254.272	-1.37
254.487	-1.43
254.703	-2.42
254.919	-1.46
255.135	3.42
255.351	-0.89
255.567	-1.03
255.782	1.18
255.998	2.28
256.214	4.44
256.43	-1.87
256.646	1.91
256.861	3.66
257.077	3.58
257.293	3.18
257.508	0.17
257.724	3.49
257.94	5.96
258.155	4.07
258.371	6.23
258.587	7.29
258.802	10.34
259.018	9.14
259.234	9.43
259.449	9.66
259.665	10.07
259.88	10.79
260.096	11.48
260.312	10.93
260.527	11.75
260.743	11.57
260.958	11.58
261.174	10.85
261.389	11.66
261.605	10.75
261.82	10.38
262.036	9.87
262.251	9.16
262.466	8.45
262.682	8.21
262.897	7.32
263.113	6.98
263.328	4.73
263.543	4.74
263.759	3.94
263.974	5
264.189	7.24
264.405	8.69
264.62	8.82
264.835	10.17
265.051	11.86
265.266	13.59
265.481	12.88
265.696	13.63
265.912	12.26
266.127	12.96
266.342	12.73
266.557	9.57
266.773	8.55
266.988	8.3
267.203	6.73
267.418	6.56
267.633	5.42
267.848	6.28
268.064	6.24
268.279	6.8
268.494	5.26
268.709	5.22
268.924	6.4
269.139	6.3
269.354	7.8
269.569	7.75
269.784	7.42
269.999	7.67
270.214	6.2
270.429	8.33
270.644	7.18
270.859	8.41
271.074	9.06
271.289	9.53
271.504	9.8
271.719	9.05
271.934	9.57
272.149	9.69
272.363	10.59
272.578	12.17
272.793	10.92
273.008	11.79
273.223	11.63
273.438	10.5
273.653	8.66
273.867	9.31
274.082	9.69
274.297	9.81
274.512	8.7
274.726	7.26
274.941	6.24
275.156	5.31
275.371	4.96
275.585	5.13
275.8	5.04
276.015	6.99
276.229	6.8
276.444	6.23
276.659	5.73
276.873	6.49
277.088	6.73
277.302	5.58
277.517	4.9
277.732	5.61
277.946	4.3
278.161	4.47
278.375	4.01
278.59	3.24
278.804	3.37
279.019	4.1
279.233	2.12
279.448	1.89
279.662	3.05
279.877	5.39
280.091	5.61
280.306	7.49
280.52	7.37
280.735	7.17
280.949	7.08
281.163	6.71
281.378	7.34
281.592	8.94
281.806	8.77
282.021	8.5
282.235	7.82
282.449	7.32
282.664	5.66
282.878	6.42
283.092	6.58
283.307	6.46
283.521	7.87
283.735	6.2
283.949	5.38
284.164	6.3
284.378	7.43
284.592	7.14
284.806	8.19
285.02	8.24
285.234	8.48
285.449	8.35
285.663	7.71
285.877	6.82
286.091	7.79
286.305	8
286.519	7.92
286.733	6.42
286.947	6.85
287.161	5.61
287.375	6.34
287.589	6.37
287.803	5.57
288.017	5.99
288.231	4.51
288.445	3.76
288.659	4.69
288.873	4.08
289.087	4.94
289.301	6.01
289.515	6.78
289.729	5.13
289.943	5.06
290.157	5.69
290.371	7.25
290.584	7.89
290.798	9.33
291.012	9.56
291.226	10.13
291.44	10.69
291.654	10.23
291.867	10.02
292.081	11.67
292.295	10.9
292.509	11.94
292.722	9.24
292.936	10.13
293.15	8.89
293.364	9.13
293.577	9.59
293.791	9.13
294.005	9.23
294.218	9.35
294.432	7.47
294.645	8.09
294.859	6.13
295.073	7.92
295.286	8.18
295.5	7.52
295.713	7.4
295.927	6.17
296.14	6.42
296.354	6.04
296.568	7.5
296.781	9.32
296.994	9.01
297.208	10
297.421	9.65
297.635	9.09
297.848	8.98
298.062	8.3
298.275	9.06
298.489	8.67
298.702	9.28
298.915	7.04
299.129	6.7
299.342	6.27
299.555	7.88
299.769	7.09
299.982	8.62
300.195	9.56
300.409	9.29
300.622	8.69
300.835	9.62
301.048	8.79
301.262	10.21
301.475	10.09
301.688	10.79
301.901	10.15
302.115	11.96
302.328	9.32
302.541	9.16
302.754	10.34
302.967	11.12
303.18	11.86
303.393	12.86
303.607	11.89
303.82	10.94
304.033	11.41
304.246	10.5
304.459	9.89
304.672	10.44
304.885	10.5
305.098	9.64
305.311	9.47
305.524	7.53
305.737	4.87
305.95	5.16
306.163	6
306.376	5.22
306.589	4.98
306.802	4.15
307.015	5.87
307.228	7.39
307.44	7.32
307.653	7.53
307.866	8.87
308.079	11.32
308.292	12.21
308.505	11.96
308.718	11.9
308.93	12.45
309.143	12.01
309.356	11.73
309.569	9.13
309.781	8.91
309.994	8.71
310.207	8.83
310.42	8.27
310.632	7.26
310.845	8.78
311.058	8.23
311.27	7.62
311.483	9.43
311.696	10.26
311.908	11.92
312.121	12.01
312.333	12.77
312.546	12.1
312.759	11.52
312.971	11.98
313.184	10.81
313.396	9.9
313.609	9.32
313.821	8.68
314.034	7.79
314.246	6.47
314.459	7.02
314.671	7.19
314.884	7.65
315.096	8.28
315.309	9.99
315.521	7.97
315.733	11.45
315.946	11.99
316.158	11.8
316.371	12.15
316.583	12.74
316.795	13.45
317.008	12.31
317.22	12.73
317.432	12.22
317.644	10.48
317.857	12.45
318.069	11.51
318.281	12.1
318.494	11.8
318.706	12.18
318.918	13.58
319.13	13.25
319.342	12.5
319.555	11.53
319.767	11.49
319.979	10.63
320.191	10.63
320.403	9.94
320.615	10.64
320.827	11.56
321.039	9.7
321.252	7.68
321.464	7.01
321.676	7.72
321.888	6.34
322.1	6.58
322.312	8.19
322.524	8.04
322.736	9.66
322.948	10.52
323.16	9.84
323.372	11.08
323.584	11.9
323.796	12.78
324.007	13.43
324.219	14.62
324.431	14.4
324.643	13.18
324.855	12.51
325.067	12.08
325.279	10.69
325.491	10.62
325.702	10.6
325.914	10.41
326.126	10.97
326.338	9.45
326.55	8.49
326.761	9.3
326.973	11.61
327.185	11.69
327.396	12.24
327.608	12.39
327.82	12.8
328.032	13.24
328.243	14.05
328.455	13.47
328.666	15.58
328.878	16.76
329.09	16
329.301	14.04
329.513	15.44
329.725	14.35
329.936	15.14
330.148	14.51
330.359	12.08
330.571	11.37
330.782	11.27
330.994	10.64
331.205	9.84
331.417	11.04
331.628	9.87
331.84	9.19
332.051	9.29
332.262	8.29
332.474	8.72
332.685	10.57
332.897	11.07
333.108	11.81
333.319	11.27
333.531	11.38
333.742	10.5
333.953	11.32
334.165	11.46
334.376	11.85
334.587	11.34
334.799	11.64
335.01	12.2
335.221	11.33
335.432	12.13
335.644	11.73
335.855	12.48
336.066	13.1
336.277	12.88
336.488	13.05
336.7	12.58
336.911	13.24
337.122	12.75
337.333	12.82
337.544	13.5
337.755	11.73
337.966	12.15
338.177	11.39
338.388	11.05
338.599	12.12
338.811	12.19
339.022	11.77
339.233	12.11
339.444	12.37
339.655	10.89
339.866	10.56
340.076	10.35
340.287	10.56
340.498	11.58
340.709	11.3
340.92	11.48
341.131	10.24
341.342	10.91
341.553	10.7
341.764	10.44
341.975	10.55
342.185	10.78
342.396	10.72
342.607	10.42
342.818	9.64
343.029	10.07
343.239	9.24
343.45	10.72
343.661	10.08
343.872	9.6
344.082	10.33
344.293	10.56
344.504	10.69
344.714	11.67
344.925	11.99
345.136	12.52
345.346	12.59
345.557	12.82
345.768	12.22
345.978	12.45
346.189	13.18
346.399	12.96
346.61	14.11
346.821	13.87
347.031	13.93
347.242	14.45
347.452	14.71
347.663	15.72
347.873	16.75
348.084	16.73
348.294	17.44
348.504	17.71
348.715	17.88
348.925	16.95
349.136	16.42
349.346	15.35
349.557	14.27
349.767	13.99
349.977	12.01
350.188	12.23
350.398	11.77
350.608	10.57
350.819	9.84
351.029	9.14
351.239	10.54
351.449	11.59
351.66	11.63
351.87	12.37
352.08	11.93
352.29	13.25
352.501	12.03
352.711	12.83
352.921	13.58
353.131	13.63
353.341	15
353.552	13.54
353.762	12.42
353.972	12.32
354.182	11.38
354.392	10.98
354.602	10.47
354.812	11.1
355.022	11.32
355.232	11.09
355.442	11.45
355.652	9.58
355.862	8.66
356.072	8.71
356.282	8.57
356.492	8.46
356.702	9.06
356.912	9.18
357.122	8.6
357.332	8.84
357.542	9.69
357.752	10.47
357.962	10.45
358.171	11.47
358.381	12.39
358.591	12.99
358.801	13.68
359.011	13.53
359.221	12.7
359.43	12.4
359.64	12.36
359.85	11.76
360.06	10.54
360.269	10.99
360.479	10.91
360.689	10.75
360.899	10.54
361.108	9.75
361.318	10.11
361.528	10.63
361.737	10.21
361.947	9.13
362.156	8.89
362.366	9.01
362.576	8.81
362.785	8.75
362.995	7.99
363.204	7.91
363.414	8.98
363.623	8.68
363.833	8.22
364.042	8.45
364.252	9.12
364.461	9.43
364.671	9.45
364.88	9.92
365.09	9.54
365.299	9.77
365.509	10.1
365.718	9.5
365.927	9.55
366.137	10.33
366.346	11.51
366.555	11.4
366.765	11.1
366.974	11
367.183	10.36
367.393	10.71
367.602	10.68
367.811	10.62
368.021	9.98
368.23	9.51
368.439	9.38
368.648	8.07
368.857	7.5
369.067	6.67
369.276	6.33
369.485	5.94
369.694	6.24
369.903	6.7
370.112	6.37
370.321	6.85
370.531	7.48
370.74	6.7
370.949	6.61
371.158	7.57
371.367	9.34
371.576	10.22
371.785	11.11
371.994	10.9
372.203	10.73
372.412	10.31
372.621	10.78
372.83	10.35
373.039	10.95
373.248	11.63
373.457	10.84
373.666	9.74
373.874	8.69
374.083	8.53
374.292	8.34
374.501	8.42
374.71	8.82
374.919	8.5
375.128	8.48
375.336	7.99
375.545	8.14
375.754	8.26
375.963	8.31
376.171	8.75
376.38	8.8
376.589	8.37
376.798	8.57
377.006	8.53
377.215	8.37
377.424	8.13
377.632	7.97
377.841	7.71
378.05	8.16
378.258	8.42
378.467	8.21
378.675	8.15
378.884	8.67
379.093	8.16
379.301	8.3
379.51	8.56
379.718	8.64
379.927	9.09
380.135	8.7
380.344	8.46
380.552	7.9
380.761	8.48
380.969	8.31
381.177	7.94
381.386	8.04
381.594	7.72
381.803	7.13
382.011	6.99
382.219	7.07
382.428	7.78
382.636	7.62
382.845	7.86
383.053	7.71
383.261	7.73
383.469	7.49
383.678	7.44
383.886	7.2
384.094	7.46
384.302	7.36
384.511	7.3
384.719	7.14
384.927	7.05
385.135	7.35
385.343	7.18
385.552	7.06
385.76	7.85
385.968	7.74
386.176	7.93
386.384	7.64
386.592	7.87
386.8	7.54
387.008	7.25
387.216	7.08
387.424	6.74
387.633	6.53
387.841	6.89
388.049	6.12
388.257	6.12
388.465	5.99
388.672	6.08
388.88	6.21
389.088	5.91
389.296	5.61
389.504	6.3
389.712	6.55
389.92	6.38
390.128	6.07
390.336	6.12
390.544	6.11
390.751	6.17
390.959	5.99
391.167	5.88
391.375	6.01
391.583	6.05
391.79	5.56
391.998	5.03
392.206	5.19
392.414	4.94
392.621	5.25
392.829	5.38
393.037	5.31
393.244	5.37
393.452	5.21
393.66	5.03
393.867	5.14
394.075	4.79
394.283	4.69
394.49	4.67
394.698	4.94
394.905	4.61
395.113	4.45
395.32	4.31
395.528	4.48
395.735	4.46
395.943	4.73
396.15	4.64
396.358	4.45
396.565	4.75
396.773	4.83
396.98	4.96
397.188	4.7
397.395	4.96
397.602	5.34
397.81	5.36
398.017	5.23
398.225	5.4
398.432	5.26
398.639	5.63
398.847	5.7
399.054	5.31
399.261	4.95
399.468	5.38
399.676	5.03
399.883	4.74
400.09	4.28
400.297	4.55
400.505	4.37
400.712	4.4
400.919	4.77
401.126	4.56
401.333	4.52
401.54	4.62
401.748	4.52
401.955	4.39
402.162	4.2
402.369	4.55
402.576	4.34
402.783	3.99
402.99	3.95
403.197	3.46
403.404	3.7
403.611	4.19
403.818	4.05
404.025	4.28
404.232	4.3
404.439	4.59
404.646	4.6
404.853	4.78
405.06	5.15
405.267	5.13
405.474	5.23
405.681	5.27
405.887	5
406.094	5.15
406.301	4.8
406.508	4.79
406.715	4.64
406.922	4.48
407.128	4.44
407.335	4.46
407.542	4.58
407.749	4.43
407.955	4.41
408.162	4.6
408.369	4.45
408.575	4.53
408.782	4.66
408.989	4.54
409.195	4.55
409.402	4.31
409.609	4.39
409.815	4.21
410.022	4.51
410.228	4.36
410.435	4.16
410.642	3.89
410.848	3.9
411.055	3.82
411.261	3.7
411.468	3.92
411.674	3.93
411.881	3.77
412.087	3.94
412.294	3.84
412.5	3.8
412.706	3.8
412.913	4.2
413.119	4.28
413.326	4.38
413.532	4.59
413.738	4.35
413.945	4.37
414.151	4.38
414.357	4.61
414.564	4.65
414.77	4.88
414.976	4.8
415.182	4.99
415.389	4.83
415.595	4.9
415.801	4.94
416.007	5
416.214	4.9
416.42	4.83
416.626	4.54
416.832	4.61
417.038	4.29
417.244	4.42
417.45	4.26
417.657	4.33
417.863	4.28
418.069	4.4
418.275	4.16
418.481	4.25
418.687	4.34
418.893	4.53
419.099	4.56
419.305	4.8
419.511	4.63
419.717	4.53
419.923	4.47
420.129	4.42
420.335	4.29
420.541	4.42
420.746	4.46
420.952	4.39
421.158	4.39
421.364	4.15
421.57	3.99
421.776	4.26
421.982	4.29
422.187	4.34
422.393	4.4
422.599	4.41
422.805	4.49
423.01	4.44
423.216	4.49
423.422	4.41
423.628	4.55
423.833	4.45
424.039	4.3
424.245	4.22
424.45	4.23
424.656	4.25
424.862	4.41
425.067	4.44
425.273	4.46
425.478	4.39
425.684	4.37
425.889	4.48
426.095	4.65
426.301	4.61
426.506	4.6
426.712	4.55
426.917	4.43
427.123	4.28
427.328	4.1
427.533	4.18
427.739	4.22
427.944	4.16
428.15	4.05
428.355	3.91
428.561	3.89
428.766	4.06
428.971	4.11
429.177	4.11
429.382	4.09
429.587	4.07
429.793	4.15
429.998	4.28
430.203	4.32
430.408	4.43
430.614	4.43
430.819	4.21
431.024	4.12
431.229	3.97
431.434	3.91
431.64	3.82
431.845	3.94
432.05	3.86
432.255	3.64
432.46	3.5
432.665	3.16
432.87	3.39
433.076	3.55
433.281	3.51
433.486	3.63
433.691	3.79
433.896	3.85
434.101	3.75
434.306	3.76
434.511	3.81
434.716	3.87
434.921	3.99
435.126	3.93
435.331	4.02
435.535	4.23
435.74	4.19
435.945	4
436.15	3.81
436.355	3.75
436.56	3.75
436.765	3.75
436.97	3.81
437.174	3.84
437.379	3.84
437.584	3.72
437.789	3.65
437.993	3.59
438.198	3.62
438.403	3.81
438.608	3.84
438.812	3.61
439.017	3.54
439.222	3.55
439.426	3.61
439.631	3.6
439.836	3.63
440.04	3.57
440.245	3.66
440.45	3.71
440.654	3.66
440.859	3.65
441.063	3.73
441.268	3.79
441.472	3.88
441.677	3.8
441.881	3.71
442.086	3.72
442.29	3.84
442.495	3.64
442.699	3.7
442.904	3.63
443.108	3.7
443.312	3.81
443.517	3.63
443.721	3.44
443.925	3.54
444.13	3.56
444.334	3.61
444.538	3.73
444.743	3.89
444.947	3.91
445.151	3.92
445.356	3.85
445.56	3.87
445.764	3.84
445.968	3.72
446.173	3.77
446.377	3.77
446.581	3.67
446.785	3.46
446.989	3.51
447.193	3.44
447.398	3.49
447.602	3.52
447.806	3.51
448.01	3.67
448.214	3.75
448.418	3.58
448.622	3.46
448.826	3.56
449.03	3.58
449.234	3.67
449.438	3.74
449.642	3.68
449.846	3.58
450.05	3.48
450.254	3.49
450.458	3.62
450.662	3.71
450.866	3.86
451.069	3.73
451.273	3.72
451.477	3.57
451.681	3.55
451.885	3.69
452.089	3.89
452.292	3.82
452.496	3.78
452.7	3.95
452.904	4.12
453.107	3.94
453.311	3.98
453.515	4.07
453.719	3.97
453.922	3.98
454.126	3.81
454.33	3.7
454.533	3.64
454.737	3.63
454.94	3.52
455.144	3.42
455.348	3.52
455.551	3.52
455.755	3.29
455.958	3.28
456.162	3.22
456.365	3.32
456.569	3.49
456.772	3.66
456.976	3.7
457.179	3.52
457.383	3.4
457.586	3.3
457.79	3.3
457.993	3.4
458.196	3.52
458.4	3.58
458.603	3.51
458.807	3.46
459.01	3.35
459.213	3.41
459.417	3.52
459.62	3.56
459.823	3.75
460.026	3.71
460.23	3.74
460.433	3.63
460.636	3.49
460.839	3.45
461.042	3.38
461.246	3.43
461.449	3.26
461.652	3.22
461.855	3.28
462.058	3.18
462.261	3.35
462.464	3.38
462.668	3.44
462.871	3.51
463.074	3.55
463.277	3.57
463.48	3.55
463.683	3.63
463.886	3.4
464.089	3.2
464.292	3.22
464.495	3.17
464.698	3.08
464.901	3.13
465.104	3.24
465.306	3.24
465.509	3.06
465.712	3.12
465.915	3.1
466.118	3.29
466.321	3.46
466.524	3.42
466.726	3.27
466.929	3.36
467.132	3.36
467.335	3.27
467.538	3.34
467.74	3.61
467.943	3.65
468.146	3.62
468.348	3.68
468.551	3.55
468.754	3.41
468.956	3.45
469.159	3.35
469.362	3.46
469.564	3.36
469.767	3.53
469.969	3.49
470.172	3.39
470.375	3.43
470.577	3.39
470.78	3.43
470.982	3.5
471.185	3.62
471.387	3.61
471.59	3.51
471.792	3.62
471.995	3.53
472.197	3.39
472.399	3.38
472.602	3.38
472.804	3.37
473.007	3.35
473.209	3.47
473.411	3.3
473.614	3.48
473.816	3.37
474.018	3.37
474.22	3.15
474.423	3.29
474.625	3.36
474.827	3.43
475.03	3.4
475.232	3.27
475.434	3.25
475.636	3.47
475.838	3.23
476.04	3.19
476.243	3.38
476.445	3.38
476.647	3.31
476.849	3.32
477.051	3.35
477.253	3.42
477.455	3.6
477.657	3.55
477.859	3.44
478.061	3.65
478.263	3.74
478.465	3.6
478.667	3.55
478.869	3.48
479.071	3.57
479.273	3.44
479.475	3.29
479.677	3.17
479.879	3.23
480.081	3.29
480.283	3.35
480.485	3.22
480.686	3.16
480.888	3.28
481.09	3.33
481.292	3.15
481.494	3.22
481.695	3.21
481.897	3.34
482.099	3.34
482.301	3.36
482.502	3.25
482.704	3.33
482.906	3.44
483.107	3.48
483.309	3.55
483.511	3.57
483.712	3.55
483.914	3.66
484.115	3.62
484.317	3.62
484.519	3.56
484.72	3.59
484.922	3.56
485.123	3.5
485.325	3.46
485.526	3.41
485.728	3.4
485.929	3.39
486.131	3.34
486.332	3.37
486.534	3.37
486.735	3.35
486.936	3.39
487.138	3.46
487.339	3.48
487.541	3.49
487.742	3.47
487.943	3.44
488.144	3.44
488.346	3.45
488.547	3.41
488.748	3.42
488.95	3.48
489.151	3.45
489.352	3.35
489.553	3.34
489.755	3.28
489.956	3.31
490.157	3.46
490.358	3.49
490.559	3.47
490.76	3.51
490.961	3.5
491.163	3.46
491.364	3.45
491.565	3.5
491.766	3.53
491.967	3.64
492.168	3.67
492.369	3.6
492.57	3.58
492.771	3.58
492.972	3.53
493.173	3.5
493.374	3.59
493.575	3.61
493.776	3.64
493.976	3.7
494.177	3.57
494.378	3.46
494.579	3.47
494.78	3.4
494.981	3.39
495.182	3.42
495.382	3.56
495.583	3.43
495.784	3.38
495.985	3.44
496.185	3.45
496.386	3.6
496.587	3.57
496.788	3.63
496.988	3.81
497.189	3.71
497.39	3.81
497.59	3.61
497.791	3.78
497.992	3.82
498.192	3.84
498.393	3.64
498.593	3.79
498.794	3.9
498.994	3.94
499.195	3.85
499.395	3.98
499.596	3.95
499.796	4.05
499.997	3.97
500.197	4.03
500.398	3.98
500.598	4.11
500.799	3.91
500.999	3.83
501.199	3.8
501.4	3.99
501.6	3.97
501.801	4
502.001	3.9
502.201	3.98
502.402	3.96
502.602	3.98
502.802	3.98
503.002	3.8
503.203	3.83
503.403	3.87
503.603	3.71
503.803	3.73
504.003	3.92
504.204	4.15
504.404	4.21
504.604	4.18
504.804	4.06
505.004	4
505.204	4.16
505.404	4.16
505.604	4.1
505.804	4.07
506.005	4.07
506.205	3.77
506.405	3.86
506.605	3.61
506.805	3.67
507.005	3.83
507.204	4.05
507.404	4.01
507.604	4.05
507.804	4.14
508.004	4.23
508.204	4.13
508.404	4.17
508.604	4.01
508.804	4.2
509.003	4.23
509.203	4.22
509.403	4.1
509.603	4.09
509.803	4.07
510.002	3.86
510.202	3.69
510.402	3.82
510.602	3.86
510.801	3.93
511.001	3.78
511.201	3.67
511.4	3.71
511.6	3.86
511.8	3.81
511.999	3.87
512.199	3.92
512.398	4
512.598	4.02
512.797	3.99
512.997	4.01
513.197	4.1
513.396	4.27
513.596	4.29
513.795	4.27
513.994	4.41
514.194	4.21
514.393	4.36
514.593	4.25
514.792	4.13
514.992	4.04
515.191	4.07
515.39	4.15
515.59	4.05
515.789	3.84
515.988	3.7
516.188	3.59
516.387	3.77
516.586	3.65
516.786	3.9
516.985	3.98
517.184	4.13
517.383	4.07
517.582	4.11
517.782	4.28
517.981	4.42
518.18	4.47
518.379	4.54
518.578	4.67
518.777	4.77
518.976	4.77
519.176	4.79
519.375	4.84
519.574	4.82
519.773	4.76
519.972	4.67
520.171	4.7
520.37	4.74
520.569	4.76
520.768	4.72
520.967	4.81
521.166	4.76
521.365	4.7
521.564	4.72
521.762	4.83
521.961	4.81
522.16	4.68
522.359	4.68
522.558	4.64
522.757	4.58
522.956	4.46
523.154	4.45
523.353	4.48
523.552	4.64
523.751	4.59
523.949	4.6
524.148	4.64
524.347	4.68
524.546	4.69
524.744	4.76
524.943	4.79
525.142	4.85
525.34	4.71
525.539	4.76
525.737	4.66
525.936	4.67
526.135	4.72
526.333	4.79
526.532	4.96
526.73	4.92
526.929	4.84
527.127	4.95
527.326	4.93
527.524	4.98
527.723	4.95
527.921	4.98
528.12	4.99
528.318	4.94
528.516	4.96
528.715	4.91
528.913	4.98
529.112	4.99
529.31	5
529.508	5.03
529.707	4.98
529.905	5
530.103	5.09
530.301	5.13
530.5	5.16
530.698	5.15
530.896	5.18
531.094	5.18
531.293	5.3
531.491	5.21
531.689	5.19
531.887	5.36
532.085	5.39
532.283	5.44
532.481	5.44
532.68	5.54
532.878	5.61
533.076	5.59
533.274	5.63
533.472	5.68
533.67	5.63
533.868	5.7
534.066	5.71
534.264	5.74
534.462	5.67
534.66	5.57
534.858	5.56
535.056	5.44
535.253	5.39
535.451	5.29
535.649	5.3
535.847	5.51
536.045	5.49
536.243	5.57
536.441	5.58
536.638	5.64
536.836	5.79
537.034	5.76
537.232	5.83
537.43	5.84
537.627	6
537.825	5.93
538.023	5.84
538.22	5.85
538.418	5.73
538.616	5.72
538.813	5.75
539.011	5.84
539.209	6.01
539.406	6
539.604	6.19
539.801	6.16
539.999	6.26
540.196	6.33
540.394	6.29
540.591	6.33
540.789	6.28
540.986	6.26
541.184	6.17
541.381	6.17
541.579	6.2
541.776	6.2
541.974	6.24
542.171	6.27
542.368	6.27
542.566	6.4
542.763	6.4
542.96	6.45
543.158	6.53
543.355	6.63
543.552	6.61
543.75	6.71
543.947	6.73
544.144	6.64
544.341	6.63
544.539	6.8
544.736	6.72
544.933	6.75
545.13	6.94
545.327	6.97
545.524	6.99
545.722	7.01
545.919	7.09
546.116	7.16
546.313	7.29
546.51	7.35
546.707	7.31
546.904	7.29
547.101	7.35
547.298	7.3
547.495	7.26
547.692	7.26
547.889	7.2
548.086	7.07
548.283	7.24
548.48	7.2
548.677	7.17
548.874	7.21
549.07	7.33
549.267	7.38
549.464	7.37
549.661	7.59
549.858	7.69
550.055	7.94
550.251	7.92
550.448	7.7
550.645	7.84
550.842	8.13
551.038	8.11
551.235	8.3
551.432	8.33
551.628	8.49
551.825	8.42
552.022	8.48
552.218	8.57
552.415	8.7
552.612	8.87
552.808	8.97
553.005	8.86
553.201	9.12
553.398	9.05
553.594	9.12
553.791	9.07
553.987	9.11
554.184	9.27
554.38	9.25
554.577	9.29
554.773	9.23
554.97	9.2
555.166	9.2
555.362	9.05
555.559	9.12
555.755	9.19
555.952	9.26
556.148	9.25
556.344	9.45
556.541	9.3
556.737	9.71
556.933	9.86
557.129	9.85
557.326	9.96
557.522	9.97
557.718	10.14
557.914	10.22
558.11	10.33
558.307	10.35
558.503	10.41
558.699	10.74
558.895	10.69
559.091	10.91
559.287	11.01
559.483	10.74
559.679	10.87
559.876	10.76
560.072	10.99
560.268	11.01
560.464	11.14
560.66	10.94
560.856	10.8
561.052	10.77
561.247	10.5
561.443	10.69
561.639	11.01
561.835	11.09
562.031	11.26
562.227	11.19
562.423	11.18
562.619	11.14
562.815	11.25
563.01	11.49
563.206	11.58
563.402	11.82
563.598	11.74
563.793	11.94
563.989	12.08
564.185	12.09
564.381	12.26
564.576	12.29
564.772	12.41
564.968	12.36
565.163	12.26
565.359	12.24
565.555	12.16
565.75	12.04
565.946	11.88
566.141	11.75
566.337	11.81
566.532	11.69
566.728	11.91
566.923	11.9
567.119	12.04
567.314	12.26
567.51	12.23
567.705	12.38
567.901	12.57
568.096	12.7
568.292	12.71
568.487	12.81
568.682	12.79
568.878	12.64
569.073	12.78
569.268	12.76
569.464	12.69
569.659	12.6
569.854	12.43
570.05	12.5
570.245	12.56
570.44	12.53
570.635	12.56
570.831	12.65
571.026	12.69
571.221	12.64
571.416	12.69
571.611	12.74
571.806	12.77
572.002	13.05
572.197	13.08
572.392	13.16
572.587	13.16
572.782	13.12
572.977	13.15
573.172	13.07
573.367	13.25
573.562	13.43
573.757	13.55
573.952	13.73
574.147	13.61
574.342	13.77
574.537	13.73
574.732	13.88
574.927	13.74
575.121	13.86
575.316	14.05
575.511	13.8
575.706	13.59
575.901	13.32
576.096	13.32
576.29	13.3
576.485	13.26
576.68	13.39
576.875	13.33
577.069	13.55
577.264	13.46
577.459	13.36
577.654	13.46
577.848	13.41
578.043	13.48
578.238	13.41
578.432	13.42
578.627	13.57
578.821	13.62
579.016	13.7
579.21	13.95
579.405	13.92
579.6	14.05
579.794	14.14
579.989	14.18
580.183	14.47
580.378	14.41
580.572	14.69
580.766	14.45
580.961	14.22
581.155	13.93
581.35	13.63
581.544	13.77
581.738	13.57
581.933	13.73
582.127	13.97
582.321	13.75
582.516	14.22
582.71	13.98
582.904	13.95
583.099	13.94
583.293	14.18
583.487	14.35
583.681	14.18
583.875	14.66
584.07	14.42
584.264	14.25
584.458	14.3
584.652	13.93
584.846	13.96
585.04	13.97
585.234	14.13
585.428	14.53
585.623	14.42
585.817	14.74
586.011	14.29
586.205	14.34
586.399	14.4
586.593	14.38
586.787	14.23
586.981	14.04
587.174	14.15
587.368	13.85
587.562	13.54
587.756	13.82
587.95	13.54
588.144	13.8
588.338	14.12
588.532	14.19
588.725	14.45
588.919	14.51
589.113	14.86
589.307	15.13
589.501	15.31
589.694	15.21
589.888	15.04
590.082	15.47
590.275	15.65
590.469	15.76
590.663	15.66
590.856	15.48
591.05	15.51
591.244	15.32
591.437	15.22
591.631	15.42
591.824	15.58
592.018	15.4
592.212	15.1
592.405	15.23
592.599	14.9
592.792	15.11
592.986	15.32
593.179	15.63
593.372	15.82
593.566	15.65
593.759	15.42
593.953	15.53
594.146	15.96
594.339	16.09
594.533	15.87
594.726	15.98
594.92	15.97
595.113	15.9
595.306	15.79
595.499	15.57
595.693	15.74
595.886	15.95
596.079	15.98
596.272	15.51
596.466	15.42
596.659	15.33
596.852	15.35
597.045	15.27
597.238	15.25
597.431	15.42
597.624	15.56
597.818	15.38
598.011	15.43
598.204	15.38
598.397	15.67
598.59	15.7
598.783	15.83
598.976	15.73
599.169	15.79
599.362	15.87
599.555	15.79
599.748	15.76
599.941	15.81
600.134	15.94
600.326	16
600.519	16
600.712	15.89
600.905	15.92
601.098	16.1
601.291	16.15
601.483	16
601.676	16.02
601.869	16
602.062	16.16
602.255	15.91
602.447	15.74
602.64	15.59
602.833	15.7
603.025	15.56
603.218	15.76
603.411	15.48
603.603	15.45
603.796	15.47
603.989	15.6
604.181	15.54
604.374	15.5
604.566	15.58
604.759	15.77
604.951	15.81
605.144	15.95
605.336	15.83
605.529	16.04
605.721	16.19
605.914	16.06
606.106	15.93
606.299	16.04
606.491	16.26
606.683	16.27
606.876	16.33
607.068	16.34
607.26	16.17
607.453	16.09
607.645	16.03
607.837	15.89
608.03	15.8
608.222	15.7
608.414	15.46
608.606	15.55
608.799	15.84
608.991	15.67
609.183	15.79
609.375	16.03
609.567	16.08
609.759	16.26
609.952	16.43
610.144	16.46
610.336	16.91
610.528	17.2
610.72	17.11
610.912	17
611.104	17
611.296	17.12
611.488	16.99
611.68	16.9
611.872	16.88
612.064	16.91
612.256	17.07
612.448	16.82
612.64	16.79
612.832	16.65
613.023	16.61
613.215	16.7
613.407	16.4
613.599	16.81
613.791	16.85
613.983	16.76
614.174	16.65
614.366	16.65
614.558	16.42
614.75	16.44
614.941	16.38
615.133	16.76
615.325	16.92
615.516	16.87
615.708	16.45
615.9	16.53
616.091	16.68
616.283	16.67
616.475	16.6
616.666	16.94
616.858	16.55
617.049	16.56
617.241	15.91
617.432	16.14
617.624	16.38
617.815	16.4
618.007	16.21
618.198	16.12
618.39	16.07
618.581	15.76
618.773	15.81
618.964	15.73
619.155	15.97
619.347	16.26
619.538	15.8
619.729	15.85
619.921	16.11
620.112	15.96
620.303	15.82
620.494	15.78
620.686	16.17
620.877	15.85
621.068	16.25
621.259	16
621.451	16.04
621.642	16.38
621.833	16.18
622.024	15.84
622.215	16.39
622.406	16.45
622.597	16.41
622.788	16.42
622.98	16.38
623.171	16.39
623.362	16.33
623.553	16.11
623.744	15.58
623.935	15.71
624.126	15.69
624.317	15.6
624.508	15.88
624.698	15.91
624.889	15.95
625.08	16.17
625.271	16.2
625.462	16.23
625.653	16.43
625.844	16.72
626.034	16.71
626.225	16.97
626.416	17.13
626.607	17.07
626.798	17.25
626.988	17.46
627.179	17.46
627.37	17.2
627.56	17.32
627.751	17.27
627.942	17.17
628.132	16.87
628.323	16.76
628.514	16.45
628.704	16.1
628.895	15.76
629.085	15.63
629.276	15.59
629.466	15.86
629.657	15.89
629.847	15.93
630.038	15.91
630.228	16.07
630.419	16.18
630.609	16.3
630.8	16.55
630.99	17.05
631.181	17.12
631.371	17.04
631.561	16.98
631.752	17.1
631.942	16.96
632.132	17.22
632.323	17.52
632.513	17.39
632.703	17.46
632.893	17.47
633.084	17.3
633.274	17.22
633.464	16.96
633.654	16.91
633.844	16.84
634.034	17.12
634.225	17.28
634.415	17.08
634.605	17.08
634.795	17.05
634.985	16.97
635.175	16.59
635.365	16.64
635.555	17.14
635.745	17.03
635.935	16.91
636.125	16.41
636.315	16.27
636.505	16.31
636.695	16.44
636.885	16.41
637.075	16.63
637.265	17.19
637.455	16.98
637.644	16.77
637.834	17.11
638.024	16.94
638.214	17
638.404	16.99
638.593	17.21
638.783	16.93
638.973	16.88
639.163	16.67
639.352	16.26
639.542	16.37
639.732	16.49
639.921	16.35
640.111	16.56
640.301	16.67
640.49	16.51
640.68	16.3
640.87	16.39
641.059	16.49
641.249	16.88
641.438	17.27
641.628	17.63
641.817	17.71
642.007	17.78
642.196	17.72
642.386	17.99
642.575	17.99
642.764	17.81
642.954	17.95
643.143	17.69
643.333	17.2
643.522	17.31
643.711	17.19
643.901	17.14
644.09	16.91
644.279	17.28
644.469	17.15
644.658	17.26
644.847	17.62
645.036	17.42
645.226	17.53
645.415	17.53
645.604	16.93
645.793	16.94
645.982	16.86
646.171	16.81
646.361	16.38
646.55	16.08
646.739	15.83
646.928	15.75
647.117	16.16
647.306	15.85
647.495	15.87
647.684	16.24
647.873	15.81
648.062	15.78
648.251	15.73
648.44	15.44
648.629	16.11
648.818	16.32
649.007	16.38
649.196	16.22
649.384	16.6
649.573	17.18
649.762	17.31
649.951	17.81
650.14	17.87
650.328	18.21
650.517	18.39
650.706	18.18
650.895	17.99
651.083	17.76
651.272	17.37
651.461	17.42
651.65	17.12
651.838	16.28
652.027	15.65
652.216	15.6
652.404	15.5
652.593	15.66
652.781	15.96
652.97	15.85
653.158	15.86
653.347	16.44
653.535	16.42
653.724	16.26
653.912	16.9
654.101	17.55
654.289	17.42
654.478	17.46
654.666	17.53
654.855	16.81
655.043	16.85
655.231	16.7
655.42	16.25
655.608	16.17
655.796	16.32
655.985	16.35
656.173	15.62
656.361	15.96
656.55	15.92
656.738	16.21
656.926	16.57
657.114	16.5
657.302	16.92
657.491	17.23
657.679	16.94
657.867	17.1
658.055	16.87
658.243	16.98
658.431	16.63
658.619	16.59
658.807	16.36
658.996	16.39
659.184	16.72
659.372	16.25
659.56	15.98
659.748	16.53
659.936	16.33
660.124	16.59
660.311	16.66
660.499	16.93
660.687	16.96
660.875	16.93
661.063	16.97
661.251	16.6
661.439	17.08
661.627	16.76
661.814	16.48
662.002	16.59
662.19	16.98
662.378	17.22
662.565	17.1
662.753	16.92
662.941	17.19
663.129	16.91
663.316	17.42
663.504	17.4
663.692	18.01
663.879	18.23
664.067	18.17
664.254	17.59
664.442	17.33
664.63	17.08
664.817	17.35
665.005	17.47
665.192	17.75
665.38	17.69
665.567	17.65
665.755	17.79
665.942	17.47
666.13	17.65
666.317	17.16
666.504	17.25
666.692	17.9
666.879	18.02
667.067	17.74
667.254	17.81
667.441	17.64
667.629	17.18
667.816	17.14
668.003	17.45
668.19	17.66
668.378	18.55
668.565	18.77
668.752	18.52
668.939	18.64
669.127	18.81
669.314	18.72
669.501	18.91
669.688	19.32
669.875	18.98
670.062	18.69
670.249	18.22
670.436	17.51
670.623	17.89
670.81	17.88
670.997	17.45
671.184	17.41
671.371	17.53
671.558	17.16
671.745	17.42
671.932	17.56
672.119	17.8
672.306	17.64
672.493	17.94
672.68	17.28
672.867	17.07
673.054	17.32
673.24	17.08
673.427	17.06
673.614	17.5
673.801	17.34
673.988	17.42
674.174	17.56
674.361	17.84
674.548	17.97
674.734	18.1
674.921	18.5
675.108	18.43
675.294	18.52
675.481	18.51
675.668	18.97
675.854	18.72
676.041	18.78
676.227	18.65
676.414	17.98
676.601	18.17
676.787	18.2
676.974	18.03
677.16	17.77
677.347	17.85
677.533	17.71
677.719	17.45
677.906	17.22
678.092	17.05
678.279	16.46
678.465	17.26
678.651	17.24
678.838	17.54
679.024	17.52
679.21	17.7
679.397	17.88
679.583	17.98
679.769	17.86
679.955	18.17
680.142	18.15
680.328	18.64
680.514	18.19
680.7	17.93
680.886	17.63
681.073	18.03
681.259	17.88
681.445	17.74
681.631	17.64
681.817	17.38
682.003	17.3
682.189	17.33
682.375	16.77
682.561	17.32
682.747	17.5
682.933	17.36
683.119	16.9
683.305	17.03
683.491	17
683.677	17.29
683.863	17.19
684.049	16.97
684.235	17.17
684.42	17.6
684.606	16.95
684.792	16.8
684.978	17.12
685.164	17.14
685.349	17.36
685.535	17.47
685.721	17.49
685.907	17.71
686.092	18.38
686.278	17.9
686.464	17.59
686.649	17.97
686.835	17.71
687.021	17.38
687.206	17.42
687.392	17.64
687.577	17.58
687.763	17.67
687.948	17.88
688.134	17.88
688.319	17.83
688.505	18.27
688.69	17.99
688.876	18.32
689.061	18.47
689.247	18.42
689.432	18.26
689.618	17.88
689.803	17.89
689.988	17.72
690.174	16.72
690.359	16.8
690.544	17.14
690.73	17.63
690.915	17.89
691.1	18.16
691.285	18.62
691.471	18.63
691.656	18.42
691.841	18.15
692.026	17.9
692.211	18.85
692.396	19.03
692.582	18.03
692.767	17.92
692.952	17.61
693.137	17.88
693.322	17.89
693.507	17.66
693.692	18.28
693.877	17.55
694.062	18.27
694.247	17.97
694.432	18.32
694.617	19.04
694.802	18.97
694.987	18.85
695.172	18.75
695.357	18.31
695.541	18.31
695.726	17.76
695.911	18.19
696.096	17.79
696.281	17.78
696.466	17.89
696.65	17.8
696.835	17.99
697.02	17.84
697.204	17.59
697.389	17.67
697.574	17.87
697.759	18.21
697.943	18.3
698.128	18.47
698.312	18.54
698.497	18.75
698.682	18.92
698.866	18.83
699.051	19.41
699.235	19.6
699.42	19.59
699.604	19.36
699.789	19.74
699.973	19.86
700.158	19.63
700.342	19.57
700.527	19.33
700.711	18.77
700.895	18.77
701.08	17.6
701.264	17
701.448	16.78
701.633	16.91
701.817	16.49
702.001	15.81
702.186	15.84
702.37	16.29
702.554	15.86
702.738	16.09
702.923	16.27
703.107	17.04
703.291	17.74
703.475	17.46
703.659	16.5
703.843	16.41
704.027	16.99
704.212	17.86
704.396	17.33
704.58	17.71
704.764	17.96
704.948	18.06
705.132	18.59
705.316	18.87
705.5	19.12
705.684	20.13
705.868	20.08
706.052	19.79
706.235	18.97
706.419	18.93
706.603	19.01
706.787	18.46
706.971	18.27
707.155	17.65
707.339	16.97
707.522	16.77
707.706	16.14
707.89	16.19
708.074	16.37
708.257	16.49
708.441	16.93
708.625	17.17
708.808	17.76
708.992	17.16
709.176	17.35
709.359	17.03
709.543	18.51
709.727	19.51
709.91	19.47
710.094	19.61
710.277	19.39
710.461	19.55
710.644	18.97
710.828	19.36
711.011	19.94
711.195	20.02
711.378	21.1
711.562	20.46
711.745	19.8
711.928	20.3
712.112	19.99
712.295	20.2
712.478	19.67
712.662	20.15
712.845	19.8
713.028	19.42
713.212	19.33
713.395	18.78
713.578	18.48
713.761	18.73
713.945	17.97
714.128	18.31
714.311	17.8
714.494	17.83
714.677	17.93
714.86	18.26
715.043	18.66
715.227	18.67
715.41	18.53
715.593	19.06
715.776	19.3
715.959	19.64
716.142	19.52
716.325	19.6
716.508	20.22
716.691	19.67
716.874	18.7
717.057	18.24
717.239	18.31
717.422	18.46
717.605	18.49
717.788	18.14
717.971	19.15
718.154	18.73
718.337	19.19
718.519	19.47
718.702	18.63
718.885	19.18
719.068	20.35
719.25	21.08
719.433	20.6
719.616	20.14
719.798	20.53
719.981	19.84
720.164	21.04
720.346	20.44
720.529	18.97
720.712	19.81
720.894	20.08
721.077	19.34
721.259	19.88
721.442	19.72
721.624	19.71
721.807	18.6
721.989	18.74
722.172	18.96
722.354	19.85
722.537	20.22
722.719	20.13
722.901	20.28
723.084	18.92
723.266	17.62
723.448	18.59
723.631	18.71
723.813	20.34
723.995	19.43
724.178	17.71
724.36	18.23
724.542	18.71
724.724	19.03
724.907	18.97
725.089	20.15
725.271	19.91
725.453	20.61
725.635	19.75
725.817	18.96
725.999	18.54
726.181	18.95
726.364	18.06
726.546	17.52
726.728	17.17
726.91	16.72
727.092	16.24
727.274	16.99
727.456	15.39
727.638	15.84
727.819	16.04
728.001	16.95
728.183	18.18
728.365	18.07
728.547	18.63
728.729	20.09
728.911	20.31
729.093	20.93
729.274	20.69
729.456	21.64
729.638	21.42
729.82	20.67
730.001	20.34
730.183	20.39
730.365	20.86
730.546	20.98
730.728	20.9
730.91	20.68
731.091	21
731.273	20.51
731.455	19.66
731.636	19.73
731.818	19.51
731.999	19.31
732.181	17.73
732.362	17.31
732.544	16.84
732.725	16.06
732.907	16.19
733.088	15.53
733.27	16.19
733.451	16.29
733.633	15.97
733.814	16.51
733.995	16.4
734.177	18.68
734.358	18.46
734.539	18.94
734.721	18.44
734.902	18.05
735.083	17.7
735.264	16.92
735.446	17.12
735.627	16.95
735.808	17.13
735.989	17.13
736.17	14.3
736.351	14.09
736.533	13.38
736.714	13.83
736.895	13.91
737.076	15.07
737.257	15.59
737.438	16
737.619	16.76
737.8	16.63
737.981	17.05
738.162	17.56
738.343	17.57
738.524	17.61
738.705	16.74
738.886	18.35
739.067	17.92
739.247	17.73
739.428	18.04
739.609	17.75
739.79	19.01
739.971	20.02
740.151	20.42
740.332	20.17
740.513	19.96
740.694	20.93
740.874	20.17
741.055	20.36
741.236	20.94
741.417	20.69
741.597	21.33
741.778	22.34
741.958	21.43
742.139	21.61
742.32	22.28
742.5	22.16
742.681	21.9
742.861	21.61
743.042	20.88
743.222	21.33
743.403	20.37
743.583	19.8
743.764	16.99
743.944	15.38
744.124	14.37
744.305	15.36
744.485	15.82
744.666	17.16
744.846	17.31
745.026	18.21
745.207	17.2
745.387	16.16
745.567	16.48
745.747	17.74
745.928	19.13
746.108	19.87
746.288	18.89
746.468	19.16
746.648	19.34
746.829	17.61
747.009	17.25
747.189	17.05
747.369	18.89
747.549	18.72
747.729	18.2
747.909	18.55
748.089	18.06
748.269	18.53
748.449	17.55
748.629	16.25
748.809	17.26
748.989	17.55
749.169	18.85
749.349	18.34
749.529	18.21
749.709	16.54
749.889	16.48
750.068	18.27
750.248	18.24
750.428	18.49
750.608	18.09
750.788	19.03
750.967	19.62
751.147	18.34
751.327	18.6
751.507	18.5
751.686	20.73
751.866	20.37
752.046	19.93
752.225	19.16
752.405	19.5
752.585	19.63
752.764	18.62
752.944	18.32
753.123	17.88
753.303	17.69
753.482	18.57
753.662	17.85
753.841	19.14
754.021	19
754.2	19.75
754.38	19.75
754.559	19.87
754.739	19.39
754.918	18.89
755.097	19.69
755.277	21.34
755.456	18.35
755.635	17.5
755.815	16.36
755.994	15.06
756.173	14.11
756.352	12.78
756.532	13.8
756.711	14.38
756.89	15.35
757.069	15.6
757.248	14.94
757.427	17.01
757.607	17.2
757.786	16.64
757.965	16.69
758.144	17.76
758.323	19.44
758.502	18.1
758.681	18.05
758.86	18.15
759.039	17.71
759.218	16.45
759.397	17.29
759.576	17.09
759.755	18.31
759.934	19.84
760.113	20.44
760.291	19.57
760.47	21.2
760.649	21.25
760.828	20.73
761.007	21.84
761.186	21.9
761.364	21.27
761.543	21.84
761.722	22.49
761.901	21.52
762.079	20.87
762.258	21.61
762.437	21.09
762.615	20.28
762.794	19.26
762.972	18.53
763.151	17.7
763.33	17.03
763.508	17.37
763.687	16
763.865	15.54
764.044	15.59
764.222	15.1
764.401	14.41
764.579	16.03
764.758	16.18
764.936	16.08
765.114	17.19
765.293	17.35
765.471	17.5
765.65	17.49
765.828	18.75
766.006	19.23
766.184	19.39
766.363	19.69
766.541	19.32
766.719	19.74
766.898	20.15
767.076	19.93
767.254	20.37
767.432	20.18
767.61	21.03
767.788	20.37
767.967	19.15
768.145	19.03
768.323	18.61
768.501	17.29
768.679	19.1
768.857	19.27
769.035	19.72
769.213	21.05
769.391	20.15
769.569	19.48
769.747	18.83
769.925	18.4
770.103	18.85
770.281	19.83
770.459	21.92
770.636	17.83
770.814	17.23
770.992	18.54
771.17	14.58
771.348	15.01
771.525	13.45
771.703	15.11
771.881	14.2
772.059	13.95
772.236	14.77
772.414	14.7
772.592	17.91
772.769	18.67
772.947	17.38
773.125	22.1
773.302	22.37
773.48	25.68
773.657	25.84
773.835	27.7
774.013	27.94
774.19	26.7
774.368	25.39
774.545	23.87
774.723	23.24
774.9	22
775.077	21.79
775.255	22.97
775.432	21.03
775.61	19
775.787	21.16
775.964	19.61
776.142	19.13
776.319	18.79
776.496	19.76
776.674	19.27
776.851	20.45
777.028	18.55
777.205	17.07
777.382	16
777.56	16.85
777.737	15.9
777.914	14.82
778.091	14.6
778.268	16.87
778.445	16.32
778.622	16.82
778.8	15.44
778.977	15.38
779.154	14.93
779.331	17.16
779.508	15.74
779.685	12.03
779.862	15.39
780.038	17.04
780.215	14.93
780.392	15.79
780.569	14.37
780.746	15.96
780.923	18.86
781.1	19.64
781.277	20.06
781.453	20.87
781.63	23.04
781.807	21.92
781.984	21.36
782.16	22.19
782.337	22.65
782.514	25.03
782.691	22.19
782.867	20.5
783.044	20.17
783.221	18.44
783.397	19.07
783.574	18.93
783.75	18.58
783.927	17.23
784.103	17.03
784.28	15.92
784.456	15.98
784.633	18.14
784.809	18.09
784.986	17
785.162	17.83
785.339	16.68
785.515	15.09
785.692	14.12
785.868	18.13
786.044	18.86
786.221	17.24
786.397	17.55
786.573	20.88
786.749	18.78
786.926	22.43
787.102	22.96
787.278	25.12
787.454	27.22
787.631	30.09
787.807	29.45
787.983	29.21
788.159	31
788.335	29.39
788.511	25.99
788.687	27.14
788.863	25.66
789.039	24.41
789.216	22.44
789.392	22.51
789.568	22.79
789.744	19.77
789.919	18.94
790.095	18.13
790.271	17.39
790.447	18.66
790.623	17.64
790.799	18.04
790.975	18.89
791.151	20.7
791.327	19.96
791.502	18.46
791.678	18.34
791.854	17.47
792.03	19.57
792.205	19.58
792.381	15.14
792.557	15.88
792.733	14.28
792.908	13.56
793.084	13.15
793.259	11.68
793.435	13.3
793.611	14.38
793.786	15.6
793.962	13.33
794.137	11.75
794.313	15.98
794.488	17.66
794.664	19.88
794.839	19.64
795.015	20.74
795.19	19.65
795.366	18.08
795.541	18.21
795.716	17.04
795.892	17.06
796.067	20.07
796.242	18.21
796.418	14.59
796.593	12.72
796.768	16.51
796.944	16.09
797.119	19.16
797.294	19.89
797.469	20.76
797.644	20.98
797.82	19.71
797.995	21.2
798.17	21.1
798.345	22.36
798.52	23.02
798.695	19.35
798.87	18.28
799.045	16.42
799.22	19.08
799.395	16.76
799.57	14.97
799.745	17.46
799.92	15.75
800.095	17.2
800.27	16.73
800.445	15.78
800.62	16.66
800.795	16.27
800.97	16.73
801.145	13.81
801.319	15.01
801.494	16.2
801.669	14.78
801.844	14.81
802.018	10.84
802.193	10.98
802.368	13.51
802.543	12.55
802.717	11.86
802.892	12.31
803.067	14
803.241	12.47
803.416	15.69
803.59	14.1
803.765	13.01
803.94	16.6
804.114	20.28
804.289	17.39
804.463	15.95
804.638	13.73
804.812	14.64
804.986	11.68
805.161	12.1
805.335	12.4
805.51	14.78
805.684	15.81
805.858	18.98
806.033	16.28
806.207	18.37
806.381	20.02
806.556	24.11
806.73	24.54
806.904	26.41
807.078	28.11
807.253	27.23
807.427	24.6
807.601	26.25
807.775	20.37
807.949	19.37
808.123	18.78
808.298	19.23
808.472	13.92
808.646	9.95
808.82	10.01
808.994	11.99
809.168	15.42
809.342	17.36
809.516	19.47
809.69	21.64
809.864	23.44
810.038	22.31
810.212	23.14
810.385	22.54
810.559	22.15
810.733	23.51
810.907	26.33
811.081	23.29
811.255	25.38
811.428	18.84
811.602	15.48
811.776	14.68
811.95	13.37
812.123	12.56
812.297	16.8
812.471	17.94
812.644	14.32
812.818	5.93
812.992	9.42
813.165	8.51
813.339	9.85
813.512	14.78
813.686	14.82
813.86	15.76
814.033	16.09
814.207	17.98
814.38	20.55
814.554	21.93
814.727	25.49
814.9	23.27
815.074	23.62
815.247	20.36
815.421	21.09
815.594	22.86
815.767	19.01
815.941	19.52
816.114	17.03
816.287	19.24
816.46	12.83
816.634	8.06
816.807	7.15
816.98	6.25
817.153	13.51
817.327	11.15
817.5	11.21
817.673	15.68
817.846	17.61
818.019	18.38
818.192	14.36
818.365	20.56
818.538	23.95
818.711	25.04
818.884	22.68
819.057	15.26
819.23	16.87
819.403	19.12
819.576	18.64
819.749	16.24
819.922	15.09
820.095	14.97
820.268	13.95
820.441	14.65
820.614	15.29
820.786	14.18
820.959	17.91
821.132	18.73
821.305	18.86
821.477	19.36
821.65	19.05
821.823	19.74
821.996	20.22
822.168	19.1
822.341	20.24
822.514	20.53
822.686	21.33
822.859	21.35
823.031	21.2
823.204	20.54
823.376	20.62
823.549	21.22
823.722	20.55
823.894	20.43
824.067	21.7
824.239	20.51
824.411	20.51
824.584	19.46
824.756	20
824.929	19.88
825.101	18.91
825.273	19.02
825.446	18.69
825.618	19.62
825.79	18.95
825.963	19.37
826.135	18.28
826.307	18.38
826.479	20.08
826.652	19.17
826.824	18.53
826.996	20.15
827.168	20.95
827.34	21.19
827.512	21.37
827.684	21.05
827.856	20.91
828.029	22.99
828.201	23.11
828.373	23.95
828.545	24.56
828.717	25.95
828.889	26.16
829.061	24.37
829.232	23.09
829.404	22.05
829.576	24.52
829.748	24.39
829.92	23.54
830.092	19.71
830.264	18.91
830.436	13.99
830.607	12.38
830.779	13.45
830.951	15.6
831.123	20.14
831.294	20.26
831.466	18.48
831.638	18.18
831.809	20.38
831.981	25.07
832.153	24.66
832.324	29.05
832.496	26.49
832.667	26.22
832.839	23.04
833.011	19.75
833.182	18.44
833.354	17.77
833.525	16.29
833.697	13.68
833.868	13.86
834.039	13.42
834.211	10.49
834.382	12.67
834.554	14.92
834.725	15.53
834.896	16.61
835.068	18.04
835.239	16.85
835.41	16.83
835.581	18.45
835.753	18.41
835.924	17.88
836.095	18.1
836.266	18.68
836.438	18.13
836.609	16.56
836.78	13.01
836.951	13.8
837.122	13.16
837.293	14
837.464	9.55
837.635	7.09
837.806	5.6
837.977	9.85
838.148	6.24
838.319	2.27
838.49	3.02
838.661	7.09
838.832	5.6
839.003	7.77
839.174	10.95
839.345	21.58
839.516	24.92
839.687	30.54
839.857	26.94
840.028	32.3
840.199	38.62
840.37	36.25
840.54	33.15
840.711	34.73
840.882	37.16
841.053	32.35
841.223	22.87
841.394	18.09
841.564	14.51
841.735	14.65
841.906	12.72
842.076	5.79
842.247	15.55
842.417	19.9
842.588	15.86
842.758	17.89
842.929	16.36
843.099	16.05
843.27	12.14
843.44	16.65
843.611	19.77
843.781	19.55
843.951	18.84
844.122	3.43
844.292	0.49
844.462	6.3
844.633	2.45
844.803	6.51
844.973	4.09
845.144	9.44
845.314	5.89
845.484	9.55
845.654	8.68
845.824	6.78
845.995	15.28
846.165	14.81
846.335	10.54
846.505	10.67
846.675	13.38
846.845	14.51
847.015	13.85
847.185	15.66
847.355	-9.73
847.525	-9.36
847.695	-1.26
847.865	7.48
848.035	-0.45
848.205	4.49
848.375	17.59
848.545	14.97
848.715	25.2
848.884	35.61
849.054	34.65
849.224	38.36
849.394	40.43
849.564	45.94
849.733	37
849.903	40.8
850.073	48.94
850.243	46.68
850.412	44.58
850.582	45.7
850.752	39.17
850.921	36.13
851.091	30.06
851.26	23.7
851.43	23.82
851.599	25.79
851.769	15.66
851.939	-6.94
852.108	-11.23
852.278	-11.3
852.447	-35.09
852.616	-22.89
852.786	-7.16
852.955	6.11
853.125	24.15
853.294	23.88
853.463	34.48
853.633	46.94
853.802	61.19
853.971	72.82
854.141	69.72
854.31	75.23
854.479	75.47
854.648	66.41
854.818	70.18
854.987	52.53
855.156	45.02
855.325	49.5
855.494	34.69
855.663	36.44
855.832	21.78
856.001	31.43
856.171	41.41
856.34	37.56
856.509	36.77
856.678	27.47
856.847	39.47
857.016	35.14
857.185	19.52
857.353	31.06
857.522	41.77
857.691	60.7
857.86	48.19
858.029	27.92
858.198	35.89
858.367	39.6
858.535	49.19
858.704	34.4
858.873	43.04
859.042	60.43
859.21	56.47
859.379	25.53
859.548	23.77
859.717	37.81
859.885	39.2
860.054	35.25
860.222	33.19
860.391	27.38
860.56	26.32
860.728	30.07
860.897	16.15
861.065	18
861.234	35.26
861.402	35.18
861.571	4.95
861.739	5.28
861.908	0.58
862.076	11.51
862.244	5.67
862.413	-5.92
862.581	-28.33
862.749	-9.26
862.918	-10.79
863.086	-7.61
863.254	2.24
863.423	10.32
863.591	12.88
863.759	16.23
863.927	6.31
864.096	11.98
864.264	17.4
864.432	18.74
864.6	17.64
864.768	16.55
864.936	13.23
865.104	23.58
865.272	39.51
865.44	41.48
865.608	40.11
865.776	41.4
865.944	43.31
866.112	40.29
866.28	34.23
866.448	48.75
866.616	52.55
866.784	46.19
866.952	30.75
867.12	24.55
867.288	25.62
867.455	30.57
867.623	41.92
867.791	50.02
867.959	53.18
868.127	70.44
868.294	49.62
868.462	52.5
868.63	69.08
868.797	99.68
868.965	93.95
869.133	77.54
869.3	65.21
869.468	57.1
869.636	63.04
869.803	61.44
869.971	45.26
870.138	64.12
870.306	66.19
870.473	56.17
870.641	50.83
870.808	56.27
870.975	50.34
871.143	62.39
871.31	51.62
871.478	35.42
871.645	29.29
871.812	32.17
871.98	32.09
872.147	14.4
872.314	11.33
872.482	-0.58
872.649	4.27
872.816	11.76
872.983	2.82
873.15	18.39
873.318	31.35
873.485	24.26
873.652	22.12
873.819	18.18
873.986	29.13
874.153	30.34
874.32	41.18
874.487	41.96
874.654	42.08
874.821	38.84
874.988	31.68
875.155	37.02
875.322	46.75
875.489	35.52
875.656	32.88
875.823	29.32
875.99	18.87
876.157	14.77
876.324	6
876.49	23.17
876.657	23.26
876.824	24.4
876.991	10.97
877.157	8.62
877.324	18.86
877.491	25.98
877.658	23.29
877.824	31.79
877.991	39.27
878.157	38.5
878.324	15.56
878.491	19.38
878.657	13.7
878.824	23.28
878.99	17.86
879.157	26.36
879.323	10.68
879.49	25.4
879.656	23.11
879.823	14.1
879.989	12.47
880.156	21.05
880.322	20.93
880.488	23.08
880.655	18.21
880.821	17.94
880.987	1.63
881.154	-5.33
881.32	-7.28
881.486	-11.36
881.652	3.19
881.819	9.71
881.985	4.65
882.151	4.18
882.317	4.56
882.483	7.71
882.649	14.88
882.816	19.41
882.982	24.38
883.148	23.53
883.314	26
883.48	24.04
883.646	21.36
883.812	24.86
883.978	23.02
884.144	24.43
884.31	26.58
884.476	25.3
884.642	26.2
884.807	26.07
884.973	24.6
885.139	25.98
885.305	26.03
885.471	28.6
885.637	24.95
885.802	27.28
885.968	25.12
886.134	27.04
886.3	23.34
886.465	15.77
886.631	7.28
886.797	14.58
886.962	4.95
887.128	-3.29
887.293	-12.31
887.459	-9.83
887.625	-13.63
887.79	-16.16
887.956	-38.78
888.121	-36.6
888.287	-33.79
888.452	-26.22
888.618	-57.69
888.783	-49.98
