Data from 2938113_Reflection_1.txt Node
Date: Sat Jul 11 18:18:54 EDT 2015
User: robert
Spectrometer: USB4E03001
Autoset integration time: false
Trigger mode: 4
Integration Time (sec): 1.000000E-1
Scans to average: 10
Electric dark correction enabled: true
Nonlinearity correction enabled: false
Boxcar width: 5
Stray light correction enabled: false
XAxis mode: Wavelengths
Stop averaging: false
Number of Pixels in Spectrum: 3648
>>>>>Begin Spectral Data<<<<<
177.566	164.58
177.785	335.47
178.005	-1354.63
178.225	-456.8
178.445	-290.96
178.665	5480.65
178.885	-260.87
179.105	-264.41
179.324	-227.71
179.544	-196
179.764	-1989.35
179.984	2854.13
180.204	-691.92
180.423	-145.36
180.643	-102.56
180.863	-84.11
181.083	-79.64
181.302	-28.78
181.522	-67.05
181.742	-94.44
181.961	-1323.91
182.181	404.02
182.401	284.45
182.621	196.76
182.84	190.71
183.06	231.43
183.279	147.03
183.499	165
183.719	155.87
183.938	242.96
184.158	288.79
184.377	145.38
184.597	125.58
184.816	96.35
185.036	50
185.256	64.53
185.475	109.88
185.695	101.95
185.914	112.02
186.134	205.79
186.353	100.77
186.572	348.26
186.792	-111.49
187.011	-99.95
187.231	-86.92
187.45	-75.19
187.67	-40.62
187.889	69.12
188.108	24.92
188.328	70.95
188.547	154.61
188.766	74.94
188.986	-2.19
189.205	50.87
189.424	104.54
189.644	56.99
189.863	44.13
190.082	70.53
190.302	105.36
190.521	43.38
190.74	13.15
190.959	333.11
191.178	2123.81
191.398	1046.29
191.617	-59.26
191.836	-29.8
192.055	-78.16
192.274	-282.61
192.494	200.78
192.713	346.7
192.932	410.74
193.151	13368.09
193.37	-133200
193.589	336.79
193.808	278.75
194.027	136.28
194.246	112.83
194.465	52.22
194.685	1.28
194.904	1.78
195.123	-122.17
195.342	-37.91
195.561	16.14
195.78	8.13
195.999	27.81
196.218	29.22
196.436	48.84
196.655	55.69
196.874	85.65
197.093	105.76
197.312	94.94
197.531	72.03
197.75	52.76
197.969	66.63
198.188	75.05
198.407	43.22
198.625	40.42
198.844	-66.97
199.063	-141.03
199.282	4623.85
199.501	-797.94
199.719	-7954.79
199.938	620.76
200.157	153.13
200.376	-20.78
200.594	-259.59
200.813	-703.41
201.032	-32.29
201.251	40.54
201.469	55.43
201.688	76.49
201.907	88.86
202.125	67.23
202.344	59.94
202.563	74.45
202.781	47.49
203	80.39
203.218	79.38
203.437	116.3
203.656	194.68
203.874	189.73
204.093	96.57
204.311	116.07
204.53	145.59
204.748	150.85
204.967	131.89
205.185	162.6
205.404	119.66
205.622	176.19
205.841	251.4
206.059	147.11
206.278	118.62
206.496	172.53
206.715	123.86
206.933	92.83
207.151	74.89
207.37	286.36
207.588	167.32
207.806	129.1
208.025	452.82
208.243	-310.57
208.461	-538.37
208.68	-617.15
208.898	1772.35
209.116	806.3
209.335	227.27
209.553	-248.01
209.771	-418.07
209.989	-278.92
210.208	-529.21
210.426	459.5
210.644	61.88
210.862	-167.27
211.081	-33.08
211.299	-70.85
211.517	-22.12
211.735	-78.95
211.953	-161.23
212.171	-81.78
212.39	0.19
212.608	-47.61
212.826	-7.23
213.044	-22.63
213.262	-33.28
213.48	-83.41
213.698	-47.61
213.916	-51.7
214.134	-76.76
214.352	-117.26
214.57	-243.06
214.788	-590.59
215.006	-5060.55
215.224	-42705.56
215.442	-1370.51
215.66	-1590.98
215.878	27.64
216.096	137.42
216.314	-394.74
216.532	-2364.29
216.75	274.43
216.968	497.74
217.185	415.57
217.403	192.2
217.621	168.37
217.839	170.23
218.057	133.57
218.275	-921.58
218.492	-74.6
218.71	-30.37
218.928	48.01
219.146	33.21
219.363	30.05
219.581	10.48
219.799	21.7
220.017	8.79
220.234	41.41
220.452	39.15
220.67	38.58
220.887	56.93
221.105	83.65
221.323	48.97
221.54	66.91
221.758	79.07
221.976	85
222.193	60.99
222.411	85.47
222.629	57.07
222.846	50.56
223.064	63.94
223.281	54.59
223.499	44.25
223.716	63.77
223.934	59.27
224.151	48.96
224.369	49.23
224.586	54.81
224.804	44.37
225.021	48.28
225.239	57.4
225.456	47.26
225.674	57.22
225.891	48.36
226.108	58.31
226.326	56.02
226.543	42.66
226.76	55
226.978	40.84
227.195	35.7
227.413	41.54
227.63	34.4
227.847	32.35
228.064	27.13
228.282	22.43
228.499	17.28
228.716	18.37
228.934	23.4
229.151	21.93
229.368	26.13
229.585	26.66
229.802	27.06
230.02	26
230.237	25.29
230.454	23.62
230.671	28.33
230.888	24.35
231.105	22.17
231.323	20.72
231.54	18.43
231.757	14.81
231.974	13.01
232.191	13.22
232.408	13.87
232.625	25.42
232.842	31.05
233.059	32.83
233.276	40.45
233.493	48.39
233.71	45.82
233.927	39.98
234.144	38.62
234.361	42.35
234.578	38.41
234.795	35.69
235.012	29.65
235.229	28.84
235.446	27.29
235.663	29.3
235.879	27.22
236.096	30.05
236.313	33.64
236.53	29.63
236.747	28.99
236.964	33.26
237.181	38.13
237.397	32.63
237.614	24.92
237.831	20.98
238.048	15.45
238.264	10.08
238.481	15.43
238.698	12.4
238.915	17.17
239.131	17.64
239.348	14.41
239.565	13.16
239.781	19.45
239.998	20.79
240.215	25.69
240.431	27.24
240.648	26.83
240.865	23.79
241.081	24.55
241.298	24.37
241.514	19.51
241.731	20.46
241.947	22.01
242.164	20.95
242.38	23.01
242.597	18.73
242.814	16.74
243.03	17.02
243.246	15.2
243.463	15.15
243.679	13.98
243.896	15.76
244.112	16.19
244.329	13.85
244.545	13.17
244.762	10.36
244.978	13.6
245.194	15.61
245.411	14.57
245.627	17.36
245.843	17.25
246.06	18.01
246.276	18.46
246.492	18.06
246.709	17.7
246.925	18.36
247.141	19.1
247.357	18.89
247.574	18.54
247.79	19.11
248.006	18.06
248.222	18.94
248.439	19.81
248.655	18.35
248.871	17.84
249.087	18.03
249.303	17.22
249.519	14.97
249.736	13.23
249.952	13.25
250.168	12.15
250.384	12.63
250.6	9.4
250.816	6.91
251.032	8.64
251.248	8.03
251.464	8.73
251.68	10.06
251.896	11.46
252.112	13.88
252.328	15.41
252.544	14.58
252.76	14.81
252.976	15.64
253.192	16.86
253.408	17.2
253.624	20.54
253.84	17.75
254.056	16.33
254.272	18.82
254.487	19.36
254.703	17.5
254.919	20.98
255.135	21.21
255.351	19
255.567	21.59
255.782	22.3
255.998	15.56
256.214	20.61
256.43	21.43
256.646	21.05
256.861	17.11
257.077	16.06
257.293	12.7
257.508	11.24
257.724	12.2
257.94	8.87
258.155	7.9
258.371	9.7
258.587	8.38
258.802	7.16
259.018	8.33
259.234	9.3
259.449	10.84
259.665	11.59
259.88	11.5
260.096	12.14
260.312	11.92
260.527	12.16
260.743	12.94
260.958	13.19
261.174	13.3
261.389	12.17
261.605	12.85
261.82	11.25
262.036	11.45
262.251	11.86
262.466	10.59
262.682	9.58
262.897	10.37
263.113	9.98
263.328	8.73
263.543	11.66
263.759	13
263.974	12.73
264.189	13.7
264.405	11.37
264.62	14.6
264.835	15.1
265.051	18.16
265.266	18.64
265.481	15.25
265.696	15.38
265.912	13.79
266.127	11.81
266.342	11.73
266.557	12.4
266.773	13.73
266.988	11.58
267.203	12.18
267.418	11.28
267.633	11.62
267.848	12.91
268.064	12.76
268.279	12.37
268.494	14.24
268.709	13.85
268.924	13.57
269.139	15.27
269.354	16.12
269.569	15.16
269.784	15.39
269.999	13.9
270.214	12.79
270.429	13.32
270.644	14.09
270.859	13.72
271.074	12.91
271.289	12.66
271.504	11.71
271.719	11.33
271.934	11.4
272.149	10.07
272.363	11.06
272.578	12.92
272.793	13.62
273.008	13.06
273.223	13.17
273.438	14.2
273.653	14.15
273.867	14.04
274.082	14.91
274.297	15.46
274.512	16.45
274.726	16.27
274.941	16.17
275.156	14.81
275.371	16.65
275.585	14.35
275.8	13.33
276.015	12.05
276.229	10.13
276.444	7.39
276.659	6.79
276.873	5.84
277.088	7.89
277.302	8.35
277.517	10.38
277.732	7.24
277.946	10.8
278.161	10.7
278.375	13.09
278.59	14.72
278.804	16.95
279.019	16.55
279.233	18.28
279.448	15.79
279.662	16.22
279.877	15.09
280.091	18.51
280.306	17.8
280.52	18.51
280.735	18.15
280.949	21.13
281.163	20.2
281.378	21.76
281.592	22.57
281.806	23.43
282.021	20.75
282.235	21.43
282.449	21.68
282.664	20.94
282.878	21.31
283.092	21.77
283.307	18.4
283.521	20.17
283.735	18.46
283.949	18.31
284.164	16.52
284.378	17.51
284.592	17.52
284.806	16.39
285.02	16.42
285.234	17.21
285.449	16.57
285.663	17.5
285.877	16.65
286.091	17.67
286.305	16.12
286.519	17.74
286.733	18.81
286.947	18.29
287.161	17.78
287.375	18.66
287.589	17.12
287.803	17.25
288.017	15.2
288.231	13.96
288.445	13.69
288.659	14.81
288.873	12.72
289.087	12.6
289.301	13.48
289.515	14.42
289.729	15.32
289.943	15.14
290.157	14.79
290.371	15.3
290.584	15.57
290.798	14.89
291.012	14.93
291.226	17.1
291.44	15.95
291.654	16.81
291.867	16.44
292.081	16.29
292.295	17.44
292.509	17.04
292.722	17.9
292.936	18.71
293.15	19.35
293.364	19.85
293.577	18.54
293.791	18.28
294.005	17.26
294.218	18.49
294.432	18.72
294.645	17.59
294.859	18.97
295.073	19.44
295.286	18.84
295.5	18.62
295.713	17.2
295.927	18.53
296.14	19.31
296.354	19.15
296.568	18.23
296.781	17.26
296.994	17.08
297.208	16.07
297.421	16.99
297.635	16.52
297.848	16.73
298.062	17.32
298.275	16.99
298.489	16.13
298.702	16.16
298.915	16.2
299.129	17.34
299.342	18.32
299.555	18.84
299.769	17.66
299.982	17.05
300.195	16.97
300.409	16.69
300.622	15.22
300.835	16.07
301.048	14.75
301.262	12.65
301.475	10.33
301.688	9.88
301.901	9.48
302.115	9.93
302.328	11.42
302.541	13.35
302.754	14.03
302.967	15
303.18	16.3
303.393	16.32
303.607	19.48
303.82	21.68
304.033	22.8
304.246	24.24
304.459	23.17
304.672	24.3
304.885	21.83
305.098	21.9
305.311	21.15
305.524	20.95
305.737	22.65
305.95	21.32
306.163	20.26
306.376	21.36
306.589	19.31
306.802	19.96
307.015	19.06
307.228	21.09
307.44	21.38
307.653	23.37
307.866	21.18
308.079	21.8
308.292	22.81
308.505	23.06
308.718	21.27
308.93	21.74
309.143	22.91
309.356	23.2
309.569	22.8
309.781	22.02
309.994	20.16
310.207	20.41
310.42	19.48
310.632	19.47
310.845	18.73
311.058	17.79
311.27	18.06
311.483	17.72
311.696	17.41
311.908	17.32
312.121	17.51
312.333	18.9
312.546	19.94
312.759	21.48
312.971	20.09
313.184	22.24
313.396	23.63
313.609	23.87
313.821	23.94
314.034	24.85
314.246	23.82
314.459	25.45
314.671	26.27
314.884	24.92
315.096	23.07
315.309	23.92
315.521	23.69
315.733	22.74
315.946	23.89
316.158	23.34
316.371	22.74
316.583	23.21
316.795	20.53
317.008	17.85
317.22	18.67
317.432	17.31
317.644	15.85
317.857	11.62
318.069	13.97
318.281	12.59
318.494	13.38
318.706	11.85
318.918	9.29
319.13	10.88
319.342	10.94
319.555	10.48
319.767	11.3
319.979	11.13
320.191	16.35
320.403	16.47
320.615	18.05
320.827	17.13
321.039	17.29
321.252	20.59
321.464	19.95
321.676	21.27
321.888	21.17
322.1	21.31
322.312	21.96
322.524	19.36
322.736	19.51
322.948	17.95
323.16	16.54
323.372	18.89
323.584	18.87
323.796	18.53
324.007	16.85
324.219	17.99
324.431	16.51
324.643	16.83
324.855	16.56
325.067	15.12
325.279	14.9
325.491	16.1
325.702	13.33
325.914	14.08
326.126	14.56
326.338	14.88
326.55	14.67
326.761	16.06
326.973	15.19
327.185	16.37
327.396	15.29
327.608	15.79
327.82	15.87
328.032	16.42
328.243	14.29
328.455	14.44
328.666	14.75
328.878	14.07
329.09	13.57
329.301	14.14
329.513	13.97
329.725	15.39
329.936	17.1
330.148	17.04
330.359	17.33
330.571	19.28
330.782	19.17
330.994	20.18
331.205	21.72
331.417	22.43
331.628	22.87
331.84	22.35
332.051	22.48
332.262	22.31
332.474	23.19
332.685	23.97
332.897	22.32
333.108	20.88
333.319	20.3
333.531	18.37
333.742	19.68
333.953	20.44
334.165	19.98
334.376	19.46
334.587	19.48
334.799	19.58
335.01	19.92
335.221	20.35
335.432	20.99
335.644	21.25
335.855	21.72
336.066	18.99
336.277	18.93
336.488	19.82
336.7	18.74
336.911	16.75
337.122	16.68
337.333	16.03
337.544	15.33
337.755	16.89
337.966	16.66
338.177	16.54
338.388	17.86
338.599	15.33
338.811	13.34
339.022	14.72
339.233	14.26
339.444	14.36
339.655	14.1
339.866	16.2
340.076	13.16
340.287	12.45
340.498	13.67
340.709	13.09
340.92	15.77
341.131	16.15
341.342	15.9
341.553	15.99
341.764	15.45
341.975	14.51
342.185	13.55
342.396	15.13
342.607	15.21
342.818	14.6
343.029	15.52
343.239	15.54
343.45	16.39
343.661	16.48
343.872	17.32
344.082	18.12
344.293	20.37
344.504	21.85
344.714	22.02
344.925	22.54
345.136	21.58
345.346	19.62
345.557	19.14
345.768	18.85
345.978	19.22
346.189	19.81
346.399	18.82
346.61	18.19
346.821	17.14
347.031	18.48
347.242	18.04
347.452	17.55
347.663	18.38
347.873	19.27
348.084	20.01
348.294	19.28
348.504	18.59
348.715	18.48
348.925	18.65
349.136	18.16
349.346	17.56
349.557	17.43
349.767	19.13
349.977	20.12
350.188	16.6
350.398	15.71
350.608	16.77
350.819	17.09
351.029	15.77
351.239	15.14
351.449	15.85
351.66	14.25
351.87	15.24
352.08	13.86
352.29	14.02
352.501	15.77
352.711	15.52
352.921	14.96
353.131	14.5
353.341	16.28
353.552	16.8
353.762	14.62
353.972	14.72
354.182	14.21
354.392	13.93
354.602	13.51
354.812	14.18
355.022	14.44
355.232	15.46
355.442	14.15
355.652	13.55
355.862	12.21
356.072	13.24
356.282	13.12
356.492	13.11
356.702	12.46
356.912	13.41
357.122	12.84
357.332	13.22
357.542	10.51
357.752	11.61
357.962	11.55
358.171	11.87
358.381	11.88
358.591	12.59
358.801	12.3
359.011	13.06
359.221	13.42
359.43	14.09
359.64	14.12
359.85	14.79
360.06	15.51
360.269	16.07
360.479	16.21
360.689	16.34
360.899	15.38
361.108	15.2
361.318	15.95
361.528	13.54
361.737	13.61
361.947	13.36
362.156	12.89
362.366	12.23
362.576	11.53
362.785	12.05
362.995	11.79
363.204	12.49
363.414	13.16
363.623	12.8
363.833	14.18
364.042	12.96
364.252	13
364.461	14.33
364.671	14.53
364.88	14.91
365.09	14.27
365.299	14.18
365.509	14.39
365.718	14.06
365.927	14.44
366.137	15.35
366.346	16.37
366.555	16.41
366.765	16.63
366.974	16.36
367.183	16.06
367.393	16.25
367.602	16.3
367.811	16.27
368.021	15.84
368.23	15.12
368.439	14.55
368.648	14.42
368.857	14.68
369.067	14.02
369.276	14.4
369.485	15.31
369.694	14.19
369.903	14.18
370.112	12.97
370.321	12.4
370.531	12.22
370.74	12.6
370.949	12.34
371.158	11.02
371.367	11.8
371.576	11.55
371.785	10.47
371.994	11.02
372.203	11.17
372.412	11.66
372.621	12.28
372.83	13.27
373.039	11.84
373.248	11.63
373.457	12.24
373.666	12.23
373.874	11.9
374.083	12.28
374.292	12.38
374.501	11.65
374.71	11.07
374.919	11.04
375.128	9.87
375.336	10.5
375.545	9.84
375.754	9.47
375.963	8.45
376.171	8.27
376.38	7.17
376.589	7.29
376.798	7.83
377.006	8.61
377.215	8.79
377.424	8.75
377.632	9.28
377.841	9.57
378.05	9.47
378.258	10.1
378.467	10.31
378.675	11.33
378.884	11.92
379.093	11.61
379.301	11.31
379.51	11.46
379.718	11.59
379.927	10.67
380.135	10.89
380.344	11.3
380.552	10.94
380.761	10.89
380.969	11.36
381.177	10.76
381.386	10.79
381.594	10.59
381.803	9.92
382.011	9.91
382.219	10.04
382.428	10.51
382.636	10.13
382.845	9.86
383.053	9.52
383.261	8.71
383.469	8.52
383.678	7.91
383.886	7.77
384.094	7.82
384.302	7.67
384.511	8.04
384.719	6.53
384.927	6.28
385.135	6.31
385.343	6.67
385.552	5.96
385.76	5.93
385.968	5.78
386.176	6.13
386.384	6.44
386.592	6.42
386.8	6.33
387.008	7.19
387.216	7.41
387.424	7.14
387.633	6.97
387.841	7.55
388.049	7.71
388.257	8.49
388.465	8.16
388.672	7.73
388.88	7.3
389.088	7.16
389.296	6.89
389.504	6.86
389.712	7.12
389.92	7.29
390.128	7.18
390.336	6.74
390.544	6.35
390.751	6.39
390.959	6.5
391.167	6.67
391.375	6.71
391.583	6.92
391.79	6.9
391.998	6.97
392.206	6.78
392.414	6.7
392.621	7.2
392.829	7.18
393.037	6.98
393.244	6.63
393.452	6.73
393.66	6.18
393.867	5.98
394.075	5.64
394.283	5.37
394.49	5.49
394.698	5.11
394.905	4.62
395.113	4.59
395.32	4.62
395.528	4.82
395.735	4.92
395.943	5.25
396.15	5.31
396.358	6.11
396.565	6.05
396.773	5.73
396.98	6.09
397.188	6.16
397.395	5.77
397.602	5.97
397.81	6.24
398.017	6.18
398.225	6.45
398.432	6.13
398.639	5.91
398.847	5.92
399.054	5.81
399.261	5.57
399.468	5.69
399.676	6.07
399.883	5.95
400.09	5.53
400.297	5.66
400.505	5.04
400.712	5.48
400.919	5.12
401.126	5.2
401.333	5.57
401.54	6.05
401.748	6.05
401.955	5.54
402.162	5.53
402.369	5.54
402.576	5.38
402.783	5.34
402.99	5.24
403.197	5.17
403.404	5.25
403.611	4.88
403.818	4.61
404.025	4.38
404.232	4.78
404.439	5.1
404.646	5.27
404.853	5.12
405.06	5.21
405.267	5
405.474	5.41
405.681	5.25
405.887	5.23
406.094	5.14
406.301	5.09
406.508	4.94
406.715	4.46
406.922	4.52
407.128	4.52
407.335	4.74
407.542	5.07
407.749	4.68
407.955	4.53
408.162	4.64
408.369	4.83
408.575	5.01
408.782	5.05
408.989	5.35
409.195	5.27
409.402	5.13
409.609	5.07
409.815	4.82
410.022	4.74
410.228	4.79
410.435	4.8
410.642	4.5
410.848	4.29
411.055	4.2
411.261	3.98
411.468	4.02
411.674	4.06
411.881	3.92
412.087	4.04
412.294	4.13
412.5	4.18
412.706	3.98
412.913	4.21
413.119	4.4
413.326	4.6
413.532	4.68
413.738	4.78
413.945	5.03
414.151	5.11
414.357	4.88
414.564	4.91
414.77	4.86
414.976	5.02
415.182	4.98
415.389	4.65
415.595	4.41
415.801	4.32
416.007	4.06
416.214	3.86
416.42	3.9
416.626	3.76
416.832	3.73
417.038	3.59
417.244	3.67
417.45	3.44
417.657	3.48
417.863	3.47
418.069	3.51
418.275	3.49
418.481	3.53
418.687	3.62
418.893	3.79
419.099	3.81
419.305	3.88
419.511	3.85
419.717	3.85
419.923	3.83
420.129	3.83
420.335	3.84
420.541	3.88
420.746	3.8
420.952	3.77
421.158	3.74
421.364	3.66
421.57	3.66
421.776	3.56
421.982	3.65
422.187	3.74
422.393	3.84
422.599	3.75
422.805	3.68
423.01	3.69
423.216	3.62
423.422	3.64
423.628	3.64
423.833	3.61
424.039	3.58
424.245	3.61
424.45	3.53
424.656	3.47
424.862	3.57
425.067	3.64
425.273	3.46
425.478	3.47
425.684	3.46
425.889	3.6
426.095	3.63
426.301	3.75
426.506	3.79
426.712	3.88
426.917	4.05
427.123	3.93
427.328	3.76
427.533	4.07
427.739	3.94
427.944	4.14
428.15	3.85
428.355	4.16
428.561	4.17
428.766	4.21
428.971	4.1
429.177	3.95
429.382	3.98
429.587	4.02
429.793	3.93
429.998	3.9
430.203	3.65
430.408	3.72
430.614	3.34
430.819	3.33
431.024	3.17
431.229	3.54
431.434	3.52
431.64	3.7
431.845	3.88
432.05	4.03
432.255	4.1
432.46	4.11
432.665	4.08
432.87	4.12
433.076	3.96
433.281	3.97
433.486	3.69
433.691	3.64
433.896	3.47
434.101	3.34
434.306	3.22
434.511	3.17
434.716	3.16
434.921	3.17
435.126	3.25
435.331	3.5
435.535	3.39
435.74	3.41
435.945	3.21
436.15	3.36
436.355	3.31
436.56	3.39
436.765	3.45
436.97	3.63
437.174	3.69
437.379	3.74
437.584	3.67
437.789	3.88
437.993	4.01
438.198	4.35
438.403	4.24
438.608	4.25
438.812	4.12
439.017	3.97
439.222	3.58
439.426	3.66
439.631	3.46
439.836	3.35
440.04	3.26
440.245	3.07
440.45	2.76
440.654	2.81
440.859	2.82
441.063	2.78
441.268	2.81
441.472	2.99
441.677	2.91
441.881	3.03
442.086	3.08
442.29	3
442.495	3.05
442.699	3.18
442.904	3.04
443.108	3.08
443.312	3.3
443.517	3.17
443.721	3.21
443.925	3.14
444.13	3.05
444.334	3.02
444.538	3.25
444.743	3.33
444.947	3.31
445.151	3.32
445.356	3.22
445.56	3.14
445.764	3.24
445.968	3.15
446.173	3.24
446.377	3.36
446.581	3.32
446.785	3.11
446.989	3
447.193	3.09
447.398	3.06
447.602	3.07
447.806	3.05
448.01	3.14
448.214	3.18
448.418	3.14
448.622	3.06
448.826	3.08
449.03	3.1
449.234	3.28
449.438	3.32
449.642	3.45
449.846	3.75
450.05	3.85
450.254	3.92
450.458	3.91
450.662	4.03
450.866	3.78
451.069	3.78
451.273	3.93
451.477	3.82
451.681	3.82
451.885	3.63
452.089	3.49
452.292	3.54
452.496	3.24
452.7	3.25
452.904	2.98
453.107	3.21
453.311	3.18
453.515	3.19
453.719	3.33
453.922	3.24
454.126	3.21
454.33	3.12
454.533	3
454.737	3.04
454.94	3.2
455.144	3.21
455.348	3.3
455.551	3.27
455.755	3.13
455.958	3.06
456.162	3.08
456.365	3.37
456.569	3.37
456.772	3.33
456.976	3.42
457.179	3.09
457.383	3.29
457.586	3.22
457.79	3.36
457.993	3.39
458.196	3.4
458.4	3.5
458.603	3.36
458.807	3.48
459.01	3.41
459.213	3.45
459.417	3.53
459.62	3.52
459.823	3.3
460.026	3.15
460.23	3.13
460.433	3
460.636	2.74
460.839	2.75
461.042	2.51
461.246	2.45
461.449	2.4
461.652	2.27
461.855	2.2
462.058	2.34
462.261	2.43
462.464	2.59
462.668	2.61
462.871	2.9
463.074	2.8
463.277	2.95
463.48	3.13
463.683	3.06
463.886	3.23
464.089	3.11
464.292	3.14
464.495	3.07
464.698	3.09
464.901	3.21
465.104	3.2
465.306	3.23
465.509	3.24
465.712	3.21
465.915	3.21
466.118	3.2
466.321	3.33
466.524	3.19
466.726	3.25
466.929	3.25
467.132	3.16
467.335	2.97
467.538	2.93
467.74	2.99
467.943	2.92
468.146	2.99
468.348	2.87
468.551	2.79
468.754	2.86
468.956	2.9
469.159	2.6
469.362	2.49
469.564	2.61
469.767	2.65
469.969	2.64
470.172	2.69
470.375	2.73
470.577	2.64
470.78	2.51
470.982	2.62
471.185	2.46
471.387	2.79
471.59	2.81
471.792	2.89
471.995	2.86
472.197	2.86
472.399	2.9
472.602	2.99
472.804	3.28
473.007	3.39
473.209	3.21
473.411	3.32
473.614	3.11
473.816	3.2
474.018	3.09
474.22	3.11
474.423	3.03
474.625	2.87
474.827	2.84
475.03	2.67
475.232	2.75
475.434	2.91
475.636	2.81
475.838	2.77
476.04	2.78
476.243	2.92
476.445	2.95
476.647	3.06
476.849	3.27
477.051	3.25
477.253	3.19
477.455	3.2
477.657	3.24
477.859	3.32
478.061	3.51
478.263	3.56
478.465	3.53
478.667	3.34
478.869	3.23
479.071	3.2
479.273	2.99
479.475	3.08
479.677	3.07
479.879	2.95
480.081	3.02
480.283	2.91
480.485	2.73
480.686	2.64
480.888	2.75
481.09	2.72
481.292	2.53
481.494	2.51
481.695	2.53
481.897	2.45
482.099	2.57
482.301	2.57
482.502	2.61
482.704	2.75
482.906	2.8
483.107	2.82
483.309	2.85
483.511	2.9
483.712	2.95
483.914	2.96
484.115	2.98
484.317	2.97
484.519	2.96
484.72	2.96
484.922	2.94
485.123	2.91
485.325	2.94
485.526	2.97
485.728	2.99
485.929	3.04
486.131	3.09
486.332	3.16
486.534	3.13
486.735	3.11
486.936	3.11
487.138	3.1
487.339	3.07
487.541	3.04
487.742	3.02
487.943	2.96
488.144	2.95
488.346	2.86
488.547	2.8
488.748	2.82
488.95	2.82
489.151	2.77
489.352	2.79
489.553	2.85
489.755	2.9
489.956	2.87
490.157	2.92
490.358	2.92
490.559	3.03
490.76	2.99
490.961	2.93
491.163	2.92
491.364	2.9
491.565	2.82
491.766	2.86
491.967	2.87
492.168	2.87
492.369	2.87
492.57	2.8
492.771	2.73
492.972	2.75
493.173	2.75
493.374	2.85
493.575	2.85
493.776	2.96
493.976	2.86
494.177	2.79
494.378	2.82
494.579	2.89
494.78	2.88
494.981	2.95
495.182	2.92
495.382	3.01
495.583	3.01
495.784	3.1
495.985	3.01
496.185	2.95
496.386	2.96
496.587	2.88
496.788	2.78
496.988	2.8
497.189	2.73
497.39	2.64
497.59	2.59
497.791	2.54
497.992	2.56
498.192	2.62
498.393	2.67
498.593	2.62
498.794	2.69
498.994	2.82
499.195	2.93
499.395	3.01
499.596	3.16
499.796	3.25
499.997	3.22
500.197	3.12
500.398	3.13
500.598	3.16
500.799	3.26
500.999	3.41
501.199	3.36
501.4	3.34
501.6	3.43
501.801	3.39
502.001	3.34
502.201	3.38
502.402	3.32
502.602	3.37
502.802	3.52
503.002	3.41
503.203	3.36
503.403	3.49
503.603	3.32
503.803	3.14
504.003	3.14
504.204	3.09
504.404	3.13
504.604	3.25
504.804	3.16
505.004	3.07
505.204	3.02
505.404	2.88
505.604	2.77
505.804	2.91
506.005	2.85
506.205	2.84
506.405	2.98
506.605	2.9
506.805	2.98
507.005	3
507.204	2.84
507.404	2.93
507.604	3.06
507.804	2.94
508.004	2.99
508.204	3.1
508.404	3.15
508.604	3.13
508.804	3.27
509.003	3.26
509.203	3.3
509.403	3.38
509.603	3.4
509.803	3.25
510.002	3.28
510.202	3.27
510.402	3.33
510.602	3.36
510.801	3.32
511.001	3.15
511.201	3.08
511.4	3.11
511.6	3.04
511.8	2.94
511.999	3.13
512.199	3.16
512.398	3.19
512.598	3.03
512.797	2.99
512.997	2.9
513.197	3.05
513.396	3.11
513.596	3.13
513.795	3.06
513.994	3.19
514.194	3.21
514.393	3.25
514.593	3.24
514.792	3.43
514.992	3.5
515.191	3.68
515.39	3.73
515.59	3.83
515.789	3.81
515.988	3.95
516.188	3.93
516.387	3.73
516.586	3.63
516.786	3.61
516.985	3.65
517.184	3.54
517.383	3.31
517.582	3.19
517.782	3.15
517.981	3.15
518.18	3.18
518.379	3.26
518.578	3.28
518.777	3.44
518.976	3.47
519.176	3.39
519.375	3.44
519.574	3.65
519.773	3.6
519.972	3.54
520.171	3.58
520.37	3.66
520.569	3.62
520.768	3.68
520.967	3.49
521.166	3.51
521.365	3.61
521.564	3.75
521.762	3.72
521.961	3.77
522.16	3.86
522.359	3.88
522.558	3.95
522.757	3.93
522.956	4
523.154	4.07
523.353	3.99
523.552	3.9
523.751	3.77
523.949	3.82
524.148	3.85
524.347	3.69
524.546	3.65
524.744	3.46
524.943	3.48
525.142	3.41
525.34	3.44
525.539	3.54
525.737	3.5
525.936	3.5
526.135	3.42
526.333	3.58
526.532	3.7
526.73	3.81
526.929	3.92
527.127	3.79
527.326	3.93
527.524	3.94
527.723	3.89
527.921	3.95
528.12	3.97
528.318	4.01
528.516	3.96
528.715	3.95
528.913	3.89
529.112	3.93
529.31	4.01
529.508	3.89
529.707	3.9
529.905	3.89
530.103	3.88
530.301	3.91
530.5	3.89
530.698	3.85
530.896	3.85
531.094	3.81
531.293	3.71
531.491	3.74
531.689	3.8
531.887	3.88
532.085	3.95
532.283	3.99
532.481	4.05
532.68	4.06
532.878	4.07
533.076	4.08
533.274	4.15
533.472	4.16
533.67	4.16
533.868	4.28
534.066	4.36
534.264	4.4
534.462	4.45
534.66	4.43
534.858	4.45
535.056	4.48
535.253	4.46
535.451	4.54
535.649	4.65
535.847	4.69
536.045	4.59
536.243	4.54
536.441	4.63
536.638	4.63
536.836	4.55
537.034	4.47
537.232	4.51
537.43	4.65
537.627	4.68
537.825	4.67
538.023	4.75
538.22	4.85
538.418	4.84
538.616	4.89
538.813	4.86
539.011	4.95
539.209	5.15
539.406	5.13
539.604	4.92
539.801	4.87
539.999	4.82
540.196	4.8
540.394	4.82
540.591	4.81
540.789	4.73
540.986	4.84
541.184	4.86
541.381	4.81
541.579	4.74
541.776	4.86
541.974	4.87
542.171	4.88
542.368	4.89
542.566	4.93
542.763	4.91
542.96	4.92
543.158	4.9
543.355	4.96
543.552	5.08
543.75	5.26
543.947	5.29
544.144	5.2
544.341	5.28
544.539	5.27
544.736	5.2
544.933	5.2
545.13	5.3
545.327	5.2
545.524	5.18
545.722	5.2
545.919	5.21
546.116	5.26
546.313	5.54
546.51	5.62
546.707	5.65
546.904	5.74
547.101	5.89
547.298	5.87
547.495	5.94
547.692	6.04
547.889	6.05
548.086	6.12
548.283	6.15
548.48	6.14
548.677	6.17
548.874	6.35
549.07	6.45
549.267	6.36
549.464	6.38
549.661	6.41
549.858	6.56
550.055	6.5
550.251	6.41
550.448	6.64
550.645	6.49
550.842	6.48
551.038	6.48
551.235	6.46
551.432	6.63
551.628	6.81
551.825	7.14
552.022	6.99
552.218	7.06
552.415	7.32
552.612	7.26
552.808	7.54
553.005	7.81
553.201	7.74
553.398	7.74
553.594	7.78
553.791	7.73
553.987	7.57
554.184	7.64
554.38	7.74
554.577	7.58
554.773	7.74
554.97	7.54
555.166	7.56
555.362	7.57
555.559	7.69
555.755	7.77
555.952	7.84
556.148	7.8
556.344	7.81
556.541	7.88
556.737	8.04
556.933	8.04
557.129	8.18
557.326	8.17
557.522	8.37
557.718	8.27
557.914	8.44
558.11	8.43
558.307	8.77
558.503	8.82
558.699	8.7
558.895	8.53
559.091	8.33
559.287	8.5
559.483	8.55
559.679	8.5
559.876	8.92
560.072	8.8
560.268	9.07
560.464	9.04
560.66	9.05
560.856	9.15
561.052	9.69
561.247	10.01
561.443	9.92
561.639	9.86
561.835	10.11
562.031	9.91
562.227	9.95
562.423	9.66
562.619	9.71
562.815	9.88
563.01	9.89
563.206	9.64
563.402	9.57
563.598	9.66
563.793	9.77
563.989	9.86
564.185	10.2
564.381	10.28
564.576	10.49
564.772	10.35
564.968	10.34
565.163	10.59
565.359	10.68
565.555	10.75
565.75	10.81
565.946	10.86
566.141	10.8
566.337	10.6
566.532	10.83
566.728	11.06
566.923	11.14
567.119	11.43
567.314	11.44
567.51	11.42
567.705	11.39
567.901	11.43
568.096	11.42
568.292	11.66
568.487	11.71
568.682	11.27
568.878	11.1
569.073	11.19
569.268	11.24
569.464	11.42
569.659	11.74
569.854	11.7
570.05	11.64
570.245	11.64
570.44	11.58
570.635	11.65
570.831	11.98
571.026	12.23
571.221	12.36
571.416	12.25
571.611	12.15
571.806	11.92
572.002	12.06
572.197	12.32
572.392	12.45
572.587	12.37
572.782	12.51
572.977	12.57
573.172	12.45
573.367	12.44
573.562	12.53
573.757	12.33
573.952	12.5
574.147	12.5
574.342	12.61
574.537	12.61
574.732	12.62
574.927	12.42
575.121	12.45
575.316	12.5
575.511	12.51
575.706	12.4
575.901	12.7
576.096	12.81
576.29	12.97
576.485	12.84
576.68	12.95
576.875	13.1
577.069	13.28
577.264	13.4
577.459	13.43
577.654	13.31
577.848	13.26
578.043	13.04
578.238	13.09
578.432	13.1
578.627	13.14
578.821	13.15
579.016	13.14
579.21	13
579.405	13.13
579.6	13.18
579.794	13.32
579.989	13.42
580.183	13.41
580.378	13.23
580.572	13.29
580.766	13.27
580.961	13.39
581.155	13.43
581.35	13.61
581.544	13.25
581.738	13.31
581.933	13.3
582.127	13.55
582.321	13.98
582.516	14.33
582.71	14.38
582.904	14.36
583.099	14.18
583.293	14.21
583.487	14.22
583.681	14.28
583.875	14.15
584.07	14.23
584.264	14.07
584.458	13.72
584.652	13.51
584.846	13.41
585.04	13.59
585.234	13.34
585.428	13.48
585.623	13.61
585.817	13.87
586.011	14.1
586.205	13.94
586.399	13.85
586.593	14.05
586.787	14.11
586.981	14.14
587.174	13.91
587.368	14.04
587.562	13.95
587.756	14.05
587.95	13.94
588.144	13.83
588.338	14.11
588.532	14.4
588.725	14.68
588.919	14.5
589.113	14.45
589.307	14.72
589.501	14.88
589.694	14.81
589.888	14.69
590.082	14.96
590.275	14.82
590.469	14.77
590.663	14.57
590.856	14.27
591.05	14.23
591.244	14.23
591.437	14.04
591.631	14.08
591.824	14.26
592.018	14.17
592.212	14.09
592.405	14.52
592.599	14.46
592.792	14.91
592.986	14.99
593.179	15.19
593.372	15.18
593.566	15.23
593.759	15.35
593.953	15.5
594.146	15.42
594.339	15.31
594.533	14.99
594.726	15.17
594.92	15.01
595.113	15.14
595.306	15.28
595.499	15.52
595.693	15.53
595.886	15.56
596.079	15.4
596.272	15.51
596.466	15.59
596.659	15.73
596.852	15.48
597.045	15.25
597.238	15.18
597.431	15.03
597.624	14.95
597.818	15
598.011	14.7
598.204	14.69
598.397	14.75
598.59	14.64
598.783	14.53
598.976	14.73
599.169	14.84
599.362	15.01
599.555	15.03
599.748	14.64
599.941	14.89
600.134	15.01
600.326	14.85
600.519	14.79
600.712	14.89
600.905	14.9
601.098	14.64
601.291	14.58
601.483	14.59
601.676	14.6
601.869	14.87
602.062	14.78
602.255	14.82
602.447	14.89
602.64	15.02
602.833	15.06
603.025	15.12
603.218	15.48
603.411	15.34
603.603	15.19
603.796	15.26
603.989	15.28
604.181	15.15
604.374	15.37
604.566	15.65
604.759	15.6
604.951	15.55
605.144	15.46
605.336	15.39
605.529	15.78
605.721	15.83
605.914	15.82
606.106	15.96
606.299	16.08
606.491	15.77
606.683	15.49
606.876	15.3
607.068	15.25
607.26	15.42
607.453	15.54
607.645	15.28
607.837	15.3
608.03	15.13
608.222	14.84
608.414	14.73
608.606	15
608.799	15.02
608.991	15.24
609.183	15.52
609.375	15.35
609.567	15.11
609.759	14.99
609.952	15.22
610.144	15.14
610.336	15.13
610.528	15.05
610.72	14.94
610.912	14.76
611.104	14.37
611.296	13.94
611.488	14
611.68	13.97
611.872	14.04
612.064	13.72
612.256	13.96
612.448	14.17
612.64	14.23
612.832	13.98
613.023	14.19
613.215	14.66
613.407	14.9
613.599	14.89
613.791	15.13
613.983	15.17
614.174	15.12
614.366	14.94
614.558	14.75
614.75	14.65
614.941	14.99
615.133	15.03
615.325	15.29
615.516	14.98
615.708	15.1
615.9	14.97
616.091	15.03
616.283	14.98
616.475	15.12
616.666	15.37
616.858	15.67
617.049	15.99
617.241	16.02
617.432	15.4
617.624	15.94
617.815	15.84
618.007	15.8
618.198	16.14
618.39	16.41
618.581	16.68
618.773	16.44
618.964	16.24
619.155	15.84
619.347	15.88
619.538	16.15
619.729	15.77
619.921	15.79
620.112	16.02
620.303	15.6
620.494	15.53
620.686	15.32
620.877	15.66
621.068	15.81
621.259	15.79
621.451	15.8
621.642	15.79
621.833	15.88
622.024	16.06
622.215	16.02
622.406	15.89
622.597	16.04
622.788	15.96
622.98	15.83
623.171	15.73
623.362	15.76
623.553	15.61
623.744	15.85
623.935	16.35
624.126	16.22
624.317	16.01
624.508	16.26
624.698	16.28
624.889	16.56
625.08	16.63
625.271	16.63
625.462	16.86
625.653	17.08
625.844	17.19
626.034	16.77
626.225	16.74
626.416	16.66
626.607	16.42
626.798	16.3
626.988	16.07
627.179	15.85
627.37	15.77
627.56	15.48
627.751	15.49
627.942	15.02
628.132	15.34
628.323	15.31
628.514	15.45
628.704	15.74
628.895	15.82
629.085	16.02
629.276	16.23
629.466	16.37
629.657	16.56
629.847	16.64
630.038	16.68
630.228	16.45
630.419	16.48
630.609	16.45
630.8	16.18
630.99	15.99
631.181	15.92
631.371	16.05
631.561	16.1
631.752	16.33
631.942	15.97
632.132	15.94
632.323	15.97
632.513	16.04
632.703	15.96
632.893	16.08
633.084	16.46
633.274	16.47
633.464	16.26
633.654	16.06
633.844	15.77
634.034	16.09
634.225	16.09
634.415	15.87
634.605	15.79
634.795	16.23
634.985	16.48
635.175	16.04
635.365	15.75
635.555	15.93
635.745	15.95
635.935	16.13
636.125	15.74
636.315	15.99
636.505	16.38
636.695	16.2
636.885	15.82
637.075	15.51
637.265	15.99
637.455	16.25
637.644	16.09
637.834	16.48
638.024	16.67
638.214	16.49
638.404	16.84
638.593	16.91
638.783	17.29
638.973	17.54
639.163	17.87
639.352	17.5
639.542	17.33
639.732	17.56
639.921	17.59
640.111	17.29
640.301	17.73
640.49	17.52
640.68	17.11
640.87	16.84
641.059	16.66
641.249	16.36
641.438	16.46
641.628	16.59
641.817	16.17
642.007	16.08
642.196	16.18
642.386	15.8
642.575	16
642.764	15.97
642.954	16.12
643.143	16.04
643.333	16.12
643.522	15.92
643.711	16.39
643.901	16.71
644.09	16.69
644.279	16.69
644.469	16.99
644.658	16.59
644.847	16.87
645.036	16.95
645.226	17.21
645.415	17.33
645.604	17.69
645.793	17.54
645.982	17.48
646.171	17.26
646.361	17.42
646.55	17.7
646.739	17.82
646.928	17.72
647.117	17.86
647.306	17.96
647.495	18.1
647.684	17.95
647.873	17.63
648.062	17.53
648.251	18.2
648.44	17.75
648.629	17.91
648.818	17.66
649.007	17.4
649.196	17.48
649.384	17.09
649.573	16.8
649.762	16.86
649.951	17.05
650.14	17.17
650.328	16.69
650.517	16.48
650.706	16.02
650.895	15.99
651.083	16.41
651.272	15.69
651.461	15.79
651.65	15.91
651.838	15.74
652.027	15.32
652.216	15.02
652.404	14.9
652.593	15.3
652.781	15.64
652.97	15.8
653.158	15.49
653.347	16.12
653.535	16.11
653.724	16.09
653.912	16.22
654.101	16.22
654.289	16.36
654.478	16.43
654.666	16.32
654.855	15.95
655.043	15.98
655.231	16.36
655.42	16.26
655.608	16.49
655.796	16.31
655.985	16.2
656.173	16.71
656.361	16.73
656.55	16.7
656.738	16.99
656.926	17.56
657.114	17.57
657.302	17.41
657.491	17.15
657.679	17.25
657.867	17.13
658.055	17.35
658.243	17.2
658.431	17.43
658.619	17.61
658.807	17.08
658.996	16.65
659.184	16.56
659.372	16.67
659.56	16.79
659.748	16.74
659.936	17.1
660.124	16.73
660.311	16.84
660.499	16.64
660.687	16.61
660.875	17.14
661.063	16.96
661.251	17.14
661.439	16.94
661.627	16.8
661.814	16.65
662.002	16.45
662.19	16.72
662.378	16.58
662.565	16.57
662.753	16.04
662.941	15.86
663.129	16.14
663.316	15.58
663.504	15.78
663.692	15.84
663.879	16
664.067	16.02
664.254	16.31
664.442	16.24
664.63	16.36
664.817	16.79
665.005	16.96
665.192	16.99
665.38	17.23
665.567	16.6
665.755	17.01
665.942	16.72
666.13	16.88
666.317	16.54
666.504	16.52
666.692	16.32
666.879	16.5
667.067	16.05
667.254	16.42
667.441	17.07
667.629	17.37
667.816	17.27
668.003	17.25
668.19	17.25
668.378	17.16
668.565	17.11
668.752	17.35
668.939	16.78
669.127	16.91
669.314	16.7
669.501	16.34
669.688	16.12
669.875	15.84
670.062	15.5
670.249	14.99
670.436	15.28
670.623	15.27
670.81	15.44
670.997	15.84
671.184	15.56
671.371	15.77
671.558	15.66
671.745	15.89
671.932	15.98
672.119	16.5
672.306	16.75
672.493	16.28
672.68	16.23
672.867	16.1
673.054	15.67
673.24	16.37
673.427	16.32
673.614	16.33
673.801	16.32
673.988	16.06
674.174	15.8
674.361	15.68
674.548	15.94
674.734	16.41
674.921	16.25
675.108	16.52
675.294	16.02
675.481	15.53
675.668	15.36
675.854	15.51
676.041	15.64
676.227	15.99
676.414	16.41
676.601	16.76
676.787	16.72
676.974	16.64
677.16	16.36
677.347	16.62
677.533	16.6
677.719	17.25
677.906	17.05
678.092	17.26
678.279	16.92
678.465	16.7
678.651	16.26
678.838	15.93
679.024	16.11
679.21	16.68
679.397	16.76
679.583	17.21
679.769	17.14
679.955	17.49
680.142	17.37
680.328	17.38
680.514	17.58
680.7	17.61
680.886	17.69
681.073	17.62
681.259	17.47
681.445	17.49
681.631	17.46
681.817	17.61
682.003	17.39
682.189	17.68
682.375	17.54
682.561	17.44
682.747	17.65
682.933	17.93
683.119	17.59
683.305	17.5
683.491	17.67
683.677	17.22
683.863	16.69
684.049	16.84
684.235	16.64
684.42	17.08
684.606	17.35
684.792	17.09
684.978	16.99
685.164	17.55
685.349	17.59
685.535	16.77
685.721	17.1
685.907	17.42
686.092	17.3
686.278	17.89
686.464	17.67
686.649	17.48
686.835	17.73
687.021	17.78
687.206	17.34
687.392	16.91
687.577	17.19
687.763	16.74
687.948	16.97
688.134	16.66
688.319	15.98
688.505	15.89
688.69	15.18
688.876	15.41
689.061	14.98
689.247	15.43
689.432	15.72
689.618	15.74
689.803	16.12
689.988	15.71
690.174	15.96
690.359	16.46
690.544	16.37
690.73	17.11
690.915	16.84
691.1	16.94
691.285	16.8
691.471	16.95
691.656	16.75
691.841	16.7
692.026	16.78
692.211	16.92
692.396	16.17
692.582	16.1
692.767	15.76
692.952	15.34
693.137	15.77
693.322	15.48
693.507	15.62
693.692	16.2
693.877	16.17
694.062	15.93
694.247	15.66
694.432	15.96
694.617	16.3
694.802	16.4
694.987	16.69
695.172	16.77
695.357	17.05
695.541	17.57
695.726	17.37
695.911	17.22
696.096	16.71
696.281	16.73
696.466	17.09
696.65	17.02
696.835	17.22
697.02	17.74
697.204	17.22
697.389	17.34
697.574	16.74
697.759	16.9
697.943	17.54
698.128	18
698.312	18.11
698.497	17.9
698.682	17.9
698.866	18.12
699.051	17.79
699.235	18.04
699.42	17.81
699.604	18.05
699.789	17.87
699.973	17.41
700.158	17.29
700.342	17.19
700.527	17.27
700.711	17.06
700.895	16.34
701.08	16.65
701.264	16.45
701.448	17.01
701.633	17.04
701.817	17.21
702.001	17.2
702.186	16.93
702.37	17.29
702.554	16.92
702.738	17.71
702.923	18.24
703.107	17.71
703.291	17.71
703.475	16.97
703.659	16.52
703.843	16.66
704.027	16.3
704.212	16.66
704.396	15.51
704.58	16.12
704.764	15.61
704.948	15.45
705.132	15.9
705.316	16.37
705.5	17.05
705.684	17.11
705.868	17.44
706.052	18.25
706.235	18.81
706.419	19.58
706.603	19.14
706.787	19.36
706.971	20.01
707.155	20.07
707.339	19.52
707.522	18.78
707.706	18.55
707.89	18.62
708.074	18.2
708.257	17.66
708.441	18.01
708.625	17.95
708.808	18.09
708.992	17.76
709.176	18
709.359	18
709.543	18.59
709.727	19.21
709.91	18.21
710.094	17.99
710.277	18.39
710.461	18.85
710.644	18.09
710.828	17.14
711.011	17.58
711.195	17.44
711.378	18.2
711.562	18.39
711.745	18.33
711.928	18.29
712.112	18.73
712.295	18.29
712.478	17.36
712.662	18.47
712.845	19.37
713.028	18.69
713.212	18.42
713.395	17.83
713.578	17.49
713.761	17
713.945	18.17
714.128	17.97
714.311	18.18
714.494	17.65
714.677	17.69
714.86	17.77
715.043	18.31
715.227	18.16
715.41	17.8
715.593	17.78
715.776	18.39
715.959	17.51
716.142	17.6
716.325	17.38
716.508	18.05
716.691	18.03
716.874	17.76
717.057	17.62
717.239	17.79
717.422	18.42
717.605	18.64
717.788	18.3
717.971	18.47
718.154	18.91
718.337	19.76
718.519	19.56
718.702	19.81
718.885	20.07
719.068	20.2
719.25	19.63
719.433	19.16
719.616	18.52
719.798	19.36
719.981	19.79
720.164	19.88
720.346	19.01
720.529	18.99
720.712	17.67
720.894	17.73
721.077	16.87
721.259	18.32
721.442	18.63
721.624	19.68
721.807	18.51
721.989	18.66
722.172	18.6
722.354	18.61
722.537	19.22
722.719	19.28
722.901	19.67
723.084	20.44
723.266	20.32
723.448	19.55
723.631	18.79
723.813	19.16
723.995	18.91
724.178	18.83
724.36	19.36
724.542	19.12
724.724	19.6
724.907	18.5
725.089	18.64
725.271	16.94
725.453	17.68
725.635	17.3
725.817	16.5
725.999	16.72
726.181	16.32
726.364	16.5
726.546	16.57
726.728	17.31
726.91	17.61
727.092	17.17
727.274	18.93
727.456	18.88
727.638	19.19
727.819	19.79
728.001	19.25
728.183	19.33
728.365	18.93
728.547	18.85
728.729	17.71
728.911	18.21
729.093	17.96
729.274	17.11
729.456	16.28
729.638	16.62
729.82	16.46
730.001	17.45
730.183	17.46
730.365	16.82
730.546	16.32
730.728	17.78
730.91	17.71
731.091	17.88
731.273	17.12
731.455	18.56
731.636	18.38
731.818	18.46
731.999	17.66
732.181	17.92
732.362	18.9
732.544	19.24
732.725	18.33
732.907	18.75
733.088	19.01
733.27	20.21
733.451	19.44
733.633	20.56
733.814	20.31
733.995	20.61
734.177	21.86
734.358	21.66
734.539	22.14
734.721	22.56
734.902	21.86
735.083	21.52
735.264	20.41
735.446	20.62
735.627	19.29
735.808	19.47
735.989	19.35
736.17	17.75
736.351	18.2
736.533	17.81
736.714	18.11
736.895	17.18
737.076	16.28
737.257	17.52
737.438	16.61
737.619	17.77
737.8	18.11
737.981	17.24
738.162	16.92
738.343	17.23
738.524	17.27
738.705	16.58
738.886	17.61
739.067	18.36
739.247	18.03
739.428	19
739.609	17.55
739.79	17.64
739.971	18.3
740.151	17.57
740.332	16.15
740.513	15.59
740.694	15.98
740.874	16.79
741.055	16.76
741.236	14.99
741.417	15.19
741.597	15.11
741.778	15.82
741.958	16.36
742.139	16.66
742.32	17.78
742.5	18.71
742.681	18.84
742.861	18.67
743.042	19.31
743.222	20.62
743.403	20.62
743.583	21.41
743.764	19.51
743.944	19.8
744.124	20.31
744.305	20.44
744.485	20.21
744.666	19.53
744.846	18.53
745.026	17.78
745.207	17.91
745.387	17.8
745.567	17.64
745.747	18.5
745.928	17.66
746.108	17.07
746.288	15.63
746.468	16.81
746.648	18.02
746.829	18.8
747.009	19.83
747.189	20.53
747.369	20.54
747.549	21.18
747.729	21.93
747.909	21.85
748.089	21.71
748.269	23.32
748.449	23.02
748.629	22.59
748.809	21.82
748.989	20.91
749.169	19.66
749.349	20.3
749.529	18.71
749.709	17.72
749.889	18.18
750.068	18.65
750.248	17.69
750.428	17.17
750.608	16.75
750.788	16.57
750.967	16.28
751.147	16.64
751.327	16.76
751.507	16.45
751.686	17.47
751.866	16.87
752.046	17.22
752.225	17.25
752.405	17.48
752.585	16.57
752.764	16.9
752.944	17.59
753.123	18.51
753.303	18.06
753.482	19.03
753.662	18.57
753.841	17.46
754.021	17.79
754.2	15.79
754.38	15.22
754.559	17.77
754.739	18.44
754.918	18.46
755.097	18.18
755.277	17.93
755.456	18.35
755.635	18.56
755.815	19.08
755.994	19.83
756.173	20.89
756.352	21.22
756.532	19.62
756.711	17.75
756.89	17.25
757.069	17.13
757.248	16.57
757.427	16.18
757.607	16.41
757.786	17.31
757.965	16.36
758.144	16.64
758.323	15.68
758.502	15.73
758.681	16.73
758.86	17.86
759.039	18.37
759.218	18.31
759.397	18.05
759.576	17.63
759.755	17.49
759.934	17.12
760.113	18.5
760.291	19.41
760.47	20.09
760.649	20.31
760.828	20
761.007	19.23
761.186	19.52
761.364	19.87
761.543	19.74
761.722	19.74
761.901	19.86
762.079	17.53
762.258	16.49
762.437	15.78
762.615	15.76
762.794	15.06
762.972	15.4
763.151	15.47
763.33	15.97
763.508	16.09
763.687	16.57
763.865	16.62
764.044	17.77
764.222	18.36
764.401	18.44
764.579	17.85
764.758	18.25
764.936	18.72
765.114	19.2
765.293	18.81
765.471	19.26
765.65	19.55
765.828	19.25
766.006	19.26
766.184	20.33
766.363	20.51
766.541	21.05
766.719	21.5
766.898	21.57
767.076	20.25
767.254	20.96
767.432	20.54
767.61	19.44
767.788	20.11
767.967	20.18
768.145	19.7
768.323	19.66
768.501	20.17
768.679	19.18
768.857	18.46
769.035	19.53
769.213	17.59
769.391	17.94
769.569	17.74
769.747	18.11
769.925	20.53
770.103	19.92
770.281	22.22
770.459	21.76
770.636	21.87
770.814	21.18
770.992	22.12
771.17	24.26
771.348	24.72
771.525	24.98
771.703	22.65
771.881	19.71
772.059	20.02
772.236	17.79
772.414	17.98
772.592	19.06
772.769	20.33
772.947	20.6
773.125	20.31
773.302	19.12
773.48	19.42
773.657	22.69
773.835	23.42
774.013	23.82
774.19	25.25
774.368	25.65
774.545	24.57
774.723	22.54
774.9	21.54
775.077	23.66
775.255	22.84
775.432	22.61
775.61	21.67
775.787	22.67
775.964	22.44
776.142	20.17
776.319	19.7
776.496	20.95
776.674	22.04
776.851	21.5
777.028	20.49
777.205	19.95
777.382	20.15
777.56	20.9
777.737	19.72
777.914	18.31
778.091	19.7
778.268	20.26
778.445	20.35
778.622	22.28
778.8	24.38
778.977	22.94
779.154	24.79
779.331	23.79
779.508	23.82
779.685	23.13
779.862	24.06
780.038	23.57
780.215	23.3
780.392	22.38
780.569	18.25
780.746	16.16
780.923	16.4
781.1	15.95
781.277	17.24
781.453	17.24
781.63	18.36
781.807	16.26
781.984	16.34
782.16	14.96
782.337	14.89
782.514	18.15
782.691	16.95
782.867	18.22
783.044	16.75
783.221	15.91
783.397	15.72
783.574	16.32
783.75	17.58
783.927	16.93
784.103	18.18
784.28	16.28
784.456	16.2
784.633	17.68
784.809	17.02
784.986	16.78
785.162	15.55
785.339	16.05
785.515	17.53
785.692	20.03
785.868	21.72
786.044	22.62
786.221	24.22
786.397	24.67
786.573	23.89
786.749	24.1
786.926	28.07
787.102	30.99
787.278	29.19
787.454	24.63
787.631	23.99
787.807	20.73
787.983	18.51
788.159	19.17
788.335	18.31
788.511	19.42
788.687	19.43
788.863	16.68
789.039	16.46
789.216	16.25
789.392	18.76
789.568	18.76
789.744	22.31
789.919	25.16
790.095	23.53
790.271	23.39
790.447	26.05
790.623	25.5
790.799	26.05
790.975	25.68
791.151	25.34
791.327	24.97
791.502	21.71
791.678	20.26
791.854	20.73
792.03	24.51
792.205	26.04
792.381	22.72
792.557	21.84
792.733	23.91
792.908	21.93
793.084	24.29
793.259	25.28
793.435	28.64
793.611	27.82
793.786	25.61
793.962	23.02
794.137	21.37
794.313	22.12
794.488	20.15
794.664	19.06
794.839	19.54
795.015	19.43
795.19	18.92
795.366	17.8
795.541	20.74
795.716	19.65
795.892	23.24
796.067	24.73
796.242	25.87
796.418	30.08
796.593	30.44
796.768	31.53
796.944	32.81
797.119	33.52
797.294	32.92
797.469	31.68
797.644	30.89
797.82	27.64
797.995	28.56
798.17	27.39
798.345	25.7
798.52	24.13
798.695	24.81
798.87	22.48
799.045	18.42
799.22	21.01
799.395	17.8
799.57	22.03
799.745	22.93
799.92	21.88
800.095	23.11
800.27	23.19
800.445	24.63
800.62	23.23
800.795	22.43
800.97	25.55
801.145	26.03
801.319	30.83
801.494	28.04
801.669	28.91
801.844	27.61
802.018	25.63
802.193	25.08
802.368	23.87
802.543	26.07
802.717	27.89
802.892	25.6
803.067	26
803.241	23.79
803.416	25.13
803.59	22.71
803.765	20.77
803.94	20.18
804.114	22.01
804.289	25.5
804.463	24.69
804.638	25.88
804.812	25.79
804.986	25.64
805.161	24.66
805.335	22.99
805.51	24.02
805.684	24.74
805.858	25.3
806.033	24.1
806.207	22.61
806.381	21.26
806.556	19.25
806.73	20.98
806.904	20.54
807.078	19.59
807.253	21.68
807.427	18.59
807.601	18.02
807.775	21.26
807.949	21.78
808.123	20.75
808.298	20.84
808.472	18.41
808.646	18.29
808.82	18.17
808.994	19.48
809.168	18.61
809.342	23.58
809.516	22.73
809.69	19.24
809.864	17.18
810.038	11.34
810.212	11.65
810.385	13.93
810.559	13.53
810.733	10.77
810.907	9.99
811.081	6.82
811.255	0.53
811.428	8.21
811.602	5.98
811.776	9.31
811.95	17.11
812.123	15.19
812.297	14.21
812.471	12.61
812.644	17.96
812.818	19.35
812.992	20.39
813.165	20.43
813.339	12.57
813.512	10.65
813.686	5.94
813.86	-1.09
814.033	1.67
814.207	1.36
814.38	4.42
814.554	4.27
814.727	11.05
814.9	10.1
815.074	17.41
815.247	18.43
815.421	25.35
815.594	25.95
815.767	30.51
815.941	28.58
816.114	30.74
816.287	31.65
816.46	31.57
816.634	25.13
816.807	26.09
816.98	25.15
817.153	27.39
817.327	26.7
817.5	25.86
817.673	22.37
817.846	22.96
818.019	20.49
818.192	13.16
818.365	11.52
818.538	17.59
818.711	15.63
818.884	11.73
819.057	15.01
819.23	16.63
819.403	17.38
819.576	19.84
819.749	18.68
819.922	19.72
820.095	23.79
820.268	22.68
820.441	18.75
820.614	19.83
820.786	20.36
820.959	19.86
821.132	18.91
821.305	19.64
821.477	18.31
821.65	19.47
821.823	19.3
821.996	19.86
822.168	20.12
822.341	20.24
822.514	20.56
822.686	21.1
822.859	20.9
823.031	21.48
823.204	21.2
823.376	22.47
823.549	22.46
823.722	22.82
823.894	22.88
824.067	22.9
824.239	23.41
824.411	23.17
824.584	22.36
824.756	22
824.929	22.08
825.101	23.74
825.273	22.51
825.446	22.73
825.618	22.38
825.79	23.59
825.963	23.78
826.135	22.38
826.307	22.22
826.479	23.56
826.652	22.89
826.824	22.16
826.996	19.91
827.168	21.12
827.34	21.07
827.512	21.28
827.684	19.17
827.856	18.67
828.029	19.05
828.201	19.83
828.373	19.96
828.545	21.26
828.717	20.93
828.889	21.23
829.061	21.91
829.232	20.59
829.404	20.52
829.576	22.19
829.748	22.23
829.92	24.05
830.092	23.15
830.264	22.02
830.436	20.47
830.607	22.29
830.779	22.36
830.951	19.21
831.123	18.54
831.294	20.98
831.466	23.26
831.638	24.36
831.809	23.41
831.981	20.46
832.153	22.24
832.324	21.09
832.496	16.03
832.667	17.66
832.839	17.46
833.011	17.05
833.182	17.15
833.354	15.16
833.525	15.36
833.697	13.4
833.868	15.98
834.039	16.33
834.211	19.2
834.382	20.54
834.554	22.89
834.725	22.3
834.896	25.12
835.068	21.94
835.239	19.57
835.41	20.41
835.581	22.92
835.753	23.49
835.924	24.73
836.095	25.22
836.266	27.42
836.438	24.73
836.609	26.14
836.78	26.27
836.951	28.26
837.122	27.89
837.293	29.46
837.464	30.44
837.635	31.88
837.806	30.85
837.977	28.25
838.148	29.21
838.319	27.8
838.49	28.49
838.661	28.05
838.832	28.57
839.003	30.71
839.174	25.18
839.345	22.08
839.516	20.25
839.687	15.83
839.857	16.88
840.028	17.98
840.199	19.78
840.37	23.69
840.54	22.04
840.711	22.58
840.882	27.49
841.053	30.27
841.223	30.94
841.394	33.29
841.564	33.54
841.735	33.56
841.906	25.98
842.076	26.76
842.247	23.41
842.417	25.1
842.588	30.91
842.758	30.97
842.929	34.98
843.099	32.5
843.27	31
843.44	33.04
843.611	39.44
843.781	36.69
843.951	35.55
844.122	28.22
844.292	27.55
844.462	24.61
844.633	19.36
844.803	14.17
844.973	21.39
845.144	17.51
845.314	18.41
845.484	20.51
845.654	29.99
845.824	43.11
845.995	48.1
846.165	47.71
846.335	43.51
846.505	43.22
846.675	32.9
846.845	16.57
847.015	24.7
847.185	30.76
847.355	25.15
847.525	29.31
847.695	-1.65
847.865	-0.09
848.035	7.49
848.205	23.25
848.375	38.07
848.545	37
848.715	42.19
848.884	20.32
849.054	3.87
849.224	21.61
849.394	21.81
849.564	19.06
849.733	13.5
849.903	26.49
850.073	25.85
850.243	23.45
850.412	31.42
850.582	30.26
850.752	48.12
850.921	45.95
851.091	33.28
851.26	35.85
851.43	49.88
851.599	64.39
851.769	55.59
851.939	55.27
852.108	32.55
852.278	30.69
852.447	37.81
852.616	23.34
852.786	39.55
852.955	47.49
853.125	37.01
853.294	18.88
853.463	22.46
853.633	21.78
853.802	11.16
853.971	17.2
854.141	16.29
854.31	17.89
854.479	8.02
854.648	4.95
854.818	9.62
854.987	14.62
855.156	19.9
855.325	16.55
855.494	18.51
855.663	27.22
855.832	26.81
856.001	39.09
856.171	43.43
856.34	64.36
856.509	68.81
856.678	59.73
856.847	66.75
857.016	66.36
857.185	54.27
857.353	58.16
857.522	62.43
857.691	77.8
857.86	72.65
858.029	68.79
858.198	54.12
858.367	38.03
858.535	40.83
858.704	26.98
858.873	24.75
859.042	44.18
859.21	23.44
859.379	16.93
859.548	11.4
859.717	2.59
859.885	12.48
860.054	14.57
860.222	18.97
860.391	27.47
860.56	36.62
860.728	32.23
860.897	24.54
861.065	30
861.234	41.48
861.402	36.9
861.571	37.82
861.739	48.12
861.908	38.3
862.076	53.01
862.244	30.61
862.413	33.2
862.581	41.41
862.749	53.73
862.918	46.78
863.086	31.82
863.254	45.61
863.423	52.42
863.591	42.88
863.759	38.18
863.927	38.25
864.096	52.48
864.264	57.92
864.432	53.86
864.6	49.11
864.768	63.01
864.936	63.93
865.104	58.27
865.272	52.08
865.44	70.39
865.608	70.21
865.776	67.4
865.944	45.78
866.112	49.27
866.28	46.07
866.448	63.01
866.616	51.87
866.784	69.44
866.952	59.27
867.12	49.42
867.288	51.08
867.455	58.1
867.623	54.32
867.791	59.71
867.959	62.05
868.127	57.41
868.294	35.29
868.462	20.19
868.63	14.91
868.797	21.64
868.965	30.99
869.133	28.59
869.3	20.73
869.468	19.13
869.636	22.28
869.803	11.04
869.971	8.54
870.138	22.53
870.306	34.5
870.473	22.91
870.641	12.06
870.808	14.19
870.975	10.27
871.143	14.04
871.31	2.95
871.478	-0.66
871.645	9.85
871.812	18.44
871.98	-4.09
872.147	-12.92
872.314	-7.64
872.482	-3.46
872.649	-41.72
872.816	-48.76
872.983	-37.67
873.15	2.48
873.318	12.79
873.485	-24.2
873.652	9.96
873.819	14.66
873.986	30.87
874.153	32.83
874.32	29.43
874.487	36.24
874.654	16.93
874.821	50.07
874.988	16.62
875.155	-0.32
875.322	14.5
875.489	-28.05
875.656	-59.08
875.823	-76.28
875.99	-62.99
876.157	-52.74
876.324	-32.74
876.49	1.46
876.657	-24.26
876.824	0.74
876.991	6.34
877.157	16.81
877.324	13.67
877.491	34.62
877.658	31.04
877.824	29.45
877.991	44.28
878.157	41.37
878.324	15.13
878.491	34.64
878.657	36.07
878.824	42.28
878.99	-4.41
879.157	57.72
879.323	47.71
879.49	77.56
879.656	63.57
879.823	24.19
879.989	26.28
880.156	48.06
880.322	32.39
880.488	26.96
880.655	27.84
880.821	42.53
880.987	24.5
881.154	21.34
881.32	18.4
881.486	21.34
881.652	27.2
881.819	24.21
881.985	14.72
882.151	16.95
882.317	15.16
882.483	18.58
882.649	19.32
882.816	21.64
882.982	23.08
883.148	23.56
883.314	20.91
883.48	19.01
883.646	20.56
883.812	23.53
883.978	21.09
884.144	21.94
884.31	21.73
884.476	20.86
884.642	14.67
884.807	16.07
884.973	15.01
885.139	20.67
885.305	24.88
885.471	23.35
885.637	22.78
885.802	29.51
885.968	29.3
886.134	29.32
886.3	30.37
886.465	37.1
886.631	32.78
886.797	31.06
886.962	31.61
887.128	28.51
887.293	22.72
887.459	30.6
887.625	33.7
887.79	37.63
887.956	40.1
888.121	40.93
888.287	43.93
888.452	43.59
888.618	47.94
888.783	48.15
