Data from 2938060_Reflection_1.txt Node
Date: Sun Jul 12 13:51:16 EDT 2015
User: robert
Spectrometer: USB4E03001
Autoset integration time: false
Trigger mode: 4
Integration Time (sec): 1.000000E-1
Scans to average: 10
Electric dark correction enabled: true
Nonlinearity correction enabled: false
Boxcar width: 5
Stray light correction enabled: false
XAxis mode: Wavelengths
Stop averaging: false
Number of Pixels in Spectrum: 3648
>>>>>Begin Spectral Data<<<<<
177.566	-33.33
177.785	8.19
178.005	-99.81
178.225	-8.91
178.445	-10.48
178.665	0.38
178.885	-416.53
179.105	24.47
179.324	20.34
179.544	49.21
179.764	869.44
179.984	253.23
180.204	185.17
180.423	141.33
180.643	75.26
180.863	199.72
181.083	-1354.66
181.302	-174.42
181.522	-127.44
181.742	-176.72
181.961	-45.09
182.181	-83.25
182.401	-96.07
182.621	-226.52
182.84	-205.95
183.06	-133.1
183.279	-117.68
183.499	-171.96
183.719	-83.63
183.938	-54.35
184.158	-35.61
184.377	-84.15
184.597	-72.15
184.816	-40.66
185.036	39.04
185.256	41.14
185.475	33.13
185.695	45.19
185.914	51.99
186.134	6.51
186.353	18.66
186.572	-6.03
186.792	3
187.011	-10.79
187.231	-13.25
187.45	-63.27
187.67	-54.87
187.889	-25.33
188.108	-61.87
188.328	-26.99
188.547	-40.36
188.766	-83.03
188.986	-107.37
189.205	-109.57
189.424	-64.48
189.644	-91.71
189.863	-61.9
190.082	-54.93
190.302	-101.48
190.521	-76.61
190.74	-90.83
190.959	-183.32
191.178	-132.78
191.398	-53.91
191.617	-48.55
191.836	-99.69
192.055	4588.89
192.274	342.98
192.494	107.19
192.713	3.72
192.932	67.11
193.151	33.15
193.37	59.79
193.589	-398.19
193.808	567.37
194.027	754.28
194.246	826.08
194.465	-4200.92
194.685	-373.77
194.904	-236.42
195.123	-148.94
195.342	-155.39
195.561	-150.43
195.78	-126.99
195.999	-206.41
196.218	-91.14
196.436	-27.34
196.655	-30.37
196.874	18.59
197.093	-52.88
197.312	-283.6
197.531	-218.46
197.75	-224.22
197.969	1523.1
198.188	-332.11
198.407	-111.92
198.625	-42.72
198.844	-55.67
199.063	-99.38
199.282	-147.31
199.501	-181.9
199.719	-37.41
199.938	-92.06
200.157	-157.02
200.376	-130.72
200.594	-301.08
200.813	-180.68
201.032	-216.25
201.251	-387.52
201.469	-304.97
201.688	-262.04
201.907	-203.49
202.125	-365.3
202.344	-347.58
202.563	-116.39
202.781	-210.36
203	-177.78
203.218	-561.4
203.437	-4002.73
203.656	-379.8
203.874	-186.72
204.093	-206.5
204.311	-315.79
204.53	-219.85
204.748	-257.2
204.967	-846.44
205.185	-308.73
205.404	-311.1
205.622	-185.39
205.841	-194.26
206.059	-440.18
206.278	-882.13
206.496	-6221.08
206.715	1633.69
206.933	2032.68
207.151	-803.46
207.37	-678.72
207.588	-931.49
207.806	-346.82
208.025	-311.86
208.243	-705.67
208.461	-172.53
208.68	769.54
208.898	-67.16
209.116	29.88
209.335	67.21
209.553	-2436.36
209.771	-325.97
209.989	-6.89
210.208	3.52
210.426	1.44
210.644	37.17
210.862	-6.47
211.081	32.11
211.299	6.28
211.517	-41.95
211.735	-51.16
211.953	-24.54
212.171	-43.64
212.39	-82.42
212.608	-162.68
212.826	-696.01
213.044	-199.95
213.262	-90.81
213.48	-115.55
213.698	-148.69
213.916	-144.02
214.134	-33.49
214.352	-42.14
214.57	9.28
214.788	-13.16
215.006	54.19
215.224	124.84
215.442	131.39
215.66	92.57
215.878	34.07
216.096	26.6
216.314	-245.04
216.532	-45.6
216.75	-87.5
216.968	-1287.96
217.185	-87.57
217.403	-1341.19
217.621	-221.42
217.839	-172.16
218.057	-186.03
218.275	-261.38
218.492	-274.26
218.71	-259.35
218.928	-696.55
219.146	-627.34
219.363	-334.98
219.581	-260.25
219.799	-157.25
220.017	-247.84
220.234	-193.36
220.452	-283.38
220.67	-219.89
220.887	-239.35
221.105	-266.43
221.323	-116.6
221.54	-113.81
221.758	-62.94
221.976	-100.84
222.193	-152.8
222.411	-117.18
222.629	-92.04
222.846	-81.6
223.064	-171.11
223.281	-161.51
223.499	-145.25
223.716	-202.22
223.934	-149.14
224.151	-213.78
224.369	-153.51
224.586	-115.8
224.804	-96.71
225.021	-133.28
225.239	-104.62
225.456	-65.35
225.674	-70.81
225.891	-61.12
226.108	-52.74
226.326	-51.71
226.543	-60.81
226.76	-48.85
226.978	-48.25
227.195	-44.48
227.413	-37
227.63	-32.11
227.847	-28.82
228.064	-24.62
228.282	-23.22
228.499	-16.4
228.716	-14.87
228.934	-9.1
229.151	-8.23
229.368	-4.41
229.585	-3.85
229.802	0.69
230.02	-1.05
230.237	1.1
230.454	2.08
230.671	-1.04
230.888	-3.57
231.105	-6.6
231.323	-8.57
231.54	-9.64
231.757	-16.09
231.974	-16.68
232.191	-25.47
232.408	-27.42
232.625	-35.75
232.842	-37.88
233.059	-36.54
233.276	-40.61
233.493	-31.83
233.71	-36.28
233.927	-30.99
234.144	-31.26
234.361	-32.39
234.578	-27.57
234.795	-18.03
235.012	-12.54
235.229	-6.76
235.446	-3.78
235.663	-3.15
235.879	-7.29
236.096	-7.1
236.313	-5.92
236.53	-3.52
236.747	-4.48
236.964	-14.27
237.181	-10.09
237.397	-5.81
237.614	-6.81
237.831	-8.13
238.048	-6.95
238.264	-6.83
238.481	-4.05
238.698	-7.42
238.915	-5.19
239.131	-7.53
239.348	2.5
239.565	-0.45
239.781	2.67
239.998	-0.56
240.215	-0.24
240.431	-1.64
240.648	0.56
240.865	4.18
241.081	3.5
241.298	3
241.514	5.16
241.731	3.99
241.947	4.12
242.164	2.19
242.38	4.23
242.597	5.75
242.814	8.05
243.03	6.18
243.246	4.62
243.463	2.91
243.679	3.39
243.896	2.02
244.112	4.93
244.329	5.44
244.545	5.32
244.762	3.22
244.978	1.3
245.194	0.36
245.411	4.58
245.627	4.45
245.843	6.9
246.06	5.81
246.276	6.9
246.492	6.63
246.709	6.68
246.925	7.3
247.141	7.38
247.357	7.97
247.574	7.86
247.79	7.33
248.006	7.62
248.222	8.42
248.439	8.63
248.655	9.31
248.871	7.9
249.087	7.12
249.303	6.99
249.519	8.13
249.736	8.12
249.952	9.29
250.168	9.6
250.384	9.06
250.6	7.3
250.816	6.71
251.032	3.36
251.248	4.65
251.464	6.51
251.68	7.81
251.896	5.83
252.112	6.15
252.328	3.07
252.544	2.53
252.76	1.19
252.976	0.09
253.192	0.69
253.408	2.32
253.624	2.18
253.84	-0.75
254.056	-2.05
254.272	0.2
254.487	-0.37
254.703	3.45
254.919	2.33
255.135	4.02
255.351	3.89
255.567	3.34
255.782	2.27
255.998	1.69
256.214	0.55
256.43	1.11
256.646	0.66
256.861	-0.63
257.077	-2.49
257.293	-0.81
257.508	0.21
257.724	0.53
257.94	2.34
258.155	3.18
258.371	4.23
258.587	7.41
258.802	6.94
259.018	7.2
259.234	7.7
259.449	7.49
259.665	8.16
259.88	8.01
260.096	7.98
260.312	7.6
260.527	7.44
260.743	6.5
260.958	5.34
261.174	4.94
261.389	3.99
261.605	3.36
261.82	4.06
262.036	2.5
262.251	1.73
262.466	1.44
262.682	1.26
262.897	1.2
263.113	2.52
263.328	3.65
263.543	3.82
263.759	3.3
263.974	2.2
264.189	0.18
264.405	0.07
264.62	-0.69
264.835	0.2
265.051	1.54
265.266	0.14
265.481	-1.35
265.696	0.63
265.912	0.51
266.127	1.75
266.342	1.83
266.557	1.82
266.773	3.18
266.988	2.21
267.203	1.41
267.418	-0.93
267.633	0.08
267.848	2.17
268.064	0.79
268.279	1.36
268.494	1.2
268.709	2.49
268.924	3.95
269.139	3.04
269.354	4.66
269.569	5.4
269.784	5.69
269.999	5.43
270.214	3.93
270.429	4.59
270.644	3.78
270.859	4.13
271.074	3.57
271.289	3.55
271.504	5.14
271.719	5.98
271.934	6.53
272.149	6.15
272.363	5.32
272.578	5.5
272.793	3.79
273.008	5.26
273.223	5.85
273.438	5.25
273.653	3.75
273.867	2.96
274.082	1.82
274.297	1.43
274.512	2.56
274.726	3.77
274.941	4.14
275.156	5.29
275.371	2.63
275.585	2.23
275.8	2.46
276.015	4.52
276.229	4.16
276.444	4.27
276.659	2.81
276.873	3.03
277.088	1.44
277.302	-0.1
277.517	0.23
277.732	0.74
277.946	0.65
278.161	-0.39
278.375	-1.94
278.59	-3.72
278.804	-2.79
279.019	-2.07
279.233	-3.12
279.448	-2.53
279.662	-0.69
279.877	-0.7
280.091	0.84
280.306	1.97
280.52	3.67
280.735	5.69
280.949	7.12
281.163	6.69
281.378	7.78
281.592	8.75
281.806	9.42
282.021	8.66
282.235	8.3
282.449	8.25
282.664	6.95
282.878	7.03
283.092	5.8
283.307	5.31
283.521	4.28
283.735	4.38
283.949	3.49
284.164	3.43
284.378	3.1
284.592	4.05
284.806	4.76
285.02	5.19
285.234	4.34
285.449	4.39
285.663	4.79
285.877	4.81
286.091	3.59
286.305	3.65
286.519	4.66
286.733	4.68
286.947	4.2
287.161	2.57
287.375	2.79
287.589	3.38
287.803	2.63
288.017	2.21
288.231	2.33
288.445	2.37
288.659	2.72
288.873	0.65
289.087	1.14
289.301	0.58
289.515	0.74
289.729	0.61
289.943	0.38
290.157	0.96
290.371	1.95
290.584	2.78
290.798	2.66
291.012	2.15
291.226	3.57
291.44	4.19
291.654	4.25
291.867	3.52
292.081	3.64
292.295	3.08
292.509	3.13
292.722	2.37
292.936	3.1
293.15	3.32
293.364	3.14
293.577	2.28
293.791	2.26
294.005	2.86
294.218	5.11
294.432	5.31
294.645	5.83
294.859	6.12
295.073	6.29
295.286	4.45
295.5	5.5
295.713	6.01
295.927	6.28
296.14	6.28
296.354	4.93
296.568	5.34
296.781	5.51
296.994	5.03
297.208	5.91
297.421	5.74
297.635	5.89
297.848	6.32
298.062	6.72
298.275	6.54
298.489	5.96
298.702	7.29
298.915	6.89
299.129	6.77
299.342	7.25
299.555	5.98
299.769	4.95
299.982	6.33
300.195	5.54
300.409	5.4
300.622	5.51
300.835	6.16
301.048	6.59
301.262	6.26
301.475	6.99
301.688	7.35
301.901	6.82
302.115	7.44
302.328	7.29
302.541	6.36
302.754	6.34
302.967	6.74
303.18	6.84
303.393	5.7
303.607	5.12
303.82	2.59
304.033	2.59
304.246	2.35
304.459	2.69
304.672	1.59
304.885	2.58
305.098	3.12
305.311	1.75
305.524	3.58
305.737	3.57
305.95	3.88
306.163	6.77
306.376	7.56
306.589	9.42
306.802	8.51
307.015	8.93
307.228	8.45
307.44	6.14
307.653	6.68
307.866	3.62
308.079	3.96
308.292	3.33
308.505	1.99
308.718	2.48
308.93	1.8
309.143	2.11
309.356	3.09
309.569	3.58
309.781	5.63
309.994	6.28
310.207	6.59
310.42	7.3
310.632	7.81
310.845	7.09
311.058	6.55
311.27	6.69
311.483	7.56
311.696	6.28
311.908	5.83
312.121	4.84
312.333	4.18
312.546	4.04
312.759	2.65
312.971	1.62
313.184	2.34
313.396	1.34
313.609	1.76
313.821	2.8
314.034	3.28
314.246	3.03
314.459	4.42
314.671	4.93
314.884	4.23
315.096	5.59
315.309	6.51
315.521	6.37
315.733	7.15
315.946	5.84
316.158	3.13
316.371	3.22
316.583	3.23
316.795	1.6
317.008	1.12
317.22	2.51
317.432	2.1
317.644	2.45
317.857	2.18
318.069	3.37
318.281	3.03
318.494	4.88
318.706	4.04
318.918	4.95
319.13	5.86
319.342	8.54
319.555	7.28
319.767	7.5
319.979	6.73
320.191	7.39
320.403	6.19
320.615	6.77
320.827	6.64
321.039	6.91
321.252	5.46
321.464	5.06
321.676	2.26
321.888	2.52
322.1	1.92
322.312	2.68
322.524	2
322.736	2.3
322.948	2.21
323.16	1.79
323.372	2.5
323.584	5.1
323.796	5.16
324.007	5.94
324.219	6.6
324.431	6.44
324.643	5.67
324.855	5.5
325.067	5.86
325.279	6.44
325.491	6.33
325.702	7.17
325.914	5.36
326.126	4.51
326.338	4.29
326.55	3.94
326.761	3.64
326.973	4.15
327.185	4.47
327.396	3.78
327.608	4.63
327.82	5.3
328.032	3.24
328.243	2.34
328.455	2.8
328.666	0.94
328.878	1.69
329.09	2.68
329.301	3.16
329.513	4.2
329.725	4.1
329.936	3.1
330.148	2.64
330.359	3.06
330.571	4.46
330.782	4.59
330.994	6.46
331.205	7.6
331.417	7.26
331.628	6.25
331.84	4.57
332.051	3.74
332.262	4.2
332.474	3.86
332.685	6.66
332.897	7.37
333.108	5.74
333.319	4.42
333.531	3.95
333.742	4.66
333.953	5.61
334.165	6.45
334.376	8.2
334.587	7.88
334.799	8.78
335.01	6.76
335.221	5.09
335.432	6.58
335.644	7.52
335.855	7.9
336.066	7.4
336.277	7.78
336.488	8.09
336.7	7.71
336.911	7.53
337.122	7.37
337.333	7.78
337.544	10.07
337.755	10.95
337.966	10.98
338.177	10.22
338.388	10.21
338.599	9.73
338.811	9.22
339.022	9.01
339.233	9.87
339.444	10.25
339.655	10.48
339.866	9.59
340.076	9.05
340.287	10.02
340.498	9.07
340.709	8.47
340.92	8.74
341.131	8.65
341.342	9.88
341.553	8.91
341.764	8.39
341.975	8.44
342.185	7.36
342.396	7.77
342.607	6.92
342.818	8.25
343.029	8.83
343.239	7.71
343.45	8.05
343.661	6.48
343.872	5.93
344.082	5.76
344.293	5.44
344.504	6.01
344.714	4.43
344.925	4.67
345.136	3.54
345.346	4.03
345.557	4.19
345.768	3.72
345.978	3.12
346.189	2.83
346.399	2.42
346.61	2.37
346.821	2.07
347.031	3.11
347.242	1.73
347.452	1.73
347.663	1.07
347.873	1.18
348.084	1.2
348.294	1.98
348.504	3.89
348.715	4.63
348.925	4.91
349.136	5.81
349.346	5.57
349.557	6.29
349.767	6.61
349.977	7.43
350.188	6.69
350.398	7.53
350.608	6.5
350.819	6.21
351.029	6.15
351.239	5.76
351.449	4.63
351.66	4.96
351.87	5.08
352.08	5.77
352.29	5.46
352.501	6.35
352.711	5.38
352.921	5.78
353.131	5.85
353.341	5.38
353.552	6.15
353.762	6.07
353.972	6.5
354.182	6.89
354.392	6.41
354.602	5.55
354.812	5.76
355.022	6.17
355.232	6.23
355.442	5.23
355.652	4.92
355.862	4.34
356.072	5.25
356.282	5.15
356.492	4.97
356.702	4.68
356.912	4.69
357.122	5.14
357.332	4.85
357.542	5.7
357.752	6.11
357.962	6.42
358.171	6.98
358.381	7.49
358.591	6.64
358.801	5.8
359.011	6.61
359.221	7.55
359.43	6.82
359.64	6.84
359.85	6.71
360.06	6.56
360.269	5.94
360.479	5.16
360.689	4.19
360.899	4.67
361.108	6.06
361.318	5.22
361.528	5.07
361.737	6.04
361.947	6.13
362.156	5.99
362.366	5.95
362.576	6.26
362.785	7.04
362.995	6.7
363.204	6.12
363.414	5.39
363.623	5.66
363.833	5.38
364.042	4.47
364.252	4.16
364.461	4.41
364.671	5.07
364.88	5.03
365.09	4.38
365.299	5.2
365.509	6
365.718	6.39
365.927	6.16
366.137	5.74
366.346	5.64
366.555	6
366.765	6.15
366.974	5.62
367.183	5.44
367.393	5.61
367.602	6.31
367.811	5.55
368.021	5.04
368.23	5.32
368.439	5.54
368.648	4.81
368.857	4.64
369.067	4.25
369.276	4.03
369.485	4.22
369.694	3.99
369.903	2.56
370.112	3.38
370.321	3.34
370.531	3.24
370.74	2.88
370.949	3.23
371.158	3.42
371.367	3.73
371.576	3.5
371.785	3.49
371.994	3.35
372.203	3.02
372.412	2.13
372.621	2.47
372.83	2.47
373.039	2.92
373.248	2.82
373.457	2.57
373.666	2.25
373.874	2.51
374.083	3.08
374.292	3.2
374.501	3.8
374.71	4.68
374.919	3.97
375.128	4.18
375.336	3.88
375.545	4.15
375.754	3.53
375.963	3.24
376.171	3.64
376.38	3.44
376.589	3.6
376.798	3.93
377.006	3.49
377.215	4.05
377.424	3.8
377.632	4.08
377.841	4.02
378.05	4.5
378.258	4.07
378.467	3.9
378.675	3.29
378.884	3.14
379.093	3.41
379.301	3.63
379.51	3.47
379.718	3.48
379.927	2.86
380.135	2.99
380.344	3.27
380.552	3.9
380.761	4.11
380.969	4.47
381.177	4.52
381.386	4.18
381.594	4.36
381.803	4.58
382.011	4.73
382.219	5.57
382.428	5.57
382.636	5.57
382.845	6.22
383.053	5.61
383.261	5.57
383.469	5.2
383.678	5.15
383.886	5.03
384.094	5.01
384.302	4.69
384.511	4.66
384.719	4.61
384.927	4.37
385.135	3.75
385.343	3.59
385.552	3.9
385.76	4.12
385.968	4.14
386.176	4.19
386.384	4.16
386.592	4.59
386.8	4.23
387.008	4.27
387.216	4.17
387.424	3.85
387.633	4.26
387.841	4.32
388.049	4.28
388.257	4
388.465	3.91
388.672	4
388.88	3.38
389.088	3.65
389.296	3.4
389.504	3.32
389.712	3.48
389.92	3.57
390.128	3.02
390.336	3.25
390.544	3.25
390.751	3.05
390.959	2.75
391.167	3
391.375	3.09
391.583	3.1
391.79	3.37
391.998	3.49
392.206	3.35
392.414	3.85
392.621	3.64
392.829	3.6
393.037	3.55
393.244	3.51
393.452	3.43
393.66	2.99
393.867	2.92
394.075	2.73
394.283	2.46
394.49	2.39
394.698	1.73
394.905	1.74
395.113	1.51
395.32	1.7
395.528	1.8
395.735	1.88
395.943	2.06
396.15	2.09
396.358	2.25
396.565	2.28
396.773	2.32
396.98	2.6
397.188	2.49
397.395	2.78
397.602	2.57
397.81	2.5
398.017	2.56
398.225	3.31
398.432	3.34
398.639	3.32
398.847	3.48
399.054	3.29
399.261	3.39
399.468	3.38
399.676	3.31
399.883	3.21
400.09	3.4
400.297	3.29
400.505	3.07
400.712	2.58
400.919	2.29
401.126	2.33
401.333	2.72
401.54	2.6
401.748	2.73
401.955	2.64
402.162	2.59
402.369	2.32
402.576	2.35
402.783	1.88
402.99	2.25
403.197	2.09
403.404	1.97
403.611	1.65
403.818	1.78
404.025	2
404.232	2.13
404.439	2.43
404.646	2.47
404.853	2.35
405.06	2.49
405.267	2.69
405.474	2.99
405.681	3.41
405.887	3.68
406.094	3.52
406.301	3.15
406.508	3.01
406.715	2.92
406.922	2.95
407.128	3.37
407.335	3.34
407.542	3.59
407.749	3.81
407.955	3.68
408.162	3.62
408.369	3.65
408.575	3.71
408.782	4.06
408.989	3.87
409.195	3.99
409.402	3.5
409.609	3.26
409.815	3.23
410.022	2.94
410.228	2.53
410.435	2.41
410.642	2.67
410.848	2.79
411.055	2.55
411.261	2.66
411.468	2.54
411.674	2.69
411.881	2.94
412.087	2.98
412.294	2.79
412.5	2.93
412.706	3.16
412.913	2.88
413.119	2.85
413.326	2.94
413.532	2.82
413.738	2.8
413.945	3.01
414.151	2.6
414.357	2.16
414.564	2.47
414.77	2.55
414.976	2.33
415.182	2.36
415.389	2.26
415.595	2
415.801	2.11
416.007	1.99
416.214	1.85
416.42	2.16
416.626	2.25
416.832	2.27
417.038	2.23
417.244	2.4
417.45	2.49
417.657	2.58
417.863	2.74
418.069	2.7
418.275	2.64
418.481	2.71
418.687	2.72
418.893	2.66
419.099	2.62
419.305	2.55
419.511	2.43
419.717	2.47
419.923	2.36
420.129	2.48
420.335	2.52
420.541	2.83
420.746	2.82
420.952	2.69
421.158	2.72
421.364	2.6
421.57	2.65
421.776	2.68
421.982	2.63
422.187	2.88
422.393	2.83
422.599	2.76
422.805	2.55
423.01	2.53
423.216	2.68
423.422	2.74
423.628	2.87
423.833	2.96
424.039	2.99
424.245	2.92
424.45	2.71
424.656	2.65
424.862	2.77
425.067	2.79
425.273	2.83
425.478	2.71
425.684	2.66
425.889	2.71
426.095	2.71
426.301	2.79
426.506	2.83
426.712	3.03
426.917	2.88
427.123	2.81
427.328	2.71
427.533	2.71
427.739	2.73
427.944	2.77
428.15	2.7
428.355	2.54
428.561	2.34
428.766	2.15
428.971	1.96
429.177	2.25
429.382	2.18
429.587	2.38
429.793	2.34
429.998	2.23
430.203	2.13
430.408	1.93
430.614	2.1
430.819	2.12
431.024	2.26
431.229	2.28
431.434	2.2
431.64	2.1
431.845	1.9
432.05	1.96
432.255	1.98
432.46	2.18
432.665	2.2
432.87	2.02
433.076	2.14
433.281	2.22
433.486	2.25
433.691	2.22
433.896	2.51
434.101	2.58
434.306	2.6
434.511	2.63
434.716	2.54
434.921	2.56
435.126	2.69
435.331	2.67
435.535	2.58
435.74	2.64
435.945	2.65
436.15	2.48
436.355	2.42
436.56	2.14
436.765	2.09
436.97	2.02
437.174	2.22
437.379	2.16
437.584	2.11
437.789	2
437.993	1.9
438.198	1.85
438.403	1.79
438.608	1.97
438.812	2.16
439.017	2.27
439.222	2.34
439.426	2.27
439.631	2.14
439.836	2.15
440.04	2.37
440.245	2.53
440.45	2.59
440.654	2.66
440.859	2.53
441.063	2.53
441.268	2.43
441.472	2.53
441.677	2.54
441.881	2.65
442.086	2.47
442.29	2.28
442.495	2
442.699	1.92
442.904	1.81
443.108	1.83
443.312	1.77
443.517	1.7
443.721	1.53
443.925	1.44
444.13	1.69
444.334	1.87
444.538	1.79
444.743	1.79
444.947	1.99
445.151	2.16
445.356	2.27
445.56	2.18
445.764	2.39
445.968	2.46
446.173	2.52
446.377	2.27
446.581	2.35
446.785	2.57
446.989	2.72
447.193	2.65
447.398	2.58
447.602	2.4
447.806	2.51
448.01	2.3
448.214	2.29
448.418	2.01
448.622	1.97
448.826	1.94
449.03	1.78
449.234	1.63
449.438	1.54
449.642	1.36
449.846	1.64
450.05	1.7
450.254	1.93
450.458	1.89
450.662	2.09
450.866	2.39
451.069	2.27
451.273	2.3
451.477	2.14
451.681	2.2
451.885	2.24
452.089	1.97
452.292	1.8
452.496	1.74
452.7	1.81
452.904	1.88
453.107	1.78
453.311	1.77
453.515	1.86
453.719	2.24
453.922	2.33
454.126	2.36
454.33	2.5
454.533	2.59
454.737	2.46
454.94	2.46
455.144	2.44
455.348	2.32
455.551	2.26
455.755	2.22
455.958	2.07
456.162	1.84
456.365	2.02
456.569	1.85
456.772	1.6
456.976	1.75
457.179	1.58
457.383	1.72
457.586	1.92
457.79	1.99
457.993	1.96
458.196	1.91
458.4	2.05
458.603	2.01
458.807	1.97
459.01	2.17
459.213	2.21
459.417	2.15
459.62	2.15
459.823	2.09
460.026	2.18
460.23	2.26
460.433	2.24
460.636	2.22
460.839	2.09
461.042	2.28
461.246	2.13
461.449	1.97
461.652	2.17
461.855	2.03
462.058	2.02
462.261	1.79
462.464	1.7
462.668	1.67
462.871	1.76
463.074	1.71
463.277	1.58
463.48	1.74
463.683	1.74
463.886	1.54
464.089	1.53
464.292	1.55
464.495	1.8
464.698	1.6
464.901	1.57
465.104	1.38
465.306	1.54
465.509	1.57
465.712	1.55
465.915	1.69
466.118	1.69
466.321	1.73
466.524	1.75
466.726	1.54
466.929	1.56
467.132	1.74
467.335	1.75
467.538	1.52
467.74	1.68
467.943	1.71
468.146	1.61
468.348	1.61
468.551	1.5
468.754	1.36
468.956	1.42
469.159	1.56
469.362	1.41
469.564	1.23
469.767	1.39
469.969	1.26
470.172	1.29
470.375	1.47
470.577	1.46
470.78	1.53
470.982	1.67
471.185	1.87
471.387	1.83
471.59	2.08
471.792	2.22
471.995	2.42
472.197	2.46
472.399	2.49
472.602	2.31
472.804	2.47
473.007	2.46
473.209	2.5
473.411	2.43
473.614	2.38
473.816	2.24
474.018	2.18
474.22	2.12
474.423	1.9
474.625	1.92
474.827	1.92
475.03	1.73
475.232	1.62
475.434	1.55
475.636	1.52
475.838	1.68
476.04	1.66
476.243	1.52
476.445	1.39
476.647	1.59
476.849	1.57
477.051	1.7
477.253	1.77
477.455	2.02
477.657	2.08
477.859	1.93
478.061	2.01
478.263	2.01
478.465	2.31
478.667	2.34
478.869	2.31
479.071	2.2
479.273	2.28
479.475	2.3
479.677	2.29
479.879	2.37
480.081	2.49
480.283	2.39
480.485	2.47
480.686	2.27
480.888	2.38
481.09	2.37
481.292	2.22
481.494	2.26
481.695	2.41
481.897	2.31
482.099	2.27
482.301	2.4
482.502	2.39
482.704	2.39
482.906	2.45
483.107	2.46
483.309	2.46
483.511	2.55
483.712	2.51
483.914	2.48
484.115	2.5
484.317	2.52
484.519	2.46
484.72	2.41
484.922	2.43
485.123	2.42
485.325	2.42
485.526	2.37
485.728	2.35
485.929	2.28
486.131	2.21
486.332	2.18
486.534	2.08
486.735	2.08
486.936	2.14
487.138	2.18
487.339	2.21
487.541	2.14
487.742	2.18
487.943	2.18
488.144	2.17
488.346	2.13
488.547	2.12
488.748	2.17
488.95	2.15
489.151	2.14
489.352	2.09
489.553	2.1
489.755	2.1
489.956	2.14
490.157	2.08
490.358	2.18
490.559	2.25
490.76	2.37
490.961	2.33
491.163	2.36
491.364	2.37
491.565	2.31
491.766	2.27
491.967	2.34
492.168	2.29
492.369	2.35
492.57	2.29
492.771	2.35
492.972	2.23
493.173	2.24
493.374	2.27
493.575	2.22
493.776	2.17
493.976	2.21
494.177	2.17
494.378	2.23
494.579	2.12
494.78	2.31
494.981	2.06
495.182	2.27
495.382	2.21
495.583	1.99
495.784	2.02
495.985	2.06
496.185	2.08
496.386	2.16
496.587	2.18
496.788	2.16
496.988	2.05
497.189	2.14
497.39	2.07
497.59	2.22
497.791	2.32
497.992	2.32
498.192	2.33
498.393	2.27
498.593	2.14
498.794	2.22
498.994	2.38
499.195	2.39
499.395	2.5
499.596	2.35
499.796	2.15
499.997	2.3
500.197	2.3
500.398	2.32
500.598	2.28
500.799	2.42
500.999	1.97
501.199	1.93
501.4	2
501.6	1.83
501.801	1.97
502.001	2.11
502.201	1.95
502.402	2.01
502.602	2.03
502.802	2.13
503.002	2.11
503.203	2.52
503.403	2.65
503.603	2.51
503.803	2.66
504.003	2.53
504.204	2.43
504.404	2.72
504.604	2.56
504.804	2.6
505.004	2.62
505.204	2.59
505.404	2.58
505.604	2.45
505.804	2.53
506.005	2.43
506.205	2.42
506.405	2.5
506.605	2.28
506.805	2.35
507.005	2.34
507.204	2.32
507.404	2.38
507.604	2.36
507.804	2.31
508.004	2.17
508.204	2.21
508.404	2.33
508.604	2.25
508.804	2.05
509.003	2.15
509.203	2.13
509.403	2.21
509.603	2.12
509.803	2.06
510.002	2.04
510.202	2.11
510.402	2.16
510.602	2.25
510.801	2.28
511.001	2.6
511.201	2.55
511.4	2.57
511.6	2.52
511.8	2.5
511.999	2.56
512.199	2.54
512.398	2.55
512.598	2.42
512.797	2.39
512.997	2.44
513.197	2.26
513.396	2.4
513.596	2.42
513.795	2.5
513.994	2.64
514.194	2.65
514.393	2.76
514.593	2.98
514.792	3.13
514.992	2.88
515.191	2.86
515.39	3.06
515.59	2.92
515.789	2.88
515.988	2.86
516.188	2.67
516.387	2.74
516.586	2.78
516.786	2.77
516.985	2.68
517.184	2.84
517.383	2.86
517.582	2.75
517.782	2.8
517.981	2.81
518.18	2.8
518.379	2.92
518.578	2.82
518.777	2.74
518.976	2.66
519.176	2.79
519.375	2.9
519.574	3.03
519.773	3.03
519.972	3.04
520.171	3.04
520.37	3.01
520.569	2.93
520.768	3.02
520.967	3.25
521.166	3.24
521.365	3.14
521.564	3.07
521.762	3.03
521.961	3.06
522.16	2.9
522.359	2.85
522.558	3.02
522.757	3.16
522.956	3.12
523.154	3.03
523.353	3.12
523.552	3.27
523.751	3.21
523.949	3.05
524.148	2.9
524.347	3
524.546	3.11
524.744	2.99
524.943	2.96
525.142	2.9
525.34	2.92
525.539	2.98
525.737	2.96
525.936	2.99
526.135	3.06
526.333	3.27
526.532	3.3
526.73	3.27
526.929	3.32
527.127	3.44
527.326	3.46
527.524	3.5
527.723	3.47
527.921	3.53
528.12	3.62
528.318	3.58
528.516	3.55
528.715	3.62
528.913	3.54
529.112	3.56
529.31	3.54
529.508	3.61
529.707	3.61
529.905	3.66
530.103	3.62
530.301	3.59
530.5	3.62
530.698	3.63
530.896	3.67
531.094	3.84
531.293	3.83
531.491	3.88
531.689	3.8
531.887	3.78
532.085	3.74
532.283	3.77
532.481	3.77
532.68	3.84
532.878	3.86
533.076	3.78
533.274	3.83
533.472	3.89
533.67	3.83
533.868	3.78
534.066	3.81
534.264	3.79
534.462	3.82
534.66	3.88
534.858	3.86
535.056	3.85
535.253	3.79
535.451	3.72
535.649	3.79
535.847	3.87
536.045	4.14
536.243	4.04
536.441	4.02
536.638	4.01
536.836	4.02
537.034	4.03
537.232	4.19
537.43	4.25
537.627	4.22
537.825	4.11
538.023	4.11
538.22	3.99
538.418	4.12
538.616	4.25
538.813	4.28
539.011	4.14
539.209	4.18
539.406	4.07
539.604	4.15
539.801	4.23
539.999	4.25
540.196	4.24
540.394	4.32
540.591	4.32
540.789	4.34
540.986	4.31
541.184	4.41
541.381	4.52
541.579	4.49
541.776	4.55
541.974	4.57
542.171	4.63
542.368	4.69
542.566	4.72
542.763	4.79
542.96	4.85
543.158	4.88
543.355	5.03
543.552	5.05
543.75	5.09
543.947	5.12
544.144	5.12
544.341	5.18
544.539	5.18
544.736	5.11
544.933	5.13
545.13	5.17
545.327	5.18
545.524	5.03
545.722	5.08
545.919	5.21
546.116	5.22
546.313	5.25
546.51	5.33
546.707	5.32
546.904	5.44
547.101	5.55
547.298	5.48
547.495	5.39
547.692	5.58
547.889	5.56
548.086	5.67
548.283	5.6
548.48	5.8
548.677	5.64
548.874	5.87
549.07	5.87
549.267	5.84
549.464	5.84
549.661	5.99
549.858	5.84
550.055	5.76
550.251	5.63
550.448	5.85
550.645	5.76
550.842	5.94
551.038	6
551.235	6.12
551.432	6.07
551.628	6.29
551.825	6.52
552.022	6.67
552.218	6.73
552.415	6.77
552.612	6.89
552.808	7.06
553.005	7.08
553.201	6.96
553.398	7.06
553.594	7.09
553.791	7.07
553.987	7.18
554.184	7.09
554.38	7.24
554.577	7.08
554.773	6.71
554.97	6.58
555.166	6.87
555.362	6.86
555.559	6.71
555.755	6.9
555.952	7.08
556.148	7.17
556.344	7.13
556.541	7.12
556.737	7.41
556.933	7.84
557.129	8.01
557.326	8.11
557.522	8.23
557.718	8.46
557.914	8.34
558.11	8.31
558.307	8.31
558.503	8.5
558.699	8.58
558.895	8.72
559.091	8.74
559.287	8.93
559.483	8.55
559.679	8.4
559.876	8.42
560.072	8.83
560.268	8.84
560.464	8.85
560.66	8.82
560.856	8.89
561.052	9.03
561.247	9.29
561.443	9.34
561.639	9.4
561.835	9.81
562.031	9.7
562.227	9.84
562.423	9.93
562.619	10.06
562.815	10.3
563.01	10.21
563.206	10.02
563.402	9.92
563.598	9.77
563.793	9.98
563.989	9.83
564.185	9.93
564.381	9.82
564.576	9.9
564.772	9.81
564.968	9.7
565.163	10
565.359	10.24
565.555	10.26
565.75	10.31
565.946	10.48
566.141	10.58
566.337	10.75
566.532	10.65
566.728	10.69
566.923	10.71
567.119	10.86
567.314	10.72
567.51	10.89
567.705	10.97
567.901	11.07
568.096	10.93
568.292	11.03
568.487	11.12
568.682	11.24
568.878	11.33
569.073	11.39
569.268	11.57
569.464	11.81
569.659	11.69
569.854	11.56
570.05	11.62
570.245	11.8
570.44	11.97
570.635	11.86
570.831	11.86
571.026	11.88
571.221	11.86
571.416	11.9
571.611	11.92
571.806	12
572.002	12.17
572.197	12.33
572.392	12.36
572.587	12.37
572.782	12.52
572.977	12.59
573.172	12.47
573.367	12.7
573.562	12.66
573.757	12.68
573.952	12.54
574.147	12.72
574.342	12.57
574.537	12.51
574.732	12.43
574.927	12.31
575.121	12.36
575.316	12.46
575.511	12.53
575.706	12.48
575.901	12.48
576.096	12.68
576.29	12.59
576.485	12.72
576.68	12.89
576.875	12.71
577.069	12.76
577.264	12.96
577.459	13.11
577.654	13.03
577.848	13.15
578.043	13.3
578.238	13.39
578.432	13.3
578.627	13.17
578.821	13.05
579.016	13.33
579.21	13.5
579.405	13.2
579.6	13.14
579.794	12.97
579.989	12.93
580.183	13.02
580.378	12.81
580.572	12.97
580.766	13.29
580.961	13.61
581.155	13.48
581.35	13.42
581.544	13.76
581.738	13.79
581.933	14.1
582.127	14.2
582.321	14.08
582.516	14.2
582.71	14.04
582.904	13.92
583.099	13.79
583.293	14.16
583.487	14.3
583.681	14.18
583.875	14.13
584.07	14.09
584.264	14.06
584.458	14
584.652	14.16
584.846	14.54
585.04	14.41
585.234	14.36
585.428	14.36
585.623	14.32
585.817	14.22
586.011	14.56
586.205	14.38
586.399	14.25
586.593	14.37
586.787	14.27
586.981	14.07
587.174	14.12
587.368	14.02
587.562	14
587.756	14.11
587.95	14.16
588.144	13.86
588.338	14.09
588.532	14.44
588.725	14.44
588.919	14.37
589.113	14.28
589.307	14.58
589.501	14.87
589.694	14.4
589.888	14.34
590.082	14.71
590.275	14.75
590.469	14.88
590.663	14.71
590.856	14.78
591.05	15.06
591.244	15.05
591.437	14.92
591.631	14.92
591.824	15.23
592.018	15.21
592.212	14.99
592.405	14.94
592.599	14.72
592.792	14.65
592.986	14.57
593.179	14.42
593.372	14.48
593.566	14.67
593.759	14.56
593.953	14.77
594.146	14.71
594.339	15.02
594.533	15.2
594.726	15.25
594.92	15.13
595.113	15.04
595.306	15.03
595.499	15.28
595.693	15.1
595.886	15.16
596.079	14.98
596.272	14.93
596.466	14.71
596.659	14.71
596.852	14.71
597.045	14.89
597.238	14.91
597.431	14.85
597.624	14.68
597.818	14.8
598.011	14.89
598.204	14.95
598.397	15.11
598.59	14.95
598.783	15
598.976	15
599.169	14.97
599.362	15.21
599.555	15.18
599.748	15.31
599.941	15.09
600.134	15.01
600.326	15.15
600.519	15.41
600.712	15.55
600.905	15.43
601.098	15.52
601.291	15.46
601.483	15.35
601.676	15.72
601.869	15.73
602.062	15.81
602.255	15.8
602.447	15.62
602.64	15.22
602.833	15.28
603.025	15.44
603.218	15.54
603.411	15.59
603.603	15.71
603.796	15.7
603.989	15.65
604.181	15.74
604.374	15.68
604.566	15.75
604.759	15.93
604.951	15.88
605.144	15.91
605.336	16
605.529	16.12
605.721	15.94
605.914	15.79
606.106	15.85
606.299	15.83
606.491	15.88
606.683	16.03
606.876	16
607.068	15.99
607.26	16.01
607.453	15.93
607.645	15.81
607.837	15.98
608.03	15.79
608.222	15.72
608.414	15.88
608.606	15.8
608.799	15.57
608.991	15.62
609.183	15.7
609.375	15.53
609.567	15.35
609.759	15.36
609.952	15.23
610.144	15.4
610.336	15.52
610.528	15.36
610.72	15.48
610.912	15.76
611.104	15.48
611.296	15.58
611.488	15.56
611.68	15.82
611.872	15.84
612.064	15.53
612.256	15.42
612.448	15.23
612.64	15.33
612.832	15.2
613.023	15.25
613.215	15.5
613.407	15.35
613.599	15.59
613.791	15.33
613.983	15.32
614.174	15.7
614.366	16.17
614.558	16.44
614.75	16.33
614.941	16.14
615.133	15.87
615.325	15.87
615.516	15.63
615.708	15.41
615.9	15.39
616.091	15.61
616.283	15.76
616.475	15.26
616.666	15.58
616.858	15.77
617.049	16.03
617.241	15.95
617.432	16.32
617.624	16.62
617.815	16.79
618.007	16.93
618.198	16.91
618.39	16.69
618.581	16.83
618.773	16.27
618.964	16.43
619.155	16.32
619.347	16.46
619.538	16.39
619.729	16.34
619.921	16.35
620.112	16.27
620.303	16.47
620.494	16.4
620.686	16.54
620.877	16.75
621.068	16.71
621.259	17.05
621.451	17.1
621.642	16.79
621.833	16.93
622.024	16.81
622.215	16.97
622.406	16.42
622.597	16.58
622.788	16.45
622.98	16.08
623.171	16
623.362	15.88
623.553	15.88
623.744	16.08
623.935	15.91
624.126	15.89
624.317	15.64
624.508	15.95
624.698	16.07
624.889	16.21
625.08	16.62
625.271	16.5
625.462	16.49
625.653	16.4
625.844	16.22
626.034	16.29
626.225	16.31
626.416	16.73
626.607	16.56
626.798	16.56
626.988	16.46
627.179	16.14
627.37	16.1
627.56	16.04
627.751	16.11
627.942	16.11
628.132	16.35
628.323	16.56
628.514	16.27
628.704	16.31
628.895	16.44
629.085	16.54
629.276	16.48
629.466	16.52
629.657	16.44
629.847	16.8
630.038	16.65
630.228	16.27
630.419	15.93
630.609	15.84
630.8	15.87
630.99	15.63
631.181	15.56
631.371	15.76
631.561	15.69
631.752	16.01
631.942	15.82
632.132	16.14
632.323	16.21
632.513	16.47
632.703	16.5
632.893	16.44
633.084	16.83
633.274	16.92
633.464	16.89
633.654	17.11
633.844	16.66
634.034	16.29
634.225	16.01
634.415	16.04
634.605	15.7
634.795	15.69
634.985	15.88
635.175	15.62
635.365	15.8
635.555	15.74
635.745	15.67
635.935	15.65
636.125	15.47
636.315	15.84
636.505	16.05
636.695	16.44
636.885	16.77
637.075	16.48
637.265	16.22
637.455	16.02
637.644	16.48
637.834	16.61
638.024	16.71
638.214	17.11
638.404	17.37
638.593	17.01
638.783	16.81
638.973	16.75
639.163	17.24
639.352	17.45
639.542	17.61
639.732	17.07
639.921	16.9
640.111	17.44
640.301	17.47
640.49	17.15
640.68	17.27
640.87	17.78
641.059	17.6
641.249	17.48
641.438	17.65
641.628	17.47
641.817	17.52
642.007	17.38
642.196	16.82
642.386	17.03
642.575	17.05
642.764	17.26
642.954	16.91
643.143	16.95
643.333	17.04
643.522	16.43
643.711	16.24
643.901	16.65
644.09	16.38
644.279	16.34
644.469	16.18
644.658	16.48
644.847	16.25
645.036	16.25
645.226	16
645.415	15.74
645.604	16.11
645.793	15.91
645.982	15.62
646.171	15.97
646.361	15.83
646.55	15.8
646.739	15.24
646.928	15.42
647.117	15.66
647.306	16.09
647.495	15.72
647.684	15.51
647.873	15.58
648.062	15.87
648.251	15.55
648.44	15.85
648.629	15.78
648.818	15.77
649.007	15.57
649.196	15.29
649.384	15.16
649.573	15.63
649.762	15.76
649.951	15.66
650.14	15.89
650.328	16.26
650.517	16.22
650.706	16.37
650.895	16.73
651.083	16.85
651.272	16.87
651.461	16.91
651.65	16.85
651.838	16.87
652.027	17.24
652.216	16.85
652.404	16.94
652.593	17.05
652.781	17.1
652.97	17.13
653.158	16.85
653.347	16.79
653.535	16.76
653.724	16.91
653.912	16.82
654.101	16.59
654.289	16.51
654.478	16.48
654.666	16.07
654.855	15.83
655.043	15.87
655.231	16.01
655.42	16.58
655.608	16.32
655.796	16.12
655.985	16.34
656.173	16.64
656.361	16.84
656.55	16.78
656.738	16.99
656.926	17.46
657.114	17.42
657.302	17.81
657.491	17.46
657.679	17.62
657.867	17.53
658.055	17.45
658.243	17.89
658.431	17.87
658.619	18
658.807	18.25
658.996	17.95
659.184	18.1
659.372	18.03
659.56	17.93
659.748	17.81
659.936	17.95
660.124	17.98
660.311	17.57
660.499	17.42
660.687	17.3
660.875	17.23
661.063	17.29
661.251	16.98
661.439	16.98
661.627	17.21
661.814	17.21
662.002	17.39
662.19	17.45
662.378	17.66
662.565	17.97
662.753	17.74
662.941	17.42
663.129	17.37
663.316	17.66
663.504	17.37
663.692	17.36
663.879	17.52
664.067	17.45
664.254	17.43
664.442	17.16
664.63	16.86
664.817	16.61
665.005	17.25
665.192	16.83
665.38	16.48
665.567	16.74
665.755	16.35
665.942	15.8
666.13	15.65
666.317	15.97
666.504	16.21
666.692	16.67
666.879	17.08
667.067	16.47
667.254	17.13
667.441	17.12
667.629	17.43
667.816	17.57
668.003	17.8
668.19	17.7
668.378	17.12
668.565	16.81
668.752	16.76
668.939	16.83
669.127	17.46
669.314	16.9
669.501	17.41
669.688	16.65
669.875	16.94
670.062	17.4
670.249	17.56
670.436	17.87
670.623	17.9
670.81	17.94
670.997	17.87
671.184	17.08
671.371	17.59
671.558	16.92
671.745	17.31
671.932	16.98
672.119	16.74
672.306	16.67
672.493	16.37
672.68	16.33
672.867	16.37
673.054	16.43
673.24	16.54
673.427	16.34
673.614	16.57
673.801	16.23
673.988	16.22
674.174	16.24
674.361	16.79
674.548	17.41
674.734	17.58
674.921	17.41
675.108	17.63
675.294	18.21
675.481	18.09
675.668	18.37
675.854	19.11
676.041	19
676.227	18.77
676.414	17.89
676.601	17.36
676.787	17.69
676.974	17.67
677.16	17.22
677.347	16.98
677.533	17.43
677.719	17.11
677.906	16.79
678.092	17.23
678.279	17.32
678.465	17.63
678.651	18.07
678.838	17.63
679.024	17.76
679.21	18.24
679.397	17.96
679.583	17.98
679.769	18.07
679.955	18.38
680.142	18.17
680.328	18.22
680.514	18.3
680.7	18.21
680.886	18.45
681.073	18.43
681.259	17.92
681.445	18.26
681.631	18.04
681.817	18.34
682.003	17.91
682.189	17.62
682.375	17.47
682.561	17.3
682.747	17.24
682.933	17.29
683.119	17.15
683.305	17.5
683.491	17.45
683.677	16.91
683.863	16.45
684.049	16.48
684.235	17.06
684.42	17.37
684.606	17.45
684.792	17.24
684.978	17.61
685.164	17.25
685.349	16.89
685.535	17.06
685.721	17.3
685.907	17.17
686.092	17.14
686.278	17.08
686.464	17
686.649	17.26
686.835	17.32
687.021	16.93
687.206	17.33
687.392	17.49
687.577	17.78
687.763	18.18
687.948	18.48
688.134	19.06
688.319	18.81
688.505	18.92
688.69	18.63
688.876	18.41
689.061	18.05
689.247	18.22
689.432	18.35
689.618	17.49
689.803	17.14
689.988	17.52
690.174	16.78
690.359	16.45
690.544	16.96
690.73	16.34
690.915	16.44
691.1	16.79
691.285	16.96
691.471	17.57
691.656	17.87
691.841	18.18
692.026	17.81
692.211	17.69
692.396	18.26
692.582	18.04
692.767	18.85
692.952	19.18
693.137	18.9
693.322	18.09
693.507	17.59
693.692	16.99
693.877	16.53
694.062	16
694.247	16.24
694.432	16.34
694.617	15.87
694.802	15.22
694.987	15.05
695.172	15.01
695.357	15.09
695.541	14.44
695.726	15.19
695.911	15.55
696.096	15.78
696.281	16.31
696.466	16.14
696.65	15.75
696.835	16.56
697.02	16.58
697.204	16.82
697.389	17.3
697.574	17.66
697.759	17.32
697.943	17.58
698.128	17.65
698.312	17.46
698.497	17.53
698.682	17.92
698.866	17.75
699.051	17.82
699.235	17.99
699.42	17.71
699.604	17.89
699.789	17.84
699.973	17.28
700.158	17.18
700.342	16.88
700.527	17.25
700.711	17.09
700.895	16.7
701.08	17.14
701.264	16.96
701.448	16.78
701.633	16.67
701.817	17.14
702.001	17.74
702.186	17.9
702.37	19.08
702.554	18.62
702.738	18.95
702.923	19.35
703.107	18.95
703.291	18.69
703.475	19.13
703.659	19.61
703.843	19.74
704.027	19.46
704.212	19.42
704.396	17.91
704.58	17.45
704.764	16.83
704.948	16.78
705.132	16.66
705.316	16.99
705.5	17.34
705.684	16.54
705.868	16.3
706.052	15.92
706.235	16.17
706.419	16.54
706.603	17.02
706.787	17.01
706.971	17.65
707.155	17.2
707.339	17.09
707.522	17.2
707.706	17.02
707.89	17.21
708.074	17.88
708.257	16.65
708.441	16.46
708.625	16.06
708.808	17.05
708.992	16.67
709.176	17.04
709.359	16.62
709.543	16.67
709.727	17.06
709.91	17.01
710.094	16.79
710.277	17.48
710.461	17.73
710.644	17.4
710.828	16.74
711.011	16.29
711.195	15.57
711.378	16.56
711.562	16.33
711.745	16.68
711.928	16.31
712.112	16.37
712.295	16.17
712.478	15.89
712.662	16.57
712.845	16.66
713.028	17.05
713.212	17.55
713.395	17.63
713.578	17.12
713.761	16.52
713.945	16.73
714.128	16.56
714.311	17.21
714.494	17.28
714.677	17.42
714.86	17.45
715.043	17.45
715.227	17.59
715.41	16.77
715.593	16.71
715.776	16.56
715.959	17.46
716.142	18
716.325	17.96
716.508	18.35
716.691	18.14
716.874	18.57
717.057	17.68
717.239	18.44
717.422	18.7
717.605	19.32
717.788	19.3
717.971	18.51
718.154	17.82
718.337	17.42
718.519	17.01
718.702	16.21
718.885	15.88
719.068	16.45
719.25	15.17
719.433	14.59
719.616	13.89
719.798	14.02
719.981	13.64
720.164	13.34
720.346	12.54
720.529	13.34
720.712	14.35
720.894	13.59
721.077	14.26
721.259	14.82
721.442	13.98
721.624	14.54
721.807	14.36
721.989	14.35
722.172	15.1
722.354	16.76
722.537	16.31
722.719	16.13
722.901	16.52
723.084	17.07
723.266	16.47
723.448	17.28
723.631	17
723.813	17.24
723.995	17.66
724.178	16.98
724.36	17.19
724.542	16.92
724.724	17.04
724.907	17.22
725.089	17.66
725.271	17.43
725.453	17.46
725.635	18.39
725.817	19.43
725.999	19.19
726.181	19.06
726.364	18.55
726.546	18.99
726.728	19.16
726.91	18.55
727.092	17.45
727.274	17.48
727.456	17.83
727.638	16.88
727.819	15.81
728.001	15.76
728.183	16.3
728.365	16.01
728.547	15.33
728.729	14.87
728.911	15.83
729.093	15.71
729.274	15.73
729.456	15.26
729.638	16.08
729.82	16.97
730.001	16.47
730.183	17.11
730.365	17.82
730.546	17.95
730.728	18.59
730.91	18.49
731.091	18.63
731.273	19.07
731.455	19.79
731.636	19.57
731.818	18.2
731.999	18.73
732.181	17.64
732.362	16.45
732.544	16.75
732.725	16.8
732.907	16.53
733.088	16.87
733.27	17.22
733.451	16.7
733.633	16.09
733.814	17.29
733.995	16.87
734.177	16.39
734.358	17.91
734.539	18.4
734.721	17.93
734.902	16.96
735.083	16.35
735.264	16.29
735.446	16.65
735.627	16.63
735.808	16.74
735.989	16.56
736.17	17.62
736.351	16.77
736.533	16.95
736.714	16.89
736.895	18.61
737.076	17.85
737.257	17.37
737.438	16.25
737.619	16.42
737.8	16.12
737.981	15.61
738.162	15.97
738.343	15.36
738.524	14.55
738.705	14.56
738.886	13.82
739.067	14.61
739.247	14.73
739.428	16.43
739.609	16.82
739.79	15.95
739.971	17.38
740.151	16.38
740.332	15.98
740.513	15.77
740.694	16.3
740.874	17.55
741.055	18.27
741.236	18.14
741.417	16.8
741.597	15.93
741.778	16.13
741.958	15.57
742.139	16.59
742.32	17.19
742.5	16.96
742.681	15.25
742.861	12.42
743.042	12.24
743.222	12.13
743.403	12.68
743.583	14.13
743.764	13.38
743.944	12.94
744.124	12.01
744.305	10.98
744.485	11.87
744.666	12.71
744.846	14.5
745.026	14.15
745.207	13.75
745.387	14.43
745.567	13.21
745.747	14.3
745.928	14.31
746.108	14.66
746.288	15.69
746.468	15.06
746.648	15.18
746.829	14.93
747.009	15.38
747.189	16.55
747.369	16.83
747.549	16.3
747.729	16.04
747.909	16.24
748.089	17.05
748.269	17.88
748.449	17.72
748.629	16.89
748.809	16.3
748.989	15.76
749.169	15.77
749.349	15.23
749.529	15.42
749.709	14.82
749.889	16.86
750.068	16.29
750.248	14.85
750.428	14.88
750.608	15.28
750.788	16.62
750.967	17.35
751.147	17.33
751.327	17.71
751.507	17.88
751.686	18.68
751.866	17.12
752.046	16.99
752.225	17.73
752.405	19.14
752.585	19.88
752.764	19.87
752.944	18.81
753.123	18.8
753.303	18.69
753.482	18.43
753.662	18.77
753.841	20.45
754.021	20.4
754.2	20.38
754.38	19.02
754.559	19.22
754.739	17.25
754.918	17.44
755.097	17.36
755.277	16.88
755.456	17.33
755.635	16.07
755.815	15.23
755.994	14.25
756.173	14.17
756.352	13.35
756.532	13.68
756.711	14.49
756.89	15.88
757.069	14.81
757.248	13.23
757.427	13.28
757.607	13.59
757.786	12.63
757.965	13.58
758.144	13.37
758.323	13.59
758.502	13.33
758.681	12.07
758.86	11.19
759.039	11.45
759.218	13.48
759.397	11.99
759.576	12.75
759.755	13.58
759.934	13.66
760.113	13.09
760.291	13.8
760.47	12.32
760.649	13.45
760.828	12.94
761.007	14.23
761.186	13.87
761.364	14.87
761.543	14.04
761.722	13.04
761.901	14.4
762.079	15.31
762.258	14.86
762.437	15.22
762.615	14.83
762.794	14.89
762.972	14.83
763.151	14.82
763.33	15.24
763.508	15.71
763.687	16.42
763.865	16.23
764.044	15.79
764.222	15.84
764.401	16.25
764.579	16.88
764.758	17.18
764.936	16.33
765.114	15.85
765.293	16.5
765.471	16.57
765.65	15.98
765.828	14.6
766.006	15.28
766.184	15.16
766.363	15.1
766.541	15.3
766.719	15.16
766.898	14.82
767.076	15.47
767.254	13.68
767.432	13.4
767.61	12.26
767.788	11.48
767.967	10.3
768.145	10.06
768.323	10.46
768.501	9.6
768.679	8.41
768.857	8.43
769.035	7.81
769.213	9.1
769.391	9.47
769.569	10.2
769.747	12.09
769.925	12.81
770.103	13.2
770.281	12.35
770.459	13.4
770.636	14.76
770.814	14.6
770.992	14.66
771.17	12.81
771.348	12.71
771.525	13.22
771.703	11.61
771.881	11.31
772.059	12.95
772.236	13.24
772.414	13.31
772.592	11.25
772.769	13.27
772.947	12
773.125	14.63
773.302	15.37
773.48	14.15
773.657	14.78
773.835	13.47
774.013	11.7
774.19	11.35
774.368	12.74
774.545	15.47
774.723	14.2
774.9	17.7
775.077	16.98
775.255	16.74
775.432	17.61
775.61	17.62
775.787	18.95
775.964	18.5
776.142	17.91
776.319	16.55
776.496	15.49
776.674	16.05
776.851	13.86
777.028	14.74
777.205	14.64
777.382	15.4
777.56	16.9
777.737	16.89
777.914	18.64
778.091	17.63
778.268	16.31
778.445	16.72
778.622	14.6
778.8	14.96
778.977	11.93
779.154	10.37
779.331	9.63
779.508	9.7
779.685	8.18
779.862	6.59
780.038	7.06
780.215	8.35
780.392	5.87
780.569	8.84
780.746	7.55
780.923	10.02
781.1	10.96
781.277	9.41
781.453	7.52
781.63	9.1
781.807	10.92
781.984	10.44
782.16	10.05
782.337	11.59
782.514	9.38
782.691	11.69
782.867	7.7
783.044	5.19
783.221	3.98
783.397	4.76
783.574	3.96
783.75	2.77
783.927	3.36
784.103	1.92
784.28	3.01
784.456	6.24
784.633	3.54
784.809	3.71
784.986	6.58
785.162	9.95
785.339	7.31
785.515	8.26
785.692	6.78
785.868	8.17
786.044	5.96
786.221	6.51
786.397	2.18
786.573	2.46
786.749	6.23
786.926	5.77
787.102	6.66
787.278	10.11
787.454	7.5
787.631	8.57
787.807	7.64
787.983	11.29
788.159	8.56
788.335	10.33
788.511	10.67
788.687	10.03
788.863	11.43
789.039	9.74
789.216	8.96
789.392	12.12
789.568	11.87
789.744	14.46
789.919	14.37
790.095	14.73
790.271	14.22
790.447	14.99
790.623	17.58
790.799	15.63
790.975	18.36
791.151	18.9
791.327	17
791.502	17.54
791.678	14.76
791.854	12.78
792.03	14.78
792.205	15.58
792.381	14.4
792.557	14.08
792.733	14.76
792.908	11.73
793.084	12.86
793.259	14.1
793.435	13.42
793.611	13.13
793.786	13.32
793.962	13.53
794.137	12.65
794.313	14.9
794.488	12
794.664	11.48
794.839	11.19
795.015	12.75
795.19	9.34
795.366	10.24
795.541	12.3
795.716	13.98
795.892	13.59
796.067	13.66
796.242	12.6
796.418	11.77
796.593	8.9
796.768	12.33
796.944	9.96
797.119	15.51
797.294	15.83
797.469	16.29
797.644	17.43
797.82	18.81
797.995	19.95
798.17	20.79
798.345	22.03
798.52	25.36
798.695	25.44
798.87	24.48
799.045	23.09
799.22	25.9
799.395	25.66
799.57	23.03
799.745	19.66
799.92	17.25
800.095	14.18
800.27	13.05
800.445	12.47
800.62	6.37
800.795	4.82
800.97	2.37
801.145	-3.39
801.319	-7.26
801.494	-4.93
801.669	-5.91
801.844	-4.69
802.018	0.56
802.193	2.89
802.368	2.56
802.543	8.95
802.717	7.18
802.892	8.7
803.067	9.6
803.241	13.33
803.416	9.95
803.59	13.09
803.765	13.25
803.94	15.97
804.114	13.9
804.289	14.01
804.463	10.25
804.638	12.81
804.812	12.29
804.986	11.59
805.161	9.44
805.335	9.77
805.51	6.96
805.684	2.42
805.858	-5.09
806.033	-6.11
806.207	-6.93
806.381	-7.12
806.556	-5.79
806.73	-3.71
806.904	-0.93
807.078	-3
807.253	-2.48
807.427	1.87
807.601	4.91
807.775	6.36
807.949	6.83
808.123	6.51
808.298	7.09
808.472	6.12
808.646	5.47
808.82	8.14
808.994	6.78
809.168	5.24
809.342	0.92
809.516	6.84
809.69	8.61
809.864	7.75
810.038	8.4
810.212	5.98
810.385	5.62
810.559	3.32
810.733	1.48
810.907	2.34
811.081	4.13
811.255	4.87
811.428	-4.16
811.602	-10.34
811.776	-6.61
811.95	-6.83
812.123	-7.16
812.297	-8.76
812.471	-8.92
812.644	-13.05
812.818	-10.7
812.992	-17.54
813.165	-21.38
813.339	-20.97
813.512	-15.26
813.686	-19.5
813.86	-15.07
814.033	-5.41
814.207	-0.52
814.38	2.79
814.554	8.5
814.727	9.28
814.9	14.94
815.074	16.67
815.247	22.19
815.421	20.03
815.594	25.8
815.767	21.87
815.941	22.61
816.114	18.19
816.287	17.83
816.46	11.08
816.634	13.73
816.807	14.43
816.98	15.67
817.153	13.17
817.327	10.31
817.5	7.84
817.673	9.71
817.846	10.25
818.019	10.24
818.192	9.1
818.365	12.43
818.538	8.95
818.711	9.35
818.884	9.45
819.057	12.11
819.23	13.06
819.403	12.94
819.576	12.91
819.749	6.85
819.922	9.14
820.095	9.33
820.268	8.18
820.441	8.91
820.614	8.82
820.786	9.49
820.959	9.97
821.132	13.97
821.305	14.06
821.477	15.15
821.65	17.14
821.823	19.26
821.996	20.27
822.168	20.44
822.341	20.13
822.514	20.23
822.686	21.22
822.859	20.94
823.031	20.63
823.204	21.13
823.376	21.08
823.549	20.79
823.722	20.3
823.894	19.82
824.067	20.02
824.239	20.03
824.411	19.63
824.584	18.93
824.756	19.88
824.929	18.62
825.101	17.97
825.273	17.29
825.446	18.47
825.618	17.66
825.79	19.06
825.963	19.17
826.135	20.48
826.307	20.83
826.479	21.21
826.652	20.57
826.824	22.02
826.996	21.66
827.168	22.33
827.34	19.72
827.512	19.36
827.684	18.57
827.856	18.32
828.029	18.94
828.201	19.11
828.373	17.2
828.545	15.82
828.717	15.48
828.889	16.53
829.061	15.91
829.232	16.85
829.404	19.33
829.576	17.04
829.748	19.12
829.92	15.74
830.092	12.4
830.264	13.29
830.436	14.72
830.607	14.42
830.779	12.2
830.951	14.26
831.123	12.79
831.294	6.35
831.466	10.19
831.638	3.98
831.809	3.52
831.981	3.46
832.153	4.66
832.324	-1.59
832.496	-0.59
832.667	3.46
832.839	-2.33
833.011	3.03
833.182	4.24
833.354	0.91
833.525	5
833.697	6
833.868	9.66
834.039	9.68
834.211	11.78
834.382	12.77
834.554	10.6
834.725	12.16
834.896	9.25
835.068	9.41
835.239	10.96
835.41	10.83
835.581	12.01
835.753	11.88
835.924	10.49
836.095	10.52
836.266	9.95
836.438	7.98
836.609	8.6
836.78	11.5
836.951	10.76
837.122	11.28
837.293	9.21
837.464	4.18
837.635	1.05
837.806	0.34
837.977	-0.84
838.148	-4.54
838.319	1.04
838.49	-2.47
838.661	-1.39
838.832	0.87
839.003	-3.86
839.174	0.28
839.345	7.21
839.516	12.95
839.687	2.98
839.857	14.47
840.028	14.43
840.199	8.13
840.37	2.11
840.54	-1.72
840.711	-4.83
840.882	-5.34
841.053	-12.35
841.223	-9.97
841.394	-19.57
841.564	-10.72
841.735	-6.26
841.906	-8.21
842.076	-14.25
842.247	-6.57
842.417	-9.96
842.588	-7.25
842.758	-10.54
842.929	-10.27
843.099	-9.59
843.27	-6.37
843.44	-8.2
843.611	-26.54
843.781	-30.49
843.951	-21.19
844.122	-26.8
844.292	-28.38
844.462	-39.01
844.633	-36.86
844.803	-38.98
844.973	-42.86
845.144	-30.29
845.314	-16.12
845.484	-24.91
845.654	-26.98
845.824	-18.48
845.995	-20.7
846.165	-19.97
846.335	-13.48
846.505	-14.31
846.675	-15.66
846.845	-13.23
847.015	-34.34
847.185	-44.7
847.355	-19.93
847.525	-25.38
847.695	-32.49
847.865	-40.38
848.035	-33.95
848.205	-25.1
848.375	-17.26
848.545	-2.8
848.715	-0.29
848.884	2.12
849.054	8.26
849.224	1.5
849.394	6.18
849.564	3.25
849.733	16.27
849.903	10.89
850.073	13.72
850.243	3.92
850.412	0.8
850.582	5.88
850.752	9.38
850.921	5.88
851.091	-2.03
851.26	-4.26
851.43	-8.67
851.599	-15.08
851.769	-12.04
851.939	-48.47
852.108	-35.9
852.278	-39.04
852.447	-48.29
852.616	-44.92
852.786	-54.74
852.955	-47.55
853.125	-40.02
853.294	-32.32
853.463	-67.3
853.633	-85.01
853.802	-19.61
853.971	-32.7
854.141	-29.92
854.31	-28.39
854.479	-40.5
854.648	-30.47
854.818	-15.91
854.987	-32.48
855.156	-51.62
855.325	-46.26
855.494	-50.88
855.663	-83.73
855.832	-93.31
856.001	-73.67
856.171	-99.78
856.34	-48.86
856.509	-45.9
856.678	-25.6
856.847	-20.55
857.016	-11.06
857.185	4.32
857.353	20.75
857.522	10.61
857.691	16.5
857.86	10.54
858.029	5.41
858.198	-9.72
858.367	-14.36
858.535	-29.15
858.704	-38.28
858.873	-43.34
859.042	-48.13
859.21	-49.09
859.379	-30.34
859.548	-38.8
859.717	-45.58
859.885	-61.29
860.054	-78.35
860.222	-117.74
860.391	-211.41
860.56	-134.73
860.728	-98.12
860.897	-242.06
861.065	-508.73
861.234	-170.01
861.402	-207.24
861.571	-187.35
861.739	-115.7
861.908	-93.94
862.076	-109.94
862.244	-69.38
862.413	-96.16
862.581	-81.59
862.749	-54.18
862.918	-35.61
863.086	-59.28
863.254	-38.88
863.423	-71.5
863.591	-103.81
863.759	-111.53
863.927	-112.85
864.096	-121.07
864.264	-60.99
864.432	-81.29
864.6	-125.79
864.768	-103.7
864.936	-69.43
865.104	-112.19
865.272	-74.72
865.44	-37.43
865.608	-21.79
865.776	-5.2
865.944	-6.5
866.112	-17.66
866.28	-19.02
866.448	2.63
866.616	-12.64
866.784	-12.05
866.952	-1.81
867.12	-4.74
867.288	-17.88
867.455	-33.95
867.623	-83.83
867.791	-98.47
867.959	-86.97
868.127	-67.97
868.294	-120.39
868.462	-118.43
868.63	-169.74
868.797	-140.67
868.965	-213.85
869.133	-342.44
869.3	-149.4
869.468	-85.63
869.636	-58.02
869.803	-75.41
869.971	-116.47
870.138	-91.16
870.306	-81.18
870.473	-40.91
870.641	-39.63
870.808	-36.25
870.975	-21.81
871.143	-30.33
871.31	-11
871.478	-34.76
871.645	-36.54
871.812	-17.2
871.98	-8.44
872.147	8.31
872.314	-19.28
872.482	-44.13
872.649	-21.41
872.816	-49.21
872.983	-59.4
873.15	-54.75
873.318	-40.06
873.485	-57.17
873.652	-58.42
873.819	-53.15
873.986	-62.08
874.153	-64.06
874.32	-67.69
874.487	-80.46
874.654	-77.55
874.821	-59.79
874.988	-67.93
875.155	-43.24
875.322	-25.13
875.489	-23.46
875.656	-28.66
875.823	-33.13
875.99	-27.31
876.157	-21.6
876.324	-21.1
876.49	-14.83
876.657	-3.97
876.824	0.24
876.991	-17.77
877.157	-32.64
877.324	-43.19
877.491	-47.26
877.658	-56.38
877.824	-70.74
877.991	-64.7
878.157	-58.63
878.324	-63.5
878.491	-144.21
878.657	-161.51
878.824	-125.67
878.99	-86.46
879.157	-119.68
879.323	-206.27
879.49	-140.32
879.656	-66.23
879.823	-64.75
879.989	-48.77
880.156	-45.07
880.322	-31.44
880.488	-34.06
880.655	-33.37
880.821	-43.49
880.987	-17.42
881.154	0.2
881.32	-0.67
881.486	-9.95
881.652	-1.5
881.819	3.6
881.985	3.31
882.151	7.88
882.317	13.73
882.483	15.42
882.649	14.79
882.816	12.82
882.982	12.36
883.148	10.05
883.314	10.63
883.48	10.02
883.646	8.3
883.812	9.29
883.978	9.5
884.144	9.79
884.31	10.13
884.476	11.66
884.642	16.29
884.807	14.88
884.973	16.29
885.139	16.02
885.305	17.05
885.471	15.45
885.637	17.18
885.802	16.74
885.968	17.06
886.134	11.01
886.3	11.04
886.465	5.69
886.631	7.04
886.797	6.44
886.962	12.58
887.128	12.71
887.293	10.85
887.459	0.7
887.625	-1.07
887.79	-6.93
887.956	9.88
888.121	10.49
888.287	11.47
888.452	8.96
888.618	12.64
888.783	-7.12
