Data from 2938023_Reflection_2.txt Node
Date: Sun Jul 12 15:22:13 EDT 2015
User: robert
Spectrometer: USB4E03001
Autoset integration time: false
Trigger mode: 4
Integration Time (sec): 1.000000E-1
Scans to average: 10
Electric dark correction enabled: true
Nonlinearity correction enabled: false
Boxcar width: 5
Stray light correction enabled: false
XAxis mode: Wavelengths
Stop averaging: false
Number of Pixels in Spectrum: 3648
>>>>>Begin Spectral Data<<<<<
177.566	-256.93
177.785	978.41
178.005	1919.15
178.225	27.34
178.445	39.69
178.665	-111.64
178.885	334.56
179.105	-1081.29
179.324	-1046.13
179.544	-170.16
179.764	-44.35
179.984	10.1
180.204	161.84
180.423	270.95
180.643	548.78
180.863	332.89
181.083	121.83
181.302	-38.79
181.522	267.56
181.742	79.2
181.961	-52.8
182.181	28.16
182.401	-22.43
182.621	-170.88
182.84	-165.23
183.06	-76.13
183.279	-40.46
183.499	-120.34
183.719	-21.01
183.938	-81.5
184.158	-44
184.377	-27.2
184.597	-2.43
184.816	16.22
185.036	18.94
185.256	-0.88
185.475	-50.23
185.695	-98.89
185.914	-85.58
186.134	-100.51
186.353	-81.43
186.572	-136.21
186.792	-175.86
187.011	-286.28
187.231	-6470.92
187.45	-1099.28
187.67	-210.02
187.889	-69
188.108	-67.57
188.328	-55.19
188.547	-33.68
188.766	-53.27
188.986	-295.94
189.205	328.35
189.424	1601.91
189.644	4770.15
189.863	1884.95
190.082	89.49
190.302	117.34
190.521	14.51
190.74	29.77
190.959	12.1
191.178	84.25
191.398	62.16
191.617	35.65
191.836	46.18
192.055	45.6
192.274	41.62
192.494	54.28
192.713	47.94
192.932	41.07
193.151	36.99
193.37	36.71
193.589	0.61
193.808	5.55
194.027	-42.99
194.246	-146.95
194.465	-420.2
194.685	284.34
194.904	151.9
195.123	197.09
195.342	127.82
195.561	144.76
195.78	119.55
195.999	115.48
196.218	64.04
196.436	76.07
196.655	273.88
196.874	888.27
197.093	6400
197.312	-527.76
197.531	3179.55
197.75	-102.59
197.969	-110.79
198.188	-156.36
198.407	-142.81
198.625	-63.92
198.844	19.61
199.063	-41.64
199.282	27.09
199.501	17.68
199.719	34.17
199.938	39.71
200.157	15.84
200.376	21.12
200.594	29.02
200.813	35.9
201.032	36.14
201.251	-33.95
201.469	16.19
201.688	-50.11
201.907	-204.54
202.125	-1041.72
202.344	1592.17
202.563	-1732.98
202.781	3679.94
203	1049.06
203.218	332.34
203.437	624
203.656	1271
203.874	-738.94
204.093	-160.44
204.311	-53.49
204.53	-36.48
204.748	-15.28
204.967	7.8
205.185	33.01
205.404	22.74
205.622	33.93
205.841	16.47
206.059	24.94
206.278	10.11
206.496	-4.2
206.715	34.76
206.933	47.04
207.151	58.72
207.37	62.54
207.588	57.83
207.806	43.03
208.025	-18.67
208.243	14.5
208.461	51.29
208.68	109.79
208.898	51.4
209.116	22.04
209.335	31.33
209.553	16.35
209.771	40.18
209.989	39.9
210.208	33.67
210.426	83.44
210.644	77.39
210.862	64.82
211.081	26.98
211.299	45.35
211.517	43.44
211.735	6.5
211.953	-25.44
212.171	-39.45
212.39	-1.39
212.608	29.38
212.826	3.27
213.044	-39.03
213.262	-122.1
213.48	1226.4
213.698	-419.75
213.916	-35.13
214.134	-59.61
214.352	-138.04
214.57	-84.26
214.788	-128.75
215.006	-77.59
215.224	-171.54
215.442	-77.85
215.66	5.28
215.878	3.09
216.096	48.32
216.314	49.26
216.532	100.6
216.75	120.15
216.968	64.72
217.185	44.3
217.403	-6.71
217.621	-26.92
217.839	-14.83
218.057	-9.48
218.275	-3.87
218.492	12.64
218.71	15.72
218.928	-13.34
219.146	-18.48
219.363	-14.03
219.581	0.96
219.799	21.41
220.017	34.39
220.234	41.98
220.452	42.64
220.67	55.96
220.887	17.39
221.105	-13.87
221.323	-3.51
221.54	3.75
221.758	17.99
221.976	19.26
222.193	0.12
222.411	-22.07
222.629	-15.53
222.846	-25.18
223.064	-17.24
223.281	11.44
223.499	37.44
223.716	29.39
223.934	34.25
224.151	32.61
224.369	26.46
224.586	27.9
224.804	31.72
225.021	11.35
225.239	2.97
225.456	3.95
225.674	-12.23
225.891	-34.06
226.108	-43.91
226.326	-44.45
226.543	-53.71
226.76	-40.51
226.978	-19
227.195	-22.71
227.413	-12.37
227.63	-9.16
227.847	-8.75
228.064	-6.09
228.282	5.09
228.499	15.52
228.716	17.67
228.934	19.73
229.151	15.65
229.368	13.6
229.585	12.17
229.802	16.92
230.02	18.19
230.237	14.87
230.454	15.69
230.671	16.29
230.888	8.72
231.105	11.53
231.323	10
231.54	12.88
231.757	11.96
231.974	14.01
232.191	3.59
232.408	3.04
232.625	4.16
232.842	0.14
233.059	-5.92
233.276	3.84
233.493	3.75
233.71	6.9
233.927	3.44
234.144	7.34
234.361	11.78
234.578	10.33
234.795	11.82
235.012	12.43
235.229	19.25
235.446	25.13
235.663	19.26
235.879	12.04
236.096	8.53
236.313	12.82
236.53	11.81
236.747	7.05
236.964	6
237.181	4.93
237.397	4.24
237.614	-0.76
237.831	-8.92
238.048	-0.81
238.264	4.04
238.481	8.34
238.698	2.82
238.915	3.86
239.131	-2.12
239.348	3.52
239.565	1.64
239.781	8.14
239.998	9.71
240.215	13.95
240.431	10.96
240.648	12.55
240.865	11.77
241.081	13.61
241.298	13.74
241.514	16.57
241.731	14.97
241.947	15.02
242.164	13.67
242.38	14.44
242.597	14.79
242.814	15.47
243.03	14.4
243.246	13.87
243.463	11.46
243.679	11.47
243.896	12.97
244.112	11.73
244.329	11.89
244.545	10.81
244.762	10.07
244.978	8.23
245.194	7.71
245.411	8.31
245.627	7.98
245.843	10.16
246.06	10.33
246.276	9.54
246.492	11.75
246.709	8.91
246.925	9.41
247.141	10.41
247.357	10.41
247.574	10.17
247.79	9.94
248.006	10.13
248.222	10.42
248.439	9.67
248.655	9.55
248.871	9.75
249.087	12.52
249.303	12.56
249.519	12.83
249.736	13.85
249.952	13.62
250.168	16.21
250.384	17.05
250.6	15.11
250.816	14.43
251.032	12.36
251.248	7.01
251.464	8.05
251.68	9.28
251.896	5.46
252.112	3.6
252.328	4.34
252.544	1.53
252.76	0.47
252.976	2.3
253.192	-0.39
253.408	2.56
253.624	7.94
253.84	7.76
254.056	6.05
254.272	8.06
254.487	9.04
254.703	7.23
254.919	6.41
255.135	8.96
255.351	8.76
255.567	15.11
255.782	8.44
255.998	5.34
256.214	6.06
256.43	8.45
256.646	7.06
256.861	7.17
257.077	8.14
257.293	9.77
257.508	8.52
257.724	5.77
257.94	7.06
258.155	10.27
258.371	10.02
258.587	10.32
258.802	9.82
259.018	10.1
259.234	9.78
259.449	9.47
259.665	10.38
259.88	11.18
260.096	11.43
260.312	11.57
260.527	10.63
260.743	10.01
260.958	9.61
261.174	10.25
261.389	9.8
261.605	10.08
261.82	9.65
262.036	8.31
262.251	9.06
262.466	9.07
262.682	5.37
262.897	4.42
263.113	8.22
263.328	7.85
263.543	4.92
263.759	5.14
263.974	3.82
264.189	4.6
264.405	3.67
264.62	0.55
264.835	1.32
265.051	3.65
265.266	6.91
265.481	2.19
265.696	4.8
265.912	6.95
266.127	9.05
266.342	11.6
266.557	11.74
266.773	11.78
266.988	11.85
267.203	11.85
267.418	11.9
267.633	11.72
267.848	13.29
268.064	12.73
268.279	12.84
268.494	11.75
268.709	10.61
268.924	10.77
269.139	12.1
269.354	11.9
269.569	11.48
269.784	9.96
269.999	9.5
270.214	10.41
270.429	8.08
270.644	7.28
270.859	7.11
271.074	7.4
271.289	7.62
271.504	5.86
271.719	7.67
271.934	7.56
272.149	9.53
272.363	9.52
272.578	7.91
272.793	7.82
273.008	6.74
273.223	7.44
273.438	8.1
273.653	7.45
273.867	8.23
274.082	7.73
274.297	7.36
274.512	7.27
274.726	5.91
274.941	6.02
275.156	6.24
275.371	7.89
275.585	6.56
275.8	4.46
276.015	3.82
276.229	3.4
276.444	0.14
276.659	1.39
276.873	0.83
277.088	3.17
277.302	3.49
277.517	3.81
277.732	4.07
277.946	4.27
278.161	4.76
278.375	6.5
278.59	8.36
278.804	10.38
279.019	11.79
279.233	12.96
279.448	10.54
279.662	10.61
279.877	12.39
280.091	11.46
280.306	10.03
280.52	11.8
280.735	10.25
280.949	9.73
281.163	7.86
281.378	5.36
281.592	2.61
281.806	4.48
282.021	3.97
282.235	2.94
282.449	1.8
282.664	3.82
282.878	2.43
283.092	4.15
283.307	4.35
283.521	6.28
283.735	5.74
283.949	8.83
284.164	6.75
284.378	6.26
284.592	5.35
284.806	5.68
285.02	5.38
285.234	5.03
285.449	4.7
285.663	4.52
285.877	5.79
286.091	6.51
286.305	4.95
286.519	5.48
286.733	6.52
286.947	8.48
287.161	11.4
287.375	11.3
287.589	11.75
287.803	11.52
288.017	11.62
288.231	9.41
288.445	11.8
288.659	12.72
288.873	14.68
289.087	14.94
289.301	13.06
289.515	10.99
289.729	11.75
289.943	12.13
290.157	12.02
290.371	11.5
290.584	13.08
290.798	11.25
291.012	11.36
291.226	8.42
291.44	9.7
291.654	10.17
291.867	10.17
292.081	9.49
292.295	9.48
292.509	10.26
292.722	10.36
292.936	10.79
293.15	11.51
293.364	10.25
293.577	13.47
293.791	10.85
294.005	10.1
294.218	7.92
294.432	9.13
294.645	9.62
294.859	9.82
295.073	9.55
295.286	8.43
295.5	7.52
295.713	9.04
295.927	7.27
296.14	9.03
296.354	8.74
296.568	10.64
296.781	9.58
296.994	9.42
297.208	9.44
297.421	10.17
297.635	10.03
297.848	10.01
298.062	9.13
298.275	9.79
298.489	9.45
298.702	12.47
298.915	12.05
299.129	11.53
299.342	10.59
299.555	10.54
299.769	10.17
299.982	11.19
300.195	12.92
300.409	12.58
300.622	10.87
300.835	8.75
301.048	4.87
301.262	4.54
301.475	6.77
301.688	8.12
301.901	7.15
302.115	5.58
302.328	3.88
302.541	4.91
302.754	4.87
302.967	6.12
303.18	8.18
303.393	9.96
303.607	10.75
303.82	10.72
304.033	11.24
304.246	11.23
304.459	12.42
304.672	12.54
304.885	11.14
305.098	11.69
305.311	13.49
305.524	13.36
305.737	13.52
305.95	12.23
306.163	11.36
306.376	11.29
306.589	10.05
306.802	8.6
307.015	8.53
307.228	8.58
307.44	6.6
307.653	4.94
307.866	4.51
308.079	2.55
308.292	4.67
308.505	6.42
308.718	6.56
308.93	7.89
309.143	9.58
309.356	10.93
309.569	9.38
309.781	11.85
309.994	12.41
310.207	11.82
310.42	13.12
310.632	13.36
310.845	12.52
311.058	12.99
311.27	14.58
311.483	14.09
311.696	13.06
311.908	13.94
312.121	13.16
312.333	12.26
312.546	13.38
312.759	13.16
312.971	10.39
313.184	9.37
313.396	7.16
313.609	6.04
313.821	7.22
314.034	8.2
314.246	8.93
314.459	9.54
314.671	11.08
314.884	8.92
315.096	9.09
315.309	11.75
315.521	13.79
315.733	14.51
315.946	12.28
316.158	11.15
316.371	10.25
316.583	9.36
316.795	9.84
317.008	8.99
317.22	8.84
317.432	5.7
317.644	4.45
317.857	5.4
318.069	4.72
318.281	6.88
318.494	5.68
318.706	6.65
318.918	5.89
319.13	6.73
319.342	4.25
319.555	7.98
319.767	9.69
319.979	9.92
320.191	9.65
320.403	10.69
320.615	9.53
320.827	10.82
321.039	10.04
321.252	8.5
321.464	5.31
321.676	9.64
321.888	6.2
322.1	7.6
322.312	6.66
322.524	4.98
322.736	3.1
322.948	4.96
323.16	6.15
323.372	7.99
323.584	9.5
323.796	11.11
324.007	8.62
324.219	9.69
324.431	9.56
324.643	10.28
324.855	10.6
325.067	11.52
325.279	10.66
325.491	9.06
325.702	8.63
325.914	8.89
326.126	8.54
326.338	8.52
326.55	8.07
326.761	6.48
326.973	7.43
327.185	6.63
327.396	5.52
327.608	4.82
327.82	4.62
328.032	3.49
328.243	2.29
328.455	2.16
328.666	3.86
328.878	5.71
329.09	8.3
329.301	8.1
329.513	8.54
329.725	8.4
329.936	10.57
330.148	12.38
330.359	12.3
330.571	13.47
330.782	12.08
330.994	10.64
331.205	7.55
331.417	5.97
331.628	3.36
331.84	2.93
332.051	5.43
332.262	3.98
332.474	3.27
332.685	3.75
332.897	2.13
333.108	3.42
333.319	3.85
333.531	4.95
333.742	5.75
333.953	8.18
334.165	9.18
334.376	9.5
334.587	9.08
334.799	8.7
335.01	9.5
335.221	10.22
335.432	10.73
335.644	11.59
335.855	12.43
336.066	13.41
336.277	12.03
336.488	12.45
336.7	13.68
336.911	15.12
337.122	16.5
337.333	14.91
337.544	16.18
337.755	16.01
337.966	14.23
338.177	14.17
338.388	12.54
338.599	15.05
338.811	14.53
339.022	11.6
339.233	11.04
339.444	9.88
339.655	10.72
339.866	8.28
340.076	8.91
340.287	10.26
340.498	10.34
340.709	10.58
340.92	9.69
341.131	8.95
341.342	8.94
341.553	9.17
341.764	9.72
341.975	9.4
342.185	11.91
342.396	10.78
342.607	11.04
342.818	10.51
343.029	11.42
343.239	11.62
343.45	11.56
343.661	12.49
343.872	11.54
344.082	11.78
344.293	11.97
344.504	11.17
344.714	10.98
344.925	9.14
345.136	8.46
345.346	7.07
345.557	6.22
345.768	5.84
345.978	5.06
346.189	4.15
346.399	3.62
346.61	3.47
346.821	2.67
347.031	3.49
347.242	3.87
347.452	4.26
347.663	5.24
347.873	5.88
348.084	6.59
348.294	8.06
348.504	9.62
348.715	9.48
348.925	9.75
349.136	10.36
349.346	10.09
349.557	11.47
349.767	11.31
349.977	10.19
350.188	10.1
350.398	9.37
350.608	8.94
350.819	8.96
351.029	7.68
351.239	7.83
351.449	7.29
351.66	8.41
351.87	6.81
352.08	7.2
352.29	8.32
352.501	8.49
352.711	9.36
352.921	9.57
353.131	9.44
353.341	10.25
353.552	10.11
353.762	10.14
353.972	9.16
354.182	9.57
354.392	8.44
354.602	8.6
354.812	7.72
355.022	7.46
355.232	7.68
355.442	6.88
355.652	7.02
355.862	6.55
356.072	7.31
356.282	6.1
356.492	7.17
356.702	8.39
356.912	7.84
357.122	8.34
357.332	7.43
357.542	5.57
357.752	5.32
357.962	5.82
358.171	4.25
358.381	5.06
358.591	6.16
358.801	5.91
359.011	6.17
359.221	6.18
359.43	5.87
359.64	7.14
359.85	7.75
360.06	8.49
360.269	8.46
360.479	9.82
360.689	9.08
360.899	8.74
361.108	8.9
361.318	8.9
361.528	8.31
361.737	7.86
361.947	7.93
362.156	8.37
362.366	8.73
362.576	8.38
362.785	8.73
362.995	9.18
363.204	8.5
363.414	8.73
363.623	8.09
363.833	9.3
364.042	8.44
364.252	7.53
364.461	7.35
364.671	6.37
364.88	6.03
365.09	6.61
365.299	6.45
365.509	7.68
365.718	5.75
365.927	5.89
366.137	5.19
366.346	6.8
366.555	7.22
366.765	6.97
366.974	7.26
367.183	7.9
367.393	6.3
367.602	5.12
367.811	5.08
368.021	6.03
368.23	6.12
368.439	5.24
368.648	6.26
368.857	6.6
369.067	6.04
369.276	4.84
369.485	3.83
369.694	3.83
369.903	4.56
370.112	5.32
370.321	5.14
370.531	4.95
370.74	5.72
370.949	5.16
371.158	5.05
371.367	6.09
371.576	6.63
371.785	7.03
371.994	7.53
372.203	7.37
372.412	6.25
372.621	7.44
372.83	7.39
373.039	7.7
373.248	7.31
373.457	6.52
373.666	6.71
373.874	6.71
374.083	6.06
374.292	6.44
374.501	6.35
374.71	6.77
374.919	5.23
375.128	5.76
375.336	4.88
375.545	4.64
375.754	5.68
375.963	5.67
376.171	6.02
376.38	6.6
376.589	5.62
376.798	6.26
377.006	6.16
377.215	6.58
377.424	5.69
377.632	6.05
377.841	5.92
378.05	5.87
378.258	5.37
378.467	5.29
378.675	5.92
378.884	6.4
379.093	6.19
379.301	6.34
379.51	6.29
379.718	6.35
379.927	6.06
380.135	6.82
380.344	6.67
380.552	6.19
380.761	6.13
380.969	5.67
381.177	6.2
381.386	5.75
381.594	4.98
381.803	5.17
382.011	5.83
382.219	5.69
382.428	5.62
382.636	5.03
382.845	5.66
383.053	5.95
383.261	5.58
383.469	5
383.678	4.65
383.886	5.14
384.094	5.54
384.302	4.6
384.511	4.54
384.719	4.01
384.927	4.03
385.135	4.33
385.343	4.16
385.552	4.74
385.76	5.28
385.968	5.68
386.176	5.66
386.384	4.94
386.592	5.7
386.8	6.35
387.008	6.79
387.216	7.47
387.424	7.08
387.633	6.98
387.841	6.58
388.049	6.4
388.257	6.89
388.465	6.39
388.672	6.32
388.88	6.49
389.088	6.11
389.296	5.93
389.504	5.85
389.712	5.69
389.92	5.95
390.128	5.75
390.336	5.56
390.544	4.66
390.751	5.06
390.959	4.89
391.167	4.89
391.375	5.08
391.583	5.01
391.79	4.3
391.998	4.48
392.206	4.24
392.414	4.48
392.621	4.39
392.829	4.38
393.037	4.34
393.244	4.76
393.452	4.39
393.66	3.58
393.867	3.28
394.075	3.88
394.283	3.97
394.49	4.22
394.698	3.89
394.905	3.93
395.113	3.63
395.32	3.66
395.528	3.49
395.735	3.39
395.943	3.93
396.15	4.11
396.358	4.15
396.565	3.57
396.773	3.4
396.98	3.35
397.188	3.32
397.395	3.51
397.602	3.15
397.81	2.93
398.017	2.95
398.225	3.13
398.432	2.47
398.639	1.99
398.847	2.58
399.054	2.61
399.261	2.62
399.468	2.78
399.676	3.34
399.883	3.49
400.09	4.17
400.297	4.52
400.505	4.49
400.712	4.9
400.919	5.17
401.126	4.97
401.333	4.81
401.54	4.82
401.748	4.41
401.955	4.22
402.162	4.4
402.369	3.97
402.576	3.91
402.783	3.31
402.99	3.5
403.197	3.68
403.404	4.07
403.611	3.95
403.818	4
404.025	4.18
404.232	4.22
404.439	3.99
404.646	3.64
404.853	3.61
405.06	4.06
405.267	4.07
405.474	3.61
405.681	3.16
405.887	3.47
406.094	3.4
406.301	3.15
406.508	3.11
406.715	3.28
406.922	3.48
407.128	3.34
407.335	3.28
407.542	3.04
407.749	3.08
407.955	3.19
408.162	2.93
408.369	2.81
408.575	2.83
408.782	2.48
408.989	2.41
409.195	3.15
409.402	3.39
409.609	2.96
409.815	3.25
410.022	3.02
410.228	3.21
410.435	3.13
410.642	3.43
410.848	3.86
411.055	4.04
411.261	4.14
411.468	3.47
411.674	3.25
411.881	3.32
412.087	3.03
412.294	3.32
412.5	3.26
412.706	3.04
412.913	2.94
413.119	2.69
413.326	2.8
413.532	2.3
413.738	2.46
413.945	2.4
414.151	2.68
414.357	2.99
414.564	3.06
414.77	2.73
414.976	2.72
415.182	3.04
415.389	3.08
415.595	3.21
415.801	3.32
416.007	3.02
416.214	2.8
416.42	2.97
416.626	2.9
416.832	2.96
417.038	3.08
417.244	3.31
417.45	3.15
417.657	2.97
417.863	2.92
418.069	3.31
418.275	3.41
418.481	3.55
418.687	3.5
418.893	3.66
419.099	3.68
419.305	3.67
419.511	3.46
419.717	3.45
419.923	3.41
420.129	3.29
420.335	2.99
420.541	3.19
420.746	3.24
420.952	3.29
421.158	3.14
421.364	3.13
421.57	2.91
421.776	3.16
421.982	3.18
422.187	3.28
422.393	3.49
422.599	3.66
422.805	3.51
423.01	3.55
423.216	3.63
423.422	3.63
423.628	3.59
423.833	3.83
424.039	3.64
424.245	3.6
424.45	3.54
424.656	3.32
424.862	3.25
425.067	3.25
425.273	3.26
425.478	3.05
425.684	3.09
425.889	2.96
426.095	2.88
426.301	2.91
426.506	2.89
426.712	2.79
426.917	2.78
427.123	2.89
427.328	2.78
427.533	2.7
427.739	2.57
427.944	2.38
428.15	2.66
428.355	2.77
428.561	2.77
428.766	2.75
428.971	2.63
429.177	2.86
429.382	2.88
429.587	2.97
429.793	2.66
429.998	2.6
430.203	2.82
430.408	2.59
430.614	2.21
430.819	2.41
431.024	2.38
431.229	2.68
431.434	2.45
431.64	2.43
431.845	2.67
432.05	2.83
432.255	2.91
432.46	2.72
432.665	2.67
432.87	2.93
433.076	2.71
433.281	2.52
433.486	2.6
433.691	2.67
433.896	2.54
434.101	2.38
434.306	2.57
434.511	2.7
434.716	2.74
434.921	2.78
435.126	2.85
435.331	3.07
435.535	3.31
435.74	3.3
435.945	3.34
436.15	3.35
436.355	3.33
436.56	3.2
436.765	3.23
436.97	3.33
437.174	3.2
437.379	3.24
437.584	3.24
437.789	3.22
437.993	3.08
438.198	3.07
438.403	3.05
438.608	2.97
438.812	3.06
439.017	3.14
439.222	3.16
439.426	3.45
439.631	3.38
439.836	3.25
440.04	3.18
440.245	3.26
440.45	3.17
440.654	3.2
440.859	3.25
441.063	3.21
441.268	3.16
441.472	3.09
441.677	3.02
441.881	2.97
442.086	3.13
442.29	3.19
442.495	3.3
442.699	3.31
442.904	3.42
443.108	3.31
443.312	3.26
443.517	3.27
443.721	3.51
443.925	3.37
444.13	3.31
444.334	3.11
444.538	3.09
444.743	2.95
444.947	3.03
445.151	3.03
445.356	3.18
445.56	3.06
445.764	3.06
445.968	2.68
446.173	2.76
446.377	2.73
446.581	2.9
446.785	2.82
446.989	2.85
447.193	2.75
447.398	2.7
447.602	2.53
447.806	2.48
448.01	2.41
448.214	2.52
448.418	2.39
448.622	2.49
448.826	2.39
449.03	2.4
449.234	2.27
449.438	2.35
449.642	2.09
449.846	2.27
450.05	2.31
450.254	2.24
450.458	2.42
450.662	2.5
450.866	2.32
451.069	2.12
451.273	2.14
451.477	2.12
451.681	2.16
451.885	2.33
452.089	2.36
452.292	2.43
452.496	2.37
452.7	2.26
452.904	2.33
453.107	2.36
453.311	2.5
453.515	2.47
453.719	2.56
453.922	2.51
454.126	2.37
454.33	2.31
454.533	2.3
454.737	2.23
454.94	2.3
455.144	2.36
455.348	2.6
455.551	2.6
455.755	2.79
455.958	2.78
456.162	2.88
456.365	3.06
456.569	2.93
456.772	2.87
456.976	3.21
457.179	3.06
457.383	2.93
457.586	2.64
457.79	2.73
457.993	2.74
458.196	2.57
458.4	2.73
458.603	2.77
458.807	2.67
459.01	2.7
459.213	2.38
459.417	2.46
459.62	2.42
459.823	2.65
460.026	2.5
460.23	2.39
460.433	2.43
460.636	2.28
460.839	2.16
461.042	2.28
461.246	2.34
461.449	2.61
461.652	2.46
461.855	2.65
462.058	2.43
462.261	2.47
462.464	2.67
462.668	2.6
462.871	2.49
463.074	2.74
463.277	3.01
463.48	3.08
463.683	3.01
463.886	3.32
464.089	3.03
464.292	3.04
464.495	3.24
464.698	3.2
464.901	3.27
465.104	3.27
465.306	3.12
465.509	2.82
465.712	2.87
465.915	2.91
466.118	2.78
466.321	2.83
466.524	2.83
466.726	2.74
466.929	2.62
467.132	2.81
467.335	2.88
467.538	2.91
467.74	3
467.943	2.71
468.146	2.63
468.348	2.45
468.551	2.72
468.754	2.74
468.956	2.8
469.159	2.73
469.362	2.65
469.564	2.65
469.767	2.53
469.969	2.46
470.172	2.53
470.375	2.6
470.577	2.72
470.78	2.46
470.982	2.31
471.185	2.36
471.387	2.53
471.59	2.65
471.792	2.54
471.995	2.86
472.197	2.9
472.399	3.04
472.602	3.09
472.804	3.05
473.007	2.99
473.209	3.08
473.411	3.21
473.614	3.1
473.816	2.81
474.018	2.85
474.22	2.75
474.423	2.6
474.625	2.49
474.827	2.38
475.03	2.45
475.232	2.53
475.434	2.58
475.636	2.41
475.838	2.55
476.04	2.67
476.243	2.78
476.445	2.66
476.647	2.86
476.849	2.98
477.051	2.92
477.253	3
477.455	2.99
477.657	2.95
477.859	2.99
478.061	2.74
478.263	2.86
478.465	2.79
478.667	2.84
478.869	2.69
479.071	2.66
479.273	2.76
479.475	2.89
479.677	2.93
479.879	2.99
480.081	2.89
480.283	3.02
480.485	2.86
480.686	2.86
480.888	2.69
481.09	2.84
481.292	2.86
481.494	2.85
481.695	2.84
481.897	2.85
482.099	2.74
482.301	2.69
482.502	2.79
482.704	2.79
482.906	2.7
483.107	2.75
483.309	2.77
483.511	2.68
483.712	2.69
483.914	2.58
484.115	2.53
484.317	2.61
484.519	2.63
484.72	2.59
484.922	2.55
485.123	2.57
485.325	2.53
485.526	2.48
485.728	2.53
485.929	2.45
486.131	2.52
486.332	2.57
486.534	2.48
486.735	2.45
486.936	2.43
487.138	2.5
487.339	2.6
487.541	2.61
487.742	2.53
487.943	2.48
488.144	2.56
488.346	2.54
488.547	2.59
488.748	2.69
488.95	2.69
489.151	2.73
489.352	2.66
489.553	2.58
489.755	2.55
489.956	2.65
490.157	2.74
490.358	2.71
490.559	2.75
490.76	2.72
490.961	2.56
491.163	2.57
491.364	2.53
491.565	2.51
491.766	2.66
491.967	2.65
492.168	2.59
492.369	2.58
492.57	2.57
492.771	2.6
492.972	2.52
493.173	2.61
493.374	2.6
493.575	2.55
493.776	2.74
493.976	2.52
494.177	2.74
494.378	2.84
494.579	2.74
494.78	2.76
494.981	2.68
495.182	2.69
495.382	2.74
495.583	2.83
495.784	2.84
495.985	2.88
496.185	2.86
496.386	2.73
496.587	2.68
496.788	2.75
496.988	2.87
497.189	2.69
497.39	2.58
497.59	2.59
497.791	2.54
497.992	2.54
498.192	2.5
498.393	2.59
498.593	2.54
498.794	2.58
498.994	2.53
499.195	2.49
499.395	2.55
499.596	2.77
499.796	2.64
499.997	2.74
500.197	2.73
500.398	2.56
500.598	2.56
500.799	2.67
500.999	2.48
501.199	2.57
501.4	2.53
501.6	2.5
501.801	2.56
502.001	2.51
502.201	2.39
502.402	2.47
502.602	2.67
502.802	2.72
503.002	2.74
503.203	2.86
503.403	2.94
503.603	2.96
503.803	3.15
504.003	3.01
504.204	3.06
504.404	3.08
504.604	3.09
504.804	2.94
505.004	2.84
505.204	2.85
505.404	2.98
505.604	2.95
505.804	2.77
506.005	2.64
506.205	2.62
506.405	2.68
506.605	2.76
506.805	2.71
507.005	2.74
507.204	2.9
507.404	2.86
507.604	2.8
507.804	2.73
508.004	2.83
508.204	2.97
508.404	2.97
508.604	2.91
508.804	2.67
509.003	2.67
509.203	2.52
509.403	2.49
509.603	2.59
509.803	2.64
510.002	2.77
510.202	2.9
510.402	2.74
510.602	2.82
510.801	2.83
511.001	3.12
511.201	3.11
511.4	3.41
511.6	3.46
511.8	3.4
511.999	3.46
512.199	3.3
512.398	3.18
512.598	3.3
512.797	3.16
512.997	3.18
513.197	3.06
513.396	3.14
513.596	3.05
513.795	2.98
513.994	3.02
514.194	2.93
514.393	2.92
514.593	3.01
514.792	2.97
514.992	3.02
515.191	3.17
515.39	3.14
515.59	3.19
515.789	3.15
515.988	3.04
516.188	3.09
516.387	3.17
516.586	3.33
516.786	3.22
516.985	3.27
517.184	3.3
517.383	3.18
517.582	3.39
517.782	3.38
517.981	3.47
518.18	3.46
518.379	3.29
518.578	3.22
518.777	3.18
518.976	3.19
519.176	3.13
519.375	3.17
519.574	3.18
519.773	3.06
519.972	3.09
520.171	3.06
520.37	3.18
520.569	3.21
520.768	3.31
520.967	3.24
521.166	3.23
521.365	3.28
521.564	3.44
521.762	3.4
521.961	3.39
522.16	3.16
522.359	3.08
522.558	3.06
522.757	3.15
522.956	3.01
523.154	3.04
523.353	3.1
523.552	3.04
523.751	2.86
523.949	2.95
524.148	2.99
524.347	3.23
524.546	3.28
524.744	3.28
524.943	3.38
525.142	3.44
525.34	3.6
525.539	3.67
525.737	3.7
525.936	3.71
526.135	3.78
526.333	3.76
526.532	3.7
526.73	3.8
526.929	3.84
527.127	3.67
527.326	3.63
527.524	3.54
527.723	3.57
527.921	3.64
528.12	3.73
528.318	3.75
528.516	3.73
528.715	3.77
528.913	3.73
529.112	3.72
529.31	3.85
529.508	3.87
529.707	3.87
529.905	3.87
530.103	3.86
530.301	3.81
530.5	3.81
530.698	3.86
530.896	3.95
531.094	3.91
531.293	3.93
531.491	3.93
531.689	3.99
531.887	4.15
532.085	4.2
532.283	4.14
532.481	4.19
532.68	4.13
532.878	4.09
533.076	3.99
533.274	4.02
533.472	4.13
533.67	4.07
533.868	4.17
534.066	4.1
534.264	4.11
534.462	4.2
534.66	4.23
534.858	4.33
535.056	4.37
535.253	4.38
535.451	4.47
535.649	4.34
535.847	4.42
536.045	4.28
536.243	4.28
536.441	4.17
536.638	4.25
536.836	4.13
537.034	4.15
537.232	4.31
537.43	4.3
537.627	4.27
537.825	4.38
538.023	4.31
538.22	4.39
538.418	4.34
538.616	4.44
538.813	4.22
539.011	4.4
539.209	4.25
539.406	4.14
539.604	4.2
539.801	4.24
539.999	4.26
540.196	4.22
540.394	4.28
540.591	4.34
540.789	4.34
540.986	4.48
541.184	4.44
541.381	4.61
541.579	4.6
541.776	4.62
541.974	4.72
542.171	4.77
542.368	4.92
542.566	5
542.763	5.09
542.96	5.14
543.158	5.19
543.355	5.18
543.552	5.12
543.75	5.12
543.947	5.11
544.144	4.9
544.341	4.85
544.539	4.7
544.736	4.63
544.933	4.57
545.13	4.62
545.327	4.65
545.524	4.73
545.722	4.8
545.919	5.06
546.116	5.15
546.313	5.32
546.51	5.25
546.707	5.34
546.904	5.37
547.101	5.51
547.298	5.53
547.495	5.41
547.692	5.39
547.889	5.3
548.086	5.25
548.283	5.23
548.48	5.26
548.677	5.21
548.874	5.32
549.07	5.1
549.267	5.04
549.464	4.91
549.661	4.92
549.858	5.11
550.055	5.09
550.251	4.99
550.448	4.89
550.645	4.89
550.842	5.27
551.038	5.26
551.235	5.53
551.432	5.56
551.628	5.67
551.825	5.99
552.022	5.93
552.218	5.87
552.415	6.04
552.612	6.16
552.808	6.27
553.005	6.15
553.201	6.27
553.398	6.2
553.594	6.01
553.791	6.24
553.987	6.06
554.184	6.06
554.38	6.13
554.577	5.94
554.773	6.1
554.97	5.89
555.166	5.84
555.362	5.68
555.559	5.76
555.755	5.87
555.952	5.56
556.148	5.55
556.344	5.68
556.541	5.88
556.737	6.09
556.933	6.12
557.129	6.44
557.326	6.34
557.522	6.4
557.718	6.44
557.914	6.44
558.11	6.69
558.307	6.86
558.503	6.74
558.699	6.61
558.895	6.55
559.091	6.65
559.287	6.56
559.483	7.03
559.679	7.2
559.876	7.27
560.072	7.5
560.268	7.54
560.464	7.52
560.66	7.64
560.856	7.85
561.052	7.92
561.247	7.87
561.443	7.88
561.639	7.84
561.835	7.81
562.031	7.94
562.227	7.87
562.423	7.96
562.619	8.07
562.815	8.05
563.01	8.03
563.206	8.02
563.402	8.12
563.598	8.36
563.793	8.08
563.989	8.26
564.185	8.23
564.381	8.32
564.576	8.07
564.772	8.14
564.968	8.28
565.163	8.39
565.359	8.39
565.555	8.27
565.75	8.14
565.946	8.65
566.141	8.71
566.337	8.71
566.532	8.67
566.728	8.7
566.923	8.64
567.119	8.69
567.314	8.76
567.51	8.99
567.705	9.38
567.901	9.48
568.096	9.14
568.292	9
568.487	9.04
568.682	9.26
568.878	9.64
569.073	9.68
569.268	9.72
569.464	9.64
569.659	9.62
569.854	9.5
570.05	9.33
570.245	9.47
570.44	9.53
570.635	9.61
570.831	9.5
571.026	9.6
571.221	9.86
571.416	10.05
571.611	10.1
571.806	9.95
572.002	9.79
572.197	10.13
572.392	10.07
572.587	10.04
572.782	10.04
572.977	10.1
573.172	10.11
573.367	9.91
573.562	9.88
573.757	9.93
573.952	10.25
574.147	10.42
574.342	10.41
574.537	10.79
574.732	11.07
574.927	11.19
575.121	11.19
575.316	11
575.511	11.05
575.706	10.99
575.901	11.12
576.096	10.88
576.29	10.83
576.485	10.83
576.68	10.85
576.875	10.79
577.069	10.79
577.264	10.88
577.459	11.14
577.654	11.4
577.848	11.44
578.043	11.36
578.238	11.25
578.432	11.25
578.627	11.32
578.821	10.81
579.016	10.68
579.21	10.71
579.405	10.76
579.6	10.75
579.794	10.44
579.989	10.18
580.183	10.35
580.378	10.88
580.572	10.95
580.766	10.69
580.961	10.91
581.155	10.99
581.35	11.08
581.544	11.26
581.738	11.29
581.933	11.46
582.127	11.88
582.321	11.96
582.516	11.69
582.71	11.75
582.904	12.05
583.099	12.38
583.293	12.63
583.487	12.26
583.681	11.98
583.875	11.89
584.07	12
584.264	11.76
584.458	11.78
584.652	11.93
584.846	12.17
585.04	11.96
585.234	11.58
585.428	11.6
585.623	12.24
585.817	12.25
586.011	12.36
586.205	12.24
586.399	12.04
586.593	12.2
586.787	12.17
586.981	12.07
587.174	12
587.368	12
587.562	11.99
587.756	11.72
587.95	11.85
588.144	11.77
588.338	11.85
588.532	11.92
588.725	11.53
588.919	11.58
589.113	11.37
589.307	11.73
589.501	11.72
589.694	11.44
589.888	11.33
590.082	11.46
590.275	11.69
590.469	11.79
590.663	11.99
590.856	11.9
591.05	11.9
591.244	12.08
591.437	11.94
591.631	12.04
591.824	12.36
592.018	12.54
592.212	12.7
592.405	12.36
592.599	12.49
592.792	12.82
592.986	13.3
593.179	13.3
593.372	13.38
593.566	13.61
593.759	13.46
593.953	13.3
594.146	13.34
594.339	13.12
594.533	13.17
594.726	13.07
594.92	12.69
595.113	12.44
595.306	12.56
595.499	12.64
595.693	12.57
595.886	12.58
596.079	12.8
596.272	12.66
596.466	12.84
596.659	12.66
596.852	12.93
597.045	12.83
597.238	12.73
597.431	12.5
597.624	12.67
597.818	12.78
598.011	12.96
598.204	12.82
598.397	13.04
598.59	12.67
598.783	13.06
598.976	12.59
599.169	12.9
599.362	13.13
599.555	13.35
599.748	12.9
599.941	12.78
600.134	12.83
600.326	12.67
600.519	12.46
600.712	12.42
600.905	12.32
601.098	12.22
601.291	12.16
601.483	12.2
601.676	12.07
601.869	12.25
602.062	12.16
602.255	12.33
602.447	12.41
602.64	12.65
602.833	13.21
603.025	13.11
603.218	13.54
603.411	13.61
603.603	13.52
603.796	13.56
603.989	13.5
604.181	13.69
604.374	13.56
604.566	13.62
604.759	13.51
604.951	13.51
605.144	13.57
605.336	13.41
605.529	13.48
605.721	13.51
605.914	13.5
606.106	13.34
606.299	13.09
606.491	13.17
606.683	13.05
606.876	13.09
607.068	12.47
607.26	12.14
607.453	12.31
607.645	12.33
607.837	12.56
608.03	12.71
608.222	12.82
608.414	13
608.606	13.04
608.799	13.01
608.991	12.9
609.183	13.27
609.375	13.74
609.567	13.54
609.759	13.49
609.952	13.21
610.144	13.27
610.336	13.49
610.528	13.55
610.72	13.38
610.912	13.53
611.104	13.7
611.296	13.69
611.488	13.43
611.68	13.51
611.872	13.22
612.064	13.39
612.256	13.26
612.448	13.11
612.64	12.91
612.832	12.97
613.023	12.86
613.215	12.74
613.407	12.91
613.599	13.06
613.791	13.01
613.983	13.25
614.174	13.09
614.366	13.28
614.558	13.01
614.75	13.05
614.941	13.01
615.133	13.19
615.325	12.61
615.516	12.76
615.708	12.75
615.9	12.63
616.091	12.62
616.283	12.93
616.475	12.89
616.666	13.18
616.858	13
617.049	13.19
617.241	12.9
617.432	13.6
617.624	13.5
617.815	13.23
618.007	13.79
618.198	14.03
618.39	14.07
618.581	13.85
618.773	13.93
618.964	14.12
619.155	14.18
619.347	14.28
619.538	14.28
619.729	14.04
619.921	14.13
620.112	13.78
620.303	13.25
620.494	13.28
620.686	13.64
620.877	13.43
621.068	13.22
621.259	13.34
621.451	13.72
621.642	13.67
621.833	13.73
622.024	13.96
622.215	13.8
622.406	14.1
622.597	13.98
622.788	13.43
622.98	13.86
623.171	13.98
623.362	13.51
623.553	13.02
623.744	12.87
623.935	13.1
624.126	13.13
624.317	13.33
624.508	13
624.698	13.01
624.889	13.38
625.08	13.37
625.271	13.34
625.462	13.56
625.653	13.79
625.844	13.81
626.034	13.96
626.225	13.67
626.416	13.75
626.607	14.09
626.798	13.79
626.988	13.56
627.179	13.42
627.37	13.77
627.56	13.63
627.751	13.67
627.942	13.89
628.132	13.84
628.323	14.07
628.514	13.93
628.704	13.87
628.895	14.08
629.085	14.22
629.276	14.41
629.466	14.28
629.657	14.37
629.847	14.26
630.038	13.88
630.228	13.5
630.419	13.43
630.609	13.59
630.8	13.64
630.99	13.65
631.181	13.41
631.371	13.16
631.561	13.13
631.752	12.89
631.942	13.16
632.132	13.31
632.323	13.56
632.513	13.62
632.703	13.3
632.893	13.25
633.084	13.2
633.274	13.67
633.464	13.78
633.654	13.93
633.844	14.22
634.034	14.22
634.225	14.37
634.415	13.92
634.605	14
634.795	14.16
634.985	14.22
635.175	14.45
635.365	14.28
635.555	14.82
635.745	14.72
635.935	14.91
636.125	14.87
636.315	14.89
636.505	15
636.695	15.22
636.885	15.42
637.075	15.32
637.265	15.64
637.455	15.27
637.644	14.23
637.834	14.22
638.024	14.01
638.214	13.95
638.404	14.13
638.593	14.31
638.783	14.06
638.973	14.27
639.163	14.3
639.352	13.61
639.542	13.92
639.732	14.3
639.921	14.26
640.111	14.53
640.301	14.65
640.49	14.31
640.68	14.05
640.87	13.7
641.059	13.25
641.249	13.14
641.438	13.36
641.628	13.31
641.817	13.25
642.007	13.27
642.196	12.65
642.386	12.47
642.575	12.56
642.764	13.01
642.954	12.94
643.143	13.01
643.333	13.32
643.522	13.41
643.711	13.34
643.901	13.45
644.09	12.97
644.279	13.21
644.469	13.61
644.658	13.45
644.847	12.89
645.036	12.86
645.226	12.68
645.415	12.48
645.604	12.09
645.793	12.48
645.982	12.69
646.171	13.09
646.361	13.28
646.55	12.85
646.739	12.91
646.928	13.35
647.117	14.05
647.306	14.46
647.495	14.69
647.684	15.47
647.873	15.19
648.062	14.93
648.251	15.01
648.44	15.05
648.629	15.26
648.818	15.25
649.007	15.26
649.196	15.17
649.384	15.02
649.573	15.3
649.762	14.7
649.951	14.53
650.14	14.74
650.328	14.81
650.517	14.81
650.706	14.54
650.895	14.57
651.083	14.32
651.272	14.37
651.461	14.73
651.65	14.88
651.838	15.09
652.027	15.33
652.216	15.06
652.404	14.78
652.593	14.6
652.781	14.79
652.97	14.83
653.158	14.51
653.347	14.55
653.535	14.13
653.724	13.64
653.912	13.76
654.101	13.66
654.289	13.87
654.478	13.74
654.666	14.36
654.855	14.8
655.043	15.08
655.231	15.74
655.42	15.72
655.608	16.08
655.796	15.96
655.985	16
656.173	16.37
656.361	15.92
656.55	16.54
656.738	16.2
656.926	15.42
657.114	15.06
657.302	15.13
657.491	15.2
657.679	14.76
657.867	15.09
658.055	14.78
658.243	15.01
658.431	15.23
658.619	14.97
658.807	14.91
658.996	14.98
659.184	15.49
659.372	15.39
659.56	15.27
659.748	15.45
659.936	15.24
660.124	15.49
660.311	15
660.499	15
660.687	15.04
660.875	15.05
661.063	15.42
661.251	15.03
661.439	14.95
661.627	14.8
661.814	14.73
662.002	14.59
662.19	14.76
662.378	15.18
662.565	15.16
662.753	14.88
662.941	14.97
663.129	14.94
663.316	14.73
663.504	14.57
663.692	14.81
663.879	14.96
664.067	15.3
664.254	14.86
664.442	14.54
664.63	14.54
664.817	14.5
665.005	14.17
665.192	13.86
665.38	14.2
665.567	14.2
665.755	13.73
665.942	13.14
666.13	12.75
666.317	12.97
666.504	13.06
666.692	13.46
666.879	13.64
667.067	14.05
667.254	14.34
667.441	14.29
667.629	15.03
667.816	14.95
668.003	15.02
668.19	15.17
668.378	15.01
668.565	14.93
668.752	14.71
668.939	14.83
669.127	14.32
669.314	14.18
669.501	13.7
669.688	13.2
669.875	14
670.062	14.31
670.249	14.41
670.436	14.07
670.623	13.85
670.81	13.84
670.997	13.71
671.184	13.91
671.371	13.57
671.558	14.09
671.745	14.87
671.932	13.88
672.119	14.06
672.306	13.41
672.493	13.84
672.68	14.73
672.867	15.83
673.054	15.84
673.24	16.2
673.427	16.53
673.614	16.62
673.801	15.95
673.988	16.84
674.174	16.55
674.361	17.46
674.548	17.55
674.734	17.04
674.921	16.43
675.108	16.22
675.294	15.65
675.481	15.67
675.668	15.1
675.854	15.26
676.041	15.55
676.227	15.9
676.414	15.99
676.601	16.14
676.787	16.09
676.974	16.19
677.16	16.69
677.347	16.59
677.533	16.89
677.719	17.47
677.906	17.54
678.092	17.29
678.279	17.5
678.465	17.6
678.651	17.57
678.838	17.59
679.024	17.21
679.21	17.61
679.397	17.95
679.583	17.93
679.769	17.76
679.955	17.59
680.142	16.79
680.328	16.91
680.514	16.31
680.7	16.55
680.886	16.63
681.073	16.37
681.259	15.91
681.445	15.93
681.631	15.76
681.817	15.45
682.003	15.36
682.189	16.27
682.375	15.66
682.561	15.71
682.747	14.97
682.933	14.74
683.119	15.19
683.305	15.32
683.491	15.21
683.677	15.03
683.863	15.46
684.049	15.58
684.235	15.2
684.42	15.08
684.606	14.84
684.792	15.18
684.978	15.52
685.164	15.45
685.349	15.63
685.535	16.16
685.721	15.93
685.907	15.42
686.092	15.36
686.278	14.98
686.464	15.46
686.649	16.11
686.835	16.2
687.021	16.25
687.206	16.12
687.392	15.51
687.577	15.02
687.763	15.6
687.948	16.21
688.134	15.87
688.319	16.25
688.505	16.25
688.69	16.31
688.876	16.04
689.061	15.92
689.247	16.27
689.432	16.79
689.618	17.25
689.803	17.44
689.988	17.29
690.174	17.31
690.359	17
690.544	17.23
690.73	17.31
690.915	17.54
691.1	17.36
691.285	16.71
691.471	16.45
691.656	16.46
691.841	15.95
692.026	15.76
692.211	16.27
692.396	16.98
692.582	16.46
692.767	16.38
692.952	16.14
693.137	16.67
693.322	17.21
693.507	17.78
693.692	17.3
693.877	17.89
694.062	18.25
694.247	18.4
694.432	17.73
694.617	18.07
694.802	17.43
694.987	18.62
695.172	18.78
695.357	18.66
695.541	18.81
695.726	18.79
695.911	18.57
696.096	18.26
696.281	18.44
696.466	18.73
696.65	18.85
696.835	19.33
697.02	18.94
697.204	18.65
697.389	18.82
697.574	18.81
697.759	19.27
697.943	19.22
698.128	19.49
698.312	19.5
698.497	19.37
698.682	19.01
698.866	18.45
699.051	18.22
699.235	18.04
699.42	17.98
699.604	17.49
699.789	17.61
699.973	17.38
700.158	16.96
700.342	16.92
700.527	16.93
700.711	17.02
700.895	17.29
701.08	16.81
701.264	16.11
701.448	15.53
701.633	15.68
701.817	15.52
702.001	15.82
702.186	16.33
702.37	15.88
702.554	15.79
702.738	16.53
702.923	16.47
703.107	17.26
703.291	17.82
703.475	18.32
703.659	18.29
703.843	18.32
704.027	17.73
704.212	16.92
704.396	16.2
704.58	16.4
704.764	15.37
704.948	16.48
705.132	15.55
705.316	15.29
705.5	15.68
705.684	15.35
705.868	13.95
706.052	14.64
706.235	15.43
706.419	15.83
706.603	15.38
706.787	15.92
706.971	14.92
707.155	16.21
707.339	17.08
707.522	16.55
707.706	16.75
707.89	17.22
708.074	16.41
708.257	17.31
708.441	17.68
708.625	18.05
708.808	17.99
708.992	17.96
709.176	17.03
709.359	17.01
709.543	16.95
709.727	17.52
709.91	17.91
710.094	18.87
710.277	17.72
710.461	17.23
710.644	17.38
710.828	17.02
711.011	17.31
711.195	17.15
711.378	16.66
711.562	16.88
711.745	16.95
711.928	16.71
712.112	15.85
712.295	15.53
712.478	16.41
712.662	16.36
712.845	16.33
713.028	16.16
713.212	17.26
713.395	17.79
713.578	16.84
713.761	16.12
713.945	15.86
714.128	16.49
714.311	16.46
714.494	15.81
714.677	15.46
714.86	15.49
715.043	16.93
715.227	16.2
715.41	14.84
715.593	15.5
715.776	15.59
715.959	16.51
716.142	16.91
716.325	17.48
716.508	17.62
716.691	18.08
716.874	18.33
717.057	16.58
717.239	16.93
717.422	17.73
717.605	18
717.788	17.97
717.971	17.43
718.154	16.55
718.337	16.12
718.519	16.18
718.702	16.12
718.885	15.03
719.068	16.19
719.25	16.79
719.433	17.4
719.616	17.43
719.798	18.71
719.981	18.43
720.164	18.25
720.346	17.86
720.529	16.85
720.712	17.28
720.894	19.96
721.077	20.11
721.259	19.85
721.442	20.08
721.624	19.16
721.807	18.91
721.989	19.11
722.172	19.28
722.354	19.39
722.537	20.17
722.719	19.58
722.901	18.61
723.084	18.22
723.266	17.44
723.448	17.41
723.631	16.93
723.813	15.88
723.995	15.77
724.178	15.66
724.36	17
724.542	16.75
724.724	15.75
724.907	14.94
725.089	15.17
725.271	14.79
725.453	14.35
725.635	15.45
725.817	15.16
725.999	15.74
726.181	15.37
726.364	15.29
726.546	16.38
726.728	17.08
726.91	17.6
727.092	17.2
727.274	17.56
727.456	17.8
727.638	18.05
727.819	19.12
728.001	19.28
728.183	20.75
728.365	19.91
728.547	18.63
728.729	18.49
728.911	18.7
729.093	18.39
729.274	18.33
729.456	18.81
729.638	19.57
729.82	17.91
730.001	17.68
730.183	17.09
730.365	16.99
730.546	17.45
730.728	17.65
730.91	17.46
731.091	16.84
731.273	16.75
731.455	16.57
731.636	15.27
731.818	16
731.999	16.19
732.181	16.85
732.362	16.69
732.544	17.14
732.725	18.41
732.907	18.11
733.088	19.4
733.27	19.96
733.451	19.79
733.633	19.95
733.814	20.38
733.995	19.93
734.177	19.63
734.358	20.78
734.539	20.18
734.721	19.69
734.902	19.41
735.083	19.53
735.264	19.37
735.446	19.06
735.627	18.84
735.808	18.5
735.989	17.6
736.17	17.86
736.351	17.43
736.533	17.44
736.714	16.89
736.895	17.24
737.076	18.18
737.257	18.31
737.438	17.75
737.619	18.35
737.8	19.02
737.981	19.84
738.162	19.55
738.343	18.74
738.524	19.61
738.705	18.65
738.886	19.93
739.067	18.22
739.247	17.81
739.428	17.55
739.609	17.56
739.79	18.15
739.971	18.26
740.151	17.7
740.332	17.69
740.513	18.85
740.694	20.02
740.874	18.59
741.055	18.08
741.236	18.71
741.417	19.72
741.597	19.77
741.778	16.83
741.958	16.53
742.139	16.77
742.32	18.32
742.5	16.11
742.681	15.6
742.861	15.8
743.042	17.55
743.222	16.27
743.403	16.21
743.583	16.23
743.764	17.05
743.944	17.23
744.124	16.34
744.305	15.83
744.485	16.5
744.666	17.8
744.846	18.11
745.026	16.86
745.207	18.45
745.387	17.51
745.567	16.32
745.747	18.03
745.928	18.55
746.108	19.71
746.288	19.48
746.468	19.62
746.648	18.43
746.829	18.97
747.009	18.84
747.189	18.26
747.369	19.29
747.549	20.96
747.729	20
747.909	20.74
748.089	20.63
748.269	22.28
748.449	20.93
748.629	20.93
748.809	20.1
748.989	20.25
749.169	21.14
749.349	21.74
749.529	20.36
749.709	21.67
749.889	21.43
750.068	21.27
750.248	19.6
750.428	20.97
750.608	20.85
750.788	21.36
750.967	22.47
751.147	22.22
751.327	22.6
751.507	22.87
751.686	22.24
751.866	20.54
752.046	20.09
752.225	21.35
752.405	21.84
752.585	21.91
752.764	21.85
752.944	20.23
753.123	19.85
753.303	19.16
753.482	20.24
753.662	20.6
753.841	20.45
754.021	20.8
754.2	20.34
754.38	19.15
754.559	18.81
754.739	18.33
754.918	19.07
755.097	19.53
755.277	19.33
755.456	19.59
755.635	18.79
755.815	19.97
755.994	19.8
756.173	19.83
756.352	19.77
756.532	21.1
756.711	21.81
756.89	21.39
757.069	21.49
757.248	22.24
757.427	21.47
757.607	21.81
757.786	22.27
757.965	23.66
758.144	22.99
758.323	23.07
758.502	22.97
758.681	21.91
758.86	22.54
759.039	22.01
759.218	21.55
759.397	22.46
759.576	21.68
759.755	20.62
759.934	20.1
760.113	21.26
760.291	21.92
760.47	20.66
760.649	19.46
760.828	20.24
761.007	19.34
761.186	19.36
761.364	16.88
761.543	18.42
761.722	18.97
761.901	18.92
762.079	17.7
762.258	17.36
762.437	17.38
762.615	19.34
762.794	18.7
762.972	19.59
763.151	18.92
763.33	20.33
763.508	20.24
763.687	21.15
763.865	20.74
764.044	21.56
764.222	21.65
764.401	21.59
764.579	21.09
764.758	20.21
764.936	20.03
765.114	21.28
765.293	21.34
765.471	20.46
765.65	19.11
765.828	18.87
766.006	18
766.184	18.8
766.363	18.88
766.541	18.14
766.719	19.11
766.898	18.47
767.076	17.6
767.254	17.26
767.432	18.13
767.61	19.43
767.788	18.31
767.967	19.06
768.145	17.61
768.323	18.3
768.501	18.72
768.679	19.39
768.857	18.3
769.035	16.96
769.213	17.29
769.391	16.58
769.569	16.34
769.747	18.43
769.925	18.34
770.103	19.78
770.281	20.47
770.459	19.55
770.636	17.99
770.814	20.36
770.992	23.6
771.17	23.61
771.348	23.41
771.525	22.26
771.703	21.16
771.881	21.7
772.059	21.32
772.236	19.28
772.414	23.01
772.592	25.98
772.769	26.8
772.947	22.92
773.125	22.49
773.302	24.57
773.48	22.97
773.657	22.05
773.835	19.12
774.013	20.08
774.19	22.01
774.368	20.72
774.545	19.19
774.723	16.72
774.9	17.34
775.077	17.69
775.255	15.69
775.432	16.56
775.61	18.57
775.787	20.65
775.964	18.88
776.142	15.87
776.319	14.11
776.496	13.23
776.674	15.55
776.851	16.06
777.028	16.37
777.205	18.28
777.382	17
777.56	15.26
777.737	16.37
777.914	17.19
778.091	19.43
778.268	16.99
778.445	16.02
778.622	16.22
778.8	14.98
778.977	14
779.154	11.86
779.331	17.03
779.508	17.18
779.685	14.13
779.862	15.18
780.038	13.07
780.215	17
780.392	17.39
780.569	14.52
780.746	15.64
780.923	17.52
781.1	14.76
781.277	10.75
781.453	14.51
781.63	17.08
781.807	14.96
781.984	17.23
782.16	15.22
782.337	12.96
782.514	15.64
782.691	15.94
782.867	16.18
783.044	20.89
783.221	19.83
783.397	19.36
783.574	19.87
783.75	23.2
783.927	25.81
784.103	27.16
784.28	30.92
784.456	31.72
784.633	32.62
784.809	31.25
784.986	30.91
785.162	33.66
785.339	31.53
785.515	30.17
785.692	25.81
785.868	22.67
786.044	24.32
786.221	22.27
786.397	19.37
786.573	20.27
786.749	22.68
786.926	19.2
787.102	18.11
787.278	20.37
787.454	19.45
787.631	20.9
787.807	22.21
787.983	22.62
788.159	23.68
788.335	25.11
788.511	24.04
788.687	20.59
788.863	22.41
789.039	24.49
789.216	21.62
789.392	23.85
789.568	25.99
789.744	23.25
789.919	23.24
790.095	22.85
790.271	20.11
790.447	17.9
790.623	20.67
790.799	20.21
790.975	17.43
791.151	16.4
791.327	14.75
791.502	11.14
791.678	14.63
791.854	15.34
792.03	11.12
792.205	13.18
792.381	13.32
792.557	11.18
792.733	9.99
792.908	11.18
793.084	16.03
793.259	12.89
793.435	11.51
793.611	8.3
793.786	3.63
793.962	6.96
794.137	5.31
794.313	8.82
794.488	9.44
794.664	13.05
794.839	11.63
795.015	7.76
795.19	11.5
795.366	14.88
795.541	14.35
795.716	16.57
795.892	22.17
796.067	22.41
796.242	25.35
796.418	25.6
796.593	20.85
796.768	24.19
796.944	26.56
797.119	26.41
797.294	25.76
797.469	25.7
797.644	24.64
797.82	21.84
797.995	23.04
798.17	17.79
798.345	16.73
798.52	20.78
798.695	19.01
798.87	19.31
799.045	17.47
799.22	17.59
799.395	18.62
799.57	18.86
799.745	19.21
799.92	20.01
800.095	19.88
800.27	21.7
800.445	18.03
800.62	17.9
800.795	14.74
800.97	16.69
801.145	14.22
801.319	12.12
801.494	10.13
801.669	4.29
801.844	2.29
802.018	3.51
802.193	-3.47
802.368	-1.94
802.543	0.86
802.717	1.02
802.892	4.02
803.067	9.94
803.241	14.03
803.416	18.38
803.59	22.04
803.765	23.76
803.94	23.87
804.114	28.15
804.289	27.91
804.463	21.27
804.638	23.43
804.812	20.48
804.986	18.64
805.161	19.97
805.335	16.57
805.51	12.36
805.684	9.85
805.858	9.01
806.033	9.69
806.207	9.25
806.381	12.76
806.556	11.83
806.73	12.65
806.904	15.16
807.078	11.06
807.253	14.45
807.427	19
807.601	20.03
807.775	20.85
807.949	18.64
808.123	20.59
808.298	21.9
808.472	21.44
808.646	19.46
808.82	14.9
808.994	13.92
809.168	8.09
809.342	7.66
809.516	13.75
809.69	11.06
809.864	12.09
810.038	13.45
810.212	16.31
810.385	14.89
810.559	15.69
810.733	17.12
810.907	18.84
811.081	17.17
811.255	18.22
811.428	14.88
811.602	17.06
811.776	15.93
811.95	9.09
812.123	3.38
812.297	5.44
812.471	2.98
812.644	6.62
812.818	10.71
812.992	12.55
813.165	10.63
813.339	11.4
813.512	12.46
813.686	9.74
813.86	18.58
814.033	20.18
814.207	22.44
814.38	26.03
814.554	18.57
814.727	19.1
814.9	22.37
815.074	15.18
815.247	9.99
815.421	6.28
815.594	8.38
815.767	4.3
815.941	6.09
816.114	5.38
816.287	2.37
816.46	6.55
816.634	1.12
816.807	0.49
816.98	0.9
817.153	6.09
817.327	13.32
817.5	19.26
817.673	20.77
817.846	20.63
818.019	19.39
818.192	19.13
818.365	20.05
818.538	22.34
818.711	20.01
818.884	26.33
819.057	26.23
819.23	29.26
819.403	26.18
819.576	23.46
819.749	22.94
819.922	22.1
820.095	22.63
820.268	22.5
820.441	23.87
820.614	24.32
820.786	24.59
820.959	21.8
821.132	19.48
821.305	17.48
821.477	19.16
821.65	19.24
821.823	20.85
821.996	22.08
822.168	22.69
822.341	22.55
822.514	22.87
822.686	21.95
822.859	22.44
823.031	22.07
823.204	22.61
823.376	23.54
823.549	24.59
823.722	24.77
823.894	23.44
824.067	22.87
824.239	22.09
824.411	21.54
824.584	22.18
824.756	22.61
824.929	22.39
825.101	21.81
825.273	21.09
825.446	19.13
825.618	18.31
825.79	19.11
825.963	18.39
826.135	18.26
826.307	19.34
826.479	20.13
826.652	20.61
826.824	22.69
826.996	24.29
827.168	24.28
827.34	24.24
827.512	23.39
827.684	24.1
827.856	23.83
828.029	24.93
828.201	24.72
828.373	23.89
828.545	23.15
828.717	21.98
828.889	21.12
829.061	20.51
829.232	20.69
829.404	20.77
829.576	17.97
829.748	19.24
829.92	17.49
830.092	17.22
830.264	17.49
830.436	17.52
830.607	17.88
830.779	20.15
830.951	19.89
831.123	20.11
831.294	21.23
831.466	24.83
831.638	22.26
831.809	27.18
831.981	25.69
832.153	24.25
832.324	26.2
832.496	23.93
832.667	19.59
832.839	19.29
833.011	21.59
833.182	20.42
833.354	16.76
833.525	18.58
833.697	15
833.868	15.9
834.039	13.95
834.211	9.9
834.382	11.14
834.554	13.2
834.725	15.8
834.896	13.58
835.068	11.65
835.239	14.57
835.41	12.93
835.581	12.09
835.753	11.52
835.924	14.25
836.095	16.4
836.266	14.81
836.438	12.57
836.609	10.44
836.78	11.78
836.951	17.88
837.122	13.78
837.293	16.69
837.464	17.19
837.635	17.95
837.806	16.95
837.977	16.38
838.148	18.68
838.319	22.59
838.49	21.57
838.661	17.21
838.832	13.86
839.003	15.43
839.174	16.68
839.345	16.58
839.516	13.69
839.687	10.33
839.857	11.81
840.028	15.03
840.199	10.06
840.37	2.88
840.54	4.84
840.711	-1.34
840.882	-4.13
841.053	-4.46
841.223	-4.28
841.394	-1.91
841.564	0.8
841.735	-3.8
841.906	-9.12
842.076	-4.07
842.247	-1.86
842.417	-2.46
842.588	-3.19
842.758	2.92
842.929	-5.51
843.099	2.09
843.27	-3.25
843.44	-2.64
843.611	3.39
843.781	-2.5
843.951	-13.11
844.122	0.09
844.292	-9.25
844.462	-6.32
844.633	7.18
844.803	11.2
844.973	-5.23
845.144	1.84
845.314	12.02
845.484	-20.6
845.654	-5.42
845.824	4.77
845.995	-5.23
846.165	14.93
846.335	22.62
846.505	12.02
846.675	8.25
846.845	10.23
847.015	14.59
847.185	12.01
847.355	20.76
847.525	14.94
847.695	18.96
847.865	22.15
848.035	15.6
848.205	16.17
848.375	12.66
848.545	27.13
848.715	25.4
848.884	19.1
849.054	16.07
849.224	6.96
849.394	19.4
849.564	0.55
849.733	-18.15
849.903	-26.35
850.073	-11.3
850.243	-13.9
850.412	-33.68
850.582	-20.44
850.752	-5.64
850.921	-14.01
851.091	-4.14
851.26	-6.14
851.43	-4.1
851.599	-6.39
851.769	8.35
851.939	-13.88
852.108	-15.3
852.278	-6.51
852.447	-13.45
852.616	-36.45
852.786	-34.99
852.955	-30.89
853.125	-34.86
853.294	-8.64
853.463	3.32
853.633	6.2
853.802	24.26
853.971	42.54
854.141	39.88
854.31	32.69
854.479	39.78
854.648	55.37
854.818	36.45
854.987	42.67
855.156	35.29
855.325	32.6
855.494	22.73
855.663	24.47
855.832	8.02
856.001	-6.42
856.171	2.11
856.34	-4.62
856.509	5.2
856.678	41.33
856.847	53.16
857.016	56.36
857.185	49.3
857.353	45.48
857.522	32.96
857.691	29.14
857.86	41.35
858.029	18.22
858.198	29.48
858.367	8.05
858.535	-9.97
858.704	-18.33
858.873	-26.21
859.042	-29.55
859.21	-28.11
859.379	-20.48
859.548	-16.42
859.717	-23.8
859.885	-34.87
860.054	-22.03
860.222	-25.55
860.391	-28.64
860.56	-12.44
860.728	-16.13
860.897	-4.2
861.065	-12.85
861.234	8.25
861.402	35.59
861.571	40.06
861.739	51.15
861.908	37.46
862.076	38.74
862.244	33.63
862.413	19.01
862.581	14.66
862.749	15.78
862.918	17.58
863.086	16.85
863.254	9.01
863.423	16.73
863.591	4.9
863.759	21.92
863.927	35.66
864.096	55.71
864.264	64.5
864.432	74.84
864.6	63.96
864.768	67.9
864.936	47.47
865.104	30.3
865.272	24.99
865.44	14.62
865.608	-5.96
865.776	-10.98
865.944	-8.77
866.112	-4.23
866.28	3.2
866.448	13.7
866.616	8.29
866.784	13.83
866.952	18.74
867.12	9.96
867.288	16.55
867.455	36.68
867.623	31.49
867.791	19.79
867.959	22.59
868.127	8.91
868.294	0.61
868.462	2.87
868.63	-1.74
868.797	-18.83
868.965	-67.43
869.133	-60.7
869.3	-60.46
869.468	-60.32
869.636	-41.29
869.803	-36.36
869.971	-34.79
870.138	-40.57
870.306	-5.61
870.473	-6.58
870.641	23.05
870.808	35.13
870.975	9.67
871.143	-8.17
871.31	-15.03
871.478	-10.94
871.645	-34.9
871.812	5.95
871.98	8.85
872.147	-36.75
872.314	-31.4
872.482	-11.02
872.649	-10.22
872.816	4.39
872.983	0.51
873.15	5.75
873.318	16.02
873.485	15.39
873.652	7.23
873.819	5.82
873.986	13.13
874.153	8.57
874.32	-13.51
874.487	-25.25
874.654	-21.58
874.821	-21.46
874.988	-24.71
875.155	-48.96
875.322	-48.58
875.489	-28.84
875.656	-29.74
875.823	-33.09
875.99	-37.35
876.157	-8.19
876.324	-1.11
876.49	8.92
876.657	11.06
876.824	30.86
876.991	27.39
877.157	29.96
877.324	33.49
877.491	76.33
877.658	46.14
877.824	47.68
877.991	41.38
878.157	54.24
878.324	51.26
878.491	57.13
878.657	50.02
878.824	57.39
878.99	58.18
879.157	57.24
879.323	50.07
879.49	53.01
879.656	48.58
879.823	41.77
879.989	33.86
880.156	28.65
880.322	15.12
880.488	12.42
880.655	-1.6
880.821	-4.34
880.987	-10.54
881.154	4.57
881.32	9.96
881.486	13.81
881.652	17.51
881.819	12.55
881.985	11.95
882.151	14.07
882.317	16.33
882.483	19.85
882.649	20.44
882.816	26.67
882.982	24.15
883.148	21.58
883.314	22.86
883.48	21.68
883.646	24.66
883.812	24.18
883.978	27.51
884.144	28.43
884.31	24.55
884.476	26.79
884.642	26.23
884.807	26.4
884.973	29.33
885.139	24.5
885.305	25.41
885.471	26.36
885.637	29.16
885.802	26.64
885.968	22.99
886.134	25.89
886.3	20.29
886.465	17.86
886.631	9.86
886.797	10.5
886.962	11.17
887.128	9.99
887.293	3.84
887.459	-6.98
887.625	-13.89
887.79	-6.07
887.956	-9.69
888.121	-7.77
888.287	-16.05
888.452	-1.17
888.618	-33.01
888.783	-25.42
