Data from 2938030_Reflection_1.txt Node
Date: Sun Jul 12 15:03:26 EDT 2015
User: robert
Spectrometer: USB4E03001
Autoset integration time: false
Trigger mode: 4
Integration Time (sec): 1.000000E-1
Scans to average: 10
Electric dark correction enabled: true
Nonlinearity correction enabled: false
Boxcar width: 5
Stray light correction enabled: false
XAxis mode: Wavelengths
Stop averaging: false
Number of Pixels in Spectrum: 3648
>>>>>Begin Spectral Data<<<<<
177.566	364.45
177.785	-105.74
178.005	-1483.57
178.225	675.81
178.445	237.83
178.665	295.51
178.885	-23.53
179.105	115.83
179.324	149.44
179.544	1108.54
179.764	-219.51
179.984	481.3
180.204	-82.4
180.423	-115.54
180.643	-369.71
180.863	-17594.29
181.083	-339.61
181.302	-229.89
181.522	-170.9
181.742	-166.33
181.961	-2743.82
182.181	-192.8
182.401	-62.78
182.621	-64.31
182.84	-50.1
183.06	-49.52
183.279	-20.14
183.499	-61.75
183.719	-52.1
183.938	-33.59
184.158	-70.63
184.377	-4.54
184.597	0.06
184.816	6.27
185.036	-11
185.256	-19.08
185.475	11.95
185.695	-24.59
185.914	2.23
186.134	2.96
186.353	-10.55
186.572	8.77
186.792	-28.54
187.011	-40.11
187.231	-51.39
187.45	-33.91
187.67	-86.82
187.889	-268.07
188.108	-185.53
188.328	-62.32
188.547	-34.07
188.766	-23.3
188.986	-100.81
189.205	-8.66
189.424	-309.48
189.644	-157.76
189.863	-995.02
190.082	-174.03
190.302	19.46
190.521	-38.03
190.74	-384.67
190.959	-168.16
191.178	-341.66
191.398	402.79
191.617	-1630.04
191.836	-1753.09
192.055	251.64
192.274	-143.51
192.494	-72.66
192.713	-188.97
192.932	-125.27
193.151	-100
193.37	-123.73
193.589	-96.55
193.808	-99.67
194.027	-69.29
194.246	-32.38
194.465	-51.41
194.685	1.08
194.904	8.57
195.123	20.63
195.342	50.78
195.561	166.59
195.78	109.98
195.999	46.28
196.218	26.52
196.436	-9.82
196.655	10.87
196.874	6.01
197.093	-76.45
197.312	-201.69
197.531	-56.55
197.75	-78.82
197.969	-84.13
198.188	-84.14
198.407	-79.98
198.625	-30
198.844	-21.18
199.063	-49.83
199.282	-47.48
199.501	-62.4
199.719	-56.44
199.938	-77.56
200.157	-47.72
200.376	-64.13
200.594	-40.85
200.813	-27.08
201.032	-33.87
201.251	-74.55
201.469	-107.15
201.688	-94.64
201.907	-59.76
202.125	-86.03
202.344	-87.04
202.563	-197.63
202.781	-387.84
203	-356.78
203.218	-372.97
203.437	18432.56
203.656	-279.51
203.874	-208.24
204.093	-211.11
204.311	-204.05
204.53	-205.7
204.748	-232.6
204.967	-158.16
205.185	-140.57
205.404	-170.49
205.622	-218.1
205.841	-130.15
206.059	-308.54
206.278	-127.72
206.496	-124.72
206.715	-106.34
206.933	-75.5
207.151	-66.97
207.37	-79.45
207.588	-47.33
207.806	-30.75
208.025	-21.22
208.243	-4.48
208.461	5.97
208.68	-0.43
208.898	14.35
209.116	27.98
209.335	9.96
209.553	6.45
209.771	-18.77
209.989	-13.82
210.208	-43.94
210.426	-54.47
210.644	-111.82
210.862	-86.75
211.081	-104.18
211.299	-235.21
211.517	-218.1
211.735	-140.14
211.953	-165.8
212.171	-26.25
212.39	-40.53
212.608	40.26
212.826	0.77
213.044	-19.1
213.262	-31.78
213.48	-20.91
213.698	12.1
213.916	-21.89
214.134	-7.93
214.352	-13.62
214.57	-18.79
214.788	-15.46
215.006	-34.12
215.224	-11.19
215.442	35.26
215.66	31.44
215.878	19.2
216.096	0.29
216.314	20.81
216.532	28.51
216.75	31.81
216.968	38.87
217.185	34.08
217.403	50.76
217.621	45.04
217.839	36.45
218.057	48.98
218.275	66.64
218.492	95.15
218.71	126.84
218.928	135.52
219.146	92.66
219.363	102.62
219.581	146.21
219.799	55.98
220.017	64.15
220.234	11.94
220.452	30.49
220.67	27.19
220.887	0.22
221.105	-9.52
221.323	-2.34
221.54	1.78
221.758	-18.92
221.976	-27.09
222.193	-12.19
222.411	-25.78
222.629	1.92
222.846	-20.89
223.064	-28.29
223.281	-8.87
223.499	-4.96
223.716	-6.62
223.934	1.58
224.151	28.86
224.369	29.89
224.586	25.61
224.804	36.38
225.021	31.39
225.239	30.26
225.456	21.97
225.674	19.86
225.891	17.09
226.108	11.42
226.326	0.49
226.543	-9.71
226.76	-4.25
226.978	-9.74
227.195	-2.36
227.413	-2.38
227.63	6.22
227.847	12.54
228.064	13.06
228.282	13.81
228.499	11.58
228.716	11.97
228.934	11.46
229.151	8.8
229.368	10.1
229.585	7.53
229.802	8.82
230.02	8.04
230.237	6.3
230.454	7.3
230.671	4.85
230.888	8.23
231.105	8.63
231.323	10.57
231.54	10.78
231.757	8.03
231.974	7.46
232.191	4.79
232.408	1.25
232.625	-1.68
232.842	-7.5
233.059	-6.31
233.276	-10.82
233.493	-13.05
233.71	-11.99
233.927	-9.03
234.144	-4.86
234.361	0.35
234.578	4.08
234.795	4.32
235.012	3.42
235.229	4.87
235.446	8.61
235.663	11.16
235.879	11.4
236.096	10.36
236.313	11.43
236.53	10.16
236.747	9.71
236.964	3.82
237.181	10.81
237.397	16.47
237.614	15.03
237.831	10.67
238.048	12.81
238.264	11.92
238.481	11.51
238.698	13.27
238.915	13.9
239.131	11.09
239.348	10.04
239.565	6.73
239.781	4.95
239.998	7.58
240.215	8.5
240.431	6.26
240.648	8.6
240.865	4.75
241.081	5.16
241.298	8.02
241.514	9.44
241.731	10.77
241.947	10.32
242.164	10.66
242.38	9.42
242.597	10.01
242.814	10.28
243.03	10.9
243.246	12.7
243.463	12.51
243.679	11.25
243.896	11.12
244.112	11.17
244.329	10.24
244.545	10.52
244.762	11.72
244.978	12.08
245.194	11.16
245.411	9.73
245.627	10.18
245.843	9.57
246.06	9.57
246.276	8.45
246.492	8.45
246.709	8.23
246.925	6.01
247.141	5.23
247.357	5.38
247.574	5.44
247.79	5.22
248.006	5.77
248.222	5.58
248.439	5.56
248.655	6.38
248.871	6.17
249.087	6.38
249.303	8.74
249.519	8.6
249.736	8.33
249.952	8.09
250.168	8.8
250.384	8.77
250.6	8.8
250.816	8.73
251.032	8.34
251.248	9.98
251.464	10.8
251.68	8.61
251.896	8.82
252.112	8.78
252.328	7.75
252.544	6.04
252.76	4.36
252.976	4.13
253.192	3.02
253.408	0.37
253.624	-2.74
253.84	-6.57
254.056	-7.57
254.272	-6.04
254.487	-6.63
254.703	-5.74
254.919	-4.51
255.135	-4.51
255.351	-3.98
255.567	-5.58
255.782	-1.42
255.998	2
256.214	5.61
256.43	8.05
256.646	8.31
256.861	7.7
257.077	7.4
257.293	6.52
257.508	7.77
257.724	6.94
257.94	8.92
258.155	9.52
258.371	7.72
258.587	6.48
258.802	5.88
259.018	6.42
259.234	7.27
259.449	8.11
259.665	8.86
259.88	7.94
260.096	8.05
260.312	8.53
260.527	8.65
260.743	9.2
260.958	9.45
261.174	9.73
261.389	9.22
261.605	9.25
261.82	9.32
262.036	9.51
262.251	10.56
262.466	11.87
262.682	10.96
262.897	9.93
263.113	9.74
263.328	10.62
263.543	11.84
263.759	11.43
263.974	10.25
264.189	9.86
264.405	9.3
264.62	9.09
264.835	6.92
265.051	6.15
265.266	7.03
265.481	7.38
265.696	8.23
265.912	7.95
266.127	6.67
266.342	6.04
266.557	5.77
266.773	4.71
266.988	4.39
267.203	4.38
267.418	5.03
267.633	4.01
267.848	3.94
268.064	3.02
268.279	1.66
268.494	2.85
268.709	2.68
268.924	3.58
269.139	4.21
269.354	5.53
269.569	5.74
269.784	4.48
269.999	4.48
270.214	4.83
270.429	4.48
270.644	5.2
270.859	5.57
271.074	7.21
271.289	7.15
271.504	7.58
271.719	7.47
271.934	7.99
272.149	9.22
272.363	8.7
272.578	8.42
272.793	9.1
273.008	9.25
273.223	8.54
273.438	8.5
273.653	7.35
273.867	5.81
274.082	4.74
274.297	5.7
274.512	6.98
274.726	7.7
274.941	7.93
275.156	7.9
275.371	6.66
275.585	7.93
275.8	7.54
276.015	7.64
276.229	8.02
276.444	7.32
276.659	5.74
276.873	4.51
277.088	4.91
277.302	3.11
277.517	2.1
277.732	3.54
277.946	2.82
278.161	1.13
278.375	2.67
278.59	4.3
278.804	4.84
279.019	4.69
279.233	4.22
279.448	4.42
279.662	4.58
279.877	5.96
280.091	3.95
280.306	5.27
280.52	5.69
280.735	4.53
280.949	4.17
281.163	4.59
281.378	4.67
281.592	4.79
281.806	4.1
282.021	4.73
282.235	3.32
282.449	4.73
282.664	3.07
282.878	4.97
283.092	4.17
283.307	4.52
283.521	4.44
283.735	4.3
283.949	3.9
284.164	3.17
284.378	3.52
284.592	4.31
284.806	4.42
285.02	6.62
285.234	5.39
285.449	5.91
285.663	5.65
285.877	5.93
286.091	6.85
286.305	6.94
286.519	7.58
286.733	7.97
286.947	7.6
287.161	8
287.375	6.64
287.589	6.45
287.803	6.46
288.017	6.11
288.231	4.38
288.445	4.23
288.659	4.5
288.873	5.3
289.087	4.12
289.301	4.38
289.515	3.26
289.729	4.25
289.943	5.88
290.157	6.23
290.371	6.91
290.584	8.98
290.798	9.8
291.012	9.89
291.226	9.41
291.44	9.45
291.654	8.73
291.867	9.21
292.081	7.06
292.295	5.88
292.509	6.32
292.722	5.43
292.936	4.55
293.15	3.61
293.364	4.26
293.577	4.48
293.791	5.65
294.005	7.37
294.218	7.59
294.432	9.56
294.645	9.94
294.859	10.4
295.073	12.33
295.286	12.7
295.5	12.05
295.713	10.89
295.927	11.04
296.14	11.52
296.354	11.77
296.568	11.46
296.781	11.57
296.994	12.06
297.208	11
297.421	10.2
297.635	9.93
297.848	10.21
298.062	10.29
298.275	9.84
298.489	9.74
298.702	9.75
298.915	9.2
299.129	7.91
299.342	7.12
299.555	7.65
299.769	7.76
299.982	8.42
300.195	7.33
300.409	7
300.622	7.41
300.835	6.88
301.048	6.02
301.262	7.42
301.475	8.5
301.688	8.34
301.901	8.45
302.115	7.96
302.328	5.99
302.541	6.66
302.754	7.62
302.967	8.03
303.18	6.86
303.393	6.27
303.607	4.87
303.82	4.62
304.033	3.9
304.246	3.49
304.459	4.65
304.672	5.93
304.885	6.11
305.098	6.23
305.311	5.73
305.524	6.82
305.737	6.78
305.95	8.08
306.163	7.98
306.376	9.57
306.589	9.59
306.802	7.42
307.015	7.38
307.228	8.16
307.44	7.61
307.653	7.45
307.866	6.96
308.079	8.17
308.292	8.57
308.505	8.97
308.718	9.4
308.93	10.35
309.143	11.81
309.356	12.99
309.569	12.25
309.781	11.93
309.994	12.61
310.207	12.63
310.42	12.81
310.632	12.36
310.845	11.86
311.058	11.08
311.27	10.32
311.483	9.94
311.696	9.78
311.908	9.22
312.121	9.49
312.333	8.06
312.546	7.66
312.759	7.37
312.971	6.69
313.184	5.65
313.396	5.38
313.609	5.32
313.821	4.59
314.034	3.66
314.246	4.54
314.459	6.08
314.671	7.04
314.884	8.46
315.096	8.7
315.309	9.2
315.521	10.58
315.733	10.32
315.946	10.82
316.158	12.01
316.371	11.82
316.583	11.73
316.795	10.61
317.008	10.32
317.22	9.7
317.432	8.58
317.644	9.57
317.857	9.57
318.069	9.65
318.281	9.55
318.494	9.06
318.706	8.7
318.918	9.92
319.13	10.36
319.342	11.04
319.555	11.13
319.767	10.66
319.979	8.96
320.191	9.85
320.403	11.02
320.615	10.89
320.827	10.88
321.039	10.54
321.252	9.93
321.464	9.24
321.676	8.98
321.888	8.88
322.1	10.85
322.312	11.58
322.524	10.75
322.736	9.17
322.948	9.42
323.16	10.05
323.372	10.37
323.584	9.78
323.796	9.81
324.007	8.89
324.219	7.91
324.431	6.55
324.643	5.83
324.855	5.34
325.067	5.18
325.279	5.69
325.491	4.94
325.702	5.17
325.914	6.34
326.126	5.77
326.338	7.95
326.55	8.89
326.761	9.17
326.973	10.5
327.185	10.57
327.396	10.59
327.608	9.67
327.82	9.91
328.032	8.37
328.243	7.76
328.455	8.89
328.666	7.56
328.878	7.68
329.09	8.78
329.301	7.34
329.513	8.49
329.725	10.45
329.936	10.67
330.148	10.42
330.359	11.65
330.571	11.62
330.782	9.42
330.994	9.53
331.205	8.57
331.417	8.06
331.628	8.92
331.84	8.74
332.051	8.4
332.262	8.88
332.474	9.39
332.685	10.04
332.897	9.46
333.108	11
333.319	10.96
333.531	11.31
333.742	11.15
333.953	11.25
334.165	10.93
334.376	10.82
334.587	11.04
334.799	11.71
335.01	10.39
335.221	11.52
335.432	11.1
335.644	11.81
335.855	11.81
336.066	11.98
336.277	11.92
336.488	12.36
336.7	12.2
336.911	11.18
337.122	10.6
337.333	11.76
337.544	11.56
337.755	11.34
337.966	10.13
338.177	10.26
338.388	9.75
338.599	9.61
338.811	9.31
339.022	9.03
339.233	8.94
339.444	9.13
339.655	8.11
339.866	8.27
340.076	9.3
340.287	9.86
340.498	10.62
340.709	9.92
340.92	9.4
341.131	10.14
341.342	10.55
341.553	10.97
341.764	9.86
341.975	10
342.185	9.14
342.396	8.91
342.607	8.96
342.818	8.42
343.029	9.49
343.239	9.36
343.45	8.64
343.661	8.14
343.872	7.68
344.082	8.57
344.293	9.14
344.504	9.51
344.714	8.76
344.925	8.36
345.136	7.86
345.346	8.01
345.557	8.14
345.768	8.09
345.978	8.81
346.189	9.36
346.399	9.31
346.61	9.28
346.821	8.94
347.031	9.12
347.242	8.97
347.452	10.21
347.663	9.58
347.873	10
348.084	10
348.294	9.85
348.504	9.7
348.715	8.43
348.925	8.41
349.136	7.74
349.346	6.46
349.557	7.95
349.767	7.22
349.977	7.4
350.188	8.08
350.398	8.33
350.608	8.47
350.819	8.17
351.029	8.96
351.239	9.32
351.449	10.03
351.66	11.4
351.87	10.2
352.08	10.56
352.29	10.55
352.501	10.37
352.711	9.78
352.921	9.01
353.131	9.38
353.341	9.74
353.552	9.57
353.762	9.64
353.972	9.77
354.182	10.36
354.392	10.63
354.602	10.4
354.812	10.43
355.022	10.75
355.232	10.56
355.442	11.08
355.652	11.25
355.862	10.8
356.072	10.61
356.282	11.04
356.492	10.86
356.702	10.09
356.912	10.37
357.122	9.97
357.332	10.74
357.542	11.37
357.752	10.77
357.962	9.76
358.171	10.21
358.381	10.32
358.591	9.97
358.801	9.16
359.011	9.17
359.221	9.36
359.43	9.33
359.64	7.51
359.85	7.33
360.06	7.52
360.269	8.41
360.479	8.03
360.689	8.09
360.899	8.13
361.108	8.42
361.318	9.05
361.528	8.64
361.737	8.57
361.947	9.4
362.156	9.16
362.366	9.1
362.576	8.93
362.785	8.99
362.995	8.71
363.204	7.96
363.414	8.69
363.623	8.27
363.833	8.37
364.042	7.69
364.252	7.88
364.461	7.67
364.671	7.79
364.88	7.33
365.09	7.86
365.299	8.03
365.509	8.63
365.718	7.52
365.927	7.1
366.137	6.74
366.346	7.16
366.555	6.9
366.765	6.3
366.974	5.34
367.183	5.54
367.393	4.61
367.602	4.73
367.811	4.75
368.021	5.4
368.23	6.18
368.439	6.82
368.648	7.57
368.857	7.26
369.067	7.64
369.276	8.22
369.485	7.81
369.694	8.05
369.903	8.2
370.112	8.54
370.321	8.74
370.531	8.24
370.74	7.81
370.949	7.35
371.158	7.76
371.367	8.2
371.576	8.07
371.785	8.72
371.994	8.72
372.203	8.1
372.412	7.89
372.621	8.19
372.83	7.53
373.039	7.51
373.248	6.99
373.457	7.07
373.666	7
373.874	7.07
374.083	6.49
374.292	6.13
374.501	6.11
374.71	5.43
374.919	5.14
375.128	5.25
375.336	5.48
375.545	6.07
375.754	6.08
375.963	6.28
376.171	6.49
376.38	6.85
376.589	6.98
376.798	7.72
377.006	8.18
377.215	8.21
377.424	8.85
377.632	9.24
377.841	8.95
378.05	8.68
378.258	8.76
378.467	8.61
378.675	8.26
378.884	8.53
379.093	8.13
379.301	7.78
379.51	7.18
379.718	6.73
379.927	6.38
380.135	6.3
380.344	6.07
380.552	6.08
380.761	5.85
380.969	6.09
381.177	5.9
381.386	5.71
381.594	5.76
381.803	6.29
382.011	6.11
382.219	6.14
382.428	6.18
382.636	6.19
382.845	5.73
383.053	5.09
383.261	4.76
383.469	4.73
383.678	5.14
383.886	5.37
384.094	5.09
384.302	5.3
384.511	5.52
384.719	5.61
384.927	5.59
385.135	5.69
385.343	6.31
385.552	6.92
385.76	7.06
385.968	7.04
386.176	7.17
386.384	6.95
386.592	6.97
386.8	6.62
387.008	6.49
387.216	6.64
387.424	6.73
387.633	6.7
387.841	6.54
388.049	6.34
388.257	5.76
388.465	5.86
388.672	6.09
388.88	6.17
389.088	5.71
389.296	6.22
389.504	6.27
389.712	6.02
389.92	6.14
390.128	6.04
390.336	5.99
390.544	6.29
390.751	5.82
390.959	5.67
391.167	5.65
391.375	5.98
391.583	5.71
391.79	5.77
391.998	5.62
392.206	5.54
392.414	5.34
392.621	5.24
392.829	4.89
393.037	4.92
393.244	5.09
393.452	4.97
393.66	4.95
393.867	4.66
394.075	4.51
394.283	4.54
394.49	4.43
394.698	4.47
394.905	4.82
395.113	4.98
395.32	5.07
395.528	4.87
395.735	4.85
395.943	5.01
396.15	5.04
396.358	4.68
396.565	4.9
396.773	5.52
396.98	5.7
397.188	5.48
397.395	5.75
397.602	5.7
397.81	5.51
398.017	5.6
398.225	5.28
398.432	5.6
398.639	6.04
398.847	5.77
399.054	5.28
399.261	5.4
399.468	5.34
399.676	5.24
399.883	5.43
400.09	5.37
400.297	5.39
400.505	5.57
400.712	5.2
400.919	5.14
401.126	5.09
401.333	5.09
401.54	4.65
401.748	4.74
401.955	4.66
402.162	4.4
402.369	4.42
402.576	4.71
402.783	4.64
402.99	4.7
403.197	4.7
403.404	4.74
403.611	4.51
403.818	4.64
404.025	4.55
404.232	4.33
404.439	4.66
404.646	4.9
404.853	4.46
405.06	4.26
405.267	4.32
405.474	4.04
405.681	4.27
405.887	4.64
406.094	4.83
406.301	4.64
406.508	5.13
406.715	4.86
406.922	5.03
407.128	4.96
407.335	5.03
407.542	4.99
407.749	5.18
407.955	5.53
408.162	5
408.369	4.74
408.575	4.92
408.782	4.4
408.989	4.45
409.195	4.45
409.402	4.37
409.609	4.51
409.815	4.78
410.022	5.05
410.228	4.52
410.435	4.92
410.642	4.93
410.848	5.1
411.055	5.11
411.261	4.94
411.468	4.63
411.674	4.7
411.881	4.63
412.087	4.52
412.294	4.08
412.5	4.37
412.706	4.45
412.913	4.46
413.119	4.54
413.326	4.74
413.532	4.91
413.738	4.98
413.945	5.2
414.151	5.25
414.357	5.1
414.564	5.17
414.77	4.83
414.976	4.7
415.182	4.69
415.389	4.56
415.595	4.58
415.801	4.4
416.007	4.29
416.214	4.09
416.42	4.24
416.626	4.15
416.832	4.18
417.038	4.27
417.244	4.29
417.45	4.4
417.657	4.46
417.863	4.34
418.069	4.39
418.275	4.47
418.481	4.7
418.687	4.55
418.893	4.79
419.099	4.86
419.305	4.97
419.511	4.98
419.717	5.02
419.923	4.86
420.129	4.93
420.335	4.78
420.541	4.73
420.746	4.72
420.952	4.66
421.158	4.56
421.364	4.58
421.57	4.43
421.776	4.39
421.982	4.37
422.187	4.39
422.393	4.39
422.599	4.59
422.805	4.68
423.01	4.53
423.216	4.55
423.422	4.39
423.628	4.28
423.833	4.27
424.039	4.21
424.245	4.11
424.45	4.04
424.656	4.11
424.862	4.06
425.067	3.98
425.273	3.96
425.478	3.92
425.684	4
425.889	3.98
426.095	3.92
426.301	3.97
426.506	3.82
426.712	3.88
426.917	3.91
427.123	3.97
427.328	3.99
427.533	3.91
427.739	3.97
427.944	3.91
428.15	3.82
428.355	3.96
428.561	3.95
428.766	4.15
428.971	4.21
429.177	3.79
429.382	3.49
429.587	3.52
429.793	3.75
429.998	3.85
430.203	3.86
430.408	3.91
430.614	3.92
430.819	3.75
431.024	3.62
431.229	3.61
431.434	3.79
431.64	3.93
431.845	3.87
432.05	3.87
432.255	3.81
432.46	3.9
432.665	4.02
432.87	3.88
433.076	4.01
433.281	4.12
433.486	4.04
433.691	4.21
433.896	4.39
434.101	4.39
434.306	4.36
434.511	4.42
434.716	4.43
434.921	4.28
435.126	4.47
435.331	4.55
435.535	4.57
435.74	4.52
435.945	4.42
436.15	4.18
436.355	4.15
436.56	4.05
436.765	4
436.97	3.96
437.174	4.04
437.379	4.06
437.584	3.98
437.789	3.91
437.993	4.17
438.198	4.18
438.403	4.34
438.608	4.22
438.812	4.27
439.017	4.31
439.222	4.43
439.426	4.48
439.631	4.35
439.836	4.26
440.04	4.27
440.245	4.31
440.45	4.23
440.654	4.15
440.859	4.29
441.063	4.4
441.268	4.36
441.472	4.24
441.677	4.25
441.881	4.17
442.086	4.22
442.29	4.24
442.495	4.04
442.699	4.19
442.904	4.15
443.108	4.12
443.312	3.93
443.517	3.8
443.721	3.77
443.925	3.78
444.13	3.96
444.334	3.95
444.538	4.05
444.743	4.18
444.947	4.18
445.151	4.36
445.356	4.33
445.56	4.37
445.764	4.51
445.968	4.62
446.173	4.58
446.377	4.65
446.581	4.68
446.785	4.57
446.989	4.54
447.193	4.42
447.398	4.24
447.602	4.23
447.806	4.36
448.01	4.29
448.214	4.2
448.418	4.21
448.622	3.98
448.826	3.94
449.03	4.1
449.234	4.14
449.438	4.21
449.642	4.3
449.846	4.5
450.05	4.42
450.254	4.47
450.458	4.56
450.662	4.44
450.866	4.58
451.069	4.56
451.273	4.32
451.477	4.27
451.681	4.27
451.885	4.19
452.089	3.9
452.292	3.9
452.496	3.85
452.7	3.78
452.904	4.03
453.107	3.94
453.311	4.07
453.515	4.16
453.719	3.98
453.922	3.93
454.126	3.88
454.33	4.02
454.533	3.95
454.737	3.99
454.94	4.06
455.144	4.1
455.348	4.16
455.551	4.02
455.755	3.97
455.958	4.15
456.162	4.03
456.365	4.21
456.569	4.28
456.772	4.41
456.976	4.45
457.179	4.3
457.383	3.94
457.586	3.92
457.79	3.85
457.993	3.84
458.196	3.74
458.4	3.73
458.603	3.67
458.807	3.63
459.01	3.63
459.213	3.68
459.417	3.73
459.62	3.86
459.823	3.92
460.026	3.96
460.23	3.99
460.433	4.04
460.636	4.12
460.839	4.19
461.042	4.15
461.246	4.12
461.449	3.95
461.652	3.88
461.855	3.75
462.058	3.56
462.261	3.66
462.464	3.68
462.668	3.67
462.871	3.67
463.074	3.53
463.277	3.6
463.48	3.4
463.683	3.34
463.886	3.33
464.089	3.46
464.292	3.52
464.495	3.39
464.698	3.29
464.901	3.35
465.104	3.32
465.306	3.41
465.509	3.3
465.712	3.41
465.915	3.57
466.118	3.81
466.321	3.64
466.524	3.71
466.726	3.71
466.929	3.75
467.132	3.67
467.335	3.67
467.538	3.74
467.74	3.87
467.943	3.97
468.146	3.95
468.348	3.63
468.551	3.73
468.754	3.74
468.956	3.59
469.159	3.63
469.362	3.67
469.564	3.77
469.767	3.67
469.969	3.63
470.172	3.56
470.375	3.6
470.577	3.87
470.78	3.97
470.982	3.93
471.185	4.22
471.387	4.12
471.59	3.93
471.792	3.78
471.995	3.64
472.197	3.52
472.399	3.39
472.602	3.38
472.804	3.28
473.007	3.17
473.209	3.02
473.411	2.93
473.614	3
473.816	3.13
474.018	3.3
474.22	3.4
474.423	3.41
474.625	3.65
474.827	3.74
475.03	3.67
475.232	3.68
475.434	4.12
475.636	3.9
475.838	4.01
476.04	4.01
476.243	3.96
476.445	3.88
476.647	3.94
476.849	3.94
477.051	3.72
477.253	3.83
477.455	3.95
477.657	3.8
477.859	3.97
478.061	3.89
478.263	3.92
478.465	3.99
478.667	4.05
478.869	4.05
479.071	3.98
479.273	4.12
479.475	4.03
479.677	3.98
479.879	3.99
480.081	4.14
480.283	4.14
480.485	4.16
480.686	4
480.888	3.97
481.09	3.89
481.292	3.73
481.494	3.86
481.695	3.94
481.897	3.91
482.099	3.96
482.301	3.88
482.502	3.83
482.704	3.82
482.906	3.82
483.107	3.85
483.309	3.85
483.511	3.95
483.712	3.89
483.914	3.93
484.115	3.92
484.317	3.9
484.519	3.87
484.72	3.9
484.922	3.94
485.123	3.97
485.325	3.92
485.526	3.92
485.728	3.97
485.929	3.97
486.131	3.87
486.332	3.87
486.534	3.86
486.735	3.91
486.936	3.86
487.138	3.75
487.339	3.77
487.541	3.77
487.742	3.78
487.943	3.73
488.144	3.75
488.346	3.84
488.547	3.85
488.748	3.75
488.95	3.72
489.151	3.74
489.352	3.77
489.553	3.68
489.755	3.77
489.956	3.78
490.157	3.71
490.358	3.62
490.559	3.48
490.76	3.58
490.961	3.77
491.163	3.74
491.364	3.73
491.565	3.76
491.766	3.87
491.967	3.87
492.168	3.87
492.369	3.86
492.57	3.93
492.771	4
492.972	3.88
493.173	3.71
493.374	3.78
493.575	3.84
493.776	3.79
493.976	3.66
494.177	3.61
494.378	3.68
494.579	3.72
494.78	3.67
494.981	3.86
495.182	3.93
495.382	4.09
495.583	4.07
495.784	3.94
495.985	3.89
496.185	3.99
496.386	4
496.587	3.85
496.788	3.74
496.988	3.9
497.189	3.72
497.39	3.64
497.59	3.44
497.791	3.36
497.992	3.44
498.192	3.54
498.393	3.56
498.593	3.49
498.794	3.52
498.994	3.7
499.195	3.56
499.395	3.43
499.596	3.61
499.796	3.75
499.997	3.79
500.197	3.81
500.398	3.81
500.598	3.73
500.799	3.75
500.999	3.84
501.199	3.74
501.4	3.66
501.6	3.92
501.801	3.82
502.001	3.92
502.201	3.92
502.402	3.9
502.602	4.07
502.802	4.05
503.002	4.13
503.203	4.12
503.403	4.18
503.603	4.28
503.803	4.17
504.003	4.25
504.204	4.34
504.404	4.38
504.604	4.41
504.804	4.04
505.004	4.16
505.204	4.26
505.404	4.24
505.604	4.27
505.804	4.46
506.005	4.44
506.205	4.32
506.405	4.18
506.605	4.29
506.805	4.12
507.005	4.23
507.204	4.2
507.404	4.08
507.604	4.18
507.804	4.07
508.004	3.98
508.204	3.99
508.404	4.02
508.604	4.13
508.804	4
509.003	4.04
509.203	4.07
509.403	4.06
509.603	4.04
509.803	4.02
510.002	4.04
510.202	4
510.402	4.07
510.602	4.03
510.801	3.9
511.001	3.92
511.201	3.94
511.4	3.88
511.6	3.92
511.8	3.92
511.999	3.76
512.199	3.75
512.398	3.65
512.598	3.6
512.797	3.61
512.997	3.66
513.197	3.7
513.396	3.73
513.596	3.97
513.795	3.88
513.994	3.98
514.194	4.05
514.393	3.97
514.593	3.85
514.792	3.87
514.992	3.97
515.191	3.94
515.39	3.93
515.59	3.81
515.789	3.77
515.988	3.78
516.188	3.67
516.387	3.75
516.586	3.87
516.786	4.11
516.985	4.21
517.184	4.19
517.383	4.19
517.582	4.22
517.782	4.38
517.981	4.27
518.18	4.26
518.379	4.34
518.578	4.33
518.777	4.37
518.976	4.21
519.176	4.21
519.375	4.13
519.574	4.18
519.773	4.18
519.972	4.21
520.171	4.25
520.37	4.2
520.569	4.14
520.768	4.26
520.967	4.25
521.166	4.28
521.365	4.23
521.564	4.31
521.762	4.34
521.961	4.3
522.16	4.22
522.359	4.3
522.558	4.51
522.757	4.6
522.956	4.56
523.154	4.58
523.353	4.66
523.552	4.64
523.751	4.75
523.949	4.74
524.148	4.79
524.347	4.83
524.546	4.73
524.744	4.76
524.943	4.71
525.142	4.63
525.34	4.66
525.539	4.64
525.737	4.64
525.936	4.57
526.135	4.63
526.333	4.58
526.532	4.57
526.73	4.58
526.929	4.54
527.127	4.58
527.326	4.56
527.524	4.51
527.723	4.58
527.921	4.61
528.12	4.62
528.318	4.59
528.516	4.58
528.715	4.55
528.913	4.61
529.112	4.61
529.31	4.6
529.508	4.71
529.707	4.71
529.905	4.68
530.103	4.71
530.301	4.7
530.5	4.65
530.698	4.72
530.896	4.82
531.094	4.84
531.293	4.85
531.491	4.95
531.689	4.91
531.887	4.94
532.085	5.02
532.283	4.99
532.481	5.07
532.68	5.19
532.878	5.18
533.076	5.22
533.274	5.17
533.472	5.11
533.67	5.07
533.868	5.06
534.066	5.07
534.264	4.98
534.462	4.93
534.66	4.88
534.858	4.77
535.056	4.81
535.253	4.86
535.451	4.88
535.649	4.96
535.847	5
536.045	5.07
536.243	5.14
536.441	5.22
536.638	5.29
536.836	5.39
537.034	5.47
537.232	5.57
537.43	5.49
537.627	5.52
537.825	5.6
538.023	5.57
538.22	5.57
538.418	5.51
538.616	5.54
538.813	5.59
539.011	5.48
539.209	5.45
539.406	5.32
539.604	5.41
539.801	5.36
539.999	5.43
540.196	5.42
540.394	5.45
540.591	5.54
540.789	5.59
540.986	5.6
541.184	5.66
541.381	5.69
541.579	5.69
541.776	5.7
541.974	5.71
542.171	5.71
542.368	5.74
542.566	5.77
542.763	5.72
542.96	5.68
543.158	5.73
543.355	5.73
543.552	5.87
543.75	5.99
543.947	5.96
544.144	6.07
544.341	6.15
544.539	6.25
544.736	6.15
544.933	6.24
545.13	6.32
545.327	6.32
545.524	6.45
545.722	6.37
545.919	6.4
546.116	6.4
546.313	6.45
546.51	6.33
546.707	6.35
546.904	6.49
547.101	6.48
547.298	6.45
547.495	6.55
547.692	6.62
547.889	6.68
548.086	6.63
548.283	6.76
548.48	6.82
548.677	6.87
548.874	6.91
549.07	6.86
549.267	6.93
549.464	7.07
549.661	7.09
549.858	6.92
550.055	6.86
550.251	6.85
550.448	6.55
550.645	6.52
550.842	6.42
551.038	6.49
551.235	6.39
551.432	6.45
551.628	6.52
551.825	6.56
552.022	6.72
552.218	6.82
552.415	6.87
552.612	7.07
552.808	7.18
553.005	7.46
553.201	7.43
553.398	7.67
553.594	7.8
553.791	7.75
553.987	7.69
554.184	7.57
554.38	7.52
554.577	7.78
554.773	7.81
554.97	7.81
555.166	7.75
555.362	7.75
555.559	7.69
555.755	7.76
555.952	7.75
556.148	7.78
556.344	7.79
556.541	7.89
556.737	7.85
556.933	7.99
557.129	7.93
557.326	8.08
557.522	8.19
557.718	8.23
557.914	7.96
558.11	7.91
558.307	8.15
558.503	8.22
558.699	8.4
558.895	8.31
559.091	8.47
559.287	8.48
559.483	8.51
559.679	8.36
559.876	8.5
560.072	8.71
560.268	8.9
560.464	8.7
560.66	8.54
560.856	8.41
561.052	8.52
561.247	8.43
561.443	8.61
561.639	8.67
561.835	8.74
562.031	8.76
562.227	8.61
562.423	8.65
562.619	8.84
562.815	9.23
563.01	9.36
563.206	9.6
563.402	9.46
563.598	9.45
563.793	9.32
563.989	9.47
564.185	9.47
564.381	9.63
564.576	9.73
564.772	9.59
564.968	9.74
565.163	9.8
565.359	9.65
565.555	9.76
565.75	9.84
565.946	9.83
566.141	9.9
566.337	10.03
566.532	10.05
566.728	9.95
566.923	10.11
567.119	10.12
567.314	10.17
567.51	10.1
567.705	10.06
567.901	9.98
568.096	10
568.292	9.99
568.487	10.02
568.682	10.15
568.878	10.29
569.073	10.17
569.268	10
569.464	9.98
569.659	9.92
569.854	10.02
570.05	10.13
570.245	10.45
570.44	10.55
570.635	10.46
570.831	10.52
571.026	10.53
571.221	10.74
571.416	10.8
571.611	10.82
571.806	11.04
572.002	11.3
572.197	11.23
572.392	11.11
572.587	11.06
572.782	11.18
572.977	11.16
573.172	11.33
573.367	11.28
573.562	11.52
573.757	11.47
573.952	11.45
574.147	11.46
574.342	11.59
574.537	11.66
574.732	11.64
574.927	11.63
575.121	11.53
575.316	11.46
575.511	11.54
575.706	11.44
575.901	11.73
576.096	11.73
576.29	11.63
576.485	11.69
576.68	11.78
576.875	11.99
577.069	11.96
577.264	12.08
577.459	12.13
577.654	12.04
577.848	12.2
578.043	11.95
578.238	11.8
578.432	11.75
578.627	11.7
578.821	11.43
579.016	11.32
579.21	11.24
579.405	11.26
579.6	11.23
579.794	11.36
579.989	10.95
580.183	10.94
580.378	10.95
580.572	11.06
580.766	11.36
580.961	11.7
581.155	11.7
581.35	11.93
581.544	12.1
581.738	11.94
581.933	12.06
582.127	12.01
582.321	12.23
582.516	12.53
582.71	12.49
582.904	12.05
583.099	11.98
583.293	12.28
583.487	12.21
583.681	12.31
583.875	12.03
584.07	12.11
584.264	12.49
584.458	12.41
584.652	12.24
584.846	12.08
585.04	12.31
585.234	12.29
585.428	12
585.623	11.97
585.817	11.45
586.011	11.77
586.205	11.63
586.399	11.57
586.593	11.54
586.787	11.65
586.981	11.85
587.174	11.93
587.368	11.65
587.562	11.74
587.756	11.86
587.95	12.29
588.144	12.62
588.338	12.73
588.532	12.92
588.725	12.97
588.919	13.18
589.113	13.33
589.307	13.2
589.501	13
589.694	13.07
589.888	12.87
590.082	12.87
590.275	12.65
590.469	12.4
590.663	12.22
590.856	12.08
591.05	12.17
591.244	12.03
591.437	12.03
591.631	12.33
591.824	12.33
592.018	12.53
592.212	12.49
592.405	12.42
592.599	12.47
592.792	12.62
592.986	12.57
593.179	12.52
593.372	12.48
593.566	12.48
593.759	12.57
593.953	12.29
594.146	12.48
594.339	12.42
594.533	12.5
594.726	12.47
594.92	12.39
595.113	12.47
595.306	12.33
595.499	12.54
595.693	12.63
595.886	12.81
596.079	13.12
596.272	13.06
596.466	13.01
596.659	12.95
596.852	12.98
597.045	12.98
597.238	13.26
597.431	13.24
597.624	13.26
597.818	13.21
598.011	13.11
598.204	13.19
598.397	13.03
598.59	13.12
598.783	13.28
598.976	13.48
599.169	13.67
599.362	13.51
599.555	13.69
599.748	13.61
599.941	13.71
600.134	13.8
600.326	13.74
600.519	13.85
600.712	13.64
600.905	13.57
601.098	13.31
601.291	12.97
601.483	13.05
601.676	12.72
601.869	12.98
602.062	12.8
602.255	12.89
602.447	12.77
602.64	12.85
602.833	13.12
603.025	13.31
603.218	13.66
603.411	13.61
603.603	13.55
603.796	13.52
603.989	13.16
604.181	13.32
604.374	13.34
604.566	13.3
604.759	13.34
604.951	13.45
605.144	13.45
605.336	13.4
605.529	13.62
605.721	13.71
605.914	13.77
606.106	13.94
606.299	13.95
606.491	13.7
606.683	13.69
606.876	13.71
607.068	13.66
607.26	13.81
607.453	13.63
607.645	13.35
607.837	13.22
608.03	13.51
608.222	13.25
608.414	13.2
608.606	13.32
608.799	13.45
608.991	13.3
609.183	13.07
609.375	12.95
609.567	12.86
609.759	12.87
609.952	12.72
610.144	12.44
610.336	12.7
610.528	12.62
610.72	12.6
610.912	12.54
611.104	12.74
611.296	13.02
611.488	13.08
611.68	13.3
611.872	13.5
612.064	13.68
612.256	13.93
612.448	13.69
612.64	13.76
612.832	13.76
613.023	13.73
613.215	13.61
613.407	13.22
613.599	13.12
613.791	12.87
613.983	12.77
614.174	13
614.366	13.13
614.558	13.54
614.75	13.47
614.941	13.37
615.133	13.41
615.325	13.49
615.516	13.83
615.708	13.59
615.9	13.82
616.091	13.77
616.283	13.35
616.475	13.22
616.666	13.21
616.858	13.57
617.049	13.72
617.241	13.89
617.432	13.68
617.624	13.51
617.815	13.51
618.007	13.39
618.198	13.48
618.39	13.72
618.581	13.7
618.773	13.56
618.964	13.43
619.155	13.44
619.347	13.24
619.538	13.09
619.729	13.01
619.921	13.31
620.112	13.58
620.303	13.62
620.494	13.74
620.686	13.96
620.877	14.03
621.068	13.92
621.259	14.01
621.451	13.96
621.642	13.98
621.833	14.1
622.024	13.86
622.215	13.74
622.406	13.66
622.597	13.54
622.788	13.24
622.98	13.1
623.171	13.01
623.362	13.08
623.553	13.27
623.744	13.45
623.935	13.51
624.126	13.72
624.317	13.68
624.508	13.61
624.698	13.59
624.889	13.57
625.08	13.66
625.271	13.91
625.462	13.72
625.653	13.85
625.844	13.81
626.034	13.74
626.225	13.73
626.416	13.76
626.607	13.74
626.798	13.61
626.988	13.56
627.179	13.36
627.37	13.3
627.56	13.12
627.751	12.83
627.942	12.89
628.132	12.87
628.323	12.79
628.514	12.68
628.704	12.9
628.895	13.26
629.085	13.38
629.276	13.5
629.466	13.51
629.657	13.64
629.847	13.76
630.038	13.57
630.228	13.07
630.419	13.02
630.609	13
630.8	12.98
630.99	12.64
631.181	12.69
631.371	13.07
631.561	12.98
631.752	13.12
631.942	13.18
632.132	13.1
632.323	13.94
632.513	13.85
632.703	14.2
632.893	14.17
633.084	14.18
633.274	13.91
633.464	13.65
633.654	13.6
633.844	13.66
634.034	13.49
634.225	13.81
634.415	13.92
634.605	13.91
634.795	13.59
634.985	13.47
635.175	13.81
635.365	13.96
635.555	14.1
635.745	14.39
635.935	14.3
636.125	14.51
636.315	14.33
636.505	13.84
636.695	13.82
636.885	13.81
637.075	13.86
637.265	13.76
637.455	13.81
637.644	13.48
637.834	13.43
638.024	13.55
638.214	13.92
638.404	13.96
638.593	14.19
638.783	14.23
638.973	14.32
639.163	14.13
639.352	13.94
639.542	13.88
639.732	14.26
639.921	13.79
640.111	13.64
640.301	13.49
640.49	13.85
640.68	13.66
640.87	13.99
641.059	13.78
641.249	14.11
641.438	14.03
641.628	14.2
641.817	13.9
642.007	14.24
642.196	14.16
642.386	14.02
642.575	13.6
642.764	13.95
642.954	13.72
643.143	13.77
643.333	13.85
643.522	14.12
643.711	14.33
643.901	15.05
644.09	14.86
644.279	15.45
644.469	15.63
644.658	15.93
644.847	16.01
645.036	16.34
645.226	16.82
645.415	16.17
645.604	15.9
645.793	15.61
645.982	14.87
646.171	15.14
646.361	14.53
646.55	14.15
646.739	13.98
646.928	13.14
647.117	12.77
647.306	12.57
647.495	13.21
647.684	13.29
647.873	13.3
648.062	13.49
648.251	13.25
648.44	13.71
648.629	13.43
648.818	13.38
649.007	13.72
649.196	13.62
649.384	13.13
649.573	12.9
649.762	12.7
649.951	12.7
650.14	12.5
650.328	12.96
650.517	12.78
650.706	12.92
650.895	12.68
651.083	12.8
651.272	13
651.461	13.25
651.65	13.44
651.838	13.92
652.027	14.09
652.216	14.11
652.404	14.17
652.593	14.2
652.781	14.36
652.97	14.53
653.158	14.56
653.347	14.6
653.535	14.42
653.724	14.37
653.912	13.96
654.101	13.7
654.289	14.09
654.478	13.78
654.666	13.48
654.855	13.79
655.043	14.1
655.231	13.8
655.42	13.57
655.608	14.05
655.796	14.2
655.985	14.68
656.173	14.89
656.361	14.58
656.55	14.84
656.738	14.8
656.926	14.56
657.114	14.54
657.302	14.8
657.491	14.84
657.679	14.84
657.867	14.86
658.055	14.62
658.243	14.21
658.431	14.18
658.619	14.15
658.807	14.28
658.996	14.58
659.184	14.56
659.372	14.73
659.56	14.85
659.748	14.84
659.936	14.8
660.124	14.73
660.311	15.12
660.499	14.92
660.687	14.75
660.875	14.68
661.063	14.45
661.251	14.36
661.439	14.17
661.627	13.99
661.814	13.77
662.002	13.64
662.19	13.69
662.378	13.32
662.565	13.62
662.753	13.59
662.941	13.43
663.129	13.59
663.316	13.63
663.504	14.35
663.692	14.39
663.879	14.89
664.067	14.82
664.254	14.54
664.442	14.72
664.63	14.75
664.817	14.91
665.005	15
665.192	14.48
665.38	14.31
665.567	13.62
665.755	13.69
665.942	13.5
666.13	13.05
666.317	13.62
666.504	13.57
666.692	13.51
666.879	13.06
667.067	13.02
667.254	13.58
667.441	14
667.629	14.47
667.816	14.75
668.003	14.99
668.19	15.07
668.378	14.68
668.565	15.41
668.752	15.5
668.939	15.73
669.127	16
669.314	15.65
669.501	15.66
669.688	15.3
669.875	15.16
670.062	14.61
670.249	14.84
670.436	15.32
670.623	14.65
670.81	14.99
670.997	15.13
671.184	14.89
671.371	14.68
671.558	14.39
671.745	14.41
671.932	14.28
672.119	14.2
672.306	14.53
672.493	14.04
672.68	14.04
672.867	13.62
673.054	13.6
673.24	14.44
673.427	14.86
673.614	15.01
673.801	14.73
673.988	14.7
674.174	15.14
674.361	14.99
674.548	15.39
674.734	15.88
674.921	15.81
675.108	16.09
675.294	15.59
675.481	15.64
675.668	15.95
675.854	16.44
676.041	16.18
676.227	16.32
676.414	16.11
676.601	15.88
676.787	15.86
676.974	16.23
677.16	15.97
677.347	16.14
677.533	16.28
677.719	15.87
677.906	15.36
678.092	15.68
678.279	15.68
678.465	15.79
678.651	15.73
678.838	15.53
679.024	15.67
679.21	15.69
679.397	15.36
679.583	15.01
679.769	15.54
679.955	15.59
680.142	15.47
680.328	15.27
680.514	15.23
680.7	15.02
680.886	14.81
681.073	14.29
681.259	14.56
681.445	14.6
681.631	14.84
681.817	14.5
682.003	14.5
682.189	14.91
682.375	14.94
682.561	14.88
682.747	15.49
682.933	15.72
683.119	15.85
683.305	15.21
683.491	15.11
683.677	14.63
683.863	14.49
684.049	14.71
684.235	14.29
684.42	13.83
684.606	13.94
684.792	13.52
684.978	13.67
685.164	13.79
685.349	13.85
685.535	14.15
685.721	14.49
685.907	14.37
686.092	14.65
686.278	15.43
686.464	15.72
686.649	15.75
686.835	15.41
687.021	15.26
687.206	14.91
687.392	14.84
687.577	14.67
687.763	14.92
687.948	14.38
688.134	14.66
688.319	13.76
688.505	13.76
688.69	13.77
688.876	14.1
689.061	13.92
689.247	14.75
689.432	15.39
689.618	15.29
689.803	15.29
689.988	16.07
690.174	15.38
690.359	15.58
690.544	15.61
690.73	15.58
690.915	15.83
691.1	16.25
691.285	15.68
691.471	15.32
691.656	15.55
691.841	15.33
692.026	15.1
692.211	14.89
692.396	15.49
692.582	15.8
692.767	15.79
692.952	15.49
693.137	15.27
693.322	15.61
693.507	15.99
693.692	15.78
693.877	16.01
694.062	15.78
694.247	16.22
694.432	15.16
694.617	15.15
694.802	15.73
694.987	15.69
695.172	15.51
695.357	15.44
695.541	14.87
695.726	15.01
695.911	14.84
696.096	15.04
696.281	14.51
696.466	14.9
696.65	14.82
696.835	14.51
697.02	14.93
697.204	14.73
697.389	14.82
697.574	14.9
697.759	15.36
697.943	14.79
698.128	14.96
698.312	15.15
698.497	15.29
698.682	15.26
698.866	15.39
699.051	15.31
699.235	15.86
699.42	15.81
699.604	16.08
699.789	15.9
699.973	16.06
700.158	15.88
700.342	15.8
700.527	15.7
700.711	16.08
700.895	15.81
701.08	15.86
701.264	15.36
701.448	14.81
701.633	14.33
701.817	13.74
702.001	13.56
702.186	14.06
702.37	14.49
702.554	14.97
702.738	14.71
702.923	14.68
703.107	14.57
703.291	15.06
703.475	15.13
703.659	15.06
703.843	15.61
704.027	16.56
704.212	16.49
704.396	16.81
704.58	16.2
704.764	15.9
704.948	16.22
705.132	16.72
705.316	15.93
705.5	16.56
705.684	16.9
705.868	16.71
706.052	16.25
706.235	15.74
706.419	15.58
706.603	15.79
706.787	15.84
706.971	15.3
707.155	14.98
707.339	15.31
707.522	15.43
707.706	16.05
707.89	15.7
708.074	15.67
708.257	15.5
708.441	15.43
708.625	15.8
708.808	16.43
708.992	16.67
709.176	16.43
709.359	15.78
709.543	15.39
709.727	14.42
709.91	14.87
710.094	15.45
710.277	15.49
710.461	15.58
710.644	14.93
710.828	14.41
711.011	14.32
711.195	13.71
711.378	14.82
711.562	14.41
711.745	14.23
711.928	14.72
712.112	13.94
712.295	14.29
712.478	14.06
712.662	14.02
712.845	13.86
713.028	14.19
713.212	15.05
713.395	14.25
713.578	14.25
713.761	14.59
713.945	14.45
714.128	14.5
714.311	14.44
714.494	13.7
714.677	14.39
714.86	14.25
715.043	14.15
715.227	13.76
715.41	14.38
715.593	15.41
715.776	15.47
715.959	15.34
716.142	16.12
716.325	16.43
716.508	17.4
716.691	16.78
716.874	16.66
717.057	17.18
717.239	17.85
717.422	17.7
717.605	17.35
717.788	17.64
717.971	16.62
718.154	16.53
718.337	16.58
718.519	15.66
718.702	16.03
718.885	16.69
719.068	15.6
719.25	15.05
719.433	15.26
719.616	15.22
719.798	14.57
719.981	14.43
720.164	13.45
720.346	13.81
720.529	14.72
720.712	14.24
720.894	13.97
721.077	13.98
721.259	14.18
721.442	13.92
721.624	13.19
721.807	13.91
721.989	15.13
722.172	16.13
722.354	15
722.537	14.92
722.719	14.88
722.901	14.71
723.084	15.44
723.266	15.5
723.448	15.15
723.631	16
723.813	14.94
723.995	14.13
724.178	13.42
724.36	15.09
724.542	14.62
724.724	15.07
724.907	14.94
725.089	14.93
725.271	14.25
725.453	14.4
725.635	14.23
725.817	14.82
725.999	15.43
726.181	16.55
726.364	15.81
726.546	15.92
726.728	15.66
726.91	16.86
727.092	16.59
727.274	17.22
727.456	17
727.638	16.55
727.819	16.99
728.001	16.87
728.183	16.25
728.365	15.38
728.547	15.87
728.729	15.68
728.911	15.24
729.093	14.75
729.274	14.47
729.456	15.03
729.638	14.79
729.82	14.3
730.001	15.27
730.183	15.02
730.365	15.7
730.546	15.54
730.728	17.05
730.91	16.44
731.091	17.3
731.273	16.32
731.455	16.56
731.636	17.33
731.818	17.06
731.999	16.57
732.181	17.02
732.362	16.59
732.544	15.96
732.725	14.28
732.907	15.13
733.088	16.17
733.27	17.18
733.451	17.12
733.633	17.13
733.814	17.23
733.995	17.46
734.177	17.43
734.358	18.02
734.539	18.7
734.721	19.76
734.902	19.39
735.083	18.4
735.264	18.18
735.446	18.33
735.627	18.16
735.808	18.29
735.989	18.46
736.17	18.92
736.351	18.49
736.533	18.78
736.714	17.93
736.895	17.97
737.076	17.69
737.257	17.65
737.438	17.52
737.619	17.71
737.8	18.19
737.981	17.58
738.162	17.06
738.343	16.8
738.524	16.05
738.705	16.09
738.886	16.15
739.067	17.12
739.247	17.12
739.428	16.82
739.609	16.87
739.79	18.13
739.971	18.25
740.151	17.39
740.332	17.99
740.513	17.98
740.694	18.48
740.874	18.22
741.055	17.58
741.236	16.9
741.417	17.04
741.597	16.88
741.778	14.94
741.958	14.9
742.139	14.52
742.32	13.94
742.5	15.12
742.681	14.36
742.861	14.21
743.042	14.76
743.222	15.06
743.403	14.4
743.583	15.87
743.764	16.82
743.944	16.71
744.124	18.06
744.305	18.64
744.485	18.28
744.666	18.69
744.846	18.72
745.026	18.36
745.207	19.2
745.387	19.05
745.567	17.97
745.747	17.63
745.928	16.85
746.108	15.04
746.288	15.03
746.468	14.96
746.648	15.13
746.829	15.33
747.009	14.26
747.189	14.51
747.369	16.62
747.549	15.75
747.729	17.1
747.909	18
748.089	18.68
748.269	17.17
748.449	16.18
748.629	16.64
748.809	16.52
748.989	16.72
749.169	14.7
749.349	13.91
749.529	15.02
749.709	13.62
749.889	12.13
750.068	13.89
750.248	15.03
750.428	15.55
750.608	15.06
750.788	13.89
750.967	14.03
751.147	14.11
751.327	12.77
751.507	11.91
751.686	12.24
751.866	13.75
752.046	12.94
752.225	12.27
752.405	12.98
752.585	15.04
752.764	15.96
752.944	16.63
753.123	18.78
753.303	19.47
753.482	19.69
753.662	20.26
753.841	19.76
754.021	18.56
754.2	20
754.38	20.2
754.559	17.68
754.739	18.07
754.918	16.34
755.097	15.95
755.277	15.95
755.456	16.05
755.635	14.85
755.815	14.48
755.994	16.26
756.173	16.42
756.352	16.91
756.532	17.08
756.711	16.49
756.89	17.48
757.069	17.59
757.248	18.17
757.427	17.74
757.607	18.58
757.786	18.39
757.965	17.13
758.144	16.42
758.323	15.19
758.502	15.81
758.681	16.06
758.86	16.66
759.039	15.53
759.218	16.13
759.397	16.6
759.576	16.03
759.755	16.09
759.934	17.38
760.113	17.26
760.291	17.56
760.47	17.99
760.649	17.39
760.828	17.08
761.007	18.72
761.186	17.17
761.364	16.9
761.543	16.32
761.722	17.57
761.901	16.71
762.079	16.63
762.258	15.83
762.437	15.91
762.615	16.3
762.794	16.19
762.972	15.5
763.151	15.56
763.33	15.96
763.508	16.52
763.687	15.64
763.865	16.23
764.044	15.73
764.222	16.24
764.401	16.04
764.579	17.22
764.758	16.81
764.936	16.94
765.114	17.76
765.293	16.97
765.471	17.02
765.65	18.48
765.828	18
766.006	18.67
766.184	18.82
766.363	19
766.541	16.62
766.719	16.72
766.898	16.04
767.076	15.23
767.254	15.65
767.432	15.9
767.61	13.34
767.788	13.43
767.967	13.22
768.145	12.65
768.323	12.8
768.501	13.49
768.679	12.66
768.857	12.56
769.035	12.8
769.213	13.63
769.391	12.47
769.569	15.13
769.747	14.69
769.925	12.92
770.103	12.71
770.281	12.16
770.459	13.19
770.636	13.55
770.814	15.05
770.992	16.49
771.17	15.65
771.348	16.32
771.525	13.9
771.703	16.98
771.881	18.85
772.059	20.78
772.236	21.61
772.414	22.38
772.592	24.61
772.769	24.43
772.947	22.23
773.125	23.06
773.302	24.17
773.48	25.68
773.657	23.15
773.835	21.81
774.013	18.55
774.19	16.97
774.368	18.02
774.545	16.69
774.723	16.6
774.9	18.29
775.077	17.03
775.255	16.69
775.432	15.51
775.61	15.72
775.787	18.57
775.964	19.27
776.142	19.27
776.319	17.72
776.496	18.64
776.674	18.07
776.851	16.78
777.028	17.44
777.205	15.86
777.382	17.76
777.56	18.44
777.737	15.67
777.914	16.78
778.091	16.49
778.268	17.74
778.445	17.57
778.622	15.77
778.8	15.4
778.977	13.81
779.154	12.18
779.331	10.64
779.508	8.75
779.685	10.71
779.862	10.73
780.038	11.11
780.215	8.76
780.392	5.94
780.569	7.13
780.746	6.14
780.923	7.85
781.1	10.56
781.277	11.91
781.453	11.85
781.63	11.55
781.807	11.07
781.984	11.34
782.16	11.45
782.337	15.3
782.514	11.94
782.691	12.06
782.867	10.18
783.044	10.63
783.221	8.2
783.397	10.22
783.574	11.18
783.75	10.68
783.927	11.75
784.103	8.49
784.28	5.85
784.456	11.46
784.633	13.17
784.809	15.13
784.986	13.65
785.162	15.16
785.339	14.18
785.515	10.66
785.692	14.51
785.868	13.04
786.044	14.56
786.221	14.59
786.397	13.3
786.573	13.48
786.749	9.48
786.926	11.34
787.102	11.7
787.278	10.93
787.454	12.37
787.631	8.15
787.807	6.94
787.983	8.68
788.159	11.64
788.335	13.15
788.511	13.41
788.687	16.88
788.863	15.98
789.039	15.78
789.216	16.69
789.392	17.7
789.568	19.04
789.744	20.9
789.919	23.65
790.095	22.09
790.271	20.63
790.447	19.17
790.623	17.37
790.799	17.71
790.975	16.31
791.151	14.13
791.327	13.43
791.502	16.02
791.678	12
791.854	10.85
792.03	13.23
792.205	13.92
792.381	14.37
792.557	14.61
792.733	17.98
792.908	18.66
793.084	19.66
793.259	20.76
793.435	18.21
793.611	22.64
793.786	19.84
793.962	14.78
794.137	14.15
794.313	13.69
794.488	15.88
794.664	13.83
794.839	15.54
795.015	18.02
795.19	14.76
795.366	18.76
795.541	17.79
795.716	19.79
795.892	20.14
796.067	17.73
796.242	16.21
796.418	13.8
796.593	12.33
796.768	11.46
796.944	7.91
797.119	7.3
797.294	3.01
797.469	2.75
797.644	0.68
797.82	2.12
797.995	4.5
798.17	8.56
798.345	10.23
798.52	10.12
798.695	9
798.87	10.01
799.045	11.67
799.22	12.63
799.395	10.15
799.57	8.48
799.745	11.6
799.92	14.49
800.095	13.36
800.27	13.65
800.445	15.59
800.62	18.18
800.795	18.41
800.97	18.59
801.145	16.38
801.319	21.34
801.494	23.34
801.669	20.47
801.844	16.72
802.018	15.88
802.193	15.47
802.368	12.43
802.543	9.94
802.717	12.59
802.892	10.87
803.067	11.92
803.241	12.01
803.416	9.27
803.59	8.72
803.765	9.04
803.94	9.44
804.114	10.3
804.289	10.46
804.463	8.59
804.638	7.23
804.812	9.21
804.986	10.23
805.161	10.24
805.335	15.29
805.51	14.38
805.684	15.66
805.858	15.59
806.033	13.7
806.207	16.56
806.381	17.55
806.556	17.62
806.73	20.33
806.904	18.84
807.078	19.94
807.253	25.22
807.427	26.37
807.601	26.35
807.775	26.85
807.949	28.72
808.123	23.14
808.298	26.46
808.472	25.21
808.646	21.61
808.82	21.51
808.994	20.45
809.168	12.81
809.342	13.56
809.516	12.27
809.69	12.59
809.864	15.47
810.038	18.36
810.212	14.85
810.385	13.13
810.559	14.06
810.733	9.44
810.907	6.94
811.081	5.75
811.255	6.49
811.428	8.24
811.602	7.1
811.776	5.03
811.95	4.84
812.123	7.17
812.297	12.84
812.471	12.77
812.644	16.06
812.818	16.47
812.992	16.24
813.165	18.22
813.339	16.35
813.512	14.31
813.686	10.23
813.86	7.69
814.033	4.5
814.207	1.3
814.38	1.74
814.554	1.66
814.727	-0.81
814.9	2.45
815.074	-6.53
815.247	-5.39
815.421	-4.88
815.594	1.92
815.767	7.11
815.941	13.19
816.114	10.58
816.287	15
816.46	15.25
816.634	14.6
816.807	11.94
816.98	16.69
817.153	15.79
817.327	20.58
817.5	18.29
817.673	19.02
817.846	18.24
818.019	21.46
818.192	19.41
818.365	18.56
818.538	25.01
818.711	31.83
818.884	31.09
819.057	33.02
819.23	28.48
819.403	26.76
819.576	23.93
819.749	18.31
819.922	13.58
820.095	14.7
820.268	19.7
820.441	19.1
820.614	16.7
820.786	16.66
820.959	15.29
821.132	16.56
821.305	15.65
821.477	17.59
821.65	19.21
821.823	20.56
821.996	20.58
822.168	19.68
822.341	19.52
822.514	19.78
822.686	19.83
822.859	20.27
823.031	20.84
823.204	21.37
823.376	20.91
823.549	21.13
823.722	21.34
823.894	21.53
824.067	20.78
824.239	20.98
824.411	21.23
824.584	21.43
824.756	21.18
824.929	21.53
825.101	22.11
825.273	22.79
825.446	21.94
825.618	21.57
825.79	20.79
825.963	21.04
826.135	20.57
826.307	20.28
826.479	20.5
826.652	21.25
826.824	20.47
826.996	19.53
827.168	19.2
827.34	20.6
827.512	21.37
827.684	21.55
827.856	21.39
828.029	21.29
828.201	19.97
828.373	19.61
828.545	18.85
828.717	19.41
828.889	20.67
829.061	19.3
829.232	19.51
829.404	19.08
829.576	18.02
829.748	20.77
829.92	20.29
830.092	21.22
830.264	21.18
830.436	19.56
830.607	18.97
830.779	19.21
830.951	20.82
831.123	17.89
831.294	15.71
831.466	15.68
831.638	16.17
831.809	14.23
831.981	15.39
832.153	14.2
832.324	12.48
832.496	10.88
832.667	7.21
832.839	8.02
833.011	9.96
833.182	9.52
833.354	9.87
833.525	8.42
833.697	13.14
833.868	11.82
834.039	11.54
834.211	12.21
834.382	11.96
834.554	10.99
834.725	8.1
834.896	6.96
835.068	7.72
835.239	8.86
835.41	8.18
835.581	9.82
835.753	11.38
835.924	11.66
836.095	13.39
836.266	14.17
836.438	17.24
836.609	21.84
836.78	19.19
836.951	20.21
837.122	22.6
837.293	20.76
837.464	16.02
837.635	12.81
837.806	8.75
837.977	10.22
838.148	3.21
838.319	3.74
838.49	2.15
838.661	6.1
838.832	7.45
839.003	4.23
839.174	5.62
839.345	6.03
839.516	10.21
839.687	18.95
839.857	16.37
840.028	20.6
840.199	20.76
840.37	19.6
840.54	21.34
840.711	20.66
840.882	25.82
841.053	21.87
841.223	22.47
841.394	19.08
841.564	17.99
841.735	25.33
841.906	35.63
842.076	34.96
842.247	31.57
842.417	22.84
842.588	20.69
842.758	20.58
842.929	27.54
843.099	28.21
843.27	32.58
843.44	31.92
843.611	18.08
843.781	4.95
843.951	6.55
844.122	8.15
844.292	25.35
844.462	27.95
844.633	15.98
844.803	18.61
844.973	19.35
845.144	12.16
845.314	13.08
845.484	17.36
845.654	20.73
845.824	11.82
845.995	23.4
846.165	11.84
846.335	9.41
846.505	7.94
846.675	3.86
846.845	-6.08
847.015	-0.55
847.185	2.82
847.355	10.61
847.525	4.21
847.695	15.15
847.865	4.89
848.035	-4.36
848.205	-8.72
848.375	-4.57
848.545	-15.94
848.715	-15.04
848.884	-16.48
849.054	-29.08
849.224	-44.91
849.394	-39.4
849.564	-28.91
849.733	-28.58
849.903	-19.09
850.073	-10.05
850.243	-14.95
850.412	0.11
850.582	11.26
850.752	12.07
850.921	19.51
851.091	22.7
851.26	26.07
851.43	19.43
851.599	5.49
851.769	-14.36
851.939	-0.59
852.108	4.83
852.278	-8.11
852.447	-21.2
852.616	-19.96
852.786	-22.21
852.955	-15.2
853.125	-9.95
853.294	-5.18
853.463	7.26
853.633	10.89
853.802	7.25
853.971	10.89
854.141	29.64
854.31	40.57
854.479	37.09
854.648	43.58
854.818	47.13
854.987	43.12
855.156	50.15
855.325	58.17
855.494	70.26
855.663	62.97
855.832	67.4
856.001	40.79
856.171	35.37
856.34	42.92
856.509	31.8
856.678	20.55
856.847	19.5
857.016	11.56
857.185	-4.85
857.353	-13.15
857.522	-9.3
857.691	-10.84
857.86	-9.52
858.029	-20.83
858.198	-34.98
858.367	-30.67
858.535	-18.31
858.704	-7.82
858.873	-4.57
859.042	12.43
859.21	9.78
859.379	0.23
859.548	-14.64
859.717	11.6
859.885	25.63
860.054	32.27
860.222	32.04
860.391	25.06
860.56	15.29
860.728	27.67
860.897	14.97
861.065	14.18
861.234	14.61
861.402	15.37
861.571	7.61
861.739	1.74
861.908	-3.62
862.076	2.08
862.244	7.39
862.413	11.84
862.581	6.88
862.749	19.64
862.918	24.93
863.086	25.89
863.254	31.5
863.423	36.85
863.591	42.89
863.759	40.24
863.927	25.64
864.096	19.88
864.264	12.67
864.432	19.93
864.6	4.77
864.768	-3.37
864.936	-14.04
865.104	-10.75
865.272	-7.2
865.44	-29.51
865.608	-21.09
865.776	-9.13
865.944	-21.91
866.112	11.48
866.28	15.52
866.448	18.38
866.616	18.26
866.784	46.68
866.952	52.21
867.12	37.13
867.288	51.34
867.455	47.52
867.623	49.71
867.791	61.98
867.959	46.39
868.127	26.05
868.294	33.56
868.462	18.14
868.63	12.78
868.797	15.04
868.965	21.61
869.133	0.55
869.3	7.14
869.468	8.97
869.636	-2.62
869.803	-12.31
869.971	-10.46
870.138	-23.29
870.306	-15.11
870.473	-14.56
870.641	-18.8
870.808	-13.69
870.975	6.28
871.143	-11.18
871.31	1.84
871.478	20.77
871.645	40.95
871.812	52.8
871.98	51.27
872.147	59.93
872.314	50.68
872.482	42.42
872.649	42.42
872.816	45.6
872.983	53.51
873.15	47.58
873.318	42.8
873.485	42.85
873.652	46.12
873.819	43.36
873.986	39.88
874.153	40.59
874.32	39.66
874.487	27.85
874.654	20.16
874.821	18.19
874.988	18.92
875.155	7.12
875.322	13.55
875.489	20.1
875.656	29.16
875.823	27.45
875.99	38.85
876.157	38.3
876.324	36.11
876.49	33.1
876.657	35.06
876.824	19.63
876.991	28.75
877.157	28.78
877.324	21.02
877.491	-5.59
877.658	-7.93
877.824	-48.29
877.991	-50.28
878.157	-47.39
878.324	-20.09
878.491	-20.88
878.657	-7.73
878.824	-18.15
878.99	-37.05
879.157	-52.41
879.323	-13.73
879.49	-19.77
879.656	19.12
879.823	21.31
879.989	28.17
880.156	26.97
880.322	18.89
880.488	18.15
880.655	4.51
880.821	1.07
880.987	-0.48
881.154	1.51
881.32	14.88
881.486	5.9
881.652	13.25
881.819	19.82
881.985	17.19
882.151	16.89
882.317	18.93
882.483	25.03
882.649	27.84
882.816	33.61
882.982	32.48
883.148	28.97
883.314	26.98
883.48	28.28
883.646	23.6
883.812	21.03
883.978	23.43
884.144	22.81
884.31	22.66
884.476	19.1
884.642	16.65
884.807	17.76
884.973	18.4
885.139	22.46
885.305	21.2
885.471	25.53
885.637	29.82
885.802	24.25
885.968	23.38
886.134	20.71
886.3	23.19
886.465	25.54
886.631	21.16
886.797	23.1
886.962	21.38
887.128	19.5
887.293	11.96
887.459	1.89
887.625	10.33
887.79	14.31
887.956	12.01
888.121	15.36
888.287	8.13
888.452	13.4
888.618	5.51
888.783	-3.84
