Data from 2938042_Reflection_1.txt Node
Date: Sun Jul 12 14:34:54 EDT 2015
User: robert
Spectrometer: USB4E03001
Autoset integration time: false
Trigger mode: 4
Integration Time (sec): 1.000000E-1
Scans to average: 10
Electric dark correction enabled: true
Nonlinearity correction enabled: false
Boxcar width: 5
Stray light correction enabled: false
XAxis mode: Wavelengths
Stop averaging: false
Number of Pixels in Spectrum: 3648
>>>>>Begin Spectral Data<<<<<
177.566	219.5
177.785	348.33
178.005	-21856.25
178.225	252.4
178.445	116.95
178.665	68.69
178.885	146.6
179.105	122.56
179.324	203.74
179.544	-1114.87
179.764	1636.14
179.984	-462.46
180.204	-135.41
180.423	-58.54
180.643	-122.36
180.863	-61.28
181.083	-63.85
181.302	-77.26
181.522	-33.27
181.742	-18.56
181.961	-53.4
182.181	-46.7
182.401	-29.68
182.621	-29.91
182.84	-45.14
183.06	2.84
183.279	-15.66
183.499	10.75
183.719	32.24
183.938	54.55
184.158	50.12
184.377	75.46
184.597	95.79
184.816	81.06
185.036	38.64
185.256	36.36
185.475	32.65
185.695	25.09
185.914	-8.35
186.134	-2.23
186.353	4.11
186.572	36.61
186.792	33.85
187.011	31.49
187.231	80.93
187.45	88.5
187.67	98.31
187.889	77.03
188.108	78.84
188.328	90.42
188.547	97.36
188.766	106.91
188.986	86.6
189.205	54.29
189.424	-8.1
189.644	-130.65
189.863	-54.82
190.082	-28.95
190.302	-42.33
190.521	-36.48
190.74	-13.37
190.959	-23.75
191.178	-75.44
191.398	-42.66
191.617	-96.98
191.836	49.32
192.055	160.65
192.274	211.63
192.494	160.8
192.713	470.36
192.932	-459.11
193.151	104.99
193.37	-1011.11
193.589	10.14
193.808	2.13
194.027	-5.48
194.246	7.18
194.465	-121.95
194.685	-35.05
194.904	16.26
195.123	103.81
195.342	172.98
195.561	255.59
195.78	-52.16
195.999	-91.63
196.218	-167.13
196.436	744.27
196.655	345.06
196.874	188.92
197.093	159.33
197.312	74.38
197.531	49.17
197.75	48.08
197.969	71.25
198.188	64.81
198.407	74.18
198.625	85.02
198.844	82.72
199.063	81.92
199.282	69.12
199.501	61.38
199.719	90.26
199.938	92.17
200.157	94.7
200.376	93.89
200.594	98.42
200.813	95.32
201.032	65.83
201.251	69.89
201.469	69.29
201.688	87.95
201.907	85.78
202.125	72.67
202.344	68.24
202.563	86.82
202.781	57.8
203	61.64
203.218	51.27
203.437	55.25
203.656	64.91
203.874	56.44
204.093	40.76
204.311	56.49
204.53	66.92
204.748	94.01
204.967	77.84
205.185	52.53
205.404	-44.29
205.622	131.23
205.841	143.19
206.059	571.58
206.278	130.95
206.496	-88.81
206.715	38.24
206.933	-0.85
207.151	-1196.22
207.37	-13.6
207.588	-19.14
207.806	19.06
208.025	40.2
208.243	56.49
208.461	77.71
208.68	81.39
208.898	53.02
209.116	71.25
209.335	61.52
209.553	48.46
209.771	59.05
209.989	84.38
210.208	91.04
210.426	108.74
210.644	87.97
210.862	77.95
211.081	67.47
211.299	-7.67
211.517	-380.71
211.735	-549.24
211.953	-528.29
212.171	-2409.33
212.39	284.48
212.608	278.54
212.826	951.5
213.044	-132.3
213.262	-36.81
213.48	-67.48
213.698	-62.84
213.916	-8.42
214.134	19.34
214.352	52.82
214.57	104.88
214.788	78.58
215.006	78.51
215.224	67.24
215.442	29.52
215.66	41.91
215.878	45.32
216.096	7.82
216.314	-16.79
216.532	-21.75
216.75	4.6
216.968	1.67
217.185	18.06
217.403	37.41
217.621	36.73
217.839	71.81
218.057	26.71
218.275	16.19
218.492	40.81
218.71	39.05
218.928	38.44
219.146	17.12
219.363	23.94
219.581	34.64
219.799	25.88
220.017	15.68
220.234	17.46
220.452	23.46
220.67	44.11
220.887	52.36
221.105	40.59
221.323	37.26
221.54	32.91
221.758	16.08
221.976	-10.44
222.193	-55.26
222.411	-55.03
222.629	-102.03
222.846	-98.48
223.064	-115.76
223.281	-49.97
223.499	-24.38
223.716	-29.04
223.934	-35.59
224.151	-54.32
224.369	-64.01
224.586	-10.91
224.804	-23.72
225.021	-11.23
225.239	-8.81
225.456	-0.35
225.674	-8.16
225.891	-16.89
226.108	0.99
226.326	12.33
226.543	15.72
226.76	25.09
226.978	19.93
227.195	28.59
227.413	29.58
227.63	27.27
227.847	23.66
228.064	18.41
228.282	20.46
228.499	12.75
228.716	11.44
228.934	16.87
229.151	15.27
229.368	16.27
229.585	15.59
229.802	15.49
230.02	14.42
230.237	16.91
230.454	21.54
230.671	24.13
230.888	25.87
231.105	27.39
231.323	25.39
231.54	24.65
231.757	20.26
231.974	19.36
232.191	20.07
232.408	20.26
232.625	15.72
232.842	15.45
233.059	12.56
233.276	11.06
233.493	10.7
233.71	11.56
233.927	11.8
234.144	18.88
234.361	20.86
234.578	14.99
234.795	18.38
235.012	17.25
235.229	11.71
235.446	7.04
235.663	10.11
235.879	10.18
236.096	9.52
236.313	14.25
236.53	11.62
236.747	14.57
236.964	17.16
237.181	18.87
237.397	19.79
237.614	26.05
237.831	27.96
238.048	29
238.264	24.1
238.481	24.14
238.698	23.81
238.915	26.44
239.131	22.28
239.348	20.44
239.565	17.14
239.781	16.78
239.998	17.13
240.215	17.99
240.431	14.52
240.648	18.25
240.865	18.83
241.081	17.16
241.298	11.71
241.514	14.11
241.731	16.1
241.947	16.22
242.164	16.74
242.38	15.12
242.597	14.32
242.814	15.89
243.03	15.35
243.246	14.16
243.463	13.53
243.679	16.69
243.896	14.18
244.112	14.29
244.329	14.02
244.545	15.05
244.762	14.18
244.978	14.82
245.194	13.26
245.411	14.02
245.627	14.35
245.843	14.69
246.06	10.87
246.276	11.62
246.492	10.4
246.709	10.24
246.925	9.64
247.141	9.43
247.357	9.8
247.574	9.59
247.79	9.74
248.006	9.48
248.222	9.09
248.439	9.33
248.655	9.61
248.871	10.32
249.087	10.73
249.303	10.48
249.519	11.2
249.736	11.81
249.952	12.24
250.168	12.08
250.384	12.91
250.6	11.33
250.816	12.85
251.032	12.79
251.248	9.84
251.464	9.96
251.68	9.96
251.896	9.49
252.112	7.58
252.328	8.51
252.544	8.64
252.76	6.85
252.976	7.96
253.192	6.33
253.408	5.31
253.624	6.42
253.84	5.26
254.056	6.33
254.272	5.3
254.487	7.38
254.703	5.39
254.919	2.75
255.135	5.04
255.351	1.02
255.567	3.67
255.782	4
255.998	3.33
256.214	3.37
256.43	-1.23
256.646	2.18
256.861	2.92
257.077	5.12
257.293	6.15
257.508	6.64
257.724	10.47
257.94	11.52
258.155	10.01
258.371	10.43
258.587	11.14
258.802	13.49
259.018	11.58
259.234	10.99
259.449	10.29
259.665	9.21
259.88	9.49
260.096	10.27
260.312	9.52
260.527	9.83
260.743	10.19
260.958	10.41
261.174	9.47
261.389	10.25
261.605	9.56
261.82	9.81
262.036	10.96
262.251	9.29
262.466	8.9
262.682	9.31
262.897	9.71
263.113	8.38
263.328	7.28
263.543	8.01
263.759	6.99
263.974	8.17
264.189	8.64
264.405	8.78
264.62	10.82
264.835	9.87
265.051	11.33
265.266	11.61
265.481	11.16
265.696	11.59
265.912	8.68
266.127	10.66
266.342	8.57
266.557	7.92
266.773	7.47
266.988	7.61
267.203	6.49
267.418	6.86
267.633	5.8
267.848	6.9
268.064	6.49
268.279	7.8
268.494	6.62
268.709	7.78
268.924	6.77
269.139	7.16
269.354	6.78
269.569	5.92
269.784	4.36
269.999	5.31
270.214	4.3
270.429	4.81
270.644	4.82
270.859	5.15
271.074	4.37
271.289	5.99
271.504	6.17
271.719	5.79
271.934	7.57
272.149	7.59
272.363	7.58
272.578	8.37
272.793	8.17
273.008	8.53
273.223	8.59
273.438	8.87
273.653	8.32
273.867	8.19
274.082	9.03
274.297	9.4
274.512	9.24
274.726	9.12
274.941	9.17
275.156	9.88
275.371	10.03
275.585	10.3
275.8	9.36
276.015	9.58
276.229	9.25
276.444	7.13
276.659	6.86
276.873	6.11
277.088	6.22
277.302	5.95
277.517	6.66
277.732	6.29
277.946	6.09
278.161	7.97
278.375	7.27
278.59	6.43
278.804	9.38
279.019	8.87
279.233	8.57
279.448	8.65
279.662	9.99
279.877	8.55
280.091	9.6
280.306	10.27
280.52	9.54
280.735	10.01
280.949	10.3
281.163	8.02
281.378	7.72
281.592	8.37
281.806	8.38
282.021	6.91
282.235	7.6
282.449	7.77
282.664	6.89
282.878	5.92
283.092	5.9
283.307	6.09
283.521	7.35
283.735	6.84
283.949	7.3
284.164	7.69
284.378	8.42
284.592	7.91
284.806	7.2
285.02	6.05
285.234	7.54
285.449	6.82
285.663	7.07
285.877	6.88
286.091	7.57
286.305	7.08
286.519	6.43
286.733	4.86
286.947	3.89
287.161	3.22
287.375	3.82
287.589	4.14
287.803	5.16
288.017	5.36
288.231	4.84
288.445	4.66
288.659	6.28
288.873	5.88
289.087	7.54
289.301	8.25
289.515	8.92
289.729	8.86
289.943	8.11
290.157	7.95
290.371	8.93
290.584	9.72
290.798	9.75
291.012	9.64
291.226	10.98
291.44	11.85
291.654	11.81
291.867	12.57
292.081	13.86
292.295	13.7
292.509	13.97
292.722	13.66
292.936	11.78
293.15	11.1
293.364	11.24
293.577	11.74
293.791	11.7
294.005	13.42
294.218	12.59
294.432	9.94
294.645	11.51
294.859	11.25
295.073	10.92
295.286	13.38
295.5	14.51
295.713	14.35
295.927	13.28
296.14	12.22
296.354	11.05
296.568	11.62
296.781	13.17
296.994	12.18
297.208	11.91
297.421	11.83
297.635	10.68
297.848	9.65
298.062	8.78
298.275	9.46
298.489	10.23
298.702	9.57
298.915	8.49
299.129	9.12
299.342	9.94
299.555	10.83
299.769	11.11
299.982	12.25
300.195	12.69
300.409	13.26
300.622	12.48
300.835	12.05
301.048	12.74
301.262	13.94
301.475	12.43
301.688	10.77
301.901	11.11
302.115	11.48
302.328	9.16
302.541	9.13
302.754	8.31
302.967	8.24
303.18	8.83
303.393	9.7
303.607	8.3
303.82	7.64
304.033	9.28
304.246	8.49
304.459	6.83
304.672	8.92
304.885	9.57
305.098	9.85
305.311	10.88
305.524	10.3
305.737	8.98
305.95	10.05
306.163	11.32
306.376	11.32
306.589	11.57
306.802	12.93
307.015	12.06
307.228	13.01
307.44	13.46
307.653	13.03
307.866	13.6
308.079	13.77
308.292	12.74
308.505	12.44
308.718	11.5
308.93	12.27
309.143	11.61
309.356	11.7
309.569	11.01
309.781	11.02
309.994	11.01
310.207	11.52
310.42	11.66
310.632	11.9
310.845	14.33
311.058	14.5
311.27	13.88
311.483	14.4
311.696	14.4
311.908	15.24
312.121	15.36
312.333	14.94
312.546	13.69
312.759	13.53
312.971	13.51
313.184	11.51
313.396	11.31
313.609	10.27
313.821	9.68
314.034	10.26
314.246	8.62
314.459	9.52
314.671	10.76
314.884	9.89
315.096	10.44
315.309	11.6
315.521	10.18
315.733	11.69
315.946	11.25
316.158	11.29
316.371	10.11
316.583	10.25
316.795	9.45
317.008	8.54
317.22	9.74
317.432	10.23
317.644	10.79
317.857	11.32
318.069	10.26
318.281	11.68
318.494	12.04
318.706	12.62
318.918	12.67
319.13	12.36
319.342	11.83
319.555	12.71
319.767	12.18
319.979	10.8
320.191	11.83
320.403	11.77
320.615	10.51
320.827	11.12
321.039	12.86
321.252	13.99
321.464	12.56
321.676	13.39
321.888	11.15
322.1	11.74
322.312	12.48
322.524	13.17
322.736	13.92
322.948	15.92
323.16	15.43
323.372	13.73
323.584	12.76
323.796	14.59
324.007	14.26
324.219	16.26
324.431	15.37
324.643	14.53
324.855	12.64
325.067	11.79
325.279	11.2
325.491	11.92
325.702	12.51
325.914	13.61
326.126	13.03
326.338	13.47
326.55	12.77
326.761	13.55
326.973	14.35
327.185	15.42
327.396	16.74
327.608	16.7
327.82	15.6
328.032	15.56
328.243	15.08
328.455	15.65
328.666	15.34
328.878	16.74
329.09	16.49
329.301	17.98
329.513	18.57
329.725	18.27
329.936	18.34
330.148	18.12
330.359	18.45
330.571	17.94
330.782	17.35
330.994	18.89
331.205	18.39
331.417	20.63
331.628	19.16
331.84	18.17
332.051	18.12
332.262	18.2
332.474	19.61
332.685	20.13
332.897	20.79
333.108	21.56
333.319	20.48
333.531	19.45
333.742	19.12
333.953	18.64
334.165	19.05
334.376	18.53
334.587	18.97
334.799	19.26
335.01	19.2
335.221	18.15
335.432	19.33
335.644	19.44
335.855	20.61
336.066	20.46
336.277	21.86
336.488	21.55
336.7	23.06
336.911	23.17
337.122	22.8
337.333	23.55
337.544	25.05
337.755	22.89
337.966	23.49
338.177	22.43
338.388	21.6
338.599	20.2
338.811	20.54
339.022	18.43
339.233	18.96
339.444	19.23
339.655	17.57
339.866	16.65
340.076	16.89
340.287	16.25
340.498	17.26
340.709	18.17
340.92	19.5
341.131	19.17
341.342	21.08
341.553	20.19
341.764	19.22
341.975	19.8
342.185	19.99
342.396	20.29
342.607	20.78
342.818	20.29
343.029	19.49
343.239	18.66
343.45	19.68
343.661	18.68
343.872	17.97
344.082	17.8
344.293	17.53
344.504	17.02
344.714	17.26
344.925	17.01
345.136	17.08
345.346	17.51
345.557	17.58
345.768	16.34
345.978	16.2
346.189	17.52
346.399	17.84
346.61	18.89
346.821	19.16
347.031	19.55
347.242	19.38
347.452	19.93
347.663	20.25
347.873	20.84
348.084	20.98
348.294	21.11
348.504	20.09
348.715	20.12
348.925	20.02
349.136	19.47
349.346	18.65
349.557	18.46
349.767	18.08
349.977	17.18
350.188	17.64
350.398	18.45
350.608	17.29
350.819	17.19
351.029	17
351.239	17.36
351.449	19.15
351.66	19.56
351.87	18.88
352.08	18.85
352.29	19.65
352.501	19.19
352.711	19.86
352.921	20
353.131	20.83
353.341	21.85
353.552	20.99
353.762	20.24
353.972	20.49
354.182	20.69
354.392	20.44
354.602	19.81
354.812	19.14
355.022	18.91
355.232	20.35
355.442	20.14
355.652	19.52
355.862	19.04
356.072	18.48
356.282	17.56
356.492	17.64
356.702	17.65
356.912	16.73
357.122	17.12
357.332	17.35
357.542	17.36
357.752	18.05
357.962	17.01
358.171	17.7
358.381	17.73
358.591	18.7
358.801	18.64
359.011	18.63
359.221	20.1
359.43	18.88
359.64	17.73
359.85	17.55
360.06	16.49
360.269	17
360.479	16.28
360.689	16.73
360.899	16.32
361.108	16.26
361.318	17.04
361.528	16.58
361.737	17.92
361.947	17.92
362.156	17.83
362.366	18.47
362.576	18.81
362.785	18.41
362.995	17.72
363.204	17.42
363.414	18.27
363.623	17.25
363.833	16.9
364.042	15.91
364.252	16.76
364.461	16.74
364.671	16.19
364.88	16.19
365.09	16.44
365.299	16.43
365.509	16.77
365.718	16
365.927	16.68
366.137	16.75
366.346	17.24
366.555	17.18
366.765	17.19
366.974	16.96
367.183	16.84
367.393	17.4
367.602	17.38
367.811	16.78
368.021	16.62
368.23	15.73
368.439	16.34
368.648	16.1
368.857	15.35
369.067	15.27
369.276	15.19
369.485	14.71
369.694	14.71
369.903	15.51
370.112	15.95
370.321	15.89
370.531	15.6
370.74	15.23
370.949	14.91
371.158	15.31
371.367	15.19
371.576	15.99
371.785	15.91
371.994	16.53
372.203	16.61
372.412	16
372.621	16.1
372.83	16.16
373.039	16.26
373.248	16.55
373.457	15.96
373.666	15.87
373.874	14.77
374.083	15.43
374.292	14.65
374.501	14.31
374.71	15.07
374.919	14.77
375.128	14.75
375.336	14.09
375.545	14.34
375.754	14.66
375.963	14.16
376.171	14.45
376.38	14.37
376.589	13.96
376.798	14.08
377.006	13.55
377.215	13.92
377.424	13.98
377.632	14.23
377.841	14.25
378.05	14.12
378.258	14.51
378.467	14.45
378.675	14.25
378.884	14.63
379.093	14.49
379.301	14.9
379.51	15.04
379.718	15.53
379.927	15.45
380.135	14.74
380.344	15.02
380.552	14.95
380.761	15.31
380.969	15.15
381.177	14.34
381.386	13.75
381.594	13.42
381.803	12.75
382.011	12.31
382.219	11.72
382.428	11.44
382.636	11.29
382.845	11
383.053	10.5
383.261	10.48
383.469	10.91
383.678	11.15
383.886	10.75
384.094	10.88
384.302	10.57
384.511	11
384.719	11.55
384.927	11.34
385.135	11.32
385.343	11.57
385.552	11.84
385.76	11.88
385.968	11.65
386.176	12.27
386.384	12.26
386.592	12.18
386.8	12.16
387.008	12.09
387.216	11.96
387.424	12.01
387.633	11.59
387.841	11.37
388.049	10.98
388.257	10.96
388.465	10.93
388.672	11
388.88	11.2
389.088	11.08
389.296	10.71
389.504	11.1
389.712	11.28
389.92	11.29
390.128	11.39
390.336	11.46
390.544	11.05
390.751	10.72
390.959	10.43
391.167	10.48
391.375	10.08
391.583	9.94
391.79	9.48
391.998	9.1
392.206	9.2
392.414	8.82
392.621	8.9
392.829	9.48
393.037	9.26
393.244	9.23
393.452	9
393.66	9.13
393.867	9.33
394.075	9.13
394.283	9.38
394.49	9.49
394.698	9.74
394.905	9.52
395.113	9.1
395.32	8.87
395.528	8.83
395.735	8.84
395.943	9.24
396.15	8.9
396.358	8.59
396.565	8.01
396.773	7.95
396.98	7.89
397.188	7.77
397.395	8.37
397.602	8.8
397.81	8.79
398.017	8.86
398.225	8.8
398.432	9.3
398.639	9.8
398.847	10.22
399.054	9.92
399.261	9.46
399.468	9.96
399.676	9.57
399.883	9.38
400.09	9.48
400.297	9.22
400.505	9.03
400.712	8.82
400.919	8.79
401.126	8.67
401.333	8.74
401.54	9.04
401.748	8.93
401.955	8.94
402.162	9.05
402.369	9.03
402.576	9.08
402.783	8.76
402.99	8.83
403.197	8.95
403.404	8.96
403.611	8.98
403.818	9.07
404.025	9.16
404.232	8.98
404.439	8.88
404.646	8.96
404.853	9.19
405.06	9.4
405.267	9.19
405.474	9.17
405.681	9.32
405.887	9.3
406.094	9.19
406.301	9.07
406.508	9.14
406.715	9.09
406.922	9
407.128	8.76
407.335	8.83
407.542	8.99
407.749	9.07
407.955	8.78
408.162	8.99
408.369	9.02
408.575	8.75
408.782	8.47
408.989	8.51
409.195	8.45
409.402	8.42
409.609	8.45
409.815	8.17
410.022	8.09
410.228	8.37
410.435	8.06
410.642	7.59
410.848	7.73
411.055	8.09
411.261	8.01
411.468	8.19
411.674	8.02
411.881	7.96
412.087	8.23
412.294	8.35
412.5	8.23
412.706	8.43
412.913	8.61
413.119	8.64
413.326	8.44
413.532	8.76
413.738	8.5
413.945	8.6
414.151	8.85
414.357	8.94
414.564	8.59
414.77	8.57
414.976	8.46
415.182	8.84
415.389	8.97
415.595	8.92
415.801	8.87
416.007	8.93
416.214	9.16
416.42	8.63
416.626	8.44
416.832	8.61
417.038	8.39
417.244	8.2
417.45	8.13
417.657	8.01
417.863	8.21
418.069	8.13
418.275	7.94
418.481	7.78
418.687	8.11
418.893	8.2
419.099	8.25
419.305	8.44
419.511	8.43
419.717	8.4
419.923	8.37
420.129	8.25
420.335	8.32
420.541	8.46
420.746	8.59
420.952	8.45
421.158	8.3
421.364	8.2
421.57	8.06
421.776	8.17
421.982	8.06
422.187	8.14
422.393	8.14
422.599	8.07
422.805	8.08
423.01	7.93
423.216	8.04
423.422	8.12
423.628	8.19
423.833	8.25
424.039	8.26
424.245	8.27
424.45	8.23
424.656	8.26
424.862	8.38
425.067	8.45
425.273	8.56
425.478	8.47
425.684	8.5
425.889	8.4
426.095	8.49
426.301	8.53
426.506	8.49
426.712	8.52
426.917	8.63
427.123	8.36
427.328	8.3
427.533	8.35
427.739	8.18
427.944	8.29
428.15	8.44
428.355	8.29
428.561	8.08
428.766	8.27
428.971	8.2
429.177	7.98
429.382	8.13
429.587	7.92
429.793	7.92
429.998	8.27
430.203	8.13
430.408	8.02
430.614	7.85
430.819	7.8
431.024	7.9
431.229	7.73
431.434	7.67
431.64	7.7
431.845	8.01
432.05	7.82
432.255	7.68
432.46	7.44
432.665	7.42
432.87	7.71
433.076	7.81
433.281	7.66
433.486	7.74
433.691	7.91
433.896	7.9
434.101	7.65
434.306	7.81
434.511	7.85
434.716	7.98
434.921	7.93
435.126	7.93
435.331	7.86
435.535	7.81
435.74	7.9
435.945	7.92
436.15	7.84
436.355	7.87
436.56	7.71
436.765	7.63
436.97	7.73
437.174	7.76
437.379	7.8
437.584	7.89
437.789	7.9
437.993	7.97
438.198	7.84
438.403	7.8
438.608	7.78
438.812	7.79
439.017	7.88
439.222	7.76
439.426	7.77
439.631	7.76
439.836	7.63
440.04	7.52
440.245	7.49
440.45	7.55
440.654	7.61
440.859	7.5
441.063	7.44
441.268	7.3
441.472	7.3
441.677	7.32
441.881	7.12
442.086	7.25
442.29	7.45
442.495	7.32
442.699	7.31
442.904	7.21
443.108	7.37
443.312	7.5
443.517	7.59
443.721	7.72
443.925	7.76
444.13	7.7
444.334	7.77
444.538	7.68
444.743	7.87
444.947	7.89
445.151	7.92
445.356	7.8
445.56	7.88
445.764	7.7
445.968	7.61
446.173	7.56
446.377	7.73
446.581	7.67
446.785	7.67
446.989	7.58
447.193	7.55
447.398	7.58
447.602	7.69
447.806	7.6
448.01	7.75
448.214	7.83
448.418	7.71
448.622	7.53
448.826	7.52
449.03	7.54
449.234	7.58
449.438	7.49
449.642	7.49
449.846	7.38
450.05	7.14
450.254	7.09
450.458	7.19
450.662	7.39
450.866	7.46
451.069	7.29
451.273	7.4
451.477	7.27
451.681	7.51
451.885	7.51
452.089	7.51
452.292	7.65
452.496	7.89
452.7	7.88
452.904	7.84
453.107	7.92
453.311	8.15
453.515	8.01
453.719	7.87
453.922	7.92
454.126	7.7
454.33	7.67
454.533	7.57
454.737	7.27
454.94	7.19
455.144	7.28
455.348	7.21
455.551	7.16
455.755	7.23
455.958	7.39
456.162	7.14
456.365	7.27
456.569	7.43
456.772	7.64
456.976	7.61
457.179	7.38
457.383	7.32
457.586	7.19
457.79	7.21
457.993	7.09
458.196	7.1
458.4	7.22
458.603	7.11
458.807	7.15
459.01	6.96
459.213	7
459.417	7.07
459.62	7.04
459.823	7.17
460.026	7
460.23	6.99
460.433	6.95
460.636	6.8
460.839	6.83
461.042	6.72
461.246	6.9
461.449	6.88
461.652	6.9
461.855	7.03
462.058	6.95
462.261	7.1
462.464	7.35
462.668	7.51
462.871	7.65
463.074	7.73
463.277	7.76
463.48	7.73
463.683	7.75
463.886	7.83
464.089	7.7
464.292	7.82
464.495	7.93
464.698	7.66
464.901	7.48
465.104	7.36
465.306	7.33
465.509	7.24
465.712	7.17
465.915	7.06
466.118	6.81
466.321	6.93
466.524	6.93
466.726	6.73
466.929	6.77
467.132	6.76
467.335	6.76
467.538	6.8
467.74	6.77
467.943	6.76
468.146	6.71
468.348	6.87
468.551	6.64
468.754	6.51
468.956	6.46
469.159	6.51
469.362	6.65
469.564	6.68
469.767	6.87
469.969	7.06
470.172	6.97
470.375	6.99
470.577	7.12
470.78	7.04
470.982	7.1
471.185	7.13
471.387	6.97
471.59	6.95
471.792	7.04
471.995	6.97
472.197	6.99
472.399	7.19
472.602	7.27
472.804	6.95
473.007	7.01
473.209	6.96
473.411	6.88
473.614	7.04
473.816	6.83
474.018	6.76
474.22	6.5
474.423	6.53
474.625	6.49
474.827	6.6
475.03	6.66
475.232	6.59
475.434	6.55
475.636	6.76
475.838	6.69
476.04	6.65
476.243	6.68
476.445	6.69
476.647	6.74
476.849	6.64
477.051	6.66
477.253	6.8
477.455	6.9
477.657	7.1
477.859	6.99
478.061	7.09
478.263	7.13
478.465	7.06
478.667	7.05
478.869	6.85
479.071	6.95
479.273	6.88
479.475	6.76
479.677	6.74
479.879	6.69
480.081	6.74
480.283	6.8
480.485	6.82
480.686	6.82
480.888	6.99
481.09	6.95
481.292	6.83
481.494	6.78
481.695	6.8
481.897	6.84
482.099	6.77
482.301	6.8
482.502	6.77
482.704	6.83
482.906	6.88
483.107	6.83
483.309	6.94
483.511	6.96
483.712	6.98
483.914	7.03
484.115	7.05
484.317	7.14
484.519	7.12
484.72	7.12
484.922	7.12
485.123	7.05
485.325	7.1
485.526	7.03
485.728	7.04
485.929	7.02
486.131	7
486.332	6.98
486.534	6.89
486.735	6.91
486.936	6.89
487.138	6.84
487.339	6.92
487.541	6.94
487.742	6.98
487.943	6.96
488.144	6.99
488.346	7.06
488.547	7.09
488.748	7.11
488.95	7.09
489.151	7.06
489.352	7.12
489.553	7.09
489.755	6.99
489.956	6.92
490.157	7.03
490.358	7.01
490.559	6.88
490.76	6.85
490.961	6.81
491.163	6.89
491.364	6.89
491.565	6.91
491.766	6.99
491.967	7.12
492.168	7.19
492.369	7.08
492.57	7.12
492.771	7.17
492.972	7.24
493.173	7.29
493.374	7.31
493.575	7.39
493.776	7.52
493.976	7.48
494.177	7.35
494.378	7.49
494.579	7.61
494.78	7.53
494.981	7.62
495.182	7.58
495.382	7.6
495.583	7.49
495.784	7.41
495.985	7.2
496.185	7.24
496.386	7.28
496.587	7.11
496.788	7.05
496.988	7.2
497.189	7.09
497.39	7.1
497.59	6.99
497.791	7.06
497.992	6.99
498.192	7.19
498.393	6.94
498.593	6.99
498.794	7.05
498.994	7.18
499.195	7.04
499.395	7.05
499.596	7
499.796	6.98
499.997	6.91
500.197	7.01
500.398	7.09
500.598	7.39
500.799	7.37
500.999	7.31
501.199	7.23
501.4	7.4
501.6	7.42
501.801	7.38
502.001	7.47
502.201	7.56
502.402	7.54
502.602	7.2
502.802	7.15
503.002	7.1
503.203	7.17
503.403	7.15
503.603	7.21
503.803	7.24
504.003	7.46
504.204	7.52
504.404	7.61
504.604	7.59
504.804	7.72
505.004	7.79
505.204	7.76
505.404	7.82
505.604	7.8
505.804	7.79
506.005	7.71
506.205	7.53
506.405	7.62
506.605	7.52
506.805	7.65
507.005	7.6
507.204	7.64
507.404	7.7
507.604	7.68
507.804	7.71
508.004	7.55
508.204	7.54
508.404	7.65
508.604	7.6
508.804	7.6
509.003	7.62
509.203	7.7
509.403	7.67
509.603	7.6
509.803	7.53
510.002	7.49
510.202	7.49
510.402	7.54
510.602	7.51
510.801	7.63
511.001	7.56
511.201	7.57
511.4	7.64
511.6	7.69
511.8	7.69
511.999	7.73
512.199	7.82
512.398	7.74
512.598	7.8
512.797	7.82
512.997	7.83
513.197	7.85
513.396	7.82
513.596	7.66
513.795	7.65
513.994	7.66
514.194	7.6
514.393	7.6
514.593	7.83
514.792	7.82
514.992	7.59
515.191	7.43
515.39	7.63
515.59	7.63
515.789	7.61
515.988	7.53
516.188	7.4
516.387	7.48
516.586	7.38
516.786	7.25
516.985	7.32
517.184	7.51
517.383	7.51
517.582	7.42
517.782	7.43
517.981	7.48
518.18	7.57
518.379	7.72
518.578	7.77
518.777	7.87
518.976	8.03
519.176	8.07
519.375	8
519.574	7.96
519.773	7.99
519.972	8.14
520.171	8.19
520.37	8.16
520.569	8.13
520.768	8.16
520.967	8.2
521.166	8.09
521.365	7.98
521.564	8.17
521.762	8.29
521.961	8.27
522.16	8.05
522.359	8.06
522.558	8.07
522.757	8.1
522.956	7.96
523.154	7.94
523.353	7.93
523.552	8.02
523.751	7.92
523.949	7.86
524.148	7.82
524.347	7.82
524.546	7.93
524.744	8.03
524.943	8.04
525.142	8.15
525.34	8.14
525.539	8.22
525.737	8.16
525.936	8.17
526.135	8.24
526.333	8.34
526.532	8.39
526.73	8.25
526.929	8.2
527.127	8.26
527.326	8.27
527.524	8.22
527.723	8.21
527.921	8.23
528.12	8.24
528.318	8.18
528.516	8.18
528.715	8.19
528.913	8.28
529.112	8.32
529.31	8.34
529.508	8.39
529.707	8.41
529.905	8.36
530.103	8.42
530.301	8.46
530.5	8.53
530.698	8.54
530.896	8.62
531.094	8.61
531.293	8.57
531.491	8.47
531.689	8.36
531.887	8.47
532.085	8.6
532.283	8.64
532.481	8.62
532.68	8.66
532.878	8.69
533.076	8.58
533.274	8.6
533.472	8.6
533.67	8.73
533.868	8.8
534.066	8.76
534.264	8.84
534.462	8.8
534.66	8.82
534.858	8.85
535.056	8.84
535.253	8.85
535.451	8.77
535.649	8.81
535.847	8.81
536.045	8.77
536.243	8.78
536.441	8.61
536.638	8.74
536.836	8.83
537.034	8.83
537.232	8.88
537.43	8.93
537.627	9.14
537.825	9.16
538.023	9.09
538.22	9.17
538.418	9.18
538.616	9.27
538.813	9.22
539.011	9.24
539.209	9.28
539.406	9.24
539.604	9.4
539.801	9.28
539.999	9.36
540.196	9.49
540.394	9.4
540.591	9.51
540.789	9.5
540.986	9.53
541.184	9.53
541.381	9.51
541.579	9.56
541.776	9.58
541.974	9.71
542.171	9.72
542.368	9.7
542.566	9.9
542.763	9.85
542.96	9.98
543.158	9.98
543.355	9.98
543.552	10.06
543.75	10.07
543.947	10.14
544.144	10.11
544.341	10.14
544.539	10.2
544.736	10.14
544.933	10.19
545.13	10.25
545.327	10.31
545.524	10.41
545.722	10.42
545.919	10.45
546.116	10.44
546.313	10.54
546.51	10.55
546.707	10.6
546.904	10.51
547.101	10.56
547.298	10.52
547.495	10.5
547.692	10.53
547.889	10.63
548.086	10.64
548.283	10.8
548.48	10.86
548.677	11.02
548.874	11.12
549.07	11.31
549.267	11.42
549.464	11.39
549.661	11.56
549.858	11.59
550.055	11.58
550.251	11.93
550.448	11.77
550.645	11.74
550.842	11.75
551.038	11.83
551.235	12.04
551.432	12.16
551.628	12.5
551.825	12.55
552.022	12.51
552.218	12.59
552.415	12.52
552.612	12.45
552.808	12.5
553.005	12.68
553.201	12.8
553.398	12.71
553.594	12.64
553.791	12.56
553.987	12.6
554.184	12.7
554.38	12.79
554.577	12.76
554.773	12.74
554.97	12.77
555.166	12.83
555.362	12.78
555.559	12.73
555.755	12.87
555.952	12.84
556.148	12.86
556.344	13.12
556.541	13.19
556.737	13.34
556.933	13.67
557.129	13.55
557.326	13.51
557.522	13.67
557.718	13.89
557.914	13.95
558.11	14.23
558.307	14.14
558.503	14.25
558.699	14.29
558.895	14.56
559.091	14.73
559.287	15.01
559.483	14.85
559.679	14.9
559.876	14.93
560.072	15.27
560.268	15.43
560.464	15.55
560.66	15.33
560.856	15.36
561.052	15.44
561.247	15.43
561.443	15.41
561.639	15.45
561.835	15.45
562.031	15.65
562.227	15.56
562.423	15.32
562.619	15.39
562.815	15.66
563.01	15.75
563.206	15.72
563.402	15.67
563.598	15.71
563.793	15.89
563.989	16.01
564.185	15.71
564.381	15.76
564.576	15.68
564.772	15.83
564.968	15.76
565.163	15.82
565.359	15.71
565.555	15.76
565.75	15.81
565.946	15.81
566.141	15.76
566.337	15.8
566.532	15.8
566.728	15.92
566.923	15.93
567.119	16.05
567.314	16.11
567.51	16.34
567.705	16.43
567.901	16.45
568.096	16.51
568.292	16.7
568.487	16.96
568.682	16.9
568.878	17.07
569.073	17.22
569.268	17.06
569.464	17.16
569.659	17.16
569.854	17.12
570.05	17.38
570.245	17.53
570.44	17.53
570.635	17.73
570.831	17.74
571.026	17.88
571.221	17.93
571.416	18.13
571.611	18.19
571.806	18.04
572.002	18.19
572.197	18.26
572.392	18.32
572.587	18.33
572.782	18.12
572.977	18.16
573.172	18.06
573.367	18.05
573.562	18
573.757	18.12
573.952	18.24
574.147	18.33
574.342	18.24
574.537	18.21
574.732	18.26
574.927	18.32
575.121	18.59
575.316	18.63
575.511	18.5
575.706	18.47
575.901	18.26
576.096	18.4
576.29	18.44
576.485	18.4
576.68	18.47
576.875	18.53
577.069	18.58
577.264	18.54
577.459	18.61
577.654	18.85
577.848	19.04
578.043	19.01
578.238	19.03
578.432	18.72
578.627	19.08
578.821	19.17
579.016	19.21
579.21	19.73
579.405	19.54
579.6	19.74
579.794	19.53
579.989	19.41
580.183	19.88
580.378	20.01
580.572	20.56
580.766	20.48
580.961	20.43
581.155	20.29
581.35	20
581.544	20.34
581.738	20.15
581.933	20.5
582.127	20.64
582.321	20.55
582.516	20.63
582.71	20.25
582.904	20.13
583.099	20.1
583.293	20.26
583.487	20.28
583.681	20.01
583.875	20.53
584.07	20.48
584.264	20.42
584.458	20.19
584.652	19.99
584.846	20
585.04	20.11
585.234	20.08
585.428	20.05
585.623	20.05
585.817	20.41
586.011	20.18
586.205	20.14
586.399	20.31
586.593	20.43
586.787	20.48
586.981	20.64
587.174	20.66
587.368	20.76
587.562	20.78
587.756	20.75
587.95	20.47
588.144	20.47
588.338	20.51
588.532	20.55
588.725	20.53
588.919	20.52
589.113	20.73
589.307	20.87
589.501	20.96
589.694	20.97
589.888	21.01
590.082	21.44
590.275	21.51
590.469	21.61
590.663	21.53
590.856	21.5
591.05	21.54
591.244	21.53
591.437	21.35
591.631	21.62
591.824	21.84
592.018	21.62
592.212	21.45
592.405	21.3
592.599	21.26
592.792	21.29
592.986	21.59
593.179	21.75
593.372	21.55
593.566	21.61
593.759	21.19
593.953	21.04
594.146	21.56
594.339	21.66
594.533	21.67
594.726	21.38
594.92	21.3
595.113	21.22
595.306	21.2
595.499	21.17
595.693	21.1
595.886	21.3
596.079	21.47
596.272	21.22
596.466	21.16
596.659	21.05
596.852	21.43
597.045	21.67
597.238	21.75
597.431	21.72
597.624	21.75
597.818	21.84
598.011	21.85
598.204	21.7
598.397	21.76
598.59	21.71
598.783	21.72
598.976	21.62
599.169	21.65
599.362	21.62
599.555	21.78
599.748	21.88
599.941	21.96
600.134	21.85
600.326	22.05
600.519	22.1
600.712	22.11
600.905	22.18
601.098	22.22
601.291	22.29
601.483	22.15
601.676	22.1
601.869	22.18
602.062	22.15
602.255	22.23
602.447	22
602.64	21.98
602.833	22.05
603.025	22.2
603.218	22.34
603.411	22.16
603.603	22.29
603.796	22.32
603.989	22.31
604.181	22.28
604.374	22.35
604.566	22.59
604.759	22.53
604.951	22.53
605.144	22.55
605.336	22.44
605.529	22.58
605.721	22.62
605.914	22.46
606.106	22.48
606.299	22.62
606.491	22.78
606.683	22.67
606.876	22.46
607.068	22.56
607.26	22.44
607.453	22.26
607.645	22.11
607.837	21.97
608.03	22.12
608.222	21.89
608.414	21.83
608.606	21.68
608.799	21.84
608.991	22.14
609.183	22.26
609.375	22.59
609.567	22.75
609.759	22.97
609.952	23.09
610.144	22.89
610.336	23.37
610.528	23.49
610.72	23.5
610.912	23.47
611.104	23.73
611.296	23.69
611.488	23.67
611.68	23.68
611.872	23.53
612.064	23.53
612.256	23.75
612.448	23.45
612.64	23.49
612.832	23.6
613.023	23.29
613.215	23.09
613.407	22.82
613.599	22.92
613.791	23.05
613.983	23.25
614.174	23.38
614.366	23.21
614.558	22.83
614.75	22.75
614.941	22.84
615.133	23.23
615.325	23.34
615.516	23.39
615.708	23.05
615.9	23.22
616.091	23.25
616.283	23.31
616.475	23.6
616.666	23.78
616.858	23.5
617.049	23.4
617.241	23.32
617.432	23.32
617.624	23.75
617.815	23.84
618.007	23.54
618.198	23.67
618.39	23.42
618.581	23.04
618.773	23.38
618.964	23.37
619.155	23.42
619.347	23.2
619.538	22.96
619.729	22.48
619.921	22.57
620.112	22.38
620.303	22.09
620.494	22.23
620.686	22.6
620.877	22.2
621.068	22.65
621.259	22.33
621.451	22.62
621.642	22.88
621.833	22.87
622.024	22.62
622.215	22.96
622.406	22.63
622.597	22.56
622.788	22.51
622.98	22.97
623.171	23.11
623.362	23.32
623.553	22.93
623.744	22.61
623.935	22.71
624.126	22.7
624.317	22.92
624.508	23.33
624.698	23.15
624.889	23.11
625.08	23.21
625.271	23.1
625.462	23.17
625.653	23.49
625.844	23.87
626.034	23.85
626.225	23.88
626.416	23.71
626.607	23.62
626.798	23.62
626.988	23.71
627.179	23.52
627.37	23.25
627.56	23.21
627.751	23.23
627.942	23.19
628.132	23.27
628.323	23.5
628.514	23.26
628.704	23.13
628.895	23.29
629.085	23.38
629.276	23.42
629.466	23.57
629.657	23.48
629.847	23.64
630.038	23.57
630.228	23.63
630.419	23.53
630.609	23.76
630.8	24.25
630.99	24.38
631.181	24.18
631.371	24.1
631.561	23.88
631.752	24.09
631.942	23.71
632.132	23.78
632.323	23.74
632.513	23.72
632.703	23.81
632.893	23.42
633.084	23.37
633.274	23.34
633.464	23.37
633.654	23.7
633.844	23.5
634.034	23.65
634.225	23.83
634.415	23.7
634.605	23.53
634.795	23.62
634.985	23.65
635.175	23.45
635.365	23.69
635.555	23.47
635.745	23.4
635.935	23.55
636.125	23.48
636.315	23.09
636.505	23.28
636.695	23.55
636.885	23.37
637.075	23.53
637.265	23.62
637.455	23.61
637.644	23.8
637.834	23.73
638.024	23.53
638.214	23.72
638.404	23.83
638.593	24.08
638.783	23.7
638.973	23.67
639.163	23.73
639.352	23.58
639.542	23.42
639.732	23.33
639.921	23.15
640.111	23.27
640.301	23.17
640.49	23.12
640.68	22.85
640.87	22.97
641.059	22.91
641.249	23.01
641.438	22.92
641.628	23.16
641.817	23.29
642.007	23.51
642.196	23.45
642.386	23.47
642.575	23.53
642.764	23.48
642.954	23.53
643.143	23.52
643.333	22.91
643.522	23.19
643.711	23.28
643.901	23.47
644.09	23.29
644.279	23.69
644.469	23.41
644.658	23.42
644.847	23.67
645.036	23.54
645.226	23.51
645.415	23.89
645.604	23.9
645.793	23.7
645.982	23.62
646.171	23.7
646.361	23.65
646.55	24.16
646.739	24.08
646.928	23.87
647.117	24.03
647.306	24.12
647.495	24.12
647.684	24.2
647.873	24.09
648.062	24.18
648.251	23.9
648.44	23.69
648.629	23.58
648.818	23.41
649.007	23.4
649.196	23.59
649.384	23.71
649.573	23.8
649.762	23.93
649.951	23.85
650.14	23.57
650.328	23.64
650.517	23.75
650.706	23.63
650.895	23.76
651.083	24.18
651.272	24.04
651.461	23.95
651.65	23.63
651.838	23.03
652.027	23.06
652.216	23.57
652.404	23.68
652.593	23.78
652.781	23.92
652.97	24.16
653.158	23.56
653.347	23.75
653.535	23.75
653.724	24.11
653.912	24.75
654.101	25.04
654.289	24.31
654.478	24.77
654.666	24.6
654.855	24.1
655.043	23.87
655.231	24.19
655.42	23.98
655.608	23.86
655.796	23.73
655.985	23.19
656.173	22.61
656.361	23.13
656.55	22.56
656.738	22.6
656.926	22.75
657.114	22.71
657.302	22.34
657.491	22.43
657.679	22.48
657.867	22.64
658.055	22.67
658.243	22.56
658.431	22.37
658.619	22.77
658.807	22.71
658.996	22.97
659.184	23.16
659.372	23.23
659.56	23.44
659.748	23.99
659.936	23.74
660.124	24
660.311	24.08
660.499	24.12
660.687	23.92
660.875	24.04
661.063	23.95
661.251	23.71
661.439	23.79
661.627	23.58
661.814	22.99
662.002	23.28
662.19	23.52
662.378	23.82
662.565	24.28
662.753	24.41
662.941	24.41
663.129	24.43
663.316	24.89
663.504	25.07
663.692	25.42
663.879	26.08
664.067	25.71
664.254	25.35
664.442	25.41
664.63	24.89
664.817	24.84
665.005	25.21
665.192	25.24
665.38	24.73
665.567	24.71
665.755	24.31
665.942	23.52
666.13	23.87
666.317	23.4
666.504	23.31
666.692	23.49
666.879	23.61
667.067	22.9
667.254	22.92
667.441	23.4
667.629	23
667.816	23.18
668.003	23.6
668.19	23.5
668.378	24.32
668.565	24.78
668.752	24.4
668.939	24.68
669.127	24.82
669.314	24.76
669.501	24.91
669.688	25.23
669.875	24.99
670.062	24.57
670.249	24.71
670.436	24.3
670.623	24.09
670.81	24.26
670.997	24.17
671.184	23.96
671.371	23.95
671.558	23.38
671.745	23.43
671.932	23.77
672.119	23.66
672.306	23.63
672.493	23.93
672.68	23.73
672.867	24.14
673.054	23.91
673.24	24.47
673.427	24.36
673.614	24.45
673.801	24.43
673.988	24.36
674.174	24.68
674.361	24.6
674.548	24.61
674.734	24.66
674.921	24.58
675.108	24.5
675.294	24.23
675.481	24.65
675.668	25.31
675.854	25.56
676.041	25.66
676.227	25.76
676.414	25.38
676.601	25.33
676.787	25.77
676.974	25.36
677.16	25.24
677.347	25.48
677.533	25.52
677.719	25.05
677.906	24.64
678.092	24.25
678.279	24.29
678.465	24.66
678.651	24.63
678.838	24.37
679.024	24.75
679.21	24.55
679.397	24.71
679.583	24.44
679.769	24.35
679.955	24.16
680.142	24.53
680.328	24.63
680.514	24.62
680.7	24.62
680.886	24.61
681.073	24.96
681.259	25.1
681.445	24.63
681.631	24.34
681.817	24.5
682.003	24.89
682.189	24.75
682.375	24.22
682.561	24.57
682.747	24.86
682.933	25.15
683.119	24.87
683.305	25.35
683.491	25.24
683.677	25.76
683.863	25.67
684.049	25.69
684.235	25.98
684.42	26.48
684.606	25.85
684.792	25.43
684.978	25.1
685.164	24.65
685.349	24.39
685.535	24.87
685.721	25.13
685.907	24.87
686.092	24.8
686.278	24.37
686.464	24.46
686.649	24.89
686.835	24.74
687.021	24.52
687.206	24.51
687.392	24.51
687.577	24.42
687.763	24.38
687.948	24.87
688.134	25.34
688.319	25.3
688.505	25.32
688.69	25.01
688.876	24.83
689.061	25.11
689.247	24.71
689.432	24.9
689.618	24.36
689.803	24.2
689.988	24.6
690.174	23.94
690.359	24.05
690.544	24.39
690.73	24.66
690.915	25.72
691.1	25.65
691.285	26.55
691.471	26.57
691.656	26.7
691.841	26.66
692.026	26.01
692.211	26.2
692.396	25.89
692.582	25.31
692.767	24.93
692.952	23.98
693.137	24.06
693.322	23.86
693.507	23.76
693.692	24.71
693.877	24.67
694.062	24.95
694.247	24.21
694.432	24.79
694.617	24.86
694.802	25.37
694.987	25.54
695.172	25.45
695.357	25.67
695.541	25.48
695.726	24.94
695.911	25.05
696.096	24.56
696.281	25.24
696.466	24.43
696.65	24.68
696.835	25
697.02	25.29
697.204	25.28
697.389	25.25
697.574	25.64
697.759	25.39
697.943	25.11
698.128	25.34
698.312	25.15
698.497	26.08
698.682	26.12
698.866	25.83
699.051	25.93
699.235	26.08
699.42	26.09
699.604	25.88
699.789	26.29
699.973	26.41
700.158	26.47
700.342	26.95
700.527	26.66
700.711	26.22
700.895	26.24
701.08	25.37
701.264	24.77
701.448	24.61
701.633	24.18
701.817	23.67
702.001	23.71
702.186	23.38
702.37	22.98
702.554	22.46
702.738	22.55
702.923	22.89
703.107	23.72
703.291	24
703.475	23.7
703.659	24.11
703.843	24.79
704.027	24.74
704.212	25.18
704.396	25.48
704.58	25.81
704.764	26.41
704.948	25.6
705.132	25.1
705.316	25.93
705.5	25.78
705.684	25.95
705.868	25.49
706.052	25.83
706.235	25.68
706.419	25.48
706.603	25.64
706.787	25.2
706.971	25.37
707.155	26.27
707.339	25.75
707.522	25.93
707.706	25.42
707.89	24.89
708.074	24.47
708.257	24.98
708.441	24.88
708.625	24.65
708.808	24.9
708.992	25.09
709.176	24.44
709.359	24.23
709.543	25.23
709.727	25.52
709.91	25.94
710.094	25.97
710.277	25.82
710.461	25.97
710.644	25.87
710.828	26.05
711.011	25.51
711.195	25.75
711.378	26.26
711.562	25.7
711.745	25.73
711.928	26.39
712.112	26.53
712.295	26.2
712.478	26.46
712.662	27.41
712.845	27.35
713.028	27.16
713.212	27.04
713.395	26.64
713.578	26.07
713.761	26.46
713.945	25.8
714.128	25.65
714.311	26.11
714.494	26.23
714.677	25.43
714.86	25.15
715.043	26.03
715.227	26.3
715.41	26.07
715.593	26.93
715.776	27.27
715.959	27.6
716.142	27.89
716.325	27.08
716.508	26.86
716.691	26.52
716.874	25.82
717.057	25.01
717.239	24.76
717.422	24.68
717.605	24.39
717.788	23.77
717.971	24.52
718.154	24.2
718.337	24.73
718.519	24.56
718.702	24.04
718.885	24.5
719.068	25.31
719.25	25.86
719.433	25.93
719.616	25.34
719.798	25.58
719.981	24.7
720.164	24.67
720.346	24.58
720.529	24.36
720.712	24.33
720.894	25.37
721.077	24.82
721.259	25.23
721.442	24.89
721.624	25.14
721.807	25.04
721.989	25.67
722.172	25.55
722.354	25.1
722.537	24.88
722.719	26.5
722.901	24.78
723.084	24.4
723.266	23.53
723.448	24.86
723.631	24.47
723.813	24.68
723.995	23.32
724.178	23.09
724.36	23.67
724.542	23.71
724.724	22.42
724.907	24.26
725.089	24.57
725.271	24
725.453	24.44
725.635	25.02
725.817	24.15
725.999	24.64
726.181	24.49
726.364	24.39
726.546	25.37
726.728	25.47
726.91	25.23
727.092	25.56
727.274	25.77
727.456	24.54
727.638	23.91
727.819	24.89
728.001	24.92
728.183	26.03
728.365	25.15
728.547	24.29
728.729	24.91
728.911	24.94
729.093	24.76
729.274	25.03
729.456	25.4
729.638	26.42
729.82	25.62
730.001	25.62
730.183	25.24
730.365	27.03
730.546	26.94
730.728	26.91
730.91	26.24
731.091	26.11
731.273	26.14
731.455	25.91
731.636	25.45
731.818	25.24
731.999	25.28
732.181	25.05
732.362	24.07
732.544	23.94
732.725	24.74
732.907	24.76
733.088	25.25
733.27	25.46
733.451	25.69
733.633	25.6
733.814	25.51
733.995	25.34
734.177	26.16
734.358	25.68
734.539	26.14
734.721	25.88
734.902	26.1
735.083	25.81
735.264	24.7
735.446	24.29
735.627	22.99
735.808	23.49
735.989	23.74
736.17	22.62
736.351	23.15
736.533	22.77
736.714	21.96
736.895	21.07
737.076	21.9
737.257	22.46
737.438	22.41
737.619	23.46
737.8	23.35
737.981	23.86
738.162	23.73
738.343	22.97
738.524	22.54
738.705	21.63
738.886	22.82
739.067	21.71
739.247	22.08
739.428	21.79
739.609	21.6
739.79	22.93
739.971	23.37
740.151	24.28
740.332	24.84
740.513	25.65
740.694	27.2
740.874	26.31
741.055	27.58
741.236	27.58
741.417	29.11
741.597	28.66
741.778	28.25
741.958	26.44
742.139	26.27
742.32	26
742.5	26.29
742.681	25.47
742.861	26.31
743.042	25.32
743.222	27
743.403	25.4
743.583	26.54
743.764	26.6
743.944	26.71
744.124	24.91
744.305	26.26
744.485	23.91
744.666	24.01
744.846	24.26
745.026	25.27
745.207	24.74
745.387	25.28
745.567	25.44
745.747	24.45
745.928	25.43
746.108	25.13
746.288	24.93
746.468	26.88
746.648	28.27
746.829	27.88
747.009	25.85
747.189	25
747.369	26.92
747.549	26.54
747.729	26.27
747.909	26.59
748.089	26.94
748.269	27.16
748.449	27.47
748.629	26.53
748.809	25.64
748.989	25.87
749.169	25.38
749.349	22.77
749.529	23.09
749.709	22.09
749.889	20.93
750.068	21.48
750.248	21.46
750.428	22.2
750.608	21.79
750.788	24.09
750.967	24.24
751.147	23.01
751.327	24.15
751.507	23.83
751.686	25.16
751.866	25.65
752.046	26.22
752.225	25.13
752.405	24.07
752.585	22.99
752.764	21.37
752.944	22.25
753.123	23.29
753.303	23.06
753.482	23.23
753.662	23.15
753.841	23.73
754.021	23.37
754.2	22.83
754.38	22.31
754.559	22.65
754.739	21.9
754.918	20.88
755.097	20.88
755.277	20.68
755.456	19.5
755.635	18.84
755.815	18.88
755.994	19.62
756.173	19.79
756.352	19.42
756.532	20.3
756.711	20.82
756.89	21.25
757.069	21.63
757.248	21.63
757.427	22.56
757.607	23.76
757.786	21.83
757.965	20.89
758.144	22.15
758.323	22.94
758.502	22.92
758.681	24.28
758.86	25.78
759.039	25.3
759.218	25.63
759.397	25.53
759.576	23.64
759.755	25.43
759.934	26.98
760.113	27.54
760.291	27.36
760.47	28.79
760.649	28.46
760.828	27.71
761.007	29.16
761.186	29.42
761.364	30.22
761.543	30.83
761.722	31.07
761.901	30.2
762.079	29.07
762.258	29.41
762.437	27.96
762.615	26.44
762.794	26.19
762.972	25.19
763.151	24.48
763.33	23.21
763.508	23.84
763.687	23.24
763.865	22.68
764.044	22.87
764.222	23.56
764.401	22.79
764.579	23.96
764.758	24.54
764.936	24.71
765.114	25.23
765.293	25.82
765.471	25.15
765.65	24.51
765.828	24.87
766.006	24.69
766.184	22.67
766.363	22.51
766.541	22.37
766.719	22.29
766.898	21.71
767.076	21.56
767.254	22.5
767.432	22.71
767.61	24.16
767.788	23.37
767.967	22.56
768.145	23.49
768.323	24.44
768.501	24.34
768.679	22.89
768.857	24.23
769.035	24.18
769.213	24.14
769.391	24.78
769.569	23.47
769.747	25.45
769.925	25.48
770.103	25.23
770.281	26.21
770.459	26.72
770.636	25.39
770.814	23.87
770.992	24.7
771.17	22.2
771.348	21.2
771.525	22.11
771.703	22.56
771.881	22.93
772.059	24.53
772.236	24.03
772.414	21.08
772.592	24.16
772.769	24.96
772.947	24.32
773.125	27.61
773.302	28.03
773.48	28.14
773.657	27.92
773.835	29.7
774.013	25.86
774.19	26.63
774.368	28.66
774.545	28.7
774.723	27.68
774.9	27.03
775.077	26.38
775.255	27.99
775.432	27.67
775.61	26.94
775.787	26.86
775.964	28.2
776.142	27.49
776.319	27.81
776.496	28.85
776.674	29.31
776.851	29.78
777.028	29.91
777.205	29.67
777.382	28.03
777.56	27.17
777.737	27
777.914	27.69
778.091	27.4
778.268	27.91
778.445	25.91
778.622	24.34
778.8	25.63
778.977	23.86
779.154	22.1
779.331	23.79
779.508	26.17
779.685	25.44
779.862	26.52
780.038	26.79
780.215	27.6
780.392	28.31
780.569	28.49
780.746	27.54
780.923	29.35
781.1	30.96
781.277	30.33
781.453	27.54
781.63	29.04
781.807	28.64
781.984	27.93
782.16	26.18
782.337	23.09
782.514	25.91
782.691	24.57
782.867	23.63
783.044	22.42
783.221	21.63
783.397	22.09
783.574	20.01
783.75	20.71
783.927	20.3
784.103	21.42
784.28	23.84
784.456	24.85
784.633	25.08
784.809	24.63
784.986	24.14
785.162	23.7
785.339	24.9
785.515	22.9
785.692	21.96
785.868	25.43
786.044	24.26
786.221	23.78
786.397	21.45
786.573	22.47
786.749	21.72
786.926	22.8
787.102	24.97
787.278	25.45
787.454	26.89
787.631	29.11
787.807	27.92
787.983	26.8
788.159	27.09
788.335	27.97
788.511	29.65
788.687	28.99
788.863	26.66
789.039	25.1
789.216	23.35
789.392	24.29
789.568	24.99
789.744	24.86
789.919	26.62
790.095	27.11
790.271	25.28
790.447	20.64
790.623	21.48
790.799	23.01
790.975	25.03
791.151	26.8
791.327	21.87
791.502	20.25
791.678	18.69
791.854	16.24
792.03	14.25
792.205	14.04
792.381	16.7
792.557	14.36
792.733	14.31
792.908	14.39
793.084	16.02
793.259	22.24
793.435	24.88
793.611	25.18
793.786	27.23
793.962	27.81
794.137	29.44
794.313	30.04
794.488	31.48
794.664	32.48
794.839	31.42
795.015	30.52
795.19	29.65
795.366	27.84
795.541	28.44
795.716	25.54
795.892	25.92
796.067	27.6
796.242	25.68
796.418	26.27
796.593	27.2
796.768	26.88
796.944	26.98
797.119	26.14
797.294	23.86
797.469	25.25
797.644	26.94
797.82	23.81
797.995	23.97
798.17	25.35
798.345	25.98
798.52	23.52
798.695	25.27
798.87	24
799.045	23.07
799.22	25.51
799.395	22.87
799.57	22.66
799.745	27.5
799.92	26.1
800.095	25.67
800.27	22.23
800.445	24.74
800.62	26.01
800.795	24.65
800.97	26.25
801.145	27.75
801.319	29.75
801.494	32.81
801.669	31.38
801.844	33.49
802.018	35.25
802.193	38.25
802.368	39.3
802.543	38.46
802.717	36.14
802.892	37.06
803.067	33.04
803.241	33.2
803.416	32.55
803.59	32.8
803.765	26.25
803.94	24.42
804.114	27
804.289	23.67
804.463	17.25
804.638	20.33
804.812	17.74
804.986	18.94
805.161	19.89
805.335	21
805.51	20.48
805.684	26.14
805.858	27.78
806.033	25.22
806.207	28.22
806.381	31.96
806.556	32.92
806.73	34.14
806.904	32.93
807.078	31.09
807.253	27.16
807.427	26.77
807.601	24.27
807.775	18.86
807.949	19.52
808.123	17.84
808.298	15.91
808.472	12.94
808.646	9.68
808.82	12.82
808.994	15.01
809.168	20.16
809.342	22.34
809.516	23.25
809.69	26.62
809.864	25.46
810.038	28.99
810.212	30.56
810.385	34.22
810.559	32.08
810.733	31.68
810.907	34.46
811.081	29.53
811.255	27
811.428	28.02
811.602	24.98
811.776	25.67
811.95	18.57
812.123	19.77
812.297	15.23
812.471	20.8
812.644	19.15
812.818	14.84
812.992	16.55
813.165	15.51
813.339	15.79
813.512	20.38
813.686	19.31
813.86	22.89
814.033	22.73
814.207	29.14
814.38	32.32
814.554	31.97
814.727	31.37
814.9	34.88
815.074	40.99
815.247	39.59
815.421	37.29
815.594	39.73
815.767	38.34
815.941	38.21
816.114	35.08
816.287	31.84
816.46	29.41
816.634	24.68
816.807	20.6
816.98	20.08
817.153	21.09
817.327	22.52
817.5	25.8
817.673	28.03
817.846	28.3
818.019	24.13
818.192	26.82
818.365	25.59
818.538	31.51
818.711	35.29
818.884	30.83
819.057	24.13
819.23	21.96
819.403	22.54
819.576	24.67
819.749	26.35
819.922	27.86
820.095	24.73
820.268	26.9
820.441	27.19
820.614	25.29
820.786	25.92
820.959	30.44
821.132	31.96
821.305	30.84
821.477	29.63
821.65	27.04
821.823	25.72
821.996	25.69
822.168	25.77
822.341	25.86
822.514	26.17
822.686	26.06
822.859	26.02
823.031	25.57
823.204	25.25
823.376	25.17
823.549	25.76
823.722	27.04
823.894	27.24
824.067	27.39
824.239	26.81
824.411	26.93
824.584	26.39
824.756	25.89
824.929	26.47
825.101	25.95
825.273	26.53
825.446	26.53
825.618	26.77
825.79	26.7
825.963	27.07
826.135	26.54
826.307	27.49
826.479	29.64
826.652	29.55
826.824	28.64
826.996	29.17
827.168	29.08
827.34	28.81
827.512	27.8
827.684	28.04
827.856	28.09
828.029	28.13
828.201	27.01
828.373	26.39
828.545	27.37
828.717	27.9
828.889	26.57
829.061	25.92
829.232	25.19
829.404	25.55
829.576	24.84
829.748	25.07
829.92	26.03
830.092	26.8
830.264	26.23
830.436	22.52
830.607	21.92
830.779	25.65
830.951	30.19
831.123	35.27
831.294	37.22
831.466	39.68
831.638	38.69
831.809	39.93
831.981	38.53
832.153	39.83
832.324	40.16
832.496	41.17
832.667	40.14
832.839	34.85
833.011	33.34
833.182	32.9
833.354	29.68
833.525	27.14
833.697	23.3
833.868	24.08
834.039	22.98
834.211	22.72
834.382	21.85
834.554	21.87
834.725	19.07
834.896	17.16
835.068	17.17
835.239	18.98
835.41	18.77
835.581	19.88
835.753	19.89
835.924	19
836.095	20.32
836.266	21.22
836.438	21.29
836.609	25.46
836.78	25.68
836.951	27.09
837.122	22.74
837.293	22.27
837.464	20.29
837.635	18.07
837.806	18.21
837.977	20.36
838.148	17.25
838.319	17.49
838.49	16.54
838.661	16.52
838.832	14.21
839.003	20.7
839.174	28.53
839.345	33.63
839.516	37.69
839.687	40.13
839.857	36.91
840.028	43.2
840.199	46.27
840.37	43.53
840.54	42.64
840.711	42.2
840.882	38.32
841.053	32.05
841.223	30.32
841.394	31.88
841.564	29.1
841.735	32.26
841.906	31.17
842.076	28.39
842.247	31.49
842.417	36.39
842.588	29.98
842.758	35.63
842.929	37.53
843.099	37.14
843.27	28.34
843.44	34.99
843.611	33.87
843.781	33.62
843.951	29.36
844.122	22.03
844.292	22.46
844.462	26.48
844.633	26.11
844.803	26.33
844.973	22.11
845.144	21.38
845.314	12.86
845.484	15.24
845.654	12.56
845.824	12.36
845.995	12.72
846.165	8.96
846.335	17.22
846.505	21.06
846.675	22.19
846.845	24.63
847.015	29.27
847.185	38.95
847.355	34.29
847.525	42.61
847.695	38.7
847.865	46.31
848.035	47.54
848.205	46.38
848.375	42.9
848.545	34.41
848.715	34.8
848.884	31.53
849.054	29.23
849.224	26.52
849.394	24.21
849.564	28.83
849.733	30.64
849.903	32.66
850.073	28.4
850.243	30.86
850.412	39.21
850.582	40.9
850.752	47.24
850.921	41.63
851.091	43.05
851.26	40.77
851.43	33.77
851.599	20.01
851.769	24
851.939	28.8
852.108	34.56
852.278	36.6
852.447	38.34
852.616	29.11
852.786	52.04
852.955	47.36
853.125	54.96
853.294	60.13
853.463	65.85
853.633	58.58
853.802	56.25
853.971	57.55
854.141	50.84
854.31	44.32
854.479	48.61
854.648	45.81
854.818	50.51
854.987	39.22
855.156	34.08
855.325	33.79
855.494	35.47
855.663	35.47
855.832	26.75
856.001	29.08
856.171	37.41
856.34	36.57
856.509	29.96
856.678	32.16
856.847	40.02
857.016	44.97
857.185	40.6
857.353	52.7
857.522	61.43
857.691	72.97
857.86	77.35
858.029	64.59
858.198	71.18
858.367	60.3
858.535	56.04
858.704	55.45
858.873	51.81
859.042	52.08
859.21	40.32
859.379	25.28
859.548	38.26
859.717	35.6
859.885	38.83
860.054	37.59
860.222	40.57
860.391	31.29
860.56	22.57
860.728	31.81
860.897	33.93
861.065	45.47
861.234	56.89
861.402	55.34
861.571	46.99
861.739	35.3
861.908	38.66
862.076	42.63
862.244	40.27
862.413	23.65
862.581	-10.8
862.749	15.41
862.918	-1.14
863.086	-6.11
863.254	-5.44
863.423	0.95
863.591	4.61
863.759	4.92
863.927	2.91
864.096	10.34
864.264	23.5
864.432	24.71
864.6	7.35
864.768	11.88
864.936	-3.91
865.104	-5.34
865.272	10
865.44	5.89
865.608	6.39
865.776	-3.57
865.944	-9.54
866.112	-14.53
866.28	0.38
866.448	1.62
866.616	4.98
866.784	16.47
866.952	22.2
867.12	19.24
867.288	20.3
867.455	35.97
867.623	38.93
867.791	48.94
867.959	39.06
868.127	44.59
868.294	48.15
868.462	46.2
868.63	44.82
868.797	39.91
868.965	13.74
869.133	19.77
869.3	-6.71
869.468	7.28
869.636	8.41
869.803	39.41
869.971	36.04
870.138	57.72
870.306	63.21
870.473	62.23
870.641	48.97
870.808	62.4
870.975	55.06
871.143	53.14
871.31	52.65
871.478	36.72
871.645	32.41
871.812	36.44
871.98	23.42
872.147	13.9
872.314	7.01
872.482	8.85
872.649	9.53
872.816	12.98
872.983	15.38
873.15	15.25
873.318	31.14
873.485	33.89
873.652	30.75
873.819	22.4
873.986	23.87
874.153	27.69
874.32	43.77
874.487	52.87
874.654	56.32
874.821	55.38
874.988	41.73
875.155	45.87
875.322	50.64
875.489	46.87
875.656	65.15
875.823	59.74
875.99	53.61
876.157	32.75
876.324	23.48
876.49	37.38
876.657	31.31
876.824	42.15
876.991	39.06
877.157	45.12
877.324	40.81
877.491	43.26
877.658	33.84
877.824	31.52
877.991	52.54
878.157	51.42
878.324	32.96
878.491	45.88
878.657	43.89
878.824	33.71
878.99	15.94
879.157	24.34
879.323	0.3
879.49	11.3
879.656	18.01
879.823	12.55
879.989	-4.83
880.156	16.79
880.322	22.27
880.488	16.61
880.655	16.33
880.821	22.59
880.987	16.19
881.154	17.79
881.32	28.85
881.486	30.7
881.652	28.19
881.819	36.92
881.985	23.07
882.151	15.73
882.317	19.11
882.483	19.92
882.649	21.5
882.816	19.38
882.982	21.17
883.148	19.41
883.314	19.3
883.48	18.21
883.646	17.1
883.812	22.15
883.978	22.51
884.144	23.99
884.31	27.22
884.476	24.92
884.642	30.23
884.807	30.36
884.973	33.46
885.139	35.01
885.305	36.64
885.471	38.35
885.637	37.27
885.802	37.57
885.968	34.23
886.134	32.69
886.3	35.7
886.465	30.83
886.631	29.47
886.797	26.89
886.962	20.14
887.128	20.7
887.293	18.53
887.459	11.48
887.625	10.9
887.79	19.02
887.956	17.5
888.121	18.42
888.287	20.49
888.452	22.3
888.618	17.66
888.783	31.18
