Data from 2938126_Reflection_3.txt Node
Date: Sat Jul 11 17:23:55 EDT 2015
User: robert
Spectrometer: USB4E03001
Autoset integration time: false
Trigger mode: 4
Integration Time (sec): 1.000000E-1
Scans to average: 10
Electric dark correction enabled: true
Nonlinearity correction enabled: false
Boxcar width: 5
Stray light correction enabled: false
XAxis mode: Wavelengths
Stop averaging: false
Number of Pixels in Spectrum: 3648
>>>>>Begin Spectral Data<<<<<
177.566	428.7
177.785	-5517.65
178.005	493.57
178.225	2732.81
178.445	153.73
178.665	44.66
178.885	-54.5
179.105	-108.53
179.324	264.68
179.544	245.45
179.764	199.12
179.984	168.6
180.204	163.29
180.423	131.11
180.643	126.21
180.863	151.25
181.083	121.32
181.302	122.05
181.522	112.96
181.742	116.56
181.961	114.6
182.181	103.34
182.401	101.35
182.621	134.4
182.84	129.34
183.06	163.23
183.279	116.29
183.499	134.05
183.719	133.58
183.938	160.75
184.158	155.43
184.377	128.61
184.597	124.13
184.816	117.91
185.036	117.23
185.256	115.22
185.475	108.64
185.695	121.61
185.914	112
186.134	126.18
186.353	123.59
186.572	119.98
186.792	114.04
187.011	128
187.231	133.86
187.45	124.04
187.67	124.42
187.889	117.71
188.108	116.86
188.328	116.35
188.547	109.77
188.766	116.35
188.986	105.11
189.205	97.11
189.424	84.33
189.644	84.03
189.863	59.22
190.082	65.34
190.302	68.86
190.521	58.29
190.74	86.31
190.959	84.56
191.178	80.99
191.398	89.81
191.617	109.51
191.836	90.26
192.055	86.64
192.274	97.94
192.494	89.52
192.713	89.27
192.932	86.42
193.151	76.66
193.37	68.43
193.589	60.93
193.808	62.22
194.027	69.75
194.246	81.29
194.465	75.86
194.685	71.56
194.904	84.27
195.123	78.56
195.342	79.61
195.561	101.79
195.78	149.62
195.999	143.3
196.218	110.5
196.436	101.84
196.655	105.98
196.874	119.27
197.093	104.63
197.312	99.61
197.531	91.21
197.75	91.17
197.969	79.94
198.188	76.48
198.407	71.48
198.625	75.69
198.844	79.44
199.063	74.03
199.282	77.91
199.501	74.11
199.719	79.96
199.938	93.24
200.157	81.14
200.376	85.55
200.594	83.73
200.813	81.84
201.032	72.8
201.251	65.31
201.469	61.87
201.688	65.23
201.907	73.62
202.125	70.41
202.344	67.87
202.563	73.25
202.781	68.08
203	80.43
203.218	82.27
203.437	86.3
203.656	93.15
203.874	97.42
204.093	95.74
204.311	105.78
204.53	110.29
204.748	117.87
204.967	124.75
205.185	128.07
205.404	105.33
205.622	117.13
205.841	117.26
206.059	119.73
206.278	133.79
206.496	111.39
206.715	99.81
206.933	92.21
207.151	97.32
207.37	111.41
207.588	115.4
207.806	125.6
208.025	109.62
208.243	110.68
208.461	107.21
208.68	92.26
208.898	106.79
209.116	97.4
209.335	107.82
209.553	109.09
209.771	107.07
209.989	111.37
210.208	109.19
210.426	140.59
210.644	147.65
210.862	140.92
211.081	160.19
211.299	146.04
211.517	152.47
211.735	135.78
211.953	115.99
212.171	103.5
212.39	93.67
212.608	96.62
212.826	88.98
213.044	95.04
213.262	97.44
213.48	96
213.698	94.62
213.916	114.53
214.134	105.82
214.352	114.16
214.57	126.66
214.788	143.94
215.006	127.2
215.224	112.88
215.442	83.93
215.66	98.91
215.878	95.96
216.096	92.57
216.314	68.63
216.532	75.22
216.75	79.33
216.968	65
217.185	77.09
217.403	92.85
217.621	104.23
217.839	117.31
218.057	111.91
218.275	126.13
218.492	134.91
218.71	182.54
218.928	207.83
219.146	165.54
219.363	177.98
219.581	159.85
219.799	134.07
220.017	113.29
220.234	98.18
220.452	108.79
220.67	105.57
220.887	99.26
221.105	86.51
221.323	95.2
221.54	101.95
221.758	101.05
221.976	102.32
222.193	119.52
222.411	140.37
222.629	159.92
222.846	131.86
223.064	111.76
223.281	113.03
223.499	89.04
223.716	64.95
223.934	73.38
224.151	62.17
224.369	55.46
224.586	49.1
224.804	48.64
225.021	45.21
225.239	54.72
225.456	48.16
225.674	47.8
225.891	59.85
226.108	61.1
226.326	55.95
226.543	47.43
226.76	36.35
226.978	38.86
227.195	36.79
227.413	32.27
227.63	30.31
227.847	33.23
228.064	35.63
228.282	30.72
228.499	28.38
228.716	27.8
228.934	28.93
229.151	31.59
229.368	29.46
229.585	28.24
229.802	28.31
230.02	30.97
230.237	30.93
230.454	29.42
230.671	33.82
230.888	36.61
231.105	36.26
231.323	37.62
231.54	37.53
231.757	38.79
231.974	41.39
232.191	43.46
232.408	41.47
232.625	44.78
232.842	41.81
233.059	39.53
233.276	38.02
233.493	38.25
233.71	38.25
233.927	35.48
234.144	34.98
234.361	33.12
234.578	34.61
234.795	33.46
235.012	33.13
235.229	32.49
235.446	29.97
235.663	26.19
235.879	32.15
236.096	27.69
236.313	35.37
236.53	32.57
236.747	35.69
236.964	35.72
237.181	33.48
237.397	28.72
237.614	28.84
237.831	27.36
238.048	31.38
238.264	24.54
238.481	30.18
238.698	26.71
238.915	31.05
239.131	30.36
239.348	29.09
239.565	26.6
239.781	31.15
239.998	31.33
240.215	34.82
240.431	33.89
240.648	36.6
240.865	34.57
241.081	31.76
241.298	29.89
241.514	29.23
241.731	27.85
241.947	27.36
242.164	25.57
242.38	23.63
242.597	20.85
242.814	20.07
243.03	19.17
243.246	18.87
243.463	18.35
243.679	20.77
243.896	19.58
244.112	19.1
244.329	18.52
244.545	19.8
244.762	20.98
244.978	21.99
245.194	20.4
245.411	18.4
245.627	16.83
245.843	18.35
246.06	13.95
246.276	13.19
246.492	12.39
246.709	13.65
246.925	11.24
247.141	11.48
247.357	10.87
247.574	11.5
247.79	11.48
248.006	10.97
248.222	9.56
248.439	10.29
248.655	11.19
248.871	11.39
249.087	11.36
249.303	12.76
249.519	12.88
249.736	15.86
249.952	16.04
250.168	17.95
250.384	20.28
250.6	21.45
250.816	21.92
251.032	21.6
251.248	21.44
251.464	19.23
251.68	20.39
251.896	19.18
252.112	16.12
252.328	17.27
252.544	17.28
252.76	17.14
252.976	19.01
253.192	20.21
253.408	20.5
253.624	21.88
253.84	24.68
254.056	23.94
254.272	23.82
254.487	24.51
254.703	22.54
254.919	21.65
255.135	21.8
255.351	18.56
255.567	16.81
255.782	15.85
255.998	13.49
256.214	10.65
256.43	10.35
256.646	14.57
256.861	12.38
257.077	13.99
257.293	13.81
257.508	12.53
257.724	13.72
257.94	12.1
258.155	12.48
258.371	12.38
258.587	11.95
258.802	11.09
259.018	10.02
259.234	9.68
259.449	8.42
259.665	7.86
259.88	7.48
260.096	6.99
260.312	7.53
260.527	6.94
260.743	7.06
260.958	7.18
261.174	7.59
261.389	8.54
261.605	9.95
261.82	11.04
262.036	10.92
262.251	11.3
262.466	11.27
262.682	11.14
262.897	12.01
263.113	12.16
263.328	13.34
263.543	12.65
263.759	10.52
263.974	11.55
264.189	10.76
264.405	13.58
264.62	13.62
264.835	13.86
265.051	13.48
265.266	14.67
265.481	14.62
265.696	15.26
265.912	15.52
266.127	16.3
266.342	13.52
266.557	14.4
266.773	12.12
266.988	13.24
267.203	13.31
267.418	13.82
267.633	10.97
267.848	10.74
268.064	9.77
268.279	11.3
268.494	11.02
268.709	12.35
268.924	12.32
269.139	12.96
269.354	12.48
269.569	12.23
269.784	11.31
269.999	13.43
270.214	12.41
270.429	13.56
270.644	10.02
270.859	8.88
271.074	7.72
271.289	7.6
271.504	8.66
271.719	8.5
271.934	9.44
272.149	9.85
272.363	9
272.578	9.24
272.793	8.99
273.008	11.78
273.223	12.24
273.438	13.55
273.653	14.62
273.867	14.56
274.082	16.1
274.297	15.38
274.512	16.79
274.726	17.8
274.941	18.76
275.156	17.9
275.371	17.51
275.585	17.75
275.8	17.71
276.015	16.75
276.229	16.99
276.444	15.37
276.659	14.45
276.873	12.68
277.088	13.94
277.302	13.65
277.517	13.27
277.732	12.9
277.946	12.43
278.161	12.33
278.375	13.18
278.59	12.13
278.804	10.44
279.019	12.47
279.233	14.2
279.448	12.74
279.662	13.1
279.877	13.27
280.091	12.54
280.306	13.63
280.52	14.23
280.735	12.61
280.949	13.02
281.163	14.18
281.378	14.32
281.592	12.48
281.806	13.22
282.021	14.08
282.235	16.89
282.449	18
282.664	15.73
282.878	14.44
283.092	14.52
283.307	14.53
283.521	15.2
283.735	14.51
283.949	15.12
284.164	13.6
284.378	11.51
284.592	10.2
284.806	9.48
285.02	11.83
285.234	12.14
285.449	12.37
285.663	11.96
285.877	12.18
286.091	12.62
286.305	13.57
286.519	14.08
286.733	15
286.947	13.57
287.161	12.33
287.375	10.68
287.589	11.52
287.803	12.29
288.017	11.65
288.231	10.26
288.445	10.3
288.659	8.73
288.873	9.74
289.087	10.88
289.301	11.26
289.515	12.24
289.729	13.09
289.943	11.9
290.157	10.59
290.371	10.73
290.584	11.17
290.798	10.09
291.012	9.64
291.226	9.01
291.44	7.93
291.654	9.38
291.867	9.25
292.081	8.65
292.295	10.59
292.509	11.02
292.722	12.58
292.936	12.92
293.15	14.31
293.364	14.58
293.577	13.9
293.791	14
294.005	13.44
294.218	15.07
294.432	16
294.645	15.17
294.859	13.8
295.073	12.77
295.286	12.35
295.5	12.45
295.713	13.13
295.927	14.02
296.14	13.93
296.354	12.83
296.568	11.25
296.781	11.13
296.994	9.97
297.208	11.09
297.421	12.52
297.635	12.62
297.848	12.27
298.062	11.92
298.275	11.87
298.489	11.75
298.702	12.34
298.915	13.93
299.129	14.76
299.342	16.67
299.555	16.7
299.769	15.98
299.982	16.73
300.195	17.26
300.409	18.36
300.622	18.25
300.835	18.65
301.048	19.18
301.262	18.67
301.475	18.32
301.688	16.98
301.901	17.48
302.115	18.07
302.328	18.24
302.541	18.12
302.754	17.29
302.967	16.83
303.18	15.94
303.393	16.2
303.607	15.24
303.82	14.94
304.033	12.88
304.246	13.51
304.459	11.16
304.672	11.85
304.885	12.18
305.098	12.65
305.311	14.96
305.524	17.44
305.737	18.48
305.95	18.76
306.163	20.04
306.376	22.6
306.589	22.27
306.802	24.85
307.015	24.33
307.228	24.42
307.44	24.52
307.653	24.16
307.866	22.09
308.079	20.35
308.292	20.65
308.505	18.93
308.718	19.02
308.93	19.27
309.143	18.41
309.356	18.02
309.569	17.9
309.781	17.09
309.994	16.23
310.207	17.22
310.42	16.93
310.632	17.41
310.845	17.92
311.058	17.3
311.27	15.83
311.483	15.89
311.696	16.08
311.908	16.46
312.121	16.29
312.333	16.06
312.546	15.27
312.759	15.88
312.971	15.43
313.184	15.45
313.396	16.61
313.609	18.35
313.821	18.94
314.034	19.53
314.246	19.88
314.459	21.9
314.671	22.11
314.884	23.27
315.096	25.28
315.309	27
315.521	27.05
315.733	26.03
315.946	25.3
316.158	23.59
316.371	22.5
316.583	20.76
316.795	21.02
317.008	21.17
317.22	20.47
317.432	16.92
317.644	15.85
317.857	16.38
318.069	16.1
318.281	17.52
318.494	18.96
318.706	20.96
318.918	21.75
319.13	19.73
319.342	17.29
319.555	17.37
319.767	18.78
319.979	17.59
320.191	15.96
320.403	17.76
320.615	17.73
320.827	18.12
321.039	16.56
321.252	16.55
321.464	17.97
321.676	20.2
321.888	21.76
322.1	22.08
322.312	21.58
322.524	22.92
322.736	21.42
322.948	20.17
323.16	20.2
323.372	20.75
323.584	21.64
323.796	21.19
324.007	19.65
324.219	18.98
324.431	19.25
324.643	19.15
324.855	18.16
325.067	17.91
325.279	18.54
325.491	18.23
325.702	17.63
325.914	17.11
326.126	16.35
326.338	18.07
326.55	16.59
326.761	17.16
326.973	18.34
327.185	19.12
327.396	20.6
327.608	20.56
327.82	22.23
328.032	22.44
328.243	22.6
328.455	23.89
328.666	23.18
328.878	24.56
329.09	22.88
329.301	22.97
329.513	21.54
329.725	20.78
329.936	21.25
330.148	21.12
330.359	20.82
330.571	21.75
330.782	21.56
330.994	22.37
331.205	23.1
331.417	23.89
331.628	24.62
331.84	27.66
332.051	28.38
332.262	29.9
332.474	28.05
332.685	28.2
332.897	27.19
333.108	27.76
333.319	27.89
333.531	28.16
333.742	28.78
333.953	29.55
334.165	28.92
334.376	29.49
334.587	28.04
334.799	28.14
335.01	28.17
335.221	28.97
335.432	28.6
335.644	28.16
335.855	26.87
336.066	27.82
336.277	26.7
336.488	26.04
336.7	25.35
336.911	26.11
337.122	26.48
337.333	27.98
337.544	27.11
337.755	26.89
337.966	26.92
338.177	27.11
338.388	26.58
338.599	26.46
338.811	26.47
339.022	25.79
339.233	24.45
339.444	23.31
339.655	22.79
339.866	23.27
340.076	24.37
340.287	25.76
340.498	28.61
340.709	28.08
340.92	29.27
341.131	30.35
341.342	31.16
341.553	32.06
341.764	32.94
341.975	33.16
342.185	32.88
342.396	32.59
342.607	31.21
342.818	29.13
343.029	28.71
343.239	28.02
343.45	27.59
343.661	25.71
343.872	25.98
344.082	25.88
344.293	25.85
344.504	26.52
344.714	25.87
344.925	27.23
345.136	27.71
345.346	28.49
345.557	28.75
345.768	29.24
345.978	32.47
346.189	31.74
346.399	30.41
346.61	29.62
346.821	28.95
347.031	28.78
347.242	28.53
347.452	27.8
347.663	27.93
347.873	27.36
348.084	26.96
348.294	25.48
348.504	25.92
348.715	27.36
348.925	27.26
349.136	27.72
349.346	28.75
349.557	27.74
349.767	28.55
349.977	28.86
350.188	29.45
350.398	29.08
350.608	29.48
350.819	29.12
351.029	30.05
351.239	30.36
351.449	30.62
351.66	31.09
351.87	31.62
352.08	30.9
352.29	31.29
352.501	31.49
352.711	31.92
352.921	31.26
353.131	31.8
353.341	31.5
353.552	31.84
353.762	31.16
353.972	30.19
354.182	29.69
354.392	29.97
354.602	28.47
354.812	27.59
355.022	26.53
355.232	26.42
355.442	26.78
355.652	26.35
355.862	25.46
356.072	26.64
356.282	27.37
356.492	27.44
356.702	28.91
356.912	29.32
357.122	29.55
357.332	30.61
357.542	30.2
357.752	30.18
357.962	30.11
358.171	30.45
358.381	30.26
358.591	29.56
358.801	30.8
359.011	29.85
359.221	29.52
359.43	29.59
359.64	29.11
359.85	30.22
360.06	30.59
360.269	30.21
360.479	30.42
360.689	29.7
360.899	30.1
361.108	29.46
361.318	29.58
361.528	29.61
361.737	30.25
361.947	30.73
362.156	30.59
362.366	29.51
362.576	30.12
362.785	29.92
362.995	30.18
363.204	30.73
363.414	30.56
363.623	29.89
363.833	30.24
364.042	29.85
364.252	30.13
364.461	30.36
364.671	30.75
364.88	30.18
365.09	30.03
365.299	30.22
365.509	28.82
365.718	28.54
365.927	29.01
366.137	29.27
366.346	28.46
366.555	27.87
366.765	28.02
366.974	27.69
367.183	27.91
367.393	28.93
367.602	28.55
367.811	29.54
368.021	29.44
368.23	28.65
368.439	28.48
368.648	28.83
368.857	28.63
369.067	28.12
369.276	28.33
369.485	28.46
369.694	27.45
369.903	27.59
370.112	26.95
370.321	27.15
370.531	27.01
370.74	27.16
370.949	27.19
371.158	27.31
371.367	26.85
371.576	26.63
371.785	26.77
371.994	27.23
372.203	27.28
372.412	27.44
372.621	28.06
372.83	28.73
373.039	28.84
373.248	28.71
373.457	28.76
373.666	28.36
373.874	28.5
374.083	28.27
374.292	27.86
374.501	27.65
374.71	27.21
374.919	27.06
375.128	26.78
375.336	26.22
375.545	26.09
375.754	26.07
375.963	26.23
376.171	25.92
376.38	26.23
376.589	26.35
376.798	26.29
377.006	26.36
377.215	26.39
377.424	25.9
377.632	25.95
377.841	26.07
378.05	25.75
378.258	26.13
378.467	26.43
378.675	25.99
378.884	26.3
379.093	26.05
379.301	26.19
379.51	25.99
379.718	27.06
379.927	26.66
380.135	26.97
380.344	26.94
380.552	26.6
380.761	26.46
380.969	26.78
381.177	25.98
381.386	26.56
381.594	26.57
381.803	26.14
382.011	25.3
382.219	25.57
382.428	24.99
382.636	24.72
382.845	24.67
383.053	24.51
383.261	23.87
383.469	24.42
383.678	23.71
383.886	23.55
384.094	23.4
384.302	23.74
384.511	23.79
384.719	23.91
384.927	24.01
385.135	24.12
385.343	24.46
385.552	24.95
385.76	24.27
385.968	24.53
386.176	24.45
386.384	24.5
386.592	24.17
386.8	24.5
387.008	24.65
387.216	24.88
387.424	24.64
387.633	24.25
387.841	23.82
388.049	24.07
388.257	24.4
388.465	24.35
388.672	24.7
388.88	24.77
389.088	24.99
389.296	24.8
389.504	24.73
389.712	25.25
389.92	25.36
390.128	25.53
390.336	25.48
390.544	25.15
390.751	25.2
390.959	25.25
391.167	25.18
391.375	24.38
391.583	24.16
391.79	23.87
391.998	23.55
392.206	23.49
392.414	22.98
392.621	22.9
392.829	22.94
393.037	23.11
393.244	22.86
393.452	23.03
393.66	23.29
393.867	23.66
394.075	23.85
394.283	23.92
394.49	24.35
394.698	24.84
394.905	24.86
395.113	24.8
395.32	24.61
395.528	24.94
395.735	24.8
395.943	24.53
396.15	24.21
396.358	24.3
396.565	24.15
396.773	23.62
396.98	23.73
397.188	24.19
397.395	23.75
397.602	24.18
397.81	23.58
398.017	23.46
398.225	23.63
398.432	23.88
398.639	23.83
398.847	23.8
399.054	23.93
399.261	23.93
399.468	23.74
399.676	24.32
399.883	24.2
400.09	24.65
400.297	24.88
400.505	25.41
400.712	25.42
400.919	25.54
401.126	25.83
401.333	26.12
401.54	25.98
401.748	25.69
401.955	25.61
402.162	25.51
402.369	25.15
402.576	25.11
402.783	24.84
402.99	24.71
403.197	24.32
403.404	24.23
403.611	24.04
403.818	24.08
404.025	24.2
404.232	24.22
404.439	24.18
404.646	24.08
404.853	23.99
405.06	23.59
405.267	23.51
405.474	23.72
405.681	23.73
405.887	23.85
406.094	23.85
406.301	23.97
406.508	23.89
406.715	23.74
406.922	24.31
407.128	24.11
407.335	24.26
407.542	24.32
407.749	24.13
407.955	24.12
408.162	23.85
408.369	23.78
408.575	24.04
408.782	24.46
408.989	24.4
409.195	23.96
409.402	24.19
409.609	24.41
409.815	24.6
410.022	24.86
410.228	24.8
410.435	24.78
410.642	24.67
410.848	24.27
411.055	23.83
411.261	24.14
411.468	24.02
411.674	24.27
411.881	24.44
412.087	24.33
412.294	24.09
412.5	24.27
412.706	24.28
412.913	24.24
413.119	24.44
413.326	24.54
413.532	24.3
413.738	24.11
413.945	23.86
414.151	23.39
414.357	23.36
414.564	23.72
414.77	23.41
414.976	23.37
415.182	23.58
415.389	23.15
415.595	22.8
415.801	22.6
416.007	23.02
416.214	22.86
416.42	23.06
416.626	23.07
416.832	22.82
417.038	22.91
417.244	22.88
417.45	22.81
417.657	23.27
417.863	23.48
418.069	23.6
418.275	23.47
418.481	23.54
418.687	23.5
418.893	23.41
419.099	23.39
419.305	23.44
419.511	23.54
419.717	23.41
419.923	23.16
420.129	23.14
420.335	23.14
420.541	23.21
420.746	23.08
420.952	23.14
421.158	23.14
421.364	23.11
421.57	22.97
421.776	22.63
421.982	22.65
422.187	22.55
422.393	22.4
422.599	22.36
422.805	22.29
423.01	22.31
423.216	22.25
423.422	22.14
423.628	22.09
423.833	22.1
424.039	22.4
424.245	22.31
424.45	22.28
424.656	22.31
424.862	22.19
425.067	22.09
425.273	22.07
425.478	21.86
425.684	21.8
425.889	21.83
426.095	21.9
426.301	21.89
426.506	21.87
426.712	21.92
426.917	21.93
427.123	21.95
427.328	22.17
427.533	22.13
427.739	22.28
427.944	22.39
428.15	22.37
428.355	22.18
428.561	22.24
428.766	22.37
428.971	22.46
429.177	22.28
429.382	22.06
429.587	21.86
429.793	22.03
429.998	22.18
430.203	22.33
430.408	22.37
430.614	22.52
430.819	22.15
431.024	22.11
431.229	21.93
431.434	22.09
431.64	22.22
431.845	22.31
432.05	22.16
432.255	22.19
432.46	21.9
432.665	21.91
432.87	21.92
433.076	22.13
433.281	22.23
433.486	22.23
433.691	22.24
433.896	22.29
434.101	22.1
434.306	22.1
434.511	21.94
434.716	22.01
434.921	21.97
435.126	21.94
435.331	21.79
435.535	21.68
435.74	21.66
435.945	21.62
436.15	21.55
436.355	21.68
436.56	21.78
436.765	21.75
436.97	21.8
437.174	21.74
437.379	21.65
437.584	21.69
437.789	21.7
437.993	21.88
438.198	21.82
438.403	21.94
438.608	21.94
438.812	21.91
439.017	21.88
439.222	21.93
439.426	21.89
439.631	21.81
439.836	21.87
440.04	21.87
440.245	21.97
440.45	22.07
440.654	22
440.859	22.05
441.063	21.97
441.268	22.08
441.472	22.02
441.677	22.13
441.881	22.24
442.086	22.18
442.29	22.1
442.495	22.02
442.699	21.85
442.904	21.9
443.108	21.75
443.312	21.72
443.517	21.5
443.721	21.44
443.925	21.34
444.13	21.4
444.334	21.25
444.538	21.31
444.743	21.27
444.947	21.19
445.151	21.22
445.356	21.22
445.56	21.16
445.764	21.2
445.968	21.29
446.173	21.27
446.377	21.01
446.581	21.1
446.785	21.06
446.989	20.85
447.193	20.97
447.398	20.76
447.602	20.73
447.806	20.75
448.01	20.71
448.214	20.57
448.418	20.52
448.622	20.7
448.826	20.74
449.03	20.66
449.234	20.87
449.438	20.76
449.642	21.01
449.846	20.93
450.05	21.01
450.254	20.88
450.458	20.72
450.662	20.73
450.866	20.64
451.069	20.51
451.273	20.67
451.477	20.5
451.681	20.39
451.885	20.34
452.089	20.49
452.292	20.55
452.496	20.72
452.7	20.88
452.904	20.85
453.107	20.95
453.311	20.87
453.515	20.78
453.719	20.93
453.922	21.01
454.126	21.06
454.33	20.89
454.533	20.63
454.737	20.69
454.94	20.77
455.144	20.87
455.348	20.78
455.551	20.81
455.755	20.95
455.958	20.9
456.162	21.02
456.365	20.91
456.569	21.09
456.772	21.26
456.976	21.28
457.179	21.13
457.383	21.05
457.586	21.11
457.79	21.28
457.993	21.23
458.196	21.2
458.4	21.35
458.603	21.49
458.807	21.34
459.01	21.31
459.213	21.2
459.417	21.4
459.62	21.43
459.823	21.37
460.026	21.15
460.23	21.2
460.433	21.27
460.636	21.12
460.839	21.07
461.042	21.15
461.246	21.15
461.449	21.17
461.652	21.12
461.855	21.04
462.058	21.22
462.261	21.41
462.464	21.31
462.668	21.25
462.871	21.43
463.074	21.33
463.277	21.31
463.48	21.45
463.683	21.53
463.886	21.74
464.089	21.86
464.292	21.78
464.495	21.79
464.698	21.94
464.901	22.03
465.104	21.85
465.306	21.88
465.509	22.01
465.712	21.74
465.915	21.67
466.118	21.42
466.321	21.33
466.524	21.12
466.726	21.13
466.929	20.97
467.132	20.92
467.335	21.01
467.538	21.02
467.74	20.98
467.943	21.19
468.146	21.17
468.348	21.06
468.551	21.18
468.754	21.46
468.956	21.42
469.159	21.52
469.362	21.65
469.564	21.58
469.767	21.57
469.969	21.55
470.172	21.68
470.375	21.81
470.577	22.05
470.78	22.09
470.982	22.08
471.185	22.23
471.387	22.1
471.59	21.94
471.792	22.07
471.995	22.24
472.197	22.16
472.399	22.14
472.602	22.1
472.804	21.93
473.007	21.9
473.209	21.74
473.411	21.79
473.614	21.84
473.816	21.96
474.018	21.95
474.22	21.83
474.423	22.09
474.625	21.9
474.827	21.84
475.03	21.92
475.232	21.87
475.434	22.09
475.636	21.87
475.838	21.98
476.04	21.73
476.243	21.8
476.445	21.81
476.647	21.68
476.849	21.95
477.051	22.06
477.253	22.22
477.455	22.29
477.657	22.07
477.859	22.14
478.061	21.99
478.263	22.22
478.465	22.17
478.667	22.26
478.869	22.12
479.071	21.93
479.273	21.9
479.475	21.66
479.677	21.6
479.879	21.79
480.081	21.72
480.283	21.8
480.485	21.84
480.686	21.85
480.888	21.73
481.09	21.95
481.292	21.88
481.494	21.85
481.695	21.97
481.897	21.99
482.099	22.03
482.301	22.01
482.502	22.02
482.704	21.96
482.906	21.77
483.107	21.8
483.309	21.7
483.511	21.72
483.712	21.6
483.914	21.53
484.115	21.45
484.317	21.36
484.519	21.34
484.72	21.33
484.922	21.25
485.123	21.32
485.325	21.33
485.526	21.36
485.728	21.35
485.929	21.45
486.131	21.45
486.332	21.58
486.534	21.64
486.735	21.61
486.936	21.64
487.138	21.65
487.339	21.61
487.541	21.54
487.742	21.54
487.943	21.55
488.144	21.48
488.346	21.55
488.547	21.49
488.748	21.43
488.95	21.47
489.151	21.42
489.352	21.41
489.553	21.44
489.755	21.48
489.956	21.45
490.157	21.48
490.358	21.62
490.559	21.6
490.76	21.7
490.961	21.69
491.163	21.69
491.364	21.72
491.565	21.76
491.766	21.73
491.967	21.67
492.168	21.66
492.369	21.64
492.57	21.61
492.771	21.62
492.972	21.55
493.173	21.48
493.374	21.56
493.575	21.5
493.776	21.52
493.976	21.64
494.177	21.67
494.378	21.75
494.579	21.63
494.78	21.58
494.981	21.55
495.182	21.5
495.382	21.74
495.583	21.79
495.784	21.76
495.985	21.96
496.185	21.93
496.386	22.12
496.587	22.15
496.788	22.24
496.988	22.3
497.189	22.27
497.39	22.28
497.59	22.14
497.791	22.12
497.992	22.25
498.192	22.12
498.393	22.03
498.593	22.01
498.794	22.05
498.994	22.01
499.195	21.95
499.395	22.21
499.596	22.19
499.796	22.31
499.997	22.36
500.197	22.23
500.398	22.25
500.598	22.24
500.799	22.32
500.999	22.15
501.199	22.27
501.4	22.36
501.6	22.24
501.801	22.39
502.001	22.49
502.201	22.46
502.402	22.7
502.602	22.79
502.802	22.84
503.002	22.71
503.203	22.85
503.403	22.97
503.603	22.86
503.803	22.81
504.003	22.85
504.204	22.77
504.404	22.79
504.604	22.68
504.804	22.66
505.004	22.82
505.204	22.94
505.404	22.89
505.604	22.82
505.804	23.02
506.005	23.02
506.205	23.07
506.405	23.1
506.605	23.1
506.805	23.14
507.005	23.24
507.204	23.28
507.404	23.2
507.604	23.16
507.804	23.07
508.004	23.13
508.204	23.17
508.404	23.19
508.604	23.31
508.804	23.4
509.003	23.41
509.203	23.32
509.403	23.31
509.603	23.37
509.803	23.55
510.002	23.76
510.202	23.73
510.402	23.79
510.602	23.71
510.801	23.88
511.001	23.78
511.201	23.87
511.4	23.99
511.6	24.01
511.8	24.09
511.999	24.15
512.199	24.14
512.398	24.17
512.598	24.22
512.797	24.31
512.997	24.13
513.197	24.31
513.396	24.35
513.596	24.42
513.795	24.55
513.994	24.53
514.194	24.52
514.393	24.44
514.593	24.6
514.792	24.73
514.992	24.71
515.191	24.83
515.39	24.92
515.59	24.87
515.789	24.89
515.988	24.89
516.188	24.96
516.387	24.86
516.586	24.91
516.786	25.02
516.985	25.02
517.184	25.14
517.383	25.28
517.582	25.16
517.782	25.13
517.981	25.22
518.18	25.21
518.379	25.28
518.578	25.37
518.777	25.44
518.976	25.39
519.176	25.43
519.375	25.49
519.574	25.48
519.773	25.66
519.972	25.88
520.171	25.9
520.37	25.95
520.569	25.93
520.768	25.99
520.967	26.16
521.166	26.25
521.365	26.22
521.564	26.33
521.762	26.28
521.961	26.39
522.16	26.19
522.359	26.23
522.558	26.28
522.757	26.24
522.956	26.21
523.154	26.1
523.353	26.1
523.552	26.2
523.751	26.1
523.949	26.1
524.148	25.99
524.347	26.27
524.546	26.33
524.744	26.25
524.943	26.4
525.142	26.53
525.34	26.64
525.539	26.67
525.737	26.72
525.936	26.8
526.135	26.85
526.333	26.88
526.532	26.88
526.73	26.82
526.929	26.84
527.127	26.87
527.326	26.8
527.524	26.79
527.723	26.83
527.921	26.83
528.12	26.75
528.318	26.78
528.516	26.75
528.715	26.72
528.913	26.72
529.112	26.7
529.31	26.67
529.508	26.67
529.707	26.62
529.905	26.51
530.103	26.47
530.301	26.54
530.5	26.59
530.698	26.59
530.896	26.68
531.094	26.79
531.293	26.87
531.491	26.93
531.689	27.03
531.887	27.19
532.085	27.4
532.283	27.42
532.481	27.33
532.68	27.32
532.878	27.44
533.076	27.3
533.274	27.24
533.472	27.3
533.67	27.31
533.868	27.31
534.066	27.26
534.264	27.29
534.462	27.28
534.66	27.38
534.858	27.41
535.056	27.35
535.253	27.39
535.451	27.48
535.649	27.41
535.847	27.37
536.045	27.41
536.243	27.5
536.441	27.43
536.638	27.51
536.836	27.43
537.034	27.41
537.232	27.53
537.43	27.68
537.627	27.63
537.825	27.74
538.023	27.79
538.22	27.84
538.418	27.9
538.616	28.13
538.813	28.06
539.011	28.14
539.209	28.14
539.406	27.99
539.604	28.07
539.801	28.1
539.999	28.17
540.196	28.19
540.394	28.26
540.591	28.34
540.789	28.24
540.986	28.38
541.184	28.42
541.381	28.34
541.579	28.37
541.776	28.32
541.974	28.29
542.171	28.32
542.368	28.4
542.566	28.4
542.763	28.31
542.96	28.34
543.158	28.24
543.355	28.34
543.552	28.42
543.75	28.45
543.947	28.44
544.144	28.46
544.341	28.58
544.539	28.64
544.736	28.73
544.933	28.78
545.13	28.83
545.327	28.93
545.524	28.92
545.722	29.08
545.919	29.2
546.116	29.29
546.313	29.32
546.51	29.11
546.707	29.02
546.904	28.93
547.101	28.91
547.298	28.87
547.495	28.85
547.692	28.83
547.889	28.81
548.086	28.89
548.283	28.98
548.48	29.13
548.677	29.29
548.874	29.29
549.07	29.36
549.267	29.54
549.464	29.6
549.661	29.74
549.858	29.63
550.055	29.7
550.251	29.54
550.448	29.48
550.645	29.52
550.842	29.42
551.038	29.38
551.235	29.32
551.432	29.15
551.628	29.1
551.825	29.01
552.022	29.09
552.218	28.92
552.415	28.85
552.612	28.91
552.808	28.87
553.005	28.84
553.201	28.81
553.398	28.95
553.594	28.95
553.791	28.93
553.987	29.11
554.184	29.2
554.38	29.27
554.577	29.44
554.773	29.37
554.97	29.55
555.166	29.61
555.362	29.68
555.559	29.57
555.755	29.75
555.952	29.88
556.148	29.77
556.344	29.78
556.541	29.79
556.737	29.67
556.933	29.52
557.129	29.58
557.326	29.63
557.522	29.73
557.718	29.86
557.914	29.75
558.11	29.75
558.307	29.62
558.503	29.63
558.699	29.76
558.895	29.72
559.091	29.87
559.287	29.56
559.483	29.62
559.679	29.61
559.876	29.51
560.072	29.33
560.268	29.48
560.464	29.54
560.66	29.63
560.856	29.55
561.052	29.71
561.247	29.79
561.443	29.89
561.639	29.9
561.835	29.77
562.031	29.79
562.227	29.85
562.423	29.47
562.619	29.78
562.815	29.53
563.01	29.52
563.206	29.59
563.402	29.44
563.598	29.41
563.793	29.29
563.989	29.44
564.185	29.53
564.381	29.58
564.576	29.73
564.772	29.46
564.968	29.68
565.163	29.63
565.359	29.52
565.555	29.43
565.75	29.35
565.946	29.26
566.141	29.32
566.337	29.21
566.532	29.37
566.728	29.39
566.923	29.32
567.119	29.26
567.314	29.37
567.51	29.25
567.705	29.49
567.901	29.68
568.096	29.89
568.292	29.93
568.487	30
568.682	29.85
568.878	29.81
569.073	29.77
569.268	29.81
569.464	29.79
569.659	30.08
569.854	29.96
570.05	29.82
570.245	29.73
570.44	29.68
570.635	29.63
570.831	29.69
571.026	29.75
571.221	29.88
571.416	29.94
571.611	29.89
571.806	29.57
572.002	29.71
572.197	29.75
572.392	29.72
572.587	29.62
572.782	29.58
572.977	29.52
573.172	29.47
573.367	29.56
573.562	29.45
573.757	29.61
573.952	29.9
574.147	29.83
574.342	29.71
574.537	29.96
574.732	29.97
574.927	29.95
575.121	30.04
575.316	30.07
575.511	30.08
575.706	29.97
575.901	29.86
576.096	29.78
576.29	29.74
576.485	29.79
576.68	29.65
576.875	29.82
577.069	29.89
577.264	29.93
577.459	30.02
577.654	30.04
577.848	30.22
578.043	30.41
578.238	30.26
578.432	30.51
578.627	30.49
578.821	30.54
579.016	30.42
579.21	30.48
579.405	30.44
579.6	30.41
579.794	30.34
579.989	30.25
580.183	30.11
580.378	30.37
580.572	30.39
580.766	30.47
580.961	30.38
581.155	30.35
581.35	30.22
581.544	30.07
581.738	30.3
581.933	30.21
582.127	30.39
582.321	30.03
582.516	29.98
582.71	29.71
582.904	29.87
583.099	29.8
583.293	29.87
583.487	29.9
583.681	30.04
583.875	30
584.07	30.13
584.264	30.19
584.458	30.64
584.652	30.7
584.846	30.67
585.04	30.71
585.234	31.05
585.428	31
585.623	31.24
585.817	31.06
586.011	31.13
586.205	31.17
586.399	30.98
586.593	31.04
586.787	31.04
586.981	31.09
587.174	30.95
587.368	30.75
587.562	31.12
587.756	31.03
587.95	31.34
588.144	31.06
588.338	31.04
588.532	31.11
588.725	30.93
588.919	30.99
589.113	30.84
589.307	30.64
589.501	30.75
589.694	30.51
589.888	30.31
590.082	30.28
590.275	30.26
590.469	30.3
590.663	30.32
590.856	30.23
591.05	30.21
591.244	30.4
591.437	30.53
591.631	30.27
591.824	30.52
592.018	30.77
592.212	30.57
592.405	30.76
592.599	30.54
592.792	30.35
592.986	30.39
593.179	30.46
593.372	30.36
593.566	30.44
593.759	30.64
593.953	30.57
594.146	30.43
594.339	30.6
594.533	30.62
594.726	31.06
594.92	31.3
595.113	31.22
595.306	31.05
595.499	31.1
595.693	31.25
595.886	31.32
596.079	31.32
596.272	31.29
596.466	31.35
596.659	31.26
596.852	30.94
597.045	30.8
597.238	31.05
597.431	30.91
597.624	31.03
597.818	31.07
598.011	30.95
598.204	30.8
598.397	30.85
598.59	30.74
598.783	30.67
598.976	30.69
599.169	30.77
599.362	30.79
599.555	30.94
599.748	30.83
599.941	30.61
600.134	30.86
600.326	30.82
600.519	30.88
600.712	30.81
600.905	30.96
601.098	31.38
601.291	31.54
601.483	31.58
601.676	31.48
601.869	31.41
602.062	31.52
602.255	31.5
602.447	31.33
602.64	31.44
602.833	31.49
603.025	31.73
603.218	31.48
603.411	31.33
603.603	31.19
603.796	31.32
603.989	31.1
604.181	31.11
604.374	30.86
604.566	30.91
604.759	30.97
604.951	31.13
605.144	30.88
605.336	30.93
605.529	30.98
605.721	30.96
605.914	30.87
606.106	31.24
606.299	31.33
606.491	31.44
606.683	31.49
606.876	31.23
607.068	31.11
607.26	31.12
607.453	31.11
607.645	31.33
607.837	31.14
608.03	31.28
608.222	31.11
608.414	30.9
608.606	31.05
608.799	31.1
608.991	31.43
609.183	31.53
609.375	31.55
609.567	31.64
609.759	31.33
609.952	31.66
610.144	31.67
610.336	31.98
610.528	32.12
610.72	32.17
610.912	32.29
611.104	32.33
611.296	32.35
611.488	32.39
611.68	32.11
611.872	32.46
612.064	32.43
612.256	32.74
612.448	32.47
612.64	32.52
612.832	32.61
613.023	32.62
613.215	32.48
613.407	32.34
613.599	32.43
613.791	32.7
613.983	32.53
614.174	32.52
614.366	32.29
614.558	32.23
614.75	32.03
614.941	31.72
615.133	31.72
615.325	31.58
615.516	31.54
615.708	31.71
615.9	31.65
616.091	31.84
616.283	31.76
616.475	31.64
616.666	31.75
616.858	31.64
617.049	31.38
617.241	31.4
617.432	31.35
617.624	31.63
617.815	31.43
618.007	31.06
618.198	30.73
618.39	30.6
618.581	30.5
618.773	30.6
618.964	30.81
619.155	31.19
619.347	31.3
619.538	31.37
619.729	31.12
619.921	31.17
620.112	31.54
620.303	31.74
620.494	31.96
620.686	32.05
620.877	31.95
621.068	31.79
621.259	31.96
621.451	32
621.642	31.97
621.833	32.15
622.024	32.11
622.215	32.22
622.406	32.16
622.597	32.23
622.788	32.34
622.98	32.25
623.171	32.48
623.362	32.41
623.553	32.31
623.744	32.21
623.935	32.18
624.126	32.08
624.317	31.95
624.508	31.9
624.698	32.12
624.889	31.86
625.08	32.01
625.271	32.07
625.462	31.8
625.653	31.71
625.844	31.99
626.034	31.92
626.225	32.05
626.416	32.16
626.607	32.19
626.798	31.79
626.988	32.08
627.179	32.1
627.37	31.77
627.56	32.09
627.751	32.19
627.942	32.1
628.132	32.05
628.323	31.96
628.514	31.82
628.704	31.8
628.895	31.96
629.085	31.64
629.276	31.76
629.466	32.28
629.657	32.16
629.847	31.91
630.038	31.68
630.228	31.72
630.419	31.69
630.609	31.74
630.8	31.6
630.99	31.88
631.181	32.09
631.371	31.73
631.561	31.37
631.752	31.15
631.942	31.32
632.132	31.49
632.323	31.57
632.513	31.7
632.703	31.78
632.893	32.03
633.084	31.99
633.274	32.1
633.464	32.32
633.654	32.55
633.844	32.6
634.034	32.76
634.225	32.66
634.415	32.4
634.605	32.29
634.795	31.99
634.985	31.76
635.175	31.34
635.365	31.12
635.555	30.97
635.745	30.91
635.935	30.96
636.125	30.64
636.315	30.7
636.505	30.86
636.695	30.74
636.885	31
637.075	31.04
637.265	31.09
637.455	31.19
637.644	31.3
637.834	31.14
638.024	31.26
638.214	31.6
638.404	31.58
638.593	31.7
638.783	31.81
638.973	31.97
639.163	32.06
639.352	31.94
639.542	32.19
639.732	32.22
639.921	32.27
640.111	32.12
640.301	32.2
640.49	32.39
640.68	32.28
640.87	32.29
641.059	32.16
641.249	32.41
641.438	32.63
641.628	32.25
641.817	32.22
642.007	32.34
642.196	32.58
642.386	32.34
642.575	32.61
642.764	32.55
642.954	32.47
643.143	32.56
643.333	32.52
643.522	32.52
643.711	32.63
643.901	32.79
644.09	32.39
644.279	32.23
644.469	32.18
644.658	31.82
644.847	31.76
645.036	31.79
645.226	31.49
645.415	31.59
645.604	31.59
645.793	31.59
645.982	31.37
646.171	31.91
646.361	31.84
646.55	31.71
646.739	31.88
646.928	32.12
647.117	32.08
647.306	32.11
647.495	31.8
647.684	31.49
647.873	31.5
648.062	31.35
648.251	31.12
648.44	31.43
648.629	31.41
648.818	31.11
649.007	30.89
649.196	31.12
649.384	31.15
649.573	31.24
649.762	31.37
649.951	31.36
650.14	31.44
650.328	31.55
650.517	31.25
650.706	31.66
650.895	31.86
651.083	32.03
651.272	32.27
651.461	32.26
651.65	32.11
651.838	32.15
652.027	32.34
652.216	32.33
652.404	32.22
652.593	32.76
652.781	32.52
652.97	32.2
653.158	32.4
653.347	32.11
653.535	31.68
653.724	32.03
653.912	32.32
654.101	32.19
654.289	32.13
654.478	32.2
654.666	31.9
654.855	32.13
655.043	32.34
655.231	32.03
655.42	32.36
655.608	32.8
655.796	32.64
655.985	32.79
656.173	32.3
656.361	32.28
656.55	32.06
656.738	32.22
656.926	32.2
657.114	32.27
657.302	32.65
657.491	32.44
657.679	32.45
657.867	32.22
658.055	31.96
658.243	32.36
658.431	32.55
658.619	32.52
658.807	32.17
658.996	32.23
659.184	32
659.372	31.67
659.56	31.4
659.748	31.42
659.936	31.61
660.124	31.39
660.311	31.33
660.499	31.12
660.687	31.27
660.875	31.37
661.063	31.19
661.251	31.49
661.439	31.35
661.627	31.6
661.814	31.67
662.002	31.5
662.19	31.86
662.378	31.65
662.565	31.96
662.753	31.95
662.941	31.87
663.129	31.54
663.316	31.84
663.504	32.07
663.692	32.16
663.879	32.42
664.067	32.39
664.254	32.25
664.442	32.95
664.63	33.02
664.817	32.74
665.005	32.5
665.192	32.9
665.38	32.62
665.567	32.94
665.755	32.69
665.942	32.14
666.13	32.33
666.317	32.5
666.504	32
666.692	31.79
666.879	32.12
667.067	32.15
667.254	32.23
667.441	32.16
667.629	32.31
667.816	32.42
668.003	32.56
668.19	32.31
668.378	32.45
668.565	32.32
668.752	32.36
668.939	32.32
669.127	32.49
669.314	32.24
669.501	32.3
669.688	31.95
669.875	31.79
670.062	31.96
670.249	32.09
670.436	31.74
670.623	32.09
670.81	32.14
670.997	32.41
671.184	32.44
671.371	32.71
671.558	32.48
671.745	32.21
671.932	31.99
672.119	31.45
672.306	31.22
672.493	31.28
672.68	31.5
672.867	31.22
673.054	31.36
673.24	31.46
673.427	30.77
673.614	30.84
673.801	31.03
673.988	31.48
674.174	31.96
674.361	32.32
674.548	32.18
674.734	31.88
674.921	31.81
675.108	31.24
675.294	31.06
675.481	31.79
675.668	31.78
675.854	31.99
676.041	31.88
676.227	32.14
676.414	32.13
676.601	32.2
676.787	32.28
676.974	32.81
677.16	32.88
677.347	32.88
677.533	32.94
677.719	33.1
677.906	33.09
678.092	33.02
678.279	32.91
678.465	33.07
678.651	32.87
678.838	33.16
679.024	33.08
679.21	33.08
679.397	33.33
679.583	32.99
679.769	32.94
679.955	32.7
680.142	32.91
680.328	32.83
680.514	32.67
680.7	32.88
680.886	32.4
681.073	32.33
681.259	32.17
681.445	31.99
681.631	31.9
681.817	32.05
682.003	31.81
682.189	31.88
682.375	31.87
682.561	31.89
682.747	31.91
682.933	32.09
683.119	31.96
683.305	31.88
683.491	31.72
683.677	31.93
683.863	31.71
684.049	32.13
684.235	31.79
684.42	31.69
684.606	31.8
684.792	31.91
684.978	31.52
685.164	31.56
685.349	31.94
685.535	32.54
685.721	33
685.907	33.1
686.092	32.57
686.278	32.85
686.464	32.79
686.649	32.22
686.835	32.2
687.021	32.49
687.206	32.45
687.392	32.14
687.577	32.12
687.763	31.77
687.948	31.46
688.134	32.21
688.319	32.3
688.505	32.11
688.69	32.52
688.876	32.42
689.061	32.11
689.247	32.04
689.432	32.42
689.618	32.3
689.803	32.52
689.988	32.61
690.174	32.26
690.359	32.33
690.544	32.84
690.73	33.09
690.915	32.98
691.1	33.36
691.285	34
691.471	33.74
691.656	33.28
691.841	33.11
692.026	33.41
692.211	33.45
692.396	32.89
692.582	32.96
692.767	33.01
692.952	33.88
693.137	33.6
693.322	33.4
693.507	33.81
693.692	34.35
693.877	34.22
694.062	33.94
694.247	33.77
694.432	34.13
694.617	33.85
694.802	34.17
694.987	33.29
695.172	33.53
695.357	33.33
695.541	32.99
695.726	32.35
695.911	32.6
696.096	33.07
696.281	33.38
696.466	33.2
696.65	33.34
696.835	32.19
697.02	32.62
697.204	33.09
697.389	33.23
697.574	33.12
697.759	32.71
697.943	32.78
698.128	32.06
698.312	32.12
698.497	31.85
698.682	31.7
698.866	32.41
699.051	32.15
699.235	31.66
699.42	31.02
699.604	31.23
699.789	31.76
699.973	31.33
700.158	31.98
700.342	31.87
700.527	32.64
700.711	32.62
700.895	32.42
701.08	32.55
701.264	32.36
701.448	33.14
701.633	33.07
701.817	33.09
702.001	32.89
702.186	32.97
702.37	32.74
702.554	31.99
702.738	32.81
702.923	32.64
703.107	33.15
703.291	33.76
703.475	33.64
703.659	33.14
703.843	33.47
704.027	34.44
704.212	33.68
704.396	34.03
704.58	34.49
704.764	33.68
704.948	34.24
705.132	34.08
705.316	33.94
705.5	33.75
705.684	34.54
705.868	34.34
706.052	34.55
706.235	34.92
706.419	34.76
706.603	34.7
706.787	34.59
706.971	34.22
707.155	33.57
707.339	33.86
707.522	33.9
707.706	33.65
707.89	33.8
708.074	33.19
708.257	33.28
708.441	33.81
708.625	33.73
708.808	34.35
708.992	34.03
709.176	33.98
709.359	33.38
709.543	33.49
709.727	33.45
709.91	33.32
710.094	33.38
710.277	33.98
710.461	33.66
710.644	34.32
710.828	34.25
711.011	34.28
711.195	34.61
711.378	34.79
711.562	34.89
711.745	34.78
711.928	34.68
712.112	35.07
712.295	34.48
712.478	34.46
712.662	33.37
712.845	32.88
713.028	32.7
713.212	32.4
713.395	32.62
713.578	32.01
713.761	31.62
713.945	31.48
714.128	31.01
714.311	30.69
714.494	30.36
714.677	30.96
714.86	30.92
715.043	31.31
715.227	31.43
715.41	31.42
715.593	31.97
715.776	32.1
715.959	32.53
716.142	32.61
716.325	32.75
716.508	33.18
716.691	32.88
716.874	32.81
717.057	32.61
717.239	32.69
717.422	32.17
717.605	32.35
717.788	32.49
717.971	32.28
718.154	32.33
718.337	32.93
718.519	32.12
718.702	32.22
718.885	32.47
719.068	32.89
719.25	33.5
719.433	33.9
719.616	33.28
719.798	33.83
719.981	34.64
720.164	34.32
720.346	34.31
720.529	35.32
720.712	35.5
720.894	35.86
721.077	35.41
721.259	35.35
721.442	35.91
721.624	36.35
721.807	36.28
721.989	36.01
722.172	36.75
722.354	36.45
722.537	35.12
722.719	34.24
722.901	34.23
723.084	34.12
723.266	33.53
723.448	33.84
723.631	33.94
723.813	33.4
723.995	32.61
724.178	31.88
724.36	31.91
724.542	32.81
724.724	33.94
724.907	33.69
725.089	33.72
725.271	33.23
725.453	32.28
725.635	31.29
725.817	32.24
725.999	32.16
726.181	32.36
726.364	32.76
726.546	32.24
726.728	32.6
726.91	32.64
727.092	33.48
727.274	34.43
727.456	35.52
727.638	36.25
727.819	35.51
728.001	34.75
728.183	34.69
728.365	34.15
728.547	34.93
728.729	34.59
728.911	33.95
729.093	33.84
729.274	33.08
729.456	31.88
729.638	31.6
729.82	31.88
730.001	32.95
730.183	32.51
730.365	32.06
730.546	32.01
730.728	32.13
730.91	33.75
731.091	33.93
731.273	34.17
731.455	34.95
731.636	35.43
731.818	35.15
731.999	35.18
732.181	35.49
732.362	35.98
732.544	35.61
732.725	35.9
732.907	35.22
733.088	34.61
733.27	35.6
733.451	34.82
733.633	35.01
733.814	35.74
733.995	35.11
734.177	34.96
734.358	34.79
734.539	34.49
734.721	33.95
734.902	34.21
735.083	33.99
735.264	32.16
735.446	33.19
735.627	31.83
735.808	31.3
735.989	32.63
736.17	32.99
736.351	32.6
736.533	32.79
736.714	32.68
736.895	32.21
737.076	31.88
737.257	32.91
737.438	32.45
737.619	33.48
737.8	32.59
737.981	31.77
738.162	32.68
738.343	33.37
738.524	34.22
738.705	33.99
738.886	33.5
739.067	32.93
739.247	32.88
739.428	33.25
739.609	33.42
739.79	34.45
739.971	34.54
740.151	34.57
740.332	34.48
740.513	33.84
740.694	33.4
740.874	33.1
741.055	34.43
741.236	34
741.417	34.52
741.597	34.05
741.778	33.95
741.958	34.54
742.139	33.36
742.32	33.89
742.5	35.21
742.681	35.95
742.861	36.21
743.042	36.83
743.222	37.24
743.403	36.37
743.583	36.7
743.764	36.66
743.944	35.59
744.124	35.44
744.305	33.8
744.485	33.03
744.666	33.53
744.846	34.65
745.026	34.02
745.207	34.63
745.387	35.59
745.567	35.64
745.747	36.71
745.928	36.86
746.108	38.33
746.288	38.47
746.468	37.91
746.648	37.23
746.829	37.25
747.009	37.78
747.189	36.9
747.369	35.97
747.549	35.84
747.729	34.6
747.909	34.63
748.089	33.62
748.269	34.15
748.449	33.92
748.629	34.69
748.809	34.76
748.989	34.04
749.169	34.74
749.349	33.55
749.529	34
749.709	33.63
749.889	33.58
750.068	34
750.248	34.6
750.428	35.26
750.608	34.08
750.788	33.13
750.967	33.28
751.147	31.78
751.327	33.99
751.507	33.07
751.686	33.38
751.866	34.74
752.046	35.28
752.225	35.19
752.405	35.06
752.585	34.93
752.764	34.8
752.944	34.96
753.123	35.49
753.303	33.63
753.482	33.93
753.662	33.71
753.841	32.58
754.021	32.22
754.2	30.84
754.38	30.29
754.559	32.95
754.739	33.63
754.918	33.51
755.097	33.38
755.277	34.36
755.456	34.05
755.635	34.29
755.815	34.03
755.994	34.35
756.173	35.58
756.352	36.14
756.532	33.88
756.711	33.74
756.89	33.91
757.069	34.43
757.248	34.92
757.427	34.62
757.607	35.45
757.786	36.03
757.965	34.61
758.144	33.6
758.323	33.7
758.502	33.81
758.681	33.53
758.86	33.21
759.039	34.22
759.218	32.72
759.397	33.59
759.576	31.98
759.755	33.8
759.934	34.87
760.113	36.56
760.291	34.99
760.47	35.45
760.649	35.61
760.828	35.79
761.007	34.94
761.186	35.65
761.364	36.08
761.543	37.03
761.722	35.05
761.901	34.99
762.079	34.21
762.258	34.93
762.437	35.23
762.615	35.46
762.794	34.87
762.972	35.3
763.151	35.5
763.33	34.49
763.508	34.66
763.687	34.94
763.865	34.73
764.044	35.03
764.222	35.4
764.401	34.97
764.579	34.52
764.758	34.73
764.936	34.17
765.114	34.57
765.293	35.71
765.471	35.7
765.65	35.18
765.828	34.92
766.006	34.33
766.184	34
766.363	34.53
766.541	34.58
766.719	34.75
766.898	35.71
767.076	34.26
767.254	33.73
767.432	32.93
767.61	33.45
767.788	34.44
767.967	35.35
768.145	37.08
768.323	37.54
768.501	38.19
768.679	37.5
768.857	36.7
769.035	37.09
769.213	37.19
769.391	38.22
769.569	37.73
769.747	38.67
769.925	38.57
770.103	37.18
770.281	37.01
770.459	37.58
770.636	38.52
770.814	40.04
770.992	40.82
771.17	41.56
771.348	40.94
771.525	41.77
771.703	40.21
771.881	40.49
772.059	40.39
772.236	38.92
772.414	37.63
772.592	38
772.769	37.29
772.947	38.55
773.125	37.75
773.302	37.56
773.48	37.66
773.657	36.54
773.835	35.42
774.013	35.65
774.19	37.43
774.368	40.37
774.545	39.67
774.723	40.25
774.9	37.99
775.077	38.38
775.255	40.21
775.432	41.14
775.61	42
775.787	43.1
775.964	43.63
776.142	42.45
776.319	40.22
776.496	41.43
776.674	41.17
776.851	42.69
777.028	42.15
777.205	39.14
777.382	36.13
777.56	35.05
777.737	34.63
777.914	33.6
778.091	34.38
778.268	34.57
778.445	34.12
778.622	32.88
778.8	31.68
778.977	31.15
779.154	35.04
779.331	36.6
779.508	41.37
779.685	40.45
779.862	41.05
780.038	42.18
780.215	42.52
780.392	43.61
780.569	45.29
780.746	46
780.923	47.91
781.1	47.46
781.277	47.83
781.453	45.1
781.63	44.48
781.807	43.9
781.984	42.13
782.16	42.98
782.337	41.04
782.514	39.15
782.691	37.52
782.867	37.19
783.044	34.92
783.221	35.47
783.397	34.93
783.574	35.69
783.75	35.62
783.927	36.14
784.103	34.55
784.28	35.58
784.456	35.59
784.633	37.76
784.809	37.67
784.986	37.18
785.162	37.13
785.339	36.69
785.515	36.98
785.692	37.19
785.868	37.19
786.044	36.65
786.221	37.87
786.397	38.18
786.573	36.5
786.749	35.51
786.926	37.61
787.102	37.14
787.278	39.71
787.454	39.48
787.631	38.83
787.807	37.14
787.983	36.69
788.159	37.09
788.335	37.6
788.511	37.27
788.687	38.19
788.863	36.68
789.039	37.47
789.216	34.63
789.392	36.04
789.568	37.86
789.744	40.58
789.919	40.61
790.095	38.92
790.271	38.25
790.447	39.21
790.623	39.62
790.799	39.6
790.975	37.96
791.151	37.77
791.327	36.4
791.502	33.51
791.678	32.65
791.854	31.34
792.03	31.16
792.205	30.25
792.381	31.47
792.557	31.47
792.733	31.95
792.908	32.23
793.084	32.68
793.259	33.52
793.435	37.76
793.611	36.58
793.786	38.08
793.962	38.15
794.137	40.13
794.313	40.15
794.488	40.19
794.664	40.11
794.839	40.65
795.015	38.43
795.19	38.38
795.366	36.64
795.541	36.07
795.716	36.77
795.892	36.63
796.067	36.61
796.242	34.15
796.418	33.06
796.593	32.28
796.768	32.9
796.944	34.54
797.119	32.57
797.294	34.27
797.469	35.83
797.644	36.31
797.82	34.85
797.995	33.75
798.17	35.86
798.345	36.85
798.52	37.99
798.695	39.88
798.87	39.72
799.045	41.28
799.22	39.96
799.395	38.8
799.57	37.87
799.745	39.12
799.92	38.87
800.095	39.86
800.27	38.58
800.445	40.32
800.62	37.84
800.795	37.69
800.97	38.24
801.145	37.36
801.319	39.33
801.494	40.38
801.669	42.24
801.844	44.81
802.018	41.8
802.193	43.42
802.368	42.14
802.543	43.3
802.717	45.27
802.892	43.76
803.067	45.87
803.241	45.4
803.416	45.87
803.59	44.25
803.765	43.59
803.94	46.95
804.114	45.59
804.289	44.9
804.463	43.14
804.638	43.31
804.812	45.77
804.986	43.44
805.161	41.17
805.335	41.97
805.51	39.92
805.684	39.6
805.858	35.78
806.033	36.23
806.207	37.45
806.381	37.14
806.556	35.82
806.73	33.14
806.904	31.72
807.078	33.39
807.253	31.68
807.427	33.77
807.601	33.65
807.775	34.23
807.949	34.28
808.123	34.11
808.298	34.58
808.472	35.37
808.646	38.34
808.82	41.06
808.994	40.87
809.168	42.47
809.342	46.37
809.516	46.36
809.69	49.13
809.864	45.64
810.038	45.85
810.212	45.03
810.385	42.96
810.559	42.31
810.733	45.42
810.907	46.26
811.081	46.61
811.255	43.3
811.428	44.44
811.602	44.05
811.776	46.68
811.95	47.4
812.123	47.98
812.297	48.69
812.471	49.2
812.644	44.98
812.818	44.25
812.992	42.86
813.165	40.99
813.339	39.05
813.512	38.49
813.686	39.78
813.86	39.93
814.033	42.18
814.207	44.08
814.38	38.24
814.554	38.89
814.727	42.34
814.9	42.92
815.074	46.65
815.247	52.08
815.421	49.43
815.594	49.01
815.767	45.39
815.941	44.65
816.114	45.66
816.287	48.65
816.46	50.47
816.634	49.6
816.807	50.55
816.98	48.45
817.153	43.12
817.327	43.13
817.5	45.52
817.673	49.83
817.846	50.67
818.019	48.77
818.192	48.51
818.365	45.02
818.538	42.72
818.711	39.14
818.884	37.93
819.057	39.2
819.23	41.35
819.403	39.32
819.576	37.74
819.749	36.8
819.922	38.1
820.095	38.72
820.268	37.74
820.441	37.19
820.614	38.22
820.786	37.18
820.959	37.35
821.132	36.78
821.305	34.73
821.477	34.11
821.65	34.05
821.823	33.88
821.996	32.41
822.168	32.94
822.341	32.31
822.514	32.07
822.686	32.25
822.859	32.03
823.031	31.34
823.204	31.86
823.376	31.31
823.549	30.62
823.722	30.24
823.894	31.36
824.067	31.61
824.239	32.14
824.411	31.93
824.584	32.17
824.756	30.99
824.929	30.93
825.101	30.33
825.273	31.68
825.446	32.62
825.618	32.09
825.79	31.23
825.963	30.96
826.135	30.75
826.307	31.64
826.479	31.86
826.652	33.2
826.824	34.05
826.996	35.11
827.168	33.69
827.34	33.75
827.512	34.61
827.684	36.28
827.856	36.13
828.029	36.65
828.201	36.14
828.373	35.94
828.545	35.64
828.717	35.1
828.889	34.56
829.061	36.8
829.232	34.84
829.404	36.22
829.576	34.5
829.748	34.16
829.92	34.91
830.092	34.72
830.264	35.46
830.436	35.43
830.607	36.72
830.779	38.07
830.951	35.73
831.123	36.46
831.294	35.36
831.466	37.32
831.638	37.9
831.809	36.13
831.981	37.12
832.153	35.87
832.324	36.83
832.496	35.58
832.667	37.17
832.839	36.39
833.011	39.25
833.182	39.28
833.354	35.63
833.525	37.21
833.697	36.82
833.868	35.09
834.039	36.11
834.211	36.34
834.382	38.91
834.554	38.18
834.725	38.57
834.896	39.21
835.068	38.93
835.239	42.31
835.41	41.03
835.581	44.57
835.753	46.62
835.924	45.93
836.095	44.93
836.266	43.12
836.438	44.35
836.609	46.94
836.78	47.16
836.951	46.56
837.122	46.48
837.293	49.25
837.464	47.35
837.635	48.92
837.806	51.25
837.977	55.17
838.148	59.35
838.319	60.66
838.49	58.77
838.661	56.38
838.832	58.73
839.003	61.18
839.174	58.13
839.345	56.64
839.516	54.89
839.687	57.74
839.857	57.45
840.028	53.26
840.199	49.23
840.37	51.48
840.54	58.26
840.711	55.03
840.882	48.73
841.053	53.29
841.223	52.65
841.394	52.54
841.564	50.76
841.735	45
841.906	46.33
842.076	48.96
842.247	49.95
842.417	45.75
842.588	49.8
842.758	53.1
842.929	45.76
843.099	48.68
843.27	49.08
843.44	47.88
843.611	51.82
843.781	53.33
843.951	50.94
844.122	49.24
844.292	50.02
844.462	53.03
844.633	51.41
844.803	55.54
844.973	51.12
845.144	53.99
845.314	59.33
845.484	62.77
845.654	59.23
845.824	65.53
845.995	64.66
846.165	61.18
846.335	56.71
846.505	58.62
846.675	55.88
846.845	57.15
847.015	52.91
847.185	44.96
847.355	51.39
847.525	44.3
847.695	37.59
847.865	40.01
848.035	42.83
848.205	43.3
848.375	44.89
848.545	48.4
848.715	55.07
848.884	52.56
849.054	52.26
849.224	44.69
849.394	49.68
849.564	48.13
849.733	47.6
849.903	51.97
850.073	53.95
850.243	52.46
850.412	58.89
850.582	60.92
850.752	74.9
850.921	72.4
851.091	68.22
851.26	73.35
851.43	68.92
851.599	73.14
851.769	69.76
851.939	67.29
852.108	65.89
852.278	51.73
852.447	52.82
852.616	49.74
852.786	45.95
852.955	56.34
853.125	58.95
853.294	82.28
853.463	73.22
853.633	73.49
853.802	77.87
853.971	76.5
854.141	85.18
854.31	78.98
854.479	69.68
854.648	76.09
854.818	66.34
854.987	57.85
855.156	51.73
855.325	53.67
855.494	50.07
855.663	47.26
855.832	47.61
856.001	55.52
856.171	52.41
856.34	52.38
856.509	50.35
856.678	51.03
856.847	55.65
857.016	51.59
857.185	46.93
857.353	48.08
857.522	53.1
857.691	57.05
857.86	60.25
858.029	60.27
858.198	59.53
858.367	55.19
858.535	57.37
858.704	52.12
858.873	49.38
859.042	46.89
859.21	47.08
859.379	55.73
859.548	48.38
859.717	41.79
859.885	42.64
860.054	52.85
860.222	56.82
860.391	56.88
860.56	63.7
860.728	63.97
860.897	65.7
861.065	68.53
861.234	60.05
861.402	63.74
861.571	57.08
861.739	51.31
861.908	47.72
862.076	43
862.244	38.82
862.413	36.8
862.581	42.01
862.749	36.67
862.918	25.88
863.086	21.55
863.254	24.7
863.423	38.7
863.591	44.43
863.759	42.74
863.927	33.4
864.096	41.79
864.264	43.97
864.432	39.79
864.6	43.58
864.768	51.44
864.936	54.28
865.104	56.87
865.272	58.95
865.44	63.53
865.608	63.25
865.776	72.4
865.944	72.81
866.112	71.11
866.28	75.27
866.448	85.85
866.616	91.66
866.784	86.65
866.952	81.86
867.12	75.66
867.288	65.72
867.455	61.5
867.623	64.11
867.791	61.38
867.959	64.77
868.127	60.55
868.294	53.22
868.462	46.1
868.63	49.31
868.797	53.82
868.965	51.95
869.133	60.52
869.3	64.51
869.468	51.95
869.636	64.3
869.803	64.31
869.971	71.03
870.138	68.69
870.306	71.87
870.473	67.09
870.641	63.71
870.808	68.23
870.975	57.69
871.143	58.59
871.31	64.94
871.478	58.85
871.645	53.9
871.812	46.27
871.98	57.81
872.147	54.08
872.314	63.06
872.482	59.05
872.649	60.16
872.816	65.84
872.983	58.93
873.15	66.47
873.318	61.59
873.485	53.41
873.652	58.69
873.819	56
873.986	63.08
874.153	63.85
874.32	82.71
874.487	69.56
874.654	58.81
874.821	74.27
874.988	65.81
875.155	67.37
875.322	78.52
875.489	78.39
875.656	64.68
875.823	59.11
875.99	44.86
876.157	33.59
876.324	39.97
876.49	49.46
876.657	39.3
876.824	32.92
876.991	42.03
877.157	45.3
877.324	46.94
877.491	45.65
877.658	41.64
877.824	48.38
877.991	47.76
878.157	48.82
878.324	37.06
878.491	37.91
878.657	49.49
878.824	46.07
878.99	47.03
879.157	40.33
879.323	48.51
879.49	48.51
879.656	47.49
879.823	52.86
879.989	51.35
880.156	62.06
880.322	64.86
880.488	62.94
880.655	63.5
880.821	59.39
880.987	66.46
881.154	63.44
881.32	66.83
881.486	63.13
881.652	58.67
881.819	51.45
881.985	52.48
882.151	53.47
882.317	49.94
882.483	48.2
882.649	47.26
882.816	46.03
882.982	44.67
883.148	40.49
883.314	39.7
883.48	40.73
883.646	42.58
883.812	39.69
883.978	38.55
884.144	38.45
884.31	39.61
884.476	40.66
884.642	37.43
884.807	36.82
884.973	35.97
885.139	37.28
885.305	38.17
885.471	38.74
885.637	40.4
885.802	39.37
885.968	42.89
886.134	40.46
886.3	42.04
886.465	46.21
886.631	48.46
886.797	53.28
886.962	54.15
887.128	52.24
887.293	54.76
887.459	54.29
887.625	56.1
887.79	52.39
887.956	55.72
888.121	54.75
888.287	54.09
888.452	55.19
888.618	56.3
888.783	57.92
