Data from 2938023_Reflection_1.txt Node
Date: Sun Jul 12 15:22:04 EDT 2015
User: robert
Spectrometer: USB4E03001
Autoset integration time: false
Trigger mode: 4
Integration Time (sec): 1.000000E-1
Scans to average: 10
Electric dark correction enabled: true
Nonlinearity correction enabled: false
Boxcar width: 5
Stray light correction enabled: false
XAxis mode: Wavelengths
Stop averaging: false
Number of Pixels in Spectrum: 3648
>>>>>Begin Spectral Data<<<<<
177.566	14.74
177.785	206.25
178.005	-310.64
178.225	32.54
178.445	60.38
178.665	-116.88
178.885	-49.01
179.105	-577.42
179.324	-632.09
179.544	35.72
179.764	9.91
179.984	-38.68
180.204	-78.73
180.423	-93.06
180.643	-72.69
180.863	-3.6
181.083	-51.63
181.302	-493.79
181.522	-298.65
181.742	-215.58
181.961	-557.94
182.181	-43.32
182.401	14.86
182.621	-30.89
182.84	-30.15
183.06	12.4
183.279	61.15
183.499	-5.16
183.719	27.42
183.938	82.43
184.158	38.97
184.377	47.56
184.597	55.78
184.816	40.03
185.036	26.98
185.256	11.86
185.475	-74.95
185.695	-117.97
185.914	-98.19
186.134	-89.67
186.353	-49.6
186.572	-47.86
186.792	-47.64
187.011	-139.06
187.231	-3141.13
187.45	-445.9
187.67	-89.64
187.889	40.32
188.108	61.7
188.328	106.89
188.547	157.3
188.766	39.03
188.986	-116.34
189.205	589.46
189.424	1680.53
189.644	5465.67
189.863	2637.63
190.082	138.59
190.302	281.93
190.521	-2907.77
190.74	-214.17
190.959	-187.28
191.178	-247.77
191.398	-66.21
191.617	-26.04
191.836	-8.19
192.055	2.91
192.274	-5.82
192.494	16.23
192.713	25.83
192.932	26.92
193.151	21.48
193.37	49.92
193.589	38.31
193.808	67.33
194.027	89.37
194.246	221.14
194.465	555.67
194.685	-400.93
194.904	-72.73
195.123	-40.03
195.342	-52.64
195.561	-30.43
195.78	71.14
195.999	77.55
196.218	146.4
196.436	192.65
196.655	1175.46
196.874	1083.42
197.093	4398.15
197.312	-342.03
197.531	2055.3
197.75	-96.29
197.969	-108.3
198.188	20.99
198.407	70.07
198.625	78.23
198.844	63.31
199.063	67.89
199.282	63.1
199.501	45.23
199.719	68.93
199.938	65.38
200.157	41.32
200.376	44.32
200.594	51.07
200.813	59.69
201.032	67.22
201.251	132.22
201.469	88.43
201.688	82.78
201.907	48.7
202.125	-96.46
202.344	248.5
202.563	5.26
202.781	-133.76
203	27.62
203.218	88.22
203.437	93.83
203.656	320.68
203.874	-49.05
204.093	27.08
204.311	41.9
204.53	54.86
204.748	80.62
204.967	69.97
205.185	66.38
205.404	68.72
205.622	68.38
205.841	60.8
206.059	67.24
206.278	95.02
206.496	153.26
206.715	112.78
206.933	76.93
207.151	63.96
207.37	43.04
207.588	33.66
207.806	9.5
208.025	-17.05
208.243	-21.6
208.461	-33.76
208.68	-128.21
208.898	-57.83
209.116	-32.66
209.335	7.47
209.553	-8.77
209.771	16.48
209.989	-14.56
210.208	-25.07
210.426	-19.45
210.644	-0.34
210.862	6.87
211.081	19.05
211.299	19.25
211.517	-35.42
211.735	-84.01
211.953	-133.72
212.171	-92.92
212.39	-23.01
212.608	11.83
212.826	11.83
213.044	-36.62
213.262	-183.75
213.48	2340.61
213.698	-540.75
213.916	-87.21
214.134	-136.2
214.352	-241.38
214.57	-279.95
214.788	-234.6
215.006	-188.39
215.224	-611.87
215.442	-436.61
215.66	-146.31
215.878	-200
216.096	-294.95
216.314	-429.19
216.532	-118.75
216.75	-115.6
216.968	-149.94
217.185	-413.77
217.403	-123.05
217.621	-51.52
217.839	-65.12
218.057	-48.95
218.275	-10.62
218.492	19.49
218.71	3.9
218.928	0.75
219.146	13.73
219.363	1.21
219.581	26.69
219.799	33.86
220.017	27.22
220.234	42.43
220.452	42.55
220.67	45.78
220.887	23.35
221.105	14.12
221.323	6.24
221.54	-7.29
221.758	9.87
221.976	13.32
222.193	-9.69
222.411	-27.54
222.629	-40.35
222.846	-40.4
223.064	-16.86
223.281	-21.09
223.499	-5.26
223.716	-19.99
223.934	-43.41
224.151	-49.12
224.369	-35.37
224.586	-37.54
224.804	-4.22
225.021	-9.63
225.239	-13.08
225.456	-27.69
225.674	-21.05
225.891	-18.74
226.108	-19.9
226.326	-9.15
226.543	-2.82
226.76	-10.89
226.978	11.43
227.195	10.72
227.413	11.57
227.63	19.69
227.847	20.04
228.064	13.5
228.282	13.04
228.499	17.68
228.716	16.68
228.934	16.86
229.151	19.76
229.368	19.46
229.585	17.95
229.802	18.7
230.02	14.64
230.237	14.71
230.454	17.19
230.671	21
230.888	16.89
231.105	24.37
231.323	24.68
231.54	23.33
231.757	21.82
231.974	22.53
232.191	22.46
232.408	20.8
232.625	19.5
232.842	12.11
233.059	1.27
233.276	7.86
233.493	-0.35
233.71	-2.7
233.927	-6.18
234.144	-5.14
234.361	-2.14
234.578	-1.18
234.795	3.31
235.012	4
235.229	10.1
235.446	17.5
235.663	16.2
235.879	12.56
236.096	9.72
236.313	15.25
236.53	19.14
236.747	18.02
236.964	18.31
237.181	18.68
237.397	19.44
237.614	18.36
237.831	10.16
238.048	6.71
238.264	10.55
238.481	11.87
238.698	5
238.915	4.86
239.131	1.54
239.348	3.32
239.565	2.12
239.781	11.34
239.998	13.23
240.215	21.35
240.431	21.95
240.648	22.87
240.865	23.59
241.081	28.16
241.298	23.4
241.514	24.63
241.731	22.17
241.947	24.7
242.164	23.42
242.38	21.91
242.597	19.78
242.814	20.49
243.03	19
243.246	18.92
243.463	16.15
243.679	17.02
243.896	17.15
244.112	16.87
244.329	14.73
244.545	11.86
244.762	11.59
244.978	11.18
245.194	10.28
245.411	11.81
245.627	11.69
245.843	13.49
246.06	15.95
246.276	15.43
246.492	18.92
246.709	17.96
246.925	16.65
247.141	17.22
247.357	16.08
247.574	15.66
247.79	15.06
248.006	15.71
248.222	15.82
248.439	14.03
248.655	13.75
248.871	10.93
249.087	11.96
249.303	13.93
249.519	12.43
249.736	14.67
249.952	13.93
250.168	12.94
250.384	12.63
250.6	11.14
250.816	14.8
251.032	14.32
251.248	12.67
251.464	14.23
251.68	14.79
251.896	12.57
252.112	11.88
252.328	16.3
252.544	17.52
252.76	13.98
252.976	12.96
253.192	10.3
253.408	11.91
253.624	15.14
253.84	14.03
254.056	12.06
254.272	14.8
254.487	12.49
254.703	6.02
254.919	4.75
255.135	9.09
255.351	9.46
255.567	10.47
255.782	3.28
255.998	2.47
256.214	-0.14
256.43	0.37
256.646	0.63
256.861	1.81
257.077	1.21
257.293	2.61
257.508	1.56
257.724	3.27
257.94	4.96
258.155	8.02
258.371	8.67
258.587	10.04
258.802	9.18
259.018	9.33
259.234	10.93
259.449	10.53
259.665	10.22
259.88	11.06
260.096	10.87
260.312	11.63
260.527	11.26
260.743	11.88
260.958	11.08
261.174	12.12
261.389	11.19
261.605	10.53
261.82	11.5
262.036	11.77
262.251	11.89
262.466	12.46
262.682	9.59
262.897	10.24
263.113	9.26
263.328	10.73
263.543	11.49
263.759	11.85
263.974	11.48
264.189	11.01
264.405	9.66
264.62	7.46
264.835	7.04
265.051	8.47
265.266	10.5
265.481	10.06
265.696	11.44
265.912	12.05
266.127	14.9
266.342	15.76
266.557	14.92
266.773	16.77
266.988	17.24
267.203	16.67
267.418	15
267.633	14.92
267.848	14.85
268.064	15.28
268.279	13
268.494	11.04
268.709	9.79
268.924	11.21
269.139	11.72
269.354	12.47
269.569	12.06
269.784	13.19
269.999	10.35
270.214	11.09
270.429	9.42
270.644	11.34
270.859	12.78
271.074	13.77
271.289	13.37
271.504	13.21
271.719	12.02
271.934	13.48
272.149	13.09
272.363	13.02
272.578	12.84
272.793	13.14
273.008	11.04
273.223	9.77
273.438	9.63
273.653	10.39
273.867	6.78
274.082	7.93
274.297	6.85
274.512	8.89
274.726	9.35
274.941	8.4
275.156	9.03
275.371	7.23
275.585	8.18
275.8	7.81
276.015	7.39
276.229	8.18
276.444	6.42
276.659	5.8
276.873	5.98
277.088	7.53
277.302	7.84
277.517	7.86
277.732	12.07
277.946	10.86
278.161	9.18
278.375	10.82
278.59	14.34
278.804	15.79
279.019	16.71
279.233	15.34
279.448	13.25
279.662	12.14
279.877	11.14
280.091	10.53
280.306	11.17
280.52	12.49
280.735	9.62
280.949	8.48
281.163	8.13
281.378	7.32
281.592	6.25
281.806	7.47
282.021	8.13
282.235	8.36
282.449	8.05
282.664	8.82
282.878	10.32
283.092	10.96
283.307	10.68
283.521	9.9
283.735	10.07
283.949	12.08
284.164	12.56
284.378	12.22
284.592	11.78
284.806	12.06
285.02	10.72
285.234	9.11
285.449	9.7
285.663	10.59
285.877	12.34
286.091	14.43
286.305	13.33
286.519	14.33
286.733	14.92
286.947	14.44
287.161	13.83
287.375	14.34
287.589	13.8
287.803	13.42
288.017	13.17
288.231	11.36
288.445	10.51
288.659	10.89
288.873	10.77
289.087	11.2
289.301	12.06
289.515	12.72
289.729	14
289.943	15.73
290.157	16.64
290.371	16.91
290.584	18.67
290.798	17.63
291.012	17.27
291.226	16.42
291.44	16.34
291.654	15.95
291.867	16.91
292.081	14.26
292.295	12.49
292.509	13.02
292.722	12.95
292.936	12.98
293.15	12.98
293.364	13.81
293.577	14.61
293.791	14.25
294.005	14.93
294.218	10.53
294.432	13.12
294.645	15.21
294.859	16.31
295.073	16.35
295.286	16.12
295.5	16.46
295.713	17.67
295.927	17.14
296.14	17.53
296.354	16.08
296.568	18.85
296.781	18.97
296.994	19.06
297.208	17.45
297.421	16.91
297.635	16.49
297.848	16.16
298.062	15.15
298.275	14.77
298.489	13.68
298.702	15.03
298.915	13.72
299.129	14.22
299.342	12.49
299.555	12.58
299.769	12.76
299.982	11.72
300.195	13.56
300.409	12.96
300.622	12.49
300.835	13.72
301.048	13.31
301.262	14.06
301.475	14.91
301.688	17.2
301.901	16.69
302.115	18.51
302.328	19.27
302.541	17.76
302.754	17.56
302.967	19.11
303.18	19.37
303.393	19.1
303.607	18.56
303.82	16.78
304.033	15.61
304.246	15.78
304.459	13.03
304.672	12.72
304.885	11.59
305.098	12.68
305.311	13.65
305.524	13.27
305.737	13.88
305.95	13.84
306.163	13.32
306.376	13.46
306.589	12.58
306.802	12.28
307.015	12.96
307.228	13.59
307.44	11.71
307.653	9.34
307.866	7.11
308.079	5.89
308.292	7.58
308.505	9.08
308.718	10.29
308.93	11.06
309.143	11.23
309.356	10.76
309.569	10.68
309.781	11.49
309.994	11.51
310.207	12.23
310.42	12.76
310.632	12.79
310.845	11.24
311.058	10.63
311.27	12.05
311.483	11.52
311.696	10.94
311.908	11.14
312.121	12.05
312.333	13.37
312.546	14.57
312.759	14.66
312.971	12.45
313.184	13.25
313.396	12.99
313.609	11.54
313.821	14.32
314.034	14.27
314.246	15.28
314.459	12.83
314.671	13.76
314.884	12.48
315.096	11.06
315.309	14.8
315.521	16.4
315.733	16.33
315.946	17.04
316.158	16.52
316.371	17.17
316.583	17.08
316.795	18.62
317.008	16.61
317.22	16.5
317.432	16.29
317.644	14.41
317.857	14.38
318.069	13.11
318.281	13.59
318.494	11.1
318.706	12.52
318.918	11.63
319.13	13.04
319.342	11.45
319.555	12.31
319.767	14.05
319.979	14.39
320.191	13.9
320.403	13.55
320.615	12.11
320.827	12.66
321.039	11.86
321.252	9.96
321.464	8.23
321.676	9.28
321.888	9.1
322.1	7.12
322.312	6.38
322.524	5.75
322.736	6.31
322.948	4.96
323.16	7.24
323.372	9.98
323.584	10.06
323.796	10.87
324.007	12.02
324.219	12.65
324.431	14.97
324.643	14.12
324.855	13.65
325.067	12.7
325.279	12.67
325.491	11.75
325.702	11.08
325.914	12.35
326.126	12.09
326.338	12.02
326.55	11.4
326.761	9.71
326.973	11.16
327.185	11.2
327.396	12.9
327.608	15.17
327.82	15.48
328.032	13.2
328.243	13.35
328.455	12.09
328.666	12.87
328.878	13.6
329.09	14.74
329.301	14.6
329.513	14.42
329.725	12.63
329.936	12.61
330.148	12.71
330.359	13.38
330.571	14.18
330.782	14.71
330.994	13.16
331.205	11.24
331.417	10.31
331.628	7.62
331.84	6.8
332.051	9.43
332.262	7.89
332.474	7.07
332.685	6.76
332.897	3.56
333.108	4.01
333.319	3.56
333.531	4.35
333.742	5.18
333.953	7.84
334.165	8.58
334.376	8.13
334.587	7.39
334.799	7.56
335.01	8.27
335.221	9.92
335.432	9.97
335.644	10.09
335.855	10.15
336.066	10.05
336.277	9.23
336.488	9.07
336.7	9.8
336.911	12.47
337.122	13.4
337.333	13.33
337.544	13.77
337.755	15.12
337.966	15.68
338.177	14.81
338.388	15.06
338.599	16.74
338.811	17.83
339.022	17.01
339.233	16.13
339.444	16.13
339.655	17.53
339.866	16.38
340.076	14.69
340.287	13.45
340.498	14.08
340.709	14.68
340.92	14.12
341.131	13.56
341.342	12.75
341.553	12.81
341.764	11.51
341.975	10.19
342.185	11.45
342.396	12.46
342.607	13.21
342.818	13.78
343.029	13.62
343.239	14.65
343.45	15.13
343.661	14.93
343.872	13.5
344.082	14.58
344.293	13.62
344.504	12.9
344.714	12.35
344.925	11.55
345.136	10.06
345.346	9.03
345.557	7.73
345.768	5.34
345.978	5.69
346.189	5.25
346.399	4.17
346.61	6.59
346.821	7.25
347.031	7.39
347.242	6.73
347.452	8.28
347.663	8.71
347.873	8.47
348.084	10.26
348.294	10.97
348.504	11.61
348.715	13.54
348.925	12.94
349.136	14.12
349.346	14.01
349.557	15.82
349.767	15.86
349.977	16.39
350.188	17.85
350.398	17.91
350.608	17.92
350.819	19.66
351.029	17.12
351.239	16.2
351.449	14.42
351.66	14.74
351.87	13.34
352.08	12.44
352.29	12.65
352.501	11.53
352.711	11.39
352.921	11.55
353.131	10.01
353.341	11.15
353.552	11.59
353.762	12.16
353.972	11.26
354.182	10.8
354.392	11.15
354.602	10.43
354.812	10.27
355.022	9.64
355.232	10.03
355.442	9.72
355.652	10.42
355.862	10.11
356.072	9.85
356.282	10.42
356.492	11.39
356.702	11.9
356.912	12.74
357.122	12.65
357.332	12.37
357.542	11.16
357.752	11.03
357.962	10.59
358.171	9.94
358.381	10.24
358.591	10.15
358.801	10.6
359.011	10.54
359.221	10.46
359.43	9.83
359.64	10.99
359.85	11.8
360.06	12.79
360.269	13.33
360.479	13.2
360.689	13.28
360.899	12.51
361.108	11.47
361.318	11.17
361.528	10.24
361.737	10.58
361.947	10.84
362.156	10.24
362.366	10.24
362.576	9.34
362.785	9.7
362.995	9.05
363.204	8.46
363.414	9.58
363.623	9.6
363.833	10.32
364.042	10.15
364.252	9.01
364.461	9.63
364.671	8.76
364.88	9.3
365.09	9.41
365.299	9.73
365.509	11.33
365.718	10.48
365.927	10.06
366.137	9.21
366.346	9.99
366.555	10.4
366.765	10.2
366.974	10.28
367.183	10.14
367.393	9.67
367.602	8.93
367.811	8.45
368.021	8.26
368.23	8.93
368.439	8.99
368.648	9.18
368.857	9.24
369.067	8.51
369.276	8.28
369.485	7.17
369.694	6.63
369.903	7.74
370.112	8.7
370.321	8.73
370.531	7.81
370.74	6.86
370.949	5.71
371.158	5.06
371.367	5.01
371.576	4.38
371.785	5.39
371.994	6.11
372.203	5.81
372.412	5.22
372.621	6.33
372.83	6.13
373.039	7.09
373.248	6.89
373.457	7.02
373.666	7.53
373.874	8.4
374.083	7.66
374.292	7.97
374.501	7.14
374.71	6.6
374.919	5.95
375.128	6.45
375.336	6.3
375.545	6.66
375.754	6.9
375.963	7.32
376.171	7.04
376.38	7.41
376.589	6.39
376.798	7.53
377.006	7.92
377.215	8.31
377.424	8.56
377.632	8.94
377.841	9.05
378.05	8.96
378.258	8.61
378.467	8.58
378.675	8.43
378.884	9.38
379.093	8.57
379.301	9.04
379.51	8.49
379.718	8.26
379.927	7.3
380.135	7.6
380.344	8.29
380.552	7.47
380.761	7.66
380.969	7.99
381.177	7.6
381.386	8.11
381.594	7.13
381.803	7.84
382.011	8.08
382.219	8.22
382.428	7.93
382.636	7
382.845	7.25
383.053	7.02
383.261	7.08
383.469	7.02
383.678	6.46
383.886	6.8
384.094	6.53
384.302	5.82
384.511	6.49
384.719	6.77
384.927	6.89
385.135	7.35
385.343	7.62
385.552	7.31
385.76	7.5
385.968	7.59
386.176	7.93
386.384	7.2
386.592	7.47
386.8	7.13
387.008	6.74
387.216	7.38
387.424	7.13
387.633	7.06
387.841	6.87
388.049	6.56
388.257	6.9
388.465	6.57
388.672	7.06
388.88	7.22
389.088	6.88
389.296	7.09
389.504	7.41
389.712	7.68
389.92	7.65
390.128	7.5
390.336	7.54
390.544	6.74
390.751	6.82
390.959	6.3
391.167	6.23
391.375	6.24
391.583	6.01
391.79	5.17
391.998	4.83
392.206	4.59
392.414	4.68
392.621	4.71
392.829	4.76
393.037	4.55
393.244	4.49
393.452	4.33
393.66	4.26
393.867	4.41
394.075	4.69
394.283	4.96
394.49	5.02
394.698	4.98
394.905	5.09
395.113	5.3
395.32	5.24
395.528	5.78
395.735	5.62
395.943	5.87
396.15	5.92
396.358	5.87
396.565	5.52
396.773	5.44
396.98	5.22
397.188	4.91
397.395	5
397.602	4.74
397.81	4.2
398.017	4.49
398.225	4.62
398.432	4.12
398.639	3.86
398.847	4.37
399.054	4.79
399.261	5.06
399.468	5.26
399.676	5.17
399.883	5.69
400.09	6.33
400.297	6.25
400.505	5.89
400.712	5.74
400.919	6
401.126	5.66
401.333	5.38
401.54	5
401.748	4.41
401.955	4.19
402.162	4.08
402.369	3.58
402.576	3.62
402.783	3.73
402.99	4.13
403.197	3.93
403.404	3.86
403.611	3.53
403.818	3.99
404.025	4.26
404.232	4.64
404.439	4.73
404.646	4.39
404.853	4.02
405.06	4.2
405.267	4.1
405.474	3.82
405.681	3.55
405.887	4
406.094	3.97
406.301	3.98
406.508	3.99
406.715	3.93
406.922	4.35
407.128	4.44
407.335	4.49
407.542	4.44
407.749	4.82
407.955	4.9
408.162	4.38
408.369	4.28
408.575	4.33
408.782	3.7
408.989	3.25
409.195	3.56
409.402	3.51
409.609	2.93
409.815	3.04
410.022	2.8
410.228	3.17
410.435	3.5
410.642	3.46
410.848	3.51
411.055	4.3
411.261	4.36
411.468	3.71
411.674	3.8
411.881	3.7
412.087	3.45
412.294	3.78
412.5	3.62
412.706	3.44
412.913	3.59
413.119	3.54
413.326	2.92
413.532	2.75
413.738	3.48
413.945	3.75
414.151	4.15
414.357	4.34
414.564	4.1
414.77	4.13
414.976	3.77
415.182	3.57
415.389	3.33
415.595	3.64
415.801	3.69
416.007	3.48
416.214	3.13
416.42	3.33
416.626	3.25
416.832	3.31
417.038	3.51
417.244	3.65
417.45	3.73
417.657	3.71
417.863	3.54
418.069	3.78
418.275	3.53
418.481	3.58
418.687	3.45
418.893	3.59
419.099	3.57
419.305	3.44
419.511	3.32
419.717	3.19
419.923	3.22
420.129	3.28
420.335	3.1
420.541	3.28
420.746	3.32
420.952	3.5
421.158	3.4
421.364	3.33
421.57	3.3
421.776	3.35
421.982	3.42
422.187	3.42
422.393	3.34
422.599	3.45
422.805	3.32
423.01	3.41
423.216	3.51
423.422	3.37
423.628	3.34
423.833	3.31
424.039	3.31
424.245	3.31
424.45	3.36
424.656	3.49
424.862	3.36
425.067	3.37
425.273	3.36
425.478	3.09
425.684	3.43
425.889	3.48
426.095	3.49
426.301	3.59
426.506	3.69
426.712	3.7
426.917	3.48
427.123	3.71
427.328	3.73
427.533	3.89
427.739	3.79
427.944	3.58
428.15	3.57
428.355	3.54
428.561	3.46
428.766	3.39
428.971	3.2
429.177	3.55
429.382	3.51
429.587	3.43
429.793	2.96
429.998	2.87
430.203	2.81
430.408	2.74
430.614	2.74
430.819	3.04
431.024	3.04
431.229	3.19
431.434	2.84
431.64	2.96
431.845	3.18
432.05	3.09
432.255	3.15
432.46	3.11
432.665	3.32
432.87	3.21
433.076	2.91
433.281	2.77
433.486	2.91
433.691	3.13
433.896	2.86
434.101	2.76
434.306	3.01
434.511	2.97
434.716	2.84
434.921	2.72
435.126	2.79
435.331	3.01
435.535	3.09
435.74	3.01
435.945	2.64
436.15	2.68
436.355	2.83
436.56	2.88
436.765	2.94
436.97	3.23
437.174	3.26
437.379	3.37
437.584	3.4
437.789	3.46
437.993	3.33
438.198	3.71
438.403	3.66
438.608	3.65
438.812	3.63
439.017	3.68
439.222	3.71
439.426	3.67
439.631	3.46
439.836	3.31
440.04	3.19
440.245	3.28
440.45	3.17
440.654	3.34
440.859	3.03
441.063	3.11
441.268	3.05
441.472	2.96
441.677	3.07
441.881	3.14
442.086	3.32
442.29	3.48
442.495	3.63
442.699	3.49
442.904	3.62
443.108	3.81
443.312	3.67
443.517	3.73
443.721	3.88
443.925	3.69
444.13	3.78
444.334	3.55
444.538	3.42
444.743	3.06
444.947	3.03
445.151	2.83
445.356	2.85
445.56	2.66
445.764	2.89
445.968	2.55
446.173	2.71
446.377	2.73
446.581	2.83
446.785	2.82
446.989	2.98
447.193	3.07
447.398	3.11
447.602	3
447.806	3.11
448.01	2.87
448.214	3.07
448.418	3.09
448.622	3
448.826	3.05
449.03	3.14
449.234	3.16
449.438	3.21
449.642	3.22
449.846	3.23
450.05	3.4
450.254	3.39
450.458	3.4
450.662	3.33
450.866	3.21
451.069	2.93
451.273	2.88
451.477	2.72
451.681	2.72
451.885	2.65
452.089	2.63
452.292	2.64
452.496	2.71
452.7	2.61
452.904	2.53
453.107	2.64
453.311	2.71
453.515	2.58
453.719	2.6
453.922	2.64
454.126	2.46
454.33	2.6
454.533	2.53
454.737	2.57
454.94	2.57
455.144	2.6
455.348	2.66
455.551	2.81
455.755	3.01
455.958	2.97
456.162	2.82
456.365	2.83
456.569	2.73
456.772	2.8
456.976	2.77
457.179	2.89
457.383	2.82
457.586	2.9
457.79	2.92
457.993	2.94
458.196	2.94
458.4	3.11
458.603	3.36
458.807	3.33
459.01	3.15
459.213	2.93
459.417	2.88
459.62	2.76
459.823	2.79
460.026	2.8
460.23	2.78
460.433	2.86
460.636	2.72
460.839	2.61
461.042	2.72
461.246	2.88
461.449	3.06
461.652	2.95
461.855	3.19
462.058	3.08
462.261	3.06
462.464	2.88
462.668	2.67
462.871	2.76
463.074	2.69
463.277	2.63
463.48	2.61
463.683	2.6
463.886	2.93
464.089	2.76
464.292	2.78
464.495	2.72
464.698	2.96
464.901	3.01
465.104	2.91
465.306	2.96
465.509	2.73
465.712	2.84
465.915	2.95
466.118	2.91
466.321	2.92
466.524	2.9
466.726	2.9
466.929	2.83
467.132	3.07
467.335	3.18
467.538	3.04
467.74	3.18
467.943	2.93
468.146	2.91
468.348	2.66
468.551	2.83
468.754	2.88
468.956	2.96
469.159	2.97
469.362	2.88
469.564	2.87
469.767	3.12
469.969	3.04
470.172	3.19
470.375	3.33
470.577	3.49
470.78	3.67
470.982	3.68
471.185	3.52
471.387	3.45
471.59	3.6
471.792	3.68
471.995	3.77
472.197	3.97
472.399	3.97
472.602	3.92
472.804	3.9
473.007	3.58
473.209	3.35
473.411	3.56
473.614	3.67
473.816	3.51
474.018	3.37
474.22	3.33
474.423	3.18
474.625	2.99
474.827	2.95
475.03	3.09
475.232	3.1
475.434	3.03
475.636	2.87
475.838	2.97
476.04	2.87
476.243	3.1
476.445	3.15
476.647	3.08
476.849	3.2
477.051	3.13
477.253	3.21
477.455	3.22
477.657	3.34
477.859	3.45
478.061	3.29
478.263	3.34
478.465	3.24
478.667	3.1
478.869	3.07
479.071	3.12
479.273	3.18
479.475	3.09
479.677	3.01
479.879	3.02
480.081	2.89
480.283	2.94
480.485	2.87
480.686	2.89
480.888	2.81
481.09	2.96
481.292	2.84
481.494	2.78
481.695	2.8
481.897	2.91
482.099	2.9
482.301	2.96
482.502	2.95
482.704	3.01
482.906	2.98
483.107	3.03
483.309	3.02
483.511	3.01
483.712	3.01
483.914	2.92
484.115	2.91
484.317	2.96
484.519	2.9
484.72	2.98
484.922	2.93
485.123	2.93
485.325	2.91
485.526	2.86
485.728	2.85
485.929	2.84
486.131	2.92
486.332	2.89
486.534	2.87
486.735	2.88
486.936	2.75
487.138	2.81
487.339	2.8
487.541	2.74
487.742	2.74
487.943	2.74
488.144	2.74
488.346	2.75
488.547	2.78
488.748	2.78
488.95	2.82
489.151	2.85
489.352	2.79
489.553	2.73
489.755	2.86
489.956	2.85
490.157	2.89
490.358	2.92
490.559	2.9
490.76	3
490.961	2.93
491.163	2.98
491.364	2.87
491.565	2.93
491.766	3.09
491.967	3.01
492.168	3.04
492.369	3.08
492.57	3.07
492.771	3.12
492.972	3.02
493.173	3.08
493.374	3.09
493.575	3.23
493.776	3.3
493.976	3.17
494.177	3.25
494.378	3.29
494.579	3.3
494.78	3.28
494.981	3.25
495.182	3.24
495.382	3.25
495.583	3.21
495.784	3.17
495.985	3.22
496.185	3.02
496.386	3.08
496.587	3.13
496.788	3.19
496.988	3.36
497.189	3.27
497.39	3.18
497.59	3.15
497.791	3.27
497.992	3.19
498.192	3.06
498.393	3.14
498.593	2.98
498.794	2.95
498.994	2.82
499.195	2.54
499.395	2.42
499.596	2.53
499.796	2.48
499.997	2.3
500.197	2.44
500.398	2.25
500.598	2.3
500.799	2.45
500.999	2.42
501.199	2.46
501.4	2.46
501.6	2.45
501.801	2.38
502.001	2.47
502.201	2.43
502.402	2.29
502.602	2.5
502.802	2.64
503.002	2.64
503.203	2.65
503.403	2.72
503.603	2.72
503.803	2.78
504.003	2.97
504.204	2.7
504.404	2.66
504.604	2.66
504.804	2.52
505.004	2.41
505.204	2.4
505.404	2.49
505.604	2.47
505.804	2.66
506.005	2.62
506.205	2.49
506.405	2.8
506.605	2.97
506.805	3.13
507.005	3.16
507.204	3.39
507.404	3.44
507.604	3.43
507.804	3.46
508.004	3.38
508.204	3.52
508.404	3.43
508.604	3.38
508.804	3.31
509.003	3.29
509.203	3.29
509.403	3.31
509.603	3.29
509.803	3.26
510.002	3.17
510.202	3.26
510.402	3.18
510.602	3.25
510.801	3.26
511.001	3.32
511.201	3.22
511.4	3.32
511.6	3.28
511.8	3.28
511.999	3.35
512.199	3.49
512.398	3.39
512.598	3.4
512.797	3.25
512.997	3.12
513.197	3.13
513.396	3.13
513.596	3.21
513.795	3.15
513.994	3.29
514.194	3.25
514.393	3.13
514.593	3.13
514.792	3.22
514.992	3.29
515.191	3.64
515.39	3.49
515.59	3.63
515.789	3.51
515.988	3.49
516.188	3.23
516.387	3.28
516.586	3.37
516.786	3.39
516.985	3.38
517.184	3.58
517.383	3.29
517.582	3.5
517.782	3.46
517.981	3.49
518.18	3.51
518.379	3.63
518.578	3.54
518.777	3.5
518.976	3.44
519.176	3.48
519.375	3.39
519.574	3.69
519.773	3.6
519.972	3.63
520.171	3.72
520.37	3.71
520.569	3.68
520.768	3.76
520.967	3.59
521.166	3.65
521.365	3.55
521.564	3.7
521.762	3.41
521.961	3.38
522.16	3.27
522.359	3.16
522.558	3.15
522.757	3.17
522.956	3.19
523.154	3.36
523.353	3.47
523.552	3.43
523.751	3.42
523.949	3.49
524.148	3.5
524.347	3.53
524.546	3.6
524.744	3.62
524.943	3.58
525.142	3.53
525.34	3.65
525.539	3.63
525.737	3.75
525.936	3.76
526.135	3.82
526.333	3.81
526.532	3.89
526.73	3.97
526.929	4.02
527.127	3.98
527.326	3.99
527.524	3.84
527.723	3.89
527.921	3.93
528.12	3.93
528.318	3.92
528.516	3.86
528.715	3.91
528.913	3.83
529.112	3.77
529.31	3.8
529.508	3.82
529.707	3.92
529.905	3.81
530.103	3.8
530.301	3.69
530.5	3.66
530.698	3.78
530.896	3.72
531.094	3.75
531.293	3.86
531.491	3.96
531.689	3.96
531.887	4.06
532.085	4.15
532.283	4.13
532.481	4.25
532.68	4.34
532.878	4.27
533.076	4.3
533.274	4.33
533.472	4.39
533.67	4.28
533.868	4.32
534.066	4.25
534.264	4.34
534.462	4.28
534.66	4.25
534.858	4.31
535.056	4.41
535.253	4.35
535.451	4.33
535.649	4.22
535.847	4.36
536.045	4.4
536.243	4.45
536.441	4.34
536.638	4.5
536.836	4.35
537.034	4.28
537.232	4.29
537.43	4.35
537.627	4.44
537.825	4.49
538.023	4.5
538.22	4.45
538.418	4.34
538.616	4.47
538.813	4.38
539.011	4.55
539.209	4.53
539.406	4.47
539.604	4.49
539.801	4.51
539.999	4.6
540.196	4.55
540.394	4.62
540.591	4.73
540.789	4.78
540.986	4.94
541.184	5.05
541.381	5.09
541.579	5.11
541.776	5.13
541.974	5.15
542.171	5.2
542.368	5.25
542.566	5.26
542.763	5.29
542.96	5.28
543.158	5.26
543.355	5.2
543.552	5.19
543.75	5.23
543.947	5.24
544.144	5.07
544.341	4.95
544.539	4.96
544.736	4.91
544.933	4.81
545.13	4.74
545.327	4.85
545.524	4.99
545.722	5.05
545.919	5.16
546.116	5.29
546.313	5.44
546.51	5.59
546.707	5.58
546.904	5.55
547.101	5.65
547.298	5.84
547.495	5.68
547.692	5.57
547.889	5.67
548.086	5.73
548.283	5.57
548.48	5.6
548.677	5.49
548.874	5.53
549.07	5.68
549.267	5.87
549.464	5.81
549.661	5.7
549.858	5.87
550.055	5.61
550.251	5.54
550.448	5.71
550.645	6.07
550.842	6.16
551.038	6.31
551.235	6.44
551.432	6.45
551.628	6.34
551.825	6.73
552.022	6.63
552.218	6.86
552.415	7
552.612	6.89
552.808	6.6
553.005	6.59
553.201	6.54
553.398	6.5
553.594	6.39
553.791	6.64
553.987	6.57
554.184	6.59
554.38	6.58
554.577	6.43
554.773	6.66
554.97	7
555.166	7.06
555.362	7.09
555.559	7.11
555.755	7.13
555.952	7.07
556.148	6.94
556.344	7.05
556.541	7.16
556.737	7.35
556.933	7.21
557.129	6.98
557.326	6.95
557.522	6.83
557.718	6.76
557.914	6.75
558.11	6.83
558.307	7.03
558.503	7.03
558.699	6.69
558.895	6.5
559.091	6.6
559.287	6.7
559.483	6.77
559.679	7.12
559.876	7.48
560.072	7.74
560.268	7.57
560.464	7.51
560.66	7.62
560.856	8.13
561.052	8.2
561.247	8.11
561.443	8.11
561.639	8.31
561.835	8.17
562.031	8.05
562.227	8.14
562.423	8.46
562.619	8.57
562.815	8.66
563.01	8.43
563.206	8.73
563.402	9.12
563.598	9.19
563.793	9.07
563.989	9.25
564.185	9.26
564.381	9.09
564.576	8.93
564.772	9.12
564.968	9.2
565.163	9.33
565.359	9.31
565.555	9.06
565.75	9.11
565.946	9.33
566.141	9.33
566.337	9.3
566.532	9.43
566.728	9.45
566.923	9.35
567.119	9.33
567.314	9.49
567.51	9.48
567.705	9.82
567.901	9.79
568.096	9.5
568.292	9.52
568.487	9.63
568.682	9.53
568.878	9.49
569.073	9.47
569.268	9.43
569.464	9.47
569.659	9.42
569.854	9.28
570.05	9.54
570.245	9.89
570.44	9.85
570.635	9.93
570.831	9.98
571.026	10.22
571.221	10.36
571.416	10.57
571.611	10.49
571.806	10.56
572.002	10.49
572.197	10.44
572.392	10.19
572.587	10.34
572.782	10.32
572.977	10.51
573.172	10.65
573.367	10.64
573.562	10.63
573.757	10.63
573.952	10.83
574.147	10.92
574.342	10.96
574.537	11.29
574.732	11.4
574.927	11.53
575.121	11.48
575.316	11.39
575.511	11.37
575.706	11.56
575.901	11.71
576.096	11.64
576.29	11.58
576.485	11.69
576.68	11.7
576.875	11.61
577.069	11.64
577.264	11.56
577.459	11.68
577.654	11.97
577.848	11.7
578.043	11.59
578.238	11.54
578.432	11.56
578.627	11.53
578.821	11.49
579.016	11.55
579.21	11.5
579.405	11.72
579.6	11.31
579.794	10.95
579.989	10.95
580.183	11.01
580.378	11.03
580.572	11.1
580.766	11.15
580.961	11.02
581.155	10.84
581.35	11.14
581.544	11.07
581.738	11.23
581.933	11.6
582.127	12
582.321	12.15
582.516	12.17
582.71	12.48
582.904	12.45
583.099	12.66
583.293	13.04
583.487	12.56
583.681	12.52
583.875	12.57
584.07	12.31
584.264	12.04
584.458	12.1
584.652	11.94
584.846	11.6
585.04	11.72
585.234	11.67
585.428	11.56
585.623	11.85
585.817	12.15
586.011	12.51
586.205	12.36
586.399	12.25
586.593	12.21
586.787	12.46
586.981	12.69
587.174	12.53
587.368	12.27
587.562	12.37
587.756	12.35
587.95	12
588.144	11.86
588.338	12.29
588.532	12.41
588.725	12.01
588.919	12.31
589.113	12.25
589.307	12.28
589.501	12.68
589.694	12.4
589.888	12.37
590.082	12.49
590.275	12.71
590.469	12.75
590.663	12.8
590.856	12.93
591.05	12.67
591.244	12.66
591.437	12.62
591.631	12.52
591.824	12.69
592.018	12.78
592.212	13.01
592.405	12.8
592.599	12.71
592.792	12.88
592.986	13.03
593.179	12.95
593.372	13.04
593.566	13.7
593.759	13.68
593.953	13.67
594.146	13.62
594.339	13.42
594.533	13.49
594.726	13.52
594.92	13.03
595.113	13.23
595.306	13.41
595.499	13.52
595.693	13.21
595.886	13.27
596.079	13.49
596.272	13.36
596.466	13.51
596.659	13.36
596.852	13.32
597.045	13.57
597.238	13.34
597.431	13.34
597.624	13.32
597.818	13.31
598.011	13.2
598.204	13.03
598.397	13.42
598.59	13.25
598.783	13.52
598.976	13.29
599.169	13.34
599.362	13.46
599.555	13.43
599.748	13.37
599.941	13.31
600.134	13.26
600.326	13.21
600.519	13
600.712	13.27
600.905	13.12
601.098	13.38
601.291	13.4
601.483	13.47
601.676	13.38
601.869	13.49
602.062	13.63
602.255	13.77
602.447	13.7
602.64	13.7
602.833	13.78
603.025	13.77
603.218	14.01
603.411	14.05
603.603	13.97
603.796	14.11
603.989	14
604.181	13.9
604.374	13.92
604.566	14.12
604.759	14.29
604.951	14.3
605.144	14.31
605.336	14.24
605.529	14.12
605.721	14.37
605.914	14.3
606.106	14.05
606.299	14.07
606.491	14.01
606.683	13.79
606.876	13.58
607.068	13.17
607.26	13.11
607.453	13.22
607.645	13.57
607.837	13.37
608.03	13.29
608.222	13.5
608.414	13.73
608.606	13.73
608.799	13.53
608.991	13.59
609.183	13.73
609.375	13.89
609.567	13.65
609.759	13.48
609.952	13.41
610.144	13.48
610.336	13.72
610.528	13.7
610.72	13.83
610.912	14.04
611.104	14.1
611.296	14.34
611.488	14.24
611.68	14.42
611.872	14.3
612.064	14.57
612.256	14.73
612.448	14.48
612.64	14.24
612.832	14.27
613.023	14.42
613.215	14.16
613.407	14
613.599	14.18
613.791	13.77
613.983	13.8
614.174	13.81
614.366	13.64
614.558	13.86
614.75	13.68
614.941	13.32
615.133	13.38
615.325	13.24
615.516	13.25
615.708	13.23
615.9	13.56
616.091	13.77
616.283	13.66
616.475	13.65
616.666	13.65
616.858	13.82
617.049	14.2
617.241	14.07
617.432	14.42
617.624	14.55
617.815	14.44
618.007	14.15
618.198	14.03
618.39	13.98
618.581	14.22
618.773	14.5
618.964	14.52
619.155	14.66
619.347	14.75
619.538	14.86
619.729	14.8
619.921	14.76
620.112	15.21
620.303	15.29
620.494	15.38
620.686	15.27
620.877	14.81
621.068	14.46
621.259	14.47
621.451	14.69
621.642	14.8
621.833	14.82
622.024	14.7
622.215	14.22
622.406	13.99
622.597	14
622.788	13.58
622.98	13.81
623.171	14.13
623.362	13.6
623.553	13.37
623.744	13.13
623.935	13.26
624.126	13.64
624.317	13.93
624.508	13.94
624.698	13.77
624.889	14.28
625.08	14.62
625.271	14.39
625.462	14.75
625.653	14.86
625.844	14.93
626.034	14.95
626.225	14.61
626.416	14.67
626.607	14.96
626.798	15.01
626.988	14.82
627.179	14.49
627.37	14.79
627.56	14.8
627.751	14.69
627.942	14.71
628.132	14.5
628.323	14.67
628.514	14.42
628.704	14.42
628.895	14.37
629.085	14.27
629.276	14.37
629.466	14.5
629.657	14.31
629.847	14.28
630.038	13.97
630.228	13.96
630.419	14
630.609	14.49
630.8	14.42
630.99	14.6
631.181	14.82
631.371	14.97
631.561	14.74
631.752	14.75
631.942	14.99
632.132	15.01
632.323	15.2
632.513	14.98
632.703	14.81
632.893	14.9
633.084	14.73
633.274	14.62
633.464	14.29
633.654	14.09
633.844	14.18
634.034	13.89
634.225	13.93
634.415	13.74
634.605	13.67
634.795	13.69
634.985	13.53
635.175	13.51
635.365	13.94
635.555	13.92
635.745	14.36
635.935	14.36
636.125	14.79
636.315	14.93
636.505	15.07
636.695	15.45
636.885	15.49
637.075	15.76
637.265	16.1
637.455	15.27
637.644	15.4
637.834	15.06
638.024	15.29
638.214	14.93
638.404	15.1
638.593	15.03
638.783	15.04
638.973	15.06
639.163	15.18
639.352	15.02
639.542	15.43
639.732	15.18
639.921	15.27
640.111	15.45
640.301	15.66
640.49	15.51
640.68	15.6
640.87	15.52
641.059	15.07
641.249	15
641.438	14.92
641.628	14.81
641.817	14.81
642.007	14.82
642.196	14.26
642.386	14.14
642.575	14.46
642.764	14.2
642.954	13.7
643.143	14.21
643.333	13.74
643.522	13.61
643.711	14.01
643.901	14.35
644.09	14.16
644.279	14.61
644.469	14.98
644.658	14.69
644.847	14.73
645.036	15.39
645.226	15.15
645.415	15.15
645.604	15.23
645.793	15.41
645.982	15.93
646.171	15.92
646.361	16.05
646.55	16.01
646.739	15.92
646.928	16.33
647.117	15.9
647.306	16.19
647.495	16.73
647.684	16.62
647.873	16.53
648.062	16.23
648.251	16.38
648.44	16.01
648.629	15.95
648.818	16.17
649.007	15.84
649.196	16.09
649.384	15.65
649.573	15.83
649.762	15.95
649.951	15.96
650.14	15.98
650.328	16.11
650.517	16.25
650.706	16.26
650.895	16.04
651.083	16.36
651.272	16.31
651.461	16.48
651.65	16.32
651.838	16.4
652.027	16.4
652.216	15.97
652.404	16.01
652.593	16.09
652.781	15.63
652.97	15.78
653.158	15.65
653.347	16.09
653.535	15.83
653.724	15.43
653.912	15.95
654.101	15.88
654.289	16.29
654.478	16.45
654.666	16.33
654.855	16.73
655.043	17.07
655.231	17.19
655.42	17.05
655.608	17.78
655.796	17.94
655.985	17.47
656.173	17.58
656.361	17.34
656.55	17.37
656.738	17.31
656.926	17.16
657.114	16.4
657.302	16.07
657.491	16.23
657.679	15.72
657.867	15.73
658.055	15.72
658.243	15.83
658.431	15.92
658.619	15.77
658.807	16.22
658.996	16.28
659.184	17.09
659.372	17.5
659.56	17.28
659.748	17.39
659.936	17.17
660.124	17.14
660.311	17.14
660.499	17.26
660.687	17.47
660.875	17.2
661.063	17.41
661.251	17.02
661.439	16.62
661.627	16.43
661.814	16.37
662.002	16.43
662.19	16.7
662.378	16.52
662.565	16.71
662.753	16.62
662.941	16.58
663.129	16.79
663.316	16.74
663.504	16.58
663.692	16.92
663.879	16.92
664.067	17.02
664.254	16.85
664.442	16.57
664.63	16.33
664.817	16.18
665.005	16.04
665.192	15.39
665.38	15.33
665.567	15.58
665.755	15.32
665.942	15.35
666.13	15.45
666.317	15.73
666.504	16.04
666.692	16.06
666.879	16.21
667.067	16.28
667.254	16.4
667.441	16.63
667.629	16.6
667.816	16.51
668.003	16.71
668.19	16.84
668.378	16.39
668.565	16.19
668.752	16.18
668.939	16.12
669.127	16.06
669.314	16.29
669.501	15.43
669.688	15.58
669.875	16.23
670.062	15.76
670.249	15.29
670.436	15.44
670.623	15.19
670.81	15.46
670.997	15.78
671.184	16.16
671.371	15.91
671.558	16.7
671.745	17.06
671.932	16.57
672.119	17.22
672.306	17.38
672.493	16.94
672.68	17.69
672.867	17.56
673.054	17.11
673.24	17.05
673.427	17.3
673.614	17.54
673.801	17.19
673.988	17.35
674.174	17.37
674.361	17.51
674.548	18.41
674.734	18.32
674.921	18.01
675.108	17.97
675.294	17.26
675.481	16.96
675.668	16.65
675.854	16.75
676.041	17.37
676.227	17.5
676.414	17.7
676.601	17.58
676.787	17.43
676.974	17.8
677.16	18.14
677.347	18.07
677.533	18.42
677.719	18.42
677.906	18.28
678.092	18.19
678.279	18.04
678.465	17.75
678.651	17.9
678.838	18.09
679.024	17.88
679.21	18
679.397	18.34
679.583	18.52
679.769	18.29
679.955	18.42
680.142	17.68
680.328	17.8
680.514	17.77
680.7	17.13
680.886	16.93
681.073	17.1
681.259	16.6
681.445	16.33
681.631	16.18
681.817	16.06
682.003	15.85
682.189	16.41
682.375	16.24
682.561	16.33
682.747	16.27
682.933	16.74
683.119	16.84
683.305	17.41
683.491	18.04
683.677	17.85
683.863	18.28
684.049	18.44
684.235	18.28
684.42	18.22
684.606	17.98
684.792	18.44
684.978	17.59
685.164	17.66
685.349	16.95
685.535	16.96
685.721	16.84
685.907	16.76
686.092	16.88
686.278	16.89
686.464	17.03
686.649	17.77
686.835	17.85
687.021	18.64
687.206	18.49
687.392	18.84
687.577	18.37
687.763	18.79
687.948	19.15
688.134	19.02
688.319	18.66
688.505	18.35
688.69	18.37
688.876	18.16
689.061	17.79
689.247	17.77
689.432	17.98
689.618	18.57
689.803	18.45
689.988	18.37
690.174	18.04
690.359	17.66
690.544	18.27
690.73	18.31
690.915	18.12
691.1	17.72
691.285	17.43
691.471	17.33
691.656	17.34
691.841	17.3
692.026	17.02
692.211	17.33
692.396	18.44
692.582	18.03
692.767	17.38
692.952	18.46
693.137	19.17
693.322	19.38
693.507	19.38
693.692	18.9
693.877	19
694.062	19.19
694.247	19.38
694.432	19.55
694.617	19.49
694.802	19.62
694.987	18.99
695.172	18.37
695.357	17.91
695.541	17.73
695.726	17.34
695.911	17.96
696.096	18.12
696.281	18.8
696.466	18.38
696.65	18.5
696.835	18.97
697.02	19.14
697.204	19.59
697.389	20.01
697.574	20.5
697.759	21.6
697.943	20.93
698.128	20.92
698.312	20.25
698.497	20.33
698.682	20.6
698.866	20.01
699.051	19.84
699.235	19.64
699.42	19.69
699.604	19.38
699.789	19.02
699.973	19.19
700.158	19.2
700.342	19.6
700.527	19.86
700.711	19.39
700.895	19.89
701.08	20.16
701.264	20.04
701.448	19.39
701.633	19.25
701.817	19.02
702.001	19.86
702.186	19.97
702.37	20.16
702.554	19.51
702.738	19.57
702.923	19.59
703.107	19.82
703.291	19.72
703.475	20.74
703.659	20.88
703.843	21.21
704.027	20.2
704.212	19.24
704.396	18.48
704.58	18.81
704.764	18.65
704.948	19.45
705.132	19.08
705.316	18.89
705.5	19.14
705.684	19.12
705.868	18.76
706.052	19.07
706.235	19.75
706.419	20.56
706.603	20.38
706.787	20.04
706.971	18.78
707.155	19.15
707.339	19.5
707.522	18.89
707.706	18.98
707.89	19.39
708.074	18.4
708.257	18.99
708.441	18.19
708.625	17.9
708.808	18.46
708.992	18.27
709.176	17.12
709.359	17.61
709.543	17.71
709.727	17.71
709.91	17.05
710.094	17.98
710.277	17.42
710.461	17.75
710.644	18.2
710.828	18.68
711.011	19.29
711.195	20.21
711.378	19.97
711.562	19.51
711.745	19.46
711.928	19.46
712.112	18.91
712.295	18.54
712.478	18.2
712.662	17.9
712.845	17.43
713.028	16.89
713.212	17.01
713.395	17.97
713.578	18.47
713.761	18.43
713.945	18.97
714.128	19.76
714.311	19.28
714.494	19.59
714.677	19.76
714.86	19.41
715.043	20.76
715.227	19.71
715.41	18.3
715.593	18.33
715.776	18.29
715.959	18.08
716.142	17.67
716.325	18.71
716.508	18.23
716.691	17.76
716.874	18.18
717.057	16.64
717.239	17.55
717.422	18.25
717.605	18.54
717.788	18.9
717.971	17.6
718.154	17.5
718.337	17.18
718.519	17.49
718.702	18.32
718.885	17.77
719.068	19.48
719.25	19.87
719.433	21.22
719.616	20.89
719.798	21.63
719.981	22.88
720.164	21.9
720.346	22.18
720.529	21.88
720.712	21.82
720.894	22.47
721.077	21.23
721.259	20.96
721.442	20.3
721.624	19.78
721.807	19.97
721.989	19.35
722.172	19.36
722.354	19.1
722.537	19.67
722.719	19.48
722.901	19.38
723.084	19.44
723.266	19.08
723.448	18.35
723.631	16.96
723.813	16.78
723.995	17.77
724.178	18.22
724.36	19.1
724.542	19.37
724.724	19.74
724.907	19.54
725.089	20.21
725.271	19.39
725.453	18.65
725.635	20.61
725.817	19.44
725.999	19.56
726.181	19.8
726.364	18.47
726.546	19.3
726.728	18.44
726.91	18.75
727.092	17.94
727.274	19.09
727.456	19.22
727.638	18.5
727.819	20.03
728.001	19.8
728.183	20.43
728.365	21.59
728.547	20.48
728.729	21.09
728.911	22.54
729.093	22.8
729.274	22.19
729.456	22.84
729.638	24.29
729.82	22.77
730.001	22.78
730.183	22.53
730.365	21.15
730.546	20.74
730.728	20.41
730.91	19.18
731.091	18.98
731.273	18.49
731.455	18.09
731.636	16.86
731.818	16.53
731.999	17.37
732.181	17.46
732.362	18.28
732.544	19.35
732.725	21.01
732.907	20.56
733.088	20.54
733.27	22.63
733.451	23.17
733.633	23.62
733.814	24.64
733.995	23.54
734.177	23.89
734.358	23.96
734.539	23.43
734.721	21.83
734.902	21.36
735.083	21.61
735.264	20.13
735.446	20.07
735.627	19.47
735.808	20.18
735.989	21.07
736.17	21.5
736.351	21.35
736.533	21.02
736.714	21.6
736.895	22.62
737.076	23.16
737.257	21.78
737.438	21.02
737.619	21.88
737.8	21.72
737.981	20.62
738.162	19.16
738.343	19.21
738.524	19.54
738.705	19.33
738.886	18.8
739.067	17.86
739.247	18.82
739.428	19.53
739.609	19
739.79	18.37
739.971	18.78
740.151	20
740.332	19.04
740.513	21.07
740.694	21.42
740.874	21.05
741.055	20.48
741.236	21.06
741.417	19.68
741.597	19.36
741.778	18.78
741.958	20.15
742.139	20.25
742.32	19.61
742.5	16.98
742.681	15.52
742.861	16.32
743.042	17.57
743.222	16.01
743.403	17.96
743.583	18.69
743.764	18.31
743.944	17.15
744.124	15.31
744.305	17.94
744.485	18.25
744.666	19.04
744.846	19.64
745.026	19.49
745.207	21.5
745.387	20.16
745.567	19.77
745.747	20.35
745.928	20.47
746.108	21.35
746.288	20.94
746.468	21.63
746.648	20.66
746.829	19.91
747.009	20.39
747.189	19.69
747.369	20.01
747.549	20.23
747.729	19.69
747.909	20.82
748.089	21.4
748.269	21.28
748.449	19.79
748.629	20.78
748.809	20.74
748.989	20.7
749.169	21.56
749.349	22.98
749.529	22.69
749.709	23.86
749.889	22.62
750.068	22.39
750.248	21.89
750.428	24.9
750.608	25.4
750.788	26.58
750.967	27.54
751.147	27.09
751.327	25.61
751.507	25.16
751.686	24.25
751.866	24.35
752.046	25.19
752.225	25.91
752.405	24.54
752.585	23.59
752.764	22.96
752.944	22.4
753.123	22.68
753.303	23.45
753.482	24.15
753.662	24.81
753.841	24.95
754.021	23.96
754.2	23.84
754.38	23.53
754.559	23.92
754.739	24.01
754.918	22.77
755.097	22.45
755.277	22.13
755.456	22.45
755.635	21.52
755.815	22.31
755.994	22.13
756.173	21.27
756.352	21.14
756.532	21.13
756.711	20.85
756.89	22.09
757.069	21.93
757.248	21.36
757.427	20.91
757.607	22.8
757.786	21.91
757.965	21.67
758.144	23.1
758.323	22.69
758.502	24.19
758.681	22.84
758.86	22.22
759.039	23.25
759.218	22.26
759.397	21.92
759.576	20.39
759.755	19.63
759.934	21.04
760.113	19.97
760.291	19.94
760.47	18.82
760.649	20.84
760.828	21.7
761.007	20.76
761.186	22.33
761.364	22.66
761.543	23.29
761.722	22.91
761.901	21.09
762.079	21.28
762.258	21.36
762.437	21.22
762.615	20.82
762.794	20.27
762.972	20.05
763.151	20.55
763.33	20.69
763.508	20.35
763.687	21.17
763.865	22.05
764.044	22.17
764.222	22.14
764.401	21.9
764.579	21.66
764.758	21.18
764.936	21.23
765.114	21.28
765.293	20.7
765.471	21.12
765.65	20.63
765.828	19.84
766.006	20.64
766.184	20.67
766.363	20.94
766.541	19.98
766.719	21.2
766.898	21.85
767.076	21.3
767.254	23.34
767.432	23.34
767.61	24.8
767.788	25.45
767.967	25.19
768.145	26.09
768.323	26.23
768.501	26.98
768.679	27.83
768.857	27.86
769.035	28.63
769.213	25.3
769.391	25.22
769.569	24.44
769.747	22.99
769.925	23
770.103	22.73
770.281	22.41
770.459	21.87
770.636	19.3
770.814	19.04
770.992	19.5
771.17	20.96
771.348	19.64
771.525	19.16
771.703	20.31
771.881	20.26
772.059	19.75
772.236	20.61
772.414	20.85
772.592	21.89
772.769	21.64
772.947	21.15
773.125	23.26
773.302	24.77
773.48	25.05
773.657	24.27
773.835	24.16
774.013	25.98
774.19	24.37
774.368	24.95
774.545	24.99
774.723	25.5
774.9	22.79
775.077	21.14
775.255	22.16
775.432	21.47
775.61	22.26
775.787	18.76
775.964	15.53
776.142	14.66
776.319	12.08
776.496	11.31
776.674	14.2
776.851	15.53
777.028	14.52
777.205	16.66
777.382	16.22
777.56	16.56
777.737	19.18
777.914	21.19
778.091	21.64
778.268	23.35
778.445	22.34
778.622	21.65
778.8	20.47
778.977	21.36
779.154	18.79
779.331	21.35
779.508	20.71
779.685	21.34
779.862	21.54
780.038	20.77
780.215	25.46
780.392	24.75
780.569	25.39
780.746	27.25
780.923	27.06
781.1	25.24
781.277	23.96
781.453	27.16
781.63	27.1
781.807	25.44
781.984	28.31
782.16	24.31
782.337	24.06
782.514	22.14
782.691	19.9
782.867	21.85
783.044	24.46
783.221	23.68
783.397	22.9
783.574	21.14
783.75	22.52
783.927	26.52
784.103	27.68
784.28	30.35
784.456	30.63
784.633	31.72
784.809	30.98
784.986	30.26
785.162	30.53
785.339	29.79
785.515	30.3
785.692	29.02
785.868	25.61
786.044	27.87
786.221	26.56
786.397	22.9
786.573	23.42
786.749	24.32
786.926	23.41
787.102	22.19
787.278	22.35
787.454	24.5
787.631	23.79
787.807	22.92
787.983	22.02
788.159	23.69
788.335	22.78
788.511	24.49
788.687	25.15
788.863	26.66
789.039	28.88
789.216	26.27
789.392	24.28
789.568	28.11
789.744	25.7
789.919	26.19
790.095	27.21
790.271	29.65
790.447	29.14
790.623	28.17
790.799	25.98
790.975	23.41
791.151	24.74
791.327	24.61
791.502	25.45
791.678	28.85
791.854	29.11
792.03	23.86
792.205	23.28
792.381	23.89
792.557	23.85
792.733	22.97
792.908	22.51
793.084	22.59
793.259	18.4
793.435	14.26
793.611	10.79
793.786	4.26
793.962	5.31
794.137	5.73
794.313	4.28
794.488	2.94
794.664	6.35
794.839	10.99
795.015	11.61
795.19	15.23
795.366	17.46
795.541	17.61
795.716	20.85
795.892	25.8
796.067	26.08
796.242	28.19
796.418	30.19
796.593	29
796.768	26.91
796.944	29.69
797.119	34.79
797.294	33.64
797.469	35.78
797.644	35.05
797.82	33.62
797.995	34.11
798.17	31.32
798.345	28.51
798.52	29.16
798.695	28.54
798.87	25.55
799.045	20.9
799.22	20.91
799.395	21.67
799.57	20.82
799.745	20.07
799.92	20.4
800.095	22.98
800.27	27.64
800.445	25.58
800.62	27.43
800.795	28.51
800.97	31.32
801.145	32.52
801.319	32.01
801.494	32.39
801.669	29.97
801.844	26.84
802.018	28.74
802.193	21.52
802.368	23.53
802.543	25.35
802.717	22.94
802.892	15.73
803.067	19.21
803.241	17.82
803.416	22.92
803.59	23.68
803.765	25.49
803.94	22.33
804.114	23.09
804.289	21.05
804.463	17.59
804.638	21.91
804.812	25.78
804.986	23.26
805.161	28.3
805.335	27.53
805.51	26.53
805.684	27.99
805.858	26.88
806.033	29.58
806.207	30.17
806.381	27.77
806.556	25.35
806.73	23.76
806.904	19.25
807.078	12.6
807.253	10.02
807.427	10.99
807.601	8.76
807.775	9.66
807.949	10.33
808.123	11.24
808.298	13.68
808.472	14.86
808.646	15.21
808.82	19.03
808.994	20.59
809.168	15.78
809.342	17
809.516	21.79
809.69	21.05
809.864	19.1
810.038	17.86
810.212	22.15
810.385	18.34
810.559	17.96
810.733	17.78
810.907	21.13
811.081	22.08
811.255	18.35
811.428	17.94
811.602	21.73
811.776	25.97
811.95	27.23
812.123	21.87
812.297	23.96
812.471	22.73
812.644	20.73
812.818	15.08
812.992	17.55
813.165	19.48
813.339	17.82
813.512	13.73
813.686	9.37
813.86	15.62
814.033	19.18
814.207	20.51
814.38	22.77
814.554	18.61
814.727	24.3
814.9	26.82
815.074	25.7
815.247	23.6
815.421	22.33
815.594	21.53
815.767	19.24
815.941	23.31
816.114	22.89
816.287	18.72
816.46	24.05
816.634	20.75
816.807	15.04
816.98	13.49
817.153	17.43
817.327	19.77
817.5	25.42
817.673	18.45
817.846	17.84
818.019	15.39
818.192	16.88
818.365	15.72
818.538	17.38
818.711	21.41
818.884	26.84
819.057	25.87
819.23	28.85
819.403	23.21
819.576	24.64
819.749	19.68
819.922	22.56
820.095	26.77
820.268	29.87
820.441	30.88
820.614	33.81
820.786	32.43
820.959	31.44
821.132	30.6
821.305	31.39
821.477	30.91
821.65	31.05
821.823	30.43
821.996	29.69
822.168	28.68
822.341	28.23
822.514	28.02
822.686	27.28
822.859	27.35
823.031	26.89
823.204	26.42
823.376	28.32
823.549	28.34
823.722	27.95
823.894	27.56
824.067	27.73
824.239	27.46
824.411	26.52
824.584	27.37
824.756	27.24
824.929	28.01
825.101	27.82
825.273	26.05
825.446	26.08
825.618	26.73
825.79	27.26
825.963	27.79
826.135	26.79
826.307	26.61
826.479	27.07
826.652	27.92
826.824	27.13
826.996	27.96
827.168	28.47
827.34	29.15
827.512	28.96
827.684	29.31
827.856	28.34
828.029	30.48
828.201	30.8
828.373	31.4
828.545	31.05
828.717	31.78
828.889	32.05
829.061	30.43
829.232	29.99
829.404	29.91
829.576	28.54
829.748	30.33
829.92	32.46
830.092	34.76
830.264	32.38
830.436	32.62
830.607	33.95
830.779	35.24
830.951	36.25
831.123	36.21
831.294	33.11
831.466	34.98
831.638	30.83
831.809	27.89
831.981	25.08
832.153	27.75
832.324	28.47
832.496	21.45
832.667	22.84
832.839	25.46
833.011	28.92
833.182	32.29
833.354	29.83
833.525	31.84
833.697	29.2
833.868	29.79
834.039	26.13
834.211	24.11
834.382	27.54
834.554	23.21
834.725	22.13
834.896	18.52
835.068	16.43
835.239	18.48
835.41	15.9
835.581	15.74
835.753	12.21
835.924	14.51
836.095	16.62
836.266	16.91
836.438	19.12
836.609	21.82
836.78	27.18
836.951	32.56
837.122	32.36
837.293	34.3
837.464	36.4
837.635	39.29
837.806	37.32
837.977	35.33
838.148	35.2
838.319	36.11
838.49	30.92
838.661	22.62
838.832	16.9
839.003	16.76
839.174	19.71
839.345	18.01
839.516	14.03
839.687	7.98
839.857	9.7
840.028	8.65
840.199	7.9
840.37	8.91
840.54	15.25
840.711	14.67
840.882	15.61
841.053	12.72
841.223	21.79
841.394	28.46
841.564	31.16
841.735	25.4
841.906	26.13
842.076	29.37
842.247	24.54
842.417	22.4
842.588	24.55
842.758	21.03
842.929	15.38
843.099	10.16
843.27	12.22
843.44	13.91
843.611	17.39
843.781	13.67
843.951	8.57
844.122	18.77
844.292	4.3
844.462	5.85
844.633	10.29
844.803	6.1
844.973	12.83
845.144	20.41
845.314	45.7
845.484	32.29
845.654	37.87
845.824	45.8
845.995	41
846.165	52.55
846.335	65.69
846.505	58.92
846.675	59.78
846.845	43.7
847.015	34.86
847.185	29.62
847.355	34.76
847.525	34.73
847.695	36.76
847.865	44.82
848.035	54.49
848.205	46.52
848.375	48.35
848.545	41.83
848.715	46.59
848.884	46.54
849.054	47.1
849.224	43.62
849.394	39.96
849.564	25.79
849.733	9.86
849.903	1.16
850.073	7.16
850.243	12.89
850.412	21.24
850.582	17.28
850.752	22.16
850.921	14.7
851.091	18.83
851.26	11.91
851.43	12.04
851.599	25.28
851.769	18.11
851.939	12.99
852.108	1.8
852.278	-17.79
852.447	-21.96
852.616	-39.66
852.786	-32.26
852.955	-34.7
853.125	-24.79
853.294	-17.39
853.463	-35.04
853.633	-13.63
853.802	-39.07
853.971	-15.68
854.141	21.21
854.31	23.99
854.479	26.35
854.648	24.77
854.818	51.55
854.987	53.91
855.156	68.13
855.325	59.23
855.494	49.56
855.663	58.56
855.832	39.66
856.001	11.3
856.171	15.12
856.34	29.98
856.509	49.59
856.678	25.33
856.847	35.9
857.016	32.55
857.185	28.92
857.353	6.67
857.522	0.04
857.691	-5.34
857.86	0.71
858.029	-0.5
858.198	1.45
858.367	-3.85
858.535	17.64
858.704	1.48
858.873	1.47
859.042	-1.1
859.21	17.6
859.379	14.07
859.548	25.16
859.717	38.99
859.885	33.68
860.054	35.02
860.222	33.91
860.391	26.73
860.56	36.03
860.728	52.6
860.897	63.08
861.065	36.64
861.234	46.38
861.402	51.69
861.571	45.83
861.739	43.06
861.908	25.71
862.076	18.32
862.244	24.42
862.413	6.45
862.581	12.49
862.749	10.21
862.918	20.14
863.086	32.93
863.254	33.45
863.423	28.24
863.591	33.79
863.759	42.33
863.927	88.87
864.096	82.7
864.264	108.32
864.432	84.89
864.6	82.66
864.768	80.08
864.936	57.81
865.104	72.85
865.272	52.34
865.44	43.84
865.608	47.29
865.776	19.37
865.944	3.99
866.112	14.83
866.28	28.68
866.448	32.2
866.616	35.79
866.784	36.1
866.952	27.07
867.12	25.68
867.288	28.12
867.455	33.57
867.623	30.14
867.791	33.18
867.959	25.03
868.127	5.31
868.294	-0.67
868.462	-14.56
868.63	-14.99
868.797	-1.88
868.965	-32.69
869.133	-42.21
869.3	-25.29
869.468	-37.45
869.636	-15.98
869.803	12.31
869.971	33.87
870.138	37.07
870.306	80.91
870.473	79.94
870.641	63.29
870.808	52.09
870.975	62.43
871.143	51.2
871.31	61.55
871.478	75.13
871.645	71.52
871.812	55.65
871.98	33.03
872.147	2.01
872.314	-9.7
872.482	36.98
872.649	39.11
872.816	34.64
872.983	26.82
873.15	32.6
873.318	15.14
873.485	12.86
873.652	7.94
873.819	10.18
873.986	6.54
874.153	-8.79
874.32	-27.22
874.487	-19.33
874.654	14.64
874.821	20.02
874.988	26.42
875.155	40.55
875.322	40.79
875.489	41.36
875.656	33.37
875.823	47
875.99	75.38
876.157	73.46
876.324	66.4
876.49	45
876.657	41.82
876.824	22.96
876.991	16.41
877.157	16.78
877.324	13.91
877.491	21.8
877.658	-0.14
877.824	9.48
877.991	21.62
878.157	32.24
878.324	28.56
878.491	42.65
878.657	49.04
878.824	51.1
878.99	52.89
879.157	48.06
879.323	46.54
879.49	44.72
879.656	43.46
879.823	39.33
879.989	31.62
880.156	27.97
880.322	22.2
880.488	22.51
880.655	18.11
880.821	19.9
880.987	27.06
881.154	32.55
881.32	39.95
881.486	23.63
881.652	19.33
881.819	23.19
881.985	31.25
882.151	30.63
882.317	31.47
882.483	32.01
882.649	26.55
882.816	30.06
882.982	31.92
883.148	29.57
883.314	36.33
883.48	39.49
883.646	37.36
883.812	36.69
883.978	35.73
884.144	37.7
884.31	37.02
884.476	36.65
884.642	34.88
884.807	30.17
884.973	32.32
885.139	31.1
885.305	28.84
885.471	32.14
885.637	32.16
885.802	31.87
885.968	30.47
886.134	30.35
886.3	34.67
886.465	29.58
886.631	29.67
886.797	29.72
886.962	30.49
887.128	30.34
887.293	21.08
887.459	13.93
887.625	9.35
887.79	5.77
887.956	-1.44
888.121	-5.82
888.287	-0.87
888.452	5.07
888.618	-15.89
888.783	-34.68
