Data from 2938087_Reflection_3.txt Node
Date: Sat Jul 11 19:30:56 EDT 2015
User: robert
Spectrometer: USB4E03001
Autoset integration time: false
Trigger mode: 4
Integration Time (sec): 1.000000E-1
Scans to average: 10
Electric dark correction enabled: true
Nonlinearity correction enabled: false
Boxcar width: 5
Stray light correction enabled: false
XAxis mode: Wavelengths
Stop averaging: false
Number of Pixels in Spectrum: 3648
>>>>>Begin Spectral Data<<<<<
177.566	79.21
177.785	21.04
178.005	-58.1
178.225	0
178.445	36.33
178.665	-26.03
178.885	-105
179.105	265.99
179.324	120.71
179.544	135.55
179.764	68.85
179.984	48.41
180.204	18.5
180.423	-4.58
180.643	32.48
180.863	67.95
181.083	7.07
181.302	2.33
181.522	237.65
181.742	-34.63
181.961	130.25
182.181	107.19
182.401	153.53
182.621	84.61
182.84	81.95
183.06	94.08
183.279	-34.48
183.499	-390.28
183.719	-329.21
183.938	43.97
184.158	58.93
184.377	36.81
184.597	10.85
184.816	38.26
185.036	2.19
185.256	-35.67
185.475	-141.14
185.695	-11.65
185.914	-37.42
186.134	-45.53
186.353	-79.08
186.572	-160.01
186.792	-79.12
187.011	-60.32
187.231	-70.78
187.45	-72.87
187.67	-50.46
187.889	-37.04
188.108	-94.61
188.328	-172.84
188.547	1243.88
188.766	205.66
188.986	174.82
189.205	70.33
189.424	66.52
189.644	41.35
189.863	52.77
190.082	75.05
190.302	51.41
190.521	44.8
190.74	42.97
190.959	19.56
191.178	-32.26
191.398	738.64
191.617	-20.05
191.836	36.48
192.055	-359.16
192.274	185.83
192.494	118.1
192.713	156.28
192.932	131.37
193.151	144.03
193.37	185.48
193.589	1451.16
193.808	617.47
194.027	-1321.27
194.246	-4472.88
194.465	-346.63
194.685	-153.98
194.904	-90.12
195.123	-161.15
195.342	17.12
195.561	-68.34
195.78	-104.66
195.999	-74.5
196.218	-5633.33
196.436	-15.57
196.655	-37.21
196.874	-32.79
197.093	-17.34
197.312	-102.48
197.531	-229.33
197.75	171.63
197.969	24.22
198.188	-2.36
198.407	-27.94
198.625	-39.73
198.844	16.35
199.063	66.47
199.282	89.19
199.501	39.88
199.719	11.73
199.938	-8.21
200.157	17.71
200.376	1.02
200.594	116.35
200.813	284.09
201.032	107.89
201.251	23.09
201.469	8219.35
201.688	318.15
201.907	86.19
202.125	115.06
202.344	562.93
202.563	242.65
202.781	2710.5
203	109200
203.218	5027.71
203.437	-401.18
203.656	-48.2
203.874	2.69
204.093	44.35
204.311	21.63
204.53	-11.38
204.748	26.04
204.967	27.42
205.185	58.39
205.404	56.14
205.622	59.84
205.841	24.77
206.059	16.57
206.278	17.11
206.496	-177.56
206.715	-26.16
206.933	44.63
207.151	-28.56
207.37	-122.19
207.588	-260.63
207.806	-772.19
208.025	3770
208.243	-495.83
208.461	-399.27
208.68	-631.83
208.898	-146.12
209.116	-186.27
209.335	-651.61
209.553	-10434.82
209.771	-1168.66
209.989	9360
210.208	-1241.41
210.426	-175.72
210.644	-10168.49
210.862	1951.76
211.081	-475.57
211.299	223.69
211.517	259.79
211.735	811.09
211.953	1928.09
212.171	417.11
212.39	-140.51
212.608	-255.53
212.826	-280.32
213.044	-79.02
213.262	-190.24
213.48	969.14
213.698	-18.08
213.916	56.27
214.134	20.64
214.352	49.31
214.57	46.27
214.788	3.9
215.006	13.31
215.224	19.93
215.442	15.24
215.66	45.66
215.878	2.53
216.096	-62.65
216.314	-142.76
216.532	-134.13
216.75	-486.8
216.968	236.99
217.185	354.11
217.403	456.48
217.621	6190.98
217.839	1203.43
218.057	996.61
218.275	-3703.03
218.492	-227.82
218.71	-170.36
218.928	-160.98
219.146	-55.17
219.363	-95.02
219.581	-63.27
219.799	-76.62
220.017	-66.75
220.234	-177.26
220.452	-428.12
220.67	-1246.32
220.887	7428.57
221.105	-1017.18
221.323	-1632.51
221.54	-746.41
221.758	-136.43
221.976	-138.02
222.193	-69.59
222.411	-186.16
222.629	-267.21
222.846	-4.19
223.064	-22.19
223.281	1.79
223.499	-37.79
223.716	-52.39
223.934	-109.77
224.151	-203.1
224.369	-273.39
224.586	-392.97
224.804	-593.73
225.021	-514.83
225.239	956.97
225.456	-1313.51
225.674	-439.39
225.891	-901.26
226.108	-204.6
226.326	-102.53
226.543	-72.24
226.76	-21.56
226.978	-22.71
227.195	-9.57
227.413	-5.83
227.63	-9.85
227.847	-11.48
228.064	-15.16
228.282	-10.36
228.499	-1.86
228.716	-0.68
228.934	-4.04
229.151	-8.89
229.368	-7.91
229.585	-4.68
229.802	-5.1
230.02	-2.5
230.237	-5
230.454	-0.43
230.671	1.25
230.888	-2.64
231.105	-7.82
231.323	-4.15
231.54	1.04
231.757	-2.11
231.974	0.04
232.191	-0.24
232.408	-12.68
232.625	-14.74
232.842	-21.8
233.059	-11.93
233.276	-4.69
233.493	1.81
233.71	-8.18
233.927	-13.16
234.144	-15.61
234.361	-25.38
234.578	-27.85
234.795	-14.79
235.012	-11.26
235.229	-11.26
235.446	-27.99
235.663	-37.99
235.879	-50.47
236.096	-33.05
236.313	-30.31
236.53	-17.3
236.747	-16.9
236.964	-20.21
237.181	-24.22
237.397	-35.28
237.614	-40.69
237.831	-39.75
238.048	-32.63
238.264	-10.81
238.481	-14.51
238.698	-13.44
238.915	-21.47
239.131	-17.18
239.348	-10.38
239.565	-12.39
239.781	-9.17
239.998	-9.55
240.215	-1.98
240.431	-3.6
240.648	-6.19
240.865	-6.76
241.081	-5.9
241.298	-4.97
241.514	-5.87
241.731	-8.62
241.947	-5.78
242.164	-5.44
242.38	-2.93
242.597	-3.04
242.814	-3.61
243.03	-2.93
243.246	-2.76
243.463	-2.37
243.679	-2.91
243.896	-1.03
244.112	0.85
244.329	1.48
244.545	1.64
244.762	0.36
244.978	-4.8
245.194	-4.37
245.411	-4.9
245.627	-6.6
245.843	-7.45
246.06	-5.3
246.276	-4.85
246.492	-3.68
246.709	-4.37
246.925	-1.41
247.141	-0.42
247.357	2.36
247.574	1.42
247.79	0.35
248.006	0.94
248.222	1.36
248.439	2.07
248.655	2.11
248.871	1.71
249.087	1.59
249.303	0.76
249.519	0.92
249.736	-0.1
249.952	1.76
250.168	3.57
250.384	3.61
250.6	1.26
250.816	-1.04
251.032	-3.99
251.248	-4.12
251.464	-2.69
251.68	-5.43
251.896	-8.82
252.112	-12.05
252.328	-11.76
252.544	-11.31
252.76	-10.49
252.976	-11.03
253.192	-11.14
253.408	-9.07
253.624	-9.33
253.84	-12.48
254.056	-11.76
254.272	-9.95
254.487	-5.91
254.703	-9.34
254.919	-6.48
255.135	-5.92
255.351	-2.74
255.567	-2.57
255.782	-3.65
255.998	-0.34
256.214	3.82
256.43	3.65
256.646	-0.56
256.861	-0.96
257.077	0.62
257.293	-1.46
257.508	-0.62
257.724	-0.31
257.94	-2.13
258.155	-0.85
258.371	-1.11
258.587	-0.42
258.802	1.86
259.018	3.56
259.234	3.24
259.449	3.84
259.665	2.96
259.88	2.37
260.096	2.14
260.312	2.81
260.527	2.62
260.743	1.32
260.958	0.79
261.174	-0.87
261.389	-1.2
261.605	-2.1
261.82	-3.06
262.036	-2.89
262.251	-2.75
262.466	-2.03
262.682	-3.77
262.897	-6.68
263.113	-6.6
263.328	-7.35
263.543	-5.53
263.759	-5.43
263.974	-4.52
264.189	-3.43
264.405	-6.08
264.62	-3.95
264.835	-5.55
265.051	-5.09
265.266	-2.13
265.481	0.67
265.696	1.01
265.912	0.56
266.127	1.51
266.342	-0.51
266.557	-3.27
266.773	0.35
266.988	-2.68
267.203	-1.47
267.418	1.06
267.633	0.99
267.848	-0.28
268.064	-0.54
268.279	-1.12
268.494	-1.18
268.709	0.98
268.924	2.91
269.139	0.35
269.354	1.1
269.569	-0.38
269.784	-1.77
269.999	-4.1
270.214	-4.62
270.429	-5.79
270.644	-5.64
270.859	-7.48
271.074	-7.19
271.289	-6.92
271.504	-6.53
271.719	-6.28
271.934	-4.88
272.149	-4.24
272.363	-3.25
272.578	-3.12
272.793	-1.56
273.008	-1.98
273.223	-0.66
273.438	-0.36
273.653	-0.94
273.867	-0.85
274.082	-0.02
274.297	0.18
274.512	-0.36
274.726	2.03
274.941	3.47
275.156	2.4
275.371	4.04
275.585	3.99
275.8	3.49
276.015	3.34
276.229	2.94
276.444	3.18
276.659	3.89
276.873	3.35
277.088	1.68
277.302	1.06
277.517	1.74
277.732	-0.25
277.946	-2.26
278.161	-1.2
278.375	-1.75
278.59	0.27
278.804	-2.03
279.019	-5.31
279.233	-6.66
279.448	-5.01
279.662	-5.01
279.877	-4.75
280.091	-2.79
280.306	-1.43
280.52	-1.61
280.735	1.71
280.949	0.88
281.163	0.88
281.378	0.44
281.592	1.64
281.806	-0.89
282.021	-1.59
282.235	-1.29
282.449	-3.13
282.664	-3.02
282.878	-4.5
283.092	-3.9
283.307	-3.49
283.521	-3.39
283.735	-2.65
283.949	-4.31
284.164	-2.98
284.378	-1.75
284.592	-2.89
284.806	-0.82
285.02	-0.06
285.234	1.57
285.449	-0.29
285.663	0.45
285.877	0.63
286.091	0.5
286.305	1.71
286.519	2.14
286.733	1.88
286.947	1.84
287.161	1.72
287.375	1.02
287.589	-0.55
287.803	-0.38
288.017	-0.7
288.231	-0.53
288.445	-0.39
288.659	1.23
288.873	1.58
289.087	1.2
289.301	1.92
289.515	1.86
289.729	2.7
289.943	3.27
290.157	4.02
290.371	3.32
290.584	3.64
290.798	4.47
291.012	3.88
291.226	3.23
291.44	3.11
291.654	3.93
291.867	3.03
292.081	2.88
292.295	4.38
292.509	4.79
292.722	4.2
292.936	5.62
293.15	6.34
293.364	6.66
293.577	5.81
293.791	6.34
294.005	5.85
294.218	6.27
294.432	6.96
294.645	4.65
294.859	3.69
295.073	4.47
295.286	3.5
295.5	2.59
295.713	1.64
295.927	3.35
296.14	3.54
296.354	2.95
296.568	3.84
296.781	2.15
296.994	3.45
297.208	4.13
297.421	3.61
297.635	2.91
297.848	3.11
298.062	3.99
298.275	2.72
298.489	3.13
298.702	3.61
298.915	2.44
299.129	3.52
299.342	2.99
299.555	2.02
299.769	1.3
299.982	2.92
300.195	3.02
300.409	2.12
300.622	1.68
300.835	2.16
301.048	0.2
301.262	1.87
301.475	2.88
301.688	-0.17
301.901	-0.66
302.115	1.27
302.328	0.95
302.541	-0.32
302.754	-0.08
302.967	2.96
303.18	3.25
303.393	4.86
303.607	3.78
303.82	3.35
304.033	5.95
304.246	5.75
304.459	4.99
304.672	3.97
304.885	4.19
305.098	3.85
305.311	4.1
305.524	2.91
305.737	2.89
305.95	2.56
306.163	2.23
306.376	3.62
306.589	3.97
306.802	3.49
307.015	2.62
307.228	0.91
307.44	1.3
307.653	-0.46
307.866	-1.86
308.079	-0.85
308.292	0.49
308.505	0
308.718	-0.66
308.93	-0.05
309.143	-1.13
309.356	-0.22
309.569	0.41
309.781	0.9
309.994	0.98
310.207	2.27
310.42	0.63
310.632	1.19
310.845	0.39
311.058	1.74
311.27	2.76
311.483	4.23
311.696	4.17
311.908	5.53
312.121	5.48
312.333	5.81
312.546	5.58
312.759	7.4
312.971	6.68
313.184	7.32
313.396	6.54
313.609	6.39
313.821	6.02
314.034	7.25
314.246	6.64
314.459	6.49
314.671	6.44
314.884	4.99
315.096	4.26
315.309	2.33
315.521	0.76
315.733	-1.16
315.946	-2.75
316.158	-1.86
316.371	-4.28
316.583	-6.11
316.795	-4.81
317.008	-4.64
317.22	-4.49
317.432	-3.06
317.644	0.27
317.857	2.88
318.069	4.92
318.281	4.84
318.494	3.58
318.706	5.58
318.918	8.93
319.13	7.41
319.342	6.13
319.555	8.1
319.767	8.35
319.979	6.86
320.191	6.56
320.403	4.95
320.615	5.83
320.827	7.47
321.039	6.61
321.252	5.13
321.464	6.55
321.676	6.35
321.888	6.66
322.1	4.53
322.312	5.19
322.524	6.36
322.736	7.62
322.948	7.28
323.16	7.24
323.372	7.75
323.584	6.51
323.796	8.28
324.007	7.24
324.219	6.9
324.431	7.34
324.643	7.78
324.855	8.09
325.067	7.21
325.279	7.63
325.491	7.58
325.702	6.76
325.914	6.53
326.126	4.58
326.338	6.22
326.55	6.83
326.761	7.08
326.973	5.43
327.185	4.13
327.396	5.3
327.608	6.23
327.82	6.88
328.032	7.38
328.243	9.69
328.455	9.16
328.666	8.43
328.878	8.79
329.09	9.78
329.301	11.64
329.513	10.71
329.725	11.15
329.936	9.52
330.148	7.97
330.359	7.98
330.571	7.15
330.782	8.13
330.994	9.22
331.205	9.26
331.417	9.7
331.628	7.59
331.84	9.93
332.051	10.6
332.262	11.04
332.474	12.02
332.685	13.39
332.897	15.11
333.108	15.63
333.319	14.72
333.531	14.38
333.742	13.73
333.953	15.39
334.165	13.53
334.376	12.84
334.587	14.01
334.799	14.5
335.01	15.22
335.221	15.64
335.432	15.06
335.644	15.27
335.855	15.81
336.066	16.11
336.277	16.2
336.488	17.44
336.7	17.46
336.911	17.9
337.122	17.76
337.333	15.74
337.544	15.26
337.755	15.61
337.966	16.08
338.177	16.43
338.388	17.12
338.599	17.92
338.811	18.41
339.022	17.94
339.233	16.94
339.444	17.18
339.655	18.73
339.866	19.34
340.076	18.61
340.287	19.2
340.498	18.21
340.709	17.24
340.92	16.54
341.131	16.13
341.342	16.47
341.553	17.18
341.764	16.65
341.975	15.95
342.185	14.58
342.396	14.58
342.607	14.82
342.818	15.03
343.029	14.74
343.239	15.14
343.45	15.51
343.661	14.93
343.872	14.1
344.082	13.37
344.293	13.78
344.504	14.12
344.714	13.3
344.925	13.45
345.136	14.62
345.346	14.46
345.557	14.68
345.768	15.24
345.978	15.63
346.189	15.81
346.399	16.25
346.61	16.54
346.821	16.62
347.031	17.86
347.242	16.71
347.452	15.95
347.663	16.82
347.873	16.92
348.084	15.88
348.294	16.57
348.504	17.26
348.715	18.23
348.925	17.86
349.136	17.78
349.346	18.34
349.557	19.46
349.767	18.86
349.977	19.25
350.188	19.59
350.398	19.86
350.608	20.51
350.819	19.86
351.029	19.29
351.239	19.34
351.449	20.24
351.66	19.8
351.87	19.15
352.08	19.2
352.29	17.84
352.501	17.07
352.711	17.69
352.921	16.2
353.131	16.08
353.341	16.24
353.552	16.97
353.762	17.32
353.972	18.21
354.182	20.19
354.392	20.93
354.602	20.62
354.812	20.49
355.022	20.13
355.232	20.51
355.442	20.37
355.652	20.55
355.862	19.81
356.072	18.27
356.282	17.77
356.492	16.79
356.702	16.92
356.912	17.64
357.122	17.39
357.332	17.47
357.542	17.44
357.752	18.81
357.962	19.05
358.171	19.9
358.381	20.61
358.591	20.38
358.801	19.91
359.011	19.92
359.221	20.2
359.43	20.97
359.64	21.8
359.85	21.92
360.06	22.06
360.269	21.49
360.479	20.77
360.689	20.29
360.899	20.24
361.108	19.99
361.318	20.17
361.528	20.05
361.737	20.07
361.947	19.69
362.156	19.66
362.366	18.49
362.576	19.49
362.785	19.98
362.995	20.86
363.204	21.06
363.414	21.17
363.623	20.72
363.833	21.34
364.042	21.55
364.252	20.66
364.461	21.16
364.671	21.91
364.88	21.15
365.09	21.29
365.299	21.47
365.509	21.99
365.718	23.19
365.927	23.47
366.137	22.26
366.346	22.3
366.555	23.31
366.765	22.55
366.974	22.9
367.183	22.96
367.393	22.74
367.602	22.02
367.811	22.14
368.021	21.55
368.23	21.33
368.439	22.37
368.648	21.98
368.857	21.92
369.067	22.43
369.276	22.39
369.485	22.68
369.694	22.23
369.903	22.18
370.112	21.82
370.321	21.97
370.531	22.14
370.74	22.82
370.949	22.47
371.158	22.49
371.367	22.83
371.576	22.78
371.785	22.48
371.994	22.86
372.203	22.97
372.412	22.6
372.621	22.87
372.83	22.38
373.039	21.55
373.248	21.31
373.457	21.62
373.666	21.17
373.874	20.73
374.083	20.6
374.292	20.69
374.501	20.56
374.71	21.34
374.919	20.55
375.128	20.86
375.336	20.42
375.545	21.49
375.754	21.15
375.963	21.25
376.171	21.15
376.38	21.51
376.589	21.82
376.798	22.19
377.006	21.44
377.215	21.02
377.424	20.98
377.632	21.34
377.841	21.33
378.05	21.72
378.258	21.96
378.467	21.98
378.675	22.09
378.884	22.04
379.093	21.74
379.301	22.67
379.51	22.88
379.718	22.97
379.927	23.01
380.135	23.03
380.344	22.73
380.552	22.8
380.761	22.85
380.969	23.04
381.177	22.34
381.386	22.72
381.594	22.57
381.803	23.63
382.011	23.71
382.219	23.72
382.428	23.51
382.636	23.17
382.845	22.68
383.053	22.87
383.261	23.48
383.469	24.19
383.678	23.77
383.886	23.84
384.094	23.63
384.302	23.62
384.511	23.44
384.719	23.62
384.927	23.5
385.135	24.01
385.343	24.22
385.552	23.22
385.76	23.43
385.968	23.4
386.176	22.87
386.384	22.88
386.592	23.42
386.8	23.31
387.008	22.66
387.216	22.99
387.424	22.78
387.633	22.57
387.841	22.55
388.049	22.07
388.257	22.93
388.465	22.62
388.672	22.48
388.88	22.34
389.088	23.03
389.296	23.68
389.504	23.77
389.712	23.69
389.92	23.59
390.128	24.3
390.336	24.58
390.544	24.19
390.751	24.78
390.959	24.77
391.167	24.39
391.375	24.22
391.583	24.1
391.79	24.11
391.998	24.42
392.206	24.85
392.414	24.61
392.621	24.62
392.829	24.69
393.037	24.95
393.244	25.21
393.452	25.81
393.66	25.83
393.867	26.06
394.075	26.03
394.283	26.18
394.49	26.21
394.698	26.13
394.905	26.2
395.113	26.14
395.32	25.93
395.528	25.68
395.735	25.73
395.943	26.11
396.15	26.09
396.358	26.58
396.565	26.38
396.773	26.65
396.98	26.73
397.188	26.72
397.395	26.9
397.602	27.08
397.81	27.69
398.017	27.45
398.225	27.45
398.432	27.46
398.639	27.24
398.847	27.37
399.054	27.2
399.261	27.81
399.468	28.04
399.676	28.44
399.883	28.28
400.09	27.85
400.297	28.09
400.505	27.87
400.712	28.28
400.919	28.41
401.126	28.37
401.333	28.45
401.54	28.32
401.748	28.41
401.955	28.3
402.162	28.57
402.369	28.51
402.576	28.72
402.783	28.97
402.99	29.06
403.197	29.18
403.404	29.43
403.611	29.36
403.818	29.48
404.025	29.6
404.232	29.53
404.439	29.51
404.646	30.03
404.853	29.95
405.06	30.07
405.267	29.66
405.474	29.53
405.681	29.57
405.887	29.76
406.094	29.74
406.301	29.55
406.508	29.94
406.715	29.84
406.922	29.9
407.128	29.91
407.335	29.55
407.542	29.78
407.749	30.17
407.955	30.12
408.162	29.85
408.369	29.64
408.575	29.63
408.782	29.19
408.989	29.35
409.195	29.13
409.402	28.88
409.609	29.33
409.815	29.52
410.022	29.33
410.228	29.51
410.435	29.4
410.642	29.39
410.848	29.72
411.055	29.77
411.261	29.85
411.468	29.68
411.674	29.89
411.881	29.59
412.087	29.54
412.294	29.55
412.5	29.37
412.706	29.81
412.913	30.22
413.119	29.85
413.326	29.86
413.532	29.91
413.738	29.99
413.945	29.75
414.151	30.05
414.357	29.92
414.564	29.77
414.77	29.84
414.976	29.98
415.182	29.88
415.389	29.85
415.595	29.86
415.801	29.89
416.007	30.07
416.214	30.03
416.42	29.96
416.626	29.82
416.832	29.88
417.038	29.91
417.244	29.54
417.45	29.38
417.657	29.42
417.863	29.45
418.069	29.33
418.275	29.2
418.481	29.19
418.687	29.02
418.893	29.05
419.099	29.03
419.305	29.12
419.511	29.26
419.717	29.32
419.923	29.31
420.129	29.25
420.335	29.14
420.541	29.19
420.746	29.37
420.952	29.41
421.158	29.49
421.364	29.48
421.57	29.18
421.776	29.17
421.982	28.97
422.187	28.89
422.393	28.79
422.599	28.93
422.805	28.88
423.01	28.73
423.216	28.87
423.422	28.96
423.628	28.86
423.833	29.04
424.039	28.95
424.245	29.05
424.45	29.09
424.656	29.12
424.862	29.09
425.067	29.19
425.273	29.34
425.478	29.17
425.684	28.97
425.889	29.09
426.095	29.01
426.301	29.06
426.506	28.87
426.712	28.75
426.917	28.78
427.123	28.76
427.328	28.68
427.533	28.51
427.739	28.56
427.944	28.68
428.15	28.66
428.355	28.64
428.561	28.56
428.766	28.71
428.971	28.87
429.177	28.8
429.382	28.56
429.587	28.48
429.793	28.44
429.998	28.37
430.203	28.32
430.408	27.94
430.614	27.85
430.819	27.83
431.024	27.88
431.229	27.9
431.434	28.06
431.64	28.06
431.845	28.1
432.05	28.11
432.255	28.19
432.46	28.3
432.665	28.57
432.87	28.74
433.076	28.66
433.281	28.69
433.486	28.81
433.691	28.78
433.896	28.86
434.101	28.78
434.306	28.75
434.511	28.68
434.716	28.37
434.921	28.44
435.126	28.38
435.331	28.72
435.535	28.59
435.74	28.39
435.945	28.12
436.15	28.24
436.355	28.27
436.56	28.31
436.765	28.29
436.97	28.38
437.174	28.15
437.379	28.11
437.584	27.95
437.789	27.91
437.993	27.96
438.198	28.14
438.403	28.09
438.608	28.05
438.812	28.01
439.017	28.07
439.222	28.03
439.426	28.16
439.631	27.99
439.836	27.84
440.04	28.01
440.245	28.08
440.45	27.97
440.654	28.02
440.859	28.1
441.063	28.16
441.268	28.08
441.472	28.04
441.677	28.1
441.881	28.22
442.086	28.31
442.29	28.26
442.495	28.09
442.699	28.2
442.904	27.98
443.108	27.91
443.312	27.84
443.517	27.75
443.721	27.81
443.925	27.66
444.13	27.69
444.334	27.65
444.538	27.56
444.743	27.57
444.947	27.64
445.151	27.77
445.356	27.73
445.56	27.72
445.764	27.87
445.968	27.83
446.173	27.94
446.377	27.91
446.581	27.94
446.785	28.02
446.989	28.02
447.193	27.95
447.398	27.96
447.602	28
447.806	28.04
448.01	28.11
448.214	28.19
448.418	27.92
448.622	28.04
448.826	27.94
449.03	27.85
449.234	27.97
449.438	27.98
449.642	27.94
449.846	27.74
450.05	27.62
450.254	27.42
450.458	27.23
450.662	27.42
450.866	27.24
451.069	27.16
451.273	27.11
451.477	27.01
451.681	26.87
451.885	26.66
452.089	26.69
452.292	26.6
452.496	26.54
452.7	26.8
452.904	26.71
453.107	26.7
453.311	26.73
453.515	26.9
453.719	27.06
453.922	27.33
454.126	27.46
454.33	27.4
454.533	27.57
454.737	27.7
454.94	27.44
455.144	27.47
455.348	27.51
455.551	27.55
455.755	27.33
455.958	27.05
456.162	26.82
456.365	26.95
456.569	26.88
456.772	27.11
456.976	27.13
457.179	27.12
457.383	27.24
457.586	27.44
457.79	27.25
457.993	27.3
458.196	27.44
458.4	27.53
458.603	27.63
458.807	27.74
459.01	27.61
459.213	27.62
459.417	27.76
459.62	27.65
459.823	27.45
460.026	27.55
460.23	27.57
460.433	27.54
460.636	27.68
460.839	27.52
461.042	27.62
461.246	27.59
461.449	27.57
461.652	27.5
461.855	27.58
462.058	27.68
462.261	27.87
462.464	27.92
462.668	27.89
462.871	27.72
463.074	27.79
463.277	27.78
463.48	27.93
463.683	27.83
463.886	27.79
464.089	27.87
464.292	27.79
464.495	27.56
464.698	27.71
464.901	27.86
465.104	27.8
465.306	27.82
465.509	27.53
465.712	27.36
465.915	27.43
466.118	27.58
466.321	27.39
466.524	27.65
466.726	27.86
466.929	27.81
467.132	27.88
467.335	27.89
467.538	27.89
467.74	28.25
467.943	28.42
468.146	28.6
468.348	28.64
468.551	28.83
468.754	28.74
468.956	28.6
469.159	28.53
469.362	28.58
469.564	28.46
469.767	28.53
469.969	28.35
470.172	28.25
470.375	28.18
470.577	28.26
470.78	28.32
470.982	28.5
471.185	28.78
471.387	29
471.59	29.11
471.792	29.16
471.995	29.1
472.197	29.21
472.399	29.28
472.602	29.23
472.804	29.29
473.007	29.27
473.209	29.2
473.411	29.11
473.614	28.96
473.816	28.78
474.018	28.94
474.22	28.92
474.423	29.02
474.625	28.9
474.827	28.99
475.03	28.77
475.232	28.58
475.434	28.65
475.636	28.52
475.838	28.72
476.04	28.78
476.243	28.74
476.445	28.85
476.647	28.73
476.849	28.74
477.051	28.72
477.253	28.82
477.455	28.91
477.657	28.66
477.859	28.77
478.061	28.64
478.263	28.64
478.465	28.59
478.667	28.36
478.869	28.44
479.071	28.49
479.273	28.5
479.475	28.42
479.677	28.33
479.879	28.57
480.081	28.51
480.283	28.63
480.485	28.47
480.686	28.59
480.888	28.66
481.09	28.76
481.292	28.74
481.494	28.66
481.695	28.75
481.897	28.85
482.099	28.79
482.301	28.89
482.502	28.81
482.704	28.81
482.906	28.75
483.107	28.87
483.309	28.9
483.511	28.93
483.712	28.89
483.914	28.94
484.115	28.92
484.317	28.89
484.519	28.85
484.72	28.91
484.922	28.96
485.123	29.01
485.325	28.93
485.526	28.92
485.728	28.89
485.929	28.93
486.131	28.94
486.332	28.89
486.534	28.97
486.735	28.95
486.936	28.89
487.138	28.82
487.339	28.73
487.541	28.73
487.742	28.65
487.943	28.64
488.144	28.66
488.346	28.56
488.547	28.57
488.748	28.5
488.95	28.52
489.151	28.57
489.352	28.54
489.553	28.66
489.755	28.61
489.956	28.66
490.157	28.72
490.358	28.71
490.559	28.63
490.76	28.61
490.961	28.66
491.163	28.69
491.364	28.62
491.565	28.67
491.766	28.66
491.967	28.76
492.168	28.69
492.369	28.56
492.57	28.56
492.771	28.73
492.972	28.83
493.173	28.83
493.374	28.85
493.575	28.88
493.776	28.91
493.976	28.97
494.177	28.93
494.378	28.99
494.579	29.19
494.78	29.14
494.981	29.04
495.182	28.95
495.382	28.94
495.583	28.83
495.784	28.72
495.985	28.77
496.185	28.73
496.386	28.68
496.587	28.73
496.788	28.61
496.988	28.79
497.189	28.8
497.39	28.81
497.59	28.66
497.791	28.69
497.992	28.81
498.192	28.84
498.393	28.81
498.593	29.08
498.794	29.06
498.994	29.1
499.195	28.99
499.395	29.05
499.596	29.26
499.796	29.33
499.997	29.41
500.197	29.35
500.398	29.27
500.598	29.44
500.799	29.25
500.999	29.37
501.199	29.51
501.4	29.66
501.6	29.61
501.801	29.58
502.001	29.59
502.201	29.65
502.402	29.46
502.602	29.68
502.802	29.66
503.002	29.59
503.203	29.51
503.403	29.6
503.603	29.53
503.803	29.66
504.003	29.73
504.204	29.9
504.404	29.92
504.604	30.22
504.804	30.18
505.004	29.99
505.204	30.24
505.404	30.15
505.604	30.09
505.804	30.17
506.005	30.11
506.205	29.95
506.405	29.99
506.605	29.95
506.805	29.92
507.005	29.79
507.204	29.82
507.404	29.77
507.604	29.9
507.804	29.98
508.004	30.05
508.204	30.06
508.404	30.15
508.604	30.14
508.804	30.23
509.003	30.24
509.203	30.3
509.403	30.39
509.603	30.39
509.803	30.43
510.002	30.45
510.202	30.4
510.402	30.49
510.602	30.47
510.801	30.49
511.001	30.5
511.201	30.49
511.4	30.55
511.6	30.55
511.8	30.48
511.999	30.55
512.199	30.47
512.398	30.42
512.598	30.57
512.797	30.76
512.997	30.76
513.197	30.75
513.396	30.81
513.596	30.9
513.795	30.95
513.994	31.14
514.194	31.15
514.393	31.25
514.593	31.52
514.792	31.39
514.992	31.23
515.191	31.47
515.39	31.62
515.59	31.73
515.789	31.66
515.988	31.77
516.188	31.69
516.387	31.7
516.586	31.69
516.786	31.64
516.985	31.71
517.184	31.75
517.383	31.68
517.582	31.48
517.782	31.36
517.981	31.47
518.18	31.4
518.379	31.38
518.578	31.32
518.777	31.23
518.976	31.16
519.176	31.19
519.375	31.22
519.574	31.15
519.773	31.17
519.972	31.34
520.171	31.34
520.37	31.37
520.569	31.38
520.768	31.52
520.967	31.61
521.166	31.81
521.365	31.69
521.564	31.72
521.762	31.79
521.961	31.85
522.16	31.71
522.359	31.53
522.558	31.68
522.757	31.72
522.956	31.62
523.154	31.66
523.353	31.63
523.552	31.86
523.751	31.94
523.949	32.07
524.148	32.12
524.347	32.04
524.546	32.06
524.744	32.02
524.943	32.22
525.142	32.19
525.34	32.1
525.539	32.06
525.737	31.96
525.936	31.96
526.135	31.85
526.333	31.91
526.532	32.05
526.73	32.15
526.929	32.11
527.127	32.01
527.326	32.08
527.524	32.17
527.723	32.12
527.921	32.17
528.12	32.19
528.318	32.22
528.516	32.2
528.715	32.16
528.913	32.12
529.112	32.18
529.31	32.15
529.508	32.17
529.707	32.23
529.905	32.28
530.103	32.27
530.301	32.26
530.5	32.26
530.698	32.28
530.896	32.35
531.094	32.4
531.293	32.36
531.491	32.43
531.689	32.34
531.887	32.25
532.085	32.23
532.283	32.22
532.481	32.26
532.68	32.31
532.878	32.33
533.076	32.3
533.274	32.21
533.472	32.19
533.67	32.19
533.868	32.2
534.066	32.2
534.264	32.23
534.462	32.26
534.66	32.21
534.858	32.17
535.056	32.23
535.253	32.24
535.451	32.33
535.649	32.42
535.847	32.43
536.045	32.56
536.243	32.62
536.441	32.56
536.638	32.51
536.836	32.44
537.034	32.44
537.232	32.25
537.43	32.24
537.627	32.15
537.825	32.2
538.023	32.16
538.22	32.12
538.418	32.08
538.616	32.09
538.813	32.16
539.011	32.21
539.209	32.11
539.406	32.1
539.604	32.06
539.801	32.25
539.999	32.21
540.196	32.21
540.394	32.21
540.591	32.23
540.789	32.25
540.986	32.27
541.184	32.26
541.381	32.34
541.579	32.39
541.776	32.4
541.974	32.41
542.171	32.36
542.368	32.5
542.566	32.46
542.763	32.47
542.96	32.54
543.158	32.51
543.355	32.54
543.552	32.56
543.75	32.53
543.947	32.64
544.144	32.67
544.341	32.73
544.539	32.65
544.736	32.72
544.933	32.8
545.13	32.78
545.327	32.79
545.524	32.67
545.722	32.73
545.919	32.85
546.116	32.84
546.313	32.82
546.51	32.8
546.707	32.78
546.904	32.83
547.101	32.68
547.298	32.63
547.495	32.61
547.692	32.66
547.889	32.67
548.086	32.72
548.283	32.59
548.48	32.52
548.677	32.55
548.874	32.43
549.07	32.24
549.267	32.27
549.464	32.23
549.661	32.27
549.858	32.32
550.055	32.21
550.251	32.12
550.448	32.17
550.645	32.21
550.842	32.23
551.038	32.26
551.235	32.39
551.432	32.38
551.628	32.26
551.825	32.13
552.022	32.38
552.218	32.23
552.415	32.42
552.612	32.53
552.808	32.34
553.005	32.38
553.201	32.32
553.398	32.36
553.594	32.42
553.791	32.41
553.987	32.5
554.184	32.33
554.38	32.44
554.577	32.28
554.773	32.39
554.97	32.52
555.166	32.33
555.362	32.56
555.559	32.49
555.755	32.5
555.952	32.57
556.148	32.48
556.344	32.49
556.541	32.63
556.737	32.55
556.933	32.08
557.129	32.14
557.326	32.22
557.522	31.98
557.718	31.78
557.914	31.72
558.11	31.79
558.307	31.88
558.503	31.92
558.699	31.54
558.895	31.42
559.091	31.62
559.287	31.31
559.483	31.48
559.679	31.48
559.876	31.51
560.072	31.47
560.268	31.32
560.464	31.3
560.66	31.24
560.856	31.51
561.052	31.65
561.247	31.58
561.443	32.04
561.639	31.75
561.835	31.87
562.031	32.06
562.227	32.21
562.423	32.23
562.619	32.15
562.815	32.01
563.01	32.02
563.206	32.07
563.402	32.1
563.598	31.88
563.793	31.99
563.989	31.97
564.185	31.88
564.381	31.97
564.576	32.01
564.772	32.39
564.968	32.51
565.163	32.27
565.359	32.16
565.555	32.12
565.75	32.01
565.946	32.03
566.141	32.06
566.337	31.8
566.532	31.61
566.728	31.79
566.923	31.49
567.119	31.31
567.314	31.44
567.51	31.32
567.705	31.42
567.901	31.65
568.096	31.79
568.292	31.79
568.487	32.02
568.682	31.98
568.878	31.83
569.073	31.83
569.268	32.12
569.464	32.22
569.659	32.33
569.854	32.26
570.05	32.18
570.245	31.95
570.44	31.82
570.635	31.89
570.831	32.06
571.026	32.11
571.221	32.04
571.416	32.02
571.611	32
571.806	31.96
572.002	32.18
572.197	32.15
572.392	32.36
572.587	32.51
572.782	32.51
572.977	32.39
573.172	32.28
573.367	32.37
573.562	32.32
573.757	32.29
573.952	32.42
574.147	32.2
574.342	32.07
574.537	32.08
574.732	32
574.927	31.97
575.121	32.18
575.316	32.33
575.511	32.46
575.706	32.45
575.901	32.44
576.096	32.4
576.29	32.48
576.485	32.57
576.68	32.45
576.875	32.5
577.069	32.52
577.264	32.26
577.459	32.03
577.654	31.93
577.848	32.04
578.043	32.15
578.238	32.08
578.432	32.02
578.627	32.05
578.821	32.24
579.016	32.32
579.21	32.34
579.405	32.55
579.6	32.78
579.794	32.79
579.989	32.72
580.183	32.59
580.378	32.69
580.572	32.71
580.766	32.65
580.961	32.55
581.155	32.27
581.35	32.12
581.544	32.01
581.738	31.83
581.933	31.8
582.127	31.68
582.321	31.95
582.516	31.94
582.71	31.95
582.904	31.95
583.099	31.76
583.293	31.98
583.487	32.5
583.681	32.53
583.875	32.57
584.07	32.74
584.264	32.79
584.458	32.63
584.652	32.52
584.846	32.3
585.04	32.5
585.234	32.45
585.428	32.18
585.623	31.79
585.817	31.85
586.011	32.08
586.205	32.03
586.399	32.21
586.593	32.37
586.787	32.51
586.981	32.66
587.174	32.58
587.368	32.84
587.562	33.21
587.756	33.2
587.95	33.1
588.144	32.94
588.338	32.7
588.532	32.57
588.725	32.33
588.919	32.01
589.113	32.17
589.307	32.12
589.501	32.03
589.694	31.95
589.888	32.15
590.082	32.37
590.275	32.48
590.469	32.68
590.663	32.58
590.856	32.49
591.05	32.72
591.244	32.67
591.437	32.7
591.631	32.68
591.824	32.58
592.018	32.47
592.212	32.4
592.405	32.16
592.599	32.37
592.792	32.36
592.986	32.21
593.179	32.33
593.372	32.43
593.566	32.55
593.759	32.31
593.953	32.39
594.146	32.41
594.339	32.34
594.533	32.41
594.726	32.24
594.92	32.37
595.113	32.72
595.306	32.7
595.499	32.72
595.693	32.96
595.886	33.12
596.079	33.33
596.272	33.21
596.466	33.34
596.659	33.41
596.852	33.5
597.045	33.36
597.238	33.4
597.431	33.43
597.624	33.35
597.818	33.01
598.011	33.02
598.204	32.74
598.397	32.72
598.59	32.58
598.783	32.53
598.976	32.42
599.169	32.69
599.362	32.41
599.555	32.31
599.748	32.45
599.941	32.4
600.134	32.59
600.326	32.77
600.519	32.83
600.712	32.73
600.905	32.92
601.098	32.84
601.291	32.66
601.483	33.08
601.676	33.13
601.869	33.09
602.062	33.12
602.255	33.03
602.447	32.8
602.64	33
602.833	33.25
603.025	33.08
603.218	33.2
603.411	33.19
603.603	33.15
603.796	32.92
603.989	32.88
604.181	32.92
604.374	32.82
604.566	32.97
604.759	32.93
604.951	32.83
605.144	32.89
605.336	32.88
605.529	33.07
605.721	33.09
605.914	33.36
606.106	33.5
606.299	33.69
606.491	33.88
606.683	33.81
606.876	33.84
607.068	33.95
607.26	34.26
607.453	34.3
607.645	34.16
607.837	33.97
608.03	34
608.222	33.93
608.414	33.77
608.606	33.61
608.799	33.72
608.991	33.51
609.183	33.74
609.375	33.49
609.567	33.51
609.759	33.66
609.952	33.84
610.144	33.94
610.336	34
610.528	34.13
610.72	34.19
610.912	34.37
611.104	34.67
611.296	34.44
611.488	34.44
611.68	34.36
611.872	34.49
612.064	34.29
612.256	34.3
612.448	34.39
612.64	34.08
612.832	34.11
613.023	33.82
613.215	33.45
613.407	33.56
613.599	33.62
613.791	33.62
613.983	33.37
614.174	33.52
614.366	33.13
614.558	32.86
614.75	33.21
614.941	33.53
615.133	33.84
615.325	34.02
615.516	34.09
615.708	34.02
615.9	34.33
616.091	34.64
616.283	34.49
616.475	34.52
616.666	34.27
616.858	33.87
617.049	33.5
617.241	33.22
617.432	33.56
617.624	33.48
617.815	33.43
618.007	33.2
618.198	33.05
618.39	33.15
618.581	33.17
618.773	33.41
618.964	33.88
619.155	34.13
619.347	34.09
619.538	33.82
619.729	33.69
619.921	33.52
620.112	33.55
620.303	33.45
620.494	33.24
620.686	33.3
620.877	33.14
621.068	33.23
621.259	33.36
621.451	33.52
621.642	33.68
621.833	33.85
622.024	34.2
622.215	34.11
622.406	33.88
622.597	34.18
622.788	34.29
622.98	34.35
623.171	34.17
623.362	33.64
623.553	33.62
623.744	33.5
623.935	33.08
624.126	33.09
624.317	33.04
624.508	33.13
624.698	32.96
624.889	32.78
625.08	33.03
625.271	32.91
625.462	33.04
625.653	33.15
625.844	33.23
626.034	33.38
626.225	33.32
626.416	33.52
626.607	33.6
626.798	33.67
626.988	33.72
627.179	33.69
627.37	33.82
627.56	34.07
627.751	34.04
627.942	33.91
628.132	34.11
628.323	34.23
628.514	34.04
628.704	34.35
628.895	34.32
629.085	34.55
629.276	34.81
629.466	34.8
629.657	34.37
629.847	34.06
630.038	34.03
630.228	33.83
630.419	34
630.609	34
630.8	33.9
630.99	33.79
631.181	33.84
631.371	33.54
631.561	33.42
631.752	33.61
631.942	33.8
632.132	33.86
632.323	33.85
632.513	33.65
632.703	33.67
632.893	33.26
633.084	33.18
633.274	33.19
633.464	33.19
633.654	33.32
633.844	33.36
634.034	33.48
634.225	33.56
634.415	33.62
634.605	33.71
634.795	33.6
634.985	33.62
635.175	33.49
635.365	33.24
635.555	33.21
635.745	33.28
635.935	33.29
636.125	32.99
636.315	32.68
636.505	32.59
636.695	32.03
636.885	32.14
637.075	32.49
637.265	32.83
637.455	32.75
637.644	32.59
637.834	32.58
638.024	32.57
638.214	32.52
638.404	32.98
638.593	32.9
638.783	33.24
638.973	32.97
639.163	32.53
639.352	32.6
639.542	32.63
639.732	32.77
639.921	32.78
640.111	33.24
640.301	33.67
640.49	33.32
640.68	33.68
640.87	33.63
641.059	33.88
641.249	34.12
641.438	33.87
641.628	34.31
641.817	34.23
642.007	34.09
642.196	33.37
642.386	33.49
642.575	33.27
642.764	33.19
642.954	33.16
643.143	33.22
643.333	32.99
643.522	33.15
643.711	32.91
643.901	33.14
644.09	33.26
644.279	33.62
644.469	33.18
644.658	33.57
644.847	33.28
645.036	33.14
645.226	33.08
645.415	33.31
645.604	33.47
645.793	33.19
645.982	33.02
646.171	32.89
646.361	33.03
646.55	33.16
646.739	33.2
646.928	33.27
647.117	33.11
647.306	33.48
647.495	33.36
647.684	33.31
647.873	33.69
648.062	33.92
648.251	33.5
648.44	33.24
648.629	33.07
648.818	32.91
649.007	33.01
649.196	33.49
649.384	33.2
649.573	33.44
649.762	33.41
649.951	33.11
650.14	32.63
650.328	32.99
650.517	32.69
650.706	33
650.895	32.97
651.083	33.22
651.272	32.96
651.461	33.02
651.65	32.78
651.838	32.49
652.027	32.48
652.216	32.75
652.404	32.92
652.593	33.21
652.781	33.09
652.97	33.52
653.158	33.15
653.347	33.08
653.535	32.53
653.724	32.6
653.912	32.88
654.101	33.37
654.289	33.39
654.478	33.24
654.666	33.44
654.855	33.55
655.043	33.13
655.231	33.58
655.42	33.37
655.608	33.95
655.796	33.85
655.985	33.67
656.173	33.15
656.361	33.35
656.55	33.33
656.738	33
656.926	32.95
657.114	33.39
657.302	32.91
657.491	32.94
657.679	33.08
657.867	33.03
658.055	33.14
658.243	33.52
658.431	33.34
658.619	33.31
658.807	33.17
658.996	33.23
659.184	32.75
659.372	32.95
659.56	33.36
659.748	32.92
659.936	32.93
660.124	33.04
660.311	32.86
660.499	32.81
660.687	32.81
660.875	33.2
661.063	33.44
661.251	33.81
661.439	33.64
661.627	33.3
661.814	33.79
662.002	33.95
662.19	33.76
662.378	33.78
662.565	33.97
662.753	33.48
662.941	33.14
663.129	32.11
663.316	31.63
663.504	31.84
663.692	32.28
663.879	32.03
664.067	31.77
664.254	31.61
664.442	31.45
664.63	31.18
664.817	31.88
665.005	32.42
665.192	33.01
665.38	32.62
665.567	32.43
665.755	32.48
665.942	32.83
666.13	32.54
666.317	33.39
666.504	33.72
666.692	34.17
666.879	34.47
667.067	34.09
667.254	34.03
667.441	34.91
667.629	35.03
667.816	34.59
668.003	34.04
668.19	34.27
668.378	33.83
668.565	33.3
668.752	32.97
668.939	32.37
669.127	31.82
669.314	31.76
669.501	31.59
669.688	31.47
669.875	31.59
670.062	31.32
670.249	31.53
670.436	31.45
670.623	31.55
670.81	31.38
670.997	31.15
671.184	31.71
671.371	32.03
671.558	32.33
671.745	32.22
671.932	32.18
672.119	32.82
672.306	32.7
672.493	32.74
672.68	33.06
672.867	33.77
673.054	34.11
673.24	34.45
673.427	34.24
673.614	33.97
673.801	34.31
673.988	34.19
674.174	34.46
674.361	34.64
674.548	34.39
674.734	34.03
674.921	33.2
675.108	33.17
675.294	32.92
675.481	33.14
675.668	33.04
675.854	32.99
676.041	32.82
676.227	32.65
676.414	32.48
676.601	32.59
676.787	32.99
676.974	32.98
677.16	32.77
677.347	32.77
677.533	32.57
677.719	32.18
677.906	32.2
678.092	32.42
678.279	32.36
678.465	32.73
678.651	32.8
678.838	32.81
679.024	32.91
679.21	33.24
679.397	33.69
679.583	33.7
679.769	33.84
679.955	33.92
680.142	34.23
680.328	34.35
680.514	34.15
680.7	34.25
680.886	33.98
681.073	34.12
681.259	34.34
681.445	33.95
681.631	33.99
681.817	34.06
682.003	33.98
682.189	33.58
682.375	33.39
682.561	33
682.747	32.75
682.933	32.62
683.119	32.44
683.305	31.96
683.491	32.33
683.677	32.17
683.863	32.23
684.049	32.05
684.235	32.25
684.42	32.1
684.606	32.57
684.792	32.76
684.978	32.75
685.164	32.83
685.349	32.78
685.535	32.24
685.721	32.47
685.907	32.26
686.092	32.45
686.278	32.38
686.464	32.78
686.649	32.41
686.835	32.27
687.021	32.87
687.206	32.89
687.392	33.12
687.577	33.52
687.763	33.31
687.948	33.33
688.134	33.09
688.319	33.08
688.505	32.75
688.69	33.86
688.876	34.09
689.061	33.83
689.247	34.01
689.432	34.19
689.618	33.93
689.803	34.39
689.988	34.86
690.174	35.19
690.359	35.46
690.544	35.72
690.73	34.78
690.915	34.7
691.1	34.8
691.285	34.45
691.471	34.03
691.656	33.66
691.841	33.28
692.026	33.01
692.211	32.26
692.396	32.07
692.582	31.56
692.767	32.05
692.952	31.5
693.137	31.01
693.322	31.57
693.507	31.7
693.692	31.54
693.877	32.14
694.062	32.16
694.247	32.96
694.432	33.17
694.617	33.7
694.802	32.81
694.987	33.41
695.172	33.83
695.357	34.09
695.541	34.12
695.726	34.56
695.911	34.17
696.096	34.08
696.281	34.22
696.466	33.68
696.65	33.52
696.835	34.06
697.02	34.19
697.204	33.59
697.389	33
697.574	33.05
697.759	33.03
697.943	32.76
698.128	32.93
698.312	32.98
698.497	33.33
698.682	33.27
698.866	33.01
699.051	33.22
699.235	33.68
699.42	33.7
699.604	33.93
699.789	33.81
699.973	33.79
700.158	33.81
700.342	33.74
700.527	33.68
700.711	33.54
700.895	33.28
701.08	32.78
701.264	32.78
701.448	32.78
701.633	32.05
701.817	32.06
702.001	32.07
702.186	31.91
702.37	31.91
702.554	31.3
702.738	31.6
702.923	32.06
703.107	31.86
703.291	31.18
703.475	30.95
703.659	31.13
703.843	31.16
704.027	31.6
704.212	31.39
704.396	31.01
704.58	31.24
704.764	31.16
704.948	31.44
705.132	31.73
705.316	32.41
705.5	32.86
705.684	32.78
705.868	32.34
706.052	31.95
706.235	32.42
706.419	32.58
706.603	31.94
706.787	32.03
706.971	32.47
707.155	32.34
707.339	31.96
707.522	32.41
707.706	32.95
707.89	33.17
708.074	33.79
708.257	33.25
708.441	33.29
708.625	34.21
708.808	34.12
708.992	33.29
709.176	32.79
709.359	33.07
709.543	32.2
709.727	31.49
709.91	31.56
710.094	30.22
710.277	30.15
710.461	30.14
710.644	30.34
710.828	30.39
711.011	31.48
711.195	31.86
711.378	31.57
711.562	32.49
711.745	33.02
711.928	32.61
712.112	33.35
712.295	34.02
712.478	33.58
712.662	34.06
712.845	33.67
713.028	32.34
713.212	32.47
713.395	32.48
713.578	31.53
713.761	31.46
713.945	31.95
714.128	31.64
714.311	30.57
714.494	30.41
714.677	30.34
714.86	30.54
715.043	31.65
715.227	31.7
715.41	32.37
715.593	32.49
715.776	32.52
715.959	32.08
716.142	32.26
716.325	33.06
716.508	33.79
716.691	33.31
716.874	33.85
717.057	33.36
717.239	32.92
717.422	32.55
717.605	32.35
717.788	31.61
717.971	32.91
718.154	32.89
718.337	33.13
718.519	32.78
718.702	32.19
718.885	31.84
719.068	32.42
719.25	32.83
719.433	32.38
719.616	32.94
719.798	34.06
719.981	32.4
720.164	33.23
720.346	32.86
720.529	33.03
720.712	34.05
720.894	33.43
721.077	32.31
721.259	32.76
721.442	32.31
721.624	32.53
721.807	31.84
721.989	32.96
722.172	32.55
722.354	32.76
722.537	33.21
722.719	32.4
722.901	32.25
723.084	33.32
723.266	32.64
723.448	33.65
723.631	32.61
723.813	32.71
723.995	31.96
724.178	31.62
724.36	30.67
724.542	29.27
724.724	28.75
724.907	28.39
725.089	26.49
725.271	26.79
725.453	25.74
725.635	26.27
725.817	25.58
725.999	25.14
726.181	24.5
726.364	24.66
726.546	25.35
726.728	25.52
726.91	25.81
727.092	26.94
727.274	26.31
727.456	26.64
727.638	26.52
727.819	27.51
728.001	28.04
728.183	28.95
728.365	28.61
728.547	28.16
728.729	28.03
728.911	29.16
729.093	29.48
729.274	29.65
729.456	29.38
729.638	29.52
729.82	30.23
730.001	30.19
730.183	29.49
730.365	30.67
730.546	31.47
730.728	32.2
730.91	31.29
731.091	31.41
731.273	31.62
731.455	32.29
731.636	32.83
731.818	32.01
731.999	32.27
732.181	32.79
732.362	32.78
732.544	32
732.725	31.47
732.907	32.48
733.088	32.41
733.27	32.92
733.451	33.31
733.633	32.19
733.814	31.96
733.995	32.79
734.177	33.62
734.358	32.9
734.539	33.06
734.721	34.08
734.902	33.5
735.083	32.82
735.264	32.87
735.446	32.15
735.627	33.14
735.808	33.17
735.989	32.16
736.17	30.77
736.351	31.38
736.533	31.16
736.714	30.22
736.895	30.4
737.076	31.23
737.257	30.43
737.438	30.86
737.619	29.79
737.8	29.98
737.981	29.97
738.162	29.09
738.343	28.73
738.524	29.52
738.705	30.2
738.886	30.12
739.067	29.42
739.247	28.95
739.428	28.21
739.609	28.81
739.79	28.98
739.971	28.35
740.151	29.2
740.332	28.51
740.513	28.53
740.694	27.8
740.874	27.48
741.055	27.84
741.236	27.83
741.417	27.98
741.597	27.94
741.778	27.49
741.958	28.68
742.139	28.96
742.32	29.38
742.5	29.94
742.681	29.8
742.861	29.95
743.042	29.32
743.222	30.51
743.403	31.36
743.583	31.32
743.764	31.26
743.944	30.66
744.124	31.18
744.305	30.15
744.485	29.9
744.666	29.37
744.846	29.42
745.026	28.67
745.207	28.11
745.387	27.05
745.567	27.03
745.747	25.96
745.928	26.52
746.108	26.45
746.288	27.27
746.468	26.04
746.648	26.43
746.829	25.96
747.009	28.31
747.189	27.98
747.369	27.48
747.549	28.21
747.729	28.88
747.909	28.89
748.089	28.57
748.269	29.24
748.449	29.95
748.629	30.67
748.809	30.72
748.989	30.85
749.169	31.77
749.349	32.61
749.529	31.69
749.709	33.01
749.889	32.04
750.068	32.24
750.248	31.54
750.428	31.58
750.608	31.74
750.788	31.38
750.967	29.68
751.147	29.75
751.327	30.62
751.507	30.2
751.686	28.67
751.866	29.41
752.046	28.88
752.225	28.57
752.405	27.65
752.585	26.51
752.764	26.71
752.944	26.91
753.123	26.02
753.303	24.46
753.482	26.99
753.662	27.4
753.841	26.01
754.021	27
754.2	27.61
754.38	28.27
754.559	29.07
754.739	28.38
754.918	28.25
755.097	28.21
755.277	28.86
755.456	28.41
755.635	29.89
755.815	30.7
755.994	29.5
756.173	29.36
756.352	29.73
756.532	29.58
756.711	30.9
756.89	30.52
757.069	31.27
757.248	31.3
757.427	30.97
757.607	30.55
757.786	30.42
757.965	30.03
758.144	29.42
758.323	29.14
758.502	27.86
758.681	27.41
758.86	27.86
759.039	27.05
759.218	25.97
759.397	24.83
759.576	24.72
759.755	26.33
759.934	27.23
760.113	29.08
760.291	29.25
760.47	29.28
760.649	29.37
760.828	28.97
761.007	29.3
761.186	30.18
761.364	31.98
761.543	31.38
761.722	31.13
761.901	30.78
762.079	30.74
762.258	31.22
762.437	32.65
762.615	32.76
762.794	32.62
762.972	32.37
763.151	32.5
763.33	32.11
763.508	31.5
763.687	31.5
763.865	31.35
764.044	30.04
764.222	30.26
764.401	29.48
764.579	28.83
764.758	29.38
764.936	29.56
765.114	30.31
765.293	29.44
765.471	30.25
765.65	29.55
765.828	29.71
766.006	30.4
766.184	29.63
766.363	30.4
766.541	29.85
766.719	31.05
766.898	29.76
767.076	29.06
767.254	28.27
767.432	28.03
767.61	26.36
767.788	26.88
767.967	24.73
768.145	23.69
768.323	23.7
768.501	24.62
768.679	23.16
768.857	22.45
769.035	22.17
769.213	23.65
769.391	24.94
769.569	27.37
769.747	26.99
769.925	27.97
770.103	28.6
770.281	26.91
770.459	27.27
770.636	27.39
770.814	30.35
770.992	28.55
771.17	27.31
771.348	25.82
771.525	24.68
771.703	24.81
771.881	26.51
772.059	26.88
772.236	27.65
772.414	29.02
772.592	29.23
772.769	26.92
772.947	29.42
773.125	29.65
773.302	30.48
773.48	30.48
773.657	27.74
773.835	27.28
774.013	26.43
774.19	25.46
774.368	23.59
774.545	21.05
774.723	21.05
774.9	20.03
775.077	18.94
775.255	16.36
775.432	18.39
775.61	19.03
775.787	19.01
775.964	15.69
776.142	16.09
776.319	19.59
776.496	21.69
776.674	25.16
776.851	24.89
777.028	25.71
777.205	27.12
777.382	25.75
777.56	26.84
777.737	26.12
777.914	28.43
778.091	30.49
778.268	28.11
778.445	27.2
778.622	26.5
778.8	27.97
778.977	28.18
779.154	27.69
779.331	30.17
779.508	30.1
779.685	30.51
779.862	33.9
780.038	31.64
780.215	31.54
780.392	30.77
780.569	29.81
780.746	27.33
780.923	25.01
781.1	24.22
781.277	23.49
781.453	22.04
781.63	21.68
781.807	20.56
781.984	20.5
782.16	19.4
782.337	20.67
782.514	19.69
782.691	18.01
782.867	16.04
783.044	16.02
783.221	14
783.397	16.39
783.574	18.08
783.75	17.36
783.927	21.5
784.103	23.7
784.28	22.1
784.456	21.18
784.633	24.79
784.809	29.29
784.986	28.86
785.162	25.9
785.339	25.25
785.515	23.15
785.692	23.94
785.868	21.61
786.044	21.54
786.221	23.11
786.397	24.2
786.573	23.79
786.749	25.23
786.926	27.84
787.102	31.41
787.278	35.48
787.454	34.14
787.631	34.63
787.807	33.82
787.983	31.64
788.159	31.27
788.335	28.88
788.511	26.19
788.687	25.51
788.863	26.05
789.039	27.24
789.216	23.4
789.392	27.34
789.568	26.81
789.744	27.65
789.919	29.31
790.095	29.49
790.271	33.1
790.447	33.27
790.623	29.68
790.799	26.51
790.975	24.54
791.151	24.54
791.327	23.4
791.502	21.34
791.678	21.39
791.854	19.34
792.03	17.99
792.205	18.08
792.381	21.89
792.557	29.2
792.733	28.79
792.908	28.99
793.084	28.51
793.259	26.75
793.435	25.03
793.611	22.6
793.786	22.34
793.962	23.53
794.137	20.86
794.313	18.93
794.488	14.64
794.664	12.54
794.839	12.21
795.015	13.8
795.19	12.62
795.366	14.24
795.541	15.82
795.716	19.38
795.892	21.82
796.067	25.1
796.242	23.12
796.418	23.87
796.593	25.23
796.768	24.93
796.944	24.85
797.119	27.24
797.294	27.87
797.469	30.52
797.644	28.51
797.82	26.2
797.995	21.99
798.17	23.35
798.345	19.81
798.52	23.1
798.695	21.86
798.87	20.78
799.045	17.85
799.22	19.97
799.395	17.71
799.57	17.67
799.745	17.3
799.92	17.31
800.095	16.62
800.27	18.95
800.445	19.56
800.62	20.69
800.795	19.21
800.97	24.51
801.145	23.09
801.319	22.13
801.494	20.44
801.669	23.91
801.844	24.96
802.018	25.45
802.193	26.51
802.368	25.6
802.543	26.53
802.717	28.05
802.892	23.81
803.067	18.13
803.241	20.67
803.416	24.3
803.59	20.4
803.765	22.89
803.94	24.29
804.114	22.56
804.289	22.51
804.463	24.49
804.638	23.64
804.812	25.04
804.986	27.71
805.161	26.77
805.335	24.56
805.51	26.3
805.684	24.85
805.858	23.51
806.033	26.91
806.207	26.15
806.381	24.2
806.556	26.87
806.73	26.16
806.904	27
807.078	28.09
807.253	29.03
807.427	24.45
807.601	24.2
807.775	26.66
807.949	25.1
808.123	24.54
808.298	24.31
808.472	26.38
808.646	23.67
808.82	21.09
808.994	18.99
809.168	18.66
809.342	23.32
809.516	23.84
809.69	23.28
809.864	21.74
810.038	24.24
810.212	25.66
810.385	25.22
810.559	27.94
810.733	33.86
810.907	34.97
811.081	37.9
811.255	34.56
811.428	34.57
811.602	36.74
811.776	34.95
811.95	34.68
812.123	33.46
812.297	31.38
812.471	33.07
812.644	31.96
812.818	33.17
812.992	25.37
813.165	24.08
813.339	24.17
813.512	21.67
813.686	21.05
813.86	20.28
814.033	18.43
814.207	12.7
814.38	9.42
814.554	12.34
814.727	5.32
814.9	1.9
815.074	8.9
815.247	9.48
815.421	5.1
815.594	6.1
815.767	3.93
815.941	6.8
816.114	13.3
816.287	16.21
816.46	12.53
816.634	11.59
816.807	17.51
816.98	16.18
817.153	12.61
817.327	12.47
817.5	12.21
817.673	10.03
817.846	6.8
818.019	8.74
818.192	7.26
818.365	8.65
818.538	14.74
818.711	12.05
818.884	8.9
819.057	11.54
819.23	13.75
819.403	14.76
819.576	17.98
819.749	20.81
819.922	19.8
820.095	18.92
820.268	20.64
820.441	21.88
820.614	27.39
820.786	29.02
820.959	30.95
821.132	31.04
821.305	30.12
821.477	28.97
821.65	29.44
821.823	29.46
821.996	29.57
822.168	29.04
822.341	28.91
822.514	27.54
822.686	27.71
822.859	27.73
823.031	27.87
823.204	28.33
823.376	28.83
823.549	28.16
823.722	28.45
823.894	28.92
824.067	28.28
824.239	28.21
824.411	28.46
824.584	28.54
824.756	27.85
824.929	27.72
825.101	28.01
825.273	27.2
825.446	29.93
825.618	28.63
825.79	27.76
825.963	28.65
826.135	28.53
826.307	27.72
826.479	28.66
826.652	28.47
826.824	28.97
826.996	27.76
827.168	29.13
827.34	27.24
827.512	27.72
827.684	27.56
827.856	26.2
828.029	26.04
828.201	26.24
828.373	25.12
828.545	26.14
828.717	25.46
828.889	24.53
829.061	23.82
829.232	22.19
829.404	21.95
829.576	21.16
829.748	20.74
829.92	19.17
830.092	20.49
830.264	18.52
830.436	17.96
830.607	14.65
830.779	17.63
830.951	16.25
831.123	18
831.294	18.95
831.466	23.94
831.638	20.03
831.809	21.43
831.981	21.98
832.153	24.96
832.324	24.45
832.496	24.75
832.667	23.92
832.839	25.18
833.011	24.97
833.182	24.38
833.354	21.12
833.525	28.16
833.697	27.86
833.868	27.48
834.039	28.7
834.211	28.38
834.382	31.01
834.554	30.71
834.725	30.88
834.896	29.92
835.068	29.2
835.239	27.25
835.41	28.31
835.581	27.79
835.753	26.87
835.924	23.5
836.095	21.77
836.266	15.68
836.438	15.69
836.609	17.1
836.78	18.93
836.951	18.8
837.122	18.08
837.293	16.22
837.464	13.35
837.635	11.1
837.806	16.9
837.977	18.6
838.148	21.39
838.319	23.39
838.49	19.81
838.661	15.14
838.832	16.83
839.003	24.01
839.174	17.8
839.345	26.41
839.516	31.07
839.687	24.86
839.857	23.36
840.028	24.29
840.199	26.5
840.37	28.44
840.54	29.82
840.711	26.51
840.882	24.97
841.053	29.54
841.223	27.39
841.394	22.8
841.564	23.44
841.735	24.12
841.906	30.33
842.076	24.13
842.247	13.99
842.417	15
842.588	20.03
842.758	22.26
842.929	17.38
843.099	27.17
843.27	27.47
843.44	31.85
843.611	29.09
843.781	15.14
843.951	12.16
844.122	20.11
844.292	19.74
844.462	19.93
844.633	11.98
844.803	15.91
844.973	3.84
845.144	10.93
845.314	14.47
845.484	14.81
845.654	25.97
845.824	34.87
845.995	23.51
846.165	24.57
846.335	18.9
846.505	16.98
846.675	28.96
846.845	28.25
847.015	34.03
847.185	12.96
847.355	7.35
847.525	6.9
847.695	16.92
847.865	34.78
848.035	38.23
848.205	33.95
848.375	33.16
848.545	30.72
848.715	27.2
848.884	23.83
849.054	33.81
849.224	40.85
849.394	38.36
849.564	42.43
849.733	31.05
849.903	19.44
850.073	17.35
850.243	35.29
850.412	47.39
850.582	41.21
850.752	33.35
850.921	24.33
851.091	32.43
851.26	28.5
851.43	-1.89
851.599	3.77
851.769	5.45
851.939	6.98
852.108	3.29
852.278	-9.81
852.447	-13.16
852.616	-39.06
852.786	-84.24
852.955	-67.87
853.125	-71.68
853.294	-43.65
853.463	-62.98
853.633	-42.42
853.802	-38.87
853.971	-49.55
854.141	-76.46
854.31	-36.46
854.479	-17.05
854.648	-6.05
854.818	1.81
854.987	23.93
855.156	11.47
855.325	24.96
855.494	15.35
855.663	21.77
855.832	19.97
856.001	35.87
856.171	20.26
856.34	31.59
856.509	19.78
856.678	6.41
856.847	4.78
857.016	10.18
857.185	5.51
857.353	28.86
857.522	24.63
857.691	14.32
857.86	4.07
858.029	-1.89
858.198	-4.58
858.367	-9.46
858.535	3.97
858.704	2.92
858.873	-6.41
859.042	21.14
859.21	7.05
859.379	23.2
859.548	-22.39
859.717	8.02
859.885	41.58
860.054	9.79
860.222	42.81
860.391	39.76
860.56	38.87
860.728	85.14
860.897	-53.64
861.065	-46.08
861.234	-166.65
861.402	-28.28
861.571	7.58
861.739	-17.51
861.908	0.93
862.076	7.86
862.244	7.58
862.413	-8.12
862.581	-16.89
862.749	-17.69
862.918	-10.71
863.086	-8.6
863.254	-8.94
863.423	-15.65
863.591	-16.61
863.759	-24.36
863.927	-13.86
864.096	-11.08
864.264	-6.71
864.432	-1.68
864.6	12.2
864.768	2.95
864.936	-1.84
865.104	16.31
865.272	7.81
865.44	13.81
865.608	27.55
865.776	0.59
865.944	-53.46
866.112	-35.12
866.28	-19.91
866.448	-43.09
866.616	-8.49
866.784	0.65
866.952	-6.84
867.12	-36.67
867.288	-19.7
867.455	-25.1
867.623	-8.08
867.791	34.9
867.959	32.36
868.127	43.73
868.294	24.01
868.462	17.8
868.63	19.54
868.797	33.82
868.965	44.28
869.133	35.03
869.3	15.35
869.468	13.76
869.636	-3.83
869.803	17.24
869.971	14.47
870.138	4.12
870.306	-6.03
870.473	-18.36
870.641	-26.25
870.808	-33.11
870.975	-36.81
871.143	-28.22
871.31	-20.62
871.478	-7.14
871.645	-35.35
871.812	-73.04
871.98	-41.37
872.147	-49.21
872.314	-30.99
872.482	-61.51
872.649	-32.98
872.816	7.39
872.983	10.95
873.15	-25.99
873.318	-50.87
873.485	-19.51
873.652	2.24
873.819	-10.81
873.986	-21.76
874.153	-44.7
874.32	-28.99
874.487	-67.81
874.654	-144.03
874.821	-192.74
874.988	-114.85
875.155	-106.07
875.322	-136.96
875.489	-401.42
875.656	-291.42
875.823	-368.99
875.99	-149.89
876.157	-709.29
876.324	-91975
876.49	401.03
876.657	404.8
876.824	290.15
876.991	490.45
877.157	1370.27
877.324	731.61
877.491	2661.26
877.658	-351.84
877.824	764.44
877.991	-795.13
878.157	-258.77
878.324	-140.36
878.491	-136.5
878.657	-82.64
878.824	-256.5
878.99	-142.27
879.157	-38.04
879.323	-13.15
879.49	-14.48
879.656	14.35
879.823	35.46
879.989	32.72
880.156	43.62
880.322	40.37
880.488	39.49
880.655	49.2
880.821	26.53
880.987	17.75
881.154	13.07
881.32	14.73
881.486	17.06
881.652	13.61
881.819	17.3
881.985	16.09
882.151	17.12
882.317	16.03
882.483	14.8
882.649	23.23
882.816	23.44
882.982	22.01
883.148	21.49
883.314	22.08
883.48	23.52
883.646	22.14
883.812	22.01
883.978	19.62
884.144	23.09
884.31	21.91
884.476	21.32
884.642	22.98
884.807	26.4
884.973	22.31
885.139	23.59
885.305	26.84
885.471	27.51
885.637	27.62
885.802	32.82
885.968	30.28
886.134	35.23
886.3	30.89
886.465	27.21
886.631	24.13
886.797	35.14
886.962	25.69
887.128	16.87
887.293	21.01
887.459	15.81
887.625	8.36
887.79	14.26
887.956	-5.01
888.121	3.4
888.287	6.11
888.452	7.39
888.618	-4.56
888.783	1.66
