Data from 2938095_Reflection_3.txt Node
Date: Sat Jul 11 19:05:04 EDT 2015
User: robert
Spectrometer: USB4E03001
Autoset integration time: false
Trigger mode: 4
Integration Time (sec): 1.000000E-1
Scans to average: 10
Electric dark correction enabled: true
Nonlinearity correction enabled: false
Boxcar width: 5
Stray light correction enabled: false
XAxis mode: Wavelengths
Stop averaging: false
Number of Pixels in Spectrum: 3648
>>>>>Begin Spectral Data<<<<<
177.566	128.04
177.785	96.35
178.005	140.71
178.225	122.43
178.445	66.54
178.665	-203.25
178.885	107.46
179.105	359.49
179.324	-806.84
179.544	49.9
179.764	70.66
179.984	130.56
180.204	103.23
180.423	252.85
180.643	-94.87
180.863	51.49
181.083	11.07
181.302	14.06
181.522	-45.17
181.742	9.28
181.961	158.11
182.181	2355.29
182.401	1078.78
182.621	-231.16
182.84	669.52
183.06	1274.62
183.279	-675.14
183.499	-137.4
183.719	-80.93
183.938	-44.22
184.158	-14.96
184.377	13.2
184.597	11.78
184.816	5.83
185.036	21.22
185.256	24.74
185.475	34.42
185.695	40.62
185.914	18.54
186.134	19.87
186.353	43.88
186.572	32.89
186.792	2.67
187.011	31
187.231	26.92
187.45	17.02
187.67	22.72
187.889	42.15
188.108	39.33
188.328	46.48
188.547	36.92
188.766	23.43
188.986	22.13
189.205	19.49
189.424	2.76
189.644	5.81
189.863	5.19
190.082	3.46
190.302	-62.46
190.521	-55.41
190.74	-108.98
190.959	-181.72
191.178	808.88
191.398	2459.34
191.617	1288.62
191.836	1206.33
192.055	200.99
192.274	701.56
192.494	386.97
192.713	325.28
192.932	320.89
193.151	400.98
193.37	252.11
193.589	255.75
193.808	354.31
194.027	1327.62
194.246	1506.73
194.465	-5951.92
194.685	254.58
194.904	251.74
195.123	107.44
195.342	105.52
195.561	11.8
195.78	73.51
195.999	87.66
196.218	45.39
196.436	10.68
196.655	34.16
196.874	43.13
197.093	36.01
197.312	58.23
197.531	88.52
197.75	89.62
197.969	112.55
198.188	105.54
198.407	97.07
198.625	72.39
198.844	91.7
199.063	98.98
199.282	108.2
199.501	136.95
199.719	132.35
199.938	70.85
200.157	33.46
200.376	39.83
200.594	39.77
200.813	23.87
201.032	16.98
201.251	-49.68
201.469	-58.48
201.688	-92.85
201.907	-67.12
202.125	1.18
202.344	-28.1
202.563	-44.11
202.781	-40.98
203	-17.16
203.218	-5.9
203.437	-64.62
203.656	-62.45
203.874	-194.76
204.093	41
204.311	-153.03
204.53	4556.92
204.748	-886.86
204.967	105.54
205.185	284.62
205.404	-378.71
205.622	-71.3
205.841	12.36
206.059	5.78
206.278	20.17
206.496	-26.96
206.715	14.79
206.933	27.15
207.151	48.26
207.37	-50.23
207.588	-86.35
207.806	58.21
208.025	141.04
208.243	-217.09
208.461	226.31
208.68	190.66
208.898	113.37
209.116	-64.76
209.335	121.58
209.553	4.38
209.771	30.84
209.989	89.76
210.208	176.5
210.426	28.51
210.644	226.56
210.862	263.97
211.081	-58.31
211.299	1838.46
211.517	-292.46
211.735	239.21
211.953	120.25
212.171	48.75
212.39	57.79
212.608	38.46
212.826	61.33
213.044	45.22
213.262	40.04
213.48	40.45
213.698	39.51
213.916	39.89
214.134	50.84
214.352	69.12
214.57	107.59
214.788	76.98
215.006	36.43
215.224	28.85
215.442	33.99
215.66	49.04
215.878	104.34
216.096	112.28
216.314	136.66
216.532	106.57
216.75	72.03
216.968	58.82
217.185	44.14
217.403	58.13
217.621	53
217.839	53.87
218.057	68.83
218.275	-49.94
218.492	-22.17
218.71	-0.12
218.928	-26.21
219.146	-16.34
219.363	0.99
219.581	10.55
219.799	-17.21
220.017	-30.93
220.234	-62.08
220.452	-66.52
220.67	18.77
220.887	67.06
221.105	43.74
221.323	50.27
221.54	37.52
221.758	29.64
221.976	42.41
222.193	41.86
222.411	62.58
222.629	80.03
222.846	64.72
223.064	42.91
223.281	26.38
223.499	22.23
223.716	9.74
223.934	22.78
224.151	18.14
224.369	5.72
224.586	16.05
224.804	-41.04
225.021	-2.57
225.239	-19.9
225.456	20.78
225.674	23.66
225.891	8.28
226.108	18.21
226.326	4.68
226.543	2.46
226.76	6.15
226.978	-2.14
227.195	11.99
227.413	2.49
227.63	-0.38
227.847	-1.81
228.064	-2.13
228.282	0.88
228.499	5.36
228.716	8.41
228.934	10.46
229.151	11.09
229.368	9.85
229.585	9.09
229.802	9.87
230.02	11.01
230.237	12.87
230.454	12.58
230.671	11.87
230.888	9.33
231.105	8.85
231.323	11.75
231.54	11.19
231.757	14.86
231.974	14.42
232.191	11.62
232.408	18.63
232.625	13.54
232.842	16.66
233.059	16.69
233.276	21.31
233.493	27.09
233.71	21.17
233.927	23.12
234.144	18.3
234.361	18.48
234.578	14.5
234.795	9.14
235.012	12.71
235.229	13.17
235.446	13.65
235.663	2.92
235.879	1.15
236.096	6.45
236.313	8.44
236.53	13.34
236.747	14.68
236.964	18.52
237.181	17.22
237.397	23.3
237.614	23.75
237.831	14.96
238.048	22.08
238.264	21.54
238.481	22.24
238.698	23.36
238.915	22.24
239.131	26.79
239.348	31.23
239.565	29.64
239.781	22.48
239.998	24.5
240.215	25.83
240.431	26.77
240.648	23.61
240.865	21.37
241.081	21.02
241.298	20.4
241.514	15.39
241.731	14.25
241.947	14.58
242.164	14.07
242.38	13.74
242.597	15.24
242.814	13.85
243.03	14.9
243.246	15.68
243.463	12.86
243.679	12.58
243.896	13.41
244.112	13.05
244.329	12.06
244.545	12.73
244.762	11.74
244.978	9.08
245.194	8.91
245.411	9.97
245.627	5.76
245.843	6.6
246.06	5.94
246.276	4.86
246.492	3.37
246.709	5.1
246.925	4.73
247.141	5.59
247.357	6.56
247.574	7.18
247.79	5.93
248.006	6.41
248.222	6.18
248.439	4.78
248.655	5.47
248.871	6.17
249.087	5.42
249.303	6.14
249.519	5.71
249.736	4.59
249.952	2.86
250.168	4.94
250.384	4.61
250.6	6.81
250.816	9.74
251.032	10.82
251.248	9.33
251.464	11.7
251.68	11.06
251.896	11.8
252.112	12.69
252.328	12.76
252.544	10.61
252.76	12.14
252.976	11.62
253.192	11.29
253.408	8.79
253.624	10.57
253.84	7.76
254.056	8.85
254.272	5.98
254.487	4.1
254.703	6.8
254.919	8.06
255.135	7.43
255.351	7.78
255.567	5.93
255.782	8.41
255.998	3.37
256.214	4.24
256.43	3.1
256.646	3
256.861	5.63
257.077	-1.42
257.293	-0.63
257.508	1.26
257.724	-1.14
257.94	1.12
258.155	1.98
258.371	5.31
258.587	5.38
258.802	6.38
259.018	5.81
259.234	5.41
259.449	6.9
259.665	6.39
259.88	5.16
260.096	5.89
260.312	4.52
260.527	4.82
260.743	4.34
260.958	5.42
261.174	4.55
261.389	5.48
261.605	5.81
261.82	6.82
262.036	7.09
262.251	7.65
262.466	7.3
262.682	10.41
262.897	11.39
263.113	11.51
263.328	7.44
263.543	8.18
263.759	8.73
263.974	9.36
264.189	8.25
264.405	9.74
264.62	11.68
264.835	12.83
265.051	13.1
265.266	10.71
265.481	11.24
265.696	12.53
265.912	12.92
266.127	11.86
266.342	10.17
266.557	8.99
266.773	8.44
266.988	6.36
267.203	6.84
267.418	6.51
267.633	5.7
267.848	7.38
268.064	6.38
268.279	5.11
268.494	5.47
268.709	6.64
268.924	8.34
269.139	7.89
269.354	9.62
269.569	8.61
269.784	8
269.999	9.74
270.214	9.02
270.429	10.41
270.644	11.34
270.859	11.6
271.074	10.81
271.289	10.37
271.504	10.65
271.719	10.29
271.934	10.31
272.149	9.51
272.363	8.99
272.578	8.19
272.793	8.31
273.008	9.72
273.223	7.52
273.438	7.3
273.653	6.38
273.867	6.12
274.082	5.73
274.297	6.36
274.512	8.34
274.726	8.3
274.941	9.97
275.156	9.49
275.371	9.01
275.585	11.92
275.8	10.92
276.015	12.47
276.229	11.16
276.444	10.94
276.659	11.1
276.873	10.98
277.088	11.49
277.302	10.58
277.517	11.57
277.732	11.79
277.946	10.29
278.161	11.36
278.375	9.63
278.59	12.92
278.804	13.33
279.019	13.4
279.233	12.4
279.448	11.74
279.662	10.39
279.877	9.68
280.091	7.54
280.306	5.49
280.52	6.78
280.735	7.03
280.949	5.93
281.163	5.53
281.378	4.65
281.592	5.7
281.806	5.49
282.021	5.94
282.235	6.16
282.449	4.58
282.664	5.66
282.878	6.21
283.092	4.58
283.307	3.69
283.521	4.13
283.735	3.8
283.949	2.62
284.164	3.88
284.378	3.55
284.592	2.87
284.806	3.96
285.02	4.53
285.234	3.81
285.449	5.88
285.663	5.95
285.877	5.1
286.091	5.82
286.305	5.89
286.519	4.78
286.733	5.36
286.947	5.3
287.161	5.67
287.375	5.59
287.589	5.29
287.803	3.82
288.017	4.96
288.231	6.36
288.445	5.17
288.659	5.71
288.873	6.68
289.087	6.36
289.301	5.89
289.515	5.55
289.729	4.38
289.943	3.85
290.157	4.5
290.371	2.23
290.584	1.88
290.798	1.66
291.012	1.62
291.226	2.83
291.44	1.7
291.654	3.91
291.867	3.42
292.081	5.37
292.295	6.27
292.509	5.87
292.722	7.49
292.936	7.01
293.15	8.65
293.364	6.24
293.577	5.34
293.791	5.19
294.005	4.61
294.218	4.55
294.432	3.4
294.645	4.26
294.859	6.03
295.073	6.12
295.286	5.36
295.5	6.14
295.713	7.61
295.927	8.45
296.14	9.57
296.354	9.51
296.568	10.24
296.781	10.83
296.994	10.78
297.208	9.5
297.421	10.19
297.635	10.67
297.848	10.34
298.062	10.09
298.275	9.16
298.489	9.28
298.702	7.77
298.915	8.68
299.129	9.15
299.342	9.18
299.555	10.58
299.769	10.19
299.982	10.03
300.195	9.66
300.409	10.22
300.622	8.71
300.835	9.58
301.048	12.02
301.262	12
301.475	10.77
301.688	10.48
301.901	9.49
302.115	10.39
302.328	10.88
302.541	10.13
302.754	10.59
302.967	12.99
303.18	12.98
303.393	13.11
303.607	12.38
303.82	13.68
304.033	13.25
304.246	14.45
304.459	12.74
304.672	13.29
304.885	14.52
305.098	14.51
305.311	14.6
305.524	13.12
305.737	13.19
305.95	13.69
306.163	13.33
306.376	13.59
306.589	12.34
306.802	13.45
307.015	13.63
307.228	13.7
307.44	13.55
307.653	11.81
307.866	13.69
308.079	13.54
308.292	13.25
308.505	14.11
308.718	14.35
308.93	13.52
309.143	12.47
309.356	12.64
309.569	13.62
309.781	15.47
309.994	16.75
310.207	15.21
310.42	15.04
310.632	14.33
310.845	13.96
311.058	14.57
311.27	16.28
311.483	17.6
311.696	17.19
311.908	15.97
312.121	14.15
312.333	14.5
312.546	16.17
312.759	16.59
312.971	17.08
313.184	15.43
313.396	14.1
313.609	12.15
313.821	12.39
314.034	12.89
314.246	13.78
314.459	14.59
314.671	13.52
314.884	11.36
315.096	11.15
315.309	11.27
315.521	11.43
315.733	11.77
315.946	12.77
316.158	10.61
316.371	10.37
316.583	7.72
316.795	8
317.008	8.5
317.22	9.17
317.432	8.11
317.644	6.81
317.857	8.6
318.069	8.88
318.281	8.66
318.494	8.79
318.706	7.78
318.918	9.9
319.13	8.48
319.342	7.7
319.555	10.55
319.767	12.13
319.979	12.45
320.191	12.61
320.403	12.53
320.615	12.6
320.827	12.97
321.039	14.01
321.252	12.16
321.464	12.4
321.676	12.1
321.888	10.56
322.1	9.76
322.312	10.86
322.524	9.81
322.736	9.45
322.948	8.98
323.16	8.25
323.372	10.93
323.584	12.56
323.796	12.52
324.007	12.07
324.219	11.18
324.431	11.85
324.643	13.49
324.855	15.59
325.067	16.02
325.279	17.79
325.491	20.57
325.702	17.79
325.914	18.19
326.126	19.51
326.338	19.21
326.55	20.09
326.761	19.92
326.973	19.14
327.185	18.07
327.396	17.99
327.608	16.44
327.82	13.8
328.032	13.63
328.243	14.23
328.455	14.8
328.666	17.62
328.878	17.07
329.09	17.63
329.301	18.75
329.513	17.88
329.725	19.08
329.936	21.06
330.148	24.26
330.359	26.99
330.571	26.3
330.782	25.53
330.994	24.27
331.205	25.6
331.417	25.06
331.628	24.3
331.84	25.66
332.051	25.27
332.262	25.12
332.474	24.18
332.685	23.16
332.897	23.24
333.108	24.31
333.319	25.88
333.531	25.25
333.742	25.67
333.953	25.68
334.165	27.07
334.376	28.29
334.587	28.28
334.799	28.62
335.01	29.94
335.221	30.3
335.432	31.07
335.644	30.72
335.855	31.18
336.066	31.13
336.277	30.41
336.488	30.33
336.7	30.07
336.911	30.36
337.122	30.35
337.333	30.16
337.544	30.39
337.755	29.88
337.966	29.92
338.177	30.22
338.388	30.85
338.599	31.85
338.811	31.79
339.022	31.06
339.233	30.64
339.444	31.26
339.655	31.34
339.866	30.38
340.076	29.92
340.287	30.46
340.498	30.41
340.709	31.46
340.92	31.67
341.131	30.01
341.342	30.27
341.553	30.13
341.764	30.12
341.975	30.2
342.185	31.55
342.396	31.75
342.607	31.14
342.818	31.88
343.029	30.64
343.239	31.98
343.45	34.53
343.661	34.31
343.872	35.12
344.082	35.09
344.293	33.89
344.504	34.17
344.714	33.84
344.925	33.19
345.136	32.02
345.346	32.07
345.557	29.94
345.768	28.92
345.978	29.06
346.189	28.27
346.399	28.36
346.61	29.69
346.821	30.22
347.031	30.21
347.242	30.75
347.452	31.58
347.663	31.75
347.873	33.71
348.084	33.51
348.294	34.21
348.504	34.83
348.715	34.79
348.925	33.14
349.136	31.85
349.346	32.42
349.557	33.47
349.767	33.23
349.977	33.04
350.188	30.79
350.398	31.13
350.608	30.35
350.819	30.67
351.029	29.25
351.239	29.73
351.449	30
351.66	29.8
351.87	29.2
352.08	28.52
352.29	29.75
352.501	30.79
352.711	30.78
352.921	31.3
353.131	30.15
353.341	30.98
353.552	31.41
353.762	31.69
353.972	32.15
354.182	32.01
354.392	32.65
354.602	32.46
354.812	32.87
355.022	32.87
355.232	33.22
355.442	33.24
355.652	33.46
355.862	32.95
356.072	33.25
356.282	32.1
356.492	31.48
356.702	31.4
356.912	30.83
357.122	30.75
357.332	30.06
357.542	29.76
357.752	30.34
357.962	30.42
358.171	31
358.381	30.17
358.591	30.52
358.801	30.56
359.011	30.61
359.221	30.5
359.43	30.22
359.64	30.48
359.85	31.21
360.06	30.61
360.269	29.94
360.479	29.89
360.689	29.31
360.899	29.44
361.108	29.36
361.318	29.65
361.528	29.38
361.737	29.06
361.947	29.31
362.156	28.71
362.366	28.99
362.576	29.16
362.785	29.44
362.995	30.33
363.204	30.74
363.414	31.29
363.623	30.26
363.833	30.86
364.042	30.93
364.252	30.01
364.461	30.52
364.671	30.71
364.88	31.27
365.09	31
365.299	30.44
365.509	29.45
365.718	28.22
365.927	29.08
366.137	29.32
366.346	29.14
366.555	29.82
366.765	28.81
366.974	28.42
367.183	27.58
367.393	27.54
367.602	27.94
367.811	28.24
368.021	28.55
368.23	27.73
368.439	27.88
368.648	28.23
368.857	28.11
369.067	27.28
369.276	27.32
369.485	26.86
369.694	26.6
369.903	26.32
370.112	26.43
370.321	26.77
370.531	27.12
370.74	25.89
370.949	25.67
371.158	25.11
371.367	25.55
371.576	26.06
371.785	26.9
371.994	27.07
372.203	27.44
372.412	27.77
372.621	28.06
372.83	27.63
373.039	27.78
373.248	27.39
373.457	28.07
373.666	27.63
373.874	27.47
374.083	27.59
374.292	27.91
374.501	27.68
374.71	26.46
374.919	26.41
375.128	26.63
375.336	26.39
375.545	26.74
375.754	26.21
375.963	27.09
376.171	26.61
376.38	26.31
376.589	26.01
376.798	25.5
377.006	26.12
377.215	26.22
377.424	26.67
377.632	27.17
377.841	26.69
378.05	26.8
378.258	26.25
378.467	26.54
378.675	26.52
378.884	26.86
379.093	26.74
379.301	26.5
379.51	25.86
379.718	25.38
379.927	24.79
380.135	25.12
380.344	25.22
380.552	25.71
380.761	25.17
380.969	24.48
381.177	23.83
381.386	23.93
381.594	23.8
381.803	23.82
382.011	23.45
382.219	23.29
382.428	23.19
382.636	23.06
382.845	23.21
383.053	22.89
383.261	22.66
383.469	22.77
383.678	22.55
383.886	22.45
384.094	22.18
384.302	22.78
384.511	23.01
384.719	22.47
384.927	21.97
385.135	21.35
385.343	21.55
385.552	21.44
385.76	20.98
385.968	21.07
386.176	20.58
386.384	20.43
386.592	20
386.8	19.54
387.008	20.09
387.216	20.4
387.424	20.16
387.633	20.47
387.841	20.57
388.049	20.5
388.257	20.84
388.465	21.03
388.672	20.97
388.88	21.33
389.088	21.54
389.296	21.03
389.504	21.39
389.712	21.57
389.92	20.87
390.128	20.98
390.336	20.96
390.544	21.03
390.751	21.51
390.959	21.5
391.167	21.14
391.375	21.04
391.583	21.35
391.79	21.14
391.998	21.3
392.206	21.39
392.414	21.07
392.621	21.14
392.829	20.77
393.037	20.51
393.244	20.67
393.452	20.34
393.66	20.55
393.867	20.64
394.075	20.28
394.283	20.07
394.49	20.03
394.698	20.29
394.905	20.4
395.113	20.31
395.32	20.37
395.528	20.17
395.735	20.31
395.943	20.23
396.15	19.85
396.358	19.99
396.565	19.77
396.773	19.93
396.98	19.86
397.188	19.66
397.395	19.45
397.602	19.63
397.81	19.88
398.017	20.18
398.225	20
398.432	20.19
398.639	20.24
398.847	20.51
399.054	20.52
399.261	20.72
399.468	20.89
399.676	21
399.883	20.33
400.09	19.97
400.297	19.81
400.505	19.78
400.712	19.56
400.919	19.5
401.126	19.58
401.333	19.42
401.54	19.17
401.748	19.14
401.955	19.26
402.162	19.55
402.369	19.6
402.576	19.41
402.783	19.52
402.99	19.69
403.197	19.65
403.404	19.8
403.611	20.06
403.818	20.28
404.025	20.19
404.232	20.09
404.439	20.41
404.646	20.71
404.853	20.93
405.06	20.84
405.267	20.58
405.474	20.57
405.681	20.28
405.887	20.11
406.094	20.12
406.301	20.06
406.508	20.22
406.715	19.94
406.922	19.61
407.128	19.56
407.335	19.6
407.542	19.87
407.749	20.18
407.955	19.98
408.162	20.11
408.369	20.15
408.575	19.99
408.782	19.63
408.989	19.5
409.195	19.67
409.402	19.54
409.609	19.68
409.815	19.74
410.022	19.35
410.228	19.85
410.435	19.69
410.642	19.54
410.848	19.86
411.055	20.07
411.261	20.35
411.468	20.33
411.674	20.52
411.881	20.47
412.087	20.15
412.294	20.18
412.5	19.9
412.706	20.15
412.913	19.93
413.119	19.95
413.326	20.1
413.532	20.07
413.738	20.42
413.945	20.3
414.151	20.52
414.357	20.54
414.564	20.22
414.77	20.25
414.976	20
415.182	19.95
415.389	19.67
415.595	19.61
415.801	19.46
416.007	19.11
416.214	19.14
416.42	18.89
416.626	19.1
416.832	19.32
417.038	19.23
417.244	19.05
417.45	19.21
417.657	19.3
417.863	19.14
418.069	18.99
418.275	18.97
418.481	18.89
418.687	18.8
418.893	18.68
419.099	18.69
419.305	18.7
419.511	18.67
419.717	18.69
419.923	18.7
420.129	18.58
420.335	18.61
420.541	18.44
420.746	18.37
420.952	18.34
421.158	18.25
421.364	18.13
421.57	18.12
421.776	18.2
421.982	18.08
422.187	18.03
422.393	18.26
422.599	18.14
422.805	18.13
423.01	18.19
423.216	18.37
423.422	18.41
423.628	18.5
423.833	18.51
424.039	18.52
424.245	18.44
424.45	18.32
424.656	18.14
424.862	18.27
425.067	18.46
425.273	18.51
425.478	18.27
425.684	18.3
425.889	18.34
426.095	18.29
426.301	18.29
426.506	18.35
426.712	18.44
426.917	18.45
427.123	18.24
427.328	18.18
427.533	18.1
427.739	18.15
427.944	18.21
428.15	18
428.355	17.94
428.561	17.99
428.766	18.11
428.971	18.29
429.177	18.32
429.382	18.31
429.587	18.26
429.793	18.24
429.998	18.33
430.203	18.28
430.408	18.2
430.614	18.11
430.819	17.98
431.024	18.05
431.229	17.9
431.434	17.66
431.64	17.85
431.845	17.84
432.05	17.76
432.255	17.6
432.46	17.58
432.665	17.86
432.87	17.84
433.076	17.81
433.281	17.67
433.486	17.52
433.691	17.7
433.896	17.61
434.101	17.69
434.306	17.84
434.511	17.91
434.716	17.92
434.921	17.91
435.126	18.04
435.331	17.96
435.535	18.24
435.74	18.19
435.945	18.21
436.15	18.41
436.355	18.52
436.56	18.27
436.765	18.2
436.97	18.23
437.174	18.19
437.379	18.24
437.584	18.27
437.789	17.92
437.993	18.18
438.198	18.17
438.403	18.22
438.608	18.12
438.812	18.22
439.017	18.14
439.222	18.02
439.426	17.94
439.631	17.88
439.836	18.01
440.04	17.95
440.245	17.75
440.45	17.7
440.654	17.75
440.859	17.77
441.063	17.78
441.268	17.98
441.472	18.06
441.677	18.09
441.881	18.15
442.086	18.13
442.29	18.15
442.495	18.31
442.699	18.43
442.904	18.35
443.108	18.31
443.312	18.29
443.517	18.35
443.721	18.26
443.925	18.23
444.13	18.12
444.334	17.99
444.538	18.26
444.743	18.18
444.947	18.1
445.151	17.98
445.356	17.94
445.56	18.01
445.764	17.79
445.968	17.81
446.173	17.8
446.377	17.83
446.581	17.88
446.785	17.63
446.989	17.61
447.193	17.55
447.398	17.49
447.602	17.51
447.806	17.4
448.01	17.49
448.214	17.4
448.418	17.37
448.622	17.36
448.826	17.36
449.03	17.57
449.234	17.53
449.438	17.56
449.642	17.72
449.846	17.6
450.05	17.7
450.254	17.67
450.458	17.86
450.662	17.78
450.866	17.76
451.069	17.59
451.273	17.61
451.477	17.7
451.681	17.64
451.885	17.55
452.089	17.62
452.292	17.51
452.496	17.54
452.7	17.45
452.904	17.72
453.107	17.72
453.311	17.9
453.515	17.83
453.719	17.85
453.922	17.93
454.126	17.95
454.33	17.95
454.533	17.82
454.737	17.74
454.94	17.9
455.144	17.56
455.348	17.52
455.551	17.52
455.755	17.46
455.958	17.3
456.162	17.17
456.365	17.16
456.569	17.17
456.772	17.09
456.976	17.21
457.179	16.96
457.383	17.06
457.586	16.99
457.79	16.84
457.993	16.96
458.196	17.13
458.4	17.25
458.603	17.35
458.807	17.33
459.01	17.51
459.213	17.55
459.417	17.57
459.62	17.61
459.823	17.63
460.026	17.67
460.23	17.58
460.433	17.57
460.636	17.44
460.839	17.31
461.042	17.34
461.246	17.31
461.449	17.2
461.652	17.15
461.855	17.07
462.058	17.13
462.261	17.24
462.464	17.28
462.668	17.33
462.871	17.57
463.074	17.53
463.277	17.56
463.48	17.56
463.683	17.51
463.886	17.48
464.089	17.53
464.292	17.4
464.495	17.54
464.698	17.59
464.901	17.56
465.104	17.57
465.306	17.78
465.509	17.8
465.712	17.69
465.915	17.91
466.118	17.98
466.321	18.01
466.524	18.13
466.726	18.01
466.929	18.01
467.132	17.97
467.335	17.85
467.538	17.75
467.74	17.55
467.943	17.57
468.146	17.37
468.348	17.39
468.551	17.3
468.754	17.45
468.956	17.35
469.159	17.28
469.362	17.2
469.564	17.19
469.767	17.01
469.969	17.12
470.172	17.27
470.375	17.3
470.577	17.38
470.78	17.52
470.982	17.52
471.185	17.46
471.387	17.62
471.59	17.75
471.792	17.87
471.995	18.17
472.197	18.27
472.399	18.37
472.602	18.39
472.804	18.2
473.007	18.06
473.209	17.94
473.411	18.01
473.614	17.89
473.816	17.78
474.018	17.61
474.22	17.54
474.423	17.3
474.625	17.19
474.827	17.43
475.03	17.6
475.232	17.78
475.434	17.98
475.636	18.08
475.838	18.09
476.04	18.19
476.243	18.37
476.445	18.26
476.647	18.42
476.849	18.53
477.051	18.37
477.253	18.49
477.455	18.52
477.657	18.3
477.859	18.19
478.061	18.28
478.263	18.22
478.465	18.22
478.667	18.5
478.869	18.56
479.071	18.43
479.273	18.44
479.475	18.25
479.677	18.2
479.879	18.17
480.081	18.21
480.283	18.04
480.485	18.09
480.686	17.99
480.888	17.75
481.09	17.76
481.292	17.9
481.494	17.91
481.695	17.96
481.897	17.95
482.099	18.02
482.301	18.05
482.502	18.08
482.704	18.02
482.906	18.03
483.107	18.03
483.309	17.97
483.511	17.97
483.712	17.94
483.914	17.96
484.115	17.9
484.317	17.88
484.519	17.9
484.72	17.88
484.922	17.89
485.123	17.9
485.325	17.93
485.526	18.01
485.728	17.93
485.929	17.92
486.131	17.89
486.332	17.96
486.534	17.89
486.735	17.83
486.936	17.85
487.138	17.85
487.339	17.86
487.541	17.82
487.742	17.71
487.943	17.69
488.144	17.68
488.346	17.68
488.547	17.65
488.748	17.69
488.95	17.7
489.151	17.68
489.352	17.71
489.553	17.7
489.755	17.77
489.956	17.81
490.157	17.87
490.358	17.85
490.559	17.85
490.76	17.82
490.961	17.77
491.163	17.78
491.364	17.92
491.565	17.9
491.766	17.85
491.967	17.86
492.168	17.87
492.369	17.9
492.57	17.94
492.771	17.99
492.972	17.99
493.173	18.09
493.374	17.99
493.575	17.93
493.776	18
493.976	18.07
494.177	18.07
494.378	18.11
494.579	18.06
494.78	17.91
494.981	18.05
495.182	18.1
495.382	18.02
495.583	18.19
495.784	18.22
495.985	18.17
496.185	18.06
496.386	17.9
496.587	17.93
496.788	18
496.988	18.11
497.189	18.03
497.39	18.09
497.59	18.14
497.791	18.14
497.992	18.04
498.192	18.1
498.393	18.14
498.593	18.32
498.794	18.21
498.994	18.24
499.195	18.29
499.395	18.14
499.596	17.98
499.796	17.94
499.997	18.04
500.197	18.16
500.398	18.03
500.598	17.97
500.799	17.99
500.999	18.14
501.199	18.09
501.4	18.23
501.6	18.21
501.801	18.43
502.001	18.42
502.201	18.29
502.402	18.25
502.602	18.4
502.802	18.5
503.002	18.62
503.203	18.72
503.403	18.8
503.603	18.7
503.803	18.75
504.003	18.75
504.204	18.95
504.404	18.93
504.604	18.92
504.804	18.82
505.004	18.81
505.204	18.68
505.404	18.55
505.604	18.59
505.804	18.63
506.005	18.78
506.205	18.89
506.405	18.79
506.605	18.91
506.805	18.96
507.005	19
507.204	19.1
507.404	19.09
507.604	19.05
507.804	19.14
508.004	19.21
508.204	19.31
508.404	19.1
508.604	19.15
508.804	19.15
509.003	19.19
509.203	19.21
509.403	19.25
509.603	19.25
509.803	19.38
510.002	19.41
510.202	19.43
510.402	19.43
510.602	19.59
510.801	19.58
511.001	19.58
511.201	19.52
511.4	19.7
511.6	19.76
511.8	19.82
511.999	19.8
512.199	19.83
512.398	19.87
512.598	19.91
512.797	19.99
512.997	19.95
513.197	20.13
513.396	20.19
513.596	20.15
513.795	20.26
513.994	20.21
514.194	20.39
514.393	20.3
514.593	20.41
514.792	20.33
514.992	20.34
515.191	20.54
515.39	20.52
515.59	20.54
515.789	20.49
515.988	20.42
516.188	20.59
516.387	20.55
516.586	20.65
516.786	20.58
516.985	20.71
517.184	20.74
517.383	20.73
517.582	20.71
517.782	20.88
517.981	20.94
518.18	20.93
518.379	20.9
518.578	20.93
518.777	20.89
518.976	20.88
519.176	20.78
519.375	20.9
519.574	20.88
519.773	20.9
519.972	20.86
520.171	20.78
520.37	20.68
520.569	20.63
520.768	20.68
520.967	20.57
521.166	20.71
521.365	20.77
521.564	20.68
521.762	20.67
521.961	20.66
522.16	20.6
522.359	20.71
522.558	20.93
522.757	21.08
522.956	21.02
523.154	21.19
523.353	21.17
523.552	21.28
523.751	21.32
523.949	21.51
524.148	21.6
524.347	21.63
524.546	21.78
524.744	21.86
524.943	21.84
525.142	21.83
525.34	21.85
525.539	21.93
525.737	21.91
525.936	21.89
526.135	21.73
526.333	21.76
526.532	21.76
526.73	21.65
526.929	21.6
527.127	21.66
527.326	21.68
527.524	21.7
527.723	21.7
527.921	21.76
528.12	21.79
528.318	21.94
528.516	21.94
528.715	22.02
528.913	22.02
529.112	22.06
529.31	22.02
529.508	22.11
529.707	22.12
529.905	22.06
530.103	22.03
530.301	22.08
530.5	22.03
530.698	22.09
530.896	22.08
531.094	22.16
531.293	22.07
531.491	22.1
531.689	21.97
531.887	22.03
532.085	22.06
532.283	22.15
532.481	22.17
532.68	22.26
532.878	22.24
533.076	22.19
533.274	22.22
533.472	22.31
533.67	22.35
533.868	22.38
534.066	22.4
534.264	22.39
534.462	22.36
534.66	22.37
534.858	22.31
535.056	22.34
535.253	22.38
535.451	22.32
535.649	22.41
535.847	22.5
536.045	22.55
536.243	22.61
536.441	22.74
536.638	22.8
536.836	22.84
537.034	22.89
537.232	22.93
537.43	22.89
537.627	23.01
537.825	22.89
538.023	22.95
538.22	23.03
538.418	23.16
538.616	23.15
538.813	23.23
539.011	23.28
539.209	23.34
539.406	23.35
539.604	23.49
539.801	23.55
539.999	23.58
540.196	23.58
540.394	23.58
540.591	23.52
540.789	23.55
540.986	23.49
541.184	23.45
541.381	23.46
541.579	23.46
541.776	23.49
541.974	23.53
542.171	23.52
542.368	23.6
542.566	23.67
542.763	23.78
542.96	23.87
543.158	23.93
543.355	23.94
543.552	24.05
543.75	24.03
543.947	24.12
544.144	24.19
544.341	24.29
544.539	24.25
544.736	24.31
544.933	24.19
545.13	24.27
545.327	24.34
545.524	24.45
545.722	24.34
545.919	24.55
546.116	24.64
546.313	24.64
546.51	24.77
546.707	24.74
546.904	24.72
547.101	24.65
547.298	24.64
547.495	24.49
547.692	24.58
547.889	24.63
548.086	24.64
548.283	24.51
548.48	24.4
548.677	24.4
548.874	24.27
549.07	24.23
549.267	24.27
549.464	24.1
549.661	24.34
549.858	24.32
550.055	24.27
550.251	24.19
550.448	24.36
550.645	24.33
550.842	24.28
551.038	24.81
551.235	24.83
551.432	25.08
551.628	25.02
551.825	25.15
552.022	25.16
552.218	25.31
552.415	25.46
552.612	25.23
552.808	25.29
553.005	25.22
553.201	24.86
553.398	24.79
553.594	24.68
553.791	24.82
553.987	24.56
554.184	24.67
554.38	24.63
554.577	24.41
554.773	24.37
554.97	24.43
555.166	24.56
555.362	24.88
555.559	25.04
555.755	25.31
555.952	25.44
556.148	25.68
556.344	25.51
556.541	25.43
556.737	25.57
556.933	25.76
557.129	25.88
557.326	25.9
557.522	25.68
557.718	25.51
557.914	25.27
558.11	25.13
558.307	25.09
558.503	25.15
558.699	25.34
558.895	25.63
559.091	25.67
559.287	25.5
559.483	25.66
559.679	25.65
559.876	25.73
560.072	25.67
560.268	25.94
560.464	26.02
560.66	25.91
560.856	25.89
561.052	25.69
561.247	25.6
561.443	25.81
561.639	25.69
561.835	25.75
562.031	26.1
562.227	26.34
562.423	26.22
562.619	26.46
562.815	26.66
563.01	26.65
563.206	26.73
563.402	26.8
563.598	26.75
563.793	26.86
563.989	27.1
564.185	26.98
564.381	27.01
564.576	27.16
564.772	27.06
564.968	27.03
565.163	27.17
565.359	27.32
565.555	27.25
565.75	27.06
565.946	26.96
566.141	26.85
566.337	27.03
566.532	27.11
566.728	27.12
566.923	27.03
567.119	26.89
567.314	26.84
567.51	26.88
567.705	27.16
567.901	27.46
568.096	27.57
568.292	27.65
568.487	27.51
568.682	27.35
568.878	27.45
569.073	27.53
569.268	27.74
569.464	27.74
569.659	27.59
569.854	27.41
570.05	27.2
570.245	27.08
570.44	27.12
570.635	27.15
570.831	27.36
571.026	27.43
571.221	27.56
571.416	27.58
571.611	27.51
571.806	27.63
572.002	27.66
572.197	27.77
572.392	27.85
572.587	27.84
572.782	27.8
572.977	27.79
573.172	27.7
573.367	27.65
573.562	27.65
573.757	27.89
573.952	27.89
574.147	28.02
574.342	28.11
574.537	28.28
574.732	28.21
574.927	28.36
575.121	28.3
575.316	28.09
575.511	28
575.706	27.92
575.901	27.77
576.096	27.85
576.29	27.79
576.485	27.73
576.68	27.72
576.875	27.78
577.069	27.86
577.264	28.13
577.459	28.28
577.654	28.42
577.848	28.7
578.043	28.89
578.238	28.86
578.432	29.22
578.627	29.37
578.821	29.34
579.016	29.51
579.21	29.15
579.405	29.12
579.6	29.25
579.794	29.41
579.989	29.41
580.183	29.61
580.378	29.61
580.572	29.41
580.766	29.52
580.961	29.68
581.155	29.48
581.35	29.97
581.544	29.77
581.738	29.7
581.933	29.61
582.127	29.75
582.321	29.58
582.516	29.49
582.71	29.43
582.904	29.32
583.099	29.52
583.293	29.76
583.487	29.76
583.681	29.92
583.875	30.01
584.07	30.02
584.264	29.85
584.458	29.77
584.652	29.78
584.846	29.92
585.04	30
585.234	29.76
585.428	29.78
585.623	29.45
585.817	29.47
586.011	29.31
586.205	29.4
586.399	29.42
586.593	29.17
586.787	29.1
586.981	29.07
587.174	28.99
587.368	28.96
587.562	29.1
587.756	29.3
587.95	29.3
588.144	29.64
588.338	29.57
588.532	29.65
588.725	29.97
588.919	29.97
589.113	29.94
589.307	30
589.501	29.98
589.694	29.88
589.888	29.48
590.082	29.51
590.275	29.4
590.469	29.42
590.663	29.33
590.856	29.15
591.05	29.42
591.244	29.49
591.437	29.53
591.631	29.77
591.824	29.75
592.018	30.08
592.212	30.12
592.405	30.28
592.599	30.26
592.792	30.52
592.986	30.84
593.179	30.74
593.372	30.64
593.566	30.72
593.759	30.61
593.953	30.73
594.146	30.66
594.339	30.54
594.533	30.38
594.726	30.38
594.92	30.26
595.113	30.3
595.306	30.24
595.499	30.26
595.693	30.38
595.886	30.25
596.079	30.12
596.272	30.12
596.466	30.13
596.659	30.1
596.852	30.2
597.045	30.24
597.238	30.05
597.431	30.11
597.624	30.22
597.818	30.14
598.011	30.23
598.204	30.37
598.397	30.19
598.59	30.12
598.783	30.12
598.976	29.99
599.169	30.05
599.362	30.1
599.555	30.08
599.748	29.71
599.941	29.77
600.134	29.97
600.326	29.75
600.519	30.15
600.712	30.1
600.905	30.01
601.098	30.13
601.291	29.99
601.483	29.95
601.676	30.01
601.869	30.32
602.062	30.23
602.255	30.03
602.447	30.1
602.64	30.31
602.833	30.52
603.025	30.77
603.218	30.99
603.411	31.02
603.603	31.26
603.796	31.29
603.989	31.13
604.181	31.16
604.374	31.3
604.566	31.32
604.759	31.1
604.951	31.06
605.144	31.07
605.336	30.83
605.529	30.73
605.721	30.54
605.914	30.55
606.106	30.75
606.299	30.79
606.491	30.71
606.683	30.77
606.876	30.79
607.068	30.76
607.26	30.8
607.453	30.89
607.645	31.14
607.837	31.33
608.03	31.32
608.222	31.32
608.414	31.11
608.606	31.17
608.799	31.11
608.991	31.4
609.183	31.58
609.375	31.6
609.567	31.94
609.759	31.95
609.952	32.01
610.144	31.97
610.336	32.06
610.528	32.29
610.72	32.59
610.912	32.7
611.104	32.75
611.296	32.91
611.488	32.81
611.68	32.58
611.872	32.56
612.064	32.56
612.256	32.58
612.448	32.63
612.64	32.68
612.832	32.27
613.023	32.57
613.215	32.36
613.407	32.09
613.599	32.14
613.791	32.55
613.983	32.72
614.174	32.5
614.366	32.64
614.558	32.34
614.75	32.25
614.941	32.64
615.133	32.36
615.325	32.39
615.516	32.52
615.708	32.73
615.9	32.12
616.091	32.15
616.283	32.41
616.475	32.32
616.666	32.77
616.858	32.76
617.049	32.62
617.241	32.6
617.432	32.71
617.624	32.53
617.815	32.4
618.007	32.44
618.198	32.38
618.39	32.1
618.581	32.1
618.773	31.86
618.964	31.68
619.155	31.7
619.347	31.67
619.538	31.6
619.729	31.76
619.921	31.79
620.112	31.93
620.303	31.8
620.494	32.01
620.686	32.27
620.877	32.15
621.068	32.28
621.259	32.18
621.451	32.03
621.642	32.07
621.833	31.69
622.024	31.76
622.215	31.62
622.406	31.58
622.597	31.48
622.788	31.1
622.98	31.37
623.171	31.22
623.362	31.12
623.553	31.37
623.744	31.33
623.935	31.72
624.126	31.62
624.317	31.57
624.508	31.55
624.698	31.57
624.889	31.65
625.08	31.66
625.271	31.74
625.462	31.67
625.653	31.48
625.844	31.89
626.034	31.8
626.225	31.75
626.416	31.79
626.607	31.8
626.798	31.66
626.988	31.88
627.179	31.88
627.37	31.9
627.56	31.9
627.751	31.78
627.942	31.6
628.132	31.78
628.323	31.66
628.514	31.59
628.704	31.93
628.895	32.05
629.085	32.02
629.276	31.99
629.466	32.13
629.657	32.49
629.847	32.53
630.038	32.29
630.228	32.05
630.419	32.45
630.609	32.65
630.8	32.45
630.99	32.67
631.181	32.37
631.371	32.12
631.561	31.96
631.752	31.7
631.942	31.77
632.132	31.54
632.323	31.75
632.513	31.4
632.703	31.04
632.893	30.85
633.084	30.51
633.274	30.45
633.464	30.75
633.654	31.04
633.844	31.2
634.034	30.91
634.225	30.93
634.415	30.85
634.605	30.84
634.795	30.96
634.985	31.05
635.175	31.41
635.365	31.73
635.555	31.47
635.745	31.29
635.935	31.22
636.125	31.78
636.315	32.08
636.505	32.02
636.695	31.94
636.885	32.02
637.075	31.98
637.265	31.71
637.455	31.77
637.644	31.61
637.834	31.5
638.024	31.24
638.214	31.12
638.404	31.27
638.593	31.08
638.783	31.01
638.973	31.01
639.163	30.86
639.352	30.9
639.542	30.3
639.732	30.47
639.921	30.3
640.111	30.43
640.301	30.64
640.49	30.53
640.68	30.66
640.87	31.28
641.059	31.47
641.249	31.54
641.438	31.63
641.628	31.88
641.817	32.02
642.007	32.28
642.196	32.34
642.386	31.82
642.575	31.84
642.764	31.67
642.954	31.39
643.143	31.25
643.333	31.41
643.522	31.44
643.711	31.54
643.901	31.41
644.09	31.48
644.279	31.65
644.469	32.06
644.658	31.9
644.847	32.1
645.036	32
645.226	32.15
645.415	32.14
645.604	32.31
645.793	32.16
645.982	31.94
646.171	32.08
646.361	32.03
646.55	31.9
646.739	31.58
646.928	31.27
647.117	31.19
647.306	31.15
647.495	31.4
647.684	30.98
647.873	31.53
648.062	31.87
648.251	31.36
648.44	30.98
648.629	31.14
648.818	31.3
649.007	31.65
649.196	31.78
649.384	31.71
649.573	31.1
649.762	31.08
649.951	30.74
650.14	30.97
650.328	31.2
650.517	31.76
650.706	31.75
650.895	31.87
651.083	31.61
651.272	31.84
651.461	31.71
651.65	32.16
651.838	32.07
652.027	32.09
652.216	31.89
652.404	31.72
652.593	31.28
652.781	31.26
652.97	31.19
653.158	31.31
653.347	31.09
653.535	31.19
653.724	31.3
653.912	31.81
654.101	31.47
654.289	31.39
654.478	31.72
654.666	31.77
654.855	31.57
655.043	31.59
655.231	31.49
655.42	31.36
655.608	31.23
655.796	31.52
655.985	31.19
656.173	31.29
656.361	31.16
656.55	30.88
656.738	31.24
656.926	31.36
657.114	31.27
657.302	31.41
657.491	31.21
657.679	31.07
657.867	30.42
658.055	30.93
658.243	31.21
658.431	31.54
658.619	31.39
658.807	31.45
658.996	31.36
659.184	31.2
659.372	31.31
659.56	31.69
659.748	32.05
659.936	32.42
660.124	32.24
660.311	32.21
660.499	32.24
660.687	32.45
660.875	31.8
661.063	31.59
661.251	31.58
661.439	31.8
661.627	31.44
661.814	31.86
662.002	31.67
662.19	31.4
662.378	31.64
662.565	31.38
662.753	31.32
662.941	32
663.129	31.99
663.316	32.23
663.504	32.19
663.692	32.69
663.879	31.76
664.067	31.86
664.254	32.12
664.442	31.95
664.63	31.86
664.817	32.14
665.005	31.51
665.192	31.47
665.38	32.14
665.567	31.64
665.755	31.32
665.942	31.55
666.13	31.61
666.317	32.07
666.504	31.57
666.692	31.66
666.879	31.7
667.067	31.83
667.254	32.03
667.441	31.77
667.629	31.84
667.816	32.08
668.003	32.27
668.19	31.75
668.378	31.23
668.565	31.88
668.752	31.66
668.939	31.91
669.127	32.03
669.314	32.54
669.501	32.36
669.688	32.54
669.875	32.69
670.062	32.66
670.249	32.63
670.436	32.53
670.623	31.99
670.81	32
670.997	31.57
671.184	31.77
671.371	31.86
671.558	31.72
671.745	31.63
671.932	31.54
672.119	31.45
672.306	31.98
672.493	32.43
672.68	32.34
672.867	32.65
673.054	32.5
673.24	32.59
673.427	32.39
673.614	32.38
673.801	32.47
673.988	32.43
674.174	32.51
674.361	32.31
674.548	32.01
674.734	32.55
674.921	32.27
675.108	32.65
675.294	32.22
675.481	32.11
675.668	33.02
675.854	33.17
676.041	32.86
676.227	32.9
676.414	32.8
676.601	32.31
676.787	32.28
676.974	32.74
677.16	32.48
677.347	32.8
677.533	32.86
677.719	31.7
677.906	31.45
678.092	31.82
678.279	32.09
678.465	32.44
678.651	32.67
678.838	32.73
679.024	32.42
679.21	32.37
679.397	32.45
679.583	32.46
679.769	32.9
679.955	32.9
680.142	32.67
680.328	32.42
680.514	32.08
680.7	31.97
680.886	31.8
681.073	31.86
681.259	31.92
681.445	31.85
681.631	32.02
681.817	31.79
682.003	31.8
682.189	31.56
682.375	31.75
682.561	31.93
682.747	32.4
682.933	32.61
683.119	32.87
683.305	33.03
683.491	32.69
683.677	32.21
683.863	32.16
684.049	32.4
684.235	32.59
684.42	32.38
684.606	32.27
684.792	32.22
684.978	31.67
685.164	31.36
685.349	31.47
685.535	31.84
685.721	31.91
685.907	32.69
686.092	32.39
686.278	32.58
686.464	32.4
686.649	32.69
686.835	32.34
687.021	32.91
687.206	32.88
687.392	32.67
687.577	32.78
687.763	32.55
687.948	31.68
688.134	32.03
688.319	32.12
688.505	32.21
688.69	31.93
688.876	32.42
689.061	32.74
689.247	32.99
689.432	32.94
689.618	32.76
689.803	33.03
689.988	33.34
690.174	32.79
690.359	32.28
690.544	32.42
690.73	33.18
690.915	32.75
691.1	32.52
691.285	32.6
691.471	32.24
691.656	32.25
691.841	32.14
692.026	32.32
692.211	32.98
692.396	33.39
692.582	32.86
692.767	32.19
692.952	32.34
693.137	32.94
693.322	32.6
693.507	33.51
693.692	33.55
693.877	33.67
694.062	34.18
694.247	33.59
694.432	33.61
694.617	34.36
694.802	34.3
694.987	34.19
695.172	33.3
695.357	33.39
695.541	33.01
695.726	32.91
695.911	32.38
696.096	31.96
696.281	32.23
696.466	32.07
696.65	31.82
696.835	32.13
697.02	32.43
697.204	32.12
697.389	32.41
697.574	32.61
697.759	32.59
697.943	33.22
698.128	33.29
698.312	33.22
698.497	33.4
698.682	33.31
698.866	32.9
699.051	32.4
699.235	32.41
699.42	32.17
699.604	31.8
699.789	31.81
699.973	31.44
700.158	30.86
700.342	30.75
700.527	30.85
700.711	31
700.895	31.03
701.08	31.27
701.264	31.42
701.448	31.31
701.633	31.32
701.817	31.27
702.001	31.79
702.186	31.89
702.37	31.88
702.554	31.69
702.738	30.84
702.923	31.48
703.107	31.21
703.291	31.17
703.475	31.43
703.659	31.95
703.843	31.89
704.027	31.9
704.212	32.81
704.396	33.37
704.58	33.15
704.764	34.02
704.948	33.6
705.132	33.68
705.316	34.14
705.5	34.24
705.684	34.03
705.868	34.53
706.052	34.14
706.235	33.87
706.419	33.93
706.603	33.31
706.787	32.48
706.971	32.62
707.155	32.83
707.339	33.13
707.522	32.48
707.706	32.85
707.89	32.38
708.074	32.66
708.257	32.09
708.441	31.45
708.625	32.38
708.808	32.66
708.992	32.82
709.176	33.28
709.359	33.07
709.543	33.32
709.727	32.92
709.91	32.67
710.094	32
710.277	32.46
710.461	33.07
710.644	32.43
710.828	32.85
711.011	33.4
711.195	33.4
711.378	33.17
711.562	33.59
711.745	34.12
711.928	34.35
712.112	34.54
712.295	34.44
712.478	34.09
712.662	34.11
712.845	34.3
713.028	33.13
713.212	33.07
713.395	33.09
713.578	33.27
713.761	33.09
713.945	33.76
714.128	33.44
714.311	33.9
714.494	33.68
714.677	34
714.86	34.32
715.043	34.92
715.227	34.69
715.41	34.32
715.593	33.41
715.776	33.3
715.959	32.73
716.142	32.69
716.325	31.48
716.508	32.06
716.691	31.83
716.874	31.62
717.057	31.49
717.239	31.27
717.422	31.1
717.605	32.16
717.788	31.68
717.971	31.8
718.154	32.22
718.337	33.32
718.519	32.99
718.702	33.31
718.885	32.82
719.068	31.97
719.25	32.09
719.433	32.98
719.616	32.39
719.798	32.53
719.981	33.21
720.164	33.18
720.346	33.44
720.529	33.28
720.712	32.6
720.894	33.01
721.077	33.74
721.259	34.19
721.442	33.87
721.624	33.48
721.807	34.67
721.989	33.78
722.172	33.72
722.354	32.08
722.537	33.32
722.719	34.91
722.901	34.42
723.084	33.41
723.266	33.27
723.448	32.92
723.631	32.8
723.813	32.07
723.995	31.92
724.178	31.62
724.36	33.2
724.542	32.34
724.724	31.08
724.907	32.28
725.089	33.26
725.271	33.42
725.453	34.14
725.635	34.48
725.817	34.14
725.999	34.8
726.181	34.84
726.364	33.97
726.546	34.42
726.728	35.46
726.91	33.79
727.092	33.61
727.274	33.63
727.456	33.41
727.638	33.49
727.819	33.25
728.001	32.98
728.183	33.71
728.365	34.66
728.547	34.51
728.729	33.71
728.911	34.21
729.093	34.13
729.274	33.5
729.456	33.2
729.638	33.09
729.82	33.49
730.001	33.09
730.183	32.75
730.365	32.52
730.546	31.85
730.728	32.77
730.91	32.8
731.091	33.79
731.273	34.61
731.455	34.79
731.636	35.24
731.818	35.08
731.999	35.1
732.181	34.5
732.362	33.46
732.544	33.46
732.725	32.55
732.907	32.57
733.088	31.61
733.27	31.22
733.451	30.35
733.633	30.77
733.814	30.99
733.995	31.76
734.177	32.37
734.358	33.17
734.539	32.65
734.721	33.25
734.902	33.18
735.083	33.54
735.264	33.02
735.446	34.48
735.627	34.13
735.808	34.1
735.989	34.12
736.17	34.58
736.351	34.82
736.533	36.06
736.714	36.3
736.895	35.71
737.076	35.31
737.257	36.37
737.438	35.44
737.619	34.74
737.8	34.68
737.981	33.7
738.162	33.77
738.343	33.21
738.524	32.9
738.705	32.85
738.886	33.5
739.067	33.89
739.247	32.97
739.428	33.33
739.609	32.93
739.79	33.08
739.971	33.44
740.151	32.81
740.332	32.93
740.513	33.34
740.694	32.41
740.874	32.45
741.055	32.7
741.236	32.88
741.417	33.75
741.597	33.64
741.778	33
741.958	33.56
742.139	35.37
742.32	33.95
742.5	32.76
742.681	32.66
742.861	31.68
743.042	32.7
743.222	32.74
743.403	31.91
743.583	32.5
743.764	33.59
743.944	32.67
744.124	31.36
744.305	33.11
744.485	33.82
744.666	34.11
744.846	35.74
745.026	33.66
745.207	33.46
745.387	32.49
745.567	32.78
745.747	31.27
745.928	32.87
746.108	32.29
746.288	32.37
746.468	32.1
746.648	31.87
746.829	32.1
747.009	33.97
747.189	34.58
747.369	35.79
747.549	35.57
747.729	36.51
747.909	36.03
748.089	34.98
748.269	32.98
748.449	32.65
748.629	32.6
748.809	32.39
748.989	31.47
749.169	31.38
749.349	30.09
749.529	31.32
749.709	31.6
749.889	30.71
750.068	31.62
750.248	32.82
750.428	33.48
750.608	34.07
750.788	33.94
750.967	34.05
751.147	33.55
751.327	34.99
751.507	32.29
751.686	31.89
751.866	32.76
752.046	33.27
752.225	34.15
752.405	33.98
752.585	33.48
752.764	34.63
752.944	34.58
753.123	35.05
753.303	34.58
753.482	36.38
753.662	36.57
753.841	36.19
754.021	36.91
754.2	37.43
754.38	37.7
754.559	37.83
754.739	36.3
754.918	36.49
755.097	35.59
755.277	36.51
755.456	35.13
755.635	34.58
755.815	33.58
755.994	33.02
756.173	32.66
756.352	31.13
756.532	31.45
756.711	31.72
756.89	31.1
757.069	31.6
757.248	30.32
757.427	32.56
757.607	33.43
757.786	33.86
757.965	33.9
758.144	33.06
758.323	34.16
758.502	34.28
758.681	33.78
758.86	33.81
759.039	32.55
759.218	32.79
759.397	31.8
759.576	30.49
759.755	31.54
759.934	31.02
760.113	30.59
760.291	30.58
760.47	29.74
760.649	29.29
760.828	29.99
761.007	31.44
761.186	31.92
761.364	31.35
761.543	32.08
761.722	32.09
761.901	32.54
762.079	34.36
762.258	34.32
762.437	35.87
762.615	36.29
762.794	36.11
762.972	36.24
763.151	34.97
763.33	35.37
763.508	36.13
763.687	35.13
763.865	34.07
764.044	33.22
764.222	33.18
764.401	31.41
764.579	32.11
764.758	31.45
764.936	30.83
765.114	31.6
765.293	31.47
765.471	30.61
765.65	30.69
765.828	32.28
766.006	31.55
766.184	30.84
766.363	32.7
766.541	31.5
766.719	32.27
766.898	32.54
767.076	32.36
767.254	32.84
767.432	33.63
767.61	34.6
767.788	33.65
767.967	34.83
768.145	35.92
768.323	34.19
768.501	33.84
768.679	34.02
768.857	33.28
769.035	34.51
769.213	33.47
769.391	32.42
769.569	31.43
769.747	32.5
769.925	31.72
770.103	32.69
770.281	33.82
770.459	35.98
770.636	33.44
770.814	32.72
770.992	31.66
771.17	32.02
771.348	32.21
771.525	32.86
771.703	32.63
771.881	33.91
772.059	35.02
772.236	34.7
772.414	32.77
772.592	34.37
772.769	36.66
772.947	36.32
773.125	35.09
773.302	34.66
773.48	33.64
773.657	31.94
773.835	30.15
774.013	29.64
774.19	31.08
774.368	32.4
774.545	32.81
774.723	32.76
774.9	32.51
775.077	33.99
775.255	33.68
775.432	34.48
775.61	36.85
775.787	37.43
775.964	37.83
776.142	33.67
776.319	33.32
776.496	33.51
776.674	34.3
776.851	33.76
777.028	34.38
777.205	36.36
777.382	37.66
777.56	37.7
777.737	37.3
777.914	35.11
778.091	38.31
778.268	38.27
778.445	36.82
778.622	37.26
778.8	37.69
778.977	35.71
779.154	34.4
779.331	32.66
779.508	32.2
779.685	31.52
779.862	31
780.038	29.1
780.215	29.47
780.392	28.37
780.569	26.86
780.746	28.03
780.923	29.32
781.1	29.63
781.277	29.31
781.453	27.74
781.63	29.2
781.807	31.49
781.984	33.85
782.16	32.25
782.337	32.9
782.514	31.63
782.691	30.13
782.867	30.93
783.044	30.34
783.221	30.1
783.397	30.71
783.574	29.6
783.75	28.34
783.927	26.69
784.103	27.82
784.28	28
784.456	28.59
784.633	28.12
784.809	27.85
784.986	27.21
785.162	27.52
785.339	27.55
785.515	29.45
785.692	29.45
785.868	28.82
786.044	27
786.221	27.61
786.397	28.72
786.573	29.01
786.749	29.7
786.926	32.38
787.102	34.71
787.278	36.41
787.454	33.71
787.631	33.22
787.807	32.93
787.983	35.34
788.159	36.02
788.335	34.7
788.511	34.59
788.687	31.83
788.863	28.93
789.039	27.25
789.216	24.13
789.392	25.22
789.568	27.45
789.744	29.41
789.919	28.87
790.095	27.97
790.271	27.6
790.447	28.44
790.623	31.2
790.799	32.86
790.975	35.91
791.151	36.42
791.327	34.92
791.502	31.22
791.678	29.97
791.854	29.08
792.03	28.97
792.205	27.83
792.381	28.18
792.557	27.27
792.733	27.19
792.908	25.5
793.084	25.14
793.259	25.63
793.435	26
793.611	27.28
793.786	26.2
793.962	27.34
794.137	30.19
794.313	31.09
794.488	30.17
794.664	29.92
794.839	29.43
795.015	31.16
795.19	34.21
795.366	34.14
795.541	32.26
795.716	34.54
795.892	37.97
796.067	37.47
796.242	37.19
796.418	36.37
796.593	36.11
796.768	35.98
796.944	36.7
797.119	35.73
797.294	34.72
797.469	33.49
797.644	33.57
797.82	28.48
797.995	27.75
798.17	26.64
798.345	29.98
798.52	28.99
798.695	29.34
798.87	28.67
799.045	27.82
799.22	27.52
799.395	29.79
799.57	29.25
799.745	29.71
799.92	28.77
800.095	25.38
800.27	26.52
800.445	29.59
800.62	29.93
800.795	31.52
800.97	33.52
801.145	34.74
801.319	34.05
801.494	34.07
801.669	34.33
801.844	37.9
802.018	40.86
802.193	40.54
802.368	37.4
802.543	34.49
802.717	31.35
802.892	34.46
803.067	33.42
803.241	33.55
803.416	29.38
803.59	30.4
803.765	29.96
803.94	30.89
804.114	28.25
804.289	30.8
804.463	33.79
804.638	32.95
804.812	28.99
804.986	30.04
805.161	32.31
805.335	37.37
805.51	35.95
805.684	33.92
805.858	32.49
806.033	31.5
806.207	28.65
806.381	27.62
806.556	31.13
806.73	25.86
806.904	25.98
807.078	23.23
807.253	23.24
807.427	23.7
807.601	23.07
807.775	25.68
807.949	25.31
808.123	30.77
808.298	31.5
808.472	31.06
808.646	30.8
808.82	29.49
808.994	29.13
809.168	27.93
809.342	31.91
809.516	35.04
809.69	34.48
809.864	32.74
810.038	27.46
810.212	26.69
810.385	25.64
810.559	27.19
810.733	28.27
810.907	29.47
811.081	29.72
811.255	27.54
811.428	22.61
811.602	21.79
811.776	25.53
811.95	23.23
812.123	22.03
812.297	21.11
812.471	23.05
812.644	22.68
812.818	27.57
812.992	24.86
813.165	23.87
813.339	21.31
813.512	15.54
813.686	12.11
813.86	18.42
814.033	19.83
814.207	21.58
814.38	20.05
814.554	19.04
814.727	13.05
814.9	17.6
815.074	19.81
815.247	23.65
815.421	30
815.594	35.63
815.767	33.24
815.941	32.98
816.114	34.37
816.287	37.28
816.46	38.04
816.634	39.33
816.807	34.59
816.98	35.3
817.153	34.12
817.327	32.32
817.5	28.7
817.673	32.7
817.846	33.22
818.019	28.82
818.192	28.85
818.365	30.32
818.538	31.08
818.711	33.68
818.884	30.12
819.057	30.12
819.23	33.06
819.403	32.47
819.576	29.52
819.749	30.08
819.922	29.95
820.095	29.66
820.268	27.44
820.441	23.32
820.614	25.25
820.786	26.69
820.959	28.76
821.132	28.52
821.305	30.95
821.477	32.24
821.65	31.68
821.823	33.22
821.996	32.65
822.168	33.01
822.341	34.47
822.514	33.42
822.686	32.98
822.859	31.96
823.031	31.63
823.204	30.26
823.376	30.5
823.549	30.54
823.722	30.16
823.894	30.28
824.067	30.12
824.239	29.19
824.411	29.65
824.584	30.3
824.756	31.71
824.929	31.88
825.101	32.81
825.273	32.38
825.446	32.89
825.618	32.73
825.79	33.74
825.963	33.8
826.135	34.71
826.307	35.76
826.479	35.98
826.652	34.19
826.824	34.47
826.996	34.17
827.168	33.93
827.34	33.25
827.512	32.82
827.684	31.7
827.856	31.97
828.029	30.8
828.201	29.97
828.373	29.28
828.545	31.73
828.717	31.22
828.889	31.49
829.061	30.4
829.232	31.98
829.404	34.43
829.576	34.4
829.748	35.3
829.92	37.1
830.092	38.08
830.264	38.02
830.436	35.93
830.607	36.43
830.779	37.66
830.951	39.15
831.123	34.51
831.294	31.95
831.466	32.46
831.638	31.04
831.809	28.26
831.981	25.76
832.153	26.82
832.324	28.98
832.496	27.87
832.667	27.67
832.839	28.99
833.011	32.05
833.182	32.17
833.354	31.42
833.525	29.83
833.697	33.79
833.868	34.07
834.039	35.34
834.211	32.62
834.382	33.94
834.554	34.56
834.725	32.67
834.896	31.44
835.068	31.37
835.239	30.96
835.41	32.32
835.581	31.85
835.753	31.75
835.924	30.82
836.095	33.01
836.266	32.46
836.438	30.8
836.609	32.85
836.78	35.42
836.951	33.94
837.122	37.24
837.293	38.96
837.464	38.41
837.635	38.27
837.806	37.71
837.977	37.99
838.148	40.81
838.319	42.07
838.49	43.04
838.661	43.07
838.832	42.05
839.003	39.15
839.174	38.57
839.345	36.24
839.516	35.22
839.687	32.95
839.857	32.05
840.028	31.8
840.199	34.44
840.37	33.14
840.54	34.89
840.711	39.61
840.882	36.82
841.053	36.93
841.223	36.45
841.394	41.75
841.564	40.31
841.735	41.51
841.906	38.85
842.076	30.76
842.247	32.88
842.417	25.12
842.588	19.31
842.758	23.6
842.929	29.64
843.099	24.46
843.27	14.88
843.44	28.84
843.611	14.93
843.781	13.52
843.951	18.34
844.122	9.64
844.292	15.55
844.462	15.65
844.633	7.24
844.803	-4.96
844.973	2.72
845.144	10.37
845.314	8.51
845.484	20.43
845.654	26.47
845.824	29.06
845.995	29.28
846.165	34.12
846.335	36.7
846.505	46.04
846.675	46.14
846.845	41.43
847.015	38.34
847.185	25.33
847.355	21.39
847.525	15.06
847.695	14.97
847.865	21.53
848.035	22.76
848.205	17.43
848.375	18.96
848.545	27.96
848.715	42.91
848.884	48.67
849.054	62.65
849.224	59.95
849.394	67.15
849.564	64.04
849.733	60.86
849.903	46.88
850.073	38.46
850.243	21.81
850.412	29.84
850.582	22.62
850.752	19.54
850.921	2.36
851.091	6.5
851.26	9.66
851.43	18.2
851.599	21.4
851.769	22.89
851.939	25.47
852.108	39.86
852.278	36.7
852.447	29.05
852.616	29.21
852.786	33.64
852.955	34.95
853.125	26.35
853.294	18.57
853.463	20.09
853.633	15.18
853.802	19.85
853.971	17.91
854.141	8.81
854.31	26.79
854.479	18.71
854.648	35.17
854.818	38.9
854.987	50.57
855.156	51.38
855.325	42.53
855.494	58.48
855.663	69.7
855.832	59.89
856.001	53.5
856.171	46.75
856.34	44.76
856.509	34.61
856.678	28.91
856.847	24.7
857.016	29.88
857.185	28.69
857.353	8.96
857.522	4.05
857.691	13.03
857.86	23.27
858.029	34.18
858.198	36.45
858.367	41.22
858.535	38.8
858.704	39.77
858.873	32.11
859.042	30.51
859.21	37.93
859.379	39.53
859.548	40.9
859.717	43.67
859.885	34.74
860.054	35.67
860.222	30.19
860.391	35.15
860.56	27.76
860.728	22.68
860.897	35.42
861.065	42.73
861.234	36.8
861.402	35.39
861.571	34.91
861.739	36.97
861.908	37.96
862.076	40.14
862.244	41.67
862.413	55.13
862.581	74.12
862.749	75.25
862.918	63.77
863.086	67.57
863.254	69.58
863.423	61.18
863.591	57.62
863.759	51.06
863.927	47.73
864.096	47.62
864.264	53.98
864.432	50.26
864.6	46.02
864.768	41.44
864.936	43.83
865.104	43.87
865.272	39.41
865.44	26.8
865.608	36.52
865.776	41.6
865.944	37.61
866.112	28.09
866.28	29.83
866.448	27.72
866.616	30.26
866.784	30.02
866.952	28.71
867.12	29.87
867.288	41.03
867.455	38.03
867.623	36.13
867.791	39.18
867.959	39.38
868.127	35.46
868.294	40.93
868.462	32.35
868.63	36.64
868.797	37.26
868.965	39.85
869.133	34.02
869.3	33.63
869.468	34.56
869.636	22.63
869.803	26.98
869.971	17.25
870.138	13.47
870.306	21.3
870.473	21.99
870.641	24.92
870.808	21.99
870.975	37.86
871.143	28.77
871.31	21.77
871.478	26.45
871.645	38.12
871.812	53.86
871.98	45.26
872.147	51.96
872.314	49.83
872.482	46.79
872.649	53.66
872.816	42.55
872.983	35.8
873.15	39.47
873.318	53.5
873.485	37.38
873.652	26.25
873.819	40.73
873.986	41.86
874.153	41.03
874.32	36.09
874.487	27.39
874.654	26.95
874.821	41.02
874.988	39.54
875.155	22.67
875.322	9.77
875.489	28.61
875.656	18.48
875.823	2.35
875.99	12.56
876.157	11.76
876.324	4.74
876.49	5.02
876.657	13.98
876.824	20.02
876.991	26.23
877.157	34.31
877.324	34.43
877.491	41.21
877.658	56.33
877.824	45.56
877.991	47.49
878.157	57.43
878.324	63.04
878.491	51.84
878.657	47.61
878.824	62.95
878.99	54.12
879.157	47.64
879.323	38.07
879.49	33.29
879.656	40.96
879.823	41.93
879.989	39.68
880.156	43.61
880.322	43.73
880.488	54.2
880.655	46.18
880.821	56.25
880.987	48.77
881.154	47.33
881.32	41.84
881.486	43.16
881.652	41
881.819	39.45
881.985	29.94
882.151	29.22
882.317	25.71
882.483	24.86
882.649	24.69
882.816	24.41
882.982	24.64
883.148	27.02
883.314	26
883.48	26.18
883.646	28.34
883.812	30.43
883.978	31.38
884.144	33.59
884.31	34.74
884.476	33.68
884.642	33.79
884.807	34.87
884.973	30.16
885.139	28.71
885.305	26.11
885.471	23.66
885.637	23.3
885.802	21.42
885.968	21.23
886.134	17.27
886.3	15.55
886.465	13.67
886.631	12
886.797	19.79
886.962	20.22
887.128	27
887.293	31.03
887.459	29.46
887.625	32.8
887.79	34.87
887.956	37.55
888.121	40.23
888.287	47.51
888.452	51.87
888.618	52.44
888.783	58.04
