Data from 2938073_Reflection_1.txt Node
Date: Sat Jul 11 20:31:34 EDT 2015
User: robert
Spectrometer: USB4E03001
Autoset integration time: false
Trigger mode: 4
Integration Time (sec): 1.000000E-1
Scans to average: 10
Electric dark correction enabled: true
Nonlinearity correction enabled: false
Boxcar width: 5
Stray light correction enabled: false
XAxis mode: Wavelengths
Stop averaging: false
Number of Pixels in Spectrum: 3648
>>>>>Begin Spectral Data<<<<<
177.566	-10.72
177.785	133.84
178.005	90.82
178.225	60.91
178.445	89.57
178.665	60.02
178.885	70.81
179.105	27.18
179.324	-101.94
179.544	302.57
179.764	42.5
179.984	50.17
180.204	74.63
180.423	50.36
180.643	35.52
180.863	57.52
181.083	24.74
181.302	20.07
181.522	-6.67
181.742	-129.66
181.961	-234.78
182.181	1001.06
182.401	-247.8
182.621	-43.83
182.84	-15.75
183.06	-57.75
183.279	-231.75
183.499	39.87
183.719	44.37
183.938	114.41
184.158	218.38
184.377	245.01
184.597	220.88
184.816	438.95
185.036	1177.89
185.256	600.35
185.475	140.28
185.695	114.73
185.914	147.82
186.134	97.16
186.353	11.27
186.572	24.74
186.792	5.01
187.011	-23.94
187.231	16.69
187.45	18.81
187.67	20.7
187.889	63.3
188.108	47.16
188.328	13.71
188.547	12.59
188.766	99.7
188.986	135.24
189.205	65.52
189.424	67.62
189.644	78.78
189.863	51.56
190.082	17.96
190.302	-17.35
190.521	-7.99
190.74	29.68
190.959	46.36
191.178	27.31
191.398	8.2
191.617	34.76
191.836	-9.92
192.055	-127.31
192.274	-9.15
192.494	12.17
192.713	5.33
192.932	37.01
193.151	36.45
193.37	-28.31
193.589	-18.15
193.808	-0.02
194.027	-3.09
194.246	58.27
194.465	72.07
194.685	64.03
194.904	49.9
195.123	68.05
195.342	51.17
195.561	35.63
195.78	73.88
195.999	65.15
196.218	73.22
196.436	41.03
196.655	23.31
196.874	10.67
197.093	-2.41
197.312	-18.44
197.531	-47.37
197.75	-26.42
197.969	-31.42
198.188	-139.1
198.407	-170.04
198.625	-190.58
198.844	-86.97
199.063	-150.09
199.282	-375.85
199.501	-258.97
199.719	156.4
199.938	66.93
200.157	122.74
200.376	98.13
200.594	369.61
200.813	4433.33
201.032	-306.05
201.251	-23.47
201.469	0.31
201.688	-60.48
201.907	-87.59
202.125	735.68
202.344	1096.67
202.563	114.3
202.781	93.1
203	346.07
203.218	-158.8
203.437	-14.61
203.656	3.86
203.874	12.09
204.093	13.04
204.311	13.12
204.53	12.15
204.748	8.61
204.967	18.74
205.185	3.78
205.404	13.69
205.622	8.6
205.841	-5.34
206.059	-7.88
206.278	-14.32
206.496	-29.31
206.715	-28.34
206.933	-35.54
207.151	-21.1
207.37	-7.2
207.588	1.6
207.806	-1.89
208.025	8.78
208.243	47.85
208.461	29.16
208.68	55.91
208.898	32.91
209.116	45.14
209.335	94.94
209.553	80
209.771	30.14
209.989	-8.91
210.208	-74.91
210.426	118.03
210.644	25.94
210.862	-112.44
211.081	6.04
211.299	-52.66
211.517	-95.64
211.735	-139.81
211.953	-86.2
212.171	21.45
212.39	41.24
212.608	32.07
212.826	4480.43
213.044	-262.42
213.262	-352.3
213.48	-173.37
213.698	-149.28
213.916	-131.62
214.134	-186.53
214.352	-221.8
214.57	-1322.15
214.788	-106.79
215.006	-118.83
215.224	-84.85
215.442	-108.45
215.66	-64.91
215.878	-188.18
216.096	-61.13
216.314	-149.13
216.532	-212.34
216.75	-346.31
216.968	-188.98
217.185	-151.46
217.403	21.51
217.621	-78.82
217.839	60.63
218.057	44.09
218.275	71.58
218.492	57.35
218.71	66.56
218.928	47.76
219.146	36.95
219.363	30.2
219.581	14.69
219.799	19.97
220.017	34.51
220.234	9.54
220.452	6.18
220.67	8.08
220.887	27.08
221.105	18.02
221.323	34.37
221.54	20.3
221.758	5.6
221.976	16.58
222.193	3.29
222.411	6.77
222.629	13.83
222.846	16.99
223.064	18.78
223.281	8.62
223.499	-2.49
223.716	29.07
223.934	34.19
224.151	43.4
224.369	39.23
224.586	48.47
224.804	50.48
225.021	32.18
225.239	13.6
225.456	15.68
225.674	14.72
225.891	22.21
226.108	6.67
226.326	9.02
226.543	8.42
226.76	15.73
226.978	5.25
227.195	-2.16
227.413	5.88
227.63	14.87
227.847	15.99
228.064	14.34
228.282	14.76
228.499	9.99
228.716	10.23
228.934	11.01
229.151	9.01
229.368	8.18
229.585	8.94
229.802	10.89
230.02	9.45
230.237	7.51
230.454	7.38
230.671	7.23
230.888	8.67
231.105	8.3
231.323	7.69
231.54	5.44
231.757	7.87
231.974	8.73
232.191	5.94
232.408	3.16
232.625	0.18
232.842	-6.75
233.059	-5.47
233.276	-0.61
233.493	0.21
233.71	-4.17
233.927	-2.5
234.144	-2.98
234.361	-1.09
234.578	-5.07
234.795	-1.74
235.012	0.91
235.229	5.45
235.446	1.66
235.663	0.92
235.879	-1.47
236.096	-4.38
236.313	-6.69
236.53	-6.37
236.747	-7.74
236.964	-3.82
237.181	-2.36
237.397	-1.36
237.614	0.09
237.831	3.45
238.048	3.32
238.264	6.41
238.481	12.86
238.698	12.09
238.915	14.6
239.131	12.05
239.348	13.17
239.565	12.16
239.781	12.72
239.998	9.5
240.215	9.24
240.431	10.46
240.648	10.41
240.865	9.02
241.081	11.49
241.298	11.22
241.514	11.22
241.731	10.15
241.947	8.96
242.164	9.45
242.38	12.24
242.597	11.05
242.814	10.45
243.03	10.67
243.246	12.01
243.463	12.06
243.679	12.03
243.896	13.85
244.112	13.86
244.329	15.09
244.545	14.71
244.762	13.09
244.978	12.26
245.194	13.58
245.411	13.66
245.627	10.99
245.843	10.67
246.06	9.35
246.276	7.97
246.492	9.68
246.709	9.69
246.925	10.06
247.141	9.9
247.357	10.19
247.574	9.47
247.79	9.36
248.006	9.91
248.222	10.14
248.439	9.81
248.655	9.48
248.871	8.16
249.087	7.82
249.303	7.25
249.519	7.91
249.736	7.49
249.952	8.48
250.168	8.2
250.384	10.2
250.6	8.99
250.816	9.76
251.032	9.53
251.248	8.58
251.464	8.93
251.68	9.93
251.896	9.38
252.112	8.87
252.328	7.43
252.544	7.21
252.76	5.13
252.976	5.46
253.192	6.54
253.408	7.16
253.624	9.08
253.84	9.13
254.056	8.88
254.272	7.83
254.487	10.05
254.703	11.14
254.919	7.91
255.135	8.31
255.351	5.7
255.567	3.88
255.782	5.05
255.998	3.17
256.214	4.72
256.43	2.24
256.646	1.66
256.861	0.12
257.077	1.9
257.293	7.93
257.508	7.33
257.724	8.4
257.94	9.56
258.155	8.51
258.371	8.76
258.587	7.34
258.802	9.48
259.018	9.28
259.234	9.18
259.449	8.04
259.665	6.81
259.88	7.43
260.096	7.34
260.312	6.72
260.527	7.05
260.743	7.84
260.958	8.27
261.174	7.76
261.389	7.96
261.605	7.75
261.82	7.59
262.036	6.82
262.251	6.36
262.466	6.77
262.682	7.3
262.897	7.74
263.113	5.96
263.328	6.01
263.543	3.86
263.759	4.09
263.974	5.17
264.189	9.04
264.405	9.26
264.62	8.26
264.835	8.09
265.051	8.01
265.266	7.04
265.481	7.16
265.696	6.37
265.912	5.81
266.127	5.88
266.342	6.15
266.557	4.23
266.773	4.78
266.988	5.15
267.203	5.24
267.418	4.7
267.633	4.2
267.848	3.76
268.064	3.79
268.279	4.79
268.494	6.42
268.709	5.58
268.924	4.43
269.139	3.73
269.354	4.1
269.569	3.82
269.784	3.98
269.999	3.12
270.214	3.66
270.429	4.28
270.644	3.93
270.859	2.17
271.074	3.46
271.289	5.13
271.504	4.99
271.719	4.63
271.934	4.81
272.149	5.74
272.363	7.15
272.578	7.25
272.793	6.81
273.008	6.82
273.223	7.43
273.438	6.85
273.653	5.62
273.867	6.06
274.082	5.98
274.297	4.95
274.512	5.32
274.726	4.41
274.941	4.6
275.156	4.78
275.371	4.28
275.585	4.88
275.8	4.78
276.015	5.45
276.229	4.83
276.444	4.56
276.659	5.8
276.873	5.06
277.088	7.34
277.302	6.32
277.517	6.11
277.732	8.23
277.946	6.03
278.161	6.91
278.375	7.13
278.59	8.36
278.804	9.84
279.019	9.77
279.233	8.46
279.448	6.9
279.662	6.91
279.877	6.66
280.091	5.3
280.306	7.14
280.52	5.24
280.735	6.43
280.949	6.51
281.163	6.33
281.378	6.37
281.592	6.4
281.806	5.76
282.021	5.72
282.235	5.29
282.449	5.4
282.664	4.54
282.878	5.49
283.092	4.84
283.307	3.39
283.521	2.6
283.735	1.43
283.949	1.51
284.164	2.12
284.378	3.29
284.592	3.37
284.806	4.52
285.02	4.47
285.234	4.81
285.449	4.73
285.663	4.88
285.877	5.25
286.091	6.6
286.305	6.37
286.519	5.83
286.733	6.06
286.947	7.49
287.161	6.24
287.375	6.6
287.589	6.31
287.803	6.31
288.017	8.22
288.231	8.83
288.445	7.81
288.659	8.62
288.873	9.36
289.087	8.31
289.301	8.04
289.515	9.12
289.729	8.71
289.943	9.31
290.157	8.73
290.371	8.25
290.584	7.88
290.798	8.56
291.012	8.77
291.226	9.5
291.44	10.29
291.654	9.28
291.867	8.53
292.081	9.36
292.295	10
292.509	10.13
292.722	9.92
292.936	10.4
293.15	10.95
293.364	11.14
293.577	10.36
293.791	9.4
294.005	8.67
294.218	9.33
294.432	7.87
294.645	6.75
294.859	6.11
295.073	6.01
295.286	5.39
295.5	4.84
295.713	3.9
295.927	4.09
296.14	4.68
296.354	5.77
296.568	5.7
296.781	6.6
296.994	6.29
297.208	7.08
297.421	6.79
297.635	7.02
297.848	7.35
298.062	8.23
298.275	8.42
298.489	9.12
298.702	9.54
298.915	9.31
299.129	9.86
299.342	10.66
299.555	10.68
299.769	11.23
299.982	11.42
300.195	9.69
300.409	8.76
300.622	8.2
300.835	7.17
301.048	6.8
301.262	7.29
301.475	6.71
301.688	6.01
301.901	5.85
302.115	5.42
302.328	4.34
302.541	5.5
302.754	6.06
302.967	7.07
303.18	7.63
303.393	8.49
303.607	8.31
303.82	7.3
304.033	7.37
304.246	8.35
304.459	9.71
304.672	9.58
304.885	7.5
305.098	7.78
305.311	7.16
305.524	6.25
305.737	4.45
305.95	5.9
306.163	5.36
306.376	5.44
306.589	4.08
306.802	3.31
307.015	4.92
307.228	8.35
307.44	7.7
307.653	8.53
307.866	8.69
308.079	7.53
308.292	5.47
308.505	8.12
308.718	7.98
308.93	8.93
309.143	8.97
309.356	9.24
309.569	8.84
309.781	7.55
309.994	7.22
310.207	7.53
310.42	9.39
310.632	10.04
310.845	8.71
311.058	9.23
311.27	7.94
311.483	7.71
311.696	6.73
311.908	6.73
312.121	8.45
312.333	8.17
312.546	8.67
312.759	7.57
312.971	7.23
313.184	8.05
313.396	8.26
313.609	9.87
313.821	9.25
314.034	8.17
314.246	8.76
314.459	7.1
314.671	6.47
314.884	3.9
315.096	4.35
315.309	4.14
315.521	3.64
315.733	2.71
315.946	2.69
316.158	3.14
316.371	4.31
316.583	3.79
316.795	4.85
317.008	4.17
317.22	5.71
317.432	5.99
317.644	6.37
317.857	5.9
318.069	5.88
318.281	4.57
318.494	5.61
318.706	6.23
318.918	6.23
319.13	7.64
319.342	8.66
319.555	9.81
319.767	8.25
319.979	9.19
320.191	10.36
320.403	10.81
320.615	11.74
320.827	11.27
321.039	11.45
321.252	11.06
321.464	11.31
321.676	10.19
321.888	9.41
322.1	10.01
322.312	8.83
322.524	7.25
322.736	7.46
322.948	6.19
323.16	4.62
323.372	3.98
323.584	3.76
323.796	2.68
324.007	3.6
324.219	4.4
324.431	5.59
324.643	5.09
324.855	5.96
325.067	6.07
325.279	5.88
325.491	7.17
325.702	7.74
325.914	9.02
326.126	9
326.338	9.39
326.55	8.73
326.761	8.43
326.973	8.61
327.185	8.9
327.396	7.92
327.608	9.66
327.82	10.12
328.032	8.57
328.243	7.18
328.455	6.97
328.666	5.97
328.878	5.61
329.09	4.84
329.301	4.94
329.513	4.7
329.725	4.56
329.936	3.32
330.148	2.11
330.359	4.16
330.571	4.38
330.782	4.35
330.994	3.31
331.205	3.01
331.417	4.09
331.628	5.9
331.84	6.11
332.051	8.17
332.262	8.42
332.474	10.15
332.685	9.77
332.897	9.77
333.108	9.78
333.319	11.91
333.531	13.05
333.742	13.21
333.953	11.92
334.165	11.08
334.376	9.81
334.587	10.49
334.799	9.98
335.01	9.67
335.221	9.17
335.432	10.34
335.644	11.19
335.855	10.4
336.066	10.31
336.277	9.65
336.488	8.89
336.7	8.64
336.911	7.7
337.122	7.57
337.333	7.64
337.544	8.16
337.755	7.61
337.966	7.49
338.177	8.47
338.388	7.72
338.599	8.58
338.811	9.95
339.022	10.67
339.233	10.07
339.444	9.28
339.655	8.98
339.866	9.03
340.076	8.04
340.287	6.27
340.498	4.53
340.709	4.79
340.92	4.98
341.131	4.98
341.342	4.34
341.553	5.91
341.764	6.46
341.975	6.96
342.185	6.26
342.396	7.49
342.607	8.29
342.818	8.68
343.029	8.43
343.239	7.68
343.45	8.55
343.661	9.09
343.872	8.23
344.082	8.39
344.293	7.99
344.504	9.03
344.714	8.87
344.925	8.64
345.136	8.42
345.346	9.07
345.557	9.85
345.768	8.93
345.978	8.7
346.189	8.4
346.399	8.11
346.61	8
346.821	7.54
347.031	7.59
347.242	7.31
347.452	6.83
347.663	5.9
347.873	5.32
348.084	6.09
348.294	5.96
348.504	5.91
348.715	6.19
348.925	7.17
349.136	7.17
349.346	5.32
349.557	6.11
349.767	7.42
349.977	7.46
350.188	7.36
350.398	7.05
350.608	7.02
350.819	7.48
351.029	6.79
351.239	6.51
351.449	6.98
351.66	8.66
351.87	8.01
352.08	7.49
352.29	7.85
352.501	8.44
352.711	8.37
352.921	8.81
353.131	9.13
353.341	8.92
353.552	9.13
353.762	8.83
353.972	8.71
354.182	8.82
354.392	8.94
354.602	8.75
354.812	7.82
355.022	7.34
355.232	7.02
355.442	7.3
355.652	7.97
355.862	6.93
356.072	6.61
356.282	6.42
356.492	6.48
356.702	7.64
356.912	8.8
357.122	9.24
357.332	9.36
357.542	9.38
357.752	9.32
357.962	9.45
358.171	9.95
358.381	9.69
358.591	9.89
358.801	9.47
359.011	8.55
359.221	7.39
359.43	7.23
359.64	6.98
359.85	6.52
360.06	5.88
360.269	5.72
360.479	5.54
360.689	5.75
360.899	5.78
361.108	6.54
361.318	5.78
361.528	5.66
361.737	5.82
361.947	5.85
362.156	6.13
362.366	6.58
362.576	6.21
362.785	5.81
362.995	5.87
363.204	5.31
363.414	4.59
363.623	5.19
363.833	5.17
364.042	5.21
364.252	4.85
364.461	5.59
364.671	6.1
364.88	6.64
365.09	7.58
365.299	7.48
365.509	7.27
365.718	6.87
365.927	6.79
366.137	6.84
366.346	6.25
366.555	7.42
366.765	6.66
366.974	5.66
367.183	5.75
367.393	5.32
367.602	4.99
367.811	5.71
368.021	6.84
368.23	7.18
368.439	7.56
368.648	8.01
368.857	7.38
369.067	7.04
369.276	7.74
369.485	7.26
369.694	7.57
369.903	8.18
370.112	8.06
370.321	7.21
370.531	6.58
370.74	7.05
370.949	6.6
371.158	5.81
371.367	6.36
371.576	5.74
371.785	5.5
371.994	5.32
372.203	5.28
372.412	5.59
372.621	6.04
372.83	6.88
373.039	6.09
373.248	6.86
373.457	7.37
373.666	7.17
373.874	7.41
374.083	8.14
374.292	8.06
374.501	7.34
374.71	6.61
374.919	6.4
375.128	6.02
375.336	6.6
375.545	5.84
375.754	6.21
375.963	6.36
376.171	6.22
376.38	6.2
376.589	6.76
376.798	6.76
377.006	6.84
377.215	6.29
377.424	5.73
377.632	4.41
377.841	4.42
378.05	4.41
378.258	3.93
378.467	4.28
378.675	4.07
378.884	3.77
379.093	3.86
379.301	4.13
379.51	4.73
379.718	4.67
379.927	5.74
380.135	5.8
380.344	5.31
380.552	5.8
380.761	5.59
380.969	5.65
381.177	5.22
381.386	5.45
381.594	5.27
381.803	5.09
382.011	5.68
382.219	5.61
382.428	5.53
382.636	5.67
382.845	5.24
383.053	4.94
383.261	4.27
383.469	4.39
383.678	4.25
383.886	4.43
384.094	4.36
384.302	4.08
384.511	4.13
384.719	4.11
384.927	4.04
385.135	4.15
385.343	3.96
385.552	4.34
385.76	4.39
385.968	4.37
386.176	4.24
386.384	4.24
386.592	4.41
386.8	4.28
387.008	4.27
387.216	4.14
387.424	3.88
387.633	3.84
387.841	3.57
388.049	3.28
388.257	3.16
388.465	2.73
388.672	2.48
388.88	2.46
389.088	2.35
389.296	2.39
389.504	2.86
389.712	2.6
389.92	2.75
390.128	2.79
390.336	3.01
390.544	3.21
390.751	3.56
390.959	3.61
391.167	3.64
391.375	3.78
391.583	3.65
391.79	3.12
391.998	3.45
392.206	3.77
392.414	3.97
392.621	3.92
392.829	3.54
393.037	3.43
393.244	3.5
393.452	3.26
393.66	2.87
393.867	2.78
394.075	3.1
394.283	3.08
394.49	2.82
394.698	2.66
394.905	2.86
395.113	3.24
395.32	3.21
395.528	3.27
395.735	3.46
395.943	3.63
396.15	3.99
396.358	3.93
396.565	3.65
396.773	3.62
396.98	3.72
397.188	3.56
397.395	3.52
397.602	3.65
397.81	3.84
398.017	3.59
398.225	3.59
398.432	3.41
398.639	3.48
398.847	3.6
399.054	3.71
399.261	3.85
399.468	3.86
399.676	3.42
399.883	3.42
400.09	3.19
400.297	3.14
400.505	3.26
400.712	3.21
400.919	2.79
401.126	2.92
401.333	2.63
401.54	2.13
401.748	1.92
401.955	2.34
402.162	2.22
402.369	2.31
402.576	2.52
402.783	2.65
402.99	2.53
403.197	2.69
403.404	2.52
403.611	2.55
403.818	2.86
404.025	2.98
404.232	2.52
404.439	2.31
404.646	2.32
404.853	2.34
405.06	2.04
405.267	2.07
405.474	1.91
405.681	1.98
405.887	1.93
406.094	1.79
406.301	1.8
406.508	2.16
406.715	2.37
406.922	2.02
407.128	1.94
407.335	2.03
407.542	2.33
407.749	2.11
407.955	1.99
408.162	2.26
408.369	2.32
408.575	2.45
408.782	2.53
408.989	2.3
409.195	2.72
409.402	2.47
409.609	2.71
409.815	2.79
410.022	3.36
410.228	3.29
410.435	3.31
410.642	3.19
410.848	2.7
411.055	2.74
411.261	2.75
411.468	2.38
411.674	2.44
411.881	2.31
412.087	1.95
412.294	1.61
412.5	2.01
412.706	1.83
412.913	2.06
413.119	2.4
413.326	2.23
413.532	2.54
413.738	2.74
413.945	2.91
414.151	2.65
414.357	2.71
414.564	2.8
414.77	2.67
414.976	2.82
415.182	2.79
415.389	2.81
415.595	2.86
415.801	2.66
416.007	2.52
416.214	2.66
416.42	2.8
416.626	2.89
416.832	2.86
417.038	2.69
417.244	2.51
417.45	2.5
417.657	2.52
417.863	2.42
418.069	2.5
418.275	2.59
418.481	2.43
418.687	2.57
418.893	2.57
419.099	2.65
419.305	2.65
419.511	2.76
419.717	2.67
419.923	2.56
420.129	2.57
420.335	2.72
420.541	2.61
420.746	2.66
420.952	2.49
421.158	2.46
421.364	2.28
421.57	2.41
421.776	2.39
421.982	2.31
422.187	2.31
422.393	2.32
422.599	2.07
422.805	2.14
423.01	2.05
423.216	2.12
423.422	2.1
423.628	2.18
423.833	2.17
424.039	2.1
424.245	2.24
424.45	2.24
424.656	2.26
424.862	2.28
425.067	2.31
425.273	2.43
425.478	2.59
425.684	2.7
425.889	2.78
426.095	2.7
426.301	2.8
426.506	2.73
426.712	2.69
426.917	2.79
427.123	2.84
427.328	2.95
427.533	2.83
427.739	2.58
427.944	2.43
428.15	2.37
428.355	2.33
428.561	2.31
428.766	2.31
428.971	2.48
429.177	2.56
429.382	2.65
429.587	2.46
429.793	2.47
429.998	2.6
430.203	2.64
430.408	2.65
430.614	2.86
430.819	2.88
431.024	2.87
431.229	2.84
431.434	2.64
431.64	2.39
431.845	2.7
432.05	2.62
432.255	2.59
432.46	2.47
432.665	2.45
432.87	2.22
433.076	2.12
433.281	2.24
433.486	2.13
433.691	2.18
433.896	2.29
434.101	2.19
434.306	2.25
434.511	2.33
434.716	2.49
434.921	2.59
435.126	2.45
435.331	2.28
435.535	2.28
435.74	2.4
435.945	2.22
436.15	2.25
436.355	2.06
436.56	2.23
436.765	2.18
436.97	1.8
437.174	1.8
437.379	2.07
437.584	2.33
437.789	2.09
437.993	1.96
438.198	2.06
438.403	1.95
438.608	2.08
438.812	1.92
439.017	1.71
439.222	2
439.426	1.9
439.631	1.78
439.836	1.8
440.04	1.83
440.245	1.96
440.45	1.76
440.654	1.79
440.859	1.7
441.063	1.75
441.268	1.89
441.472	1.83
441.677	1.78
441.881	1.92
442.086	1.97
442.29	2.06
442.495	1.93
442.699	2.07
442.904	2.06
443.108	2.07
443.312	2.01
443.517	1.97
443.721	2.1
443.925	2.14
444.13	2.06
444.334	1.98
444.538	2
444.743	2.2
444.947	2.33
445.151	2.37
445.356	2.54
445.56	2.43
445.764	2.37
445.968	2.22
446.173	2.25
446.377	2.11
446.581	2.01
446.785	1.91
446.989	1.76
447.193	1.64
447.398	1.55
447.602	1.38
447.806	1.53
448.01	1.52
448.214	1.6
448.418	1.55
448.622	1.61
448.826	1.91
449.03	1.97
449.234	2.05
449.438	2.09
449.642	2.09
449.846	2.1
450.05	2.15
450.254	2.23
450.458	2.21
450.662	2.16
450.866	2.17
451.069	1.86
451.273	1.94
451.477	1.86
451.681	1.82
451.885	2.01
452.089	2.14
452.292	2.16
452.496	2.05
452.7	1.87
452.904	1.96
453.107	1.99
453.311	2.05
453.515	1.83
453.719	1.85
453.922	2.13
454.126	1.95
454.33	1.89
454.533	1.66
454.737	1.85
454.94	1.92
455.144	2.04
455.348	2
455.551	1.76
455.755	1.88
455.958	1.95
456.162	1.73
456.365	1.81
456.569	1.77
456.772	1.84
456.976	1.57
457.179	1.49
457.383	1.42
457.586	1.55
457.79	1.53
457.993	1.75
458.196	1.74
458.4	1.73
458.603	1.84
458.807	1.9
459.01	1.91
459.213	2.02
459.417	2.11
459.62	2.18
459.823	2.21
460.026	2.34
460.23	2.24
460.433	2.24
460.636	2.23
460.839	2.14
461.042	2.17
461.246	2.25
461.449	2.16
461.652	2.06
461.855	2.04
462.058	1.88
462.261	1.88
462.464	1.75
462.668	1.69
462.871	1.55
463.074	1.49
463.277	1.47
463.48	1.42
463.683	1.67
463.886	1.91
464.089	1.76
464.292	1.74
464.495	1.72
464.698	1.76
464.901	1.68
465.104	1.78
465.306	1.88
465.509	1.96
465.712	1.99
465.915	1.89
466.118	1.85
466.321	1.78
466.524	1.81
466.726	1.76
466.929	1.97
467.132	1.99
467.335	2.07
467.538	2.17
467.74	1.94
467.943	1.83
468.146	1.93
468.348	1.87
468.551	1.99
468.754	2.11
468.956	2.14
469.159	2.1
469.362	2.22
469.564	2.04
469.767	1.85
469.969	1.8
470.172	1.88
470.375	1.83
470.577	1.81
470.78	1.96
470.982	1.74
471.185	1.69
471.387	1.51
471.59	1.49
471.792	1.65
471.995	1.75
472.197	1.88
472.399	1.81
472.602	1.77
472.804	1.82
473.007	1.71
473.209	1.84
473.411	1.99
473.614	2.08
473.816	2.15
474.018	2.21
474.22	2.09
474.423	2.08
474.625	2.02
474.827	1.81
475.03	1.69
475.232	1.67
475.434	1.65
475.636	1.65
475.838	1.7
476.04	1.6
476.243	1.51
476.445	1.65
476.647	1.58
476.849	1.76
477.051	2.06
477.253	2.1
477.455	2.19
477.657	2.16
477.859	2.19
478.061	2.25
478.263	2.3
478.465	2.34
478.667	2.37
478.869	2.32
479.071	2.06
479.273	1.9
479.475	1.99
479.677	2.06
479.879	2.05
480.081	2.09
480.283	2
480.485	1.99
480.686	1.98
480.888	1.9
481.09	2.06
481.292	2.11
481.494	2.17
481.695	2.11
481.897	1.9
482.099	2.02
482.301	1.96
482.502	1.91
482.704	1.88
482.906	1.89
483.107	1.93
483.309	1.93
483.511	1.92
483.712	1.92
483.914	1.92
484.115	1.93
484.317	1.89
484.519	1.87
484.72	1.9
484.922	1.89
485.123	1.94
485.325	1.89
485.526	1.85
485.728	1.89
485.929	1.84
486.131	1.92
486.332	1.96
486.534	1.91
486.735	1.98
486.936	2.03
487.138	2.05
487.339	1.95
487.541	1.96
487.742	2.09
487.943	2.05
488.144	2.05
488.346	1.94
488.547	1.96
488.748	2.02
488.95	1.94
489.151	1.93
489.352	1.95
489.553	2.04
489.755	2.04
489.956	1.93
490.157	2.01
490.358	2.01
490.559	1.99
490.76	1.93
490.961	1.92
491.163	1.9
491.364	1.86
491.565	1.85
491.766	1.85
491.967	1.87
492.168	1.84
492.369	1.84
492.57	1.95
492.771	1.96
492.972	1.97
493.173	1.94
493.374	2.04
493.575	2.03
493.776	2.06
493.976	1.98
494.177	2.09
494.378	2.15
494.579	2.04
494.78	1.92
494.981	1.92
495.182	2.06
495.382	2.1
495.583	2.01
495.784	2.1
495.985	2.16
496.185	2.2
496.386	2.13
496.587	2.26
496.788	2.28
496.988	2.25
497.189	2.31
497.39	2.32
497.59	2.42
497.791	2.43
497.992	2.4
498.192	2.34
498.393	2.48
498.593	2.55
498.794	2.35
498.994	2.39
499.195	2.45
499.395	2.55
499.596	2.53
499.796	2.44
499.997	2.4
500.197	2.46
500.398	2.47
500.598	2.53
500.799	2.28
500.999	2.25
501.199	2.27
501.4	2.22
501.6	2.13
501.801	2.14
502.001	2.23
502.201	2.29
502.402	2.19
502.602	2.14
502.802	1.82
503.002	1.99
503.203	2.16
503.403	2.22
503.603	2.32
503.803	2.31
504.003	2.3
504.204	2.18
504.404	2.25
504.604	2.19
504.804	2.21
505.004	2.19
505.204	2.22
505.404	1.98
505.604	1.99
505.804	1.9
506.005	1.88
506.205	1.8
506.405	1.9
506.605	1.94
506.805	2.02
507.005	2.06
507.204	2.05
507.404	1.99
507.604	2.3
507.804	2.36
508.004	2.3
508.204	2.33
508.404	2.35
508.604	2.3
508.804	2.18
509.003	2.27
509.203	2.34
509.403	2.54
509.603	2.63
509.803	2.61
510.002	2.67
510.202	2.76
510.402	2.79
510.602	2.79
510.801	2.91
511.001	3.07
511.201	3.03
511.4	3
511.6	3.04
511.8	2.98
511.999	2.76
512.199	2.64
512.398	2.76
512.598	2.81
512.797	2.91
512.997	2.89
513.197	2.8
513.396	2.73
513.596	2.66
513.795	2.51
513.994	2.54
514.194	2.64
514.393	2.63
514.593	2.48
514.792	2.42
514.992	2.34
515.191	2.31
515.39	2.36
515.59	2.43
515.789	2.61
515.988	2.84
516.188	2.82
516.387	2.82
516.586	2.86
516.786	2.94
516.985	2.98
517.184	3.12
517.383	3.05
517.582	3.02
517.782	2.98
517.981	2.82
518.18	2.68
518.379	2.63
518.578	2.65
518.777	2.64
518.976	2.64
519.176	2.5
519.375	2.44
519.574	2.37
519.773	2.42
519.972	2.39
520.171	2.54
520.37	2.54
520.569	2.64
520.768	2.67
520.967	2.65
521.166	2.63
521.365	2.87
521.564	2.83
521.762	2.94
521.961	2.84
522.16	2.92
522.359	2.86
522.558	2.79
522.757	2.66
522.956	2.66
523.154	2.67
523.353	2.72
523.552	2.76
523.751	2.81
523.949	2.82
524.148	2.86
524.347	2.88
524.546	2.8
524.744	2.83
524.943	2.99
525.142	3.02
525.34	3.11
525.539	3.05
525.737	2.81
525.936	2.84
526.135	2.9
526.333	2.91
526.532	2.91
526.73	3
526.929	3.11
527.127	3.06
527.326	3.1
527.524	3.07
527.723	3.08
527.921	3.16
528.12	3.18
528.318	3.18
528.516	3.23
528.715	3.26
528.913	3.23
529.112	3.2
529.31	3.25
529.508	3.27
529.707	3.21
529.905	3.27
530.103	3.31
530.301	3.28
530.5	3.26
530.698	3.26
530.896	3.31
531.094	3.37
531.293	3.48
531.491	3.42
531.689	3.36
531.887	3.45
532.085	3.39
532.283	3.34
532.481	3.34
532.68	3.46
532.878	3.48
533.076	3.41
533.274	3.43
533.472	3.46
533.67	3.49
533.868	3.51
534.066	3.53
534.264	3.53
534.462	3.61
534.66	3.78
534.858	3.75
535.056	3.7
535.253	3.77
535.451	3.74
535.649	3.68
535.847	3.7
536.045	3.76
536.243	3.84
536.441	3.84
536.638	3.92
536.836	3.86
537.034	3.76
537.232	3.86
537.43	3.8
537.627	3.87
537.825	3.84
538.023	3.81
538.22	3.78
538.418	3.8
538.616	3.91
538.813	3.88
539.011	3.84
539.209	4.07
539.406	4.11
539.604	4.25
539.801	4.3
539.999	4.37
540.196	4.44
540.394	4.54
540.591	4.53
540.789	4.58
540.986	4.54
541.184	4.55
541.381	4.54
541.579	4.59
541.776	4.62
541.974	4.54
542.171	4.57
542.368	4.58
542.566	4.52
542.763	4.59
542.96	4.55
543.158	4.65
543.355	4.72
543.552	4.74
543.75	4.7
543.947	4.76
544.144	4.91
544.341	4.97
544.539	4.98
544.736	5.09
544.933	5.14
545.13	5.32
545.327	5.26
545.524	5.39
545.722	5.3
545.919	5.47
546.116	5.39
546.313	5.38
546.51	5.37
546.707	5.56
546.904	5.58
547.101	5.53
547.298	5.42
547.495	5.48
547.692	5.45
547.889	5.61
548.086	5.5
548.283	5.65
548.48	5.78
548.677	5.75
548.874	5.68
549.07	5.64
549.267	5.73
549.464	5.92
549.661	6.1
549.858	6.16
550.055	6.15
550.251	6.23
550.448	6.19
550.645	6.22
550.842	6.42
551.038	6.46
551.235	6.57
551.432	6.65
551.628	6.63
551.825	6.49
552.022	6.43
552.218	6.51
552.415	6.52
552.612	6.55
552.808	6.57
553.005	6.68
553.201	6.66
553.398	6.92
553.594	6.94
553.791	6.98
553.987	7.27
554.184	7.3
554.38	7.38
554.577	7.56
554.773	7.67
554.97	7.73
555.166	7.56
555.362	7.71
555.559	7.51
555.755	7.57
555.952	7.7
556.148	7.65
556.344	7.71
556.541	7.63
556.737	7.74
556.933	7.87
557.129	8.06
557.326	8.31
557.522	8.28
557.718	8.53
557.914	8.77
558.11	8.77
558.307	8.84
558.503	9.03
558.699	9.39
558.895	9.43
559.091	9.34
559.287	9.31
559.483	9.29
559.679	9.32
559.876	9.46
560.072	9.18
560.268	9.29
560.464	9.24
560.66	9.06
560.856	8.96
561.052	8.86
561.247	8.99
561.443	9.01
561.639	9.02
561.835	9.25
562.031	9.12
562.227	9.28
562.423	9.19
562.619	9.13
562.815	9.32
563.01	9.34
563.206	9.56
563.402	9.42
563.598	9.61
563.793	9.88
563.989	9.82
564.185	10.08
564.381	10.31
564.576	10.6
564.772	10.7
564.968	10.77
565.163	10.95
565.359	10.91
565.555	11
565.75	11.11
565.946	11.01
566.141	11.17
566.337	11.14
566.532	11.13
566.728	11.01
566.923	11.27
567.119	11.39
567.314	11.29
567.51	11.52
567.705	11.79
567.901	11.82
568.096	11.86
568.292	11.68
568.487	11.56
568.682	11.69
568.878	12.03
569.073	12
569.268	12.02
569.464	12.03
569.659	11.95
569.854	12.01
570.05	12.09
570.245	12.35
570.44	12.78
570.635	12.92
570.831	12.84
571.026	12.82
571.221	12.89
571.416	12.95
571.611	13.1
571.806	13.31
572.002	13.27
572.197	13.36
572.392	13.29
572.587	13.1
572.782	13.26
572.977	13.36
573.172	13.39
573.367	13.28
573.562	13.28
573.757	13.4
573.952	13.29
574.147	13.35
574.342	13.36
574.537	13.6
574.732	13.8
574.927	13.7
575.121	13.74
575.316	13.75
575.511	13.85
575.706	14.05
575.901	14.24
576.096	14.44
576.29	14.54
576.485	14.48
576.68	14.33
576.875	14.3
577.069	14.44
577.264	14.55
577.459	14.64
577.654	14.82
577.848	14.88
578.043	14.85
578.238	14.74
578.432	14.77
578.627	14.84
578.821	15.15
579.016	15.45
579.21	15.43
579.405	15.68
579.6	15.73
579.794	15.75
579.989	15.26
580.183	15.23
580.378	15.36
580.572	15.4
580.766	15.51
580.961	15.2
581.155	15.28
581.35	15.25
581.544	14.97
581.738	14.93
581.933	15.22
582.127	15.8
582.321	15.77
582.516	15.69
582.71	15.62
582.904	15.66
583.099	15.86
583.293	15.59
583.487	15.56
583.681	15.79
583.875	15.93
584.07	15.87
584.264	15.89
584.458	15.81
584.652	15.62
584.846	15.85
585.04	15.82
585.234	15.71
585.428	15.9
585.623	16.39
585.817	16.52
586.011	16.54
586.205	16.45
586.399	16.25
586.593	16.52
586.787	16.78
586.981	16.9
587.174	16.92
587.368	16.82
587.562	16.8
587.756	16.77
587.95	16.62
588.144	16.54
588.338	16.67
588.532	16.91
588.725	16.83
588.919	16.86
589.113	16.73
589.307	16.73
589.501	16.77
589.694	16.83
589.888	16.75
590.082	16.51
590.275	16.47
590.469	16.36
590.663	16.3
590.856	16.21
591.05	16.03
591.244	15.99
591.437	16.05
591.631	16.37
591.824	16.21
592.018	16.2
592.212	16.52
592.405	16.57
592.599	16.52
592.792	16.53
592.986	16.54
593.179	16.76
593.372	16.87
593.566	16.6
593.759	16.6
593.953	16.5
594.146	16.45
594.339	16.57
594.533	16.72
594.726	16.98
594.92	16.82
595.113	16.96
595.306	16.92
595.499	17.12
595.693	17.27
595.886	17.26
596.079	17.54
596.272	17.57
596.466	17.49
596.659	17.33
596.852	16.99
597.045	17.09
597.238	17.15
597.431	17.18
597.624	17.09
597.818	17.22
598.011	17.08
598.204	17.03
598.397	17.08
598.59	17.06
598.783	17.1
598.976	17.37
599.169	17.48
599.362	17.26
599.555	17.14
599.748	16.98
599.941	17.01
600.134	17.41
600.326	17.35
600.519	17.39
600.712	17.37
600.905	17.36
601.098	17.19
601.291	17.4
601.483	17.47
601.676	17.63
601.869	17.61
602.062	17.37
602.255	16.97
602.447	17.06
602.64	17.02
602.833	16.82
603.025	17.1
603.218	17.31
603.411	17.25
603.603	17.58
603.796	17.72
603.989	17.75
604.181	17.96
604.374	17.97
604.566	17.9
604.759	17.87
604.951	18.21
605.144	18.02
605.336	17.83
605.529	17.7
605.721	17.63
605.914	17.32
606.106	17.18
606.299	17.06
606.491	17.29
606.683	17.4
606.876	17.69
607.068	17.37
607.26	17.49
607.453	17.66
607.645	17.72
607.837	17.64
608.03	17.81
608.222	17.9
608.414	18
608.606	17.81
608.799	18.05
608.991	17.93
609.183	17.93
609.375	18.1
609.567	18.21
609.759	18.21
609.952	18.1
610.144	18.32
610.336	18.52
610.528	18.51
610.72	18.59
610.912	18.49
611.104	18.44
611.296	18.53
611.488	18.33
611.68	18.24
611.872	18.19
612.064	18.15
612.256	17.95
612.448	17.87
612.64	17.81
612.832	17.82
613.023	17.64
613.215	17.75
613.407	17.93
613.599	17.9
613.791	17.94
613.983	18.01
614.174	17.96
614.366	18.09
614.558	17.97
614.75	17.85
614.941	17.75
615.133	17.87
615.325	17.91
615.516	17.65
615.708	17.92
615.9	18.12
616.091	18.2
616.283	18.54
616.475	18.34
616.666	18.14
616.858	18.47
617.049	18.8
617.241	18.7
617.432	18.66
617.624	19.06
617.815	18.94
618.007	18.76
618.198	18.82
618.39	18.69
618.581	18.68
618.773	18.96
618.964	18.69
619.155	18.66
619.347	18.54
619.538	18.39
619.729	17.79
619.921	17.78
620.112	17.48
620.303	17.22
620.494	17.47
620.686	17.89
620.877	17.96
621.068	18.18
621.259	17.92
621.451	17.97
621.642	18.02
621.833	18.32
622.024	18.18
622.215	18.35
622.406	18.4
622.597	18.36
622.788	18.18
622.98	17.91
623.171	18.07
623.362	18.12
623.553	18.22
623.744	18.17
623.935	18.13
624.126	18.22
624.317	18.59
624.508	18.84
624.698	18.78
624.889	18.45
625.08	18.51
625.271	18.09
625.462	17.98
625.653	17.93
625.844	17.74
626.034	17.8
626.225	17.78
626.416	17.65
626.607	17.5
626.798	17.39
626.988	17.6
627.179	17.65
627.37	17.85
627.56	18.06
627.751	18.38
627.942	18.63
628.132	18.74
628.323	18.82
628.514	18.79
628.704	19.01
628.895	18.91
629.085	18.81
629.276	18.83
629.466	18.73
629.657	18.59
629.847	18.23
630.038	18.2
630.228	18.1
630.419	18.19
630.609	17.98
630.8	17.99
630.99	18.3
631.181	18.31
631.371	18.68
631.561	18.62
631.752	18.91
631.942	18.98
632.132	18.86
632.323	18.87
632.513	18.74
632.703	19.14
632.893	18.98
633.084	18.74
633.274	18.64
633.464	18.57
633.654	18.63
633.844	18.23
634.034	18.19
634.225	18.21
634.415	18.25
634.605	18.04
634.795	17.96
634.985	17.92
635.175	17.95
635.365	18.19
635.555	18.05
635.745	18.28
635.935	18.56
636.125	18.42
636.315	18.53
636.505	18.44
636.695	18.61
636.885	18.61
637.075	18.72
637.265	18.69
637.455	18.82
637.644	18.66
637.834	18.63
638.024	18.54
638.214	18.92
638.404	18.75
638.593	18.73
638.783	18.5
638.973	18.24
639.163	18.17
639.352	18.36
639.542	18.05
639.732	17.84
639.921	17.62
640.111	17.76
640.301	17.56
640.49	17.87
640.68	18.12
640.87	18.37
641.059	18.85
641.249	18.87
641.438	19.11
641.628	19.47
641.817	19.87
642.007	20.29
642.196	20.14
642.386	19.71
642.575	19.54
642.764	18.92
642.954	18.99
643.143	18.77
643.333	18.37
643.522	17.64
643.711	17.65
643.901	17.63
644.09	17.37
644.279	17.27
644.469	17.47
644.658	17.53
644.847	18.12
645.036	18.16
645.226	17.85
645.415	18.41
645.604	18.86
645.793	18.58
645.982	18.28
646.171	18.32
646.361	18.1
646.55	18.32
646.739	18.19
646.928	18.12
647.117	18.2
647.306	18.48
647.495	18.36
647.684	18.6
647.873	18.28
648.062	18.23
648.251	18.29
648.44	18.98
648.629	19.12
648.818	19.51
649.007	19.34
649.196	19.47
649.384	19.5
649.573	19.41
649.762	19.55
649.951	20.2
650.14	20.31
650.328	19.73
650.517	19.31
650.706	19.37
650.895	19.06
651.083	19.15
651.272	18.83
651.461	18.8
651.65	18.7
651.838	18.3
652.027	18.15
652.216	18.12
652.404	18.57
652.593	18.86
652.781	18.51
652.97	18.63
653.158	18.72
653.347	19.09
653.535	18.98
653.724	18.75
653.912	18.68
654.101	18.78
654.289	19.44
654.478	19.49
654.666	19.56
654.855	19.49
655.043	19.53
655.231	19.21
655.42	18.82
655.608	18.82
655.796	19.5
655.985	19.33
656.173	18.89
656.361	18.29
656.55	18.3
656.738	18.03
656.926	18.45
657.114	18.28
657.302	18.28
657.491	18.53
657.679	19.15
657.867	19.1
658.055	19.59
658.243	19.5
658.431	19.63
658.619	19.67
658.807	19.58
658.996	19.47
659.184	20
659.372	20.12
659.56	19.8
659.748	19.34
659.936	19.3
660.124	18.96
660.311	18.97
660.499	18.79
660.687	18.67
660.875	18.9
661.063	19.05
661.251	18.36
661.439	18.73
661.627	18.87
661.814	18.77
662.002	18.66
662.19	18.57
662.378	19.09
662.565	19.14
662.753	19.13
662.941	19.15
663.129	18.69
663.316	19.27
663.504	19.1
663.692	19
663.879	18.94
664.067	18.91
664.254	19.2
664.442	18.65
664.63	18.84
664.817	18.96
665.005	18.7
665.192	18.87
665.38	18.14
665.567	17.79
665.755	17.7
665.942	18.27
666.13	18.25
666.317	18.49
666.504	18.56
666.692	18.47
666.879	18.6
667.067	19.17
667.254	19.11
667.441	19.52
667.629	19.32
667.816	20.12
668.003	19.83
668.19	19.93
668.378	19.69
668.565	19.51
668.752	19.64
668.939	19.25
669.127	18.54
669.314	18.96
669.501	19.02
669.688	19.39
669.875	19.38
670.062	19.67
670.249	19.73
670.436	19.62
670.623	20.05
670.81	20.08
670.997	20.36
671.184	20.38
671.371	20.07
671.558	20.06
671.745	19.81
671.932	19.14
672.119	18.92
672.306	19.05
672.493	18.81
672.68	18.94
672.867	18.59
673.054	18.6
673.24	19.3
673.427	19.31
673.614	19.14
673.801	19.12
673.988	19.32
674.174	19.22
674.361	18.92
674.548	19.22
674.734	19.14
674.921	19.92
675.108	19.67
675.294	19.18
675.481	19.01
675.668	18.87
675.854	19.24
676.041	19.39
676.227	19.4
676.414	19.02
676.601	19.34
676.787	18.84
676.974	18.1
677.16	17.85
677.347	18.05
677.533	18.43
677.719	18.87
677.906	19.09
678.092	18.89
678.279	18.69
678.465	18.82
678.651	18.52
678.838	19.01
679.024	19.53
679.21	19.7
679.397	19.56
679.583	19.45
679.769	19.4
679.955	18.94
680.142	18.98
680.328	19.38
680.514	19.82
680.7	20.02
680.886	20.34
681.073	20.15
681.259	20.6
681.445	20.88
681.631	20.69
681.817	20.15
682.003	19.94
682.189	19.97
682.375	19.8
682.561	19.84
682.747	19.97
682.933	19.45
683.119	19.31
683.305	18.95
683.491	18.65
683.677	19.07
683.863	19.69
684.049	20.57
684.235	20.78
684.42	20.88
684.606	20.79
684.792	20.56
684.978	20.53
685.164	20.58
685.349	20.76
685.535	20.52
685.721	20.55
685.907	20.5
686.092	20.36
686.278	20.27
686.464	20
686.649	19.84
686.835	19.86
687.021	20.34
687.206	20.46
687.392	20.48
687.577	20.8
687.763	20.2
687.948	20.29
688.134	19.83
688.319	20.62
688.505	20.93
688.69	21.11
688.876	21.03
689.061	20.43
689.247	20.58
689.432	20.51
689.618	20.99
689.803	20.88
689.988	20.63
690.174	20.86
690.359	20.04
690.544	19.54
690.73	19.58
690.915	20.05
691.1	20.64
691.285	20.43
691.471	20.26
691.656	19.79
691.841	20.06
692.026	20.52
692.211	20.47
692.396	20.41
692.582	20.86
692.767	20.71
692.952	21.08
693.137	20.7
693.322	21.07
693.507	21.18
693.692	21.1
693.877	21.47
694.062	20.75
694.247	21.17
694.432	20.92
694.617	20.46
694.802	20.72
694.987	19.46
695.172	19.44
695.357	18.8
695.541	18.55
695.726	18.42
695.911	18.22
696.096	18.88
696.281	18.66
696.466	19.21
696.65	19.27
696.835	19.1
697.02	19.73
697.204	19.45
697.389	19.63
697.574	19.64
697.759	20.25
697.943	20.09
698.128	19.67
698.312	19.77
698.497	19.46
698.682	19.87
698.866	19.92
699.051	19.93
699.235	20.42
699.42	20.35
699.604	20.67
699.789	20.44
699.973	20.93
700.158	21.24
700.342	21.35
700.527	21.92
700.711	21.34
700.895	20.95
701.08	20.94
701.264	20.92
701.448	20.57
701.633	20.39
701.817	20.22
702.001	19.6
702.186	19.75
702.37	19.14
702.554	19.02
702.738	19.68
702.923	19.46
703.107	19.64
703.291	18.62
703.475	19.34
703.659	19.58
703.843	18.72
704.027	18.56
704.212	18.29
704.396	18.5
704.58	17.99
704.764	17.91
704.948	18.66
705.132	18.78
705.316	19.35
705.5	19.39
705.684	19.65
705.868	19.82
706.052	20.64
706.235	20.74
706.419	21.09
706.603	21.35
706.787	21.53
706.971	21.14
707.155	20.8
707.339	21.4
707.522	21.31
707.706	20.69
707.89	21.42
708.074	21.93
708.257	22.33
708.441	23
708.625	23.24
708.808	22.33
708.992	22.82
709.176	22.36
709.359	21.7
709.543	21.42
709.727	21.35
709.91	21.46
710.094	21.16
710.277	20.95
710.461	20.04
710.644	19.48
710.828	20.31
711.011	20.37
711.195	20.61
711.378	20.66
711.562	20.82
711.745	21.18
711.928	20.92
712.112	20.47
712.295	19.99
712.478	20.61
712.662	21.11
712.845	21.13
713.028	21.65
713.212	21.82
713.395	22.49
713.578	23.15
713.761	22.64
713.945	23.04
714.128	23.4
714.311	23.77
714.494	23.52
714.677	22.95
714.86	22.45
715.043	21.82
715.227	21.4
715.41	21.54
715.593	21.13
715.776	21.49
715.959	20.77
716.142	20.01
716.325	20.16
716.508	19.66
716.691	19.81
716.874	19.91
717.057	19.81
717.239	19.66
717.422	19.45
717.605	19.29
717.788	18.9
717.971	19.82
718.154	20.81
718.337	21.46
718.519	22.12
718.702	23.01
718.885	23.34
719.068	23.36
719.25	23.99
719.433	23.53
719.616	22.92
719.798	23.22
719.981	22.97
720.164	22.98
720.346	21.42
720.529	21.21
720.712	20.25
720.894	20.6
721.077	19.63
721.259	19.87
721.442	19.42
721.624	20.59
721.807	20.82
721.989	20.18
722.172	19.07
722.354	19.28
722.537	18.98
722.719	19.64
722.901	19.48
723.084	20.88
723.266	20.16
723.448	20.04
723.631	18.95
723.813	19.07
723.995	19.99
724.178	20.76
724.36	20.84
724.542	20.02
724.724	18.84
724.907	18.82
725.089	18.7
725.271	20.53
725.453	21.04
725.635	22.18
725.817	21.48
725.999	20
726.181	20
726.364	19.83
726.546	21.83
726.728	23.09
726.91	23.25
727.092	22.69
727.274	21.55
727.456	21.7
727.638	22.29
727.819	22.83
728.001	23.98
728.183	23.75
728.365	24.43
728.547	23.68
728.729	23.35
728.911	22.83
729.093	22.94
729.274	22.97
729.456	22.96
729.638	22.73
729.82	22.7
730.001	22.62
730.183	22.43
730.365	22.21
730.546	22.58
730.728	21.54
730.91	21.22
731.091	21.66
731.273	21.34
731.455	21.31
731.636	20.55
731.818	20.22
731.999	20.01
732.181	19.87
732.362	19.62
732.544	19.19
732.725	20.42
732.907	20.89
733.088	20.27
733.27	20.17
733.451	20.31
733.633	20.57
733.814	20.89
733.995	21.67
734.177	21.8
734.358	22.44
734.539	22.7
734.721	22.4
734.902	22.7
735.083	23.03
735.264	23.44
735.446	23.39
735.627	23.34
735.808	23.79
735.989	22.48
736.17	21.85
736.351	21.6
736.533	20.44
736.714	20.31
736.895	19.83
737.076	19.53
737.257	19.72
737.438	19.53
737.619	19.43
737.8	18.64
737.981	19.29
738.162	20.33
738.343	20.2
738.524	20.99
738.705	21.42
738.886	20.87
739.067	21.43
739.247	20.54
739.428	20.3
739.609	20.44
739.79	19.43
739.971	20.18
740.151	19.82
740.332	19.08
740.513	19.09
740.694	18.81
740.874	19.7
741.055	19.15
741.236	19.75
741.417	21.29
741.597	21.11
741.778	23.22
741.958	23.18
742.139	22.39
742.32	22.76
742.5	22.78
742.681	22.85
742.861	22.18
743.042	21.53
743.222	20.89
743.403	19.06
743.583	19.72
743.764	18.36
743.944	17.01
744.124	17.35
744.305	18.92
744.485	19.33
744.666	20.04
744.846	21.24
745.026	22.51
745.207	23.47
745.387	24.52
745.567	23.59
745.747	24.21
745.928	24.78
746.108	25.35
746.288	23.27
746.468	20.77
746.648	18.71
746.829	17.62
747.009	16.96
747.189	16.72
747.369	15.87
747.549	17.03
747.729	17.01
747.909	17.83
748.089	17.87
748.269	19.07
748.449	21.33
748.629	22.49
748.809	23.65
748.989	24.24
749.169	24.12
749.349	24.79
749.529	23.66
749.709	23.43
749.889	22.39
750.068	22.81
750.248	22.86
750.428	21.83
750.608	22.02
750.788	21.43
750.967	21.03
751.147	21.38
751.327	19.92
751.507	19.84
751.686	19.84
751.866	19.92
752.046	19.94
752.225	20.33
752.405	21.28
752.585	21.7
752.764	21.52
752.944	20.83
753.123	20.94
753.303	22.56
753.482	22.6
753.662	22.9
753.841	22.81
754.021	22.31
754.2	21.72
754.38	21.56
754.559	20.62
754.739	20.11
754.918	20.59
755.097	19.19
755.277	18.92
755.456	19.62
755.635	19.84
755.815	20.06
755.994	20.68
756.173	19.53
756.352	18.93
756.532	18.81
756.711	18.51
756.89	18.76
757.069	18.86
757.248	18.58
757.427	18.27
757.607	17.71
757.786	18.86
757.965	18.12
758.144	19.29
758.323	19.79
758.502	18.76
758.681	18.68
758.86	17.63
759.039	18.45
759.218	18.39
759.397	18.21
759.576	16.82
759.755	15.33
759.934	15.46
760.113	13.54
760.291	13.53
760.47	15.37
760.649	16.15
760.828	17.91
761.007	17.18
761.186	17.14
761.364	16.81
761.543	17.29
761.722	18.14
761.901	18.9
762.079	20.92
762.258	21.18
762.437	20.35
762.615	19.83
762.794	19.46
762.972	20.29
763.151	20.99
763.33	21.66
763.508	23.33
763.687	23.09
763.865	22.8
764.044	23.46
764.222	23.25
764.401	23.02
764.579	24.26
764.758	24.29
764.936	24.38
765.114	23.69
765.293	23.48
765.471	22.2
765.65	23.43
765.828	23.87
766.006	22.52
766.184	22.18
766.363	22.27
766.541	22.12
766.719	22.52
766.898	23.37
767.076	24.24
767.254	24.75
767.432	26.21
767.61	25.43
767.788	24.89
767.967	24.94
768.145	25.57
768.323	25.69
768.501	25.1
768.679	25.37
768.857	23.7
769.035	22.69
769.213	23.12
769.391	19.51
769.569	19.84
769.747	21.6
769.925	21.64
770.103	20.5
770.281	21.93
770.459	21.49
770.636	20.72
770.814	21.43
770.992	21.69
771.17	19.14
771.348	22.98
771.525	20.57
771.703	18.65
771.881	17.6
772.059	18.5
772.236	17.47
772.414	18.79
772.592	19
772.769	18.22
772.947	19.33
773.125	22.13
773.302	22.1
773.48	23.55
773.657	23.76
773.835	25.65
774.013	25.56
774.19	25.33
774.368	24.31
774.545	23.05
774.723	22.89
774.9	22.15
775.077	20.04
775.255	21.48
775.432	22.02
775.61	20.9
775.787	19.92
775.964	17.65
776.142	17.83
776.319	16.94
776.496	17.74
776.674	19.27
776.851	20.52
777.028	20.32
777.205	16.69
777.382	16.89
777.56	18.48
777.737	18.22
777.914	22.08
778.091	22.96
778.268	22.13
778.445	22.78
778.622	21.69
778.8	18.79
778.977	20.65
779.154	22.43
779.331	20.11
779.508	21.14
779.685	23.71
779.862	22.74
780.038	23.46
780.215	27.38
780.392	26.36
780.569	27.52
780.746	29.18
780.923	28.26
781.1	28.05
781.277	29.27
781.453	26.34
781.63	23.63
781.807	20.76
781.984	20.4
782.16	17.44
782.337	16.11
782.514	13.32
782.691	9.91
782.867	8.28
783.044	9.13
783.221	9.17
783.397	12.43
783.574	11.42
783.75	14.49
783.927	15.6
784.103	16.17
784.28	17.2
784.456	18.89
784.633	20.23
784.809	21.09
784.986	20.81
785.162	22.04
785.339	20.44
785.515	21.74
785.692	21.41
785.868	16.84
786.044	16.01
786.221	20.9
786.397	19.59
786.573	19.75
786.749	23.38
786.926	22.2
787.102	19.74
787.278	20.68
787.454	22.77
787.631	21.39
787.807	24.42
787.983	24.78
788.159	21.93
788.335	25.2
788.511	25.2
788.687	20.89
788.863	21.72
789.039	23.15
789.216	23.97
789.392	22.54
789.568	22.97
789.744	21.72
789.919	20.61
790.095	21.87
790.271	20.48
790.447	25.12
790.623	25.93
790.799	25.65
790.975	25.56
791.151	28.25
791.327	30.43
791.502	31.37
791.678	29.92
791.854	30.64
792.03	27.77
792.205	25.74
792.381	23.82
792.557	27.99
792.733	26.18
792.908	26.6
793.084	24.61
793.259	22.31
793.435	22.69
793.611	22.32
793.786	24.32
793.962	24.01
794.137	23.55
794.313	21.3
794.488	20.49
794.664	23.82
794.839	24.25
795.015	20.87
795.19	23.66
795.366	21.08
795.541	25.57
795.716	22.91
795.892	25.58
796.067	25.63
796.242	26.83
796.418	25.93
796.593	26.19
796.768	24.36
796.944	26.2
797.119	25.67
797.294	27.26
797.469	28.02
797.644	28.63
797.82	26.96
797.995	28.32
798.17	27.87
798.345	27.33
798.52	21.93
798.695	22.53
798.87	22.66
799.045	17.65
799.22	17.44
799.395	15.46
799.57	10.03
799.745	11.76
799.92	13.02
800.095	13
800.27	11.6
800.445	15.39
800.62	16.02
800.795	14.63
800.97	19.61
801.145	18.32
801.319	16.75
801.494	24.21
801.669	23.7
801.844	20.55
802.018	19.13
802.193	19.8
802.368	18.06
802.543	16.52
802.717	16.66
802.892	14.74
803.067	15.08
803.241	14.55
803.416	11.83
803.59	13.3
803.765	13.33
803.94	16.15
804.114	16.15
804.289	20.53
804.463	22.08
804.638	24.51
804.812	24.83
804.986	26.14
805.161	28.37
805.335	26.68
805.51	25.76
805.684	26.84
805.858	23.47
806.033	22.68
806.207	18.99
806.381	18.77
806.556	18
806.73	19.51
806.904	22.45
807.078	22.9
807.253	25.47
807.427	22.61
807.601	23.47
807.775	21.61
807.949	21.8
808.123	24.63
808.298	23.45
808.472	21.51
808.646	21.18
808.82	15.91
808.994	13.02
809.168	11.01
809.342	12.5
809.516	9.79
809.69	12.22
809.864	15.75
810.038	14.02
810.212	16.09
810.385	17.05
810.559	18.95
810.733	19.21
810.907	18.43
811.081	19.24
811.255	21.44
811.428	24.11
811.602	20.95
811.776	14.69
811.95	12.1
812.123	8.85
812.297	13.16
812.471	6.46
812.644	11.21
812.818	10.62
812.992	7.86
813.165	1.18
813.339	2.61
813.512	0.17
813.686	7.39
813.86	15.83
814.033	17.3
814.207	12.42
814.38	13.78
814.554	8.72
814.727	13.91
814.9	15.21
815.074	23.02
815.247	22.84
815.421	26.48
815.594	28.71
815.767	22.86
815.941	24.44
816.114	26.95
816.287	33.25
816.46	34.29
816.634	29.66
816.807	31.09
816.98	30.85
817.153	29.46
817.327	32.06
817.5	26.83
817.673	28
817.846	27.43
818.019	26.66
818.192	18.15
818.365	22.26
818.538	27.61
818.711	28.72
818.884	24.29
819.057	23.51
819.23	24.45
819.403	28.83
819.576	25.92
819.749	21.79
819.922	19.35
820.095	19.91
820.268	18.69
820.441	17.16
820.614	20.54
820.786	21.02
820.959	19.82
821.132	19.7
821.305	19.32
821.477	20.8
821.65	21.43
821.823	22.28
821.996	24.25
822.168	23.48
822.341	23.19
822.514	21.88
822.686	21.57
822.859	22.58
823.031	21.3
823.204	21.31
823.376	20.97
823.549	21.06
823.722	21.55
823.894	20.76
824.067	20.43
824.239	20.42
824.411	20.94
824.584	21.2
824.756	20.39
824.929	20.4
825.101	20.3
825.273	21.3
825.446	21.46
825.618	20.49
825.79	19.94
825.963	20.35
826.135	20.16
826.307	19.29
826.479	19.12
826.652	19.29
826.824	20.56
826.996	19.67
827.168	17.7
827.34	17.05
827.512	16.72
827.684	16.84
827.856	17.75
828.029	17.14
828.201	17.7
828.373	18.5
828.545	18.74
828.717	19.21
828.889	19.79
829.061	21.38
829.232	21.49
829.404	21.66
829.576	20.29
829.748	20.37
829.92	22.88
830.092	24.97
830.264	23.69
830.436	24.87
830.607	22.73
830.779	19.6
830.951	15.6
831.123	17.52
831.294	16.11
831.466	19.56
831.638	19.35
831.809	19.42
831.981	11.82
832.153	13.31
832.324	10.57
832.496	15.2
832.667	17.66
832.839	20.49
833.011	21.16
833.182	23.49
833.354	20.91
833.525	20.61
833.697	16.77
833.868	18.2
834.039	18.56
834.211	21.04
834.382	20.28
834.554	20.84
834.725	22.21
834.896	22.57
835.068	23.05
835.239	23.47
835.41	22.89
835.581	24.21
835.753	25.08
835.924	23.28
836.095	19.29
836.266	21.39
836.438	20.38
836.609	19.21
836.78	14.03
836.951	13.33
837.122	15.03
837.293	18.8
837.464	19.86
837.635	19.54
837.806	21.34
837.977	26.27
838.148	22.82
838.319	24.04
838.49	22.85
838.661	24.98
838.832	21.8
839.003	23.22
839.174	19.81
839.345	18.72
839.516	20.05
839.687	13.22
839.857	11.17
840.028	13.41
840.199	18.83
840.37	20.21
840.54	22.29
840.711	25.73
840.882	24.32
841.053	21.01
841.223	19.96
841.394	24.9
841.564	28.87
841.735	25.04
841.906	15.6
842.076	13.79
842.247	10.72
842.417	13.99
842.588	12.56
842.758	16.61
842.929	19.85
843.099	15
843.27	7.42
843.44	6.44
843.611	5.75
843.781	16.04
843.951	5.04
844.122	7.71
844.292	0.48
844.462	-2.95
844.633	-9.15
844.803	-11.08
844.973	-0.63
845.144	7.69
845.314	8.83
845.484	21.67
845.654	22.47
845.824	34.47
845.995	39.18
846.165	43.02
846.335	41.66
846.505	38.3
846.675	38.45
846.845	44.1
847.015	50.35
847.185	53.29
847.355	62.52
847.525	65.34
847.695	69.17
847.865	63.59
848.035	57.71
848.205	66.61
848.375	69.08
848.545	52.54
848.715	48.34
848.884	29.56
849.054	38.61
849.224	15.22
849.394	12.1
849.564	-0.69
849.733	-5.23
849.903	-11.32
850.073	-6.34
850.243	9.13
850.412	19.6
850.582	18.44
850.752	21.5
850.921	5.75
851.091	1.06
851.26	8.27
851.43	-10.11
851.599	-14.26
851.769	12.07
851.939	16.73
852.108	13.49
852.278	21.35
852.447	40.95
852.616	33.48
852.786	37.49
852.955	33.04
853.125	16.64
853.294	23.6
853.463	35.53
853.633	21.94
853.802	30.5
853.971	20.91
854.141	26.85
854.31	14.87
854.479	9.64
854.648	23.33
854.818	18.74
854.987	35.04
855.156	43.41
855.325	35.04
855.494	30.17
855.663	27.19
855.832	33.68
856.001	26.76
856.171	27.13
856.34	47.18
856.509	36.62
856.678	50.3
856.847	40.72
857.016	36.21
857.185	51.68
857.353	55.76
857.522	40.8
857.691	50.41
857.86	61.32
858.029	70.16
858.198	51.18
858.367	44.13
858.535	29.26
858.704	14.05
858.873	17.81
859.042	1.33
859.21	3.06
859.379	6.75
859.548	-5.09
859.717	-23.14
859.885	-29.28
860.054	-37.29
860.222	-11.88
860.391	6.47
860.56	24.23
860.728	23.95
860.897	37.1
861.065	37.12
861.234	49.39
861.402	49.82
861.571	47.89
861.739	60.02
861.908	64.01
862.076	40.89
862.244	32.94
862.413	31.7
862.581	35.84
862.749	30.67
862.918	20.66
863.086	20.86
863.254	17.34
863.423	29.64
863.591	27.6
863.759	19.66
863.927	42.21
864.096	48.56
864.264	27.27
864.432	23.53
864.6	11.95
864.768	36.32
864.936	51.36
865.104	65.49
865.272	56.09
865.44	70.71
865.608	66.24
865.776	56.32
865.944	50.18
866.112	58.76
866.28	64.24
866.448	71.07
866.616	71.22
866.784	57.67
866.952	53
867.12	53.17
867.288	38.15
867.455	42.78
867.623	30.1
867.791	36.43
867.959	28.47
868.127	23.34
868.294	19.88
868.462	12.59
868.63	19.85
868.797	9.05
868.965	7.27
869.133	-5.88
869.3	-6.95
869.468	16.23
869.636	5.05
869.803	-4.04
869.971	-3.08
870.138	-5.92
870.306	4.99
870.473	-6.1
870.641	16.17
870.808	21.79
870.975	17.25
871.143	10.58
871.31	3.51
871.478	11.35
871.645	14.05
871.812	17.24
871.98	22.57
872.147	23.06
872.314	11.08
872.482	-4.44
872.649	-24.77
872.816	9.64
872.983	6.06
873.15	-5.27
873.318	10.29
873.485	11.02
873.652	-7.96
873.819	-15.39
873.986	5.44
874.153	14.46
874.32	13.5
874.487	18.23
874.654	13.16
874.821	23.59
874.988	38.6
875.155	11.81
875.322	29.64
875.489	32.92
875.656	29.91
875.823	4.16
875.99	22.42
876.157	15.75
876.324	24.52
876.49	30.98
876.657	37.47
876.824	35.57
876.991	42.14
877.157	41.82
877.324	41.13
877.491	33.3
877.658	38.97
877.824	37.76
877.991	49.32
878.157	42.23
878.324	32.13
878.491	35.57
878.657	21.87
878.824	12.18
878.99	-4.13
879.157	-25.59
879.323	-19.08
879.49	-19.37
879.656	-6.25
879.823	-3.69
879.989	-2.32
880.156	2.1
880.322	-2.84
880.488	12.76
880.655	24.54
880.821	20.93
880.987	25.8
881.154	27.3
881.32	39.84
881.486	38.54
881.652	37
881.819	38.72
881.985	38.82
882.151	37.8
882.317	36.81
882.483	32.27
882.649	31.2
882.816	29.7
882.982	29.88
883.148	23.37
883.314	23.38
883.48	24.34
883.646	25.41
883.812	26.25
883.978	24.07
884.144	23.11
884.31	25.7
884.476	28.9
884.642	30.16
884.807	28.16
884.973	30.36
885.139	29.51
885.305	27.6
885.471	27.82
885.637	22.22
885.802	25.58
885.968	29.95
886.134	25.7
886.3	18.49
886.465	15.84
886.631	16.89
886.797	16.97
886.962	18.11
887.128	20.14
887.293	17.41
887.459	21.03
887.625	11.84
887.79	7.8
887.956	14.26
888.121	22.3
888.287	27.43
888.452	27.36
888.618	19.08
888.783	19.24
