Data from 2938113_Reflection_2.txt Node
Date: Sat Jul 11 18:19:04 EDT 2015
User: robert
Spectrometer: USB4E03001
Autoset integration time: false
Trigger mode: 4
Integration Time (sec): 1.000000E-1
Scans to average: 10
Electric dark correction enabled: true
Nonlinearity correction enabled: false
Boxcar width: 5
Stray light correction enabled: false
XAxis mode: Wavelengths
Stop averaging: false
Number of Pixels in Spectrum: 3648
>>>>>Begin Spectral Data<<<<<
177.566	159.18
177.785	343.05
178.005	-994.39
178.225	-333.69
178.445	-189.73
178.665	3851.61
178.885	-466.74
179.105	-332.58
179.324	-386.53
179.544	-245.01
179.764	-1635.74
179.984	2208.68
180.204	-586.7
180.423	-79.1
180.643	-47.41
180.863	-33.06
181.083	-33.34
181.302	-7.16
181.522	-44.92
181.742	-39.58
181.961	-807.87
182.181	418.5
182.401	290.69
182.621	262.93
182.84	201.52
183.06	267.13
183.279	166.16
183.499	184.31
183.719	104.5
183.938	176.82
184.158	214.37
184.377	142.62
184.597	148.09
184.816	120.46
185.036	36.59
185.256	219.27
185.475	94.14
185.695	125.16
185.914	72.15
186.134	269.53
186.353	292.53
186.572	537.18
186.792	-325.47
187.011	-145.55
187.231	-142.52
187.45	-95.91
187.67	-83.33
187.889	-67.61
188.108	-39.57
188.328	-71.17
188.547	-46.09
188.766	-58.39
188.986	1170.8
189.205	448.59
189.424	238.06
189.644	155.4
189.863	161.41
190.082	201.52
190.302	252.17
190.521	452.63
190.74	351.9
190.959	1404.44
191.178	25266.67
191.398	2470.31
191.617	-138.65
191.836	-283.91
192.055	-211.69
192.274	-624.41
192.494	500.06
192.713	456.33
192.932	513.44
193.151	11344.68
193.37	-102740
193.589	233.98
193.808	122.79
194.027	46.73
194.246	39.28
194.465	64.89
194.685	59.33
194.904	18.64
195.123	41.79
195.342	20.42
195.561	52.82
195.78	43.7
195.999	51.52
196.218	71.46
196.436	57.91
196.655	56.03
196.874	80.3
197.093	79.57
197.312	100.69
197.531	87.02
197.75	69.44
197.969	154.1
198.188	214.82
198.407	120.8
198.625	111.17
198.844	141.35
199.063	195.76
199.282	284.4
199.501	-75.23
199.719	-3950.68
199.938	529.52
200.157	26.73
200.376	26.13
200.594	-82.89
200.813	-120.27
201.032	21.41
201.251	105.07
201.469	99.63
201.688	100.09
201.907	125.03
202.125	120.67
202.344	166.62
202.563	153.35
202.781	190.87
203	174.88
203.218	153.65
203.437	149.09
203.656	185.88
203.874	219.59
204.093	102.02
204.311	9.86
204.53	23.34
204.748	3.23
204.967	40.7
205.185	19.24
205.404	54.96
205.622	83.61
205.841	271.73
206.059	144.36
206.278	113.66
206.496	192.22
206.715	238.38
206.933	451.2
207.151	-621.82
207.37	-504.66
207.588	-327.18
207.806	-168.62
208.025	-357.22
208.243	233.06
208.461	310.62
208.68	427.8
208.898	-854.15
209.116	-313.94
209.335	-147.26
209.553	296.01
209.771	759.78
209.989	667.17
210.208	1135.15
210.426	-3628
210.644	-481.03
210.862	-468.78
211.081	-89.88
211.299	-125.28
211.517	-88.44
211.735	-127.29
211.953	-146.79
212.171	-95.25
212.39	-2.45
212.608	-14.62
212.826	47.3
213.044	17.37
213.262	40.64
213.48	-107.12
213.698	-53.23
213.916	-48.99
214.134	-74.27
214.352	-172.26
214.57	-287.39
214.788	-794.73
215.006	-8410.09
215.224	-53238.89
215.442	-2874.44
215.66	-8163.93
215.878	-332.26
216.096	-264.84
216.314	2354.74
216.532	2091.07
216.75	23.14
216.968	154.17
217.185	-76.65
217.403	-21.61
217.621	-17.34
217.839	-40.42
218.057	-16.79
218.275	664.74
218.492	297.46
218.71	73.71
218.928	86.42
219.146	79.84
219.363	102.59
219.581	61.92
219.799	38.72
220.017	30.34
220.234	8.71
220.452	47.73
220.67	78.13
220.887	82.38
221.105	109.8
221.323	105.5
221.54	104.94
221.758	92.35
221.976	94.91
222.193	100.43
222.411	95.53
222.629	99.6
222.846	84.94
223.064	75.61
223.281	72.27
223.499	55.52
223.716	62.79
223.934	56.38
224.151	43.09
224.369	48.9
224.586	34.31
224.804	16.31
225.021	8.95
225.239	1.34
225.456	-0.47
225.674	1.38
225.891	-6.88
226.108	3.59
226.326	8.13
226.543	5.17
226.76	20.43
226.978	12.24
227.195	40.71
227.413	40.48
227.63	32.32
227.847	29.65
228.064	20.27
228.282	17.73
228.499	14.98
228.716	18.42
228.934	23.72
229.151	23.77
229.368	30.17
229.585	27.34
229.802	26.04
230.02	33.02
230.237	35.86
230.454	37.91
230.671	39.33
230.888	40.66
231.105	39.55
231.323	38.73
231.54	37.23
231.757	30.86
231.974	35.35
232.191	36.28
232.408	23.85
232.625	26.57
232.842	32.8
233.059	42.94
233.276	44.49
233.493	48.04
233.71	44.03
233.927	42.85
234.144	44.28
234.361	44.2
234.578	48.42
234.795	54.81
235.012	54.55
235.229	48.67
235.446	39.67
235.663	36.38
235.879	31.76
236.096	34.68
236.313	32.5
236.53	24.93
236.747	20.73
236.964	23.08
237.181	20.34
237.397	14.99
237.614	5.28
237.831	8.85
238.048	7.73
238.264	9.62
238.481	9.95
238.698	12.13
238.915	23.59
239.131	18.37
239.348	10.67
239.565	11.56
239.781	13.31
239.998	19.58
240.215	22.52
240.431	25.29
240.648	26.48
240.865	25.25
241.081	27.82
241.298	25.75
241.514	26.18
241.731	26.64
241.947	27.29
242.164	25.8
242.38	26.11
242.597	24.19
242.814	21.48
243.03	19.04
243.246	17.03
243.463	14.63
243.679	14.73
243.896	14.59
244.112	14.65
244.329	13.08
244.545	14.37
244.762	13.51
244.978	12.91
245.194	12.64
245.411	14.26
245.627	16.03
245.843	16.57
246.06	15.47
246.276	14.73
246.492	14.5
246.709	14.43
246.925	13.96
247.141	13.55
247.357	13.28
247.574	13.75
247.79	14.6
248.006	14.03
248.222	14
248.439	14.09
248.655	13.41
248.871	11.91
249.087	12.3
249.303	10.98
249.519	9.95
249.736	10.31
249.952	11.52
250.168	9.73
250.384	11.01
250.6	8.55
250.816	10.32
251.032	12.94
251.248	13.63
251.464	11.01
251.68	13.07
251.896	15.01
252.112	15.68
252.328	15.84
252.544	15.9
252.76	15.94
252.976	19.18
253.192	20.57
253.408	19.82
253.624	21.96
253.84	24.28
254.056	23.87
254.272	24.49
254.487	26.5
254.703	25.72
254.919	29.34
255.135	28.68
255.351	28.25
255.567	28.22
255.782	24.62
255.998	22.11
256.214	22.74
256.43	21.83
256.646	21.53
256.861	19.37
257.077	19.46
257.293	14.69
257.508	13.26
257.724	10.85
257.94	7.48
258.155	10.97
258.371	11.97
258.587	11.56
258.802	11.78
259.018	13.04
259.234	13.5
259.449	14.06
259.665	15.15
259.88	16.07
260.096	16.39
260.312	16.97
260.527	17.47
260.743	17.63
260.958	17.41
261.174	17.4
261.389	16.31
261.605	14.82
261.82	14.23
262.036	14.04
262.251	13.75
262.466	13.94
262.682	12.34
262.897	10.68
263.113	9.68
263.328	9.21
263.543	12.36
263.759	13.98
263.974	16.56
264.189	15.75
264.405	15.05
264.62	13.31
264.835	13.48
265.051	18.19
265.266	17.68
265.481	16.2
265.696	15.54
265.912	12.85
266.127	11.73
266.342	10.25
266.557	11.04
266.773	10.73
266.988	11.89
267.203	11.19
267.418	7.04
267.633	9.36
267.848	10.12
268.064	11.38
268.279	10.71
268.494	8.22
268.709	8.67
268.924	9.04
269.139	9
269.354	8.24
269.569	8.1
269.784	9.34
269.999	7.63
270.214	7.42
270.429	5.46
270.644	7.67
270.859	10.93
271.074	11.17
271.289	11
271.504	10.72
271.719	10.7
271.934	9.99
272.149	8.77
272.363	9.71
272.578	10.49
272.793	12.52
273.008	12.71
273.223	12.3
273.438	12.76
273.653	11.43
273.867	11.91
274.082	13
274.297	15.64
274.512	17.7
274.726	16.56
274.941	16.71
275.156	14.73
275.371	13.9
275.585	11.63
275.8	10.04
276.015	11.49
276.229	11.69
276.444	10.89
276.659	8.3
276.873	7.32
277.088	9.6
277.302	10.53
277.517	12.78
277.732	12.2
277.946	17.33
278.161	21.45
278.375	21.05
278.59	22.47
278.804	22.46
279.019	21.78
279.233	23.98
279.448	21.1
279.662	20.47
279.877	19.72
280.091	21.51
280.306	20.97
280.52	18.97
280.735	19.38
280.949	19.43
281.163	19.29
281.378	18.27
281.592	18.01
281.806	19.67
282.021	17.75
282.235	19.4
282.449	17.76
282.664	15.77
282.878	15.91
283.092	15.67
283.307	13.72
283.521	14.8
283.735	17.17
283.949	16.81
284.164	14.91
284.378	16.22
284.592	14.55
284.806	15.18
285.02	16.46
285.234	16.08
285.449	17.16
285.663	17.54
285.877	15.57
286.091	16.46
286.305	15.78
286.519	17.71
286.733	17.51
286.947	17.42
287.161	17.73
287.375	17.41
287.589	15.77
287.803	15.89
288.017	16.61
288.231	16.49
288.445	14.51
288.659	14.77
288.873	13.75
289.087	15.97
289.301	18.19
289.515	16.82
289.729	17.79
289.943	18.64
290.157	16.49
290.371	16.37
290.584	17.93
290.798	19.03
291.012	19.25
291.226	20.17
291.44	17.13
291.654	16.24
291.867	15.62
292.081	13.39
292.295	12.85
292.509	13.51
292.722	13.28
292.936	13.65
293.15	12.16
293.364	12.84
293.577	12.08
293.791	12.68
294.005	13.67
294.218	14.5
294.432	15.47
294.645	16.25
294.859	17.16
295.073	16.14
295.286	15.63
295.5	16.23
295.713	13.71
295.927	14.75
296.14	16.32
296.354	13.75
296.568	14.68
296.781	15.2
296.994	14.86
297.208	14.41
297.421	14.18
297.635	13.33
297.848	12.51
298.062	13.97
298.275	13.33
298.489	11.82
298.702	14.24
298.915	14.89
299.129	14.61
299.342	15.47
299.555	15.94
299.769	16.63
299.982	17.71
300.195	18.9
300.409	19.13
300.622	19.16
300.835	20.03
301.048	19.04
301.262	17.39
301.475	17.35
301.688	16.68
301.901	16.49
302.115	16.92
302.328	17.23
302.541	18.09
302.754	18.1
302.967	18.6
303.18	19.77
303.393	18.24
303.607	20.32
303.82	21.12
304.033	22.07
304.246	20.75
304.459	19.6
304.672	18.83
304.885	17.8
305.098	17.07
305.311	16.71
305.524	16.2
305.737	16.86
305.95	16.03
306.163	13.35
306.376	14.99
306.589	16.1
306.802	17.15
307.015	18.16
307.228	20.28
307.44	20.46
307.653	21.56
307.866	21.44
308.079	22.29
308.292	21.44
308.505	21.83
308.718	20.33
308.93	19.51
309.143	18.6
309.356	20.32
309.569	17.25
309.781	16.07
309.994	15.31
310.207	15.34
310.42	15.68
310.632	15.76
310.845	17.24
311.058	16.56
311.27	15.96
311.483	17.75
311.696	16.05
311.908	16.55
312.121	17.76
312.333	18.11
312.546	17.84
312.759	18.23
312.971	17.18
313.184	16.1
313.396	16.34
313.609	16.82
313.821	15.24
314.034	16.1
314.246	16.72
314.459	17.15
314.671	15.96
314.884	15.6
315.096	14.83
315.309	16.56
315.521	17.01
315.733	18.36
315.946	19.76
316.158	20.58
316.371	20.51
316.583	21.09
316.795	18.59
317.008	19.01
317.22	19.11
317.432	19.75
317.644	18.01
317.857	16.54
318.069	16.36
318.281	16.12
318.494	16.3
318.706	13.91
318.918	12.53
319.13	15.43
319.342	15.51
319.555	14.43
319.767	9.67
319.979	9.25
320.191	11.54
320.403	12.12
320.615	12.54
320.827	13.04
321.039	13.36
321.252	14.82
321.464	13.71
321.676	12.52
321.888	11.84
322.1	14.07
322.312	13.87
322.524	11.57
322.736	11.55
322.948	10.48
323.16	11.21
323.372	12.54
323.584	12.37
323.796	12.4
324.007	12.05
324.219	13.44
324.431	13.55
324.643	14.75
324.855	15.88
325.067	15.53
325.279	16.05
325.491	16.64
325.702	16.6
325.914	16.13
326.126	17.19
326.338	17.19
326.55	17.63
326.761	17.97
326.973	18.6
327.185	18.4
327.396	17
327.608	17.09
327.82	16.5
328.032	15.65
328.243	13.91
328.455	13.17
328.666	14.09
328.878	13.51
329.09	13.64
329.301	13.67
329.513	14.19
329.725	14.41
329.936	14.97
330.148	14.93
330.359	16.1
330.571	19.06
330.782	20.63
330.994	21.08
331.205	22.48
331.417	22.11
331.628	21.17
331.84	20.78
332.051	21.28
332.262	20.8
332.474	19.82
332.685	19.27
332.897	17.72
333.108	17.11
333.319	16.67
333.531	16.07
333.742	16.23
333.953	17.04
334.165	17.13
334.376	18.1
334.587	17.86
334.799	17.52
335.01	18.05
335.221	18.84
335.432	18.38
335.644	18.56
335.855	16.78
336.066	17.47
336.277	18.14
336.488	18.36
336.7	17.06
336.911	15.65
337.122	15.37
337.333	14.99
337.544	14.73
337.755	13.41
337.966	12.69
338.177	14.75
338.388	12.9
338.599	11.19
338.811	10.36
339.022	10.09
339.233	12.41
339.444	13.41
339.655	12.98
339.866	13.26
340.076	14.03
340.287	13.9
340.498	13.07
340.709	14.03
340.92	15.23
341.131	16.2
341.342	17.23
341.553	16.33
341.764	15.34
341.975	15.51
342.185	15.55
342.396	15.29
342.607	15.81
342.818	16.02
343.029	16.07
343.239	15.31
343.45	14.61
343.661	14.97
343.872	14.58
344.082	15.62
344.293	16.87
344.504	17.5
344.714	16.73
344.925	16.44
345.136	16.14
345.346	15.04
345.557	15.43
345.768	16.07
345.978	16.02
346.189	16.89
346.399	17.11
346.61	17.36
346.821	17.08
347.031	17.14
347.242	17.3
347.452	18.1
347.663	19.67
347.873	20.53
348.084	21.01
348.294	20
348.504	20.38
348.715	20.08
348.925	18.17
349.136	16.65
349.346	17.64
349.557	18.69
349.767	16.97
349.977	17.74
350.188	15.89
350.398	14.61
350.608	15.31
350.819	12.58
351.029	9.75
351.239	9.94
351.449	10.81
351.66	10.61
351.87	10.25
352.08	11.76
352.29	10.56
352.501	10.68
352.711	11.76
352.921	10.43
353.131	12.86
353.341	15.33
353.552	15.81
353.762	14.87
353.972	13.91
354.182	14.26
354.392	12.8
354.602	13.29
354.812	13.25
355.022	12.38
355.232	14.27
355.442	12.73
355.652	12.57
355.862	11.73
356.072	12.57
356.282	13.58
356.492	13.29
356.702	13.42
356.912	13.27
357.122	12.73
357.332	12.67
357.542	10.98
357.752	11.07
357.962	11.42
358.171	11.77
358.381	12.15
358.591	12.26
358.801	11.98
359.011	12.37
359.221	13.27
359.43	14.07
359.64	14.14
359.85	14.31
360.06	15.62
360.269	15.22
360.479	15.59
360.689	15.33
360.899	14.91
361.108	14.13
361.318	14.44
361.528	13.19
361.737	13.2
361.947	13.42
362.156	12.75
362.366	12.21
362.576	12.48
362.785	12.3
362.995	11.8
363.204	11.98
363.414	13.11
363.623	12.26
363.833	13.03
364.042	12.75
364.252	12.75
364.461	12.76
364.671	12.95
364.88	11.64
365.09	12.21
365.299	11.89
365.509	11.37
365.718	10.17
365.927	11.61
366.137	12
366.346	12.94
366.555	11.75
366.765	13.04
366.974	13.05
367.183	13.5
367.393	12.93
367.602	13.14
367.811	14.07
368.021	14.32
368.23	13.76
368.439	12.46
368.648	11.53
368.857	13.29
369.067	12.43
369.276	12.74
369.485	13.18
369.694	11.58
369.903	12.32
370.112	11.6
370.321	12.45
370.531	11.55
370.74	13.16
370.949	13.63
371.158	12.27
371.367	12.71
371.576	12.18
371.785	11.67
371.994	13.21
372.203	13.08
372.412	12.56
372.621	11.91
372.83	13.11
373.039	12.47
373.248	11.87
373.457	12.08
373.666	11.82
373.874	11.37
374.083	12.07
374.292	11.62
374.501	10.69
374.71	9.96
374.919	10.01
375.128	8.98
375.336	8.7
375.545	8.95
375.754	8.45
375.963	8.23
376.171	8.28
376.38	7.48
376.589	7.29
376.798	7.88
377.006	8.4
377.215	8.2
377.424	8.44
377.632	8.68
377.841	8.56
378.05	9.02
378.258	10.15
378.467	9.73
378.675	10.13
378.884	10.48
379.093	10.16
379.301	10.27
379.51	10.49
379.718	9.86
379.927	9.22
380.135	9.29
380.344	8.74
380.552	7.08
380.761	7.08
380.969	7.32
381.177	7.49
381.386	7.64
381.594	7.84
381.803	7.83
382.011	8.01
382.219	8.32
382.428	8.69
382.636	8.96
382.845	9.23
383.053	9.68
383.261	9.78
383.469	9.38
383.678	8.81
383.886	8.57
384.094	8.51
384.302	8.45
384.511	8.36
384.719	6.88
384.927	6.69
385.135	7.06
385.343	7.24
385.552	6.41
385.76	6.07
385.968	6.19
386.176	6.68
386.384	6.49
386.592	6.74
386.8	6.76
387.008	7.6
387.216	7.96
387.424	7.51
387.633	6.92
387.841	7.51
388.049	7.42
388.257	7.69
388.465	6.99
388.672	6.49
388.88	6.25
389.088	6.07
389.296	5.81
389.504	5.53
389.712	5.71
389.92	5.72
390.128	5.19
390.336	5.44
390.544	5.04
390.751	5.44
390.959	5.54
391.167	5.84
391.375	6
391.583	5.93
391.79	5.75
391.998	5.79
392.206	6.02
392.414	5.82
392.621	6.19
392.829	6.33
393.037	6
393.244	6.11
393.452	5.66
393.66	5.04
393.867	5.35
394.075	5.27
394.283	5.34
394.49	5.17
394.698	5.07
394.905	4.62
395.113	4.35
395.32	4.57
395.528	4.64
395.735	4.71
395.943	5.22
396.15	5.04
396.358	5.66
396.565	5.31
396.773	5.36
396.98	5.39
397.188	5.69
397.395	5.7
397.602	5.25
397.81	5.3
398.017	5.52
398.225	5.47
398.432	5.21
398.639	5
398.847	5.28
399.054	5.15
399.261	5.3
399.468	4.78
399.676	4.83
399.883	5.05
400.09	4.76
400.297	4.59
400.505	4.24
400.712	4.54
400.919	4.46
401.126	4.3
401.333	4.68
401.54	4.69
401.748	4.68
401.955	4.51
402.162	4.63
402.369	4.56
402.576	4.47
402.783	4.58
402.99	4.49
403.197	4.43
403.404	4.6
403.611	4.2
403.818	4.03
404.025	4.28
404.232	4.47
404.439	4.71
404.646	4.91
404.853	4.91
405.06	4.79
405.267	4.8
405.474	4.9
405.681	4.68
405.887	4.98
406.094	5.39
406.301	5.35
406.508	5.34
406.715	4.95
406.922	5.2
407.128	5.25
407.335	5.48
407.542	5.42
407.749	5.33
407.955	5.04
408.162	4.94
408.369	4.67
408.575	4.41
408.782	4.28
408.989	4.41
409.195	4.26
409.402	4.06
409.609	4.02
409.815	3.95
410.022	3.82
410.228	4.02
410.435	4.03
410.642	4.15
410.848	4.46
411.055	4.61
411.261	4.64
411.468	4.66
411.674	4.68
411.881	4.64
412.087	4.57
412.294	4.81
412.5	5.03
412.706	4.75
412.913	4.85
413.119	4.59
413.326	4.55
413.532	4.49
413.738	4.67
413.945	4.84
414.151	4.47
414.357	4.45
414.564	4.26
414.77	4.13
414.976	4.17
415.182	4.06
415.389	3.91
415.595	3.82
415.801	3.8
416.007	3.56
416.214	3.43
416.42	3.71
416.626	3.63
416.832	3.87
417.038	3.88
417.244	4.03
417.45	3.96
417.657	4.11
417.863	4.16
418.069	4.05
418.275	4.01
418.481	3.95
418.687	3.98
418.893	4.2
419.099	4.04
419.305	3.91
419.511	3.84
419.717	3.7
419.923	3.51
420.129	3.5
420.335	3.47
420.541	3.48
420.746	3.62
420.952	3.52
421.158	3.47
421.364	3.48
421.57	3.48
421.776	3.32
421.982	3.52
422.187	3.88
422.393	3.89
422.599	4.05
422.805	3.97
423.01	3.76
423.216	3.71
423.422	3.8
423.628	3.73
423.833	3.83
424.039	3.9
424.245	3.85
424.45	3.64
424.656	3.75
424.862	3.73
425.067	3.85
425.273	4.01
425.478	4.24
425.684	4.16
425.889	4.27
426.095	4.11
426.301	4.3
426.506	4.24
426.712	4.14
426.917	4.06
427.123	3.98
427.328	3.86
427.533	3.78
427.739	3.34
427.944	3.6
428.15	3.4
428.355	3.6
428.561	3.36
428.766	3.25
428.971	3.2
429.177	3.02
429.382	2.95
429.587	3.05
429.793	2.9
429.998	3.24
430.203	2.75
430.408	2.72
430.614	2.72
430.819	2.97
431.024	3.11
431.229	3.71
431.434	3.89
431.64	4.07
431.845	3.94
432.05	4.1
432.255	4.13
432.46	4.3
432.665	4.31
432.87	4.26
433.076	4.08
433.281	4.19
433.486	3.86
433.691	3.74
433.896	3.53
434.101	3.64
434.306	3.6
434.511	3.48
434.716	3.37
434.921	3.43
435.126	3.56
435.331	3.53
435.535	3.29
435.74	3.32
435.945	3.07
436.15	3.2
436.355	3.1
436.56	3.11
436.765	3.19
436.97	3.31
437.174	3.33
437.379	3.21
437.584	3.21
437.789	3.3
437.993	3.25
438.198	3.6
438.403	3.46
438.608	3.56
438.812	3.48
439.017	3.39
439.222	3.2
439.426	3.28
439.631	3.3
439.836	3.13
440.04	3.16
440.245	2.98
440.45	2.84
440.654	2.9
440.859	2.84
441.063	2.85
441.268	2.8
441.472	2.82
441.677	2.78
441.881	2.66
442.086	2.93
442.29	2.91
442.495	3.07
442.699	3.15
442.904	3.17
443.108	3.15
443.312	3.17
443.517	3.19
443.721	3.36
443.925	3.17
444.13	3.27
444.334	3.23
444.538	3.24
444.743	3.42
444.947	3.34
445.151	3.26
445.356	3.25
445.56	3.17
445.764	3.16
445.968	2.99
446.173	3.12
446.377	3.21
446.581	3.09
446.785	2.92
446.989	2.71
447.193	2.86
447.398	2.94
447.602	2.97
447.806	3.21
448.01	3.16
448.214	3.35
448.418	3.34
448.622	3.29
448.826	3.38
449.03	3.51
449.234	3.71
449.438	3.59
449.642	3.65
449.846	3.72
450.05	3.52
450.254	3.68
450.458	3.55
450.662	3.43
450.866	3.17
451.069	3.23
451.273	3.36
451.477	3.31
451.681	3.38
451.885	3.24
452.089	3.33
452.292	3.48
452.496	3.4
452.7	3.52
452.904	3.47
453.107	3.64
453.311	3.63
453.515	3.46
453.719	3.57
453.922	3.54
454.126	3.48
454.33	3.34
454.533	3.21
454.737	3.37
454.94	3.61
455.144	3.64
455.348	3.68
455.551	3.71
455.755	3.82
455.958	3.71
456.162	3.54
456.365	3.73
456.569	3.64
456.772	3.7
456.976	3.72
457.179	3.35
457.383	3.57
457.586	3.51
457.79	3.37
457.993	3.33
458.196	3.41
458.4	3.62
458.603	3.66
458.807	3.58
459.01	3.38
459.213	3.21
459.417	3.24
459.62	3.25
459.823	3.16
460.026	3.07
460.23	3.11
460.433	2.86
460.636	2.71
460.839	2.69
461.042	2.75
461.246	2.9
461.449	2.88
461.652	2.91
461.855	2.79
462.058	2.88
462.261	3.09
462.464	3.12
462.668	3.31
462.871	3.47
463.074	3.3
463.277	3.16
463.48	3.19
463.683	3.4
463.886	3.25
464.089	3.17
464.292	3.06
464.495	2.95
464.698	2.92
464.901	3
465.104	3.05
465.306	3.11
465.509	3.02
465.712	3.04
465.915	2.89
466.118	2.81
466.321	2.93
466.524	2.96
466.726	3.11
466.929	3.25
467.132	3.14
467.335	2.98
467.538	2.98
467.74	3.19
467.943	3.24
468.146	3.4
468.348	3.48
468.551	3.39
468.754	3.3
468.956	3.15
469.159	2.96
469.362	2.93
469.564	2.9
469.767	2.88
469.969	2.91
470.172	2.86
470.375	2.65
470.577	2.43
470.78	2.36
470.982	2.59
471.185	2.45
471.387	2.58
471.59	2.58
471.792	2.57
471.995	2.58
472.197	2.53
472.399	2.54
472.602	2.67
472.804	2.92
473.007	3.01
473.209	2.85
473.411	3.04
473.614	2.7
473.816	2.74
474.018	2.72
474.22	2.74
474.423	2.57
474.625	2.5
474.827	2.51
475.03	2.47
475.232	2.59
475.434	2.68
475.636	2.7
475.838	2.89
476.04	2.82
476.243	2.82
476.445	2.87
476.647	3.05
476.849	3.19
477.051	3.17
477.253	3.25
477.455	3.03
477.657	3.09
477.859	2.97
478.061	2.99
478.263	3.02
478.465	3.17
478.667	2.96
478.869	2.85
479.071	2.75
479.273	2.57
479.475	2.54
479.677	2.72
479.879	2.62
480.081	2.79
480.283	2.81
480.485	2.71
480.686	2.55
480.888	2.7
481.09	2.7
481.292	2.58
481.494	2.73
481.695	2.65
481.897	2.51
482.099	2.59
482.301	2.55
482.502	2.55
482.704	2.69
482.906	2.76
483.107	2.78
483.309	2.84
483.511	2.87
483.712	2.81
483.914	2.81
484.115	2.82
484.317	2.84
484.519	2.86
484.72	2.9
484.922	2.84
485.123	2.85
485.325	2.81
485.526	2.8
485.728	2.78
485.929	2.85
486.131	2.98
486.332	3.03
486.534	2.97
486.735	2.9
486.936	2.86
487.138	2.93
487.339	2.85
487.541	2.88
487.742	2.85
487.943	2.82
488.144	2.77
488.346	2.7
488.547	2.68
488.748	2.74
488.95	2.76
489.151	2.8
489.352	2.76
489.553	2.87
489.755	2.89
489.956	2.9
490.157	2.96
490.358	3.05
490.559	3.14
490.76	3.03
490.961	3.04
491.163	2.98
491.364	2.92
491.565	2.92
491.766	2.88
491.967	2.84
492.168	2.8
492.369	2.82
492.57	2.73
492.771	2.65
492.972	2.74
493.173	2.64
493.374	2.77
493.575	2.69
493.776	2.7
493.976	2.62
494.177	2.71
494.378	2.71
494.579	2.72
494.78	2.72
494.981	2.74
495.182	2.68
495.382	2.72
495.583	2.75
495.784	2.83
495.985	2.68
496.185	2.78
496.386	2.81
496.587	2.84
496.788	2.8
496.988	2.85
497.189	2.89
497.39	2.76
497.59	2.77
497.791	2.74
497.992	2.91
498.192	3.03
498.393	3.06
498.593	3.01
498.794	2.89
498.994	2.95
499.195	3.04
499.395	3.06
499.596	3.16
499.796	3.17
499.997	3.23
500.197	2.98
500.398	3.12
500.598	3.06
500.799	2.92
500.999	3.17
501.199	3.13
501.4	2.98
501.6	2.93
501.801	3.11
502.001	3.02
502.201	2.79
502.402	2.85
502.602	2.86
502.802	2.95
503.002	3.1
503.203	3.11
503.403	3.14
503.603	2.99
503.803	2.96
504.003	2.8
504.204	2.8
504.404	2.89
504.604	3.02
504.804	2.82
505.004	2.66
505.204	2.61
505.404	2.51
505.604	2.46
505.804	2.46
506.005	2.41
506.205	2.5
506.405	2.52
506.605	2.49
506.805	2.42
507.005	2.59
507.204	2.46
507.404	2.42
507.604	2.51
507.804	2.53
508.004	2.56
508.204	2.58
508.404	2.7
508.604	2.74
508.804	2.88
509.003	2.88
509.203	2.85
509.403	3
509.603	3.17
509.803	3.05
510.002	3.07
510.202	3.22
510.402	3.32
510.602	3.24
510.801	3.25
511.001	3.22
511.201	3.14
511.4	3.2
511.6	3.21
511.8	3.1
511.999	3.27
512.199	3.35
512.398	3.33
512.598	3.21
512.797	3.09
512.997	3.03
513.197	2.99
513.396	3.07
513.596	3.04
513.795	3.01
513.994	3.04
514.194	2.96
514.393	2.98
514.593	3.14
514.792	3.26
514.992	3.27
515.191	3.35
515.39	3.43
515.59	3.48
515.789	3.43
515.988	3.52
516.188	3.6
516.387	3.54
516.586	3.28
516.786	3.24
516.985	3.33
517.184	3.35
517.383	3.37
517.582	3.34
517.782	3.26
517.981	3.24
518.18	3.22
518.379	3.13
518.578	3.19
518.777	3.35
518.976	3.27
519.176	3.12
519.375	3.21
519.574	3.23
519.773	3.16
519.972	3.21
520.171	3.31
520.37	3.3
520.569	3.34
520.768	3.27
520.967	3.25
521.166	3.22
521.365	3.26
521.564	3.3
521.762	3.35
521.961	3.24
522.16	3.3
522.359	3.29
522.558	3.45
522.757	3.49
522.956	3.43
523.154	3.38
523.353	3.46
523.552	3.44
523.751	3.38
523.949	3.4
524.148	3.46
524.347	3.27
524.546	3.25
524.744	3.12
524.943	3.02
525.142	3.16
525.34	3.16
525.539	3.14
525.737	3.2
525.936	3.19
526.135	3.12
526.333	3.2
526.532	3.17
526.73	3.2
526.929	3.25
527.127	3.27
527.326	3.3
527.524	3.36
527.723	3.39
527.921	3.44
528.12	3.44
528.318	3.47
528.516	3.47
528.715	3.54
528.913	3.53
529.112	3.6
529.31	3.62
529.508	3.55
529.707	3.52
529.905	3.48
530.103	3.45
530.301	3.46
530.5	3.48
530.698	3.47
530.896	3.55
531.094	3.45
531.293	3.32
531.491	3.31
531.689	3.45
531.887	3.53
532.085	3.63
532.283	3.69
532.481	3.73
532.68	3.77
532.878	3.71
533.076	3.58
533.274	3.67
533.472	3.67
533.67	3.69
533.868	3.67
534.066	3.77
534.264	3.8
534.462	3.77
534.66	3.85
534.858	3.82
535.056	3.93
535.253	4.02
535.451	4.06
535.649	4.14
535.847	4.22
536.045	4.19
536.243	4.14
536.441	4.18
536.638	4.26
536.836	4.17
537.034	4.12
537.232	4.16
537.43	4.28
537.627	4.42
537.825	4.43
538.023	4.59
538.22	4.74
538.418	4.71
538.616	4.82
538.813	4.71
539.011	4.81
539.209	4.98
539.406	4.97
539.604	4.9
539.801	4.76
539.999	4.79
540.196	4.7
540.394	4.75
540.591	4.7
540.789	4.61
540.986	4.72
541.184	4.71
541.381	4.73
541.579	4.69
541.776	4.77
541.974	4.86
542.171	4.86
542.368	4.86
542.566	4.85
542.763	4.94
542.96	4.99
543.158	4.98
543.355	5.09
543.552	5.16
543.75	5.26
543.947	5.22
544.144	5.13
544.341	5.26
544.539	5.34
544.736	5.27
544.933	5.24
545.13	5.35
545.327	5.23
545.524	5.15
545.722	5.05
545.919	5.05
546.116	5.18
546.313	5.33
546.51	5.32
546.707	5.21
546.904	5.34
547.101	5.41
547.298	5.44
547.495	5.6
547.692	5.65
547.889	5.71
548.086	5.73
548.283	5.69
548.48	5.63
548.677	5.63
548.874	5.71
549.07	5.77
549.267	5.73
549.464	5.8
549.661	5.73
549.858	5.88
550.055	5.94
550.251	6.09
550.448	6.3
550.645	6.41
550.842	6.52
551.038	6.74
551.235	6.75
551.432	6.88
551.628	6.77
551.825	7.02
552.022	7.03
552.218	7.16
552.415	7.15
552.612	7.09
552.808	7.07
553.005	7.2
553.201	7.16
553.398	7.26
553.594	7.31
553.791	7.31
553.987	7.3
554.184	7.36
554.38	7.45
554.577	7.6
554.773	7.73
554.97	7.89
555.166	7.72
555.362	7.76
555.559	7.9
555.755	8.06
555.952	8.35
556.148	8.38
556.344	8.26
556.541	8.24
556.737	8.39
556.933	8.49
557.129	8.6
557.326	8.77
557.522	8.79
557.718	8.64
557.914	8.62
558.11	8.75
558.307	8.83
558.503	9
558.699	8.85
558.895	8.59
559.091	8.33
559.287	8.42
559.483	8.48
559.679	8.52
559.876	8.82
560.072	8.89
560.268	8.94
560.464	9.1
560.66	9.16
560.856	9.35
561.052	9.74
561.247	9.95
561.443	10.05
561.639	10.16
561.835	10.23
562.031	10.02
562.227	10.06
562.423	9.94
562.619	9.82
562.815	10.04
563.01	10.1
563.206	10.05
563.402	10.17
563.598	10.04
563.793	10.1
563.989	10.45
564.185	10.74
564.381	10.77
564.576	10.82
564.772	10.82
564.968	10.71
565.163	10.73
565.359	10.9
565.555	10.99
565.75	11.2
565.946	11.34
566.141	11.29
566.337	11.23
566.532	11.41
566.728	11.78
566.923	12.06
567.119	12.27
567.314	12.41
567.51	12.39
567.705	12.42
567.901	12.58
568.096	12.58
568.292	12.62
568.487	12.72
568.682	12.6
568.878	12.37
569.073	12.39
569.268	12.48
569.464	12.69
569.659	12.67
569.854	12.49
570.05	12.29
570.245	12.4
570.44	12.59
570.635	12.77
570.831	12.83
571.026	12.98
571.221	12.91
571.416	12.73
571.611	12.42
571.806	12.46
572.002	12.67
572.197	12.76
572.392	12.67
572.587	12.55
572.782	12.61
572.977	12.8
573.172	12.66
573.367	12.66
573.562	12.89
573.757	13.05
573.952	13.17
574.147	13.35
574.342	13.52
574.537	13.66
574.732	13.77
574.927	13.55
575.121	13.53
575.316	13.76
575.511	13.91
575.706	13.91
575.901	14.04
576.096	14.21
576.29	14.07
576.485	14.04
576.68	14.08
576.875	14.06
577.069	14.22
577.264	14.2
577.459	14.01
577.654	13.94
577.848	13.89
578.043	14.11
578.238	13.86
578.432	13.95
578.627	14.1
578.821	14.08
579.016	14.02
579.21	14.01
579.405	14.1
579.6	14.27
579.794	14.42
579.989	14.46
580.183	13.99
580.378	14.16
580.572	14.34
580.766	14.34
580.961	14.6
581.155	14.75
581.35	14.88
581.544	14.77
581.738	14.8
581.933	14.58
582.127	14.79
582.321	15
582.516	15.2
582.71	15.32
582.904	14.91
583.099	14.46
583.293	14.64
583.487	14.41
583.681	14.58
583.875	14.62
584.07	14.86
584.264	14.69
584.458	14.71
584.652	14.61
584.846	14.56
585.04	14.82
585.234	14.79
585.428	15.03
585.623	15.35
585.817	15.13
586.011	15.19
586.205	15.04
586.399	15.05
586.593	15.02
586.787	15.08
586.981	14.96
587.174	14.93
587.368	15.36
587.562	14.98
587.756	14.97
587.95	15.06
588.144	14.88
588.338	15.26
588.532	15.22
588.725	15.43
588.919	15.24
589.113	15.32
589.307	15.51
589.501	15.36
589.694	15.47
589.888	15.48
590.082	15.67
590.275	15.93
590.469	15.78
590.663	15.89
590.856	16.05
591.05	16.15
591.244	16.02
591.437	15.99
591.631	16.29
591.824	16.35
592.018	16.26
592.212	16.28
592.405	16.22
592.599	16.41
592.792	16.6
592.986	16.6
593.179	16.6
593.372	16.71
593.566	16.68
593.759	16.58
593.953	16.62
594.146	16.6
594.339	16.47
594.533	16.4
594.726	16.11
594.92	16.15
595.113	16.21
595.306	16.23
595.499	16.31
595.693	16.31
595.886	16.24
596.079	16.17
596.272	16.27
596.466	16.58
596.659	16.58
596.852	16.56
597.045	16.45
597.238	16.25
597.431	16.11
597.624	16.16
597.818	16.26
598.011	16.1
598.204	16.16
598.397	16.19
598.59	15.83
598.783	15.86
598.976	15.93
599.169	15.93
599.362	16.1
599.555	16.33
599.748	16.33
599.941	16.28
600.134	16.6
600.326	16.39
600.519	16.51
600.712	16.68
600.905	16.86
601.098	16.84
601.291	16.77
601.483	17
601.676	16.96
601.869	16.88
602.062	16.86
602.255	16.89
602.447	17.08
602.64	16.9
602.833	16.83
603.025	16.85
603.218	17.06
603.411	17.16
603.603	16.82
603.796	16.89
603.989	16.79
604.181	16.64
604.374	16.54
604.566	16.5
604.759	16.6
604.951	16.57
605.144	16.29
605.336	16.32
605.529	16.38
605.721	16.45
605.914	16.29
606.106	16.45
606.299	16.57
606.491	16.48
606.683	16.39
606.876	16.25
607.068	16.49
607.26	16.95
607.453	17.01
607.645	16.93
607.837	17.02
608.03	17
608.222	16.66
608.414	16.68
608.606	16.9
608.799	16.9
608.991	16.9
609.183	17.04
609.375	16.66
609.567	16.33
609.759	16.42
609.952	16.54
610.144	16.54
610.336	16.54
610.528	16.57
610.72	16.51
610.912	16.56
611.104	16.62
611.296	16.39
611.488	16.64
611.68	16.84
611.872	16.64
612.064	16.66
612.256	16.99
612.448	17.35
612.64	17.39
612.832	17.35
613.023	17.49
613.215	17.5
613.407	17.65
613.599	17.49
613.791	17.68
613.983	17.84
614.174	17.69
614.366	17.47
614.558	17.66
614.75	17.42
614.941	17.6
615.133	17.4
615.325	17.57
615.516	17.29
615.708	17.59
615.9	17.24
616.091	17.19
616.283	17.17
616.475	17.35
616.666	17.05
616.858	17.36
617.049	17.42
617.241	17.83
617.432	17.46
617.624	17.81
617.815	17.7
618.007	17.84
618.198	18
618.39	18.09
618.581	18.13
618.773	17.92
618.964	17.82
619.155	17.41
619.347	17.19
619.538	17.69
619.729	17.43
619.921	17.46
620.112	17.54
620.303	17.45
620.494	17.37
620.686	17.28
620.877	17.66
621.068	17.88
621.259	17.79
621.451	17.72
621.642	17.46
621.833	17.55
622.024	17.24
622.215	17.04
622.406	16.9
622.597	17.17
622.788	16.87
622.98	16.82
623.171	16.64
623.362	17.02
623.553	17.14
623.744	17.4
623.935	17.31
624.126	17.49
624.317	17.47
624.508	17.59
624.698	17.46
624.889	17.73
625.08	17.73
625.271	17.92
625.462	17.9
625.653	17.88
625.844	17.86
626.034	17.8
626.225	17.68
626.416	17.76
626.607	17.49
626.798	17.48
626.988	17.37
627.179	17.08
627.37	17.26
627.56	17.37
627.751	17.4
627.942	17.17
628.132	17.41
628.323	17.49
628.514	17.3
628.704	17.78
628.895	17.66
629.085	17.7
629.276	18.07
629.466	17.79
629.657	17.87
629.847	18.01
630.038	18.14
630.228	18.14
630.419	18.27
630.609	18.27
630.8	18.06
630.99	18.13
631.181	18.23
631.371	18.05
631.561	18.04
631.752	17.94
631.942	17.85
632.132	17.78
632.323	17.54
632.513	17.56
632.703	17.8
632.893	17.8
633.084	17.75
633.274	18.05
633.464	18.06
633.654	18.19
633.844	17.93
634.034	17.8
634.225	17.51
634.415	17.81
634.605	17.72
634.795	18.01
634.985	18.06
635.175	18.21
635.365	17.95
635.555	18.1
635.745	18.02
635.935	18.42
636.125	18.38
636.315	18.55
636.505	18.54
636.695	18.52
636.885	18.25
637.075	18.21
637.265	18.25
637.455	18.41
637.644	18.82
637.834	18.81
638.024	18.72
638.214	18.5
638.404	18.75
638.593	18.78
638.783	18.78
638.973	18.86
639.163	18.98
639.352	19.04
639.542	18.69
639.732	18.16
639.921	18.22
640.111	17.73
640.301	18.05
640.49	18
640.68	17.95
640.87	17.89
641.059	17.74
641.249	17.53
641.438	17.04
641.628	17.23
641.817	17.14
642.007	17.27
642.196	17.78
642.386	17.74
642.575	17.75
642.764	17.42
642.954	17.99
643.143	18.13
643.333	18.25
643.522	18.51
643.711	18.83
643.901	19.11
644.09	18.95
644.279	18.96
644.469	18.97
644.658	18.92
644.847	19.13
645.036	18.79
645.226	19.16
645.415	19.02
645.604	19.15
645.793	18.89
645.982	18.79
646.171	18.74
646.361	18.65
646.55	18.84
646.739	19.11
646.928	19.21
647.117	19.54
647.306	19.34
647.495	19.7
647.684	20.01
647.873	20.25
648.062	20.03
648.251	20.64
648.44	20.46
648.629	20.48
648.818	20.32
649.007	20.1
649.196	19.78
649.384	19.2
649.573	19.13
649.762	18.53
649.951	17.92
650.14	18.32
650.328	17.56
650.517	17.12
650.706	16.77
650.895	16.98
651.083	17.11
651.272	16.72
651.461	17
651.65	16.82
651.838	16.88
652.027	17.12
652.216	16.78
652.404	17.27
652.593	18.11
652.781	18.17
652.97	18.04
653.158	17.65
653.347	18.24
653.535	18.34
653.724	18.29
653.912	18.48
654.101	18.52
654.289	18.76
654.478	18.33
654.666	18.29
654.855	18.09
655.043	17.75
655.231	18.32
655.42	18
655.608	18.4
655.796	18.26
655.985	18.32
656.173	18.71
656.361	18.59
656.55	18.55
656.738	18.45
656.926	19.02
657.114	19.15
657.302	18.93
657.491	18.81
657.679	19.06
657.867	19.24
658.055	19.43
658.243	18.93
658.431	18.74
658.619	18.8
658.807	18.73
658.996	18.45
659.184	18.49
659.372	18.4
659.56	18.59
659.748	18.14
659.936	18.55
660.124	18.41
660.311	18.46
660.499	18.72
660.687	18.78
660.875	18.73
661.063	18.75
661.251	18.7
661.439	18.9
661.627	18.76
661.814	18.96
662.002	18.76
662.19	18.59
662.378	18.66
662.565	18.6
662.753	18.04
662.941	17.98
663.129	18.05
663.316	18.12
663.504	18.19
663.692	18.19
663.879	17.93
664.067	17.64
664.254	18.16
664.442	18.37
664.63	18.52
664.817	19.16
665.005	19.48
665.192	19.46
665.38	19.55
665.567	19.49
665.755	19.51
665.942	19.88
666.13	19.93
666.317	19.48
666.504	18.92
666.692	18.36
666.879	18.35
667.067	17.86
667.254	17.73
667.441	17.48
667.629	17.66
667.816	17.49
668.003	16.92
668.19	16.79
668.378	16.43
668.565	16.85
668.752	17.13
668.939	17.14
669.127	17.18
669.314	17.49
669.501	17.85
669.688	17.47
669.875	17.67
670.062	17.76
670.249	17.84
670.436	18.24
670.623	18.37
670.81	18.66
670.997	18.77
671.184	18.89
671.371	19.08
671.558	18.96
671.745	18.85
671.932	19
672.119	18.92
672.306	19.02
672.493	18.95
672.68	18.89
672.867	19.11
673.054	18.99
673.24	19.17
673.427	19.16
673.614	19.31
673.801	19.95
673.988	20.16
674.174	20.02
674.361	19.53
674.548	19.7
674.734	19.85
674.921	19.78
675.108	20.02
675.294	20.41
675.481	20.17
675.668	20.12
675.854	19.74
676.041	19.23
676.227	19.63
676.414	20.26
676.601	20.42
676.787	20.17
676.974	19.57
677.16	19.47
677.347	18.8
677.533	18.22
677.719	18.11
677.906	18.34
678.092	18.7
678.279	18.73
678.465	18.64
678.651	18.32
678.838	18.28
679.024	18.67
679.21	18.57
679.397	18.97
679.583	19.76
679.769	19.77
679.955	20.03
680.142	19.96
680.328	19.93
680.514	20.06
680.7	20.25
680.886	20.32
681.073	20.5
681.259	20.57
681.445	20.49
681.631	20.37
681.817	20.46
682.003	19.85
682.189	19.83
682.375	19.94
682.561	19.87
682.747	19.64
682.933	19.7
683.119	19.41
683.305	19.36
683.491	19.21
683.677	19.32
683.863	19.08
684.049	19.24
684.235	18.88
684.42	18.54
684.606	18.9
684.792	19.27
684.978	19.18
685.164	19.26
685.349	19.05
685.535	18.99
685.721	18.44
685.907	18.76
686.092	18.88
686.278	19.67
686.464	19.74
686.649	19.4
686.835	19.49
687.021	19.9
687.206	19.77
687.392	19.84
687.577	19.91
687.763	19.57
687.948	19.71
688.134	19.39
688.319	19.09
688.505	19.24
688.69	18.66
688.876	18.35
689.061	18.47
689.247	18.64
689.432	18.58
689.618	18.89
689.803	19.33
689.988	18.94
690.174	19.07
690.359	18.91
690.544	19.03
690.73	19.28
690.915	19.11
691.1	18.83
691.285	18.81
691.471	19.02
691.656	18.88
691.841	19.11
692.026	19.13
692.211	19.46
692.396	19.27
692.582	19.02
692.767	19.37
692.952	19.57
693.137	19.08
693.322	18.71
693.507	18.75
693.692	19.04
693.877	18.97
694.062	18.53
694.247	18.18
694.432	18.68
694.617	19.01
694.802	18.96
694.987	19.07
695.172	19.72
695.357	19.32
695.541	19.69
695.726	19.39
695.911	19.6
696.096	19.41
696.281	19.67
696.466	19.59
696.65	19.79
696.835	20.03
697.02	20.16
697.204	20.01
697.389	20.46
697.574	19.67
697.759	19.39
697.943	19.56
698.128	19.89
698.312	19.54
698.497	19.53
698.682	19.41
698.866	19.52
699.051	19.15
699.235	19.01
699.42	19.12
699.604	19.29
699.789	19.7
699.973	19.61
700.158	19.49
700.342	19.49
700.527	19.34
700.711	19.07
700.895	18.64
701.08	18.89
701.264	18.93
701.448	19.38
701.633	19.95
701.817	19.73
702.001	19.66
702.186	19.89
702.37	20.75
702.554	20.78
702.738	21.32
702.923	21.55
703.107	21.77
703.291	21.16
703.475	20.5
703.659	21.01
703.843	21.36
704.027	21.61
704.212	21.6
704.396	21.59
704.58	22.07
704.764	21.23
704.948	20.69
705.132	21.14
705.316	22.39
705.5	22.78
705.684	21.25
705.868	21.18
706.052	20.48
706.235	20.53
706.419	20.02
706.603	20.14
706.787	20.32
706.971	20.71
707.155	19.47
707.339	19.26
707.522	18.83
707.706	19.65
707.89	19.77
708.074	19.7
708.257	19.79
708.441	20.27
708.625	19.69
708.808	19.84
708.992	20.2
709.176	21.93
709.359	21.25
709.543	21.35
709.727	21.67
709.91	20.88
710.094	20.89
710.277	21.29
710.461	20.93
710.644	20.62
710.828	20.35
711.011	20.34
711.195	19.29
711.378	20.54
711.562	20.76
711.745	20.66
711.928	20.96
712.112	20.86
712.295	20.26
712.478	20.41
712.662	21.18
712.845	21.37
713.028	20.87
713.212	21.27
713.395	19.96
713.578	19.97
713.761	19.89
713.945	19.74
714.128	20.58
714.311	20.57
714.494	20.29
714.677	20.03
714.86	20.54
715.043	20.71
715.227	20.84
715.41	21.03
715.593	20.64
715.776	19.89
715.959	19.98
716.142	19.74
716.325	20.16
716.508	19.96
716.691	19.49
716.874	19.47
717.057	20.26
717.239	19.37
717.422	19.79
717.605	20.04
717.788	20.71
717.971	20.98
718.154	21.05
718.337	20.85
718.519	21.45
718.702	22.16
718.885	22.54
719.068	21.35
719.25	21.87
719.433	21.08
719.616	20.1
719.798	20.83
719.981	20.28
720.164	20.88
720.346	20.8
720.529	19.96
720.712	18.48
720.894	18.24
721.077	18.08
721.259	18.08
721.442	18.73
721.624	19.41
721.807	18.6
721.989	18.96
722.172	18.33
722.354	19.46
722.537	20.81
722.719	22.07
722.901	22.01
723.084	23.18
723.266	23.36
723.448	22.19
723.631	22.36
723.813	22.94
723.995	23.71
724.178	23.13
724.36	22.33
724.542	22.04
724.724	22.23
724.907	21.86
725.089	21.23
725.271	20.96
725.453	22.89
725.635	23.19
725.817	22.03
725.999	21.44
726.181	21.26
726.364	21.41
726.546	20.99
726.728	21.47
726.91	21.7
727.092	22.15
727.274	22.62
727.456	22.34
727.638	22.51
727.819	22.73
728.001	22.36
728.183	22.58
728.365	21.79
728.547	21.93
728.729	21.51
728.911	20.72
729.093	20.38
729.274	19.59
729.456	19.07
729.638	18.57
729.82	18.84
730.001	18.64
730.183	18.39
730.365	18.44
730.546	18.59
730.728	18.61
730.91	19.28
731.091	19.03
731.273	19.08
731.455	19.93
731.636	19.65
731.818	19.38
731.999	20.26
732.181	20.89
732.362	21.05
732.544	21.04
732.725	20.61
732.907	20.48
733.088	20.07
733.27	20.32
733.451	19.22
733.633	20.05
733.814	19.71
733.995	19.35
734.177	20.22
734.358	20.85
734.539	20.42
734.721	20.6
734.902	20.32
735.083	20.92
735.264	19.83
735.446	20.19
735.627	19.36
735.808	20.16
735.989	20.05
736.17	18.72
736.351	18.32
736.533	18.35
736.714	18.58
736.895	18.48
737.076	18.81
737.257	20.2
737.438	20.28
737.619	21.53
737.8	21.67
737.981	22.13
738.162	22.71
738.343	23.49
738.524	24.01
738.705	23.75
738.886	24.14
739.067	23.59
739.247	24.32
739.428	24.18
739.609	23.3
739.79	22.93
739.971	22.47
740.151	21.99
740.332	19.66
740.513	20.38
740.694	21.26
740.874	20.56
741.055	20.41
741.236	19.09
741.417	19.44
741.597	18.41
741.778	19.78
741.958	19.74
742.139	20.17
742.32	22.44
742.5	22
742.681	21.87
742.861	22.1
743.042	22.43
743.222	22.61
743.403	22.38
743.583	24.28
743.764	22.61
743.944	22.55
744.124	21.78
744.305	22.22
744.485	21.2
744.666	19.42
744.846	20.48
745.026	21.53
745.207	21.77
745.387	22.47
745.567	21.86
745.747	23.2
745.928	23.3
746.108	23.59
746.288	23.23
746.468	23.81
746.648	24.68
746.829	24.69
747.009	24.4
747.189	24.01
747.369	23.45
747.549	23.19
747.729	23.51
747.909	22.69
748.089	22.54
748.269	21.92
748.449	22.54
748.629	22.52
748.809	21.47
748.989	20.28
749.169	20.06
749.349	20.59
749.529	20.1
749.709	18.31
749.889	18.86
750.068	18.43
750.248	18.02
750.428	18
750.608	17.98
750.788	18
750.967	18.5
751.147	18.65
751.327	19.49
751.507	19.62
751.686	20.21
751.866	20.3
752.046	20.93
752.225	21.22
752.405	20.31
752.585	19.96
752.764	20.01
752.944	19.08
753.123	18.5
753.303	16.55
753.482	17.1
753.662	19
753.841	19.45
754.021	19.47
754.2	18.09
754.38	17.73
754.559	20.54
754.739	22.05
754.918	23.15
755.097	24.78
755.277	25.41
755.456	25.81
755.635	23.97
755.815	23.57
755.994	24.47
756.173	25.69
756.352	26.04
756.532	23.59
756.711	23.41
756.89	23.1
757.069	22.3
757.248	22
757.427	21
757.607	21.18
757.786	21.33
757.965	20.43
758.144	20.43
758.323	19.26
758.502	19.02
758.681	18.05
758.86	18.09
759.039	18.3
759.218	17.41
759.397	18.25
759.576	17.29
759.755	17.24
759.934	16.85
760.113	17.78
760.291	18.6
760.47	20.79
760.649	21.28
760.828	22.69
761.007	22.97
761.186	23.82
761.364	23.86
761.543	24.37
761.722	24.33
761.901	25.2
762.079	24.79
762.258	25.72
762.437	24.39
762.615	24.18
762.794	22.4
762.972	22.21
763.151	22.43
763.33	22.34
763.508	22.12
763.687	22.63
763.865	22.72
764.044	22.07
764.222	22.08
764.401	22.8
764.579	22.13
764.758	21.82
764.936	21.57
765.114	21.54
765.293	21.39
765.471	21.89
765.65	21.21
765.828	21.02
766.006	21.27
766.184	20.63
766.363	20.54
766.541	21.18
766.719	22.57
766.898	23.57
767.076	23.48
767.254	24.75
767.432	25.85
767.61	24.88
767.788	25.52
767.967	25.4
768.145	26.18
768.323	25.21
768.501	25.47
768.679	24.98
768.857	25.43
769.035	26.41
769.213	25.01
769.391	25.78
769.569	26.94
769.747	27.7
769.925	29.49
770.103	28.68
770.281	30.28
770.459	29.29
770.636	29.89
770.814	28.37
770.992	26.97
771.17	26.5
771.348	24.94
771.525	24.91
771.703	23.38
771.881	22.05
772.059	23.81
772.236	22.22
772.414	23.83
772.592	25.1
772.769	25.71
772.947	28.16
773.125	29.19
773.302	29.39
773.48	29.51
773.657	29.56
773.835	30.12
774.013	30.53
774.19	29.88
774.368	29.59
774.545	27.84
774.723	27.45
774.9	26.37
775.077	27.04
775.255	26.3
775.432	26.94
775.61	27.1
775.787	27.85
775.964	25.65
776.142	26.36
776.319	26.27
776.496	26.48
776.674	27.56
776.851	27.07
777.028	25.42
777.205	24.26
777.382	25.4
777.56	26.19
777.737	24.72
777.914	25.21
778.091	26.33
778.268	26.97
778.445	28.89
778.622	28.44
778.8	28.13
778.977	28.71
779.154	29.18
779.331	28.64
779.508	26.86
779.685	25.36
779.862	27.27
780.038	26.51
780.215	25.3
780.392	24.36
780.569	23.52
780.746	22.18
780.923	24.15
781.1	25.01
781.277	25.34
781.453	26.67
781.63	29.11
781.807	27.88
781.984	28.01
782.16	29.28
782.337	28.15
782.514	28.24
782.691	28.16
782.867	26.41
783.044	27.55
783.221	27.97
783.397	28.81
783.574	28.74
783.75	25.25
783.927	25.71
784.103	22.26
784.28	24.07
784.456	26.01
784.633	28.03
784.809	28.06
784.986	26.64
785.162	24.62
785.339	22.4
785.515	23.72
785.692	26.53
785.868	26.44
786.044	30.13
786.221	28.66
786.397	29.42
786.573	28.66
786.749	30.35
786.926	29.64
787.102	32.5
787.278	32.64
787.454	30.45
787.631	31.36
787.807	31.82
787.983	32.33
788.159	30.51
788.335	27.25
788.511	27.4
788.687	28.41
788.863	29.46
789.039	28.32
789.216	27.93
789.392	29.2
789.568	30.17
789.744	29.63
789.919	29.44
790.095	30.19
790.271	30.91
790.447	31.78
790.623	31.29
790.799	31.02
790.975	33.54
791.151	37.01
791.327	34.36
791.502	32.98
791.678	32.72
791.854	31.76
792.03	34.32
792.205	35.86
792.381	36.99
792.557	33.67
792.733	33.77
792.908	30.04
793.084	24.11
793.259	28.63
793.435	30.14
793.611	29.91
793.786	30.31
793.962	27.64
794.137	26.38
794.313	25.42
794.488	23.93
794.664	28.38
794.839	27.85
795.015	30.6
795.19	28.12
795.366	26.34
795.541	28.07
795.716	29.34
795.892	32.71
796.067	31.86
796.242	31.95
796.418	33.51
796.593	29.34
796.768	29.73
796.944	31.27
797.119	31.16
797.294	32.71
797.469	32.22
797.644	30.69
797.82	28.25
797.995	30.14
798.17	30.42
798.345	30.32
798.52	30.38
798.695	29.97
798.87	28.15
799.045	25.07
799.22	24.59
799.395	24.25
799.57	25.21
799.745	26.45
799.92	25.24
800.095	25.59
800.27	27.42
800.445	25.72
800.62	26.33
800.795	26.97
800.97	31.68
801.145	32.84
801.319	34.69
801.494	33.02
801.669	33.77
801.844	33.39
802.018	31.59
802.193	29.18
802.368	30.26
802.543	28.4
802.717	30.53
802.892	31.34
803.067	25.8
803.241	25.03
803.416	26.18
803.59	23.72
803.765	21.84
803.94	25.02
804.114	28.2
804.289	28.2
804.463	31.46
804.638	28.43
804.812	26.28
804.986	32.12
805.161	30.16
805.335	31.87
805.51	34.34
805.684	34.81
805.858	33.93
806.033	35.13
806.207	36.81
806.381	35.21
806.556	36.29
806.73	35.48
806.904	31.84
807.078	29.34
807.253	26.92
807.427	22.83
807.601	26.19
807.775	27.65
807.949	23.24
808.123	23.78
808.298	24.29
808.472	21.06
808.646	25.48
808.82	28.46
808.994	33.22
809.168	31.32
809.342	32.5
809.516	30.52
809.69	29.87
809.864	30.19
810.038	26.87
810.212	22.56
810.385	26.5
810.559	24.5
810.733	22.19
810.907	22.35
811.081	23.75
811.255	22.06
811.428	25.92
811.602	23.1
811.776	27.04
811.95	30.83
812.123	33.44
812.297	31.59
812.471	28.87
812.644	32.36
812.818	30.17
812.992	30.22
813.165	28.49
813.339	22.57
813.512	25.61
813.686	22.78
813.86	19.49
814.033	24.06
814.207	17.89
814.38	24.32
814.554	23.19
814.727	25.42
814.9	25.39
815.074	28.56
815.247	32.87
815.421	33.52
815.594	34.72
815.767	34.37
815.941	28.18
816.114	31.04
816.287	29.88
816.46	31.18
816.634	28.47
816.807	28.7
816.98	29.1
817.153	26.71
817.327	22.89
817.5	19.47
817.673	18.23
817.846	22.6
818.019	23.21
818.192	20.26
818.365	15.72
818.538	20.7
818.711	24.26
818.884	23.57
819.057	23.54
819.23	24.42
819.403	26.45
819.576	29.15
819.749	30.07
819.922	31.44
820.095	32.22
820.268	31.63
820.441	29.09
820.614	28.17
820.786	27.47
820.959	29.52
821.132	29.15
821.305	28.36
821.477	26.57
821.65	26.12
821.823	24.75
821.996	24.47
822.168	24.12
822.341	24.22
822.514	23.64
822.686	23.69
822.859	22.79
823.031	22.39
823.204	22.24
823.376	22.77
823.549	22.58
823.722	23.14
823.894	22.98
824.067	22.64
824.239	22.81
824.411	23.13
824.584	22.86
824.756	23.19
824.929	24.47
825.101	25.36
825.273	24.53
825.446	24.22
825.618	24.86
825.79	26.19
825.963	27.55
826.135	26.97
826.307	26.78
826.479	27.07
826.652	27.05
826.824	26.1
826.996	25.25
827.168	25.24
827.34	25.74
827.512	24.09
827.684	22.35
827.856	21.99
828.029	21.66
828.201	20.38
828.373	21.27
828.545	21.8
828.717	21.16
828.889	21.67
829.061	22.18
829.232	21.77
829.404	23.42
829.576	24.8
829.748	26.05
829.92	27.56
830.092	29.77
830.264	27.35
830.436	25.52
830.607	28.57
830.779	27.86
830.951	30.99
831.123	30.58
831.294	28.39
831.466	28.49
831.638	26.43
831.809	25.16
831.981	25.88
832.153	29.83
832.324	28.77
832.496	22.93
832.667	22.62
832.839	19.7
833.011	19.27
833.182	23.45
833.354	22.25
833.525	24.37
833.697	27.17
833.868	22.37
834.039	22.52
834.211	25.99
834.382	28.4
834.554	30.88
834.725	29.39
834.896	31.01
835.068	30.65
835.239	29.93
835.41	30.9
835.581	28.34
835.753	32.68
835.924	33.69
836.095	31.78
836.266	31.92
836.438	29.55
836.609	29.61
836.78	29.53
836.951	28.15
837.122	28.71
837.293	25.62
837.464	27.96
837.635	31.25
837.806	27.94
837.977	25.3
838.148	26.86
838.319	29.64
838.49	32.46
838.661	31.88
838.832	33.67
839.003	36.65
839.174	38.57
839.345	36.11
839.516	31.28
839.687	31.35
839.857	40.13
840.028	46
840.199	40.91
840.37	43.6
840.54	45.01
840.711	42.92
840.882	42.3
841.053	46.17
841.223	46.49
841.394	45.27
841.564	46.91
841.735	44.46
841.906	37.87
842.076	40.96
842.247	37.26
842.417	37.78
842.588	40.06
842.758	43.09
842.929	39.02
843.099	40.6
843.27	38.16
843.44	31.06
843.611	28.78
843.781	29.97
843.951	27.33
844.122	26.83
844.292	25
844.462	32.98
844.633	24.46
844.803	23.04
844.973	28.75
845.144	30.1
845.314	44.72
845.484	53.66
845.654	51.88
845.824	55.31
845.995	54.34
846.165	64.71
846.335	58.94
846.505	73.07
846.675	73.35
846.845	53.74
847.015	55.38
847.185	58.31
847.355	57.72
847.525	69.37
847.695	67.33
847.865	75.09
848.035	62.43
848.205	64.56
848.375	55.82
848.545	45.26
848.715	47.52
848.884	44.07
849.054	41.43
849.224	29.73
849.394	11.27
849.564	20.24
849.733	25.71
849.903	28.58
850.073	30.18
850.243	34.27
850.412	42.95
850.582	60.33
850.752	61.65
850.921	53.83
851.091	68.67
851.26	76.14
851.43	67.4
851.599	62.26
851.769	61.69
851.939	41.87
852.108	32.53
852.278	35.47
852.447	24.14
852.616	14.69
852.786	20.8
852.955	21.91
853.125	23.11
853.294	27.27
853.463	38.09
853.633	45.97
853.802	42.58
853.971	38.64
854.141	35.96
854.31	43.33
854.479	49.32
854.648	49.69
854.818	51.13
854.987	47.76
855.156	45.85
855.325	40.42
855.494	30.43
855.663	43.33
855.832	47.12
856.001	57.18
856.171	50.55
856.34	61.4
856.509	69.77
856.678	67.54
856.847	68.69
857.016	59.68
857.185	51.72
857.353	62.91
857.522	58.04
857.691	66.86
857.86	69.04
858.029	71.19
858.198	49.38
858.367	45.96
858.535	54.3
858.704	62.43
858.873	74.8
859.042	84.68
859.21	72.9
859.379	84.53
859.548	75.57
859.717	61.76
859.885	51.61
860.054	62.16
860.222	53.47
860.391	48.26
860.56	40.67
860.728	35.06
860.897	37.69
861.065	40.91
861.234	34.77
861.402	21.59
861.571	28.71
861.739	36.64
861.908	41.52
862.076	54.28
862.244	66.23
862.413	71.88
862.581	87.02
862.749	99.1
862.918	106.5
863.086	121.37
863.254	126.7
863.423	124.09
863.591	123.16
863.759	98.48
863.927	92.94
864.096	78.7
864.264	89.47
864.432	91.93
864.6	65.49
864.768	61.25
864.936	37.8
865.104	29.66
865.272	25.05
865.44	9.96
865.608	18.71
865.776	29.17
865.944	22.5
866.112	26.36
866.28	13.17
866.448	39.81
866.616	50.98
866.784	82.04
866.952	80.79
867.12	78.89
867.288	96.56
867.455	98.98
867.623	92.33
867.791	101.88
867.959	75.09
868.127	69.05
868.294	44.3
868.462	31.08
868.63	19.52
868.797	34.41
868.965	37.88
869.133	26.18
869.3	35.5
869.468	43.02
869.636	39.6
869.803	50.42
869.971	50.07
870.138	58.51
870.306	71.94
870.473	73.24
870.641	65.07
870.808	60.81
870.975	59.29
871.143	56.48
871.31	40.57
871.478	49.69
871.645	35.67
871.812	33.26
871.98	29.32
872.147	34.19
872.314	51.97
872.482	58.93
872.649	53.29
872.816	60.96
872.983	38.75
873.15	49.23
873.318	48.81
873.485	50.94
873.652	36.16
873.819	49.97
873.986	38.99
874.153	26.09
874.32	28.69
874.487	40.57
874.654	31.88
874.821	52
874.988	64.14
875.155	55.2
875.322	33.85
875.489	95.36
875.656	42.95
875.823	49.56
875.99	64.3
876.157	64.55
876.324	56.43
876.49	68.92
876.657	64.26
876.824	54.33
876.991	65.09
877.157	82.97
877.324	56.65
877.491	66.89
877.658	58.05
877.824	48.94
877.991	61.36
878.157	73.96
878.324	72.67
878.491	73.9
878.657	76.65
878.824	71.4
878.99	50.92
879.157	94.68
879.323	85.28
879.49	111.6
879.656	128.46
879.823	98.28
879.989	91.74
880.156	78.12
880.322	55.77
880.488	52.36
880.655	47.37
880.821	51.11
880.987	42.11
881.154	52.76
881.32	35.08
881.486	29.75
881.652	25.29
881.819	25.14
881.985	20.65
882.151	25.27
882.317	23.37
882.483	17.49
882.649	18.41
882.816	20.4
882.982	19.08
883.148	22.48
883.314	23.4
883.48	22.93
883.646	24.5
883.812	28.6
883.978	26.76
884.144	28.13
884.31	34.35
884.476	34.15
884.642	31.47
884.807	31.76
884.973	30.02
885.139	32.78
885.305	36.6
885.471	33.27
885.637	32.2
885.802	36.43
885.968	34.91
886.134	31.12
886.3	32.53
886.465	31.16
886.631	29.59
886.797	33.4
886.962	33.72
887.128	28.5
887.293	31.07
887.459	40.15
887.625	45.18
887.79	48.21
887.956	55.11
888.121	59.11
888.287	74.25
888.452	76.11
888.618	72.9
888.783	73.11
