Data from 2938097_Reflection_1.txt Node
Date: Sat Jul 11 18:58:06 EDT 2015
User: robert
Spectrometer: USB4E03001
Autoset integration time: false
Trigger mode: 4
Integration Time (sec): 1.000000E-1
Scans to average: 10
Electric dark correction enabled: true
Nonlinearity correction enabled: false
Boxcar width: 5
Stray light correction enabled: false
XAxis mode: Wavelengths
Stop averaging: false
Number of Pixels in Spectrum: 3648
>>>>>Begin Spectral Data<<<<<
177.566	259.4
177.785	286.27
178.005	507.51
178.225	108.59
178.445	99.49
178.665	94.09
178.885	80.72
179.105	132.03
179.324	211.1
179.544	261.97
179.764	292.73
179.984	448.66
180.204	285.56
180.423	275.26
180.643	281.08
180.863	214.51
181.083	240.17
181.302	232.73
181.522	416.89
181.742	178.1
181.961	186.65
182.181	399.42
182.401	-17725.93
182.621	-134.37
182.84	-86.14
183.06	-712.02
183.279	-72.01
183.499	-77.69
183.719	21.81
183.938	24.49
184.158	40.12
184.377	30.48
184.597	54.12
184.816	134.54
185.036	62.17
185.256	34.16
185.475	29.67
185.695	13.12
185.914	17.49
186.134	-61.83
186.353	-189.14
186.572	-32235.71
186.792	-382
187.011	-109.98
187.231	-54.49
187.45	-12.75
187.67	13.2
187.889	63.31
188.108	113.59
188.328	39.58
188.547	61.19
188.766	60.66
188.986	45.66
189.205	24.2
189.424	9.97
189.644	5.87
189.863	-14.29
190.082	28.05
190.302	-17.31
190.521	-3.54
190.74	-33.04
190.959	-18.58
191.178	-469.07
191.398	231.29
191.617	81.97
191.836	19.39
192.055	8.55
192.274	-4.32
192.494	51.9
192.713	62.98
192.932	70.28
193.151	31.06
193.37	-11.75
193.589	-36.04
193.808	-166.22
194.027	-54.63
194.246	-55.94
194.465	-99.93
194.685	381.84
194.904	836.71
195.123	143.92
195.342	-170.45
195.561	-583.61
195.78	198.94
195.999	-936.08
196.218	818.92
196.436	153.6
196.655	458.46
196.874	330.48
197.093	197.79
197.312	361.81
197.531	1069.14
197.75	2218.6
197.969	-433.68
198.188	12.77
198.407	-1.8
198.625	-10.91
198.844	213.45
199.063	87.62
199.282	98.57
199.501	109.61
199.719	50.19
199.938	74.45
200.157	54.46
200.376	48.39
200.594	73.94
200.813	98.48
201.032	205.01
201.251	457.47
201.469	-213.19
201.688	-136.98
201.907	-90.67
202.125	-128.54
202.344	-93.87
202.563	-99.57
202.781	-167.9
203	-65.6
203.218	-36.07
203.437	-154.57
203.656	-217.29
203.874	407.54
204.093	141.13
204.311	168.77
204.53	173.23
204.748	158
204.967	847.01
205.185	-483.23
205.404	243.47
205.622	118.29
205.841	185.27
206.059	132.43
206.278	212.27
206.496	-1533.21
206.715	434.26
206.933	206.76
207.151	167.69
207.37	184.34
207.588	279.19
207.806	470.78
208.025	-82.34
208.243	-223.37
208.461	-118.61
208.68	8.07
208.898	64.97
209.116	-131.74
209.335	-65.6
209.553	301.71
209.771	691.12
209.989	-108.3
210.208	-370.03
210.426	-114.99
210.644	-140.62
210.862	-384.66
211.081	1631.15
211.299	2818.39
211.517	321.81
211.735	251.04
211.953	238.89
212.171	229.17
212.39	117.4
212.608	141.25
212.826	98.16
213.044	68.16
213.262	31.28
213.48	33.87
213.698	11.31
213.916	-101.64
214.134	-152.37
214.352	-53.11
214.57	-58.56
214.788	36.76
215.006	69.02
215.224	44.32
215.442	55.62
215.66	211.82
215.878	154.6
216.096	239.41
216.314	218.86
216.532	180.49
216.75	187.02
216.968	154.89
217.185	128.8
217.403	-55.78
217.621	-117.04
217.839	-2.39
218.057	1.74
218.275	9.54
218.492	-11.67
218.71	-28.98
218.928	-33.91
219.146	-52.89
219.363	-46.9
219.581	-3.79
219.799	88.02
220.017	116.39
220.234	107.04
220.452	142.67
220.67	104.22
220.887	109.78
221.105	74.96
221.323	53.4
221.54	54.06
221.758	62.59
221.976	53.73
222.193	37.87
222.411	52.78
222.629	15.77
222.846	1.16
223.064	34.57
223.281	23.91
223.499	26.33
223.716	15.87
223.934	29.56
224.151	18.02
224.369	19.09
224.586	25.75
224.804	0.09
225.021	14.94
225.239	15.36
225.456	4.27
225.674	15.93
225.891	22.58
226.108	27.55
226.326	18.48
226.543	10.41
226.76	10.83
226.978	12.69
227.195	19.16
227.413	8.2
227.63	7.67
227.847	6.13
228.064	2.78
228.282	4.2
228.499	7.65
228.716	9.08
228.934	10.8
229.151	9.82
229.368	8.06
229.585	8.47
229.802	11.22
230.02	10.5
230.237	7.37
230.454	8.51
230.671	6.87
230.888	0.49
231.105	-3.26
231.323	-5.6
231.54	-8.32
231.757	-5.19
231.974	-3.8
232.191	-1.78
232.408	-3.23
232.625	2.5
232.842	-0.96
233.059	0.03
233.276	2.26
233.493	7.44
233.71	9.25
233.927	11.38
234.144	1.54
234.361	-12.47
234.578	-10.25
234.795	-12.36
235.012	-8.15
235.229	-3.23
235.446	-7.77
235.663	-9.06
235.879	-14.52
236.096	-20.8
236.313	-19.24
236.53	-9.89
236.747	-3.83
236.964	-6.9
237.181	-2.94
237.397	-1.19
237.614	3.14
237.831	1.17
238.048	6.05
238.264	5.06
238.481	7.93
238.698	1.52
238.915	-1.18
239.131	3.71
239.348	4.85
239.565	3.23
239.781	0.57
239.998	-1.15
240.215	1.96
240.431	1.13
240.648	5.46
240.865	4.91
241.081	8.44
241.298	9.94
241.514	9.48
241.731	10.14
241.947	12.79
242.164	15.17
242.38	14.5
242.597	14.95
242.814	17.01
243.03	14.74
243.246	15.06
243.463	16.8
243.679	15.67
243.896	16.42
244.112	15.2
244.329	13.02
244.545	11.65
244.762	12.44
244.978	12.13
245.194	8.61
245.411	9.49
245.627	8.39
245.843	6.11
246.06	7.31
246.276	7.33
246.492	8.26
246.709	8.54
246.925	8.02
247.141	7.51
247.357	7.65
247.574	8.57
247.79	8.16
248.006	8.14
248.222	8.35
248.439	9.36
248.655	9.66
248.871	9.21
249.087	8.17
249.303	7.38
249.519	8.34
249.736	8.22
249.952	9.37
250.168	10.92
250.384	10.04
250.6	8.34
250.816	5.31
251.032	3.08
251.248	3.25
251.464	4.31
251.68	7.75
251.896	5.4
252.112	5.01
252.328	2.03
252.544	2.73
252.76	4.6
252.976	6.06
253.192	5.44
253.408	5.17
253.624	7.41
253.84	5.82
254.056	5.75
254.272	7.55
254.487	7.38
254.703	8.11
254.919	8.21
255.135	8.08
255.351	3.84
255.567	5.07
255.782	5.38
255.998	2.52
256.214	6.01
256.43	3.07
256.646	2.83
256.861	5.85
257.077	5.21
257.293	3.04
257.508	3.75
257.724	4.83
257.94	4.35
258.155	3.83
258.371	4.44
258.587	6.01
258.802	6.97
259.018	8.05
259.234	6.69
259.449	7.09
259.665	8.55
259.88	8.58
260.096	9.42
260.312	9.93
260.527	10.82
260.743	10.55
260.958	9.36
261.174	9.4
261.389	8.9
261.605	9.46
261.82	9.38
262.036	8.01
262.251	7.66
262.466	6.42
262.682	5.83
262.897	4.32
263.113	5.81
263.328	7.02
263.543	7.28
263.759	8.71
263.974	9.62
264.189	8.72
264.405	11.43
264.62	10.31
264.835	10.79
265.051	11.68
265.266	11.35
265.481	10.48
265.696	11.08
265.912	10.13
266.127	9.74
266.342	8.77
266.557	10.28
266.773	9.74
266.988	8.53
267.203	8.52
267.418	6.73
267.633	6.7
267.848	6.69
268.064	6.01
268.279	4.85
268.494	2.59
268.709	2.23
268.924	0.64
269.139	-1.18
269.354	0.07
269.569	1.51
269.784	1.33
269.999	3.18
270.214	2.39
270.429	3.39
270.644	6.03
270.859	6.83
271.074	7.16
271.289	7.87
271.504	9.38
271.719	10.63
271.934	9.87
272.149	10.31
272.363	9.68
272.578	9.99
272.793	9.53
273.008	8.65
273.223	7.85
273.438	7.05
273.653	8.62
273.867	7.45
274.082	7.08
274.297	7.24
274.512	8.28
274.726	8.18
274.941	8.51
275.156	7.31
275.371	7.25
275.585	8.74
275.8	9.64
276.015	9.11
276.229	8.43
276.444	9.24
276.659	8.88
276.873	7.22
277.088	7.08
277.302	6.35
277.517	7.55
277.732	6.72
277.946	5.02
278.161	4.19
278.375	0.62
278.59	2.3
278.804	0.36
279.019	0.93
279.233	2.44
279.448	2.85
279.662	3.39
279.877	2.45
280.091	2.94
280.306	5.25
280.52	6.06
280.735	7.86
280.949	7.33
281.163	8.14
281.378	7.64
281.592	6.89
281.806	6.62
282.021	7.11
282.235	7.07
282.449	7.9
282.664	7.77
282.878	9.16
283.092	9.37
283.307	10.52
283.521	10.08
283.735	10.1
283.949	9.58
284.164	9.55
284.378	8.53
284.592	9.04
284.806	8.81
285.02	7.37
285.234	6.54
285.449	6.85
285.663	6.29
285.877	6.53
286.091	5.98
286.305	7.45
286.519	7.16
286.733	8.64
286.947	9.39
287.161	9.51
287.375	10.96
287.589	10.8
287.803	11.4
288.017	11.91
288.231	11.77
288.445	12.28
288.659	10.93
288.873	11.13
289.087	9.36
289.301	7.4
289.515	5.2
289.729	3.7
289.943	3.9
290.157	3.03
290.371	3.73
290.584	2.32
290.798	3.34
291.012	3.14
291.226	3.63
291.44	5.78
291.654	6.81
291.867	7.05
292.081	6.43
292.295	5.54
292.509	6.81
292.722	5.09
292.936	6.8
293.15	5.86
293.364	6.82
293.577	6.6
293.791	5.14
294.005	5.05
294.218	7.31
294.432	9.43
294.645	9.45
294.859	8.49
295.073	8.5
295.286	7.59
295.5	7.52
295.713	8.32
295.927	8.93
296.14	8.82
296.354	8.99
296.568	7.01
296.781	6.59
296.994	8.27
297.208	7.39
297.421	7.16
297.635	8.42
297.848	8.36
298.062	8.81
298.275	9.07
298.489	9.21
298.702	9.1
298.915	10.38
299.129	10.75
299.342	9.43
299.555	10.34
299.769	12.1
299.982	12.51
300.195	11.83
300.409	10.85
300.622	10.16
300.835	9.19
301.048	9.97
301.262	12.3
301.475	12.3
301.688	13.93
301.901	14.84
302.115	15.2
302.328	13.59
302.541	14.33
302.754	15.28
302.967	13.49
303.18	14.66
303.393	14.63
303.607	12.6
303.82	12.84
304.033	11.75
304.246	9.58
304.459	9
304.672	10.7
304.885	11.2
305.098	8.87
305.311	10.08
305.524	8.9
305.737	7.09
305.95	7.68
306.163	7.06
306.376	6.36
306.589	7.63
306.802	6.92
307.015	4.61
307.228	3.17
307.44	4.78
307.653	4.08
307.866	5.39
308.079	6.85
308.292	8.26
308.505	8.4
308.718	8.09
308.93	8
309.143	7.84
309.356	8.73
309.569	9.62
309.781	9.93
309.994	10.1
310.207	9.86
310.42	9.53
310.632	8.41
310.845	8.41
311.058	9.52
311.27	9.26
311.483	9.94
311.696	10.45
311.908	10.39
312.121	8.41
312.333	8.83
312.546	8.48
312.759	8.62
312.971	7.95
313.184	9.38
313.396	8.25
313.609	9.62
313.821	8.37
314.034	7.06
314.246	6.74
314.459	9.44
314.671	10.23
314.884	8.99
315.096	9.99
315.309	9.95
315.521	6.82
315.733	7.17
315.946	6.33
316.158	6.21
316.371	8.26
316.583	10.42
316.795	9.94
317.008	10.77
317.22	13.23
317.432	12.56
317.644	13.4
317.857	14.71
318.069	13.81
318.281	14.57
318.494	14.78
318.706	14.17
318.918	13.05
319.13	13.31
319.342	10.83
319.555	8.48
319.767	9.45
319.979	9.63
320.191	9.74
320.403	11.88
320.615	10.59
320.827	10.36
321.039	10.25
321.252	10.14
321.464	8.2
321.676	8.62
321.888	10.24
322.1	10.26
322.312	8.05
322.524	8.97
322.736	6.88
322.948	6.53
323.16	6.09
323.372	6.91
323.584	5.21
323.796	6.6
324.007	7.68
324.219	6.54
324.431	6.74
324.643	8.4
324.855	8.37
325.067	9.07
325.279	9.84
325.491	11.17
325.702	11.41
325.914	13.96
326.126	12.71
326.338	11.33
326.55	13.1
326.761	11.77
326.973	11.68
327.185	11.13
327.396	12.19
327.608	14.05
327.82	14.14
328.032	13.05
328.243	12.19
328.455	14.01
328.666	15.27
328.878	14.96
329.09	15.43
329.301	15.17
329.513	16.56
329.725	17.25
329.936	15.3
330.148	15.7
330.359	17.43
330.571	17.32
330.782	17.5
330.994	17.85
331.205	16.81
331.417	16.86
331.628	17.9
331.84	16.57
332.051	14.78
332.262	14.37
332.474	13.4
332.685	12.26
332.897	11.87
333.108	12.34
333.319	12.45
333.531	14.63
333.742	15.64
333.953	16.81
334.165	17.62
334.376	18.79
334.587	17.58
334.799	18.23
335.01	19.21
335.221	20.79
335.432	20.37
335.644	20
335.855	18.79
336.066	17.92
336.277	16.09
336.488	16.32
336.7	15.33
336.911	17.77
337.122	17.71
337.333	17.03
337.544	16.55
337.755	16.32
337.966	17.26
338.177	17.76
338.388	18.77
338.599	19.6
338.811	18.91
339.022	19.26
339.233	18.72
339.444	19.41
339.655	18.1
339.866	17.8
340.076	17.55
340.287	16.57
340.498	16.07
340.709	15.09
340.92	15.36
341.131	15.6
341.342	16.37
341.553	16.75
341.764	15.88
341.975	16.08
342.185	15.4
342.396	16.32
342.607	17.44
342.818	17.7
343.029	18.09
343.239	17.82
343.45	17.78
343.661	17.16
343.872	17.36
344.082	18.18
344.293	19.27
344.504	19.7
344.714	18.91
344.925	18.42
345.136	18.9
345.346	19.63
345.557	19.72
345.768	19.88
345.978	20.39
346.189	18.94
346.399	17.92
346.61	17.05
346.821	17.53
347.031	16.97
347.242	17.1
347.452	17.08
347.663	15.88
347.873	16.93
348.084	17.78
348.294	17.05
348.504	18.06
348.715	18.82
348.925	19.51
349.136	20.33
349.346	20.55
349.557	20.79
349.767	20.66
349.977	20.34
350.188	20.13
350.398	20.44
350.608	20.81
350.819	20.86
351.029	21.64
351.239	22.23
351.449	21.43
351.66	22.1
351.87	21.85
352.08	20.94
352.29	21.64
352.501	21.15
352.711	20.34
352.921	19.83
353.131	19.53
353.341	18.28
353.552	17.52
353.762	17.39
353.972	17.97
354.182	18.2
354.392	19.03
354.602	19.26
354.812	19.61
355.022	19.72
355.232	20.17
355.442	19.97
355.652	19.63
355.862	19.59
356.072	18.79
356.282	17.9
356.492	17.05
356.702	16.77
356.912	16.37
357.122	15.25
357.332	14.42
357.542	13.86
357.752	14.65
357.962	15.4
358.171	15.49
358.381	16.14
358.591	17.18
358.801	17.52
359.011	18.04
359.221	18.33
359.43	18.94
359.64	19.11
359.85	19.5
360.06	19.46
360.269	19.15
360.479	19.07
360.689	19.33
360.899	18.58
361.108	18.56
361.318	17.64
361.528	16.73
361.737	16.89
361.947	16.62
362.156	17.13
362.366	16.64
362.576	16.48
362.785	16.1
362.995	16.09
363.204	16.17
363.414	15.22
363.623	14.74
363.833	15.55
364.042	15.23
364.252	15.76
364.461	15
364.671	14.71
364.88	14.83
365.09	15.63
365.299	15.46
365.509	15.26
365.718	15.8
365.927	15.95
366.137	16.06
366.346	15.55
366.555	15.2
366.765	14.5
366.974	14.54
367.183	14.85
367.393	14.52
367.602	13.28
367.811	13.02
368.021	12.59
368.23	13.98
368.439	13.74
368.648	14.39
368.857	14.57
369.067	15.1
369.276	15.28
369.485	15.31
369.694	14.53
369.903	14.92
370.112	14.32
370.321	14.61
370.531	13.53
370.74	13.08
370.949	13.02
371.158	12.91
371.367	13.9
371.576	13.65
371.785	13.17
371.994	13.29
372.203	13.25
372.412	13.24
372.621	12.68
372.83	12.95
373.039	13.3
373.248	12.69
373.457	12.49
373.666	11.4
373.874	11.57
374.083	12.4
374.292	12.76
374.501	13.2
374.71	13.82
374.919	14.43
375.128	13.8
375.336	14.05
375.545	14.19
375.754	14.63
375.963	14.53
376.171	13.86
376.38	13.43
376.589	13.64
376.798	13.76
377.006	13.23
377.215	13.17
377.424	13.27
377.632	12.74
377.841	12.42
378.05	11.53
378.258	11.22
378.467	12.12
378.675	12.09
378.884	11.74
379.093	11.24
379.301	11.31
379.51	11.51
379.718	11.71
379.927	11.86
380.135	12.01
380.344	13.06
380.552	13.4
380.761	12.36
380.969	12.19
381.177	11.84
381.386	11.91
381.594	12.26
381.803	12.17
382.011	12.68
382.219	12.62
382.428	12.69
382.636	11.55
382.845	11.19
383.053	11.77
383.261	11.75
383.469	12.12
383.678	12.14
383.886	11.74
384.094	11.85
384.302	11.73
384.511	11.55
384.719	11.18
384.927	11.55
385.135	11.35
385.343	10.92
385.552	10.53
385.76	10.29
385.968	10.14
386.176	10.21
386.384	9.77
386.592	9.12
386.8	8.96
387.008	9.27
387.216	8.67
387.424	8.91
387.633	9.21
387.841	8.8
388.049	8.55
388.257	8.25
388.465	8.43
388.672	8.43
388.88	8.58
389.088	9.03
389.296	8.46
389.504	8.86
389.712	9.02
389.92	8.75
390.128	8.97
390.336	9.03
390.544	9.24
390.751	8.69
390.959	8.69
391.167	8.65
391.375	8.26
391.583	8.75
391.79	9.06
391.998	8.53
392.206	8.78
392.414	9.03
392.621	9.08
392.829	9.2
393.037	9.5
393.244	9.57
393.452	9.47
393.66	9.84
393.867	9.78
394.075	9.47
394.283	9.83
394.49	9.76
394.698	9.8
394.905	9.4
395.113	8.91
395.32	9
395.528	8.78
395.735	8.58
395.943	8.24
396.15	8.14
396.358	8.42
396.565	8.41
396.773	8.08
396.98	8.24
397.188	8.57
397.395	8.96
397.602	8.85
397.81	8.96
398.017	9.03
398.225	9.2
398.432	9.15
398.639	8.7
398.847	8.7
399.054	8.79
399.261	8.67
399.468	8.77
399.676	8.92
399.883	8.77
400.09	8.7
400.297	8.93
400.505	8.74
400.712	8.37
400.919	8.52
401.126	8.37
401.333	8.27
401.54	7.93
401.748	7.88
401.955	7.69
402.162	7.81
402.369	7.77
402.576	7.84
402.783	7.66
402.99	7.9
403.197	7.72
403.404	7.67
403.611	7.85
403.818	8.08
404.025	8.27
404.232	8.19
404.439	8.34
404.646	8.6
404.853	8.51
405.06	8.71
405.267	8.71
405.474	8.69
405.681	8.56
405.887	8.54
406.094	8.36
406.301	8.32
406.508	8.69
406.715	8.63
406.922	8.5
407.128	8.38
407.335	8.74
407.542	8.66
407.749	8.89
407.955	9.36
408.162	9.54
408.369	9.72
408.575	9.5
408.782	9.33
408.989	9.3
409.195	8.99
409.402	9.08
409.609	8.64
409.815	8.64
410.022	8.21
410.228	7.74
410.435	7.54
410.642	7.46
410.848	7.46
411.055	7.21
411.261	6.86
411.468	6.85
411.674	6.66
411.881	6.71
412.087	6.95
412.294	7.16
412.5	7.27
412.706	7.34
412.913	7.37
413.119	7.17
413.326	7.33
413.532	7.66
413.738	7.75
413.945	7.84
414.151	7.72
414.357	7.45
414.564	7.37
414.77	7.52
414.976	7.48
415.182	7.34
415.389	7.39
415.595	7.24
415.801	7.15
416.007	7.19
416.214	6.98
416.42	7.15
416.626	7.21
416.832	7.47
417.038	7.63
417.244	7.72
417.45	7.9
417.657	7.98
417.863	8.02
418.069	8.14
418.275	7.91
418.481	7.98
418.687	8.06
418.893	8.23
419.099	8.32
419.305	8.12
419.511	7.9
419.717	7.97
419.923	7.98
420.129	7.97
420.335	7.85
420.541	8.09
420.746	8.13
420.952	8.02
421.158	8.03
421.364	7.94
421.57	8.17
421.776	8.32
421.982	8.26
422.187	8.26
422.393	8.36
422.599	8.38
422.805	8.36
423.01	8.35
423.216	8.56
423.422	8.52
423.628	8.52
423.833	8.28
424.039	8.21
424.245	8.16
424.45	8.18
424.656	8.14
424.862	8.09
425.067	8.15
425.273	8.26
425.478	8.09
425.684	8.09
425.889	8.07
426.095	8.1
426.301	8.18
426.506	8.2
426.712	8.06
426.917	7.94
427.123	8.12
427.328	7.97
427.533	7.97
427.739	7.83
427.944	7.64
428.15	7.51
428.355	7.48
428.561	7.45
428.766	7.45
428.971	7.67
429.177	7.97
429.382	7.84
429.587	8.2
429.793	8.16
429.998	8.31
430.203	8.68
430.408	8.74
430.614	8.9
430.819	8.99
431.024	8.9
431.229	8.73
431.434	8.55
431.64	8.57
431.845	8.39
432.05	8.41
432.255	8.44
432.46	8.1
432.665	8.1
432.87	8.12
433.076	8.08
433.281	7.96
433.486	8.16
433.691	8
433.896	7.89
434.101	7.8
434.306	7.72
434.511	7.58
434.716	7.58
434.921	7.72
435.126	7.52
435.331	7.39
435.535	7.57
435.74	7.44
435.945	7.63
436.15	7.72
436.355	7.93
436.56	7.97
436.765	8.02
436.97	8.11
437.174	7.95
437.379	8.04
437.584	8.14
437.789	8.17
437.993	8.01
438.198	8.21
438.403	8.17
438.608	8.04
438.812	7.97
439.017	8.08
439.222	8.04
439.426	8.04
439.631	7.99
439.836	7.82
440.04	7.77
440.245	7.85
440.45	7.53
440.654	7.56
440.859	7.54
441.063	7.55
441.268	7.39
441.472	7.36
441.677	7.45
441.881	7.63
442.086	7.78
442.29	7.8
442.495	7.84
442.699	7.96
442.904	8.08
443.108	8.04
443.312	8.06
443.517	8.16
443.721	8.17
443.925	8.09
444.13	7.91
444.334	7.85
444.538	7.9
444.743	7.93
444.947	7.84
445.151	7.93
445.356	8.07
445.56	8
445.764	8.03
445.968	7.92
446.173	7.78
446.377	7.9
446.581	7.93
446.785	7.89
446.989	7.77
447.193	7.88
447.398	7.64
447.602	7.51
447.806	7.63
448.01	7.6
448.214	7.67
448.418	7.85
448.622	7.78
448.826	7.71
449.03	7.67
449.234	7.83
449.438	7.82
449.642	7.89
449.846	7.81
450.05	7.76
450.254	7.66
450.458	7.78
450.662	7.67
450.866	7.8
451.069	8.04
451.273	7.94
451.477	7.66
451.681	7.68
451.885	7.64
452.089	7.86
452.292	7.75
452.496	7.96
452.7	7.89
452.904	7.96
453.107	7.8
453.311	7.54
453.515	7.55
453.719	7.79
453.922	7.56
454.126	7.35
454.33	7.07
454.533	7.1
454.737	7.1
454.94	7.15
455.144	7.12
455.348	7.09
455.551	7.14
455.755	7.2
455.958	7.13
456.162	7.29
456.365	7.4
456.569	7.56
456.772	7.54
456.976	7.19
457.179	7.13
457.383	7.2
457.586	7.36
457.79	7.36
457.993	7.32
458.196	7.48
458.4	7.59
458.603	7.8
458.807	7.74
459.01	7.86
459.213	7.98
459.417	8.04
459.62	8.02
459.823	7.91
460.026	7.96
460.23	8.03
460.433	8.05
460.636	8.11
460.839	8.04
461.042	8.02
461.246	7.92
461.449	7.98
461.652	7.97
461.855	7.79
462.058	7.74
462.261	7.67
462.464	7.57
462.668	7.29
462.871	7.22
463.074	7.21
463.277	7.28
463.48	7.33
463.683	7.27
463.886	7.14
464.089	7.27
464.292	7.39
464.495	7.49
464.698	7.64
464.901	7.89
465.104	7.77
465.306	7.7
465.509	7.75
465.712	7.63
465.915	7.64
466.118	7.69
466.321	7.72
466.524	7.79
466.726	7.79
466.929	7.59
467.132	7.51
467.335	7.56
467.538	7.53
467.74	7.51
467.943	7.59
468.146	7.78
468.348	7.81
468.551	7.75
468.754	7.57
468.956	7.45
469.159	7.6
469.362	7.5
469.564	7.4
469.767	7.67
469.969	7.54
470.172	7.3
470.375	7.08
470.577	6.9
470.78	7.2
470.982	7.31
471.185	7.39
471.387	7.24
471.59	7.26
471.792	7.45
471.995	7.32
472.197	7.58
472.399	7.72
472.602	7.85
472.804	8.1
473.007	7.88
473.209	7.91
473.411	7.84
473.614	7.89
473.816	8
474.018	7.74
474.22	7.43
474.423	7.4
474.625	7.54
474.827	7.38
475.03	7.12
475.232	7.16
475.434	7.18
475.636	7.33
475.838	7.32
476.04	7.35
476.243	7.3
476.445	7.6
476.647	7.36
476.849	7.3
477.051	7.28
477.253	7.29
477.455	7.32
477.657	7.32
477.859	7.22
478.061	7.31
478.263	7.2
478.465	7.21
478.667	7.19
478.869	7.46
479.071	7.51
479.273	7.58
479.475	7.7
479.677	7.64
479.879	7.7
480.081	7.74
480.283	7.56
480.485	7.55
480.686	7.65
480.888	7.63
481.09	7.56
481.292	7.5
481.494	7.37
481.695	7.31
481.897	7.43
482.099	7.47
482.301	7.54
482.502	7.65
482.704	7.7
482.906	7.69
483.107	7.69
483.309	7.61
483.511	7.66
483.712	7.72
483.914	7.72
484.115	7.72
484.317	7.67
484.519	7.61
484.72	7.54
484.922	7.58
485.123	7.59
485.325	7.56
485.526	7.63
485.728	7.56
485.929	7.61
486.131	7.62
486.332	7.58
486.534	7.58
486.735	7.59
486.936	7.7
487.138	7.52
487.339	7.52
487.541	7.53
487.742	7.48
487.943	7.48
488.144	7.42
488.346	7.44
488.547	7.42
488.748	7.46
488.95	7.51
489.151	7.5
489.352	7.55
489.553	7.53
489.755	7.56
489.956	7.51
490.157	7.55
490.358	7.61
490.559	7.56
490.76	7.64
490.961	7.69
491.163	7.68
491.364	7.64
491.565	7.66
491.766	7.68
491.967	7.64
492.168	7.69
492.369	7.76
492.57	7.74
492.771	7.77
492.972	7.74
493.173	7.7
493.374	7.76
493.575	7.76
493.776	7.71
493.976	7.77
494.177	7.85
494.378	7.92
494.579	7.75
494.78	7.91
494.981	7.98
495.182	8.05
495.382	8.05
495.583	8.05
495.784	8.2
495.985	8.37
496.185	8.32
496.386	8.2
496.587	8.19
496.788	8.17
496.988	8
497.189	7.89
497.39	7.74
497.59	7.75
497.791	7.7
497.992	7.72
498.192	7.75
498.393	7.74
498.593	7.72
498.794	7.66
498.994	7.61
499.195	7.59
499.395	7.58
499.596	7.64
499.796	7.58
499.997	7.45
500.197	7.27
500.398	7.01
500.598	7.12
500.799	7.12
500.999	7.2
501.199	7.28
501.4	7.44
501.6	7.62
501.801	7.72
502.001	7.75
502.201	7.97
502.402	7.98
502.602	8.04
502.802	7.92
503.002	7.93
503.203	7.98
503.403	7.97
503.603	7.8
503.803	7.62
504.003	7.58
504.204	7.65
504.404	7.5
504.604	7.49
504.804	7.6
505.004	7.65
505.204	7.67
505.404	7.63
505.604	7.56
505.804	7.62
506.005	7.69
506.205	7.66
506.405	7.51
506.605	7.44
506.805	7.46
507.005	7.46
507.204	7.39
507.404	7.49
507.604	7.42
507.804	7.65
508.004	7.51
508.204	7.43
508.404	7.41
508.604	7.46
508.804	7.58
509.003	7.79
509.203	7.86
509.403	7.95
509.603	7.99
509.803	8.13
510.002	7.91
510.202	8.13
510.402	8.23
510.602	8.23
510.801	8.24
511.001	8.22
511.201	7.98
511.4	7.86
511.6	7.91
511.8	7.85
511.999	7.8
512.199	7.98
512.398	8
512.598	8.06
512.797	8.23
512.997	8.15
513.197	8.08
513.396	8.15
513.596	8.19
513.795	8.18
513.994	8.27
514.194	8.33
514.393	8.2
514.593	8.11
514.792	7.93
514.992	7.81
515.191	8.07
515.39	8.1
515.59	8.07
515.789	8.2
515.988	8.05
516.188	7.99
516.387	7.87
516.586	7.92
516.786	7.88
516.985	7.98
517.184	7.99
517.383	7.79
517.582	7.94
517.782	7.99
517.981	8.05
518.18	8.13
518.379	8.12
518.578	8.16
518.777	8.07
518.976	8.04
519.176	7.99
519.375	7.97
519.574	8.05
519.773	7.95
519.972	7.95
520.171	7.81
520.37	7.84
520.569	8.07
520.768	8.04
520.967	8.22
521.166	8.3
521.365	8.32
521.564	8.42
521.762	8.43
521.961	8.39
522.16	8.45
522.359	8.51
522.558	8.5
522.757	8.25
522.956	8.31
523.154	8.26
523.353	8.27
523.552	8.47
523.751	8.38
523.949	8.34
524.148	8.33
524.347	8.41
524.546	8.35
524.744	8.39
524.943	8.4
525.142	8.39
525.34	8.5
525.539	8.46
525.737	8.36
525.936	8.42
526.135	8.53
526.333	8.63
526.532	8.56
526.73	8.63
526.929	8.67
527.127	8.69
527.326	8.72
527.524	8.65
527.723	8.69
527.921	8.72
528.12	8.72
528.318	8.66
528.516	8.6
528.715	8.58
528.913	8.69
529.112	8.67
529.31	8.73
529.508	8.69
529.707	8.73
529.905	8.77
530.103	8.73
530.301	8.75
530.5	8.7
530.698	8.7
530.896	8.78
531.094	8.61
531.293	8.66
531.491	8.61
531.689	8.68
531.887	8.62
532.085	8.66
532.283	8.7
532.481	8.72
532.68	8.8
532.878	8.91
533.076	8.9
533.274	8.85
533.472	8.77
533.67	8.75
533.868	8.72
534.066	8.79
534.264	8.64
534.462	8.68
534.66	8.61
534.858	8.62
535.056	8.69
535.253	8.7
535.451	8.82
535.649	9
535.847	9.07
536.045	9.2
536.243	9.16
536.441	9.25
536.638	9.21
536.836	9.27
537.034	9.26
537.232	9.17
537.43	9.3
537.627	9.23
537.825	9.16
538.023	9.14
538.22	9.12
538.418	9.29
538.616	9.28
538.813	9.48
539.011	9.4
539.209	9.56
539.406	9.73
539.604	9.74
539.801	9.86
539.999	9.83
540.196	9.89
540.394	9.91
540.591	9.82
540.789	9.87
540.986	9.79
541.184	9.82
541.381	9.79
541.579	9.76
541.776	9.73
541.974	9.7
542.171	9.72
542.368	9.71
542.566	9.7
542.763	9.72
542.96	9.81
543.158	9.92
543.355	10.01
543.552	10.04
543.75	10.09
543.947	10.14
544.144	10.21
544.341	10.34
544.539	10.37
544.736	10.35
544.933	10.45
545.13	10.38
545.327	10.38
545.524	10.28
545.722	10.35
545.919	10.29
546.116	10.32
546.313	10.25
546.51	10.25
546.707	10.16
546.904	10.23
547.101	10.07
547.298	10.15
547.495	10.11
547.692	10.27
547.889	10.2
548.086	10.13
548.283	10.27
548.48	10.37
548.677	10.24
548.874	10.43
549.07	10.45
549.267	10.68
549.464	10.62
549.661	10.65
549.858	10.58
550.055	10.67
550.251	11.06
550.448	10.63
550.645	10.6
550.842	10.62
551.038	10.66
551.235	10.6
551.432	10.42
551.628	10.54
551.825	10.73
552.022	10.91
552.218	10.85
552.415	10.63
552.612	10.76
552.808	10.82
553.005	10.87
553.201	10.87
553.398	11.01
553.594	11.08
553.791	11.17
553.987	11
554.184	10.84
554.38	10.92
554.577	11.2
554.773	11.23
554.97	11.29
555.166	11.49
555.362	11.54
555.559	11.55
555.755	11.61
555.952	11.63
556.148	11.79
556.344	11.92
556.541	11.91
556.737	11.63
556.933	11.88
557.129	11.75
557.326	11.67
557.522	11.74
557.718	11.88
557.914	11.88
558.11	11.8
558.307	12.01
558.503	11.99
558.699	12.05
558.895	12.16
559.091	12.2
559.287	12.45
559.483	12.52
559.679	12.47
559.876	12.49
560.072	12.74
560.268	12.85
560.464	12.59
560.66	12.75
560.856	12.76
561.052	12.92
561.247	12.94
561.443	12.98
561.639	13.04
561.835	13.16
562.031	12.99
562.227	12.93
562.423	13.06
562.619	13.34
562.815	13.4
563.01	13.56
563.206	13.53
563.402	13.53
563.598	13.59
563.793	13.75
563.989	13.7
564.185	13.98
564.381	14.04
564.576	14.34
564.772	14.32
564.968	14.19
565.163	13.93
565.359	13.87
565.555	13.89
565.75	13.85
565.946	13.7
566.141	13.68
566.337	13.76
566.532	13.65
566.728	13.48
566.923	13.51
567.119	13.59
567.314	13.86
567.51	14.12
567.705	14.06
567.901	13.96
568.096	14.01
568.292	14.17
568.487	14
568.682	14.1
568.878	13.83
569.073	13.77
569.268	13.82
569.464	13.8
569.659	13.82
569.854	13.99
570.05	14.21
570.245	14.27
570.44	14.12
570.635	14.17
570.831	14.26
571.026	14.26
571.221	14.09
571.416	14.12
571.611	14.21
571.806	14.05
572.002	14.02
572.197	13.9
572.392	13.98
572.587	13.89
572.782	14.07
572.977	14.13
573.172	14.3
573.367	14.5
573.562	14.43
573.757	14.37
573.952	14.52
574.147	14.56
574.342	14.66
574.537	14.59
574.732	14.81
574.927	14.61
575.121	14.53
575.316	14.63
575.511	14.61
575.706	14.73
575.901	14.74
576.096	14.7
576.29	14.76
576.485	14.79
576.68	14.96
576.875	14.99
577.069	15.2
577.264	15.32
577.459	15.23
577.654	15.2
577.848	15.06
578.043	15.08
578.238	14.97
578.432	14.97
578.627	14.7
578.821	14.69
579.016	14.75
579.21	14.39
579.405	14.47
579.6	14.39
579.794	14.51
579.989	14.76
580.183	15.18
580.378	15.22
580.572	15.05
580.766	15.55
580.961	15.3
581.155	15.05
581.35	15.33
581.544	15.26
581.738	15.58
581.933	15.6
582.127	15.4
582.321	14.85
582.516	14.77
582.71	14.71
582.904	14.6
583.099	14.67
583.293	15.1
583.487	15.11
583.681	14.89
583.875	14.61
584.07	14.54
584.264	14.57
584.458	14.76
584.652	14.9
584.846	15.1
585.04	15.08
585.234	15.13
585.428	14.81
585.623	14.58
585.817	14.84
586.011	15.16
586.205	15.07
586.399	15.13
586.593	15.32
586.787	15.47
586.981	15.5
587.174	15.49
587.368	15.61
587.562	15.58
587.756	15.74
587.95	15.77
588.144	15.55
588.338	15.66
588.532	15.82
588.725	15.65
588.919	15.7
589.113	15.49
589.307	15.53
589.501	15.45
589.694	15.8
589.888	15.87
590.082	15.94
590.275	15.74
590.469	15.63
590.663	15.57
590.856	15.56
591.05	15.59
591.244	16.06
591.437	15.71
591.631	15.66
591.824	15.4
592.018	15.18
592.212	14.83
592.405	15.1
592.599	15.16
592.792	14.98
592.986	14.88
593.179	14.57
593.372	14.27
593.566	14.61
593.759	14.78
593.953	14.88
594.146	14.97
594.339	15.11
594.533	15.14
594.726	15.23
594.92	15.22
595.113	15.57
595.306	15.97
595.499	15.93
595.693	15.96
595.886	15.91
596.079	16.21
596.272	16.45
596.466	16.59
596.659	16.31
596.852	16.31
597.045	16.36
597.238	16.19
597.431	15.88
597.624	16.08
597.818	15.9
598.011	15.95
598.204	15.67
598.397	15.58
598.59	15.32
598.783	15.58
598.976	15.56
599.169	15.66
599.362	15.57
599.555	15.79
599.748	15.76
599.941	16.05
600.134	15.86
600.326	15.63
600.519	15.68
600.712	15.75
600.905	15.67
601.098	15.9
601.291	15.87
601.483	16.02
601.676	16.01
601.869	15.96
602.062	16.04
602.255	16.27
602.447	16.47
602.64	16.53
602.833	16.35
603.025	16.54
603.218	16.3
603.411	16.41
603.603	16.35
603.796	16.28
603.989	16.1
604.181	15.91
604.374	15.76
604.566	15.67
604.759	15.68
604.951	15.94
605.144	15.91
605.336	16.08
605.529	15.93
605.721	16.01
605.914	15.9
606.106	16.01
606.299	16
606.491	16.2
606.683	16.51
606.876	16.53
607.068	16.52
607.26	16.3
607.453	16.19
607.645	16.21
607.837	16.2
608.03	16.21
608.222	16.29
608.414	16.21
608.606	16.23
608.799	16.1
608.991	15.9
609.183	15.84
609.375	16
609.567	15.85
609.759	15.83
609.952	15.95
610.144	16.01
610.336	15.79
610.528	15.85
610.72	15.7
610.912	15.69
611.104	15.86
611.296	15.72
611.488	15.63
611.68	15.69
611.872	15.74
612.064	15.51
612.256	15.34
612.448	15.67
612.64	15.59
612.832	15.48
613.023	15.32
613.215	15.26
613.407	15.31
613.599	15.35
613.791	15.48
613.983	15.53
614.174	15.73
614.366	15.86
614.558	15.57
614.75	15.59
614.941	15.59
615.133	15.55
615.325	15.62
615.516	15.96
615.708	16
615.9	15.98
616.091	15.8
616.283	15.62
616.475	15.85
616.666	16
616.858	16.19
617.049	15.88
617.241	16.04
617.432	16.01
617.624	15.75
617.815	15.88
618.007	16.02
618.198	16.2
618.39	16.02
618.581	16.2
618.773	16.19
618.964	16.12
619.155	16.48
619.347	16.59
619.538	16.65
619.729	16.6
619.921	16.39
620.112	16.38
620.303	16.19
620.494	16.56
620.686	16.8
620.877	16.62
621.068	16.82
621.259	16.8
621.451	16.91
621.642	16.76
621.833	16.65
622.024	16.99
622.215	16.76
622.406	16.73
622.597	16.31
622.788	15.8
622.98	16.03
623.171	15.96
623.362	16.04
623.553	15.87
623.744	16.01
623.935	16.18
624.126	15.34
624.317	15.32
624.508	15.41
624.698	15.7
624.889	15.71
625.08	15.79
625.271	15.68
625.462	15.85
625.653	15.88
625.844	15.78
626.034	15.85
626.225	16.56
626.416	16.74
626.607	17.02
626.798	16.93
626.988	16.83
627.179	16.97
627.37	17.19
627.56	17.09
627.751	16.94
627.942	16.85
628.132	16.69
628.323	16.6
628.514	16.6
628.704	16.44
628.895	16.7
629.085	16.87
629.276	16.74
629.466	16.61
629.657	16.62
629.847	16.83
630.038	17.06
630.228	17.42
630.419	17.54
630.609	17.44
630.8	17.34
630.99	17.19
631.181	16.91
631.371	16.91
631.561	16.74
631.752	16.53
631.942	16.58
632.132	16.34
632.323	16.29
632.513	16.21
632.703	16.45
632.893	16.6
633.084	16.57
633.274	16.8
633.464	16.81
633.654	17.02
633.844	16.91
634.034	17.09
634.225	17.22
634.415	17.09
634.605	16.88
634.795	16.79
634.985	17.13
635.175	17.28
635.365	17.64
635.555	17.85
635.745	17.95
635.935	18.14
636.125	17.87
636.315	18.16
636.505	18.31
636.695	18.19
636.885	18.1
637.075	17.74
637.265	17.74
637.455	17.74
637.644	17.4
637.834	17.22
638.024	17.54
638.214	17.55
638.404	17.15
638.593	17.14
638.783	17.25
638.973	17.16
639.163	16.9
639.352	16.89
639.542	16.51
639.732	16.93
639.921	17.05
640.111	16.93
640.301	16.98
640.49	17.41
640.68	17.51
640.87	17.55
641.059	17.89
641.249	18.16
641.438	18.29
641.628	18.45
641.817	17.98
642.007	17.74
642.196	17.97
642.386	17.99
642.575	17.96
642.764	18.06
642.954	18.35
643.143	18.46
643.333	18.59
643.522	18.13
643.711	18.17
643.901	18.39
644.09	18.8
644.279	18.35
644.469	18.35
644.658	18.46
644.847	17.82
645.036	17.59
645.226	17.31
645.415	17.03
645.604	17.16
645.793	16.79
645.982	16.73
646.171	16.59
646.361	17.26
646.55	17.46
646.739	17.44
646.928	17.71
647.117	17.97
647.306	17.67
647.495	17.75
647.684	17.58
647.873	17.45
648.062	17.23
648.251	17.2
648.44	17.08
648.629	16.77
648.818	16.72
649.007	17
649.196	16.93
649.384	17.27
649.573	17.34
649.762	17.47
649.951	17.92
650.14	17.95
650.328	17.98
650.517	17.91
650.706	17.92
650.895	17.78
651.083	17.8
651.272	17.48
651.461	17.54
651.65	17.68
651.838	17.33
652.027	17.72
652.216	17.68
652.404	17.44
652.593	17.3
652.781	17.04
652.97	16.95
653.158	16.62
653.347	16.64
653.535	16.18
653.724	16.13
653.912	16.83
654.101	16.27
654.289	16.35
654.478	16.49
654.666	16.39
654.855	16.87
655.043	16.44
655.231	16.51
655.42	16.88
655.608	17.48
655.796	17.37
655.985	17.36
656.173	17.14
656.361	17.62
656.55	17.75
656.738	17.46
656.926	17.54
657.114	17.35
657.302	17.52
657.491	17.73
657.679	17.1
657.867	16.97
658.055	16.46
658.243	16.56
658.431	16.15
658.619	16.37
658.807	16.52
658.996	16.3
659.184	16.96
659.372	16.84
659.56	16.6
659.748	17.05
659.936	17.35
660.124	17.87
660.311	18.09
660.499	18.28
660.687	17.88
660.875	18.03
661.063	18.05
661.251	18.1
661.439	18.35
661.627	18.78
661.814	18.62
662.002	18.53
662.19	18.03
662.378	18.15
662.565	17.98
662.753	18.46
662.941	18.29
663.129	18.3
663.316	18.25
663.504	18.12
663.692	17.94
663.879	18.14
664.067	17.88
664.254	18.17
664.442	17.9
664.63	18.03
664.817	17.56
665.005	17.88
665.192	17.89
665.38	17.82
665.567	17.53
665.755	17.42
665.942	17.13
666.13	17.18
666.317	16.88
666.504	16.92
666.692	17
666.879	17.05
667.067	16.99
667.254	17.24
667.441	17.07
667.629	17.44
667.816	16.96
668.003	17.36
668.19	17.98
668.378	18.25
668.565	18.3
668.752	18.18
668.939	18.4
669.127	17.98
669.314	17.54
669.501	17.35
669.688	17.52
669.875	17.87
670.062	17.44
670.249	17.16
670.436	17.17
670.623	17.53
670.81	17.71
670.997	17.56
671.184	18.12
671.371	18.79
671.558	19.31
671.745	19.04
671.932	19.33
672.119	19.91
672.306	20.06
672.493	20.37
672.68	20.24
672.867	19.95
673.054	20.17
673.24	19.87
673.427	19.32
673.614	18.94
673.801	18.68
673.988	18.11
674.174	17.71
674.361	17.51
674.548	17.64
674.734	17.46
674.921	17.7
675.108	17.23
675.294	17.13
675.481	17.52
675.668	17.47
675.854	17.61
676.041	17.71
676.227	17.8
676.414	17.83
676.601	17.24
676.787	16.98
676.974	16.73
677.16	17.02
677.347	17.24
677.533	17
677.719	17.25
677.906	17.64
678.092	17.62
678.279	17.7
678.465	17.44
678.651	17.43
678.838	17.51
679.024	17.74
679.21	17.83
679.397	18.01
679.583	18.44
679.769	18.68
679.955	18.15
680.142	18.32
680.328	18.36
680.514	18.46
680.7	18.42
680.886	18.85
681.073	18.61
681.259	18.6
681.445	18.01
681.631	17.3
681.817	17.03
682.003	17.26
682.189	17.21
682.375	17.31
682.561	17.5
682.747	17.5
682.933	17.6
683.119	17.65
683.305	17.44
683.491	17.62
683.677	18.03
683.863	17.84
684.049	17.54
684.235	17.38
684.42	16.79
684.606	16.4
684.792	16.56
684.978	15.76
685.164	15.83
685.349	16.07
685.535	16.93
685.721	16.79
685.907	16.3
686.092	16.43
686.278	16.3
686.464	17.2
686.649	17.37
686.835	17.7
687.021	18.29
687.206	18.49
687.392	18.55
687.577	17.92
687.763	18.12
687.948	18.59
688.134	18.95
688.319	19.07
688.505	18.51
688.69	18.31
688.876	18.31
689.061	18.09
689.247	17.95
689.432	17.77
689.618	18.47
689.803	18.14
689.988	18.42
690.174	18.15
690.359	18.24
690.544	18.74
690.73	18.94
690.915	18.8
691.1	18.59
691.285	18.91
691.471	18.99
691.656	18.02
691.841	18.45
692.026	18.42
692.211	18.55
692.396	18.28
692.582	17.56
692.767	17.36
692.952	17.15
693.137	17.01
693.322	17.16
693.507	17.43
693.692	17.98
693.877	17.67
694.062	17.3
694.247	16.72
694.432	17.24
694.617	17.71
694.802	17.56
694.987	17.83
695.172	18.34
695.357	18.38
695.541	18.61
695.726	18.43
695.911	18.7
696.096	18.96
696.281	19.92
696.466	19.76
696.65	19.38
696.835	19.4
697.02	19.44
697.204	19.08
697.389	18.98
697.574	18.69
697.759	18.95
697.943	19.21
698.128	19.26
698.312	19.01
698.497	19.43
698.682	19.71
698.866	19.75
699.051	19.7
699.235	19.73
699.42	19.66
699.604	19.86
699.789	19.91
699.973	19.7
700.158	19.6
700.342	19.59
700.527	19.34
700.711	19.25
700.895	19.94
701.08	20.02
701.264	20.15
701.448	19.95
701.633	19.06
701.817	18.33
702.001	18.25
702.186	18.9
702.37	18.62
702.554	18.33
702.738	17.88
702.923	16.62
703.107	17.02
703.291	17.47
703.475	17.09
703.659	17.44
703.843	17.84
704.027	18.18
704.212	17.74
704.396	18.49
704.58	18.37
704.764	18.87
704.948	19.77
705.132	18.55
705.316	18.66
705.5	19.46
705.684	20.31
705.868	20.45
706.052	20.17
706.235	20.06
706.419	19.11
706.603	18.84
706.787	18.87
706.971	19.24
707.155	19.5
707.339	19.33
707.522	19.65
707.706	19.11
707.89	19.78
708.074	20.09
708.257	19.87
708.441	20.09
708.625	20.83
708.808	20.69
708.992	20.99
709.176	21.13
709.359	20.91
709.543	19.68
709.727	20.19
709.91	19.55
710.094	19.28
710.277	19.42
710.461	19.66
710.644	19.25
710.828	19.57
711.011	19.18
711.195	19.42
711.378	19.41
711.562	20.03
711.745	19.52
711.928	19.43
712.112	19.45
712.295	19.59
712.478	19.66
712.662	19.67
712.845	19.52
713.028	19.62
713.212	20.06
713.395	20.41
713.578	20.92
713.761	20.97
713.945	20.98
714.128	20.58
714.311	20.99
714.494	20.91
714.677	20.89
714.86	21.09
715.043	20.84
715.227	20.57
715.41	20.14
715.593	19.62
715.776	19.41
715.959	19.78
716.142	20.25
716.325	19.71
716.508	20.3
716.691	20.33
716.874	20.15
717.057	20.31
717.239	19.55
717.422	19.13
717.605	19.22
717.788	20.02
717.971	19.64
718.154	19.15
718.337	18.41
718.519	17.8
718.702	18.15
718.885	17.47
719.068	16.81
719.25	17.22
719.433	17.64
719.616	17.65
719.798	17.02
719.981	16.77
720.164	17.07
720.346	17.78
720.529	18.48
720.712	18.07
720.894	19.02
721.077	18.76
721.259	19.28
721.442	18.95
721.624	19.13
721.807	20.5
721.989	20.65
722.172	20.69
722.354	21.36
722.537	19.89
722.719	19.26
722.901	19.04
723.084	20.51
723.266	20.09
723.448	20.6
723.631	20.26
723.813	19.1
723.995	19.4
724.178	18.92
724.36	18.06
724.542	19.29
724.724	19.85
724.907	19.27
725.089	17.65
725.271	18.34
725.453	18.27
725.635	17.89
725.817	17.6
725.999	17.86
726.181	18.12
726.364	18.3
726.546	18.57
726.728	19.31
726.91	20.22
727.092	21.25
727.274	22.05
727.456	22.57
727.638	22.71
727.819	23.09
728.001	22.57
728.183	22.16
728.365	22.93
728.547	22.65
728.729	22.51
728.911	22.68
729.093	22.33
729.274	21.3
729.456	20.57
729.638	20.61
729.82	20.13
730.001	19.82
730.183	20.28
730.365	19.74
730.546	19.48
730.728	18.93
730.91	18.18
731.091	18.16
731.273	18
731.455	17.03
731.636	16.86
731.818	17
731.999	17.4
732.181	17.27
732.362	17.04
732.544	16.77
732.725	17.4
732.907	16.61
733.088	16.36
733.27	16.23
733.451	17.76
733.633	18.93
733.814	19.27
733.995	19.66
734.177	19.38
734.358	18.68
734.539	19.09
734.721	18.15
734.902	18.75
735.083	18.43
735.264	18.58
735.446	18.07
735.627	16.95
735.808	16.2
735.989	16.59
736.17	16.9
736.351	17.31
736.533	18.06
736.714	19.1
736.895	18.48
737.076	19.38
737.257	19.95
737.438	20.57
737.619	20.13
737.8	20.85
737.981	19.61
738.162	18.79
738.343	21.31
738.524	19.96
738.705	19.77
738.886	20.84
739.067	20.32
739.247	19.99
739.428	19.56
739.609	20.32
739.79	19.99
739.971	20.91
740.151	22.54
740.332	20.25
740.513	20.94
740.694	21.19
740.874	21.25
741.055	21.53
741.236	20.51
741.417	20.06
741.597	20.45
741.778	20.29
741.958	20.13
742.139	19.85
742.32	20.48
742.5	20.25
742.681	19.28
742.861	18.58
743.042	18.42
743.222	19.51
743.403	20.02
743.583	19.62
743.764	19.55
743.944	19.1
744.124	18.9
744.305	18.08
744.485	17.38
744.666	17.33
744.846	18.95
745.026	18.14
745.207	17.44
745.387	18.25
745.567	17.24
745.747	17.71
745.928	19.35
746.108	20.48
746.288	20.15
746.468	21.08
746.648	20.89
746.829	18.85
747.009	20.12
747.189	20.08
747.369	19.39
747.549	19.99
747.729	20.37
747.909	19.97
748.089	17.81
748.269	19.14
748.449	19.13
748.629	19.33
748.809	19.63
748.989	19.31
749.169	19.27
749.349	19.45
749.529	19.83
749.709	19.43
749.889	18.46
750.068	19.56
750.248	20.21
750.428	20.76
750.608	22.11
750.788	22.26
750.967	21.34
751.147	22.01
751.327	22.24
751.507	21.52
751.686	21.55
751.866	22.17
752.046	22.29
752.225	20.05
752.405	19.37
752.585	18.39
752.764	18.04
752.944	18.8
753.123	18.9
753.303	17.7
753.482	17.64
753.662	17.31
753.841	17.19
754.021	17.26
754.2	18
754.38	16.97
754.559	16.6
754.739	17.88
754.918	18.8
755.097	18.04
755.277	18.93
755.456	19.26
755.635	19.61
755.815	19.76
755.994	19.47
756.173	19.18
756.352	19.9
756.532	19.53
756.711	19.89
756.89	19.81
757.069	19.42
757.248	19.56
757.427	18.98
757.607	19.88
757.786	19.1
757.965	20.2
758.144	20.79
758.323	20.48
758.502	21.59
758.681	20.22
758.86	19.96
759.039	22.12
759.218	22.09
759.397	22.78
759.576	22.42
759.755	22.4
759.934	22.6
760.113	22.47
760.291	23.18
760.47	23.17
760.649	23.92
760.828	22.96
761.007	21.64
761.186	21.22
761.364	22.77
761.543	22.61
761.722	21.93
761.901	20.72
762.079	20.97
762.258	21.29
762.437	21.6
762.615	21.43
762.794	21.3
762.972	21.22
763.151	21.81
763.33	20.18
763.508	20.35
763.687	21.61
763.865	22.24
764.044	22.07
764.222	21.63
764.401	20.44
764.579	20.07
764.758	20.43
764.936	21.08
765.114	20.55
765.293	22.43
765.471	21.26
765.65	20.67
765.828	19.47
766.006	19.35
766.184	19.47
766.363	20.06
766.541	20.81
766.719	20.04
766.898	19.67
767.076	19.58
767.254	16.75
767.432	17.86
767.61	18.36
767.788	20.82
767.967	20.84
768.145	21.28
768.323	21.97
768.501	20.31
768.679	20.35
768.857	19.75
769.035	19.39
769.213	21.48
769.391	20.42
769.569	19.48
769.747	17.7
769.925	17.49
770.103	17.24
770.281	16.43
770.459	17.72
770.636	19.5
770.814	20.18
770.992	19.93
771.17	19.62
771.348	20.43
771.525	18.96
771.703	19.28
771.881	19.57
772.059	18.31
772.236	19.25
772.414	20.26
772.592	19.89
772.769	17.58
772.947	18.99
773.125	19.55
773.302	18.03
773.48	19.53
773.657	18.65
773.835	18.02
774.013	20.18
774.19	19.86
774.368	18.66
774.545	17.33
774.723	18.4
774.9	18.83
775.077	16.7
775.255	15.18
775.432	15.65
775.61	16.1
775.787	14.68
775.964	12.15
776.142	12.15
776.319	11.83
776.496	12.43
776.674	11.34
776.851	11.47
777.028	13.92
777.205	17.27
777.382	16.01
777.56	14.87
777.737	17.09
777.914	18.05
778.091	17.31
778.268	18.58
778.445	19.49
778.622	19.87
778.8	19.2
778.977	17.97
779.154	19.66
779.331	21.55
779.508	20.83
779.685	20.3
779.862	21.06
780.038	20.66
780.215	20.71
780.392	19.2
780.569	20.31
780.746	17.99
780.923	18.66
781.1	15.8
781.277	13.48
781.453	16.08
781.63	16.5
781.807	17.76
781.984	17.85
782.16	19.3
782.337	19.99
782.514	20.96
782.691	21.18
782.867	20.34
783.044	23.34
783.221	22.9
783.397	21.72
783.574	21.68
783.75	21.02
783.927	21.9
784.103	20.58
784.28	20.82
784.456	21.67
784.633	22.75
784.809	22.18
784.986	19.04
785.162	20.67
785.339	21.89
785.515	21.59
785.692	19.78
785.868	20.48
786.044	21.35
786.221	20.88
786.397	17.75
786.573	18.5
786.749	18.99
786.926	20.13
787.102	21.64
787.278	17.84
787.454	16.59
787.631	18.41
787.807	17.04
787.983	13.59
788.159	16
788.335	17.82
788.511	17.33
788.687	17.03
788.863	16.92
789.039	15.93
789.216	16.32
789.392	16.98
789.568	15.8
789.744	17.58
789.919	20.16
790.095	20.23
790.271	21.43
790.447	22.34
790.623	22.38
790.799	22.56
790.975	19.06
791.151	19.17
791.327	19.24
791.502	18.92
791.678	16.28
791.854	17.69
792.03	18.68
792.205	15.93
792.381	15.65
792.557	15.71
792.733	16.36
792.908	19.52
793.084	22.2
793.259	25.9
793.435	24.32
793.611	22.28
793.786	22.69
793.962	19.21
794.137	19.25
794.313	16.39
794.488	15.85
794.664	15.67
794.839	15.1
795.015	13.4
795.19	12.26
795.366	15.41
795.541	18.38
795.716	16.36
795.892	16.54
796.067	18.96
796.242	21.47
796.418	22.06
796.593	23.88
796.768	24.04
796.944	25.02
797.119	24.66
797.294	22
797.469	22.18
797.644	22.75
797.82	22.96
797.995	20.54
798.17	22.07
798.345	22.22
798.52	18.94
798.695	17.78
798.87	17.92
799.045	19.31
799.22	23.12
799.395	22.29
799.57	19.97
799.745	19.76
799.92	18.77
800.095	19.52
800.27	17.33
800.445	18.61
800.62	22.86
800.795	22.8
800.97	19.69
801.145	16.08
801.319	17.79
801.494	19.14
801.669	21.24
801.844	22.37
802.018	22.64
802.193	27.13
802.368	24.59
802.543	23.57
802.717	26.18
802.892	27.13
803.067	31.02
803.241	29
803.416	31.28
803.59	27.17
803.765	30.77
803.94	24.8
804.114	22.11
804.289	27.53
804.463	27.94
804.638	21.9
804.812	20.11
804.986	17.26
805.161	19.55
805.335	16.29
805.51	19.45
805.684	14.72
805.858	18.82
806.033	21.2
806.207	17.71
806.381	16.77
806.556	16.73
806.73	15.44
806.904	13.1
807.078	11.96
807.253	12.47
807.427	11.36
807.601	11.35
807.775	9.56
807.949	7.59
808.123	8.52
808.298	8.03
808.472	10.11
808.646	16.28
808.82	18.04
808.994	19.63
809.168	23.37
809.342	27.85
809.516	30.55
809.69	31.43
809.864	32.08
810.038	31.37
810.212	30.26
810.385	28.64
810.559	29.18
810.733	33.05
810.907	28.94
811.081	25.2
811.255	24.54
811.428	22.63
811.602	24.15
811.776	23.18
811.95	24.06
812.123	24.14
812.297	21.67
812.471	18.95
812.644	11.74
812.818	14.07
812.992	11.53
813.165	13.73
813.339	15.48
813.512	11.41
813.686	14.87
813.86	13.63
814.033	11.93
814.207	17.8
814.38	19.17
814.554	23.13
814.727	22.11
814.9	25.65
815.074	19.13
815.247	17.54
815.421	20.46
815.594	19.47
815.767	18.09
815.941	22.93
816.114	22.53
816.287	21.44
816.46	21.95
816.634	22.19
816.807	20.02
816.98	26.98
817.153	30.29
817.327	31.02
817.5	31.24
817.673	30.28
817.846	25.38
818.019	29.03
818.192	29.4
818.365	28.28
818.538	29.39
818.711	31.6
818.884	28.81
819.057	26.68
819.23	21.66
819.403	19.15
819.576	22.11
819.749	22.14
819.922	20.14
820.095	20.37
820.268	20.24
820.441	22.18
820.614	22.32
820.786	18.37
820.959	19.73
821.132	19.73
821.305	21.32
821.477	21.82
821.65	22.33
821.823	23.21
821.996	23.12
822.168	23.09
822.341	22.22
822.514	22.55
822.686	23.95
822.859	23.47
823.031	24.49
823.204	24.13
823.376	24.32
823.549	24.62
823.722	23.77
823.894	24.12
824.067	23.82
824.239	23.95
824.411	23.02
824.584	23.83
824.756	23.77
824.929	23.86
825.101	24.14
825.273	23.77
825.446	22.85
825.618	21.59
825.79	20.42
825.963	20.68
826.135	20
826.307	21.18
826.479	19.29
826.652	18.65
826.824	19.54
826.996	19.4
827.168	17.93
827.34	18.05
827.512	20.67
827.684	21.71
827.856	22.51
828.029	23.64
828.201	22.93
828.373	23.88
828.545	24.32
828.717	23.55
828.889	24.34
829.061	24.48
829.232	24.95
829.404	24.34
829.576	20.38
829.748	16.92
829.92	16.7
830.092	13.66
830.264	9.61
830.436	8.33
830.607	6.71
830.779	7.15
830.951	10.95
831.123	11.81
831.294	7.5
831.466	13.52
831.638	18.08
831.809	18.32
831.981	22.23
832.153	24.28
832.324	22.62
832.496	18.91
832.667	16.39
832.839	13.72
833.011	13.28
833.182	15.94
833.354	14.72
833.525	18.4
833.697	17.19
833.868	15.04
834.039	15.09
834.211	17.47
834.382	20.82
834.554	20.35
834.725	21.18
834.896	22
835.068	22.99
835.239	24.71
835.41	21.19
835.581	21.1
835.753	24.23
835.924	25.16
836.095	26.56
836.266	25.31
836.438	27.67
836.609	27.03
836.78	28.62
836.951	26.83
837.122	26.46
837.293	28.46
837.464	32.39
837.635	31.26
837.806	31.35
837.977	29.86
838.148	29.4
838.319	26.66
838.49	26.97
838.661	23.14
838.832	24.18
839.003	23.56
839.174	22.09
839.345	18.05
839.516	11.8
839.687	13.28
839.857	15.75
840.028	20.05
840.199	24.12
840.37	21.51
840.54	28.32
840.711	28.26
840.882	32.66
841.053	35.62
841.223	28.01
841.394	33.52
841.564	33
841.735	35.92
841.906	34.87
842.076	28.93
842.247	27.14
842.417	21.33
842.588	23.64
842.758	18.32
842.929	11.42
843.099	16.92
843.27	12.42
843.44	15.28
843.611	6.01
843.781	0.85
843.951	-6.75
844.122	-7.48
844.292	-4.43
844.462	-16.32
844.633	-30.17
844.803	-23.42
844.973	-23.91
845.144	-16.14
845.314	-19
845.484	-15.79
845.654	-18.38
845.824	-12.04
845.995	-18.94
846.165	-27.45
846.335	-29.14
846.505	-29.24
846.675	-38.83
846.845	-34.33
847.015	-38.7
847.185	-65.87
847.355	-81.36
847.525	-44.88
847.695	-41.61
847.865	-36.53
848.035	-40.5
848.205	-37.62
848.375	-39.83
848.545	-41.45
848.715	-15.14
848.884	2.24
849.054	3.75
849.224	5.85
849.394	-3.45
849.564	7.23
849.733	10.8
849.903	30.83
850.073	37.19
850.243	49.87
850.412	40.86
850.582	40.23
850.752	26.95
850.921	45.5
851.091	52.73
851.26	54.46
851.43	37.83
851.599	32.32
851.769	3.41
851.939	19.09
852.108	24.75
852.278	31.5
852.447	24.8
852.616	27.62
852.786	19.27
852.955	-3.51
853.125	-20.9
853.294	0.55
853.463	-27.73
853.633	14.82
853.802	2.24
853.971	-14.66
854.141	-0.13
854.31	27.27
854.479	20.34
854.648	22.14
854.818	28.81
854.987	26.86
855.156	30.58
855.325	40.44
855.494	45.96
855.663	44.41
855.832	38.14
856.001	40.92
856.171	10.96
856.34	1.56
856.509	-12.76
856.678	-15.7
856.847	-17.31
857.016	-36.88
857.185	-29.31
857.353	-27.8
857.522	-39.39
857.691	-27.96
857.86	-41.77
858.029	-55.39
858.198	-44.01
858.367	-61.58
858.535	-71.87
858.704	-43.67
858.873	-29.72
859.042	-16.07
859.21	-18.3
859.379	8.03
859.548	-0.02
859.717	-10.93
859.885	-19.58
860.054	-17.32
860.222	-12.14
860.391	5.04
860.56	-8.99
860.728	4.54
860.897	-5.72
861.065	-10.26
861.234	-23.58
861.402	3.98
861.571	19.41
861.739	36.31
861.908	58.07
862.076	52.53
862.244	38.54
862.413	52.44
862.581	42.22
862.749	17.92
862.918	30.38
863.086	22.04
863.254	-10.56
863.423	8.19
863.591	5.45
863.759	-59.44
863.927	-71.05
864.096	-77.57
864.264	-72.28
864.432	-32.63
864.6	-4.74
864.768	-4.97
864.936	-12.87
865.104	23.03
865.272	17.52
865.44	23.75
865.608	21.5
865.776	43
865.944	42.94
866.112	52.9
866.28	53.32
866.448	48.57
866.616	55.79
866.784	65.53
866.952	75.87
867.12	63.97
867.288	35.02
867.455	54.49
867.623	51.82
867.791	82.09
867.959	78.51
868.127	80.1
868.294	78.68
868.462	74.59
868.63	71.68
868.797	37.92
868.965	49.79
869.133	44.54
869.3	45.46
869.468	32.67
869.636	27
869.803	5.73
869.971	-8.45
870.138	2.86
870.306	-37.16
870.473	-58.66
870.641	-26.84
870.808	-33.7
870.975	-13.54
871.143	-28.07
871.31	-37.82
871.478	-39.91
871.645	-19.02
871.812	-1.21
871.98	10.76
872.147	24.1
872.314	37.06
872.482	36.54
872.649	35.03
872.816	25.28
872.983	16.07
873.15	24.13
873.318	47.09
873.485	44.14
873.652	35.15
873.819	21.48
873.986	17.49
874.153	-2.19
874.32	-16.47
874.487	-4.23
874.654	-7.1
874.821	20.96
874.988	17.28
875.155	0.28
875.322	18.23
875.489	14.6
875.656	29.71
875.823	30.15
875.99	23.88
876.157	23.64
876.324	21.22
876.49	41.26
876.657	30.27
876.824	37.41
876.991	23.12
877.157	13.72
877.324	23.21
877.491	-3.48
877.658	29.21
877.824	48.19
877.991	50.63
878.157	43.99
878.324	33.79
878.491	34.11
878.657	31.49
878.824	23.38
878.99	17.33
879.157	11.13
879.323	17.42
879.49	8
879.656	-4.03
879.823	-3.07
879.989	5.89
880.156	-1.25
880.322	-17.67
880.488	-23.88
880.655	-7.8
880.821	-17.84
880.987	1.11
881.154	-7.5
881.32	-8.43
881.486	-1.02
881.652	6.32
881.819	6.97
881.985	13.01
882.151	20.67
882.317	23.07
882.483	22.05
882.649	21.98
882.816	18.15
882.982	21.34
883.148	22.33
883.314	21.45
883.48	24.63
883.646	26.02
883.812	27.79
883.978	29.42
884.144	28.53
884.31	28.97
884.476	27.4
884.642	30.26
884.807	29.05
884.973	26
885.139	25.59
885.305	26.04
885.471	28.59
885.637	25.28
885.802	24.83
885.968	25.12
886.134	25.61
886.3	26.54
886.465	20.99
886.631	19.53
886.797	17.15
886.962	19.92
887.128	14.84
887.293	4.67
887.459	16.43
887.625	5.85
887.79	6.19
887.956	4.5
888.121	5.39
888.287	10.02
888.452	17.03
888.618	31.39
888.783	35.05
