Data from 2938117_Reflection_2.txt Node
Date: Sat Jul 11 18:05:04 EDT 2015
User: robert
Spectrometer: USB4E03001
Autoset integration time: false
Trigger mode: 4
Integration Time (sec): 1.000000E-1
Scans to average: 10
Electric dark correction enabled: true
Nonlinearity correction enabled: false
Boxcar width: 5
Stray light correction enabled: false
XAxis mode: Wavelengths
Stop averaging: false
Number of Pixels in Spectrum: 3648
>>>>>Begin Spectral Data<<<<<
177.566	838.89
177.785	-34.37
178.005	-48.3
178.225	11.06
178.445	6.8
178.665	76.08
178.885	111.39
179.105	92.52
179.324	68.24
179.544	8.13
179.764	53.83
179.984	75.74
180.204	69.99
180.423	122.64
180.643	385.87
180.863	-682.53
181.083	252.88
181.302	274.5
181.522	209.98
181.742	252.48
181.961	283.52
182.181	222.27
182.401	320.33
182.621	1125.29
182.84	737.64
183.06	219.65
183.279	133.27
183.499	126.93
183.719	100.33
183.938	80.37
184.158	64.67
184.377	87.67
184.597	118.9
184.816	99.99
185.036	82.46
185.256	75.85
185.475	93.66
185.695	93.48
185.914	95.75
186.134	91.6
186.353	96.07
186.572	84.61
186.792	78.07
187.011	105.29
187.231	122.6
187.45	118.87
187.67	128.98
187.889	129.46
188.108	157.82
188.328	155.02
188.547	162.85
188.766	164.31
188.986	210.42
189.205	242.98
189.424	234.11
189.644	287.27
189.863	411.84
190.082	1640.89
190.302	481.59
190.521	432.18
190.74	424.81
190.959	-2148.26
191.178	-905.7
191.398	780.91
191.617	279.57
191.836	303.4
192.055	493.48
192.274	386.7
192.494	329.4
192.713	1278.09
192.932	1035.55
193.151	-12362.89
193.37	-3160.23
193.589	-816.01
193.808	-3866.49
194.027	-2556.65
194.246	1184.98
194.465	18893.22
194.685	1947.77
194.904	-3804.3
195.123	808.51
195.342	-846.51
195.561	524.16
195.78	168.35
195.999	162.48
196.218	251.91
196.436	224.07
196.655	144.46
196.874	150.17
197.093	148.3
197.312	125.5
197.531	136.08
197.75	124.79
197.969	112.51
198.188	138.58
198.407	138.28
198.625	161.44
198.844	192.27
199.063	227.69
199.282	273.31
199.501	321.23
199.719	457.57
199.938	357.26
200.157	649.45
200.376	-4927.21
200.594	367.03
200.813	209.01
201.032	158.76
201.251	137.89
201.469	116.78
201.688	113.19
201.907	117.83
202.125	90.1
202.344	95.37
202.563	121.56
202.781	154.16
203	147.76
203.218	128.5
203.437	159.22
203.656	141.37
203.874	125.01
204.093	87.5
204.311	77.08
204.53	109.27
204.748	95.55
204.967	86.24
205.185	70.62
205.404	67.06
205.622	56.1
205.841	39.11
206.059	54.67
206.278	71.34
206.496	82.14
206.715	86.6
206.933	56.79
207.151	122.33
207.37	117.22
207.588	141.7
207.806	138.01
208.025	295.98
208.243	400.29
208.461	362.32
208.68	-105.28
208.898	204.28
209.116	153.6
209.335	139.59
209.553	207.32
209.771	173.73
209.989	563.32
210.208	-1148.52
210.426	-341.61
210.644	-215.04
210.862	135.02
211.081	187.78
211.299	244.87
211.517	467.32
211.735	498.59
211.953	193.91
212.171	229.2
212.39	206.38
212.608	162.98
212.826	165.3
213.044	170.03
213.262	187.68
213.48	146.91
213.698	148.65
213.916	136.51
214.134	121.07
214.352	107.8
214.57	100.36
214.788	99.68
215.006	97.45
215.224	77.33
215.442	65.88
215.66	67.95
215.878	90.95
216.096	106.07
216.314	103.51
216.532	122.69
216.75	156.47
216.968	186
217.185	183.93
217.403	224.36
217.621	324.74
217.839	330.18
218.057	211.24
218.275	221.51
218.492	241.84
218.71	219.36
218.928	266.85
219.146	381.11
219.363	301.39
219.581	513.58
219.799	-761.21
220.017	-8154.64
220.234	-336.5
220.452	-114.89
220.67	-344.11
220.887	538.56
221.105	683.48
221.323	241.11
221.54	156.92
221.758	144.77
221.976	131.71
222.193	118.29
222.411	104.6
222.629	100.81
222.846	112.69
223.064	118.77
223.281	112.7
223.499	107.75
223.716	114.74
223.934	111.24
224.151	104.97
224.369	111.54
224.586	115.08
224.804	116.85
225.021	98.71
225.239	82.74
225.456	73.56
225.674	72.71
225.891	85.49
226.108	70.51
226.326	69.1
226.543	66.29
226.76	57.31
226.978	52.9
227.195	47.68
227.413	60.88
227.63	58.82
227.847	59.26
228.064	48.92
228.282	41.36
228.499	45.45
228.716	43.04
228.934	42.18
229.151	43.34
229.368	41.05
229.585	41.6
229.802	39.67
230.02	37.56
230.237	34.55
230.454	37.14
230.671	33.02
230.888	28.88
231.105	30.22
231.323	33.09
231.54	32.45
231.757	37.94
231.974	40.67
232.191	43.15
232.408	45.54
232.625	50.74
232.842	48.25
233.059	55.58
233.276	51.13
233.493	53.93
233.71	50.06
233.927	46.84
234.144	46.35
234.361	43.93
234.578	42.83
234.795	40.65
235.012	32.65
235.229	29.87
235.446	30.44
235.663	32.66
235.879	33.33
236.096	32.5
236.313	31.05
236.53	25.19
236.747	27.68
236.964	26.88
237.181	27.81
237.397	35.78
237.614	46.84
237.831	36.02
238.048	46.62
238.264	39.22
238.481	36.47
238.698	40.53
238.915	40.27
239.131	39.15
239.348	33.7
239.565	36.1
239.781	36.69
239.998	34.74
240.215	42.95
240.431	39.26
240.648	39.24
240.865	39.72
241.081	37.66
241.298	37.59
241.514	34.92
241.731	35.65
241.947	34.53
242.164	32.33
242.38	30.93
242.597	28.49
242.814	29.75
243.03	30.65
243.246	30.48
243.463	32.72
243.679	33.67
243.896	34.09
244.112	32.89
244.329	32.59
244.545	34.07
244.762	33.28
244.978	35.6
245.194	34.92
245.411	34.66
245.627	34.46
245.843	31.37
246.06	28.95
246.276	28.52
246.492	30.05
246.709	29
246.925	28.49
247.141	28.31
247.357	27.79
247.574	27.87
247.79	27.92
248.006	28.08
248.222	28.81
248.439	28.73
248.655	28.82
248.871	28.63
249.087	29.88
249.303	29.8
249.519	30.51
249.736	29.67
249.952	28.34
250.168	28.13
250.384	30.97
250.6	28.94
250.816	29.69
251.032	32.43
251.248	31.95
251.464	32.22
251.68	30.76
251.896	30.55
252.112	30.73
252.328	30.42
252.544	29.35
252.76	28.12
252.976	28.94
253.192	28.74
253.408	27.6
253.624	28.68
253.84	28.52
254.056	29.83
254.272	29.87
254.487	29.94
254.703	29.73
254.919	30.49
255.135	27.04
255.351	26.87
255.567	28.39
255.782	28.12
255.998	23.44
256.214	23.3
256.43	24.26
256.646	23.56
256.861	26.62
257.077	25.7
257.293	26.2
257.508	25.73
257.724	27.17
257.94	25.75
258.155	26.99
258.371	30.23
258.587	29
258.802	27.5
259.018	26.85
259.234	25.98
259.449	25.9
259.665	24.2
259.88	25.3
260.096	24.29
260.312	23.7
260.527	23.43
260.743	22.46
260.958	23.52
261.174	23.48
261.389	23.69
261.605	22.72
261.82	22.91
262.036	24.5
262.251	23.36
262.466	23.91
262.682	27.1
262.897	25.46
263.113	25.83
263.328	23.65
263.543	24.9
263.759	24.54
263.974	25.58
264.189	24.32
264.405	24.44
264.62	25.81
264.835	24.66
265.051	22.73
265.266	24.51
265.481	24.99
265.696	26.47
265.912	27.77
266.127	28.34
266.342	26.81
266.557	27.4
266.773	26.37
266.988	25.4
267.203	26
267.418	26.09
267.633	25.81
267.848	26.83
268.064	26.28
268.279	25.22
268.494	25.81
268.709	26.91
268.924	27.13
269.139	27.8
269.354	27.1
269.569	26.04
269.784	25.16
269.999	24.26
270.214	21.55
270.429	21.1
270.644	20.27
270.859	20.25
271.074	19.79
271.289	20.58
271.504	20.44
271.719	21.2
271.934	21.42
272.149	21.18
272.363	21.41
272.578	21.07
272.793	21.15
273.008	21.28
273.223	20.66
273.438	19.9
273.653	20.11
273.867	20.09
274.082	19.5
274.297	20.57
274.512	22.64
274.726	22.93
274.941	23.53
275.156	23.75
275.371	23.39
275.585	25
275.8	26.87
276.015	25.64
276.229	25.44
276.444	25.39
276.659	23.71
276.873	21.04
277.088	21.54
277.302	22.39
277.517	21.93
277.732	22.01
277.946	19.94
278.161	20.59
278.375	19.95
278.59	21.6
278.804	22.59
279.019	24.45
279.233	26.78
279.448	25.41
279.662	26.23
279.877	26.07
280.091	25.15
280.306	27.16
280.52	26.53
280.735	26.96
280.949	24.9
281.163	24.83
281.378	23.9
281.592	23.63
281.806	24.58
282.021	25.25
282.235	25.81
282.449	27.09
282.664	25.43
282.878	25.8
283.092	26.21
283.307	27.8
283.521	26.62
283.735	25.62
283.949	24.54
284.164	24.12
284.378	23.53
284.592	22.96
284.806	23.7
285.02	24.43
285.234	24.09
285.449	23.11
285.663	21.37
285.877	22.63
286.091	24.37
286.305	24.6
286.519	24.02
286.733	22.89
286.947	23.44
287.161	23.3
287.375	22.57
287.589	23.22
287.803	25
288.017	25.33
288.231	25.32
288.445	24.89
288.659	25.75
288.873	26.84
289.087	27.34
289.301	27.07
289.515	27.43
289.729	28.85
289.943	29.08
290.157	29.28
290.371	31.49
290.584	30.27
290.798	30.83
291.012	30.79
291.226	31.77
291.44	32.56
291.654	31.96
291.867	31.87
292.081	32.06
292.295	32.28
292.509	31.97
292.722	29.43
292.936	31.9
293.15	31.76
293.364	32.9
293.577	32.65
293.791	33.12
294.005	33.53
294.218	31.42
294.432	31.37
294.645	30.84
294.859	31.75
295.073	32.56
295.286	32.57
295.5	31.63
295.713	31.6
295.927	32.69
296.14	31.78
296.354	31.92
296.568	32.13
296.781	31.51
296.994	31.81
297.208	31.03
297.421	31.25
297.635	30.93
297.848	31.43
298.062	31.42
298.275	29.65
298.489	30.2
298.702	31.63
298.915	31.93
299.129	32.51
299.342	32.35
299.555	31.99
299.769	32.48
299.982	33.9
300.195	34.22
300.409	34.24
300.622	34.64
300.835	35.24
301.048	33.53
301.262	34.06
301.475	33.49
301.688	33.45
301.901	34.54
302.115	34.53
302.328	33.32
302.541	33.83
302.754	34.09
302.967	36.35
303.18	34.9
303.393	36.63
303.607	37.69
303.82	37.86
304.033	37.46
304.246	38.28
304.459	38.38
304.672	37.88
304.885	37.76
305.098	36.61
305.311	34.34
305.524	34.01
305.737	33.2
305.95	33.67
306.163	32.59
306.376	34.02
306.589	33.75
306.802	32.95
307.015	32.94
307.228	31.61
307.44	33.45
307.653	34.77
307.866	35.77
308.079	36.64
308.292	35.43
308.505	35.45
308.718	35.2
308.93	32.92
309.143	33.06
309.356	32.09
309.569	32.15
309.781	32.43
309.994	32.58
310.207	33.4
310.42	32.28
310.632	33.21
310.845	33.7
311.058	32.85
311.27	33.52
311.483	33.63
311.696	35.26
311.908	36.59
312.121	35.42
312.333	34.81
312.546	34.94
312.759	34.92
312.971	34.5
313.184	34.88
313.396	35.08
313.609	35.48
313.821	36.57
314.034	37.07
314.246	36.53
314.459	37.48
314.671	37.78
314.884	35.59
315.096	35.36
315.309	35.6
315.521	35.54
315.733	35.45
315.946	36.02
316.158	35.23
316.371	35
316.583	34.33
316.795	33.02
317.008	33.38
317.22	34.79
317.432	36.09
317.644	36.37
317.857	37.73
318.069	38.22
318.281	38.28
318.494	38.79
318.706	38.23
318.918	38.49
319.13	38.46
319.342	38.86
319.555	37.23
319.767	36.77
319.979	35.05
320.191	33.94
320.403	35.19
320.615	35.84
320.827	34.87
321.039	34.76
321.252	33.96
321.464	34.8
321.676	35.25
321.888	35.44
322.1	36.3
322.312	36.21
322.524	35.07
322.736	33.35
322.948	31.53
323.16	32.47
323.372	32.9
323.584	33.88
323.796	34.52
324.007	32.51
324.219	34.11
324.431	33.78
324.643	34.8
324.855	36.13
325.067	37.88
325.279	39.04
325.491	38.82
325.702	39.07
325.914	39.42
326.126	38.84
326.338	38.71
326.55	38.65
326.761	38.33
326.973	38.05
327.185	37.63
327.396	36.81
327.608	36.29
327.82	37.6
328.032	37.59
328.243	37.52
328.455	37.34
328.666	38.94
328.878	37.9
329.09	38.19
329.301	38.21
329.513	38.93
329.725	38.27
329.936	37.19
330.148	38.17
330.359	36.52
330.571	37.28
330.782	36.54
330.994	36.3
331.205	38.49
331.417	38.43
331.628	39.01
331.84	38.61
332.051	40.16
332.262	43.67
332.474	42.05
332.685	43.81
332.897	44.05
333.108	44.18
333.319	44.17
333.531	43.69
333.742	45.67
333.953	45.25
334.165	45.12
334.376	44.33
334.587	42.49
334.799	41.82
335.01	41.49
335.221	39.79
335.432	39.98
335.644	40.34
335.855	40.52
336.066	39.61
336.277	39.16
336.488	39.05
336.7	38.83
336.911	38.77
337.122	39.46
337.333	39.23
337.544	39.71
337.755	40.51
337.966	38.85
338.177	38.19
338.388	38.12
338.599	39.07
338.811	38.27
339.022	38.23
339.233	39.88
339.444	40.25
339.655	40.58
339.866	40.78
340.076	41.04
340.287	42.76
340.498	42.09
340.709	40.89
340.92	40.39
341.131	40.64
341.342	41.18
341.553	40.29
341.764	39.65
341.975	39.77
342.185	39.95
342.396	39.58
342.607	40.01
342.818	41.04
343.029	41.03
343.239	41.81
343.45	42.72
343.661	42.06
343.872	41.09
344.082	40.99
344.293	41.32
344.504	40.76
344.714	40.66
344.925	40
345.136	39.79
345.346	40.49
345.557	40.62
345.768	40.82
345.978	41.62
346.189	42.53
346.399	42.71
346.61	42.56
346.821	43.5
347.031	43.74
347.242	44.51
347.452	44.22
347.663	43.65
347.873	43.54
348.084	43.29
348.294	42.4
348.504	41.55
348.715	42.31
348.925	41.64
349.136	42.17
349.346	40.26
349.557	39.16
349.767	39.64
349.977	38.68
350.188	38.05
350.398	38.2
350.608	37.93
350.819	37.76
351.029	36.25
351.239	37.39
351.449	35.79
351.66	37.85
351.87	37.44
352.08	37.21
352.29	38.08
352.501	38.34
352.711	38.82
352.921	39.11
353.131	39.15
353.341	40.03
353.552	38.34
353.762	38.92
353.972	39.39
354.182	39.07
354.392	39.47
354.602	39.65
354.812	38.61
355.022	36.62
355.232	36.46
355.442	38.07
355.652	38.25
355.862	39.07
356.072	39.11
356.282	37.17
356.492	37.74
356.702	37.58
356.912	37.78
357.122	38.05
357.332	39.38
357.542	38.87
357.752	37.56
357.962	37.02
358.171	36.72
358.381	38.04
358.591	38.42
358.801	38.37
359.011	38.09
359.221	38.21
359.43	37.66
359.64	36.92
359.85	36.79
360.06	36.88
360.269	36.57
360.479	36.5
360.689	34.82
360.899	35.21
361.108	34.36
361.318	34.28
361.528	33.67
361.737	33.44
361.947	32.97
362.156	33.3
362.366	33.81
362.576	33.63
362.785	33.54
362.995	33.91
363.204	33.74
363.414	34.47
363.623	34.44
363.833	34.85
364.042	35.87
364.252	36.58
364.461	36.78
364.671	35.82
364.88	36.46
365.09	35.99
365.299	36.24
365.509	36.28
365.718	35.81
365.927	35.2
366.137	34.69
366.346	33.48
366.555	33.32
366.765	33.13
366.974	32.1
367.183	31.76
367.393	32.37
367.602	32.28
367.811	32.42
368.021	33.27
368.23	33.83
368.439	34.44
368.648	35.17
368.857	35.03
369.067	34.28
369.276	34.26
369.485	33.8
369.694	33.5
369.903	32.81
370.112	32.5
370.321	32.43
370.531	31.61
370.74	30.91
370.949	31.32
371.158	31.27
371.367	31.16
371.576	32.17
371.785	31.72
371.994	31.17
372.203	31.19
372.412	31
372.621	30.89
372.83	31.09
373.039	31.08
373.248	30.22
373.457	30.15
373.666	30.41
373.874	30.22
374.083	31
374.292	31.42
374.501	31.42
374.71	31.42
374.919	31.11
375.128	31.08
375.336	31.4
375.545	32.19
375.754	32.39
375.963	31.62
376.171	31.77
376.38	32.16
376.589	31.99
376.798	31.22
377.006	31.55
377.215	30.97
377.424	31.2
377.632	31.06
377.841	30.62
378.05	30.5
378.258	30.62
378.467	29.94
378.675	29.12
378.884	28.58
379.093	28.33
379.301	27.77
379.51	27.42
379.718	26.59
379.927	26.19
380.135	26.24
380.344	25.89
380.552	26.26
380.761	26.51
380.969	26.39
381.177	26.51
381.386	26.16
381.594	25.63
381.803	25.7
382.011	26.08
382.219	25.72
382.428	25.41
382.636	24.88
382.845	24.7
383.053	24.22
383.261	23.67
383.469	23.56
383.678	24.25
383.886	24.17
384.094	24.84
384.302	24.68
384.511	25.35
384.719	24.97
384.927	24.58
385.135	24.54
385.343	24.35
385.552	25.11
385.76	25.16
385.968	25.23
386.176	25.49
386.384	24.98
386.592	24.53
386.8	23.89
387.008	23.68
387.216	23.93
387.424	23.6
387.633	23.57
387.841	23.08
388.049	22.65
388.257	22.1
388.465	21.9
388.672	21.34
388.88	22.04
389.088	21.45
389.296	21.02
389.504	20.93
389.712	21.08
389.92	20.95
390.128	20.83
390.336	21.05
390.544	20.99
390.751	20.5
390.959	20.68
391.167	20.03
391.375	20.19
391.583	20.55
391.79	20.23
391.998	20.1
392.206	20.13
392.414	19.69
392.621	18.99
392.829	19.24
393.037	19.47
393.244	19.53
393.452	19.07
393.66	19.23
393.867	18.74
394.075	18.75
394.283	18.59
394.49	18.01
394.698	18.06
394.905	18.34
395.113	18.04
395.32	17.83
395.528	17.55
395.735	17.84
395.943	17.69
396.15	18.18
396.358	18.14
396.565	17.98
396.773	18.62
396.98	18.77
397.188	18.99
397.395	18.95
397.602	18.8
397.81	18.94
398.017	18.94
398.225	18.58
398.432	18.53
398.639	18.39
398.847	18.35
399.054	18.08
399.261	18.08
399.468	17.88
399.676	17.98
399.883	17.97
400.09	17.82
400.297	17.87
400.505	18
400.712	17.71
400.919	17.94
401.126	17.97
401.333	17.99
401.54	18.1
401.748	18.09
401.955	17.79
402.162	17.92
402.369	17.88
402.576	17.96
402.783	17.88
402.99	18.34
403.197	18.08
403.404	18.13
403.611	18.06
403.818	17.8
404.025	17.85
404.232	18.16
404.439	18.26
404.646	18.29
404.853	18.09
405.06	18.17
405.267	17.74
405.474	17.93
405.681	17.81
405.887	17.92
406.094	18.07
406.301	17.99
406.508	17.54
406.715	17.57
406.922	17.6
407.128	17.54
407.335	17.68
407.542	17.66
407.749	17.57
407.955	17.82
408.162	17.73
408.369	17.68
408.575	17.65
408.782	17.92
408.989	17.9
409.195	17.74
409.402	18.01
409.609	17.99
409.815	18.04
410.022	17.97
410.228	18.11
410.435	18.12
410.642	18.08
410.848	18.34
411.055	18.08
411.261	18.19
411.468	18.36
411.674	18.12
411.881	17.88
412.087	17.85
412.294	17.65
412.5	17.64
412.706	17.65
412.913	17.63
413.119	17.31
413.326	17.5
413.532	17.13
413.738	17.04
413.945	17
414.151	17.19
414.357	16.94
414.564	17.12
414.77	16.9
414.976	17.17
415.182	16.95
415.389	17.12
415.595	17.14
415.801	17.19
416.007	17.09
416.214	16.96
416.42	16.81
416.626	17
416.832	17.2
417.038	17.09
417.244	16.87
417.45	17.01
417.657	16.78
417.863	16.92
418.069	17.04
418.275	17.11
418.481	17.1
418.687	17.16
418.893	17.02
419.099	16.82
419.305	16.74
419.511	16.7
419.717	16.7
419.923	16.74
420.129	16.5
420.335	16.5
420.541	16.32
420.746	16.48
420.952	16.47
421.158	16.54
421.364	16.41
421.57	16.41
421.776	16.32
421.982	16.22
422.187	16.26
422.393	16.2
422.599	16
422.805	16.13
423.01	16.07
423.216	16.04
423.422	16.09
423.628	16.27
423.833	16.3
424.039	16.41
424.245	16.42
424.45	16.36
424.656	16.44
424.862	16.49
425.067	16.46
425.273	16.52
425.478	16.46
425.684	16.56
425.889	16.65
426.095	16.74
426.301	16.66
426.506	16.79
426.712	16.96
426.917	17.15
427.123	17.11
427.328	17.11
427.533	17.12
427.739	17.3
427.944	17.27
428.15	17.27
428.355	17.11
428.561	17.07
428.766	17.05
428.971	16.93
429.177	16.83
429.382	16.78
429.587	16.95
429.793	16.92
429.998	16.98
430.203	16.61
430.408	16.42
430.614	16.57
430.819	16.55
431.024	16.52
431.229	16.57
431.434	16.56
431.64	16.49
431.845	16.56
432.05	16.69
432.255	16.47
432.46	16.73
432.665	16.85
432.87	16.82
433.076	16.96
433.281	16.92
433.486	16.76
433.691	16.84
433.896	16.85
434.101	16.76
434.306	16.57
434.511	16.68
434.716	16.5
434.921	16.51
435.126	16.42
435.331	16.28
435.535	16.25
435.74	16.34
435.945	16.55
436.15	16.65
436.355	16.65
436.56	16.59
436.765	16.55
436.97	16.7
437.174	16.71
437.379	17
437.584	17.01
437.789	16.99
437.993	17.09
438.198	16.79
438.403	16.65
438.608	16.71
438.812	16.78
439.017	16.59
439.222	16.56
439.426	16.36
439.631	16.1
439.836	16.05
440.04	15.97
440.245	15.96
440.45	15.86
440.654	15.85
440.859	15.63
441.063	15.53
441.268	15.67
441.472	15.65
441.677	15.81
441.881	15.76
442.086	15.61
442.29	15.69
442.495	15.65
442.699	15.68
442.904	15.85
443.108	15.96
443.312	16.06
443.517	16.17
443.721	16.08
443.925	16
444.13	16.17
444.334	16.26
444.538	16.26
444.743	16.08
444.947	16.16
445.151	16.14
445.356	16.14
445.56	16.09
445.764	15.99
445.968	16.04
446.173	15.84
446.377	15.77
446.581	15.85
446.785	15.88
446.989	15.92
447.193	15.89
447.398	15.79
447.602	15.66
447.806	15.73
448.01	15.76
448.214	15.67
448.418	15.82
448.622	16.01
448.826	16.07
449.03	15.96
449.234	16.12
449.438	16
449.642	16.13
449.846	16.28
450.05	16.13
450.254	15.95
450.458	15.98
450.662	16.08
450.866	15.7
451.069	15.82
451.273	15.76
451.477	15.47
451.681	15.72
451.885	15.91
452.089	15.87
452.292	16.03
452.496	16.22
452.7	16.29
452.904	16.14
453.107	16.21
453.311	15.9
453.515	15.94
453.719	16.3
453.922	16.25
454.126	16.17
454.33	16.26
454.533	16.28
454.737	16.21
454.94	16.34
455.144	16.47
455.348	16.39
455.551	16.45
455.755	16.61
455.958	16.53
456.162	16.31
456.365	16.28
456.569	16.09
456.772	15.99
456.976	16.16
457.179	16.09
457.383	16.25
457.586	16.26
457.79	16.33
457.993	16.3
458.196	16.08
458.4	16.18
458.603	15.96
458.807	16.09
459.01	16.14
459.213	16.08
459.417	16.17
459.62	16.1
459.823	16.33
460.026	16.23
460.23	16.17
460.433	16.25
460.636	16.3
460.839	16.44
461.042	16.45
461.246	16.41
461.449	16.38
461.652	16.27
461.855	16.14
462.058	16.06
462.261	16.18
462.464	16.32
462.668	16.47
462.871	16.45
463.074	16.59
463.277	16.5
463.48	16.63
463.683	16.8
463.886	16.83
464.089	16.82
464.292	16.78
464.495	16.75
464.698	16.48
464.901	16.36
465.104	16.49
465.306	16.31
465.509	16.47
465.712	16.33
465.915	16.27
466.118	16.14
466.321	16.28
466.524	16.06
466.726	16.13
466.929	16.28
467.132	16.18
467.335	16.03
467.538	15.96
467.74	15.88
467.943	15.74
468.146	15.6
468.348	15.67
468.551	15.64
468.754	15.95
468.956	15.98
469.159	15.99
469.362	16.15
469.564	16.34
469.767	16.5
469.969	16.41
470.172	16.69
470.375	16.8
470.577	16.87
470.78	16.87
470.982	16.66
471.185	16.66
471.387	16.6
471.59	16.49
471.792	16.32
471.995	16.18
472.197	16.21
472.399	16.27
472.602	16.2
472.804	16.2
473.007	16.19
473.209	16.04
473.411	15.87
473.614	15.75
473.816	15.94
474.018	15.87
474.22	15.86
474.423	15.81
474.625	15.68
474.827	15.65
475.03	15.68
475.232	15.68
475.434	15.8
475.636	15.9
475.838	15.93
476.04	15.78
476.243	15.76
476.445	15.89
476.647	15.84
476.849	15.76
477.051	15.76
477.253	15.61
477.455	15.57
477.657	15.52
477.859	15.43
478.061	15.57
478.263	15.55
478.465	15.58
478.667	15.61
478.869	15.77
479.071	15.9
479.273	15.74
479.475	15.86
479.677	15.93
479.879	15.89
480.081	15.92
480.283	15.97
480.485	15.98
480.686	16.14
480.888	16.08
481.09	15.87
481.292	15.71
481.494	15.82
481.695	15.7
481.897	15.63
482.099	15.69
482.301	15.69
482.502	15.59
482.704	15.4
482.906	15.35
483.107	15.28
483.309	15.38
483.511	15.38
483.712	15.36
483.914	15.4
484.115	15.44
484.317	15.46
484.519	15.42
484.72	15.49
484.922	15.52
485.123	15.49
485.325	15.52
485.526	15.53
485.728	15.58
485.929	15.6
486.131	15.53
486.332	15.51
486.534	15.52
486.735	15.57
486.936	15.49
487.138	15.53
487.339	15.59
487.541	15.64
487.742	15.61
487.943	15.55
488.144	15.6
488.346	15.72
488.547	15.71
488.748	15.72
488.95	15.71
489.151	15.7
489.352	15.79
489.553	15.75
489.755	15.7
489.956	15.73
490.157	15.84
490.358	15.75
490.559	15.74
490.76	15.66
490.961	15.6
491.163	15.63
491.364	15.65
491.565	15.52
491.766	15.58
491.967	15.62
492.168	15.63
492.369	15.6
492.57	15.59
492.771	15.49
492.972	15.59
493.173	15.66
493.374	15.69
493.575	15.72
493.776	15.96
493.976	15.96
494.177	15.88
494.378	15.9
494.579	15.87
494.78	16
494.981	16.11
495.182	16.12
495.382	16.16
495.583	16.15
495.784	16.09
495.985	15.92
496.185	15.91
496.386	15.89
496.587	15.85
496.788	15.84
496.988	15.86
497.189	15.77
497.39	15.7
497.59	15.7
497.791	15.66
497.992	15.7
498.192	15.84
498.393	15.85
498.593	16.02
498.794	16.04
498.994	16.16
499.195	15.97
499.395	16.12
499.596	16.13
499.796	16.02
499.997	16.13
500.197	16.15
500.398	16.07
500.598	16.08
500.799	16.18
500.999	16.2
501.199	16.13
501.4	16.32
501.6	16.21
501.801	16.35
502.001	16.34
502.201	16.24
502.402	16.17
502.602	16.23
502.802	16.12
503.002	15.99
503.203	15.94
503.403	15.87
503.603	15.93
503.803	15.92
504.003	15.92
504.204	15.91
504.404	15.98
504.604	16.16
504.804	16.05
505.004	16.12
505.204	16.32
505.404	16.31
505.604	16.54
505.804	16.56
506.005	16.63
506.205	16.64
506.405	16.87
506.605	16.77
506.805	16.7
507.005	16.68
507.204	16.56
507.404	16.42
507.604	16.56
507.804	16.48
508.004	16.45
508.204	16.31
508.404	16.28
508.604	16.08
508.804	16.15
509.003	16.13
509.203	16.27
509.403	16.31
509.603	16.25
509.803	16.28
510.002	16.32
510.202	16.35
510.402	16.54
510.602	16.58
510.801	16.67
511.001	16.67
511.201	16.58
511.4	16.55
511.6	16.64
511.8	16.81
511.999	16.77
512.199	16.67
512.398	16.67
512.598	16.57
512.797	16.51
512.997	16.49
513.197	16.42
513.396	16.47
513.596	16.5
513.795	16.56
513.994	16.54
514.194	16.43
514.393	16.56
514.593	16.63
514.792	16.61
514.992	16.75
515.191	16.75
515.39	16.93
515.59	16.93
515.789	17.07
515.988	17.12
516.188	16.95
516.387	17.04
516.586	16.89
516.786	16.69
516.985	16.73
517.184	16.68
517.383	16.79
517.582	16.81
517.782	16.9
517.981	16.77
518.18	16.74
518.379	16.85
518.578	16.9
518.777	16.93
518.976	17
519.176	16.98
519.375	16.98
519.574	16.89
519.773	16.9
519.972	16.88
520.171	16.9
520.37	16.95
520.569	16.94
520.768	16.95
520.967	17.26
521.166	17.44
521.365	17.6
521.564	17.69
521.762	17.88
521.961	17.95
522.16	18.02
522.359	18.02
522.558	17.74
522.757	17.78
522.956	17.7
523.154	17.48
523.353	17.28
523.552	17.28
523.751	17.15
523.949	17.09
524.148	16.89
524.347	16.77
524.546	16.84
524.744	16.9
524.943	16.92
525.142	16.96
525.34	17.02
525.539	17.15
525.737	17.14
525.936	17.17
526.135	17.07
526.333	17.17
526.532	17.29
526.73	17.24
526.929	17.36
527.127	17.25
527.326	17.27
527.524	17.24
527.723	17.2
527.921	17.26
528.12	17.38
528.318	17.43
528.516	17.43
528.715	17.37
528.913	17.41
529.112	17.4
529.31	17.47
529.508	17.47
529.707	17.43
529.905	17.45
530.103	17.43
530.301	17.35
530.5	17.39
530.698	17.45
530.896	17.62
531.094	17.66
531.293	17.65
531.491	17.66
531.689	17.77
531.887	17.84
532.085	17.88
532.283	17.89
532.481	17.95
532.68	17.96
532.878	17.97
533.076	17.92
533.274	17.88
533.472	17.86
533.67	17.91
533.868	17.83
534.066	17.81
534.264	17.83
534.462	17.83
534.66	17.83
534.858	17.86
535.056	17.94
535.253	17.94
535.451	17.96
535.649	18.08
535.847	18.03
536.045	18.19
536.243	18.18
536.441	18.22
536.638	18.33
536.836	18.29
537.034	18.33
537.232	18.1
537.43	18.17
537.627	18.17
537.825	18.08
538.023	18.15
538.22	18.14
538.418	18.28
538.616	18.33
538.813	18.35
539.011	18.5
539.209	18.47
539.406	18.59
539.604	18.64
539.801	18.73
539.999	18.85
540.196	18.82
540.394	18.73
540.591	18.78
540.789	18.78
540.986	18.75
541.184	18.68
541.381	18.75
541.579	18.79
541.776	18.81
541.974	18.84
542.171	18.91
542.368	18.94
542.566	19.04
542.763	18.99
542.96	19.01
543.158	19.04
543.355	19.11
543.552	19.05
543.75	19
543.947	18.99
544.144	19
544.341	18.98
544.539	18.97
544.736	18.93
544.933	18.86
545.13	18.86
545.327	19
545.524	18.98
545.722	19.09
545.919	19.18
546.116	19.29
546.313	19.38
546.51	19.39
546.707	19.48
546.904	19.52
547.101	19.81
547.298	19.87
547.495	19.74
547.692	19.78
547.889	19.77
548.086	19.81
548.283	19.74
548.48	19.67
548.677	19.68
548.874	19.7
549.07	19.83
549.267	19.65
549.464	19.65
549.661	19.77
549.858	19.93
550.055	20.07
550.251	20.04
550.448	20.23
550.645	20.32
550.842	20.42
551.038	20.37
551.235	20.44
551.432	20.54
551.628	20.69
551.825	20.74
552.022	20.76
552.218	20.62
552.415	20.61
552.612	20.55
552.808	20.58
553.005	20.47
553.201	20.61
553.398	20.48
553.594	20.55
553.791	20.58
553.987	20.64
554.184	20.56
554.38	20.7
554.577	20.78
554.773	21.01
554.97	21
555.166	21.19
555.362	21.22
555.559	21.31
555.755	21.49
555.952	21.29
556.148	21.18
556.344	21.28
556.541	21.52
556.737	21.52
556.933	21.33
557.129	21.57
557.326	21.72
557.522	21.74
557.718	21.82
557.914	21.73
558.11	21.95
558.307	22.26
558.503	22.48
558.699	22.37
558.895	22.49
559.091	22.47
559.287	22.28
559.483	22.18
559.679	22.12
559.876	22.33
560.072	22.61
560.268	22.59
560.464	22.48
560.66	22.39
560.856	22.28
561.052	22.2
561.247	22.4
561.443	22.54
561.639	22.79
561.835	22.96
562.031	22.85
562.227	22.54
562.423	22.55
562.619	22.61
562.815	22.67
563.01	22.61
563.206	22.62
563.402	22.62
563.598	22.7
563.793	22.53
563.989	22.64
564.185	22.6
564.381	22.9
564.576	22.99
564.772	22.83
564.968	22.81
565.163	22.85
565.359	22.99
565.555	22.71
565.75	22.77
565.946	22.94
566.141	22.76
566.337	22.85
566.532	22.68
566.728	22.66
566.923	22.9
567.119	23.09
567.314	23.3
567.51	23.42
567.705	23.56
567.901	23.57
568.096	23.38
568.292	23.56
568.487	23.54
568.682	23.55
568.878	23.57
569.073	23.53
569.268	23.52
569.464	23.5
569.659	23.71
569.854	23.79
570.05	23.74
570.245	23.96
570.44	23.94
570.635	24
570.831	24.01
571.026	24.11
571.221	24.11
571.416	23.91
571.611	23.97
571.806	23.88
572.002	24.15
572.197	23.99
572.392	23.97
572.587	24.06
572.782	24.19
572.977	24.15
573.172	24.02
573.367	24.02
573.562	24.42
573.757	24.38
573.952	24.35
574.147	24.33
574.342	24.66
574.537	24.64
574.732	24.65
574.927	24.46
575.121	24.56
575.316	24.57
575.511	24.63
575.706	24.36
575.901	24.42
576.096	24.21
576.29	23.98
576.485	23.77
576.68	23.74
576.875	23.45
577.069	23.55
577.264	23.7
577.459	23.82
577.654	24.07
577.848	24.04
578.043	24.12
578.238	24.53
578.432	24.5
578.627	24.73
578.821	24.95
579.016	25.42
579.21	25.33
579.405	25.3
579.6	25.39
579.794	25.2
579.989	25.43
580.183	25.3
580.378	24.98
580.572	25.13
580.766	25.2
580.961	25.05
581.155	25.17
581.35	25.58
581.544	25.44
581.738	25.56
581.933	25.4
582.127	25.2
582.321	25.11
582.516	25.23
582.71	25.55
582.904	25.52
583.099	25.51
583.293	25.22
583.487	25.24
583.681	25.81
583.875	25.58
584.07	25.72
584.264	25.79
584.458	26.19
584.652	26.11
584.846	26
585.04	25.62
585.234	25.55
585.428	25.72
585.623	25.56
585.817	25.21
586.011	25.31
586.205	25.47
586.399	25.5
586.593	25.47
586.787	25.88
586.981	25.88
587.174	26.39
587.368	26.7
587.562	26.61
587.756	26.67
587.95	26.72
588.144	26.82
588.338	27.03
588.532	27.15
588.725	27.08
588.919	27.13
589.113	27.13
589.307	27.12
589.501	26.94
589.694	26.94
589.888	26.94
590.082	26.91
590.275	26.84
590.469	26.52
590.663	26.83
590.856	26.58
591.05	26.58
591.244	26.73
591.437	26.92
591.631	26.99
591.824	26.94
592.018	27.09
592.212	26.96
592.405	26.99
592.599	27.11
592.792	26.74
592.986	27.06
593.179	26.8
593.372	26.89
593.566	26.6
593.759	26.64
593.953	27.21
594.146	27.3
594.339	27.6
594.533	27.61
594.726	27.47
594.92	27.51
595.113	27.55
595.306	27.66
595.499	27.48
595.693	27.41
595.886	27.63
596.079	27.24
596.272	27.16
596.466	26.99
596.659	27.05
596.852	27.02
597.045	27.16
597.238	27.05
597.431	26.89
597.624	26.93
597.818	27.02
598.011	26.99
598.204	26.85
598.397	26.76
598.59	26.84
598.783	27.02
598.976	27.06
599.169	27.11
599.362	26.99
599.555	27.5
599.748	27.43
599.941	27.45
600.134	27.17
600.326	27.14
600.519	27.45
600.712	27.22
600.905	27.24
601.098	27.51
601.291	27.59
601.483	27.88
601.676	27.64
601.869	27.88
602.062	27.73
602.255	27.86
602.447	28.28
602.64	28
602.833	28.13
603.025	27.98
603.218	27.91
603.411	27.84
603.603	27.79
603.796	27.87
603.989	27.79
604.181	27.87
604.374	27.75
604.566	27.73
604.759	27.88
604.951	27.96
605.144	28.11
605.336	28.01
605.529	27.81
605.721	27.72
605.914	27.72
606.106	27.56
606.299	27.7
606.491	27.96
606.683	27.74
606.876	27.58
607.068	27.62
607.26	27.53
607.453	27.72
607.645	27.78
607.837	27.66
608.03	27.56
608.222	27.91
608.414	28.03
608.606	28.02
608.799	28.36
608.991	28.41
609.183	28.29
609.375	28.37
609.567	28.08
609.759	28.12
609.952	28.44
610.144	28.22
610.336	27.98
610.528	27.84
610.72	27.67
610.912	27.27
611.104	27.35
611.296	27.14
611.488	26.99
611.68	27.17
611.872	27.07
612.064	26.75
612.256	26.83
612.448	26.64
612.64	26.55
612.832	26.74
613.023	26.88
613.215	26.89
613.407	27.34
613.599	27.35
613.791	27.26
613.983	27.18
614.174	27.55
614.366	27.85
614.558	28.03
614.75	27.99
614.941	28.17
615.133	28.15
615.325	27.85
615.516	27.56
615.708	27.43
615.9	27.73
616.091	27.85
616.283	27.62
616.475	27.51
616.666	27.82
616.858	28.18
617.049	27.93
617.241	28.06
617.432	28.38
617.624	28.76
617.815	28.7
618.007	28.6
618.198	28.65
618.39	28.73
618.581	28.85
618.773	28.64
618.964	28.56
619.155	28.77
619.347	28.94
619.538	28.87
619.729	28.73
619.921	28.95
620.112	28.71
620.303	28.55
620.494	28.37
620.686	28.35
620.877	28.49
621.068	28.57
621.259	28.38
621.451	28.17
621.642	28.08
621.833	28.33
622.024	28.37
622.215	28.66
622.406	28.86
622.597	28.96
622.788	29.09
622.98	29.14
623.171	29.19
623.362	29.22
623.553	29.51
623.744	29.37
623.935	28.96
624.126	29.02
624.317	28.75
624.508	28.7
624.698	28.82
624.889	28.51
625.08	28.61
625.271	28.52
625.462	28.61
625.653	28.42
625.844	28.51
626.034	28.92
626.225	28.98
626.416	29.06
626.607	29.32
626.798	29.44
626.988	29.61
627.179	29.43
627.37	29.3
627.56	29.37
627.751	29.33
627.942	29.5
628.132	29.31
628.323	29.34
628.514	29.44
628.704	29.31
628.895	28.97
629.085	28.87
629.276	28.7
629.466	28.65
629.657	28.36
629.847	28.62
630.038	28.55
630.228	28.57
630.419	28.29
630.609	28.23
630.8	27.92
630.99	27.86
631.181	27.66
631.371	28.25
631.561	28.09
631.752	27.84
631.942	27.24
632.132	27.45
632.323	27.26
632.513	27.21
632.703	27.21
632.893	27.53
633.084	27.78
633.274	27.84
633.464	27.5
633.654	27.45
633.844	27.73
634.034	28.18
634.225	28.08
634.415	28.11
634.605	28.33
634.795	28.26
634.985	28.27
635.175	28.44
635.365	28.69
635.555	28.63
635.745	28.91
635.935	28.99
636.125	29.02
636.315	29.03
636.505	29.04
636.695	29.17
636.885	29.56
637.075	29.63
637.265	29.75
637.455	29.91
637.644	29.93
637.834	29.98
638.024	29.94
638.214	30.21
638.404	30.14
638.593	30.11
638.783	29.69
638.973	29.65
639.163	29.54
639.352	29.31
639.542	29.17
639.732	29.56
639.921	29.66
640.111	29.81
640.301	29.24
640.49	29.21
640.68	29.27
640.87	29.4
641.059	29.39
641.249	29.63
641.438	30.3
641.628	29.97
641.817	30.05
642.007	29.67
642.196	29.75
642.386	30.13
642.575	30.68
642.764	31.01
642.954	31.05
643.143	30.97
643.333	30.82
643.522	30.41
643.711	30.72
643.901	30.3
644.09	30.53
644.279	30.81
644.469	30.2
644.658	29.63
644.847	29.13
645.036	29.1
645.226	29.33
645.415	29.4
645.604	29.1
645.793	28.89
645.982	28.68
646.171	28.96
646.361	28.42
646.55	28.66
646.739	28.4
646.928	28.52
647.117	28.88
647.306	28.51
647.495	28.45
647.684	28.57
647.873	28.97
648.062	29.09
648.251	28.87
648.44	29.22
648.629	29.03
648.818	29.15
649.007	29.41
649.196	28.81
649.384	29.06
649.573	29.07
649.762	28.9
649.951	28.84
650.14	28.65
650.328	28.87
650.517	28.84
650.706	29
650.895	29.23
651.083	29.12
651.272	29.68
651.461	29.75
651.65	29.74
651.838	29.93
652.027	29.7
652.216	29.96
652.404	29.85
652.593	29.67
652.781	29.8
652.97	29.54
653.158	29.44
653.347	29.11
653.535	29.01
653.724	28.6
653.912	28.68
654.101	28.87
654.289	29.03
654.478	28.8
654.666	28.86
654.855	29.33
655.043	29.18
655.231	29.06
655.42	29.07
655.608	28.76
655.796	29.52
655.985	29.32
656.173	29.24
656.361	29.41
656.55	29.55
656.738	29.87
656.926	29.47
657.114	29.82
657.302	29.78
657.491	30.15
657.679	30.19
657.867	29.56
658.055	29.92
658.243	29.79
658.431	29.62
658.619	29.72
658.807	29.65
658.996	29.95
659.184	29.86
659.372	30.03
659.56	30
659.748	30.1
659.936	30.51
660.124	30.14
660.311	30.6
660.499	30.76
660.687	31.04
660.875	30.88
661.063	30.67
661.251	30.63
661.439	30.38
661.627	30.35
661.814	30.38
662.002	30.51
662.19	30.9
662.378	30.77
662.565	30.26
662.753	29.97
662.941	29.44
663.129	29.95
663.316	30.34
663.504	30.56
663.692	30.72
663.879	30.43
664.067	30.14
664.254	30.02
664.442	30.27
664.63	30.68
664.817	30.74
665.005	31.39
665.192	30.78
665.38	30.48
665.567	30.55
665.755	30.61
665.942	30.98
666.13	31.55
666.317	31.93
666.504	31.18
666.692	31.1
666.879	31.05
667.067	31.29
667.254	31.47
667.441	31.59
667.629	31.82
667.816	31.5
668.003	31.69
668.19	31.38
668.378	30.9
668.565	31.44
668.752	31.55
668.939	31.26
669.127	31.13
669.314	31.36
669.501	31.34
669.688	31.23
669.875	31.55
670.062	31.84
670.249	31.61
670.436	31.73
670.623	31.59
670.81	31.65
670.997	31.72
671.184	31.54
671.371	31.37
671.558	31.44
671.745	31.42
671.932	31.2
672.119	30.83
672.306	31.25
672.493	31.19
672.68	31
672.867	30.82
673.054	31.4
673.24	30.89
673.427	31.49
673.614	31.46
673.801	31.68
673.988	31.88
674.174	31.71
674.361	31.7
674.548	31.53
674.734	31.56
674.921	31.6
675.108	31.49
675.294	31.84
675.481	31.13
675.668	30.89
675.854	30.93
676.041	30.42
676.227	30.34
676.414	29.81
676.601	29.82
676.787	30.11
676.974	29.87
677.16	29.44
677.347	29.56
677.533	29.99
677.719	30.51
677.906	30.38
678.092	30.81
678.279	31.07
678.465	31.34
678.651	31.08
678.838	31.27
679.024	31.1
679.21	31.55
679.397	31.58
679.583	31.04
679.769	30.48
679.955	30.47
680.142	30.41
680.328	30.29
680.514	30
680.7	30.46
680.886	29.84
681.073	30.26
681.259	30.23
681.445	30.19
681.631	30.03
681.817	29.9
682.003	29.91
682.189	29.85
682.375	29.86
682.561	30.5
682.747	30.53
682.933	30.67
683.119	30.89
683.305	30.69
683.491	30.79
683.677	31.37
683.863	31.85
684.049	31.97
684.235	31.76
684.42	31.43
684.606	31.04
684.792	31.17
684.978	31.38
685.164	31.28
685.349	30.96
685.535	31.03
685.721	30.82
685.907	30.84
686.092	31.15
686.278	31.24
686.464	32.16
686.649	32.2
686.835	32.17
687.021	32.19
687.206	32.03
687.392	32.47
687.577	33.06
687.763	32.56
687.948	32.73
688.134	32.16
688.319	31.96
688.505	31.66
688.69	31.49
688.876	31.45
689.061	31.35
689.247	31.41
689.432	31.41
689.618	31.46
689.803	32.03
689.988	32.45
690.174	32.56
690.359	32.79
690.544	32.48
690.73	32.9
690.915	32.9
691.1	32.82
691.285	32.83
691.471	32.86
691.656	32.21
691.841	32.09
692.026	31.38
692.211	31.73
692.396	31.89
692.582	31.67
692.767	31.37
692.952	30.93
693.137	31.64
693.322	31.81
693.507	32.06
693.692	32.17
693.877	32.32
694.062	32.88
694.247	32.73
694.432	32.75
694.617	33.16
694.802	32.64
694.987	32.73
695.172	32.56
695.357	32.2
695.541	31.83
695.726	31.84
695.911	31.89
696.096	31.23
696.281	30.8
696.466	30.55
696.65	30.49
696.835	30.64
697.02	30.96
697.204	30.56
697.389	30.02
697.574	30.03
697.759	30.39
697.943	30.33
698.128	30.4
698.312	30.56
698.497	30.58
698.682	30.51
698.866	30.76
699.051	30.52
699.235	30.68
699.42	30.95
699.604	31.48
699.789	31.2
699.973	31.44
700.158	31.72
700.342	31.55
700.527	31.63
700.711	31.28
700.895	31.56
701.08	31.84
701.264	31.73
701.448	31.86
701.633	31.32
701.817	31.11
702.001	30.29
702.186	29.41
702.37	30
702.554	30.71
702.738	31.29
702.923	31.26
703.107	30.79
703.291	30.91
703.475	31.59
703.659	31.3
703.843	31.3
704.027	32.07
704.212	32.69
704.396	32.82
704.58	32.4
704.764	32.36
704.948	32.16
705.132	31.92
705.316	32.5
705.5	32.28
705.684	32.3
705.868	32.52
706.052	32.02
706.235	32.92
706.419	33.04
706.603	32.35
706.787	32.82
706.971	32.94
707.155	33.05
707.339	32.51
707.522	32.57
707.706	33.18
707.89	32.94
708.074	33.48
708.257	32.9
708.441	31.98
708.625	31.45
708.808	30.79
708.992	30.88
709.176	30.76
709.359	30.23
709.543	29.3
709.727	28.73
709.91	28.91
710.094	28.98
710.277	29.1
710.461	29.38
710.644	29.9
710.828	30.05
711.011	29.65
711.195	30.59
711.378	31.35
711.562	32.05
711.745	32.45
711.928	32.15
712.112	32.19
712.295	31.84
712.478	31.78
712.662	32.68
712.845	32.45
713.028	32.2
713.212	31.37
713.395	31.6
713.578	31.49
713.761	31.02
713.945	31.66
714.128	31.35
714.311	31.73
714.494	31.95
714.677	31.77
714.86	32.33
715.043	32.71
715.227	33.2
715.41	32.37
715.593	32.38
715.776	32.14
715.959	31.86
716.142	31.54
716.325	31.77
716.508	32.09
716.691	31.67
716.874	31.73
717.057	31.56
717.239	31.25
717.422	31.51
717.605	32.05
717.788	32.13
717.971	32.44
718.154	32.85
718.337	32.28
718.519	31.24
718.702	31.89
718.885	31.96
719.068	31.64
719.25	32.43
719.433	32.98
719.616	32.88
719.798	33.81
719.981	33.57
720.164	34.22
720.346	34.52
720.529	35.53
720.712	35.86
720.894	35.54
721.077	35.94
721.259	35.05
721.442	34.29
721.624	33.61
721.807	32.44
721.989	32.65
722.172	31.63
722.354	32.27
722.537	32.53
722.719	32.91
722.901	33.3
723.084	33.46
723.266	33.6
723.448	34.01
723.631	35.28
723.813	36.3
723.995	35.01
724.178	35.58
724.36	36.06
724.542	36.15
724.724	34.65
724.907	33.57
725.089	34.48
725.271	35.32
725.453	34.99
725.635	33.82
725.817	33.03
725.999	34.21
726.181	33.71
726.364	32.12
726.546	31.58
726.728	31.57
726.91	32.51
727.092	32.03
727.274	31.87
727.456	32.26
727.638	32.86
727.819	33.72
728.001	33.07
728.183	33.51
728.365	33.2
728.547	33.52
728.729	34.96
728.911	34.81
729.093	34.04
729.274	33.71
729.456	33.24
729.638	32.65
729.82	32.6
730.001	33
730.183	33.43
730.365	34.89
730.546	35.03
730.728	33.76
730.91	33.58
731.091	33.86
731.273	33.98
731.455	34
731.636	34.93
731.818	35.01
731.999	35.03
732.181	34.32
732.362	33.18
732.544	32.46
732.725	33.44
732.907	34.07
733.088	34.92
733.27	34.87
733.451	35.27
733.633	34.57
733.814	33.85
733.995	33.2
734.177	34.64
734.358	35.17
734.539	35.88
734.721	34.98
734.902	34.17
735.083	33.54
735.264	33.59
735.446	33.26
735.627	33.92
735.808	34.49
735.989	35.02
736.17	33.86
736.351	33.71
736.533	34.13
736.714	35.51
736.895	36.99
737.076	37.37
737.257	36.84
737.438	37.2
737.619	37.02
737.8	36.71
737.981	37.53
738.162	36.28
738.343	36.49
738.524	36.06
738.705	35.53
738.886	34.6
739.067	33.22
739.247	33.22
739.428	32.54
739.609	31.84
739.79	30.61
739.971	29.68
740.151	29.9
740.332	29.27
740.513	28.72
740.694	27.11
740.874	26.62
741.055	26.96
741.236	28.19
741.417	29.68
741.597	29.71
741.778	31.74
741.958	31.86
742.139	32.83
742.32	33.52
742.5	35.61
742.681	37.04
742.861	37.05
743.042	36.85
743.222	34.98
743.403	33.97
743.583	35.02
743.764	34.95
743.944	34.13
744.124	34.45
744.305	34.11
744.485	32.52
744.666	32.13
744.846	32.45
745.026	33.39
745.207	34.58
745.387	35.63
745.567	35.33
745.747	34.35
745.928	34.97
746.108	35.05
746.288	36.15
746.468	35.75
746.648	35.84
746.829	35.82
747.009	35.57
747.189	36.12
747.369	36.04
747.549	35.84
747.729	36.49
747.909	37.17
748.089	36.27
748.269	36.11
748.449	35.77
748.629	34.71
748.809	34.49
748.989	34.79
749.169	35.53
749.349	36.17
749.529	36.07
749.709	36.31
749.889	36.23
750.068	36.45
750.248	36.43
750.428	36.71
750.608	36.18
750.788	37.15
750.967	37.83
751.147	36.68
751.327	36.42
751.507	36.67
751.686	35.92
751.866	35.29
752.046	35.18
752.225	35.15
752.405	35.12
752.585	35.97
752.764	34.45
752.944	33.4
753.123	32.96
753.303	32.28
753.482	31.13
753.662	31.49
753.841	31.77
754.021	32.43
754.2	31.1
754.38	31.79
754.559	34.02
754.739	34.33
754.918	33.84
755.097	33.99
755.277	34.49
755.456	35.91
755.635	36.73
755.815	36.73
755.994	35.52
756.173	35.16
756.352	34.71
756.532	32.65
756.711	32.34
756.89	34.16
757.069	34.64
757.248	33.75
757.427	33.4
757.607	32.06
757.786	31.5
757.965	31.38
758.144	32.57
758.323	33.05
758.502	33.35
758.681	32.92
758.86	31.35
759.039	32.51
759.218	32.81
759.397	32.01
759.576	31.7
759.755	32.13
759.934	33.4
760.113	33.08
760.291	31.99
760.47	32.89
760.649	34.94
760.828	34.79
761.007	33.85
761.186	34.43
761.364	34.68
761.543	35.87
761.722	35.61
761.901	35.4
762.079	36.01
762.258	35.98
762.437	35.45
762.615	34.92
762.794	35.94
762.972	35.27
763.151	34.16
763.33	34.63
763.508	33.69
763.687	33.88
763.865	34.16
764.044	34.01
764.222	34.82
764.401	34.42
764.579	34.56
764.758	34.42
764.936	35.01
765.114	36.35
765.293	35.74
765.471	35.92
765.65	35.88
765.828	35.77
766.006	35.86
766.184	35.35
766.363	34.84
766.541	34.16
766.719	33.5
766.898	35.04
767.076	32.97
767.254	33.85
767.432	34.16
767.61	34.95
767.788	34.55
767.967	34.65
768.145	33.56
768.323	34.61
768.501	35.73
768.679	36.62
768.857	34.88
769.035	37.27
769.213	37.81
769.391	37.93
769.569	37.86
769.747	39.58
769.925	38.01
770.103	38.18
770.281	37.94
770.459	36.91
770.636	36.33
770.814	35.43
770.992	33.4
771.17	32.18
771.348	32.98
771.525	33.2
771.703	32.03
771.881	34.26
772.059	35.99
772.236	35.51
772.414	35.54
772.592	36.71
772.769	38
772.947	39.75
773.125	39.74
773.302	41.52
773.48	41.12
773.657	40.88
773.835	41.09
774.013	41.51
774.19	42.51
774.368	44.34
774.545	44.61
774.723	43.78
774.9	44.06
775.077	44.45
775.255	43.37
775.432	44.6
775.61	46.15
775.787	46.35
775.964	45.85
776.142	45.66
776.319	44.53
776.496	43.6
776.674	43.37
776.851	41.26
777.028	41.98
777.205	44.25
777.382	43.76
777.56	42.87
777.737	42.07
777.914	40.02
778.091	38.74
778.268	38.01
778.445	38.56
778.622	38.73
778.8	39.5
778.977	39.93
779.154	37.31
779.331	36.49
779.508	35.63
779.685	34.87
779.862	38.19
780.038	40.05
780.215	41.15
780.392	40.54
780.569	41.85
780.746	42.15
780.923	42.5
781.1	43.4
781.277	45.25
781.453	44.63
781.63	46.67
781.807	44.88
781.984	44.05
782.16	44.46
782.337	43.88
782.514	43.27
782.691	42.54
782.867	41.56
783.044	40.97
783.221	40.48
783.397	41.56
783.574	41.06
783.75	41.16
783.927	40.32
784.103	40.82
784.28	40.94
784.456	40.55
784.633	42.12
784.809	41.49
784.986	41.06
785.162	37.67
785.339	37.24
785.515	36.75
785.692	36.48
785.868	35.77
786.044	33.25
786.221	31.65
786.397	35.12
786.573	35.71
786.749	36.11
786.926	32.06
787.102	33.67
787.278	32.45
787.454	34.69
787.631	34.82
787.807	36.99
787.983	37.7
788.159	39.95
788.335	36.87
788.511	34.52
788.687	35.04
788.863	38.69
789.039	38.86
789.216	41.62
789.392	41.19
789.568	42.14
789.744	41.36
789.919	40.72
790.095	37.58
790.271	36.83
790.447	39.28
790.623	37.16
790.799	34.85
790.975	34.32
791.151	33.25
791.327	32.3
791.502	32.08
791.678	32.92
791.854	36.12
792.03	38.54
792.205	39.28
792.381	37.83
792.557	39.52
792.733	41.9
792.908	45.58
793.084	44.38
793.259	42.37
793.435	41.49
793.611	40
793.786	36.7
793.962	37.96
794.137	37.94
794.313	36.99
794.488	37.9
794.664	38.75
794.839	36.28
795.015	39.29
795.19	39.01
795.366	42.09
795.541	43.12
795.716	42.71
795.892	43.84
796.067	44.64
796.242	45.8
796.418	42.94
796.593	44.32
796.768	44.9
796.944	44.49
797.119	46.22
797.294	42.85
797.469	42.68
797.644	44.04
797.82	41.74
797.995	42.08
798.17	41.24
798.345	43.22
798.52	40.79
798.695	39.81
798.87	39.09
799.045	38.15
799.22	39.62
799.395	39.61
799.57	37.73
799.745	39.72
799.92	41.77
800.095	41.09
800.27	40.5
800.445	40.39
800.62	39.26
800.795	36.66
800.97	37.46
801.145	37.6
801.319	38.74
801.494	41.55
801.669	43.88
801.844	43.01
802.018	46.61
802.193	49.68
802.368	49.31
802.543	52.68
802.717	57.09
802.892	57.94
803.067	57.91
803.241	59.21
803.416	58.42
803.59	55.05
803.765	54.05
803.94	50.73
804.114	48.23
804.289	53.09
804.463	51.46
804.638	49.53
804.812	48.25
804.986	47.08
805.161	46.59
805.335	44.62
805.51	43.62
805.684	42.42
805.858	43.42
806.033	41.54
806.207	36.79
806.381	37.86
806.556	38.99
806.73	39.79
806.904	38.51
807.078	37.82
807.253	38.35
807.427	36.92
807.601	38.37
807.775	37.57
807.949	41.66
808.123	42.72
808.298	45.55
808.472	45.28
808.646	46.37
808.82	48.17
808.994	48.01
809.168	50.12
809.342	52.11
809.516	50.92
809.69	50.27
809.864	52.17
810.038	52.96
810.212	50.84
810.385	47.53
810.559	45.9
810.733	46.07
810.907	44.14
811.081	41.99
811.255	42.1
811.428	45.8
811.602	48.57
811.776	46.59
811.95	45.27
812.123	42.75
812.297	43.85
812.471	47.37
812.644	49.09
812.818	54.38
812.992	54.57
813.165	54.3
813.339	50.63
813.512	47.6
813.686	50.52
813.86	52.27
814.033	55.97
814.207	58.27
814.38	54.48
814.554	53.5
814.727	49.67
814.9	52.01
815.074	49.53
815.247	52.63
815.421	57.53
815.594	52.6
815.767	51.9
815.941	50.63
816.114	52.45
816.287	52.02
816.46	50.36
816.634	47.25
816.807	48.28
816.98	51.12
817.153	51.5
817.327	50.83
817.5	54.91
817.673	55.67
817.846	54.7
818.019	50.6
818.192	54.37
818.365	53.43
818.538	52.75
818.711	53.41
818.884	50.16
819.057	44.95
819.23	42.89
819.403	41.38
819.576	41.01
819.749	40.78
819.922	40.71
820.095	40.06
820.268	41.84
820.441	43.97
820.614	40.38
820.786	42.14
820.959	41.17
821.132	38.88
821.305	38.04
821.477	37.91
821.65	37.59
821.823	36.95
821.996	35.65
822.168	34.42
822.341	34.34
822.514	34.12
822.686	33.36
822.859	33.23
823.031	33.53
823.204	33.6
823.376	33.22
823.549	32.95
823.722	32.51
823.894	33.39
824.067	33.22
824.239	32.61
824.411	33.38
824.584	33.53
824.756	34.32
824.929	34.51
825.101	35.9
825.273	36.44
825.446	36.71
825.618	37.56
825.79	37.47
825.963	37.96
826.135	37.28
826.307	38.08
826.479	37.54
826.652	36.33
826.824	36.37
826.996	35.64
827.168	35.69
827.34	35.06
827.512	34.22
827.684	33.52
827.856	33.58
828.029	35.12
828.201	34.37
828.373	33.43
828.545	33.55
828.717	32.54
828.889	32.4
829.061	32.39
829.232	31.9
829.404	32.25
829.576	32.79
829.748	34.24
829.92	36.06
830.092	34.75
830.264	38.17
830.436	40.78
830.607	41.93
830.779	40.9
830.951	39.37
831.123	40.03
831.294	38.35
831.466	35.91
831.638	36.8
831.809	33.32
831.981	32.32
832.153	32.11
832.324	30.11
832.496	34.46
832.667	34.97
832.839	37.13
833.011	39.81
833.182	42.49
833.354	42.23
833.525	39.87
833.697	42.27
833.868	40.99
834.039	41.09
834.211	41.51
834.382	39.85
834.554	39.4
834.725	37.72
834.896	36.63
835.068	38.58
835.239	39.93
835.41	40.88
835.581	40.2
835.753	43.37
835.924	41.76
836.095	40.33
836.266	39.37
836.438	38.18
836.609	41.78
836.78	43.24
836.951	42.58
837.122	40.16
837.293	40.42
837.464	39.67
837.635	39.44
837.806	40.85
837.977	43.76
838.148	49.65
838.319	53.85
838.49	53.67
838.661	53.9
838.832	55.65
839.003	59.13
839.174	61.27
839.345	58.57
839.516	59.19
839.687	70.07
839.857	68.21
840.028	58.67
840.199	51.93
840.37	53.67
840.54	50.17
840.711	47.81
840.882	44.46
841.053	46.34
841.223	51.95
841.394	53.78
841.564	44.88
841.735	46.24
841.906	49.02
842.076	51.36
842.247	52.23
842.417	53.71
842.588	53.14
842.758	57.69
842.929	50.38
843.099	47.23
843.27	47.98
843.44	54.93
843.611	51.25
843.781	51.7
843.951	54.77
844.122	63.31
844.292	59.68
844.462	61.39
844.633	57.64
844.803	61.57
844.973	64.3
845.144	63.81
845.314	56.78
845.484	66.36
845.654	63.69
845.824	70.18
845.995	51.95
846.165	67.21
846.335	61.76
846.505	71.93
846.675	71.78
846.845	65.61
847.015	66.65
847.185	73.81
847.355	62.79
847.525	69.17
847.695	63.02
847.865	58.28
848.035	55.4
848.205	58.88
848.375	57.73
848.545	42.72
848.715	43.98
848.884	48.12
849.054	44.76
849.224	56.84
849.394	68.18
849.564	64
849.733	79.45
849.903	66.53
850.073	67.01
850.243	72.06
850.412	89.19
850.582	113.26
850.752	122.36
850.921	121.41
851.091	114.58
851.26	91.15
851.43	92.05
851.599	84.38
851.769	108.7
851.939	104.53
852.108	104.05
852.278	110.22
852.447	82.79
852.616	81.43
852.786	93.26
852.955	88.47
853.125	91.75
853.294	100.76
853.463	110.35
853.633	98.24
853.802	113.9
853.971	120.13
854.141	111.76
854.31	114.62
854.479	117.26
854.648	119.06
854.818	109.36
854.987	112.08
855.156	112.03
855.325	98.76
855.494	99.68
855.663	88.18
855.832	84.75
856.001	89
856.171	91.72
856.34	79.66
856.509	78.46
856.678	75.79
856.847	60.97
857.016	50.24
857.185	53.34
857.353	45.33
857.522	47.23
857.691	48.42
857.86	42.76
858.029	32.15
858.198	33.51
858.367	36.55
858.535	38.65
858.704	44.87
858.873	61.75
859.042	69.07
859.21	86.85
859.379	95.91
859.548	91.08
859.717	85.83
859.885	82.87
860.054	83.73
860.222	73.55
860.391	67.92
860.56	86.05
860.728	72.81
860.897	70.72
861.065	62.37
861.234	51.88
861.402	59.74
861.571	65.5
861.739	76.66
861.908	75.41
862.076	81.57
862.244	83.89
862.413	75.34
862.581	86.15
862.749	83.76
862.918	84.59
863.086	92.54
863.254	83.42
863.423	91.9
863.591	85.75
863.759	84.66
863.927	75.53
864.096	68.71
864.264	55.59
864.432	44.63
864.6	34.2
864.768	41.79
864.936	41.46
865.104	37.72
865.272	27.73
865.44	39.57
865.608	41.16
865.776	45.34
865.944	81.12
866.112	89
866.28	83.88
866.448	85.25
866.616	96.13
866.784	90.1
866.952	82.86
867.12	86.61
867.288	77.25
867.455	99.85
867.623	97.46
867.791	74.98
867.959	78.05
868.127	69.14
868.294	74.75
868.462	72.86
868.63	73.63
868.797	80.81
868.965	85.05
869.133	80.79
869.3	71.4
869.468	78.33
869.636	84.04
869.803	90.08
869.971	116.1
870.138	131.89
870.306	133.51
870.473	122.64
870.641	108.75
870.808	105.46
870.975	115.55
871.143	130.56
871.31	113.91
871.478	106.67
871.645	101.53
871.812	91.2
871.98	90.68
872.147	81.25
872.314	77.16
872.482	77.8
872.649	77.05
872.816	68.38
872.983	61.17
873.15	69.03
873.318	73.18
873.485	74.96
873.652	70.88
873.819	97.1
873.986	95.91
874.153	110.54
874.32	116.16
874.487	121.8
874.654	111.77
874.821	108.23
874.988	108.91
875.155	103.12
875.322	79.73
875.489	82.61
875.656	44.98
875.823	29.39
875.99	16.76
876.157	15.05
876.324	25.89
876.49	23.66
876.657	10.53
876.824	4.05
876.991	6.71
877.157	29.57
877.324	31.87
877.491	36.1
877.658	43.75
877.824	47.89
877.991	39.95
878.157	35.44
878.324	46.34
878.491	49.27
878.657	61.36
878.824	73.91
878.99	65.26
879.157	63.81
879.323	62.57
879.49	69.76
879.656	85.9
879.823	85.67
879.989	80.23
880.156	88.87
880.322	82.1
880.488	77.01
880.655	72.05
880.821	79.85
880.987	78.05
881.154	73.99
881.32	64.88
881.486	54.27
881.652	52.27
881.819	52.93
881.985	45.28
882.151	48.67
882.317	46.27
882.483	47.66
882.649	48.72
882.816	44.17
882.982	44.09
883.148	43.28
883.314	42.42
883.48	42.42
883.646	43.59
883.812	46.4
883.978	43.89
884.144	44.71
884.31	43.71
884.476	40.52
884.642	45.78
884.807	47.92
884.973	49.27
885.139	50.43
885.305	49.74
885.471	45.66
885.637	44.55
885.802	45.22
885.968	46.34
886.134	46.66
886.3	47.32
886.465	43.28
886.631	46.09
886.797	46.1
886.962	47.62
887.128	47.72
887.293	53.36
887.459	51.53
887.625	50.91
887.79	50.21
887.956	47.79
888.121	50.7
888.287	50.87
888.452	38.27
888.618	40.33
888.783	40.73
