Data from 2938070_Reflection_2.txt Node
Date: Sat Jul 11 20:39:49 EDT 2015
User: robert
Spectrometer: USB4E03001
Autoset integration time: false
Trigger mode: 4
Integration Time (sec): 1.000000E-1
Scans to average: 10
Electric dark correction enabled: true
Nonlinearity correction enabled: false
Boxcar width: 5
Stray light correction enabled: false
XAxis mode: Wavelengths
Stop averaging: false
Number of Pixels in Spectrum: 3648
>>>>>Begin Spectral Data<<<<<
177.566	-40.66
177.785	23.03
178.005	39.2
178.225	13.61
178.445	8.23
178.665	-58.61
178.885	250.29
179.105	-40.81
179.324	-981.48
179.544	-123.27
179.764	-139.42
179.984	-55.71
180.204	31.17
180.423	-45.57
180.643	387.41
180.863	72.54
181.083	62.08
181.302	52.29
181.522	36.18
181.742	19.17
181.961	33.43
182.181	44.28
182.401	42.24
182.621	38.95
182.84	6.35
183.06	-17.52
183.279	-19.69
183.499	-66.18
183.719	-73.23
183.938	-106.47
184.158	-39.15
184.377	-190.07
184.597	-83.7
184.816	-391.97
185.036	187.28
185.256	79.38
185.475	82.44
185.695	458.71
185.914	279.3
186.134	-1218.99
186.353	-44.26
186.572	364.31
186.792	181.45
187.011	1252.17
187.231	-128.83
187.45	-63.68
187.67	-46.8
187.889	47.94
188.108	63.65
188.328	90.48
188.547	55.2
188.766	-62.17
188.986	-3.93
189.205	4.3
189.424	11.27
189.644	-0.19
189.863	-15.62
190.082	-37.16
190.302	-93.4
190.521	-139.86
190.74	-137.97
190.959	-229.71
191.178	-399.74
191.398	-357.17
191.617	-353.46
191.836	-1120.75
192.055	-290.32
192.274	-196.63
192.494	-217.94
192.713	-100.06
192.932	-65.61
193.151	-80.33
193.37	-32.04
193.589	-3.3
193.808	-29.66
194.027	-77.14
194.246	-99.55
194.465	-95.84
194.685	-99.05
194.904	-165.44
195.123	-509.7
195.342	34.29
195.561	-0.48
195.78	-2.53
195.999	4.78
196.218	18.47
196.436	-23.17
196.655	14.45
196.874	-3.81
197.093	1.31
197.312	18.41
197.531	54.31
197.75	32.68
197.969	60
198.188	58.59
198.407	-79.14
198.625	-235.4
198.844	-108.6
199.063	180.83
199.282	102.53
199.501	62.88
199.719	103.51
199.938	156.19
200.157	226.49
200.376	225.7
200.594	149.62
200.813	102.14
201.032	163.65
201.251	168.57
201.469	201.3
201.688	-44328.57
201.907	-46.51
202.125	3384.52
202.344	-54.97
202.563	10.99
202.781	22.18
203	4.83
203.218	-38.61
203.437	-5.38
203.656	69.84
203.874	83.48
204.093	54.38
204.311	-69.33
204.53	33.62
204.748	200.3
204.967	95.19
205.185	62.58
205.404	34.56
205.622	-46.63
205.841	-158.63
206.059	-117.37
206.278	-222.04
206.496	949.59
206.715	-689.52
206.933	505.13
207.151	674.78
207.37	291.77
207.588	443.35
207.806	399.2
208.025	395.61
208.243	-125.66
208.461	-125.01
208.68	-378.72
208.898	-58.36
209.116	-8.48
209.335	-44.49
209.553	10.71
209.771	12.37
209.989	3.59
210.208	41.64
210.426	41.36
210.644	42.23
210.862	0.09
211.081	11.04
211.299	8.36
211.517	1.84
211.735	49.46
211.953	-353.68
212.171	459.31
212.39	-173.59
212.608	-168.65
212.826	-108.4
213.044	90.04
213.262	575.98
213.48	334.86
213.698	199.29
213.916	579.69
214.134	217.91
214.352	167.84
214.57	149.58
214.788	140.37
215.006	109.16
215.224	157.04
215.442	599.84
215.66	239.75
215.878	-195.28
216.096	19.53
216.314	-127.21
216.532	-74.38
216.75	8.72
216.968	-0.42
217.185	-43.7
217.403	-111.86
217.621	-131.53
217.839	-239.66
218.057	2083.95
218.275	223.96
218.492	155.8
218.71	228.92
218.928	291.54
219.146	-218.33
219.363	-98.36
219.581	382.93
219.799	143.41
220.017	55.06
220.234	78.23
220.452	69.7
220.67	74.54
220.887	76.01
221.105	68.81
221.323	76.76
221.54	46.09
221.758	52.41
221.976	45.62
222.193	45.95
222.411	56.16
222.629	73.05
222.846	76.79
223.064	72.13
223.281	56.81
223.499	35.72
223.716	14.86
223.934	1.26
224.151	8.09
224.369	5.47
224.586	-24.31
224.804	-27.7
225.021	-64.92
225.239	-75.59
225.456	-58.14
225.674	-73.45
225.891	-36.79
226.108	-31.38
226.326	-5.11
226.543	-5.57
226.76	3.05
226.978	22.14
227.195	26.66
227.413	23.55
227.63	19.9
227.847	22.07
228.064	20.42
228.282	20.24
228.499	17.87
228.716	16.43
228.934	16.71
229.151	15.72
229.368	13.99
229.585	17.33
229.802	18.32
230.02	18.85
230.237	16.95
230.454	19.42
230.671	14.84
230.888	13.1
231.105	12.65
231.323	11.16
231.54	3.98
231.757	3.88
231.974	-3.46
232.191	-2.51
232.408	-10.37
232.625	-6.71
232.842	-9.5
233.059	1.06
233.276	0.85
233.493	5.01
233.71	-0.58
233.927	10.72
234.144	10.02
234.361	10.18
234.578	10.41
234.795	16.58
235.012	12.59
235.229	16.42
235.446	18.8
235.663	22.18
235.879	19.95
236.096	24.32
236.313	21
236.53	17.51
236.747	17.42
236.964	16.49
237.181	18.52
237.397	18.26
237.614	15.52
237.831	14.41
238.048	12.63
238.264	11.69
238.481	4.56
238.698	6.09
238.915	9.24
239.131	12.05
239.348	15.44
239.565	9.65
239.781	11.57
239.998	16.65
240.215	11.69
240.431	12.59
240.648	13.07
240.865	14.54
241.081	11.38
241.298	13.69
241.514	12.53
241.731	11.18
241.947	14.3
242.164	12.19
242.38	10.57
242.597	11.5
242.814	13.61
243.03	13.94
243.246	14.68
243.463	13.48
243.679	13.24
243.896	13.27
244.112	13.47
244.329	11.96
244.545	15.54
244.762	16.59
244.978	14.21
245.194	13.09
245.411	12.99
245.627	13.58
245.843	16.5
246.06	13.68
246.276	13.78
246.492	12.22
246.709	12.19
246.925	10.85
247.141	9.84
247.357	10.58
247.574	11.03
247.79	11.06
248.006	10.97
248.222	10.52
248.439	11.3
248.655	9.3
248.871	10.78
249.087	10.51
249.303	10.34
249.519	12.42
249.736	12.34
249.952	12.01
250.168	13.45
250.384	13.07
250.6	15.09
250.816	15.09
251.032	18.46
251.248	16.01
251.464	16.48
251.68	17.91
251.896	13.33
252.112	12.68
252.328	11.17
252.544	10.17
252.76	10.19
252.976	7.63
253.192	7.74
253.408	8.53
253.624	6.85
253.84	4.68
254.056	4.73
254.272	7.32
254.487	9.08
254.703	10.52
254.919	11.04
255.135	10.71
255.351	13.27
255.567	13.27
255.782	10.79
255.998	16.74
256.214	18.16
256.43	13.57
256.646	15.13
256.861	12.29
257.077	11.87
257.293	10.84
257.508	12.52
257.724	9.7
257.94	8.44
258.155	6.87
258.371	3.5
258.587	4.54
258.802	5.52
259.018	5.45
259.234	6.89
259.449	6.83
259.665	7.32
259.88	7.68
260.096	9.24
260.312	8.83
260.527	10.29
260.743	11.99
260.958	11.76
261.174	11.9
261.389	12.31
261.605	12.58
261.82	12.4
262.036	13.42
262.251	12.41
262.466	12.13
262.682	11.53
262.897	10.04
263.113	8.19
263.328	8.75
263.543	10.57
263.759	8.91
263.974	6.52
264.189	7.2
264.405	8.24
264.62	10.15
264.835	7.96
265.051	13.73
265.266	13.77
265.481	14.55
265.696	14.33
265.912	15.33
266.127	15.71
266.342	15.96
266.557	14.32
266.773	11.62
266.988	13.19
267.203	12.94
267.418	11.2
267.633	12.13
267.848	11.59
268.064	10.75
268.279	8.71
268.494	9.58
268.709	9.65
268.924	10.34
269.139	10.75
269.354	7.69
269.569	10.38
269.784	11.46
269.999	10.34
270.214	10.61
270.429	10.56
270.644	10.56
270.859	8.41
271.074	8.55
271.289	7.67
271.504	6.24
271.719	6.04
271.934	5.02
272.149	2.2
272.363	3.33
272.578	3.5
272.793	3.38
273.008	4.73
273.223	3.99
273.438	3.92
273.653	4.8
273.867	6.07
274.082	6.96
274.297	6.16
274.512	7.36
274.726	7.38
274.941	6.56
275.156	7.43
275.371	6.79
275.585	9.57
275.8	9.05
276.015	10.33
276.229	11.21
276.444	12.68
276.659	12.87
276.873	15.09
277.088	13.44
277.302	13.26
277.517	14.09
277.732	12.01
277.946	11.14
278.161	11.09
278.375	11.07
278.59	10.89
278.804	8.91
279.019	8.33
279.233	4.26
279.448	5.83
279.662	6.68
279.877	4.13
280.091	4.77
280.306	4.49
280.52	5.2
280.735	4.85
280.949	3.93
281.163	3.18
281.378	3.64
281.592	4.78
281.806	3.62
282.021	2.05
282.235	3.46
282.449	6.2
282.664	6.65
282.878	7.4
283.092	7.55
283.307	9.49
283.521	10.86
283.735	12.23
283.949	12.87
284.164	13.87
284.378	14.48
284.592	14.38
284.806	12.83
285.02	13.43
285.234	12.23
285.449	11.39
285.663	10.12
285.877	10.42
286.091	10.74
286.305	10.96
286.519	10.88
286.733	11.67
286.947	10.65
287.161	11.18
287.375	10.43
287.589	11.74
287.803	13.16
288.017	13.4
288.231	12.47
288.445	10.78
288.659	10.74
288.873	11.34
289.087	9.49
289.301	8.24
289.515	7.29
289.729	5.94
289.943	7.05
290.157	6.97
290.371	5.42
290.584	5.89
290.798	6.94
291.012	5.9
291.226	5.24
291.44	5.59
291.654	8.21
291.867	9.03
292.081	10.62
292.295	10.76
292.509	8.76
292.722	9.32
292.936	8.63
293.15	7.38
293.364	9.86
293.577	9.51
293.791	11.25
294.005	10.61
294.218	10.95
294.432	11.17
294.645	10.38
294.859	10.92
295.073	11.27
295.286	12.56
295.5	13.22
295.713	13.32
295.927	13.25
296.14	12.54
296.354	12.67
296.568	11.9
296.781	12.1
296.994	11.57
297.208	12.43
297.421	12.08
297.635	12.21
297.848	12.54
298.062	12.33
298.275	12.38
298.489	12.14
298.702	12.69
298.915	14.05
299.129	13.7
299.342	13.73
299.555	11.38
299.769	11.11
299.982	10.13
300.195	8.74
300.409	7.85
300.622	8.35
300.835	9.39
301.048	7.58
301.262	6.08
301.475	5.7
301.688	5.39
301.901	7.5
302.115	8.96
302.328	8.99
302.541	8.68
302.754	9.18
302.967	8.06
303.18	6.68
303.393	9.2
303.607	10.43
303.82	10.57
304.033	11.95
304.246	12.04
304.459	12.1
304.672	11.99
304.885	11.93
305.098	11.71
305.311	12.2
305.524	12.5
305.737	12.96
305.95	13.93
306.163	16.66
306.376	16.98
306.589	16.85
306.802	17.64
307.015	17.32
307.228	17.61
307.44	15.05
307.653	13.4
307.866	13.42
308.079	10.84
308.292	10.85
308.505	9.77
308.718	10.56
308.93	9.63
309.143	8.27
309.356	9.51
309.569	9.69
309.781	11.21
309.994	13.1
310.207	11.47
310.42	11.41
310.632	10.26
310.845	8.65
311.058	7.47
311.27	10.51
311.483	10.2
311.696	10.24
311.908	11.51
312.121	12.11
312.333	10.46
312.546	12.03
312.759	12.88
312.971	12.22
313.184	13.96
313.396	13.81
313.609	10.65
313.821	11.89
314.034	11.12
314.246	10.53
314.459	9.21
314.671	8.81
314.884	8.75
315.096	8.61
315.309	9.47
315.521	9.93
315.733	11.02
315.946	11.54
316.158	11.07
316.371	10.79
316.583	9.69
316.795	10.56
317.008	13.41
317.22	13.76
317.432	13.4
317.644	12.67
317.857	10.9
318.069	10.93
318.281	11.53
318.494	11.49
318.706	13.31
318.918	15.2
319.13	14.38
319.342	14.15
319.555	12.92
319.767	12.35
319.979	13.07
320.191	13.71
320.403	11.46
320.615	11.43
320.827	11.49
321.039	10.96
321.252	8.6
321.464	11.62
321.676	11.7
321.888	13.22
322.1	13.88
322.312	13.74
322.524	11.72
322.736	13.07
322.948	10.97
323.16	8.8
323.372	7.29
323.584	7.71
323.796	4.89
324.007	3.01
324.219	2.99
324.431	3.86
324.643	3.69
324.855	5.69
325.067	6.27
325.279	9.28
325.491	10.98
325.702	13.11
325.914	13.03
326.126	13.58
326.338	14.53
326.55	14.44
326.761	13.53
326.973	13.19
327.185	13.51
327.396	14.27
327.608	12.51
327.82	12.91
328.032	10.25
328.243	10.02
328.455	11.43
328.666	9.66
328.878	8.65
329.09	9.14
329.301	9.29
329.513	7.98
329.725	4.98
329.936	4.52
330.148	6.56
330.359	8.41
330.571	7.68
330.782	6.94
330.994	6.68
331.205	6.27
331.417	6.58
331.628	6.35
331.84	6.42
332.051	9.85
332.262	10.3
332.474	8.35
332.685	6.43
332.897	7.68
333.108	4.89
333.319	6.53
333.531	8.85
333.742	7.97
333.953	7.04
334.165	5.8
334.376	2.47
334.587	2.41
334.799	1.36
335.01	2.58
335.221	3.05
335.432	5.34
335.644	5.38
335.855	4.89
336.066	6.97
336.277	8.6
336.488	9.76
336.7	12.24
336.911	12.52
337.122	12.6
337.333	12.15
337.544	11.37
337.755	12.15
337.966	13.75
338.177	12.92
338.388	10.75
338.599	11.3
338.811	11.23
339.022	9.36
339.233	9.25
339.444	8.55
339.655	8.16
339.866	8.27
340.076	8.17
340.287	6.57
340.498	6.24
340.709	6.63
340.92	4.58
341.131	4.63
341.342	4.35
341.553	5.04
341.764	6.13
341.975	8.29
342.185	8.75
342.396	7.73
342.607	7.83
342.818	7.43
343.029	7.63
343.239	7.69
343.45	7.14
343.661	7.8
343.872	7.53
344.082	8.12
344.293	5.98
344.504	6.69
344.714	6.54
344.925	7.49
345.136	9.53
345.346	9.2
345.557	10.15
345.768	10.72
345.978	11.14
346.189	11.02
346.399	10.51
346.61	12.29
346.821	12.01
347.031	11.38
347.242	10.19
347.452	9.14
347.663	8.55
347.873	9.11
348.084	8.69
348.294	8.59
348.504	8.46
348.715	7.6
348.925	7.72
349.136	7.05
349.346	9.15
349.557	9.33
349.767	10.81
349.977	11.42
350.188	11.5
350.398	9.37
350.608	9.43
350.819	9.01
351.029	11.36
351.239	9.67
351.449	11.07
351.66	9.22
351.87	9.14
352.08	6.12
352.29	6.23
352.501	5.43
352.711	7.34
352.921	7.28
353.131	8.18
353.341	7.17
353.552	8.7
353.762	8.26
353.972	8.68
354.182	8.37
354.392	8.88
354.602	8.94
354.812	9.36
355.022	10.38
355.232	10.35
355.442	8.77
355.652	8.27
355.862	7.96
356.072	8.08
356.282	8.34
356.492	9.95
356.702	10.51
356.912	10.78
357.122	10.71
357.332	10.24
357.542	10.4
357.752	12.5
357.962	12.46
358.171	12.46
358.381	11.32
358.591	10.04
358.801	9.94
359.011	9.88
359.221	9.2
359.43	8.82
359.64	8.5
359.85	7.69
360.06	7.07
360.269	6.97
360.479	6.22
360.689	7
360.899	7.82
361.108	6.81
361.318	7.26
361.528	8.01
361.737	7.47
361.947	7.62
362.156	8.87
362.366	9.12
362.576	9.14
362.785	8.83
362.995	9.41
363.204	9.64
363.414	9.7
363.623	9.98
363.833	9.78
364.042	10.57
364.252	11.24
364.461	10.47
364.671	10.44
364.88	10.2
365.09	10.8
365.299	9.45
365.509	9.49
365.718	9.19
365.927	8.62
366.137	8.39
366.346	7.99
366.555	7.34
366.765	7.6
366.974	6.56
367.183	7.47
367.393	6.75
367.602	7.75
367.811	7.58
368.021	7.03
368.23	7.06
368.439	6.59
368.648	6.83
368.857	6.58
369.067	5.67
369.276	5.35
369.485	5.04
369.694	5.89
369.903	5.26
370.112	5.48
370.321	6.3
370.531	5.4
370.74	5.16
370.949	4.84
371.158	5.25
371.367	5.33
371.576	5.97
371.785	6.06
371.994	5.57
372.203	5.59
372.412	5.79
372.621	5.44
372.83	5.67
373.039	5.58
373.248	5.08
373.457	4.73
373.666	4.01
373.874	3.78
374.083	3.15
374.292	3.9
374.501	3.65
374.71	3.1
374.919	3.5
375.128	4.14
375.336	4.17
375.545	4.09
375.754	3.83
375.963	4.72
376.171	5.01
376.38	5.41
376.589	5.11
376.798	5.09
377.006	5.36
377.215	5.53
377.424	5.53
377.632	6.45
377.841	6.4
378.05	7.15
378.258	7.3
378.467	6.81
378.675	7.24
378.884	7.39
379.093	7.06
379.301	7.01
379.51	6.79
379.718	6.25
379.927	5.51
380.135	6.11
380.344	5.96
380.552	5.41
380.761	5.45
380.969	5.12
381.177	5.2
381.386	5.33
381.594	5.54
381.803	5.8
382.011	6.45
382.219	6.46
382.428	5.75
382.636	5.41
382.845	5.71
383.053	5.25
383.261	4.63
383.469	4.29
383.678	4.45
383.886	4.44
384.094	3.72
384.302	2.95
384.511	3.42
384.719	4.18
384.927	4.24
385.135	3.68
385.343	4.24
385.552	4.39
385.76	4.48
385.968	4.18
386.176	3.75
386.384	3.72
386.592	3.77
386.8	3.43
387.008	2.91
387.216	2.96
387.424	3.33
387.633	3.41
387.841	3.34
388.049	3.12
388.257	3.47
388.465	3.16
388.672	3.66
388.88	3.46
389.088	3.76
389.296	3.92
389.504	3.28
389.712	3.22
389.92	2.95
390.128	3.5
390.336	3.35
390.544	3.25
390.751	3.62
390.959	3.1
391.167	3.68
391.375	3.45
391.583	3.39
391.79	3.73
391.998	3.52
392.206	3.52
392.414	3.32
392.621	3.3
392.829	3.51
393.037	3.66
393.244	3.93
393.452	3.61
393.66	3.67
393.867	3.78
394.075	3.79
394.283	3.87
394.49	4.07
394.698	3.6
394.905	3.81
395.113	3.44
395.32	3.17
395.528	3.16
395.735	2.88
395.943	2.73
396.15	2.6
396.358	2.88
396.565	2.79
396.773	2.32
396.98	2.67
397.188	2.42
397.395	2.85
397.602	2.93
397.81	3.13
398.017	3.52
398.225	3.63
398.432	3.59
398.639	3.34
398.847	3.51
399.054	3.51
399.261	3.2
399.468	3.58
399.676	3.39
399.883	3.2
400.09	2.89
400.297	2.73
400.505	2.59
400.712	2.47
400.919	2.49
401.126	2.26
401.333	2.53
401.54	2.7
401.748	2.45
401.955	1.96
402.162	1.94
402.369	2.22
402.576	2.24
402.783	2.28
402.99	2.2
403.197	2.17
403.404	2.25
403.611	2.21
403.818	2.23
404.025	2.26
404.232	2.61
404.439	2.79
404.646	2.63
404.853	2.8
405.06	2.96
405.267	3.21
405.474	3.26
405.681	3.23
405.887	3.49
406.094	3.54
406.301	3.49
406.508	3.6
406.715	3.44
406.922	3.43
407.128	3.34
407.335	3.37
407.542	3.35
407.749	3.43
407.955	3.77
408.162	3.44
408.369	3.29
408.575	3.45
408.782	3.25
408.989	3.59
409.195	3.34
409.402	3.27
409.609	3.04
409.815	3.09
410.022	3.31
410.228	3.22
410.435	3.52
410.642	3.44
410.848	3.15
411.055	3.26
411.261	3.03
411.468	3.48
411.674	3.52
411.881	3.36
412.087	3.05
412.294	2.6
412.5	2.34
412.706	2.23
412.913	2.44
413.119	2.66
413.326	2.83
413.532	2.79
413.738	2.48
413.945	2.22
414.151	2.32
414.357	2.68
414.564	2.7
414.77	2.92
414.976	2.87
415.182	2.81
415.389	2.74
415.595	2.47
415.801	2.38
416.007	2.49
416.214	2.77
416.42	2.96
416.626	2.59
416.832	2.73
417.038	2.73
417.244	2.52
417.45	2.43
417.657	2.3
417.863	2.3
418.069	2.44
418.275	2.44
418.481	2.47
418.687	2.4
418.893	2.35
419.099	2.38
419.305	2.24
419.511	2.38
419.717	2.4
419.923	2.51
420.129	2.57
420.335	2.66
420.541	2.66
420.746	2.54
420.952	2.61
421.158	2.75
421.364	2.66
421.57	2.67
421.776	2.62
421.982	2.74
422.187	2.86
422.393	2.79
422.599	2.66
422.805	2.68
423.01	2.71
423.216	2.67
423.422	2.71
423.628	2.89
423.833	2.98
424.039	2.89
424.245	2.77
424.45	2.62
424.656	2.61
424.862	2.65
425.067	2.62
425.273	2.66
425.478	2.71
425.684	2.56
425.889	2.52
426.095	2.56
426.301	2.49
426.506	2.51
426.712	2.55
426.917	2.83
427.123	2.82
427.328	2.78
427.533	2.65
427.739	2.48
427.944	2.64
428.15	2.38
428.355	2.28
428.561	2.64
428.766	2.6
428.971	2.66
429.177	2.56
429.382	2.89
429.587	2.93
429.793	3.17
429.998	3.19
430.203	3.19
430.408	3.21
430.614	3.35
430.819	3.34
431.024	3.59
431.229	3.57
431.434	3.32
431.64	3.04
431.845	2.86
432.05	2.58
432.255	2.48
432.46	2.34
432.665	2.44
432.87	2.34
433.076	2.24
433.281	1.97
433.486	1.89
433.691	2.11
433.896	2.04
434.101	2.17
434.306	2.27
434.511	2.2
434.716	2.31
434.921	2.09
435.126	1.99
435.331	1.94
435.535	2.02
435.74	2.01
435.945	1.91
436.15	1.94
436.355	1.92
436.56	1.82
436.765	1.9
436.97	1.88
437.174	1.99
437.379	2.13
437.584	2.3
437.789	2.21
437.993	2.1
438.198	1.98
438.403	2.01
438.608	1.88
438.812	2.02
439.017	2.02
439.222	2.15
439.426	2.14
439.631	1.96
439.836	1.72
440.04	1.83
440.245	1.84
440.45	1.86
440.654	1.86
440.859	1.9
441.063	1.89
441.268	2.01
441.472	1.81
441.677	1.77
441.881	1.74
442.086	1.93
442.29	1.86
442.495	1.93
442.699	1.93
442.904	1.71
443.108	1.73
443.312	1.86
443.517	1.82
443.721	2.02
443.925	2.31
444.13	2.25
444.334	2.17
444.538	2.25
444.743	2.37
444.947	2.37
445.151	2.62
445.356	2.61
445.56	2.55
445.764	2.45
445.968	2.39
446.173	2.22
446.377	2.21
446.581	2.17
446.785	2.09
446.989	2.09
447.193	1.96
447.398	1.78
447.602	1.84
447.806	1.73
448.01	1.86
448.214	1.82
448.418	1.81
448.622	1.94
448.826	2.02
449.03	2.01
449.234	1.9
449.438	2
449.642	2.16
449.846	2.25
450.05	2.18
450.254	2.09
450.458	2.08
450.662	2.13
450.866	2.11
451.069	2.06
451.273	1.91
451.477	1.87
451.681	2.06
451.885	2.13
452.089	1.95
452.292	2.12
452.496	1.93
452.7	1.97
452.904	2.08
453.107	2.31
453.311	2.4
453.515	2.53
453.719	2.62
453.922	2.45
454.126	2.37
454.33	2.47
454.533	2.28
454.737	2.5
454.94	2.52
455.144	2.41
455.348	2.19
455.551	2.17
455.755	2.27
455.958	2.34
456.162	2.13
456.365	1.94
456.569	1.86
456.772	1.91
456.976	1.75
457.179	1.67
457.383	1.63
457.586	1.7
457.79	1.79
457.993	1.62
458.196	1.63
458.4	1.87
458.603	2.04
458.807	2.04
459.01	2.07
459.213	2.22
459.417	2.19
459.62	2.04
459.823	1.99
460.026	1.98
460.23	2
460.433	1.93
460.636	1.98
460.839	1.9
461.042	1.96
461.246	2.07
461.449	1.96
461.652	1.88
461.855	2.13
462.058	1.95
462.261	1.85
462.464	1.99
462.668	2.18
462.871	2.03
463.074	1.91
463.277	1.86
463.48	1.81
463.683	1.92
463.886	2.04
464.089	1.84
464.292	2.12
464.495	2.3
464.698	2.1
464.901	2.09
465.104	2.05
465.306	2.13
465.509	1.99
465.712	2.11
465.915	2.08
466.118	2.03
466.321	2.06
466.524	2.11
466.726	2.07
466.929	2.26
467.132	2.06
467.335	2.35
467.538	2.45
467.74	2.55
467.943	2.23
468.146	2.2
468.348	2.28
468.551	2.37
468.754	2.08
468.956	1.99
469.159	2.01
469.362	2.22
469.564	2.06
469.767	2.19
469.969	1.97
470.172	2.1
470.375	2.1
470.577	2.13
470.78	2.17
470.982	2.46
471.185	2.61
471.387	2.7
471.59	2.34
471.792	2.08
471.995	1.98
472.197	2.42
472.399	2.43
472.602	2.28
472.804	2.23
473.007	2.15
473.209	2.06
473.411	1.99
473.614	1.78
473.816	1.81
474.018	1.9
474.22	1.84
474.423	1.59
474.625	1.54
474.827	1.57
475.03	1.56
475.232	1.6
475.434	1.86
475.636	1.71
475.838	1.67
476.04	1.77
476.243	1.93
476.445	2.05
476.647	1.97
476.849	1.99
477.051	1.83
477.253	2.06
477.455	2.02
477.657	1.83
477.859	1.72
478.061	1.9
478.263	1.87
478.465	1.76
478.667	1.66
478.869	1.7
479.071	1.8
479.273	2.14
479.475	1.95
479.677	2.15
479.879	2.07
480.081	2.21
480.283	2.16
480.485	2.12
480.686	2.25
480.888	2.28
481.09	2.32
481.292	2.17
481.494	2.07
481.695	2.14
481.897	1.96
482.099	2.05
482.301	2.03
482.502	2.07
482.704	2.12
482.906	2.01
483.107	1.98
483.309	2.01
483.511	2.02
483.712	2.02
483.914	1.96
484.115	1.98
484.317	1.97
484.519	1.92
484.72	1.89
484.922	1.92
485.123	1.94
485.325	1.94
485.526	1.91
485.728	1.96
485.929	2
486.131	2.05
486.332	2.09
486.534	2.05
486.735	2.16
486.936	2.18
487.138	2.08
487.339	2.13
487.541	2.12
487.742	2.07
487.943	2.08
488.144	2.07
488.346	2.04
488.547	2.01
488.748	2.07
488.95	2.01
489.151	1.96
489.352	1.95
489.553	1.97
489.755	1.96
489.956	2.07
490.157	1.96
490.358	1.87
490.559	1.98
490.76	2.05
490.961	2.02
491.163	2.08
491.364	2.09
491.565	2.09
491.766	2.05
491.967	2.07
492.168	1.99
492.369	2.05
492.57	2.03
492.771	1.88
492.972	1.82
493.173	1.84
493.374	1.82
493.575	1.76
493.776	1.85
493.976	1.8
494.177	1.92
494.378	2.06
494.579	2.09
494.78	2.11
494.981	2.32
495.182	2.29
495.382	2.23
495.583	2.21
495.784	2.35
495.985	2.26
496.185	2.14
496.386	2.03
496.587	1.95
496.788	1.81
496.988	1.92
497.189	1.74
497.39	1.62
497.59	1.48
497.791	1.43
497.992	1.37
498.192	1.42
498.393	1.69
498.593	1.66
498.794	1.67
498.994	1.71
499.195	1.69
499.395	1.75
499.596	1.98
499.796	2.2
499.997	2.34
500.197	2.39
500.398	2.36
500.598	2.36
500.799	2.39
500.999	2.39
501.199	2.56
501.4	2.66
501.6	2.69
501.801	2.61
502.001	2.45
502.201	2.3
502.402	2.45
502.602	2.51
502.802	2.41
503.002	2.41
503.203	2.43
503.403	2.25
503.603	2.03
503.803	2.1
504.003	2.2
504.204	2.19
504.404	2.13
504.604	1.95
504.804	1.94
505.004	1.94
505.204	2.08
505.404	2.02
505.604	2.05
505.804	2.4
506.005	2.43
506.205	2.24
506.405	2.28
506.605	2.55
506.805	2.48
507.005	2.35
507.204	2.28
507.404	2.1
507.604	2.09
507.804	2.13
508.004	2.06
508.204	1.89
508.404	2.03
508.604	2.09
508.804	1.99
509.003	2.04
509.203	2.08
509.403	2.09
509.603	2
509.803	1.99
510.002	1.91
510.202	1.8
510.402	1.94
510.602	1.78
510.801	1.65
511.001	1.79
511.201	1.84
511.4	1.9
511.6	1.98
511.8	2.06
511.999	2.07
512.199	2.11
512.398	2.14
512.598	2.07
512.797	2.09
512.997	2.23
513.197	2.03
513.396	2
513.596	2.05
513.795	2.16
513.994	2.29
514.194	2.45
514.393	2.47
514.593	2.4
514.792	2.42
514.992	2.58
515.191	2.51
515.39	2.5
515.59	2.55
515.789	2.46
515.988	2.29
516.188	2
516.387	1.96
516.586	1.96
516.786	1.93
516.985	2.08
517.184	2.17
517.383	2.34
517.582	2.46
517.782	2.43
517.981	2.47
518.18	2.58
518.379	2.7
518.578	2.72
518.777	2.81
518.976	2.93
519.176	2.79
519.375	2.74
519.574	2.61
519.773	2.56
519.972	2.67
520.171	2.76
520.37	2.8
520.569	2.8
520.768	2.74
520.967	2.63
521.166	2.52
521.365	2.73
521.564	2.79
521.762	2.87
521.961	3.04
522.16	2.81
522.359	2.64
522.558	2.4
522.757	2.44
522.956	2.33
523.154	2.32
523.353	2.5
523.552	2.35
523.751	2.25
523.949	2.21
524.148	2.18
524.347	2.19
524.546	2.37
524.744	2.56
524.943	2.69
525.142	2.79
525.34	2.85
525.539	2.74
525.737	2.69
525.936	2.73
526.135	2.7
526.333	2.58
526.532	2.69
526.73	2.66
526.929	2.62
527.127	2.61
527.326	2.66
527.524	2.7
527.723	2.72
527.921	2.76
528.12	2.81
528.318	2.87
528.516	3.01
528.715	2.94
528.913	2.94
529.112	2.97
529.31	2.97
529.508	2.95
529.707	3.01
529.905	3.04
530.103	3.06
530.301	3.05
530.5	3.09
530.698	2.98
530.896	3.08
531.094	3.05
531.293	2.99
531.491	2.95
531.689	2.98
531.887	2.84
532.085	2.88
532.283	2.93
532.481	3.07
532.68	3.1
532.878	3.1
533.076	3.14
533.274	3.25
533.472	3.27
533.67	3.35
533.868	3.34
534.066	3.4
534.264	3.4
534.462	3.41
534.66	3.26
534.858	3.25
535.056	3.32
535.253	3.28
535.451	3.22
535.649	3.36
535.847	3.37
536.045	3.5
536.243	3.48
536.441	3.47
536.638	3.45
536.836	3.51
537.034	3.61
537.232	3.67
537.43	3.68
537.627	3.72
537.825	3.64
538.023	3.58
538.22	3.55
538.418	3.55
538.616	3.6
538.813	3.63
539.011	3.68
539.209	3.62
539.406	3.58
539.604	3.63
539.801	3.62
539.999	3.67
540.196	3.83
540.394	3.86
540.591	4
540.789	4.02
540.986	4.05
541.184	4
541.381	3.95
541.579	3.98
541.776	3.94
541.974	3.99
542.171	3.99
542.368	3.9
542.566	3.94
542.763	3.93
542.96	3.94
543.158	3.93
543.355	3.99
543.552	4
543.75	4.06
543.947	4.16
544.144	4.21
544.341	4.34
544.539	4.37
544.736	4.35
544.933	4.36
545.13	4.42
545.327	4.57
545.524	4.65
545.722	4.69
545.919	4.67
546.116	4.79
546.313	4.8
546.51	4.68
546.707	4.74
546.904	4.72
547.101	4.71
547.298	4.81
547.495	4.77
547.692	4.81
547.889	4.93
548.086	4.99
548.283	4.85
548.48	4.88
548.677	5.1
548.874	5.03
549.07	5.19
549.267	5.22
549.464	5.26
549.661	5.3
549.858	5.43
550.055	5.27
550.251	5.37
550.448	5.53
550.645	5.68
550.842	5.58
551.038	5.92
551.235	6.09
551.432	6.4
551.628	6.21
551.825	6.27
552.022	6.06
552.218	6.24
552.415	6.23
552.612	6.15
552.808	5.97
553.005	6.07
553.201	6.08
553.398	5.91
553.594	5.75
553.791	5.8
553.987	5.78
554.184	6.14
554.38	6.05
554.577	5.94
554.773	6.05
554.97	6.16
555.166	6.13
555.362	5.94
555.559	6.17
555.755	6.26
555.952	6.42
556.148	6.54
556.344	6.37
556.541	6.49
556.737	6.72
556.933	6.77
557.129	6.75
557.326	6.83
557.522	7.09
557.718	6.8
557.914	6.73
558.11	6.78
558.307	6.83
558.503	6.82
558.699	6.98
558.895	6.97
559.091	6.9
559.287	7
559.483	7.16
559.679	7.27
559.876	7.36
560.072	7.36
560.268	7.36
560.464	7.42
560.66	7.33
560.856	7.56
561.052	7.58
561.247	7.79
561.443	7.68
561.639	7.63
561.835	7.41
562.031	7.95
562.227	8.19
562.423	8.23
562.619	8.39
562.815	8.6
563.01	8.5
563.206	8.41
563.402	8.55
563.598	8.74
563.793	8.77
563.989	9
564.185	8.69
564.381	8.71
564.576	8.44
564.772	8.36
564.968	8.44
565.163	8.28
565.359	8.35
565.555	8.23
565.75	8.39
565.946	8.33
566.141	8.34
566.337	8.35
566.532	8.31
566.728	8.62
566.923	8.69
567.119	8.66
567.314	8.85
567.51	8.97
567.705	9.02
567.901	9.08
568.096	9.25
568.292	9.29
568.487	9.18
568.682	9.38
568.878	9.53
569.073	9.43
569.268	9.56
569.464	9.6
569.659	9.71
569.854	9.68
570.05	9.62
570.245	9.61
570.44	9.64
570.635	9.86
570.831	10
571.026	9.88
571.221	9.94
571.416	9.75
571.611	9.9
571.806	9.84
572.002	10.03
572.197	10
572.392	9.96
572.587	9.98
572.782	10.02
572.977	10.07
573.172	10.25
573.367	10.45
573.562	10.67
573.757	10.71
573.952	10.81
574.147	10.87
574.342	10.83
574.537	11.05
574.732	11.09
574.927	11.17
575.121	10.96
575.316	10.91
575.511	10.87
575.706	10.79
575.901	10.61
576.096	10.64
576.29	10.57
576.485	10.67
576.68	10.53
576.875	10.63
577.069	10.66
577.264	10.74
577.459	10.73
577.654	10.65
577.848	10.76
578.043	10.9
578.238	10.94
578.432	11.16
578.627	11.37
578.821	11.39
579.016	11.28
579.21	11.35
579.405	11.2
579.6	11.15
579.794	11.45
579.989	11.4
580.183	11.36
580.378	11.36
580.572	11.28
580.766	11.25
580.961	11.18
581.155	11.18
581.35	11.21
581.544	11.19
581.738	11.52
581.933	11.43
582.127	11.4
582.321	11.52
582.516	11.54
582.71	11.57
582.904	11.31
583.099	11.67
583.293	11.96
583.487	11.7
583.681	11.84
583.875	11.59
584.07	11.26
584.264	11.02
584.458	10.74
584.652	10.54
584.846	10.39
585.04	10.65
585.234	10.67
585.428	10.59
585.623	10.84
585.817	11.03
586.011	11.24
586.205	11.18
586.399	11.72
586.593	11.89
586.787	11.88
586.981	12.03
587.174	11.89
587.368	11.6
587.562	11.43
587.756	11.18
587.95	11.13
588.144	10.99
588.338	11.32
588.532	11.27
588.725	11.48
588.919	11.64
589.113	11.53
589.307	11.6
589.501	11.61
589.694	11.95
589.888	12.14
590.082	12.14
590.275	11.96
590.469	11.67
590.663	11.57
590.856	11.34
591.05	11.26
591.244	11.36
591.437	11.5
591.631	11.44
591.824	11.22
592.018	11.09
592.212	11.25
592.405	11.36
592.599	11.56
592.792	11.63
592.986	11.55
593.179	11.5
593.372	11.58
593.566	11.39
593.759	11.34
593.953	11.45
594.146	11.66
594.339	11.55
594.533	11.84
594.726	11.86
594.92	11.89
595.113	12.19
595.306	12.42
595.499	12.56
595.693	12.59
595.886	12.66
596.079	12.63
596.272	12.54
596.466	12.48
596.659	12.52
596.852	12.62
597.045	12.6
597.238	12.66
597.431	12.82
597.624	12.52
597.818	12.47
598.011	12.48
598.204	12.34
598.397	12.19
598.59	12.15
598.783	12.01
598.976	12.02
599.169	11.64
599.362	11.5
599.555	11.3
599.748	11.39
599.941	11.58
600.134	11.76
600.326	11.89
600.519	12.03
600.712	12.2
600.905	12.17
601.098	11.97
601.291	12.63
601.483	12.56
601.676	12.41
601.869	12.67
602.062	12.62
602.255	12.47
602.447	12.6
602.64	12.64
602.833	12.53
603.025	12.76
603.218	12.85
603.411	12.85
603.603	12.88
603.796	12.85
603.989	12.82
604.181	13.02
604.374	13.16
604.566	12.95
604.759	13.12
604.951	13.19
605.144	13.06
605.336	13.16
605.529	13.02
605.721	12.93
605.914	13.14
606.106	12.99
606.299	12.69
606.491	12.52
606.683	12.63
606.876	12.44
607.068	12.43
607.26	12.34
607.453	12.28
607.645	12.21
607.837	12.47
608.03	12.14
608.222	12.23
608.414	12.43
608.606	12.51
608.799	12.37
608.991	12.44
609.183	12.35
609.375	12.34
609.567	12.2
609.759	12.11
609.952	12.04
610.144	12.27
610.336	12.34
610.528	12.08
610.72	11.97
610.912	12.08
611.104	11.92
611.296	11.95
611.488	11.77
611.68	11.68
611.872	11.64
612.064	11.59
612.256	11.47
612.448	11.23
612.64	11.44
612.832	11.63
613.023	11.89
613.215	12.17
613.407	12.23
613.599	12.56
613.791	12.79
613.983	13.03
614.174	13.05
614.366	12.96
614.558	12.99
614.75	13.16
614.941	13.03
615.133	12.89
615.325	12.88
615.516	12.9
615.708	12.8
615.9	12.84
616.091	12.68
616.283	12.88
616.475	12.91
616.666	13.03
616.858	13
617.049	13.11
617.241	12.84
617.432	12.53
617.624	12.51
617.815	12.53
618.007	12.39
618.198	12.27
618.39	12.27
618.581	12.2
618.773	12.07
618.964	12.15
619.155	12.39
619.347	12.59
619.538	13.03
619.729	13.11
619.921	12.92
620.112	12.91
620.303	13.18
620.494	12.87
620.686	13.01
620.877	12.82
621.068	13.05
621.259	12.74
621.451	12.65
621.642	12.33
621.833	12.25
622.024	12.47
622.215	12.26
622.406	12.35
622.597	12.57
622.788	12.56
622.98	13.02
623.171	12.73
623.362	12.94
623.553	12.9
623.744	12.9
623.935	13.4
624.126	13.29
624.317	13.68
624.508	13.69
624.698	13.51
624.889	13.75
625.08	13.54
625.271	13.49
625.462	13.49
625.653	13.52
625.844	13.7
626.034	13.22
626.225	13.31
626.416	13.57
626.607	13.54
626.798	13.55
626.988	13.26
627.179	13.34
627.37	13.17
627.56	12.86
627.751	13.09
627.942	12.94
628.132	12.99
628.323	12.98
628.514	12.63
628.704	12.56
628.895	12.46
629.085	12.65
629.276	12.48
629.466	12.65
629.657	13.17
629.847	12.92
630.038	13.19
630.228	13.22
630.419	13.16
630.609	13.38
630.8	13.41
630.99	13.61
631.181	13.71
631.371	13.67
631.561	13.66
631.752	13.32
631.942	13.29
632.132	12.91
632.323	12.88
632.513	12.79
632.703	12.61
632.893	12.65
633.084	12.75
633.274	12.79
633.464	13.22
633.654	13.33
633.844	13.47
634.034	13.6
634.225	13.96
634.415	13.88
634.605	14.22
634.795	14.36
634.985	14.31
635.175	14.06
635.365	13.67
635.555	13.79
635.745	13.61
635.935	13.43
636.125	13.45
636.315	13.1
636.505	13.24
636.695	13.03
636.885	12.92
637.075	13.01
637.265	13.08
637.455	13.34
637.644	13.38
637.834	13.57
638.024	13.52
638.214	13.63
638.404	13.84
638.593	13.64
638.783	13.76
638.973	13.88
639.163	14.11
639.352	14.14
639.542	13.72
639.732	13.2
639.921	13.01
640.111	13.35
640.301	13.17
640.49	13.12
640.68	13.11
640.87	12.98
641.059	12.76
641.249	12.4
641.438	12.54
641.628	12.75
641.817	12.91
642.007	13.33
642.196	13.23
642.386	13.42
642.575	13.48
642.764	13.59
642.954	13.52
643.143	14.08
643.333	14.42
643.522	14.44
643.711	14.42
643.901	14.52
644.09	14.2
644.279	14.28
644.469	13.98
644.658	14.15
644.847	14.28
645.036	14.75
645.226	14
645.415	13.77
645.604	13.59
645.793	13.96
645.982	13.82
646.171	13.8
646.361	13.6
646.55	13.7
646.739	13.59
646.928	13.64
647.117	13.6
647.306	14.07
647.495	14.22
647.684	14.07
647.873	13.78
648.062	13.65
648.251	14.22
648.44	14.34
648.629	14.38
648.818	13.96
649.007	13.97
649.196	13.41
649.384	13.42
649.573	13.31
649.762	13.49
649.951	13.23
650.14	13.37
650.328	12.73
650.517	12.61
650.706	12.59
650.895	12.66
651.083	12.76
651.272	13.35
651.461	13.12
651.65	12.96
651.838	13.06
652.027	13.68
652.216	13.87
652.404	14.58
652.593	14.8
652.781	14.56
652.97	14.87
653.158	14.84
653.347	14.78
653.535	14.79
653.724	14.25
653.912	14.25
654.101	14.14
654.289	14.29
654.478	13.74
654.666	13.7
654.855	14.04
655.043	13.7
655.231	13.35
655.42	12.97
655.608	12.71
655.796	13.12
655.985	13.07
656.173	13
656.361	13.11
656.55	13.18
656.738	13.41
656.926	13.6
657.114	13.91
657.302	13.98
657.491	14.52
657.679	14.78
657.867	14.98
658.055	14.97
658.243	15.16
658.431	14.94
658.619	15.14
658.807	14.56
658.996	14.11
659.184	13.73
659.372	13.95
659.56	13.38
659.748	13.37
659.936	13.52
660.124	13.91
660.311	13.59
660.499	13.69
660.687	13.06
660.875	13.4
661.063	13.47
661.251	13.34
661.439	13.27
661.627	13.72
661.814	14.02
662.002	13.85
662.19	13.51
662.378	13.8
662.565	13.44
662.753	14.05
662.941	13.69
663.129	14.03
663.316	14.64
663.504	14.47
663.692	14.12
663.879	14
664.067	14.29
664.254	14.26
664.442	14.53
664.63	14.68
664.817	14.51
665.005	14.97
665.192	15.02
665.38	14.48
665.567	15.02
665.755	14.98
665.942	14.42
666.13	13.88
666.317	14.38
666.504	13.96
666.692	13.91
666.879	13.35
667.067	13.56
667.254	13.44
667.441	13.53
667.629	13.54
667.816	13.64
668.003	13.77
668.19	13.94
668.378	13.48
668.565	13.57
668.752	13.69
668.939	14.26
669.127	13.72
669.314	13.74
669.501	13.81
669.688	13.52
669.875	13.57
670.062	13.61
670.249	14.36
670.436	14.31
670.623	14.04
670.81	14.64
670.997	14.66
671.184	15.02
671.371	15.26
671.558	15.87
671.745	16.31
671.932	16.22
672.119	16.33
672.306	15.63
672.493	15.84
672.68	15.74
672.867	14.91
673.054	14.7
673.24	14.68
673.427	14.47
673.614	14.38
673.801	14
673.988	13.86
674.174	13.91
674.361	14.07
674.548	14.05
674.734	14.58
674.921	14.39
675.108	14.83
675.294	14.6
675.481	14.08
675.668	13.99
675.854	13.69
676.041	13.48
676.227	13.4
676.414	13.37
676.601	13.45
676.787	13.07
676.974	13.11
677.16	13.26
677.347	13.45
677.533	14.6
677.719	14.48
677.906	14.76
678.092	15.05
678.279	15
678.465	15.09
678.651	14.83
678.838	15.09
679.024	15.52
679.21	15.24
679.397	15.08
679.583	14.42
679.769	14.91
679.955	14.8
680.142	15.16
680.328	15.66
680.514	15.66
680.7	15.62
680.886	15.47
681.073	15.33
681.259	15.17
681.445	15.1
681.631	15.26
681.817	14.67
682.003	14.39
682.189	14.36
682.375	14
682.561	14.03
682.747	13.98
682.933	14.64
683.119	14.48
683.305	14.76
683.491	14.75
683.677	14.5
683.863	14.24
684.049	14.55
684.235	14.35
684.42	14.34
684.606	13.66
684.792	14.23
684.978	13.17
685.164	12.99
685.349	11.96
685.535	12.37
685.721	12.43
685.907	12.62
686.092	12.55
686.278	12.76
686.464	12.94
686.649	13.19
686.835	12.73
687.021	13.27
687.206	13.51
687.392	14.51
687.577	14.16
687.763	14.16
687.948	14.79
688.134	14.53
688.319	14.4
688.505	14.44
688.69	14.54
688.876	14.36
689.061	13.98
689.247	13.63
689.432	13.67
689.618	13.59
689.803	13.71
689.988	12.62
690.174	12.76
690.359	12.91
690.544	12.36
690.73	13.1
690.915	14.14
691.1	14.26
691.285	14.76
691.471	14.61
691.656	14.68
691.841	14.66
692.026	15.62
692.211	16.04
692.396	15.51
692.582	15.67
692.767	14.81
692.952	14.23
693.137	14.68
693.322	14.22
693.507	13.84
693.692	14.44
693.877	13.93
694.062	13.41
694.247	13.02
694.432	12.96
694.617	13.49
694.802	13.22
694.987	12.96
695.172	12.41
695.357	12.5
695.541	13.24
695.726	12.61
695.911	13.22
696.096	14.29
696.281	14.27
696.466	14.87
696.65	14.97
696.835	15.3
697.02	15.15
697.204	15.08
697.389	15.37
697.574	15.11
697.759	15.56
697.943	15.43
698.128	15
698.312	15.05
698.497	14.75
698.682	14.54
698.866	14.8
699.051	14.78
699.235	14.63
699.42	14.38
699.604	14.43
699.789	13.84
699.973	13.84
700.158	13.46
700.342	13.55
700.527	13.86
700.711	13.38
700.895	13.11
701.08	13.03
701.264	13.8
701.448	13.73
701.633	13.19
701.817	14.2
702.001	14.21
702.186	14.23
702.37	14.23
702.554	13.67
702.738	13.57
702.923	13.44
703.107	13.54
703.291	12.86
703.475	13.61
703.659	13.83
703.843	13.19
704.027	13.51
704.212	13.99
704.396	13.43
704.58	14.54
704.764	14.92
704.948	14.51
705.132	14.29
705.316	14.2
705.5	13.12
705.684	13.19
705.868	13.34
706.052	13.7
706.235	14.47
706.419	15.02
706.603	14.56
706.787	15.37
706.971	15.65
707.155	15.8
707.339	15.86
707.522	16.16
707.706	16.37
707.89	16.11
708.074	15.5
708.257	14.89
708.441	14.74
708.625	14.49
708.808	14.14
708.992	14.98
709.176	15.07
709.359	15.3
709.543	16.15
709.727	15.96
709.91	15.7
710.094	15.73
710.277	14.84
710.461	15.46
710.644	15.64
710.828	15.39
711.011	14.75
711.195	14.97
711.378	14.34
711.562	13.55
711.745	13.45
711.928	14.03
712.112	13.72
712.295	14.79
712.478	14.49
712.662	14.28
712.845	14.18
713.028	14.6
713.212	14.65
713.395	15.6
713.578	16.24
713.761	16.64
713.945	16.44
714.128	16.84
714.311	16.59
714.494	16.58
714.677	16.69
714.86	16.6
715.043	16.57
715.227	16.19
715.41	15.47
715.593	15.16
715.776	14.79
715.959	14.43
716.142	14.21
716.325	13.93
716.508	14
716.691	13.87
716.874	14.19
717.057	13.6
717.239	13.53
717.422	13.59
717.605	13.98
717.788	13.51
717.971	13.73
718.154	14.07
718.337	14.79
718.519	14.85
718.702	14.81
718.885	14.39
719.068	14.84
719.25	14.8
719.433	15.45
719.616	14.96
719.798	15.04
719.981	14.82
720.164	14.33
720.346	13.7
720.529	13.75
720.712	14.46
720.894	15.09
721.077	14.16
721.259	14.16
721.442	13.85
721.624	13.51
721.807	14.27
721.989	14.79
722.172	14.36
722.354	14.61
722.537	14.12
722.719	12.62
722.901	12.78
723.084	13.99
723.266	13.31
723.448	14.49
723.631	15.46
723.813	15.52
723.995	16.04
724.178	17.17
724.36	16.6
724.542	17.31
724.724	19.02
724.907	18.57
725.089	17.36
725.271	18.15
725.453	17.13
725.635	16.14
725.817	15.49
725.999	15.9
726.181	15.67
726.364	16.09
726.546	14.98
726.728	13.01
726.91	12.7
727.092	13.27
727.274	13.47
727.456	13.9
727.638	14.35
727.819	15.7
728.001	14.52
728.183	14.52
728.365	14.96
728.547	14.73
728.729	15.98
728.911	16.11
729.093	15.93
729.274	15.67
729.456	14.71
729.638	14.42
729.82	13.1
730.001	13.34
730.183	13.26
730.365	12.94
730.546	14.35
730.728	14.55
730.91	15.03
731.091	14.85
731.273	14.24
731.455	14.57
731.636	15.04
731.818	15.29
731.999	16.09
732.181	16.56
732.362	15.72
732.544	15.22
732.725	14.4
732.907	14.12
733.088	14.63
733.27	16.42
733.451	17.31
733.633	17.52
733.814	17.6
733.995	17.31
734.177	16.11
734.358	16.82
734.539	16.47
734.721	16.93
734.902	17.5
735.083	17.67
735.264	16.99
735.446	16.21
735.627	16.02
735.808	16.31
735.989	15.28
736.17	16.09
736.351	16.92
736.533	16.7
736.714	16.58
736.895	16.42
737.076	17.13
737.257	15.4
737.438	15.62
737.619	16.25
737.8	16.17
737.981	16.04
738.162	16.04
738.343	15.74
738.524	15.62
738.705	14.76
738.886	13.6
739.067	12.64
739.247	14.44
739.428	13.72
739.609	13.17
739.79	12.97
739.971	13.68
740.151	12.95
740.332	12.65
740.513	13.24
740.694	13.85
740.874	14.68
741.055	14.64
741.236	13.76
741.417	13.98
741.597	13.6
741.778	14.14
741.958	13.42
742.139	13.51
742.32	12.68
742.5	12.59
742.681	13.47
742.861	12.46
743.042	11.19
743.222	11.51
743.403	12.08
743.583	12.51
743.764	11.76
743.944	13
744.124	14.88
744.305	16.13
744.485	15.67
744.666	15.03
744.846	15.43
745.026	18.08
745.207	18.07
745.387	16.95
745.567	16.57
745.747	17.35
745.928	16.76
746.108	15.66
746.288	15.11
746.468	14.54
746.648	14.45
746.829	14.63
747.009	13.53
747.189	14.73
747.369	15.58
747.549	15.2
747.729	13.9
747.909	13.69
748.089	13.14
748.269	13.02
748.449	12.93
748.629	13.43
748.809	13
748.989	12.32
749.169	10.63
749.349	9.67
749.529	10.55
749.709	11.28
749.889	11.89
750.068	12.04
750.248	11.66
750.428	12.49
750.608	11.26
750.788	12.25
750.967	12.15
751.147	11.62
751.327	12.21
751.507	12.84
751.686	12.4
751.866	11.54
752.046	12.61
752.225	13.4
752.405	14.28
752.585	16.1
752.764	16
752.944	15.98
753.123	16.32
753.303	15.54
753.482	15.24
753.662	16.54
753.841	16.17
754.021	14.91
754.2	14.78
754.38	14.56
754.559	14.58
754.739	14.19
754.918	14.37
755.097	15.18
755.277	15.66
755.456	13.75
755.635	14.77
755.815	15.37
755.994	16.88
756.173	16.49
756.352	15.26
756.532	14.01
756.711	14.59
756.89	15.81
757.069	15.98
757.248	16.76
757.427	17.88
757.607	15.06
757.786	15.68
757.965	14.24
758.144	14.33
758.323	16.78
758.502	17.67
758.681	17.16
758.86	16.44
759.039	15.98
759.218	16.76
759.397	15.98
759.576	17.25
759.755	16.44
759.934	17.3
760.113	16.98
760.291	14.54
760.47	13.39
760.649	13.53
760.828	13.84
761.007	14.08
761.186	13.42
761.364	14.04
761.543	14.02
761.722	15.36
761.901	15.26
762.079	15.16
762.258	15.1
762.437	16.06
762.615	16.36
762.794	15.77
762.972	16.14
763.151	16.36
763.33	16.66
763.508	16.56
763.687	16.12
763.865	15.5
764.044	15.92
764.222	16.86
764.401	15.87
764.579	15.23
764.758	16.04
764.936	15.77
765.114	15.72
765.293	14.73
765.471	15.44
765.65	14.97
765.828	15.16
766.006	14.52
766.184	13.85
766.363	13.45
766.541	14.32
766.719	14.63
766.898	13.97
767.076	12.18
767.254	14.82
767.432	13.64
767.61	13.58
767.788	13.71
767.967	14.36
768.145	14.14
768.323	14.43
768.501	14.12
768.679	12.34
768.857	12.23
769.035	12.84
769.213	10.36
769.391	12.35
769.569	10.89
769.747	11.72
769.925	12.64
770.103	13.44
770.281	16.32
770.459	15.37
770.636	15.91
770.814	15.68
770.992	16.5
771.17	18.5
771.348	17.96
771.525	19.5
771.703	17.9
771.881	17.95
772.059	18.03
772.236	17.89
772.414	18.13
772.592	18.76
772.769	21.4
772.947	20.68
773.125	18.63
773.302	17.22
773.48	18.52
773.657	20.1
773.835	18.93
774.013	18.49
774.19	17.76
774.368	15.32
774.545	15.07
774.723	12.49
774.9	14.84
775.077	15.82
775.255	14.38
775.432	13.49
775.61	13.22
775.787	12.07
775.964	12.3
776.142	11.12
776.319	13.85
776.496	13
776.674	16.26
776.851	15.84
777.028	14.62
777.205	17.14
777.382	18.03
777.56	17.03
777.737	17.75
777.914	18.03
778.091	18.39
778.268	19.21
778.445	19.61
778.622	19.23
778.8	19.32
778.977	17.93
779.154	15.56
779.331	14.27
779.508	16.17
779.685	16.78
779.862	16.57
780.038	15.25
780.215	14.71
780.392	16.69
780.569	15.76
780.746	14.94
780.923	17.43
781.1	18.74
781.277	19.16
781.453	18.39
781.63	19.3
781.807	16.67
781.984	16.78
782.16	16.93
782.337	15.27
782.514	11.14
782.691	11.99
782.867	12.41
783.044	12.73
783.221	12.69
783.397	11.39
783.574	8.02
783.75	9.72
783.927	11.78
784.103	13.68
784.28	12.75
784.456	17.39
784.633	17.18
784.809	16.47
784.986	17.51
785.162	15.98
785.339	14.41
785.515	16.32
785.692	13.97
785.868	12.99
786.044	10.09
786.221	11.85
786.397	9.14
786.573	9.51
786.749	8.05
786.926	6.15
787.102	8.19
787.278	10.07
787.454	10.71
787.631	13.32
787.807	13.48
787.983	15.14
788.159	14
788.335	16.06
788.511	14.22
788.687	16.75
788.863	15.77
789.039	16.26
789.216	15.35
789.392	15.81
789.568	14.36
789.744	13.53
789.919	11.4
790.095	11.1
790.271	8.3
790.447	10.6
790.623	10.13
790.799	12.32
790.975	11.61
791.151	13.18
791.327	13.69
791.502	15.51
791.678	14.62
791.854	17.21
792.03	16.2
792.205	16.26
792.381	14.35
792.557	13.4
792.733	12.16
792.908	12.91
793.084	14.28
793.259	14.5
793.435	14.09
793.611	16.56
793.786	17.92
793.962	21.53
794.137	23.64
794.313	23.05
794.488	21.02
794.664	22.19
794.839	20.12
795.015	20.05
795.19	17.1
795.366	16.52
795.541	16.85
795.716	16.09
795.892	14.94
796.067	14.69
796.242	16.05
796.418	19.08
796.593	17.29
796.768	18.72
796.944	19.41
797.119	21.03
797.294	22.33
797.469	21.04
797.644	17.89
797.82	14.2
797.995	12.71
798.17	14.42
798.345	11.73
798.52	12.74
798.695	12.72
798.87	9.26
799.045	7.29
799.22	7.92
799.395	10.55
799.57	13.92
799.745	20.34
799.92	20.43
800.095	20.2
800.27	19.07
800.445	20.41
800.62	21.04
800.795	22.65
800.97	20.78
801.145	16.96
801.319	12.37
801.494	7.98
801.669	4.01
801.844	2.47
802.018	-1.22
802.193	-1.9
802.368	-7.56
802.543	-12.38
802.717	-12.42
802.892	-5.65
803.067	-2.57
803.241	-2.57
803.416	4.32
803.59	2.35
803.765	3.42
803.94	4.36
804.114	6.64
804.289	9.7
804.463	13.05
804.638	13.69
804.812	12.02
804.986	10.61
805.161	13.72
805.335	9.97
805.51	14.06
805.684	16.41
805.858	18.08
806.033	18.33
806.207	16.14
806.381	15.22
806.556	16.7
806.73	16.29
806.904	16.21
807.078	14.94
807.253	15.8
807.427	15.48
807.601	12.88
807.775	12.86
807.949	16.39
808.123	16.53
808.298	17.27
808.472	12.86
808.646	14.9
808.82	14.68
808.994	17.51
809.168	20.84
809.342	17.66
809.516	17.88
809.69	18.96
809.864	16.29
810.038	18.61
810.212	17.76
810.385	18.49
810.559	15.15
810.733	14.91
810.907	15.35
811.081	13.77
811.255	15.99
811.428	19.86
811.602	19.13
811.776	17.29
811.95	19.44
812.123	21.6
812.297	22.66
812.471	23.71
812.644	24.59
812.818	20.06
812.992	19.13
813.165	20.3
813.339	16.12
813.512	14.57
813.686	14.19
813.86	14.87
814.033	12.15
814.207	14.93
814.38	14.85
814.554	17.61
814.727	21
814.9	15.49
815.074	15.94
815.247	14.56
815.421	13.52
815.594	15.96
815.767	13.02
815.941	12.79
816.114	6.02
816.287	9.5
816.46	7.61
816.634	11.97
816.807	24.37
816.98	18.74
817.153	23.56
817.327	26.2
817.5	27.11
817.673	24.96
817.846	26.08
818.019	30.71
818.192	24.58
818.365	24.6
818.538	17.46
818.711	9.98
818.884	10.49
819.057	6.81
819.23	5.26
819.403	6.72
819.576	9.19
819.749	8.56
819.922	4.76
820.095	8.99
820.268	9.83
820.441	12.5
820.614	11.57
820.786	14.5
820.959	16.81
821.132	16.91
821.305	15.13
821.477	14.89
821.65	15.43
821.823	16.52
821.996	17.32
822.168	16.78
822.341	16.7
822.514	17.54
822.686	17.05
822.859	16.69
823.031	16.78
823.204	17.15
823.376	17.98
823.549	19.46
823.722	19.46
823.894	19.07
824.067	20.66
824.239	20.58
824.411	20.07
824.584	19.25
824.756	18.84
824.929	19.16
825.101	19.78
825.273	19.58
825.446	18.51
825.618	17.97
825.79	18.16
825.963	15.5
826.135	17.46
826.307	18.53
826.479	19.85
826.652	21.73
826.824	21.57
826.996	21.44
827.168	22.05
827.34	21.28
827.512	22.21
827.684	22.15
827.856	23.39
828.029	21.06
828.201	21.42
828.373	23
828.545	21.9
828.717	22.83
828.889	22.46
829.061	20.49
829.232	20.83
829.404	19.79
829.576	19.49
829.748	17.59
829.92	19.11
830.092	17.71
830.264	18.92
830.436	17.29
830.607	14.59
830.779	16.81
830.951	15.35
831.123	13.6
831.294	14.29
831.466	12.91
831.638	11.88
831.809	7.63
831.981	1.78
832.153	-0.25
832.324	-0.96
832.496	-2.04
832.667	-5.34
832.839	-2.53
833.011	0.51
833.182	1.13
833.354	2.3
833.525	3.29
833.697	7.35
833.868	12.32
834.039	12.47
834.211	15.93
834.382	16.81
834.554	15.31
834.725	15.66
834.896	14.56
835.068	15.83
835.239	14.45
835.41	17.06
835.581	18.2
835.753	17.57
835.924	15.97
836.095	14.75
836.266	14.3
836.438	16.6
836.609	16.33
836.78	16.03
836.951	14.32
837.122	13.51
837.293	7.12
837.464	9.51
837.635	9.81
837.806	9.07
837.977	8.91
838.148	10.58
838.319	8.02
838.49	7.36
838.661	11.36
838.832	14.91
839.003	17.05
839.174	26.96
839.345	20.23
839.516	18.87
839.687	18.93
839.857	19.56
840.028	20.27
840.199	20.76
840.37	21.48
840.54	18.34
840.711	14.94
840.882	15.91
841.053	14.1
841.223	15.34
841.394	19.65
841.564	23.03
841.735	20.56
841.906	8.1
842.076	-1.31
842.247	-10.68
842.417	-10.12
842.588	-9.23
842.758	-4.66
842.929	-5.92
843.099	-5.31
843.27	-2.77
843.44	-3.14
843.611	0.13
843.781	0.38
843.951	12.84
844.122	26.66
844.292	32.36
844.462	37.09
844.633	31.09
844.803	34.04
844.973	31.74
845.144	21.76
845.314	27.57
845.484	23.2
845.654	39.11
845.824	40.6
845.995	33.11
846.165	31.84
846.335	32.19
846.505	41.03
846.675	44.44
846.845	59.75
847.015	71.51
847.185	55.68
847.355	52.41
847.525	46.25
847.695	57.13
847.865	60.31
848.035	54.19
848.205	44.8
848.375	48.83
848.545	26.74
848.715	16.34
848.884	2.8
849.054	5.64
849.224	14.99
849.394	-8.83
849.564	-45.16
849.733	-22.39
849.903	-45.11
850.073	-49.37
850.243	-69.82
850.412	-34.8
850.582	-51.75
850.752	-30.8
850.921	-36.65
851.091	-46.55
851.26	-17.74
851.43	-16.15
851.599	-4.62
851.769	26.83
851.939	28.86
852.108	37.44
852.278	42.87
852.447	45.49
852.616	40.18
852.786	38.92
852.955	32.65
853.125	33.79
853.294	32.27
853.463	35.59
853.633	33.64
853.802	39.4
853.971	45.27
854.141	42.55
854.31	38.83
854.479	34
854.648	38.96
854.818	40.49
854.987	36.74
855.156	49.82
855.325	36.72
855.494	41.47
855.663	35.37
855.832	24.08
856.001	16.96
856.171	15.74
856.34	12.47
856.509	6.64
856.678	12.21
856.847	21.48
857.016	7.78
857.185	5.79
857.353	-21.64
857.522	-5.73
857.691	5.7
857.86	23.02
858.029	32.93
858.198	27.09
858.367	36.12
858.535	20.23
858.704	26.85
858.873	37.92
859.042	51.83
859.21	54.43
859.379	53.78
859.548	47.42
859.717	41.83
859.885	45.92
860.054	42.73
860.222	31.47
860.391	48.3
860.56	45.25
860.728	33.97
860.897	8.29
861.065	16.13
861.234	4.58
861.402	5.83
861.571	11.91
861.739	8.51
861.908	16.64
862.076	8.41
862.244	-13.43
862.413	-19.14
862.581	1.72
862.749	10.9
862.918	1.34
863.086	11.55
863.254	-5.98
863.423	-24.61
863.591	-22.17
863.759	-38.65
863.927	-11.83
864.096	6.06
864.264	14.01
864.432	-23.16
864.6	-19.12
864.768	-11.6
864.936	-8.96
865.104	-8.54
865.272	-6.31
865.44	-5.64
865.608	5.06
865.776	-7.48
865.944	-12.97
866.112	-6.66
866.28	6.29
866.448	4.45
866.616	4.07
866.784	-16.21
866.952	12.79
867.12	17.34
867.288	17.66
867.455	9.46
867.623	3.13
867.791	1.21
867.959	-27.57
868.127	-28.51
868.294	-35.53
868.462	-56.26
868.63	-25.05
868.797	-56.48
868.965	-56.81
869.133	-57.16
869.3	-86.42
869.468	-45.51
869.636	-29.23
869.803	-31.87
869.971	-33.86
870.138	-38.18
870.306	-28.39
870.473	-34.56
870.641	-30.32
870.808	-41.64
870.975	-51.68
871.143	-41.56
871.31	-44.8
871.478	-46.05
871.645	-53.22
871.812	-63.24
871.98	-39.93
872.147	-23.75
872.314	-19.62
872.482	-22.68
872.649	-19.2
872.816	-24.7
872.983	-16.86
873.15	-15.07
873.318	-13.96
873.485	-7.13
873.652	-7.8
873.819	-8.91
873.986	-6.8
874.153	-7.02
874.32	-4.1
874.487	12.96
874.654	31.97
874.821	34.75
874.988	26.99
875.155	26.68
875.322	36.31
875.489	54.52
875.656	62.19
875.823	65.31
875.99	83.06
876.157	68.75
876.324	37.7
876.49	-4.18
876.657	-20.9
876.824	3.24
876.991	18.22
877.157	18.87
877.324	3.02
877.491	7.91
877.658	-2.74
877.824	-13.22
877.991	20.2
878.157	30.99
878.324	33.56
878.491	45.2
878.657	29.05
878.824	17.27
878.99	19.73
879.157	20.07
879.323	12.33
879.49	15.13
879.656	37.44
879.823	45.47
879.989	35.93
880.156	27.59
880.322	28.38
880.488	37.27
880.655	33.68
880.821	25.39
880.987	26.22
881.154	22.78
881.32	25.84
881.486	19.56
881.652	7.13
881.819	12.01
881.985	14.78
882.151	17.21
882.317	13.11
882.483	15.68
882.649	14.73
882.816	15.6
882.982	15.92
883.148	17.66
883.314	14.05
883.48	16.75
883.646	14.09
883.812	14.81
883.978	13.87
884.144	17
884.31	20.91
884.476	19.4
884.642	17.65
884.807	20.08
884.973	17.14
885.139	19.78
885.305	17.26
885.471	18.54
885.637	14.51
885.802	14.34
885.968	11.81
886.134	10.37
886.3	15.21
886.465	16.07
886.631	15.18
886.797	19.8
886.962	19.92
887.128	20.88
887.293	22.29
887.459	34.87
887.625	37.62
887.79	32.22
887.956	26.79
888.121	21.76
888.287	24.83
888.452	19.37
888.618	10.11
888.783	8.35
