Data from 2938098_Reflection_1.txt Node
Date: Sat Jul 11 18:52:54 EDT 2015
User: robert
Spectrometer: USB4E03001
Autoset integration time: false
Trigger mode: 4
Integration Time (sec): 1.000000E-1
Scans to average: 10
Electric dark correction enabled: true
Nonlinearity correction enabled: false
Boxcar width: 5
Stray light correction enabled: false
XAxis mode: Wavelengths
Stop averaging: false
Number of Pixels in Spectrum: 3648
>>>>>Begin Spectral Data<<<<<
177.566	356.64
177.785	444.6
178.005	1217.96
178.225	410.71
178.445	179.38
178.665	156.45
178.885	-161.7
179.105	142.01
179.324	188.92
179.544	265.87
179.764	269.06
179.984	405.99
180.204	219.82
180.423	230.29
180.643	290.38
180.863	200.23
181.083	217.01
181.302	218.2
181.522	412.18
181.742	226.17
181.961	306.47
182.181	838.99
182.401	-32962.96
182.621	-374.29
182.84	-379.85
183.06	-1967.01
183.279	-317.3
183.499	-242.96
183.719	-40.76
183.938	-25.75
184.158	15.39
184.377	38.11
184.597	50.08
184.816	65.14
185.036	-9.25
185.256	9.35
185.475	31.87
185.695	-5.67
185.914	-95.19
186.134	-176.21
186.353	-248.13
186.572	-37200
186.792	-489.37
187.011	-191.34
187.231	-80.11
187.45	-12.12
187.67	-17.04
187.889	-42.11
188.108	14.98
188.328	70.57
188.547	44.27
188.766	22.83
188.986	-10.77
189.205	-21.35
189.424	5.96
189.644	-5.49
189.863	-44.68
190.082	-19.41
190.302	-104.13
190.521	-74.89
190.74	-259.14
190.959	-151.16
191.178	-1486.28
191.398	694.18
191.617	529.3
191.836	161.24
192.055	102.55
192.274	119.27
192.494	169.55
192.713	132.56
192.932	121.78
193.151	100.82
193.37	176.23
193.589	140.45
193.808	272.61
194.027	280.64
194.246	360.51
194.465	440.32
194.685	-1009.46
194.904	-4288.61
195.123	-1033.86
195.342	2526.82
195.561	-3755.19
195.78	288.02
195.999	-1002.11
196.218	756.49
196.436	183.19
196.655	356.18
196.874	453.94
197.093	336.45
197.312	572.33
197.531	1861.72
197.75	3704.65
197.969	-765.97
198.188	-302.73
198.407	659.84
198.625	427.7
198.844	337.25
199.063	162.9
199.282	106.03
199.501	118.57
199.719	101.8
199.938	165.17
200.157	148.97
200.376	106.59
200.594	88.89
200.813	96.5
201.032	171.53
201.251	546.32
201.469	-260.7
201.688	-319.77
201.907	-206.54
202.125	-208.38
202.344	-150.44
202.563	-150.93
202.781	-191.04
203	-72.04
203.218	-111.87
203.437	-323.01
203.656	-353.22
203.874	883.25
204.093	200.35
204.311	244.75
204.53	267.41
204.748	292.97
204.967	965.9
205.185	-800
205.404	393.53
205.622	173.1
205.841	243.15
206.059	175
206.278	178.29
206.496	-790.51
206.715	213.24
206.933	121.71
207.151	143.12
207.37	126.43
207.588	202.16
207.806	528.34
208.025	-116.16
208.243	-500.19
208.461	-266.89
208.68	-415
208.898	-4343.95
209.116	898.95
209.335	1448.12
209.553	-1055.01
209.771	-615.85
209.989	303
210.208	442.68
210.426	149.05
210.644	106.61
210.862	113.4
211.081	-154.4
211.299	250.96
211.517	101.43
211.735	83.72
211.953	37
212.171	30.94
212.39	69.87
212.608	76.09
212.826	72.38
213.044	57.97
213.262	33.27
213.48	20.64
213.698	-23.71
213.916	-105.05
214.134	-243.19
214.352	-146.75
214.57	-108.54
214.788	-70.6
215.006	-51.94
215.224	-132.97
215.442	-185.46
215.66	-218.54
215.878	-239.13
216.096	-293.96
216.314	-87.13
216.532	-14.74
216.75	7.25
216.968	10.78
217.185	-61.81
217.403	-104.25
217.621	-117.8
217.839	-74.77
218.057	-16.57
218.275	-20.74
218.492	-23.85
218.71	-36.98
218.928	-36.26
219.146	-85.15
219.363	-107.44
219.581	-93.53
219.799	-106.64
220.017	-67.55
220.234	-69.11
220.452	-101.18
220.67	-98.25
220.887	-67.17
221.105	-76.51
221.323	-43.31
221.54	-41.58
221.758	-32.14
221.976	-25.08
222.193	-31.63
222.411	-47.69
222.629	-68.07
222.846	-97.71
223.064	-64.04
223.281	-52.76
223.499	-37.61
223.716	-62.74
223.934	-30.56
224.151	-28.19
224.369	-19.67
224.586	3.85
224.804	17.5
225.021	45.36
225.239	48.28
225.456	41.18
225.674	47.42
225.891	43.89
226.108	41.8
226.326	36.93
226.543	29.14
226.76	27.32
226.978	19.59
227.195	12.65
227.413	-4.56
227.63	1.73
227.847	-2.24
228.064	-2.77
228.282	-4.93
228.499	-1.22
228.716	-2.42
228.934	-0.46
229.151	-0.18
229.368	-1.99
229.585	1.31
229.802	6.25
230.02	3.7
230.237	3.6
230.454	2.06
230.671	4.38
230.888	2.67
231.105	1.21
231.323	0.68
231.54	-3.61
231.757	0.88
231.974	-1.4
232.191	-1.35
232.408	1.27
232.625	-1.9
232.842	-4.4
233.059	-4.92
233.276	-3.25
233.493	2.53
233.71	2.25
233.927	3.06
234.144	-1.32
234.361	-4.3
234.578	-2.07
234.795	-10.65
235.012	-2.07
235.229	-1.73
235.446	-8.06
235.663	-6.42
235.879	-8.23
236.096	-13.61
236.313	-9.22
236.53	-11.42
236.747	-8.66
236.964	-18.25
237.181	-14.06
237.397	-10.27
237.614	-11.84
237.831	-9.76
238.048	-14.93
238.264	-18.14
238.481	-14.47
238.698	-19.52
238.915	-17.55
239.131	-17.56
239.348	-15.63
239.565	-13.91
239.781	-17.38
239.998	-11.57
240.215	-10.13
240.431	-4.29
240.648	0.2
240.865	2.97
241.081	2.88
241.298	4.44
241.514	7.61
241.731	10.59
241.947	9.92
242.164	11.08
242.38	10.87
242.597	12.56
242.814	11.53
243.03	10.76
243.246	9.63
243.463	12.15
243.679	10.64
243.896	8.03
244.112	6.51
244.329	7.03
244.545	5.57
244.762	4.05
244.978	0.72
245.194	1.45
245.411	0.13
245.627	-0.73
245.843	-1.77
246.06	0.31
246.276	2.25
246.492	2.63
246.709	2.21
246.925	2.61
247.141	2.77
247.357	4
247.574	4.07
247.79	3.88
248.006	3.6
248.222	4.27
248.439	4.9
248.655	4.72
248.871	4.43
249.087	4.01
249.303	3.16
249.519	2.38
249.736	1.29
249.952	2.13
250.168	3.53
250.384	3.95
250.6	-1
250.816	-3.49
251.032	-3.13
251.248	-4.51
251.464	-3.18
251.68	-1.63
251.896	-1.05
252.112	0.11
252.328	-2.54
252.544	-3.79
252.76	-2.47
252.976	0.3
253.192	-0.77
253.408	-2.12
253.624	0.95
253.84	-1.47
254.056	0.84
254.272	2.08
254.487	1.05
254.703	0.73
254.919	1.63
255.135	-0.73
255.351	-4.55
255.567	-1.04
255.782	-0.12
255.998	-4.11
256.214	0.06
256.43	-2.91
256.646	-2.83
256.861	-4.34
257.077	-2.55
257.293	-2.89
257.508	-1.96
257.724	0.23
257.94	-0.06
258.155	-0.99
258.371	1.77
258.587	1.54
258.802	2.83
259.018	3.85
259.234	3.77
259.449	3.46
259.665	4.54
259.88	5.04
260.096	5.49
260.312	5.29
260.527	5.82
260.743	5.6
260.958	5.16
261.174	4.57
261.389	3.78
261.605	4.43
261.82	4.03
262.036	2.87
262.251	2.09
262.466	1.16
262.682	-0.01
262.897	-2.4
263.113	-3.23
263.328	-2.96
263.543	-2.76
263.759	-2.14
263.974	-0.85
264.189	0.59
264.405	1.16
264.62	0.81
264.835	0.22
265.051	1.97
265.266	2.15
265.481	2.49
265.696	3.02
265.912	2.44
266.127	1.84
266.342	1.37
266.557	0.81
266.773	0.35
266.988	-0.6
267.203	0.63
267.418	-0.05
267.633	0.67
267.848	0.39
268.064	1.65
268.279	1.99
268.494	0.89
268.709	-1.23
268.924	-2.93
269.139	-3.36
269.354	-2.09
269.569	-1.5
269.784	-1.79
269.999	-1.02
270.214	-2.09
270.429	-2.38
270.644	-2.1
270.859	-0.83
271.074	1.07
271.289	2.7
271.504	2.98
271.719	2.53
271.934	2.04
272.149	2.38
272.363	2.96
272.578	3.03
272.793	2.47
273.008	2.55
273.223	2.56
273.438	1.73
273.653	2.2
273.867	2.3
274.082	3.62
274.297	3.29
274.512	3.76
274.726	2.38
274.941	2.76
275.156	1.77
275.371	1.28
275.585	1.36
275.8	2.56
276.015	1.59
276.229	1.57
276.444	0.04
276.659	0.26
276.873	1.14
277.088	2.62
277.302	3.45
277.517	3.66
277.732	4.34
277.946	1.86
278.161	0.78
278.375	-2.24
278.59	-0.73
278.804	-0.56
279.019	-0.95
279.233	-2.39
279.448	-3.17
279.662	-2.89
279.877	-1.97
280.091	-2.3
280.306	1.26
280.52	1.81
280.735	4.49
280.949	2.58
281.163	2.37
281.378	2.22
281.592	0.65
281.806	-0.66
282.021	-1.33
282.235	-1.44
282.449	-0.9
282.664	-1.66
282.878	-1.02
283.092	0.18
283.307	1
283.521	0.92
283.735	1.79
283.949	3.75
284.164	5.23
284.378	4.7
284.592	4.81
284.806	4.56
285.02	3.55
285.234	3.38
285.449	3.76
285.663	4.41
285.877	5.1
286.091	4
286.305	5.69
286.519	4.96
286.733	6.23
286.947	6.53
287.161	7.63
287.375	8.41
287.589	9.22
287.803	9.14
288.017	9.18
288.231	8.53
288.445	8.48
288.659	6.1
288.873	6.68
289.087	5.52
289.301	5.42
289.515	4.35
289.729	2.85
289.943	1.82
290.157	0.94
290.371	0.29
290.584	-0.15
290.798	2.22
291.012	1.23
291.226	2.01
291.44	3.29
291.654	2.58
291.867	2.27
292.081	2.24
292.295	1.7
292.509	2.71
292.722	2.49
292.936	3.79
293.15	0.28
293.364	1.79
293.577	-0.75
293.791	-2.24
294.005	-0.87
294.218	0.26
294.432	3.4
294.645	4.31
294.859	3.26
295.073	3.54
295.286	3.2
295.5	3.71
295.713	4.3
295.927	5.93
296.14	6.42
296.354	6.74
296.568	6.13
296.781	5.22
296.994	5.21
297.208	5.27
297.421	4.78
297.635	4.87
297.848	5.36
298.062	5.62
298.275	5.81
298.489	6.65
298.702	5.58
298.915	4.76
299.129	4.24
299.342	3.15
299.555	2.03
299.769	1.78
299.982	2.38
300.195	2.73
300.409	1.21
300.622	0.59
300.835	-0.38
301.048	0.49
301.262	1.21
301.475	1.9
301.688	3.42
301.901	4.17
302.115	6.4
302.328	5.89
302.541	5.45
302.754	6.96
302.967	6.25
303.18	5.65
303.393	6.85
303.607	6.63
303.82	5.37
304.033	3.91
304.246	4.39
304.459	2.89
304.672	3.35
304.885	4.84
305.098	3.41
305.311	3.83
305.524	4.18
305.737	0.7
305.95	0.93
306.163	1.32
306.376	3.7
306.589	3.29
306.802	3.65
307.015	2.3
307.228	0.36
307.44	0.57
307.653	0.93
307.866	1.16
308.079	3.34
308.292	4.07
308.505	4.47
308.718	2.15
308.93	0.87
309.143	1.04
309.356	2.22
309.569	2.48
309.781	3.35
309.994	2.43
310.207	2.94
310.42	3.08
310.632	2.78
310.845	3.16
311.058	3.98
311.27	5.97
311.483	6.97
311.696	6.87
311.908	8.35
312.121	6.93
312.333	8.11
312.546	7.54
312.759	7.84
312.971	7.73
313.184	8.71
313.396	8.29
313.609	7.78
313.821	6.71
314.034	6.52
314.246	5.34
314.459	6.77
314.671	6.03
314.884	4.63
315.096	3.5
315.309	3.37
315.521	2
315.733	2.47
315.946	1.48
316.158	1.52
316.371	1.81
316.583	1.16
316.795	0.93
317.008	0.98
317.22	3.93
317.432	3.72
317.644	3.67
317.857	3.71
318.069	3.28
318.281	3.78
318.494	1.57
318.706	2.2
318.918	3.69
319.13	2.72
319.342	4.21
319.555	1.65
319.767	4.27
319.979	5.16
320.191	6
320.403	6.4
320.615	5.1
320.827	7.05
321.039	6.77
321.252	5.73
321.464	6.74
321.676	3.66
321.888	3.06
322.1	3.04
322.312	1.03
322.524	1.21
322.736	1.05
322.948	1.7
323.16	1.33
323.372	0.56
323.584	0.68
323.796	0.74
324.007	2.81
324.219	4.8
324.431	3.33
324.643	4.49
324.855	3.95
325.067	4.49
325.279	4.43
325.491	5.53
325.702	5.58
325.914	5.96
326.126	4.89
326.338	4.4
326.55	4.34
326.761	5.34
326.973	5.95
327.185	5.64
327.396	5.88
327.608	7.4
327.82	7.21
328.032	7.52
328.243	7.51
328.455	8.48
328.666	8.48
328.878	8.19
329.09	7.41
329.301	6.67
329.513	7.97
329.725	8.01
329.936	6.22
330.148	8
330.359	8.23
330.571	8.02
330.782	5.89
330.994	6.64
331.205	5.46
331.417	4.28
331.628	5.16
331.84	3.47
332.051	2.08
332.262	2.36
332.474	-0.62
332.685	0.42
332.897	0.56
333.108	3.54
333.319	4.85
333.531	6.72
333.742	8.82
333.953	8.09
334.165	8.89
334.376	9.45
334.587	9.3
334.799	9.95
335.01	8.8
335.221	9.82
335.432	9.77
335.644	8.3
335.855	6.88
336.066	6.33
336.277	7.53
336.488	8.37
336.7	8.54
336.911	10.66
337.122	9.62
337.333	10.67
337.544	9.85
337.755	9.12
337.966	10.39
338.177	11.9
338.388	11.49
338.599	11.4
338.811	8.74
339.022	8.09
339.233	6.79
339.444	7.6
339.655	6.17
339.866	6.67
340.076	6.53
340.287	4.79
340.498	4.46
340.709	4.69
340.92	4.13
341.131	6.01
341.342	7.6
341.553	8.78
341.764	9.34
341.975	9.3
342.185	8.2
342.396	8.29
342.607	9.07
342.818	9.37
343.029	9.82
343.239	10.34
343.45	10.24
343.661	9.06
343.872	8.8
344.082	9.19
344.293	10.15
344.504	10.44
344.714	11.08
344.925	10.92
345.136	11.34
345.346	11.23
345.557	10.93
345.768	10.45
345.978	11.71
346.189	10.71
346.399	10.36
346.61	10.46
346.821	10.56
347.031	8.98
347.242	8.67
347.452	7.96
347.663	7.88
347.873	7.97
348.084	9.6
348.294	8.25
348.504	8.65
348.715	9.13
348.925	8.76
349.136	9.61
349.346	11.49
349.557	12.3
349.767	12.15
349.977	11.29
350.188	11.67
350.398	11
350.608	12.46
350.819	12.19
351.029	11.95
351.239	13.46
351.449	12.46
351.66	12.05
351.87	12.59
352.08	11.86
352.29	12.17
352.501	11.72
352.711	12.41
352.921	10.55
353.131	10.77
353.341	11.1
353.552	9.2
353.762	9.44
353.972	9.22
354.182	8.75
354.392	10.15
354.602	10.07
354.812	11.09
355.022	10.66
355.232	11.29
355.442	10.98
355.652	9.58
355.862	9.71
356.072	10.73
356.282	10.44
356.492	9.92
356.702	9.25
356.912	9.64
357.122	8.51
357.332	8.07
357.542	9.26
357.752	9.28
357.962	10.54
358.171	10.45
358.381	10.17
358.591	11.19
358.801	11.43
359.011	12.18
359.221	12.22
359.43	12.74
359.64	12.04
359.85	11.75
360.06	12.02
360.269	12.01
360.479	12.16
360.689	12.08
360.899	11.49
361.108	10.91
361.318	9.97
361.528	9.88
361.737	9.67
361.947	10.32
362.156	9.69
362.366	9.37
362.576	9.2
362.785	9.27
362.995	8.79
363.204	9.31
363.414	9.4
363.623	9.56
363.833	10.16
364.042	10.56
364.252	10.27
364.461	10.36
364.671	10.14
364.88	9.72
365.09	9.71
365.299	9.95
365.509	9.51
365.718	9.38
365.927	9.62
366.137	9.01
366.346	7.69
366.555	6.88
366.765	6.34
366.974	6.38
367.183	6.76
367.393	6.89
367.602	6.99
367.811	6.46
368.021	6.08
368.23	5.67
368.439	5.25
368.648	6.28
368.857	7.37
369.067	7.45
369.276	7.74
369.485	7.26
369.694	7.49
369.903	7.1
370.112	7.39
370.321	7.72
370.531	7.62
370.74	8.57
370.949	8.55
371.158	8.45
371.367	8.87
371.576	8.9
371.785	8.3
371.994	8.06
372.203	8.24
372.412	7.47
372.621	7.01
372.83	7.41
373.039	6.72
373.248	6.21
373.457	5.89
373.666	5.65
373.874	5.56
374.083	6.49
374.292	6.89
374.501	6.94
374.71	7.68
374.919	8.39
375.128	8.08
375.336	8.54
375.545	8.34
375.754	8.91
375.963	8.68
376.171	8.49
376.38	8.29
376.589	8.12
376.798	8.23
377.006	7.82
377.215	7.64
377.424	7.98
377.632	7.37
377.841	7.93
378.05	6.8
378.258	6.71
378.467	7.11
378.675	7.31
378.884	7.5
379.093	6.71
379.301	6.76
379.51	6.65
379.718	5.99
379.927	5.81
380.135	5.83
380.344	6.82
380.552	7.04
380.761	6.74
380.969	6.42
381.177	5.58
381.386	5.7
381.594	6.08
381.803	5.86
382.011	6.15
382.219	6.11
382.428	5.16
382.636	4.05
382.845	4.32
383.053	4.09
383.261	4.77
383.469	4.93
383.678	5.33
383.886	5.24
384.094	5.73
384.302	5.98
384.511	5.57
384.719	6.12
384.927	6.89
385.135	6.77
385.343	7.13
385.552	6.42
385.76	6.62
385.968	6.36
386.176	5.84
386.384	5.61
386.592	5.39
386.8	5.58
387.008	5.34
387.216	4.68
387.424	4.44
387.633	4.12
387.841	3.9
388.049	3.72
388.257	3.34
388.465	3.69
388.672	3.58
388.88	3.64
389.088	4.22
389.296	3.89
389.504	4.26
389.712	4.19
389.92	3.95
390.128	4.18
390.336	4
390.544	4.32
390.751	4.13
390.959	4.24
391.167	4.03
391.375	3.68
391.583	4.31
391.79	4.45
391.998	4.49
392.206	4.8
392.414	4.97
392.621	5.31
392.829	5.51
393.037	5.85
393.244	6.08
393.452	6.16
393.66	6.24
393.867	5.94
394.075	5.75
394.283	5.76
394.49	5.77
394.698	5.82
394.905	5.08
395.113	5.04
395.32	4.76
395.528	4.41
395.735	3.93
395.943	3.77
396.15	3.62
396.358	3.69
396.565	3.56
396.773	3.47
396.98	3.3
397.188	3.92
397.395	3.71
397.602	3.8
397.81	3.97
398.017	4.3
398.225	4.38
398.432	4.65
398.639	4.55
398.847	4.85
399.054	4.73
399.261	4.76
399.468	4.67
399.676	4.77
399.883	4.63
400.09	4.47
400.297	4.37
400.505	4.23
400.712	3.69
400.919	3.88
401.126	3.67
401.333	3.6
401.54	3.57
401.748	3.52
401.955	3.39
402.162	3.44
402.369	3.39
402.576	3.6
402.783	3.72
402.99	3.95
403.197	3.72
403.404	3.63
403.611	3.7
403.818	3.24
404.025	3.29
404.232	3.58
404.439	3.46
404.646	3.65
404.853	3.67
405.06	3.47
405.267	3.7
405.474	3.67
405.681	3.92
405.887	3.93
406.094	4.24
406.301	4.36
406.508	4.31
406.715	4.19
406.922	4.18
407.128	4.14
407.335	4.45
407.542	4.34
407.749	4.39
407.955	4.42
408.162	4.3
408.369	4.17
408.575	3.83
408.782	3.49
408.989	3.75
409.195	3.42
409.402	3.33
409.609	3.42
409.815	3.24
410.022	3.12
410.228	2.81
410.435	2.98
410.642	3.18
410.848	3.43
411.055	3.63
411.261	3.57
411.468	3.59
411.674	3.42
411.881	3.2
412.087	3.26
412.294	3.32
412.5	3.61
412.706	3.55
412.913	3.51
413.119	3.48
413.326	3.37
413.532	3.56
413.738	3.65
413.945	3.89
414.151	3.81
414.357	3.68
414.564	3.74
414.77	3.25
414.976	3.48
415.182	3.5
415.389	3.37
415.595	3.45
415.801	3.34
416.007	3.38
416.214	3.24
416.42	3.48
416.626	3.63
416.832	3.67
417.038	3.88
417.244	3.81
417.45	3.91
417.657	3.8
417.863	3.84
418.069	3.96
418.275	3.79
418.481	3.8
418.687	3.82
418.893	3.9
419.099	3.91
419.305	3.89
419.511	3.69
419.717	3.64
419.923	3.73
420.129	3.66
420.335	3.61
420.541	3.74
420.746	3.88
420.952	3.89
421.158	3.97
421.364	4.06
421.57	4.15
421.776	4.23
421.982	4.24
422.187	4.42
422.393	4.33
422.599	4.2
422.805	4.15
423.01	4.09
423.216	3.97
423.422	3.92
423.628	3.78
423.833	3.64
424.039	3.73
424.245	3.74
424.45	3.55
424.656	3.81
424.862	3.9
425.067	3.99
425.273	4.04
425.478	4.08
425.684	4.1
425.889	4.24
426.095	4.32
426.301	4.33
426.506	4.3
426.712	4.28
426.917	4.03
427.123	4.13
427.328	3.94
427.533	3.84
427.739	3.72
427.944	3.53
428.15	3.31
428.355	3.08
428.561	3.05
428.766	2.98
428.971	3.05
429.177	3.41
429.382	3.27
429.587	3.62
429.793	3.7
429.998	3.8
430.203	4.06
430.408	4.1
430.614	4.39
430.819	4.43
431.024	4.24
431.229	4.21
431.434	3.76
431.64	3.79
431.845	3.89
432.05	3.6
432.255	3.53
432.46	3.32
432.665	3.28
432.87	3.36
433.076	3.24
433.281	3.44
433.486	3.46
433.691	3.55
433.896	3.63
434.101	3.44
434.306	3.57
434.511	3.49
434.716	3.48
434.921	3.73
435.126	3.42
435.331	3.34
435.535	3.15
435.74	3.1
435.945	3.12
436.15	3.02
436.355	3.01
436.56	3.21
436.765	3.26
436.97	3.19
437.174	2.8
437.379	3.06
437.584	3.11
437.789	3.24
437.993	3.23
438.198	3.35
438.403	3.43
438.608	3.55
438.812	3.37
439.017	3.38
439.222	3.57
439.426	3.86
439.631	3.78
439.836	3.8
440.04	3.82
440.245	3.88
440.45	3.63
440.654	3.57
440.859	3.39
441.063	3.42
441.268	3.6
441.472	3.48
441.677	3.36
441.881	3.41
442.086	3.4
442.29	3.23
442.495	3.21
442.699	3.41
442.904	3.46
443.108	3.41
443.312	3.41
443.517	3.11
443.721	3.18
443.925	3.12
444.13	3.07
444.334	2.99
444.538	3.16
444.743	3.22
444.947	3.19
445.151	3.28
445.356	3.27
445.56	3.19
445.764	3.21
445.968	3.14
446.173	3.2
446.377	3.38
446.581	3.48
446.785	3.44
446.989	3.34
447.193	3.45
447.398	3.27
447.602	3.32
447.806	3.47
448.01	3.57
448.214	3.59
448.418	3.62
448.622	3.45
448.826	3.37
449.03	3.31
449.234	3.55
449.438	3.35
449.642	3.38
449.846	3.17
450.05	3.16
450.254	3.13
450.458	3.42
450.662	3.21
450.866	3.18
451.069	3.34
451.273	3.36
451.477	3.09
451.681	3.28
451.885	3.38
452.089	3.69
452.292	3.56
452.496	3.64
452.7	3.37
452.904	3.5
453.107	3.47
453.311	3.26
453.515	3.25
453.719	3.27
453.922	3.18
454.126	3.04
454.33	2.79
454.533	2.83
454.737	2.88
454.94	3.05
455.144	3.03
455.348	3.11
455.551	3.31
455.755	3.6
455.958	3.64
456.162	3.53
456.365	3.63
456.569	3.86
456.772	3.79
456.976	3.61
457.179	3.55
457.383	3.51
457.586	3.48
457.79	3.33
457.993	3.02
458.196	3.08
458.4	3.01
458.603	2.98
458.807	2.97
459.01	3.06
459.213	3.12
459.417	3.22
459.62	3.3
459.823	3.22
460.026	3.28
460.23	3.43
460.433	3.43
460.636	3.74
460.839	3.72
461.042	3.8
461.246	3.89
461.449	4
461.652	3.98
461.855	3.95
462.058	3.98
462.261	3.86
462.464	3.84
462.668	3.71
462.871	3.32
463.074	3.36
463.277	3.22
463.48	3.09
463.683	2.94
463.886	2.7
464.089	2.77
464.292	2.92
464.495	3.03
464.698	2.95
464.901	3.25
465.104	3.32
465.306	3.1
465.509	3.13
465.712	3.05
465.915	3.13
466.118	3.28
466.321	3.23
466.524	3.23
466.726	3.24
466.929	3.22
467.132	3.06
467.335	3.21
467.538	3.35
467.74	3.16
467.943	3.28
468.146	3.36
468.348	3.47
468.551	3.43
468.754	3.4
468.956	3.24
469.159	3.23
469.362	2.99
469.564	2.85
469.767	2.88
469.969	3.08
470.172	2.94
470.375	2.65
470.577	2.42
470.78	2.51
470.982	2.36
471.185	2.55
471.387	2.54
471.59	2.73
471.792	2.93
471.995	3
472.197	2.93
472.399	2.98
472.602	3.06
472.804	3.07
473.007	3.21
473.209	3.22
473.411	3.2
473.614	3.17
473.816	3.25
474.018	2.98
474.22	2.76
474.423	2.8
474.625	2.95
474.827	2.89
475.03	2.77
475.232	2.68
475.434	2.86
475.636	2.99
475.838	2.88
476.04	2.87
476.243	2.87
476.445	3.21
476.647	3.14
476.849	3.15
477.051	3.25
477.253	3.44
477.455	3.32
477.657	3.33
477.859	3.26
478.061	3.5
478.263	3.58
478.465	3.68
478.667	3.52
478.869	3.49
479.071	3.49
479.273	3.51
479.475	3.42
479.677	3.4
479.879	3.49
480.081	3.48
480.283	3.5
480.485	3.43
480.686	3.4
480.888	3.41
481.09	3.55
481.292	3.54
481.494	3.48
481.695	3.42
481.897	3.52
482.099	3.44
482.301	3.42
482.502	3.38
482.704	3.39
482.906	3.43
483.107	3.48
483.309	3.44
483.511	3.39
483.712	3.47
483.914	3.48
484.115	3.48
484.317	3.47
484.519	3.51
484.72	3.52
484.922	3.57
485.123	3.55
485.325	3.54
485.526	3.57
485.728	3.59
485.929	3.6
486.131	3.68
486.332	3.64
486.534	3.64
486.735	3.57
486.936	3.6
487.138	3.57
487.339	3.62
487.541	3.55
487.742	3.59
487.943	3.63
488.144	3.6
488.346	3.53
488.547	3.57
488.748	3.6
488.95	3.62
489.151	3.64
489.352	3.59
489.553	3.51
489.755	3.6
489.956	3.51
490.157	3.43
490.358	3.36
490.559	3.31
490.76	3.34
490.961	3.42
491.163	3.46
491.364	3.45
491.565	3.46
491.766	3.5
491.967	3.41
492.168	3.4
492.369	3.43
492.57	3.52
492.771	3.67
492.972	3.61
493.173	3.57
493.374	3.52
493.575	3.53
493.776	3.5
493.976	3.47
494.177	3.49
494.378	3.61
494.579	3.64
494.78	3.58
494.981	3.63
495.182	3.81
495.382	3.78
495.583	3.85
495.784	3.95
495.985	3.88
496.185	3.87
496.386	3.9
496.587	3.79
496.788	3.68
496.988	3.63
497.189	3.45
497.39	3.34
497.59	3.38
497.791	3.49
497.992	3.37
498.192	3.41
498.393	3.33
498.593	3.34
498.794	3.36
498.994	3.44
499.195	3.43
499.395	3.49
499.596	3.46
499.796	3.33
499.997	3.06
500.197	3.09
500.398	3.21
500.598	3.34
500.799	3.29
500.999	3.38
501.199	3.36
501.4	3.44
501.6	3.46
501.801	3.45
502.001	3.54
502.201	3.66
502.402	3.47
502.602	3.41
502.802	3.47
503.002	3.43
503.203	3.49
503.403	3.57
503.603	3.51
503.803	3.42
504.003	3.48
504.204	3.52
504.404	3.55
504.604	3.7
504.804	3.7
505.004	3.66
505.204	3.65
505.404	3.56
505.604	3.46
505.804	3.5
506.005	3.54
506.205	3.6
506.405	3.6
506.605	3.63
506.805	3.55
507.005	3.48
507.204	3.54
507.404	3.71
507.604	3.72
507.804	3.94
508.004	3.94
508.204	3.97
508.404	3.96
508.604	3.94
508.804	3.94
509.003	4.16
509.203	4.34
509.403	4.38
509.603	4.46
509.803	4.52
510.002	4.33
510.202	4.36
510.402	4.47
510.602	4.45
510.801	4.35
511.001	4.42
511.201	4.38
511.4	4.31
511.6	4.36
511.8	4.29
511.999	4.22
512.199	4.21
512.398	4.2
512.598	4.29
512.797	4.32
512.997	4.33
513.197	4.32
513.396	4.25
513.596	4.22
513.795	4.22
513.994	4.36
514.194	4.46
514.393	4.57
514.593	4.76
514.792	4.67
514.992	4.63
515.191	4.84
515.39	4.78
515.59	4.73
515.789	4.83
515.988	4.73
516.188	4.74
516.387	4.76
516.586	4.77
516.786	4.53
516.985	4.43
517.184	4.45
517.383	4.23
517.582	4.35
517.782	4.32
517.981	4.41
518.18	4.48
518.379	4.54
518.578	4.52
518.777	4.45
518.976	4.46
519.176	4.51
519.375	4.56
519.574	4.72
519.773	4.66
519.972	4.73
520.171	4.52
520.37	4.58
520.569	4.58
520.768	4.51
520.967	4.73
521.166	4.89
521.365	4.79
521.564	4.85
521.762	4.78
521.961	4.77
522.16	4.84
522.359	4.91
522.558	4.7
522.757	4.47
522.956	4.44
523.154	4.4
523.353	4.35
523.552	4.56
523.751	4.45
523.949	4.51
524.148	4.53
524.347	4.59
524.546	4.67
524.744	4.85
524.943	4.94
525.142	5.04
525.34	5.13
525.539	5.17
525.737	5.1
525.936	5.12
526.135	5.2
526.333	5.23
526.532	5.13
526.73	5.17
526.929	5.21
527.127	5.29
527.326	5.31
527.524	5.24
527.723	5.28
527.921	5.37
528.12	5.41
528.318	5.4
528.516	5.44
528.715	5.52
528.913	5.6
529.112	5.6
529.31	5.61
529.508	5.64
529.707	5.69
529.905	5.71
530.103	5.65
530.301	5.71
530.5	5.72
530.698	5.74
530.896	5.72
531.094	5.69
531.293	5.65
531.491	5.7
531.689	5.74
531.887	5.64
532.085	5.65
532.283	5.71
532.481	5.71
532.68	5.79
532.878	5.81
533.076	5.87
533.274	5.81
533.472	5.83
533.67	5.73
533.868	5.69
534.066	5.79
534.264	5.72
534.462	5.84
534.66	5.82
534.858	5.73
535.056	5.75
535.253	5.64
535.451	5.75
535.649	5.79
535.847	5.84
536.045	5.93
536.243	5.95
536.441	6.04
536.638	5.79
536.836	5.85
537.034	5.92
537.232	5.92
537.43	6.16
537.627	6.01
537.825	6.16
538.023	6.15
538.22	6.12
538.418	6.22
538.616	6.19
538.813	6.47
539.011	6.41
539.209	6.43
539.406	6.52
539.604	6.48
539.801	6.67
539.999	6.55
540.196	6.63
540.394	6.76
540.591	6.71
540.789	6.78
540.986	6.68
541.184	6.73
541.381	6.78
541.579	6.82
541.776	6.82
541.974	6.78
542.171	6.83
542.368	6.83
542.566	6.82
542.763	6.84
542.96	6.88
543.158	6.98
543.355	7.06
543.552	7.05
543.75	7.04
543.947	7.11
544.144	7.22
544.341	7.22
544.539	7.27
544.736	7.24
544.933	7.3
545.13	7.37
545.327	7.42
545.524	7.34
545.722	7.53
545.919	7.42
546.116	7.54
546.313	7.58
546.51	7.62
546.707	7.74
546.904	7.79
547.101	7.81
547.298	7.85
547.495	7.83
547.692	7.99
547.889	7.81
548.086	8.03
548.283	8.03
548.48	7.97
548.677	8.09
548.874	7.93
549.07	7.86
549.267	8.03
549.464	7.89
549.661	7.9
549.858	7.79
550.055	7.78
550.251	7.88
550.448	7.52
550.645	7.58
550.842	7.5
551.038	7.61
551.235	7.64
551.432	7.4
551.628	7.63
551.825	7.84
552.022	8.02
552.218	8.1
552.415	7.98
552.612	8.18
552.808	8.32
553.005	8.3
553.201	8.54
553.398	8.71
553.594	8.69
553.791	8.69
553.987	8.58
554.184	8.52
554.38	8.63
554.577	8.67
554.773	8.75
554.97	8.85
555.166	9.14
555.362	9.16
555.559	9.28
555.755	9.55
555.952	9.72
556.148	9.82
556.344	9.83
556.541	9.94
556.737	9.99
556.933	10.06
557.129	9.92
557.326	9.81
557.522	9.82
557.718	9.97
557.914	9.89
558.11	9.87
558.307	10
558.503	10.17
558.699	10.2
558.895	10.07
559.091	10.15
559.287	10.36
559.483	10.39
559.679	10.51
559.876	10.51
560.072	10.76
560.268	10.72
560.464	10.57
560.66	10.56
560.856	10.55
561.052	10.61
561.247	10.67
561.443	10.58
561.639	10.83
561.835	10.82
562.031	10.79
562.227	10.89
562.423	11.14
562.619	11.35
562.815	11.66
563.01	11.81
563.206	12.07
563.402	12.24
563.598	12.19
563.793	12.09
563.989	12.22
564.185	12.44
564.381	12.41
564.576	12.31
564.772	12.37
564.968	12.22
565.163	12.13
565.359	12.14
565.555	12.14
565.75	12.31
565.946	12.36
566.141	12.29
566.337	12.19
566.532	12.17
566.728	12.15
566.923	12.34
567.119	12.31
567.314	12.59
567.51	12.71
567.705	12.76
567.901	12.91
568.096	12.97
568.292	13.09
568.487	13.07
568.682	13.03
568.878	13.1
569.073	13.04
569.268	13.27
569.464	13.04
569.659	13.1
569.854	12.93
570.05	13.03
570.245	13
570.44	13.03
570.635	13.21
570.831	13.35
571.026	13.35
571.221	13.2
571.416	13.24
571.611	13.56
571.806	13.54
572.002	13.71
572.197	13.65
572.392	13.78
572.587	13.63
572.782	13.73
572.977	13.86
573.172	14.06
573.367	14.21
573.562	14.26
573.757	14.24
573.952	14.25
574.147	14.33
574.342	14.38
574.537	14.37
574.732	14.48
574.927	14.33
575.121	14.06
575.316	14.16
575.511	14.21
575.706	14.18
575.901	14.13
576.096	14.25
576.29	14.36
576.485	14.32
576.68	14.56
576.875	14.59
577.069	14.76
577.264	15.06
577.459	15.03
577.654	15.01
577.848	15.01
578.043	15.03
578.238	15.03
578.432	14.95
578.627	15.16
578.821	15.06
579.016	14.99
579.21	14.62
579.405	14.7
579.6	14.6
579.794	14.7
579.989	14.87
580.183	14.74
580.378	14.52
580.572	14.45
580.766	14.44
580.961	14.22
581.155	14.28
581.35	14.71
581.544	14.75
581.738	14.81
581.933	14.92
582.127	14.71
582.321	14.78
582.516	14.96
582.71	15.07
582.904	15.03
583.099	15.27
583.293	15.67
583.487	15.57
583.681	15.3
583.875	15.02
584.07	14.82
584.264	15.09
584.458	15.14
584.652	15.11
584.846	14.92
585.04	15.04
585.234	15.1
585.428	14.87
585.623	15.02
585.817	15.19
586.011	15.53
586.205	15.76
586.399	15.84
586.593	16.07
586.787	16.5
586.981	16.9
587.174	16.83
587.368	16.75
587.562	16.63
587.756	16.53
587.95	16.67
588.144	16.93
588.338	16.68
588.532	16.34
588.725	16.14
588.919	16.15
589.113	15.99
589.307	16.07
589.501	15.89
589.694	16.11
589.888	16.17
590.082	16.32
590.275	16.22
590.469	16.27
590.663	16.64
590.856	16.83
591.05	16.82
591.244	17.01
591.437	16.72
591.631	17.02
591.824	17.03
592.018	17.05
592.212	16.7
592.405	16.25
592.599	16.49
592.792	16.52
592.986	16.54
593.179	16.3
593.372	16.09
593.566	16.53
593.759	16.45
593.953	16.33
594.146	16.43
594.339	16.48
594.533	16.85
594.726	16.66
594.92	16.55
595.113	16.44
595.306	16.55
595.499	16.65
595.693	16.63
595.886	16.73
596.079	16.96
596.272	17.22
596.466	17.57
596.659	17.49
596.852	17.51
597.045	17.48
597.238	17.68
597.431	17.75
597.624	17.82
597.818	17.72
598.011	17.69
598.204	17.66
598.397	17.31
598.59	16.91
598.783	16.82
598.976	17
599.169	16.91
599.362	16.69
599.555	16.5
599.748	16.47
599.941	16.71
600.134	16.65
600.326	16.64
600.519	16.88
600.712	16.91
600.905	17.01
601.098	17.08
601.291	17.5
601.483	17.52
601.676	17.56
601.869	17.85
602.062	17.63
602.255	17.64
602.447	17.69
602.64	17.64
602.833	17.85
603.025	17.92
603.218	17.9
603.411	17.72
603.603	17.84
603.796	18.06
603.989	17.89
604.181	17.98
604.374	18.08
604.566	18.15
604.759	18.18
604.951	18.23
605.144	18.19
605.336	18.16
605.529	18.12
605.721	18.2
605.914	18.07
606.106	17.99
606.299	17.92
606.491	18.02
606.683	18.12
606.876	17.91
607.068	17.85
607.26	17.79
607.453	17.55
607.645	17.64
607.837	17.59
608.03	17.74
608.222	17.94
608.414	17.94
608.606	18.06
608.799	17.75
608.991	18.01
609.183	17.94
609.375	18
609.567	17.95
609.759	17.81
609.952	17.69
610.144	17.69
610.336	17.46
610.528	17.54
610.72	17.29
610.912	17.37
611.104	17.23
611.296	17.13
611.488	17.12
611.68	17.39
611.872	17.59
612.064	17.76
612.256	17.38
612.448	17.58
612.64	17.52
612.832	17.39
613.023	17.39
613.215	17.54
613.407	17.71
613.599	17.55
613.791	17.5
613.983	17.3
614.174	17.12
614.366	17.52
614.558	17.21
614.75	17.32
614.941	17.47
615.133	17.33
615.325	17.07
615.516	17.2
615.708	17.65
615.9	17.63
616.091	17.43
616.283	17.38
616.475	17.25
616.666	17.34
616.858	17.25
617.049	16.88
617.241	17.27
617.432	17.54
617.624	17.42
617.815	17.54
618.007	17.55
618.198	17.97
618.39	17.98
618.581	18.56
618.773	18.73
618.964	18.71
619.155	19.32
619.347	19.16
619.538	19.1
619.729	19.21
619.921	18.92
620.112	19.09
620.303	19.14
620.494	19.3
620.686	18.97
620.877	18.99
621.068	19.21
621.259	18.99
621.451	18.87
621.642	18.78
621.833	18.78
622.024	18.66
622.215	18.85
622.406	18.69
622.597	18.69
622.788	18.34
622.98	18.3
623.171	18.05
623.362	17.94
623.553	17.98
623.744	18.08
623.935	17.98
624.126	17.71
624.317	17.39
624.508	17.63
624.698	17.7
624.889	17.87
625.08	18.2
625.271	18.22
625.462	18.27
625.653	18.47
625.844	18.34
626.034	18.26
626.225	18.55
626.416	18.4
626.607	18.35
626.798	18.25
626.988	18.33
627.179	18.36
627.37	18.5
627.56	18.53
627.751	18.49
627.942	18.6
628.132	18.63
628.323	18.79
628.514	19.05
628.704	18.96
628.895	18.91
629.085	18.81
629.276	18.69
629.466	18.83
629.657	19.06
629.847	19.12
630.038	19.29
630.228	19.46
630.419	19.74
630.609	19.83
630.8	19.96
630.99	20.19
631.181	20.3
631.371	20.33
631.561	20.09
631.752	19.69
631.942	19.46
632.132	19.22
632.323	19.36
632.513	19.09
632.703	19.23
632.893	19.06
633.084	19.08
633.274	18.96
633.464	18.94
633.654	19.07
633.844	19.55
634.034	19.5
634.225	19.55
634.415	19.33
634.605	19.17
634.795	18.91
634.985	18.99
635.175	19.04
635.365	19.16
635.555	18.99
635.745	19.33
635.935	18.93
636.125	19.08
636.315	19.06
636.505	19.01
636.695	19.26
636.885	19.13
637.075	19.27
637.265	19.28
637.455	19.55
637.644	19.63
637.834	19.43
638.024	19.43
638.214	19.65
638.404	19.67
638.593	19.98
638.783	19.6
638.973	19.62
639.163	19.38
639.352	19.12
639.542	18.85
639.732	18.73
639.921	18.64
640.111	18.93
640.301	18.88
640.49	18.98
640.68	18.98
640.87	19.1
641.059	19.61
641.249	19.41
641.438	19.71
641.628	19.8
641.817	19.84
642.007	19.42
642.196	19.28
642.386	19.13
642.575	18.95
642.764	18.94
642.954	18.97
643.143	18.88
643.333	19.16
643.522	18.83
643.711	18.95
643.901	19.48
644.09	19.68
644.279	19.85
644.469	19.48
644.658	20.05
644.847	19.78
645.036	20.08
645.226	20.1
645.415	20.06
645.604	20.16
645.793	19.88
645.982	19.68
646.171	19.89
646.361	19.88
646.55	20.77
646.739	20.6
646.928	20.69
647.117	20.67
647.306	20.15
647.495	20.43
647.684	20.43
647.873	20.19
648.062	20.02
648.251	19.89
648.44	19.97
648.629	19.38
648.818	18.94
649.007	19.05
649.196	19.17
649.384	19.54
649.573	19.57
649.762	19.68
649.951	20.23
650.14	20.1
650.328	20.11
650.517	19.69
650.706	20.12
650.895	20.32
651.083	20.38
651.272	19.7
651.461	19.87
651.65	19.65
651.838	19.51
652.027	19.35
652.216	19.07
652.404	19.5
652.593	20.07
652.781	20.14
652.97	20.4
653.158	19.84
653.347	20.52
653.535	20.14
653.724	20.12
653.912	20.25
654.101	20
654.289	20.41
654.478	20.21
654.666	20.01
654.855	19.9
655.043	19.75
655.231	20.2
655.42	19.76
655.608	20.02
655.796	20.33
655.985	20.5
656.173	20.6
656.361	20.48
656.55	20.2
656.738	20.21
656.926	20.46
657.114	20.57
657.302	20.74
657.491	20.97
657.679	20.77
657.867	20.79
658.055	20.19
658.243	20.14
658.431	20.25
658.619	20.56
658.807	20.36
658.996	20.03
659.184	20.3
659.372	20.28
659.56	20.22
659.748	20.22
659.936	20.24
660.124	20.59
660.311	20.93
660.499	21.01
660.687	20.63
660.875	20.64
661.063	20.69
661.251	20.34
661.439	20.26
661.627	20.46
661.814	20.56
662.002	20.43
662.19	20.4
662.378	20.12
662.565	19.95
662.753	20.04
662.941	20.1
663.129	20.26
663.316	19.92
663.504	20.16
663.692	20.28
663.879	19.9
664.067	19.61
664.254	19.98
664.442	19.84
664.63	19.93
664.817	20
665.005	20.33
665.192	20.01
665.38	20.2
665.567	19.85
665.755	19.57
665.942	20.09
666.13	20.7
666.317	19.95
666.504	20.04
666.692	19.97
666.879	20.2
667.067	20.46
667.254	20.62
667.441	20.41
667.629	20.47
667.816	20.57
668.003	20.73
668.19	20.35
668.378	20.39
668.565	20.44
668.752	20.47
668.939	20.24
669.127	19.56
669.314	19.3
669.501	19.73
669.688	19.81
669.875	19.79
670.062	19.66
670.249	19.69
670.436	20.51
670.623	20.51
670.81	20.73
670.997	20.84
671.184	21.32
671.371	21.71
671.558	21.85
671.745	22.12
671.932	22.37
672.119	22.04
672.306	22.4
672.493	22.03
672.68	22.17
672.867	21.6
673.054	21.72
673.24	21.65
673.427	21.65
673.614	21.36
673.801	21.25
673.988	21.33
674.174	21.39
674.361	20.98
674.548	21.14
674.734	20.69
674.921	21.18
675.108	21.01
675.294	20.35
675.481	19.82
675.668	19.99
675.854	19.86
676.041	19.69
676.227	19.82
676.414	20.03
676.601	19.47
676.787	19.83
676.974	20.01
677.16	19.86
677.347	20.31
677.533	20.56
677.719	19.94
677.906	20.21
678.092	19.93
678.279	20
678.465	19.79
678.651	20.25
678.838	20.06
679.024	19.73
679.21	19.87
679.397	19.81
679.583	20.01
679.769	20.81
679.955	20.29
680.142	20.61
680.328	20.31
680.514	20.37
680.7	20.18
680.886	20.41
681.073	20.84
681.259	20.69
681.445	20.75
681.631	20.3
681.817	20.02
682.003	20.28
682.189	20.21
682.375	20.57
682.561	20.58
682.747	20.57
682.933	20.73
683.119	20.92
683.305	21.17
683.491	20.86
683.677	21.85
683.863	22.13
684.049	21.96
684.235	22.04
684.42	21.68
684.606	21.82
684.792	22.38
684.978	22.4
685.164	21.91
685.349	21.79
685.535	22.54
685.721	21.88
685.907	21.46
686.092	21.72
686.278	21.29
686.464	22.01
686.649	22.04
686.835	21.63
687.021	21.53
687.206	21.82
687.392	21.96
687.577	21.49
687.763	21.72
687.948	21.87
688.134	21.93
688.319	22.17
688.505	22.07
688.69	21.59
688.876	21.87
689.061	21.64
689.247	21.27
689.432	20.66
689.618	21.32
689.803	21.2
689.988	21.45
690.174	21.67
690.359	21.46
690.544	21.45
690.73	22.02
690.915	21.96
691.1	22.36
691.285	22.39
691.471	23.1
691.656	22.36
691.841	22.05
692.026	21.53
692.211	21.24
692.396	21.41
692.582	20.87
692.767	20.3
692.952	20.03
693.137	19.57
693.322	19.52
693.507	20.04
693.692	20.27
693.877	20
694.062	19.97
694.247	19.83
694.432	20.52
694.617	20.88
694.802	21.29
694.987	21.72
695.172	22.24
695.357	22.94
695.541	22.19
695.726	22.16
695.911	22.44
696.096	22.05
696.281	22.6
696.466	21.88
696.65	21.59
696.835	21.68
697.02	21.16
697.204	20.52
697.389	20.32
697.574	20.47
697.759	20.89
697.943	21.18
698.128	21.64
698.312	21.29
698.497	21.49
698.682	21.31
698.866	21.18
699.051	21.4
699.235	22
699.42	21.96
699.604	22.21
699.789	22.02
699.973	22.07
700.158	22.1
700.342	22.16
700.527	22
700.711	22.51
700.895	22.74
701.08	23.09
701.264	22.63
701.448	22.39
701.633	21.41
701.817	21.03
702.001	20.74
702.186	20.61
702.37	20.75
702.554	20.82
702.738	20.52
702.923	20.48
703.107	20.15
703.291	20.49
703.475	20.42
703.659	20.93
703.843	20.93
704.027	20.6
704.212	20.95
704.396	21.47
704.58	21.26
704.764	21.93
704.948	22.32
705.132	21.79
705.316	21.95
705.5	22.19
705.684	22.62
705.868	22.91
706.052	23.59
706.235	22.9
706.419	21.98
706.603	21.92
706.787	21.23
706.971	20.84
707.155	21.03
707.339	20.6
707.522	21.24
707.706	20.76
707.89	21.03
708.074	20.42
708.257	20.79
708.441	21.5
708.625	22.25
708.808	22.27
708.992	22.93
709.176	22.91
709.359	23.07
709.543	22.09
709.727	22.71
709.91	22.48
710.094	22.5
710.277	22.68
710.461	21.93
710.644	21.62
710.828	21.24
711.011	20.73
711.195	22.16
711.378	22.21
711.562	21.58
711.745	21.15
711.928	20.8
712.112	21.6
712.295	20.76
712.478	21.31
712.662	21.04
712.845	21.3
713.028	21.36
713.212	20.76
713.395	20.71
713.578	22.14
713.761	21.86
713.945	22.65
714.128	22.64
714.311	23.52
714.494	23.7
714.677	23.19
714.86	23.95
715.043	23.87
715.227	23.19
715.41	22.17
715.593	21.66
715.776	22.68
715.959	22.28
716.142	21.46
716.325	21.86
716.508	21.27
716.691	21.35
716.874	21.07
717.057	21.03
717.239	20.61
717.422	21.36
717.605	20.96
717.788	20.2
717.971	20.57
718.154	20.52
718.337	20.18
718.519	20.73
718.702	20.94
718.885	20.81
719.068	20.55
719.25	21.05
719.433	21.63
719.616	21.63
719.798	21.4
719.981	20.53
720.164	20.39
720.346	20.49
720.529	21.2
720.712	22.2
720.894	21.84
721.077	22.39
721.259	22.27
721.442	21.83
721.624	21.71
721.807	21.57
721.989	21.8
722.172	22.37
722.354	22.23
722.537	21.09
722.719	20.16
722.901	20.21
723.084	20.32
723.266	20.72
723.448	20.1
723.631	21.23
723.813	21.71
723.995	21.76
724.178	21.88
724.36	21.66
724.542	22.04
724.724	22.09
724.907	21.86
725.089	21.14
725.271	20.85
725.453	21.89
725.635	20.91
725.817	21.08
725.999	20.94
726.181	20.88
726.364	19.7
726.546	18.44
726.728	19.34
726.91	20.38
727.092	20.92
727.274	21.19
727.456	20.72
727.638	20.83
727.819	20.84
728.001	21.45
728.183	21.68
728.365	22.65
728.547	23.39
728.729	22.9
728.911	22.33
729.093	22.11
729.274	21.54
729.456	21.5
729.638	22.26
729.82	22.02
730.001	21.65
730.183	21.68
730.365	21.57
730.546	22.37
730.728	22.37
730.91	23.23
731.091	23.07
731.273	23.38
731.455	22.25
731.636	21.34
731.818	20.73
731.999	21.16
732.181	21.29
732.362	20.96
732.544	20.19
732.725	19.81
732.907	18.2
733.088	18.38
733.27	18.12
733.451	19.52
733.633	19.35
733.814	20.32
733.995	19.94
734.177	19.11
734.358	18.81
734.539	19.48
734.721	19.5
734.902	20.09
735.083	20.24
735.264	21.02
735.446	20.99
735.627	22.29
735.808	22.38
735.989	22.31
736.17	22.97
736.351	23.67
736.533	22.76
736.714	23.54
736.895	23.73
737.076	22.93
737.257	23.06
737.438	22.75
737.619	21.81
737.8	21.63
737.981	21
738.162	20.12
738.343	21.14
738.524	20.99
738.705	19.95
738.886	20.12
739.067	19.82
739.247	18.96
739.428	18.85
739.609	20.06
739.79	20.09
739.971	20.07
740.151	21.37
740.332	20.16
740.513	20.74
740.694	22.37
740.874	22.74
741.055	23.36
741.236	23.4
741.417	23.33
741.597	22.51
741.778	21.8
741.958	21.54
742.139	21.62
742.32	21.67
742.5	21.32
742.681	20.59
742.861	20.79
743.042	21.64
743.222	22.04
743.403	22.96
743.583	22.06
743.764	23.01
743.944	23.79
744.124	22.43
744.305	22.41
744.485	22.74
744.666	21.79
744.846	20.58
745.026	19.43
745.207	19.03
745.387	18.43
745.567	18
745.747	16.98
745.928	17.92
746.108	18.16
746.288	18.84
746.468	18.79
746.648	18.71
746.829	18.59
747.009	19.27
747.189	18.12
747.369	18.3
747.549	19.51
747.729	20.25
747.909	20.58
748.089	21.33
748.269	21.73
748.449	21.13
748.629	21.54
748.809	21.78
748.989	21.28
749.169	21.68
749.349	22.25
749.529	22.8
749.709	22.81
749.889	21.95
750.068	21.97
750.248	21.41
750.428	23.29
750.608	23.77
750.788	23.8
750.967	23.4
751.147	24.98
751.327	24.04
751.507	23.33
751.686	23.45
751.866	23.34
752.046	22.56
752.225	20.12
752.405	18.75
752.585	18.54
752.764	18.59
752.944	18.85
753.123	18.06
753.303	18.64
753.482	18.21
753.662	17.44
753.841	17.5
754.021	17.2
754.2	19.13
754.38	19.36
754.559	19.71
754.739	19.94
754.918	20.8
755.097	20.53
755.277	21.1
755.456	21.8
755.635	21.91
755.815	22.9
755.994	23.81
756.173	23.91
756.352	24.16
756.532	23.35
756.711	23.93
756.89	22.58
757.069	20.74
757.248	19.17
757.427	19.11
757.607	19.54
757.786	19.31
757.965	20.66
758.144	20.86
758.323	20.02
758.502	20.37
758.681	20.1
758.86	21.01
759.039	22.06
759.218	23.13
759.397	23.2
759.576	23.04
759.755	22.14
759.934	19.98
760.113	20.27
760.291	20.32
760.47	19.8
760.649	19.4
760.828	19.76
761.007	21.28
761.186	20.5
761.364	20.63
761.543	20.39
761.722	20.48
761.901	21.17
762.079	20.7
762.258	20.9
762.437	22.18
762.615	22.24
762.794	21.97
762.972	20.96
763.151	21.34
763.33	20.8
763.508	21.7
763.687	21.46
763.865	22.05
764.044	22.88
764.222	22.53
764.401	21.91
764.579	21.25
764.758	21.25
764.936	22.78
765.114	22.89
765.293	23.35
765.471	22.63
765.65	23.95
765.828	23.7
766.006	22.32
766.184	22.19
766.363	22.06
766.541	22.87
766.719	20.91
766.898	18.38
767.076	17.87
767.254	17.25
767.432	17.29
767.61	16.47
767.788	15.9
767.967	16.35
768.145	16.77
768.323	18.32
768.501	19.06
768.679	21.26
768.857	23.08
769.035	23.31
769.213	24.04
769.391	23.48
769.569	22.51
769.747	23.27
769.925	22.95
770.103	24
770.281	21.63
770.459	20.16
770.636	20.58
770.814	19.4
770.992	17.15
771.17	19.41
771.348	21.67
771.525	21.15
771.703	22
771.881	24
772.059	21.71
772.236	21.23
772.414	22.7
772.592	21.95
772.769	22.84
772.947	26.59
773.125	26.33
773.302	22.28
773.48	23.12
773.657	22.45
773.835	20.64
774.013	23.4
774.19	24.1
774.368	23.83
774.545	24.67
774.723	22.17
774.9	20.31
775.077	17.42
775.255	20.56
775.432	20.99
775.61	21.5
775.787	18.38
775.964	16.01
776.142	15.05
776.319	12.57
776.496	11.77
776.674	10.84
776.851	10.61
777.028	11.98
777.205	11.9
777.382	10.65
777.56	6.39
777.737	10.25
777.914	12.47
778.091	13.27
778.268	14.52
778.445	15.59
778.622	18.06
778.8	19.34
778.977	20.09
779.154	19.85
779.331	21.62
779.508	21.5
779.685	20.27
779.862	18.2
780.038	18.9
780.215	20.57
780.392	18.37
780.569	19.13
780.746	18.7
780.923	16.12
781.1	14.46
781.277	11.35
781.453	17.03
781.63	17.68
781.807	19.22
781.984	18.92
782.16	18.68
782.337	19.71
782.514	18.55
782.691	17.37
782.867	20.21
783.044	24.09
783.221	25.79
783.397	24.56
783.574	24.44
783.75	24.4
783.927	25.69
784.103	24.48
784.28	23.39
784.456	25.07
784.633	23.66
784.809	22.08
784.986	18.18
785.162	18.67
785.339	17.84
785.515	17.94
785.692	16.21
785.868	13.63
786.044	14.83
786.221	14.7
786.397	12.61
786.573	14.79
786.749	12.98
786.926	14.94
787.102	12.25
787.278	9.73
787.454	6.55
787.631	8.54
787.807	9.34
787.983	9.48
788.159	12.57
788.335	14.21
788.511	14.09
788.687	16.71
788.863	16.64
789.039	17.91
789.216	17.77
789.392	19.7
789.568	20.2
789.744	19.42
789.919	19.57
790.095	18.25
790.271	18.7
790.447	21.5
790.623	20.4
790.799	23.02
790.975	21.93
791.151	24.77
791.327	27.5
791.502	26.89
791.678	26.97
791.854	25.64
792.03	26.78
792.205	24.84
792.381	21.74
792.557	22.74
792.733	20.29
792.908	20.67
793.084	20.66
793.259	18.69
793.435	18.43
793.611	17.54
793.786	19.27
793.962	16.96
794.137	17.91
794.313	16.9
794.488	14.35
794.664	13.16
794.839	14.92
795.015	12.89
795.19	12.85
795.366	11.94
795.541	14.2
795.716	13.78
795.892	14.41
796.067	13.78
796.242	15
796.418	17.36
796.593	20.95
796.768	21.17
796.944	21.83
797.119	21.59
797.294	22.25
797.469	22.05
797.644	20.48
797.82	20.87
797.995	21.36
798.17	21.72
798.345	20.99
798.52	19.08
798.695	17.33
798.87	18.4
799.045	20.77
799.22	23.03
799.395	24.91
799.57	24.77
799.745	21.97
799.92	20.71
800.095	23.29
800.27	21.37
800.445	19.87
800.62	23.2
800.795	22.19
800.97	18.41
801.145	15.37
801.319	10.03
801.494	9.41
801.669	12.78
801.844	13.02
802.018	9.2
802.193	11.68
802.368	9.88
802.543	7.52
802.717	9.63
802.892	8.19
803.067	9.8
803.241	9.44
803.416	14.38
803.59	9.84
803.765	10.84
803.94	11.72
804.114	11.73
804.289	13.08
804.463	14.97
804.638	12.34
804.812	13.74
804.986	13.67
805.161	17.05
805.335	14.11
805.51	16.43
805.684	13.91
805.858	16.64
806.033	14.69
806.207	14.54
806.381	12.31
806.556	11.6
806.73	13.39
806.904	12.9
807.078	13.72
807.253	12.93
807.427	15.65
807.601	17.08
807.775	13.94
807.949	16.28
808.123	19.59
808.298	16.27
808.472	16.33
808.646	18.53
808.82	14.4
808.994	13.04
809.168	13.54
809.342	12.1
809.516	10
809.69	8.78
809.864	8.82
810.038	8.5
810.212	11.74
810.385	9.7
810.559	8.68
810.733	16.43
810.907	17.54
811.081	13.92
811.255	19.12
811.428	25.01
811.602	27.47
811.776	24.97
811.95	25.75
812.123	25.97
812.297	25.07
812.471	23.9
812.644	15.84
812.818	15.62
812.992	19.02
813.165	16.16
813.339	14.03
813.512	15.69
813.686	19.1
813.86	17.89
814.033	19.8
814.207	22.59
814.38	22.1
814.554	25.98
814.727	26.19
814.9	25.15
815.074	25.46
815.247	22.3
815.421	20.91
815.594	21.81
815.767	17.19
815.941	13.37
816.114	14.69
816.287	17.77
816.46	17.33
816.634	18.23
816.807	20.01
816.98	21.31
817.153	27.94
817.327	26.18
817.5	23.84
817.673	28.52
817.846	30.83
818.019	32.07
818.192	28.85
818.365	30.08
818.538	29.66
818.711	29.88
818.884	26.46
819.057	19.78
819.23	19.97
819.403	17.03
819.576	17.88
819.749	18.6
819.922	17.26
820.095	19.04
820.268	18.67
820.441	18.23
820.614	17.42
820.786	19.58
820.959	22.76
821.132	23.27
821.305	25.93
821.477	24.47
821.65	23.75
821.823	24.08
821.996	24.15
822.168	24.99
822.341	24.42
822.514	24.55
822.686	24.13
822.859	24.92
823.031	24.55
823.204	24.1
823.376	24.39
823.549	24.26
823.722	23.56
823.894	23.66
824.067	22.72
824.239	23.47
824.411	22.85
824.584	22.87
824.756	21.28
824.929	21.93
825.101	22
825.273	22.52
825.446	22.64
825.618	23.33
825.79	23.26
825.963	24.57
826.135	22.84
826.307	25.21
826.479	24.71
826.652	24.36
826.824	25.49
826.996	24.87
827.168	22.73
827.34	22.05
827.512	22.6
827.684	21.87
827.856	20.33
828.029	21.36
828.201	19.99
828.373	20.26
828.545	21.42
828.717	19.44
828.889	19.92
829.061	21.31
829.232	21.64
829.404	22.9
829.576	20.69
829.748	21.11
829.92	20.73
830.092	17.75
830.264	17.17
830.436	13.16
830.607	9.82
830.779	4.85
830.951	5.1
831.123	4.83
831.294	1.37
831.466	-0.2
831.638	-2.31
831.809	-4.68
831.981	-2.73
832.153	-2.42
832.324	-1.39
832.496	3.2
832.667	4.06
832.839	0.23
833.011	3.08
833.182	2.08
833.354	11.85
833.525	17.46
833.697	18.32
833.868	19.84
834.039	22.82
834.211	25.47
834.382	24.4
834.554	26.41
834.725	28.84
834.896	28.39
835.068	28.36
835.239	27.4
835.41	23.29
835.581	24.49
835.753	24.68
835.924	20.42
836.095	19.32
836.266	17.39
836.438	16.97
836.609	13.51
836.78	12.57
836.951	14.3
837.122	12.78
837.293	12.63
837.464	15.54
837.635	12.57
837.806	14.55
837.977	13.72
838.148	15.44
838.319	15.49
838.49	21.31
838.661	19.18
838.832	18.16
839.003	19
839.174	22.85
839.345	14.88
839.516	14.27
839.687	21.47
839.857	20.27
840.028	19.43
840.199	23.76
840.37	18.12
840.54	20.08
840.711	18.12
840.882	20.33
841.053	22.34
841.223	25.06
841.394	23.34
841.564	15.06
841.735	19.07
841.906	25.79
842.076	21.39
842.247	20.37
842.417	16.65
842.588	9.43
842.758	5.75
842.929	-6.01
843.099	-8.67
843.27	-13.13
843.44	-17.56
843.611	-19.45
843.781	-39.7
843.951	-52.85
844.122	-55.05
844.292	-38.71
844.462	-38.48
844.633	-44.93
844.803	-33.14
844.973	-36.31
845.144	-24.64
845.314	-19.83
845.484	-24.64
845.654	-14.08
845.824	-12.98
845.995	-21.17
846.165	-45.98
846.335	-39.31
846.505	-17.33
846.675	-17.91
846.845	-1.6
847.015	-4.69
847.185	-19.68
847.355	-25.98
847.525	-25.92
847.695	-18.53
847.865	-15.74
848.035	-7.24
848.205	-13.77
848.375	-52.09
848.545	-67.39
848.715	-47.7
848.884	-33.09
849.054	-37.02
849.224	-38.83
849.394	-41.3
849.564	-52.03
849.733	-62.13
849.903	-47.78
850.073	-52.66
850.243	-31.76
850.412	-25.39
850.582	-29.83
850.752	-66.7
850.921	-46.32
851.091	-38.07
851.26	-59.57
851.43	-56.45
851.599	-47.23
851.769	-61.51
851.939	-46.73
852.108	-46.03
852.278	-89.28
852.447	-129.23
852.616	-72.08
852.786	-44.96
852.955	-50.36
853.125	-43.71
853.294	-23.34
853.463	-33.97
853.633	7.73
853.802	8.65
853.971	6
854.141	17.66
854.31	14.94
854.479	11.41
854.648	-2.98
854.818	-4.85
854.987	-10.51
855.156	-8.2
855.325	2.07
855.494	-8.83
855.663	-5.96
855.832	-6.93
856.001	0.32
856.171	5.79
856.34	-1.07
856.509	9.78
856.678	19.47
856.847	25.6
857.016	6.67
857.185	12.8
857.353	21.66
857.522	10.56
857.691	15.61
857.86	23.27
858.029	7.9
858.198	2.49
858.367	-28.8
858.535	-38.39
858.704	-33.2
858.873	-15.36
859.042	-5.96
859.21	-16.71
859.379	-4.14
859.548	-24.86
859.717	-42.83
859.885	-40.23
860.054	-25.82
860.222	-15.86
860.391	-22.99
860.56	-35.41
860.728	-10.01
860.897	-4.79
861.065	-5.61
861.234	-4.65
861.402	-7.42
861.571	23.54
861.739	24.02
861.908	38.96
862.076	32.2
862.244	22.47
862.413	56.73
862.581	-6.67
862.749	-104.91
862.918	-71.64
863.086	-61.82
863.254	-87.46
863.423	-117.88
863.591	-89.13
863.759	-208.49
863.927	-175.14
864.096	-163.23
864.264	-135.23
864.432	-51.63
864.6	-10.77
864.768	-13.53
864.936	-17.59
865.104	4.82
865.272	8.97
865.44	2.44
865.608	5.32
865.776	6.39
865.944	10.36
866.112	-5.32
866.28	-4.46
866.448	-1.56
866.616	10.44
866.784	4.42
866.952	4.05
867.12	-20.47
867.288	-19.66
867.455	-31.91
867.623	-42.67
867.791	-28.27
867.959	6.94
868.127	9.92
868.294	-14.49
868.462	-16.57
868.63	-6.8
868.797	-24.46
868.965	-8.52
869.133	-23.67
869.3	-9.46
869.468	-1.78
869.636	-13.41
869.803	-26.19
869.971	-35.48
870.138	-21.68
870.306	-67.55
870.473	-84.31
870.641	-63.84
870.808	-53.53
870.975	-21.88
871.143	-1.71
871.31	-2.77
871.478	-2.64
871.645	-13.29
871.812	-8.09
871.98	20.83
872.147	26.8
872.314	31.19
872.482	30.78
872.649	26.25
872.816	16.73
872.983	-3.26
873.15	-12.47
873.318	7.03
873.485	19.81
873.652	21.3
873.819	-32.31
873.986	-13.24
874.153	-15.86
874.32	-34.96
874.487	-27.37
874.654	-8.3
874.821	2.1
874.988	7.52
875.155	2.41
875.322	-1.83
875.489	-0.45
875.656	31.77
875.823	17.93
875.99	26.71
876.157	39.93
876.324	26.14
876.49	15.97
876.657	17.2
876.824	-3.01
876.991	5.31
877.157	5.25
877.324	3.96
877.491	-29.33
877.658	-0.1
877.824	-12.82
877.991	-10.57
878.157	-12.69
878.324	-10.91
878.491	-10.7
878.657	-0.78
878.824	-19.09
878.99	-19.73
879.157	-12
879.323	-7.77
879.49	-17.45
879.656	-13.74
879.823	-13.87
879.989	2.84
880.156	-22.56
880.322	-20.67
880.488	-16.98
880.655	-5.22
880.821	-8.2
880.987	-14.79
881.154	-19.73
881.32	-26.27
881.486	-17.99
881.652	-14.33
881.819	-16.6
881.985	0.99
882.151	0.66
882.317	5.25
882.483	7.21
882.649	10.69
882.816	14.63
882.982	18.88
883.148	21.9
883.314	22.27
883.48	22.63
883.646	27.58
883.812	27.24
883.978	27.41
884.144	27.35
884.31	28.67
884.476	27.56
884.642	25.73
884.807	23.57
884.973	22.07
885.139	22.53
885.305	23.43
885.471	20.46
885.637	18.23
885.802	18.46
885.968	17.52
886.134	11.71
886.3	13.5
886.465	6.12
886.631	5.58
886.797	4.71
886.962	3.22
887.128	-0.12
887.293	0.67
887.459	14.94
887.625	1.75
887.79	7.98
887.956	16.35
888.121	13.34
888.287	23.1
888.452	30.48
888.618	32.56
888.783	31.32
