Data from 2938094_Reflection_1.txt Node
Date: Sat Jul 11 19:07:58 EDT 2015
User: robert
Spectrometer: USB4E03001
Autoset integration time: false
Trigger mode: 4
Integration Time (sec): 1.000000E-1
Scans to average: 10
Electric dark correction enabled: true
Nonlinearity correction enabled: false
Boxcar width: 5
Stray light correction enabled: false
XAxis mode: Wavelengths
Stop averaging: false
Number of Pixels in Spectrum: 3648
>>>>>Begin Spectral Data<<<<<
177.566	59.33
177.785	24.76
178.005	-5.58
178.225	-0.32
178.445	-47.79
178.665	-169.82
178.885	129.47
179.105	-132.82
179.324	673.5
179.544	-69.13
179.764	-88.75
179.984	-5.39
180.204	-33.63
180.423	-394.85
180.643	732.97
180.863	325.99
181.083	213.93
181.302	197.06
181.522	343.46
181.742	-606.11
181.961	-169.97
182.181	-1349.04
182.401	-1030.5
182.621	324.09
182.84	-439.33
183.06	-632.12
183.279	604.12
183.499	363.06
183.719	191.58
183.938	88.28
184.158	52.46
184.377	64.55
184.597	72.78
184.816	65.46
185.036	80.63
185.256	69.79
185.475	84.5
185.695	92.92
185.914	90.06
186.134	111.45
186.353	145.65
186.572	218.08
186.792	172.99
187.011	148.98
187.231	137.42
187.45	128.03
187.67	138.78
187.889	118.58
188.108	109.31
188.328	104.25
188.547	81.73
188.766	62.7
188.986	70.69
189.205	67.35
189.424	42.61
189.644	59.79
189.863	38.79
190.082	40.24
190.302	24.69
190.521	37.09
190.74	37.94
190.959	204.67
191.178	1498.82
191.398	812.09
191.617	279.38
191.836	573.08
192.055	88.92
192.274	647.09
192.494	319.9
192.713	352.98
192.932	290.09
193.151	325.96
193.37	268.78
193.589	321.89
193.808	428.28
194.027	1824.65
194.246	2515.14
194.465	-7998.08
194.685	258.65
194.904	363.59
195.123	59.84
195.342	53.45
195.561	31.76
195.78	-42.87
195.999	7.01
196.218	13.98
196.436	17.89
196.655	3.75
196.874	51.39
197.093	60.55
197.312	75.27
197.531	105.26
197.75	99.05
197.969	121.93
198.188	127.73
198.407	124.77
198.625	91.61
198.844	90.69
199.063	108.56
199.282	134.23
199.501	134.57
199.719	146.47
199.938	103.77
200.157	83.51
200.376	92.96
200.594	69.12
200.813	74.03
201.032	156.45
201.251	154.07
201.469	138.4
201.688	142.07
201.907	248.54
202.125	214.2
202.344	319.23
202.563	403.4
202.781	246.59
203	471.97
203.218	327.45
203.437	337.95
203.656	833.64
203.874	2790.21
204.093	370.63
204.311	704.09
204.53	-7596.92
204.748	1607.69
204.967	586.35
205.185	3215.38
205.404	1262.43
205.622	329.85
205.841	246.09
206.059	334.22
206.278	208.79
206.496	241.25
206.715	209.24
206.933	207.74
207.151	205.04
207.37	275.39
207.588	112.91
207.806	272.19
208.025	245.53
208.243	-399.57
208.461	230.21
208.68	242.67
208.898	407.94
209.116	441.5
209.335	68.67
209.553	151.18
209.771	107.27
209.989	295.07
210.208	354.75
210.426	-2475.57
210.644	1237.73
210.862	1609.72
211.081	-523.95
211.299	15361.54
211.517	-934.99
211.735	703.47
211.953	361.04
212.171	341.11
212.39	140.21
212.608	83.53
212.826	63.75
213.044	50.74
213.262	69.74
213.48	70.15
213.698	53.83
213.916	32.91
214.134	21.02
214.352	46.53
214.57	47.1
214.788	56.27
215.006	67.25
215.224	90.04
215.442	140.74
215.66	100.71
215.878	78.48
216.096	91.58
216.314	117.89
216.532	122.63
216.75	94.63
216.968	71.54
217.185	92.92
217.403	97.58
217.621	112.91
217.839	139.3
218.057	157.49
218.275	146.35
218.492	102.06
218.71	105.04
218.928	100.34
219.146	136.26
219.363	129.88
219.581	128.65
219.799	186.5
220.017	214.73
220.234	153.09
220.452	209.77
220.67	214.21
220.887	366.91
221.105	221.18
221.323	148.44
221.54	153.18
221.758	147.06
221.976	148.54
222.193	112.98
222.411	102.14
222.629	94.73
222.846	87.5
223.064	88.84
223.281	83.49
223.499	87.66
223.716	88.51
223.934	83.3
224.151	99.31
224.369	85.86
224.586	104.39
224.804	107.34
225.021	98.56
225.239	118.25
225.456	115.8
225.674	125.26
225.891	120.27
226.108	122.52
226.326	101.53
226.543	68.82
226.76	61.05
226.978	44.16
227.195	45.48
227.413	43.35
227.63	28.96
227.847	21.48
228.064	18.88
228.282	22.55
228.499	22.95
228.716	24.75
228.934	26.83
229.151	26.69
229.368	23.35
229.585	20.39
229.802	18.99
230.02	21.89
230.237	26.17
230.454	26.51
230.671	24.98
230.888	26.56
231.105	27.7
231.323	33.09
231.54	34.83
231.757	40.08
231.974	41.66
232.191	38.86
232.408	42.74
232.625	36.97
232.842	38.91
233.059	37.86
233.276	36.18
233.493	36.9
233.71	35.4
233.927	34.37
234.144	27.77
234.361	30.13
234.578	39.22
234.795	31.88
235.012	27.2
235.229	26.95
235.446	32.27
235.663	23.34
235.879	20.48
236.096	20.72
236.313	18.71
236.53	22.35
236.747	21.68
236.964	23.88
237.181	23.84
237.397	35.82
237.614	35.36
237.831	29.77
238.048	39.32
238.264	40.56
238.481	37.96
238.698	48.28
238.915	47.56
239.131	50.88
239.348	45.81
239.565	46.06
239.781	39.82
239.998	39.79
240.215	37.81
240.431	32.84
240.648	32.31
240.865	28.44
241.081	23.9
241.298	24.76
241.514	20.97
241.731	19.69
241.947	19.81
242.164	22.01
242.38	21.06
242.597	22.04
242.814	22.77
243.03	22.01
243.246	23.17
243.463	20.59
243.679	19.25
243.896	19.09
244.112	21.58
244.329	22.35
244.545	22.13
244.762	25.3
244.978	23.9
245.194	24.51
245.411	24.9
245.627	24.67
245.843	25.35
246.06	24.91
246.276	22.65
246.492	18.9
246.709	17.19
246.925	16.46
247.141	16.35
247.357	16
247.574	16.98
247.79	16.43
248.006	15.7
248.222	15.88
248.439	14.75
248.655	15.62
248.871	17
249.087	18.11
249.303	18.88
249.519	18.34
249.736	19.9
249.952	18.59
250.168	19.51
250.384	18.46
250.6	20.02
250.816	21.52
251.032	23.76
251.248	22.96
251.464	23.49
251.68	20.38
251.896	19.59
252.112	21.38
252.328	20.21
252.544	19.89
252.76	21.42
252.976	20.47
253.192	20.87
253.408	18.27
253.624	21.19
253.84	19.41
254.056	21.87
254.272	22.75
254.487	20.17
254.703	21.99
254.919	19.92
255.135	21.13
255.351	21.83
255.567	19.79
255.782	21.04
255.998	17.31
256.214	18.81
256.43	18.95
256.646	17.19
256.861	15.69
257.077	13.07
257.293	13.69
257.508	13.57
257.724	13.3
257.94	15.53
258.155	16.6
258.371	15.81
258.587	14.72
258.802	13.77
259.018	13.94
259.234	15.22
259.449	15.58
259.665	15.47
259.88	14.54
260.096	14.12
260.312	13.45
260.527	13.12
260.743	14.05
260.958	15.4
261.174	15.32
261.389	15.95
261.605	15.14
261.82	16.04
262.036	17.23
262.251	18.3
262.466	19.17
262.682	20.65
262.897	21.45
263.113	19.97
263.328	17.6
263.543	18.35
263.759	19
263.974	21.01
264.189	20.58
264.405	20.52
264.62	22.34
264.835	23.72
265.051	22.55
265.266	22.4
265.481	22.67
265.696	21.34
265.912	21.89
266.127	20.3
266.342	19.35
266.557	17.9
266.773	15.47
266.988	13.57
267.203	12.11
267.418	12.94
267.633	13.34
267.848	14.6
268.064	13.58
268.279	12.54
268.494	12.21
268.709	12.37
268.924	14.23
269.139	14.85
269.354	15.6
269.569	15.82
269.784	14.04
269.999	14.26
270.214	14.98
270.429	16.84
270.644	16.01
270.859	15.28
271.074	14.65
271.289	13.96
271.504	14.54
271.719	14.37
271.934	14.54
272.149	15.14
272.363	13.22
272.578	11.2
272.793	11.79
273.008	13.56
273.223	13.88
273.438	13.45
273.653	12.02
273.867	13.02
274.082	12.52
274.297	13
274.512	13.62
274.726	14.89
274.941	15.68
275.156	15.38
275.371	13.05
275.585	13.37
275.8	12.05
276.015	13.79
276.229	11.78
276.444	12.28
276.659	11.15
276.873	12.47
277.088	12.48
277.302	14.23
277.517	15.08
277.732	16.45
277.946	17.17
278.161	18.66
278.375	18.57
278.59	21.13
278.804	19.83
279.019	20.27
279.233	19.8
279.448	19.58
279.662	17.64
279.877	17.34
280.091	16.3
280.306	14.81
280.52	16.12
280.735	15.68
280.949	15.11
281.163	16.11
281.378	18.04
281.592	17.05
281.806	16.96
282.021	17.58
282.235	17.49
282.449	16.33
282.664	17.73
282.878	16.65
283.092	15.99
283.307	14.57
283.521	15.4
283.735	13.38
283.949	14.15
284.164	15.54
284.378	13.77
284.592	13.92
284.806	15.02
285.02	15.22
285.234	14.38
285.449	15.12
285.663	14.86
285.877	13.73
286.091	13.64
286.305	12.83
286.519	11.69
286.733	13.8
286.947	12.67
287.161	12.79
287.375	11.79
287.589	12.45
287.803	11.08
288.017	12.72
288.231	14.22
288.445	12.58
288.659	12.27
288.873	12.85
289.087	10.38
289.301	10.7
289.515	10.76
289.729	11.57
289.943	12.28
290.157	12.95
290.371	12.61
290.584	12.83
290.798	13.58
291.012	14.25
291.226	14.16
291.44	14.17
291.654	15.21
291.867	15.33
292.081	15.7
292.295	15.19
292.509	15.43
292.722	14.51
292.936	14.05
293.15	15.81
293.364	14.36
293.577	14.06
293.791	14.7
294.005	13.14
294.218	13.45
294.432	12.2
294.645	12.28
294.859	13.12
295.073	14
295.286	12.59
295.5	11.75
295.713	12.21
295.927	13.43
296.14	13.25
296.354	15.02
296.568	15.71
296.781	16.34
296.994	16.87
297.208	16
297.421	15.81
297.635	15.46
297.848	16.22
298.062	17.51
298.275	16.46
298.489	17.01
298.702	15.89
298.915	15.56
299.129	15.32
299.342	15.03
299.555	16.14
299.769	16.39
299.982	16.59
300.195	15.6
300.409	15.24
300.622	13.62
300.835	15.63
301.048	16.88
301.262	16.79
301.475	16.27
301.688	16.26
301.901	14.94
302.115	15.93
302.328	17.36
302.541	18.46
302.754	18.62
302.967	20.83
303.18	19.46
303.393	17.92
303.607	18.26
303.82	18.5
304.033	17.91
304.246	18.62
304.459	15.77
304.672	16.33
304.885	16.41
305.098	16.91
305.311	16.64
305.524	16.63
305.737	18.18
305.95	17.74
306.163	19.09
306.376	19.37
306.589	17.47
306.802	18.47
307.015	19.55
307.228	18.22
307.44	16.87
307.653	17.03
307.866	16.72
308.079	16.47
308.292	15.8
308.505	13.63
308.718	12.94
308.93	12.48
309.143	12.46
309.356	11.65
309.569	11.81
309.781	13.16
309.994	14.01
310.207	13.31
310.42	13.29
310.632	14.46
310.845	14.8
311.058	15.99
311.27	17.85
311.483	18.36
311.696	18.86
311.908	20.13
312.121	18.81
312.333	18.89
312.546	19.46
312.759	20.08
312.971	19.32
313.184	18.62
313.396	17.82
313.609	16.11
313.821	17.64
314.034	16.39
314.246	15.8
314.459	16.31
314.671	16.47
314.884	15.57
315.096	14.78
315.309	13.75
315.521	15.08
315.733	16.58
315.946	18.63
316.158	15.46
316.371	15.78
316.583	14.33
316.795	14.72
317.008	11.98
317.22	13.06
317.432	12.17
317.644	12.82
317.857	15.04
318.069	14.01
318.281	12.91
318.494	12.44
318.706	12.27
318.918	12.46
319.13	12.15
319.342	12.27
319.555	13.99
319.767	15.46
319.979	16
320.191	15.26
320.403	15.27
320.615	17.31
320.827	18.71
321.039	19.42
321.252	18.91
321.464	18.89
321.676	19.77
321.888	17.78
322.1	17.82
322.312	18.27
322.524	17.53
322.736	18.52
322.948	17.55
323.16	17.33
323.372	17.69
323.584	18.72
323.796	19.1
324.007	18.8
324.219	19.33
324.431	20.42
324.643	19.87
324.855	20.78
325.067	19.65
325.279	20.16
325.491	21.13
325.702	19.81
325.914	20.28
326.126	20.04
326.338	18.64
326.55	18.49
326.761	18.05
326.973	19.03
327.185	17.23
327.396	16.93
327.608	15.39
327.82	14.11
328.032	13.23
328.243	12.6
328.455	12.57
328.666	14.43
328.878	14.58
329.09	12.28
329.301	12.04
329.513	12.61
329.725	13.05
329.936	13.32
330.148	16.04
330.359	18.68
330.571	18.89
330.782	18.68
330.994	18.5
331.205	20.01
331.417	22.22
331.628	21.36
331.84	21.19
332.051	22.94
332.262	24.18
332.474	21.74
332.685	19.39
332.897	19.55
333.108	20.35
333.319	19.84
333.531	17.51
333.742	14.83
333.953	15.71
334.165	15.95
334.376	13.8
334.587	13.78
334.799	13.17
335.01	15.11
335.221	14.58
335.432	14.58
335.644	14.87
335.855	15.9
336.066	16.3
336.277	14.16
336.488	14.62
336.7	15.37
336.911	15.24
337.122	15.74
337.333	16.19
337.544	15.95
337.755	14.73
337.966	13.86
338.177	13.95
338.388	14.75
338.599	16.98
338.811	15.96
339.022	15.53
339.233	15.77
339.444	16.54
339.655	15.8
339.866	15.52
340.076	15.45
340.287	16.05
340.498	15.79
340.709	17.2
340.92	15.83
341.131	15.72
341.342	16.28
341.553	16.29
341.764	16.8
341.975	16.05
342.185	16.12
342.396	17.85
342.607	19.21
342.818	19.49
343.029	18.24
343.239	19.51
343.45	21.56
343.661	20.84
343.872	19.41
344.082	18.33
344.293	18.17
344.504	18.36
344.714	16.62
344.925	16.03
345.136	15.41
345.346	15.4
345.557	15.26
345.768	13.32
345.978	13.53
346.189	14.19
346.399	14.18
346.61	14.44
346.821	15.02
347.031	14.76
347.242	15.29
347.452	15.67
347.663	15.55
347.873	15.54
348.084	15.51
348.294	15.89
348.504	16.51
348.715	17.31
348.925	16.43
349.136	16.36
349.346	17.83
349.557	16.65
349.767	16.91
349.977	16.47
350.188	14.64
350.398	15.23
350.608	16.05
350.819	15.52
351.029	14.18
351.239	15.4
351.449	15.12
351.66	14.16
351.87	14.9
352.08	14.26
352.29	15.57
352.501	16.95
352.711	17.12
352.921	15.42
353.131	16.24
353.341	15.41
353.552	14.6
353.762	14.57
353.972	14.16
354.182	12.93
354.392	13.93
354.602	13.88
354.812	14.07
355.022	13.13
355.232	13.23
355.442	12.96
355.652	13.73
355.862	13.84
356.072	14.59
356.282	15.15
356.492	14.68
356.702	13.43
356.912	12.72
357.122	11.89
357.332	11.71
357.542	12.28
357.752	11.57
357.962	11.33
358.171	12.02
358.381	11.45
358.591	11.3
358.801	11.67
359.011	11.84
359.221	11.36
359.43	11.4
359.64	11.48
359.85	11.5
360.06	11.57
360.269	11.44
360.479	11.1
360.689	10.84
360.899	10.83
361.108	11.4
361.318	11.71
361.528	12.59
361.737	12.29
361.947	13.04
362.156	13.07
362.366	13.31
362.576	14.21
362.785	14.09
362.995	14.94
363.204	15.38
363.414	15.32
363.623	14.46
363.833	14.75
364.042	14.89
364.252	14.21
364.461	14.87
364.671	15.22
364.88	14.38
365.09	14.08
365.299	13.59
365.509	12.68
365.718	12.01
365.927	12.84
366.137	12.36
366.346	12.32
366.555	11.97
366.765	10.66
366.974	9.54
367.183	9.4
367.393	9.23
367.602	8.7
367.811	9.04
368.021	8.82
368.23	7.63
368.439	7.33
368.648	8.24
368.857	8.81
369.067	9.12
369.276	8.96
369.485	9.44
369.694	9.62
369.903	9.86
370.112	9.87
370.321	10.96
370.531	11.23
370.74	10.54
370.949	9.53
371.158	9.55
371.367	8.93
371.576	9.18
371.785	9.4
371.994	9.93
372.203	10.85
372.412	10.93
372.621	10.45
372.83	10.72
373.039	11.45
373.248	11.79
373.457	11.51
373.666	11.55
373.874	12.14
374.083	11.85
374.292	11.54
374.501	10.85
374.71	10.02
374.919	9.9
375.128	10.25
375.336	9.83
375.545	10.27
375.754	10.62
375.963	11.01
376.171	10.79
376.38	10.62
376.589	10.3
376.798	9.53
377.006	9.97
377.215	10.5
377.424	10.12
377.632	10.33
377.841	9.69
378.05	9.56
378.258	9.96
378.467	9.4
378.675	9.39
378.884	9.2
379.093	9.39
379.301	9.97
379.51	9.63
379.718	9.68
379.927	8.71
380.135	8.78
380.344	8.15
380.552	7.86
380.761	8.25
380.969	7.34
381.177	7.68
381.386	8.47
381.594	7.29
381.803	7.36
382.011	6.99
382.219	7.35
382.428	7.12
382.636	7.42
382.845	7.29
383.053	6.6
383.261	6.65
383.469	6.04
383.678	4.68
383.886	5.08
384.094	4.31
384.302	4.51
384.511	4.58
384.719	4.69
384.927	4.38
385.135	4.52
385.343	4.65
385.552	5.04
385.76	5.21
385.968	5.36
386.176	4.8
386.384	4.86
386.592	4.82
386.8	4.86
387.008	4.67
387.216	4.73
387.424	4.08
387.633	4.62
387.841	4.31
388.049	4.05
388.257	4.42
388.465	5.05
388.672	5.16
388.88	5.24
389.088	5.26
389.296	5.12
389.504	5.16
389.712	5.55
389.92	5.1
390.128	5.52
390.336	5.63
390.544	5.25
390.751	5.15
390.959	5.22
391.167	5.04
391.375	4.93
391.583	5.07
391.79	5.42
391.998	5.28
392.206	5.1
392.414	4.97
392.621	4.98
392.829	5.05
393.037	5.05
393.244	4.88
393.452	4.67
393.66	4.82
393.867	4.87
394.075	4.46
394.283	4.34
394.49	4.44
394.698	4.27
394.905	4.38
395.113	4.59
395.32	4.39
395.528	4.25
395.735	4.63
395.943	4.53
396.15	4.34
396.358	4.32
396.565	4.23
396.773	4.2
396.98	4.14
397.188	4.03
397.395	3.6
397.602	3.92
397.81	4.34
398.017	4.4
398.225	4.16
398.432	4.3
398.639	4.65
398.847	4.91
399.054	4.99
399.261	5.12
399.468	5.04
399.676	5.02
399.883	4.62
400.09	4.46
400.297	4.14
400.505	4.47
400.712	3.98
400.919	3.89
401.126	3.68
401.333	3.54
401.54	3.32
401.748	3.57
401.955	3.57
402.162	3.47
402.369	3.43
402.576	3.41
402.783	3.34
402.99	3.81
403.197	3.26
403.404	3.3
403.611	3.33
403.818	3.63
404.025	3.41
404.232	3.5
404.439	3.84
404.646	3.74
404.853	3.64
405.06	3.67
405.267	3.52
405.474	3.89
405.681	3.97
405.887	4.05
406.094	4.02
406.301	4.2
406.508	4.39
406.715	4.27
406.922	4.21
407.128	4.29
407.335	4.39
407.542	4.61
407.749	4.6
407.955	4.34
408.162	4.36
408.369	4.57
408.575	4.48
408.782	4.11
408.989	3.76
409.195	3.87
409.402	3.85
409.609	3.79
409.815	3.91
410.022	3.75
410.228	3.81
410.435	3.9
410.642	3.77
410.848	3.74
411.055	3.89
411.261	4.33
411.468	4.46
411.674	4.65
411.881	4.28
412.087	3.75
412.294	3.78
412.5	3.87
412.706	3.95
412.913	3.76
413.119	3.8
413.326	3.99
413.532	4
413.738	4.03
413.945	3.94
414.151	4.21
414.357	4.41
414.564	4.19
414.77	4.02
414.976	3.8
415.182	3.69
415.389	3.9
415.595	3.89
415.801	3.54
416.007	3.27
416.214	3.38
416.42	3.43
416.626	3.46
416.832	3.67
417.038	3.8
417.244	3.65
417.45	3.62
417.657	3.3
417.863	3.16
418.069	3.17
418.275	3.35
418.481	3.26
418.687	3.23
418.893	3.07
419.099	3
419.305	2.89
419.511	2.86
419.717	2.89
419.923	2.87
420.129	2.88
420.335	2.9
420.541	2.77
420.746	2.72
420.952	2.52
421.158	2.55
421.364	2.45
421.57	2.56
421.776	2.54
421.982	2.58
422.187	2.54
422.393	2.56
422.599	2.67
422.805	2.64
423.01	2.69
423.216	2.78
423.422	2.81
423.628	2.91
423.833	2.96
424.039	3.04
424.245	2.92
424.45	3.1
424.656	3.04
424.862	2.95
425.067	3
425.273	3.07
425.478	3.04
425.684	2.99
425.889	3.02
426.095	2.99
426.301	2.96
426.506	3.05
426.712	2.95
426.917	3.03
427.123	2.84
427.328	2.9
427.533	2.78
427.739	2.76
427.944	3.03
428.15	2.98
428.355	2.77
428.561	2.8
428.766	2.88
428.971	3.06
429.177	3.11
429.382	3.26
429.587	3.37
429.793	3.18
429.998	3.33
430.203	3.43
430.408	3.24
430.614	3.3
430.819	3.28
431.024	3.36
431.229	3.16
431.434	2.94
431.64	2.8
431.845	2.74
432.05	2.98
432.255	2.8
432.46	2.43
432.665	2.75
432.87	2.79
433.076	2.78
433.281	2.8
433.486	2.76
433.691	2.85
433.896	2.87
434.101	2.78
434.306	2.73
434.511	2.83
434.716	2.98
434.921	2.85
435.126	2.87
435.331	2.71
435.535	2.76
435.74	2.65
435.945	2.8
436.15	2.98
436.355	3.07
436.56	2.85
436.765	3.03
436.97	2.89
437.174	3.03
437.379	2.96
437.584	3.19
437.789	2.99
437.993	3.05
438.198	3.03
438.403	2.96
438.608	2.82
438.812	3.13
439.017	2.81
439.222	2.83
439.426	2.71
439.631	2.83
439.836	3.01
440.04	2.93
440.245	2.96
440.45	2.82
440.654	2.85
440.859	3.07
441.063	2.97
441.268	3.05
441.472	3.09
441.677	3.12
441.881	3.14
442.086	3.1
442.29	3.05
442.495	3.15
442.699	3.17
442.904	3.26
443.108	3
443.312	2.95
443.517	3.06
443.721	3.07
443.925	3.01
444.13	2.83
444.334	2.42
444.538	2.56
444.743	2.38
444.947	2.57
445.151	2.55
445.356	2.56
445.56	2.6
445.764	2.47
445.968	2.47
446.173	2.37
446.377	2.42
446.581	2.43
446.785	2.49
446.989	2.57
447.193	2.43
447.398	2.26
447.602	2.26
447.806	2.13
448.01	2.26
448.214	2.2
448.418	2.33
448.622	2.46
448.826	2.62
449.03	2.5
449.234	2.38
449.438	2.4
449.642	2.37
449.846	2.47
450.05	2.7
450.254	2.6
450.458	2.66
450.662	2.62
450.866	2.48
451.069	2.34
451.273	2.48
451.477	2.71
451.681	2.67
451.885	2.93
452.089	2.8
452.292	2.82
452.496	2.9
452.7	2.91
452.904	2.98
453.107	3.01
453.311	3.15
453.515	3.06
453.719	2.95
453.922	2.88
454.126	2.81
454.33	2.8
454.533	2.54
454.737	2.51
454.94	2.6
455.144	2.32
455.348	2.48
455.551	2.39
455.755	2.37
455.958	2.47
456.162	2.61
456.365	2.7
456.569	2.96
456.772	3.16
456.976	3.03
457.179	2.86
457.383	2.99
457.586	2.73
457.79	2.7
457.993	2.7
458.196	2.68
458.4	2.59
458.603	2.51
458.807	2.37
459.01	2.34
459.213	2.39
459.417	2.46
459.62	2.46
459.823	2.4
460.026	2.42
460.23	2.42
460.433	2.38
460.636	2.44
460.839	2.37
461.042	2.34
461.246	2.38
461.449	2.37
461.652	2.28
461.855	2.44
462.058	2.55
462.261	2.51
462.464	2.53
462.668	2.55
462.871	2.59
463.074	2.61
463.277	2.8
463.48	2.64
463.683	2.55
463.886	2.66
464.089	2.58
464.292	2.32
464.495	2.71
464.698	2.95
464.901	2.99
465.104	2.87
465.306	3.01
465.509	2.95
465.712	2.97
465.915	3.16
466.118	3.18
466.321	3.15
466.524	3.34
466.726	3.23
466.929	3.05
467.132	3.12
467.335	3.05
467.538	2.95
467.74	2.96
467.943	3.08
468.146	3.05
468.348	2.92
468.551	2.87
468.754	2.93
468.956	2.68
469.159	2.65
469.362	2.45
469.564	2.57
469.767	2.39
469.969	2.28
470.172	2.3
470.375	2.31
470.577	2.53
470.78	2.55
470.982	2.49
471.185	2.56
471.387	2.61
471.59	2.76
471.792	2.75
471.995	2.95
472.197	2.88
472.399	2.75
472.602	2.81
472.804	2.84
473.007	2.94
473.209	3
473.411	3.07
473.614	3.02
473.816	3.02
474.018	3.04
474.22	3.08
474.423	3.04
474.625	3.03
474.827	2.9
475.03	2.79
475.232	2.84
475.434	2.89
475.636	2.92
475.838	2.91
476.04	2.8
476.243	2.75
476.445	2.5
476.647	2.56
476.849	2.55
477.051	2.44
477.253	2.45
477.455	2.29
477.657	2.23
477.859	2.04
478.061	2.06
478.263	2.1
478.465	2.23
478.667	2.42
478.869	2.49
479.071	2.47
479.273	2.76
479.475	2.67
479.677	2.64
479.879	2.54
480.081	2.68
480.283	2.57
480.485	2.6
480.686	2.41
480.888	2.28
481.09	2.24
481.292	2.38
481.494	2.27
481.695	2.29
481.897	2.18
482.099	2.24
482.301	2.17
482.502	2.17
482.704	2.17
482.906	2.2
483.107	2.22
483.309	2.19
483.511	2.18
483.712	2.17
483.914	2.14
484.115	2.18
484.317	2.17
484.519	2.21
484.72	2.22
484.922	2.18
485.123	2.17
485.325	2.2
485.526	2.25
485.728	2.24
485.929	2.2
486.131	2.26
486.332	2.29
486.534	2.23
486.735	2.17
486.936	2.21
487.138	2.22
487.339	2.3
487.541	2.24
487.742	2.14
487.943	2.16
488.144	2.17
488.346	2.18
488.547	2.13
488.748	2.15
488.95	2.25
489.151	2.27
489.352	2.33
489.553	2.29
489.755	2.42
489.956	2.49
490.157	2.44
490.358	2.37
490.559	2.38
490.76	2.42
490.961	2.43
491.163	2.39
491.364	2.43
491.565	2.36
491.766	2.24
491.967	2.27
492.168	2.24
492.369	2.26
492.57	2.32
492.771	2.28
492.972	2.28
493.173	2.36
493.374	2.28
493.575	2.23
493.776	2.41
493.976	2.63
494.177	2.62
494.378	2.71
494.579	2.59
494.78	2.53
494.981	2.65
495.182	2.65
495.382	2.63
495.583	2.58
495.784	2.53
495.985	2.45
496.185	2.38
496.386	2.26
496.587	2.26
496.788	2.33
496.988	2.47
497.189	2.33
497.39	2.32
497.59	2.37
497.791	2.45
497.992	2.54
498.192	2.5
498.393	2.48
498.593	2.46
498.794	2.4
498.994	2.48
499.195	2.41
499.395	2.49
499.596	2.53
499.796	2.4
499.997	2.41
500.197	2.4
500.398	2.27
500.598	2.27
500.799	2.32
500.999	2.43
501.199	2.49
501.4	2.59
501.6	2.51
501.801	2.65
502.001	2.58
502.201	2.59
502.402	2.39
502.602	2.49
502.802	2.53
503.002	2.67
503.203	2.75
503.403	2.67
503.603	2.64
503.803	2.88
504.003	2.72
504.204	3.05
504.404	3.03
504.604	3.09
504.804	2.96
505.004	2.92
505.204	2.99
505.404	3
505.604	3.01
505.804	3.05
506.005	2.84
506.205	2.96
506.405	2.81
506.605	2.8
506.805	3.03
507.005	3.23
507.204	3.25
507.404	3.11
507.604	2.93
507.804	3.02
508.004	2.91
508.204	3.01
508.404	2.95
508.604	3.02
508.804	3.04
509.003	2.97
509.203	3
509.403	3.14
509.603	3.1
509.803	3.05
510.002	2.91
510.202	2.99
510.402	3
510.602	2.96
510.801	2.97
511.001	3.01
511.201	2.88
511.4	2.91
511.6	2.91
511.8	2.86
511.999	3.1
512.199	3.11
512.398	3.15
512.598	3.17
512.797	3.16
512.997	3.06
513.197	3.04
513.396	3.13
513.596	2.97
513.795	3.03
513.994	3.14
514.194	3.13
514.393	3.2
514.593	3.17
514.792	3.07
514.992	3.22
515.191	3.36
515.39	3.44
515.59	3.45
515.789	3.36
515.988	3.24
516.188	3.29
516.387	3.2
516.586	3.3
516.786	3.27
516.985	3.31
517.184	3.36
517.383	3.14
517.582	3.09
517.782	3.09
517.981	3.22
518.18	3.18
518.379	3.07
518.578	3.02
518.777	2.98
518.976	2.93
519.176	2.85
519.375	2.76
519.574	2.91
519.773	2.97
519.972	3.01
520.171	3
520.37	3
520.569	2.97
520.768	3.11
520.967	3.17
521.166	3.25
521.365	3.43
521.564	3.37
521.762	3.3
521.961	3.31
522.16	3.18
522.359	3.23
522.558	3.4
522.757	3.45
522.956	3.26
523.154	3.32
523.353	3.42
523.552	3.43
523.751	3.6
523.949	3.74
524.148	3.67
524.347	3.74
524.546	3.83
524.744	3.72
524.943	3.75
525.142	3.72
525.34	3.62
525.539	3.63
525.737	3.57
525.936	3.56
526.135	3.34
526.333	3.31
526.532	3.36
526.73	3.19
526.929	3.17
527.127	3.19
527.326	3.27
527.524	3.24
527.723	3.16
527.921	3.23
528.12	3.19
528.318	3.33
528.516	3.38
528.715	3.37
528.913	3.41
529.112	3.37
529.31	3.38
529.508	3.4
529.707	3.46
529.905	3.51
530.103	3.46
530.301	3.53
530.5	3.48
530.698	3.41
530.896	3.33
531.094	3.33
531.293	3.43
531.491	3.45
531.689	3.34
531.887	3.29
532.085	3.33
532.283	3.32
532.481	3.26
532.68	3.3
532.878	3.33
533.076	3.41
533.274	3.46
533.472	3.52
533.67	3.49
533.868	3.71
534.066	3.8
534.264	3.81
534.462	3.97
534.66	4.07
534.858	4.09
535.056	4.24
535.253	4.33
535.451	4.34
535.649	4.32
535.847	4.41
536.045	4.29
536.243	4.18
536.441	4.15
536.638	4.06
536.836	4.01
537.034	3.88
537.232	3.81
537.43	3.8
537.627	3.84
537.825	3.86
538.023	3.95
538.22	3.98
538.418	4.11
538.616	4.22
538.813	4.24
539.011	4.38
539.209	4.51
539.406	4.58
539.604	4.52
539.801	4.5
539.999	4.49
540.196	4.37
540.394	4.34
540.591	4.33
540.789	4.3
540.986	4.33
541.184	4.23
541.381	4.3
541.579	4.31
541.776	4.38
541.974	4.44
542.171	4.4
542.368	4.43
542.566	4.47
542.763	4.55
542.96	4.63
543.158	4.65
543.355	4.68
543.552	4.78
543.75	4.79
543.947	4.73
544.144	4.72
544.341	4.83
544.539	4.87
544.736	4.91
544.933	4.76
545.13	4.71
545.327	4.65
545.524	4.76
545.722	4.63
545.919	4.64
546.116	4.82
546.313	4.86
546.51	4.98
546.707	5.03
546.904	5.11
547.101	5.14
547.298	5.18
547.495	5.3
547.692	5.38
547.889	5.47
548.086	5.62
548.283	5.58
548.48	5.67
548.677	5.52
548.874	5.59
549.07	5.56
549.267	5.82
549.464	5.95
549.661	5.98
549.858	5.88
550.055	6
550.251	6.01
550.448	6.03
550.645	5.97
550.842	6.17
551.038	6.37
551.235	6.35
551.432	6.39
551.628	6.39
551.825	6.48
552.022	6.58
552.218	6.65
552.415	6.64
552.612	6.65
552.808	6.74
553.005	6.72
553.201	6.53
553.398	6.76
553.594	6.78
553.791	6.73
553.987	6.72
554.184	6.77
554.38	6.86
554.577	6.9
554.773	7.04
554.97	7.17
555.166	7.17
555.362	7.39
555.559	7.29
555.755	7.38
555.952	7.77
556.148	7.84
556.344	7.81
556.541	7.55
556.737	7.75
556.933	7.89
557.129	8.07
557.326	8.15
557.522	8.07
557.718	8.14
557.914	8.07
558.11	8.02
558.307	8.11
558.503	8.43
558.699	8.86
558.895	8.62
559.091	8.51
559.287	8.41
559.483	8.67
559.679	8.61
559.876	8.66
560.072	8.83
560.268	8.79
560.464	8.95
560.66	8.99
560.856	8.79
561.052	8.88
561.247	8.93
561.443	8.96
561.639	8.65
561.835	8.82
562.031	8.9
562.227	8.92
562.423	8.97
562.619	8.92
562.815	8.91
563.01	8.94
563.206	9.2
563.402	9.47
563.598	9.7
563.793	10.13
563.989	10.12
564.185	10.32
564.381	10.27
564.576	10.24
564.772	10.19
564.968	10.22
565.163	10.37
565.359	10.44
565.555	10.26
565.75	9.98
565.946	9.94
566.141	10.07
566.337	9.93
566.532	10.05
566.728	10.1
566.923	10.14
567.119	10.05
567.314	10.11
567.51	10.11
567.705	10.16
567.901	10.28
568.096	10.18
568.292	10.27
568.487	10.24
568.682	10.14
568.878	10.21
569.073	10.26
569.268	10.35
569.464	10.28
569.659	10.09
569.854	10.14
570.05	10.11
570.245	10.07
570.44	10
570.635	10.26
570.831	10.38
571.026	10.63
571.221	10.71
571.416	10.73
571.611	10.86
571.806	11.25
572.002	11.4
572.197	11.5
572.392	11.69
572.587	11.83
572.782	11.86
572.977	11.98
573.172	11.7
573.367	11.78
573.562	11.96
573.757	11.91
573.952	11.74
574.147	11.59
574.342	11.5
574.537	11.67
574.732	11.5
574.927	11.34
575.121	11.28
575.316	11.38
575.511	11.37
575.706	11.16
575.901	11.11
576.096	11.4
576.29	11.54
576.485	11.7
576.68	11.44
576.875	11.68
577.069	12.04
577.264	12.03
577.459	12.07
577.654	12.16
577.848	12.46
578.043	12.58
578.238	12.03
578.432	12.13
578.627	12.32
578.821	12.58
579.016	12.64
579.21	12.11
579.405	12.23
579.6	12.31
579.794	12.21
579.989	12.17
580.183	12.4
580.378	12.81
580.572	12.87
580.766	12.81
580.961	12.82
581.155	12.59
581.35	13.11
581.544	13.11
581.738	13.23
581.933	13.52
582.127	13.52
582.321	13.58
582.516	13.61
582.71	13.52
582.904	13.44
583.099	13.29
583.293	13.43
583.487	13.38
583.681	13.43
583.875	13.4
584.07	13.14
584.264	13.13
584.458	12.98
584.652	12.73
584.846	12.85
585.04	12.55
585.234	12.81
585.428	12.66
585.623	12.47
585.817	12.55
586.011	12.47
586.205	12.55
586.399	12.55
586.593	12.49
586.787	12.59
586.981	12.38
587.174	12.59
587.368	12.31
587.562	12.4
587.756	12.75
587.95	12.61
588.144	12.62
588.338	12.71
588.532	12.76
588.725	12.89
588.919	12.9
589.113	13.09
589.307	13.23
589.501	13.5
589.694	13.83
589.888	13.47
590.082	13.37
590.275	13.51
590.469	13.54
590.663	13.55
590.856	13.41
591.05	13.76
591.244	13.74
591.437	13.85
591.631	13.8
591.824	13.62
592.018	13.7
592.212	13.97
592.405	13.84
592.599	13.74
592.792	13.67
592.986	13.98
593.179	13.81
593.372	13.71
593.566	13.74
593.759	13.62
593.953	13.5
594.146	13.52
594.339	13.36
594.533	13.13
594.726	13.37
594.92	13.5
595.113	13.32
595.306	13.31
595.499	13.31
595.693	13.42
595.886	13.45
596.079	13.66
596.272	13.47
596.466	13.64
596.659	13.75
596.852	13.65
597.045	13.42
597.238	13.42
597.431	13.29
597.624	13.47
597.818	13.45
598.011	13.55
598.204	13.42
598.397	13.61
598.59	13.43
598.783	13.34
598.976	13.3
599.169	13.66
599.362	13.69
599.555	13.75
599.748	13.48
599.941	13.56
600.134	13.52
600.326	13.26
600.519	13.22
600.712	13.08
600.905	13.34
601.098	13.27
601.291	12.98
601.483	12.9
601.676	12.92
601.869	13.16
602.062	12.97
602.255	12.85
602.447	13.02
602.64	13.07
602.833	13.38
603.025	13.49
603.218	13.74
603.411	13.81
603.603	13.99
603.796	13.89
603.989	13.69
604.181	13.63
604.374	13.75
604.566	13.86
604.759	13.82
604.951	13.87
605.144	13.91
605.336	13.73
605.529	13.77
605.721	13.81
605.914	13.95
606.106	14.28
606.299	14.28
606.491	14.27
606.683	14.36
606.876	14.51
607.068	14.27
607.26	14.1
607.453	14.2
607.645	14.44
607.837	14.24
608.03	14.21
608.222	13.96
608.414	13.99
608.606	13.89
608.799	13.85
608.991	13.82
609.183	13.9
609.375	13.86
609.567	13.99
609.759	13.57
609.952	13.42
610.144	13.35
610.336	13.11
610.528	13.23
610.72	13.39
610.912	13.16
611.104	13.08
611.296	13.17
611.488	13.17
611.68	12.87
611.872	12.92
612.064	13.04
612.256	13.19
612.448	13.45
612.64	13.4
612.832	13.41
613.023	13.79
613.215	13.86
613.407	13.79
613.599	13.9
613.791	14.15
613.983	14.3
614.174	14.42
614.366	14.22
614.558	14.17
614.75	13.95
614.941	14.07
615.133	13.82
615.325	13.77
615.516	13.67
615.708	13.74
615.9	13.59
616.091	13.97
616.283	14.14
616.475	14.55
616.666	14.7
616.858	14.97
617.049	14.79
617.241	15.03
617.432	15.24
617.624	15.48
617.815	15.38
618.007	15.4
618.198	15.1
618.39	14.93
618.581	14.45
618.773	14.56
618.964	14.31
619.155	14.3
619.347	14.19
619.538	14.31
619.729	14.42
619.921	14.62
620.112	14.83
620.303	14.9
620.494	14.84
620.686	15.31
620.877	15.46
621.068	15.67
621.259	15.73
621.451	15.66
621.642	15.24
621.833	14.92
622.024	14.75
622.215	14.7
622.406	14.73
622.597	15.02
622.788	14.72
622.98	14.55
623.171	14.52
623.362	14.4
623.553	14.73
623.744	14.95
623.935	15.15
624.126	15.4
624.317	15.55
624.508	15.29
624.698	15.04
624.889	14.95
625.08	14.82
625.271	14.9
625.462	15.18
625.653	15.02
625.844	15.12
626.034	14.81
626.225	14.52
626.416	14.26
626.607	14.48
626.798	14.47
626.988	14.77
627.179	14.97
627.37	14.93
627.56	14.63
627.751	14.46
627.942	14.34
628.132	14.44
628.323	14.58
628.514	14.53
628.704	14.4
628.895	14.43
629.085	14.27
629.276	14.06
629.466	14.29
629.657	14.3
629.847	14.51
630.038	14.42
630.228	14.83
630.419	14.56
630.609	14.56
630.8	14.91
630.99	15.11
631.181	15.22
631.371	15.28
631.561	15.2
631.752	15.43
631.942	15.41
632.132	15.63
632.323	15.37
632.513	15.61
632.703	15.91
632.893	15.49
633.084	15.18
633.274	15.17
633.464	15.37
633.654	15.47
633.844	15.7
634.034	15.42
634.225	15.57
634.415	15.61
634.605	15.72
634.795	15.44
634.985	15.57
635.175	15.95
635.365	15.93
635.555	15.75
635.745	15.61
635.935	15.78
636.125	16.17
636.315	16.11
636.505	16.2
636.695	15.88
636.885	15.92
637.075	15.98
637.265	15.96
637.455	16.17
637.644	16.24
637.834	16.11
638.024	15.78
638.214	15.42
638.404	15.18
638.593	14.88
638.783	15.02
638.973	14.99
639.163	14.98
639.352	14.47
639.542	13.9
639.732	13.79
639.921	13.66
640.111	13.4
640.301	13.73
640.49	14.15
640.68	14.62
640.87	14.78
641.059	15.01
641.249	15.27
641.438	15.64
641.628	16.06
641.817	16.1
642.007	16.2
642.196	16.25
642.386	16.25
642.575	16.57
642.764	15.8
642.954	16.26
643.143	16.35
643.333	16.33
643.522	16.26
643.711	15.92
643.901	16.15
644.09	16.46
644.279	16.63
644.469	16.55
644.658	15.99
644.847	16.37
645.036	16.06
645.226	15.58
645.415	15.27
645.604	15.58
645.793	15.85
645.982	15.4
646.171	15.11
646.361	14.78
646.55	14.97
646.739	15.11
646.928	14.99
647.117	15.11
647.306	15.72
647.495	16.26
647.684	15.83
647.873	15.97
648.062	16.53
648.251	16.87
648.44	16.96
648.629	17.16
648.818	16.75
649.007	16.93
649.196	16.79
649.384	16.4
649.573	15.77
649.762	15.77
649.951	15.67
650.14	15.61
650.328	15.55
650.517	15.76
650.706	15.46
650.895	15.68
651.083	15.7
651.272	15.7
651.461	15.66
651.65	15.75
651.838	15.55
652.027	15.46
652.216	15.29
652.404	14.8
652.593	14.82
652.781	14.7
652.97	15.04
653.158	15.05
653.347	15.15
653.535	15.15
653.724	15.48
653.912	15.78
654.101	15.63
654.289	15.44
654.478	15.8
654.666	15.4
654.855	15.68
655.043	15.51
655.231	15.71
655.42	15.47
655.608	15.35
655.796	15.23
655.985	15.26
656.173	15.14
656.361	15.04
656.55	15.11
656.738	15.46
656.926	15.08
657.114	14.53
657.302	14.31
657.491	14.17
657.679	14.38
657.867	14.26
658.055	14.5
658.243	14.89
658.431	15.11
658.619	14.87
658.807	15.23
658.996	15.29
659.184	15.76
659.372	15.77
659.56	16.14
659.748	16.1
659.936	16.17
660.124	16.04
660.311	15.79
660.499	16
660.687	16.41
660.875	15.94
661.063	16.12
661.251	15.98
661.439	16.16
661.627	15.93
661.814	16.37
662.002	16.33
662.19	16.34
662.378	16.82
662.565	16.75
662.753	16.71
662.941	16.96
663.129	16.39
663.316	16.86
663.504	16.58
663.692	16.51
663.879	16.39
664.067	16.69
664.254	16.63
664.442	16.42
664.63	16.23
664.817	16.05
665.005	16.01
665.192	16.52
665.38	15.99
665.567	16.22
665.755	15.93
665.942	15.63
666.13	15.43
666.317	15.78
666.504	15.95
666.692	16.05
666.879	16.18
667.067	16.02
667.254	16.03
667.441	16.46
667.629	16.4
667.816	17.22
668.003	17.61
668.19	17.63
668.378	17.42
668.565	17.78
668.752	17.79
668.939	17.88
669.127	17.93
669.314	17.87
669.501	17.24
669.688	17.25
669.875	17.12
670.062	16.8
670.249	16.95
670.436	16.71
670.623	16.28
670.81	16.06
670.997	15.76
671.184	15.98
671.371	16.57
671.558	17.19
671.745	17.18
671.932	17.25
672.119	17.2
672.306	16.76
672.493	17.58
672.68	17.17
672.867	17.28
673.054	17.25
673.24	17.3
673.427	16.99
673.614	16.66
673.801	16.57
673.988	16.6
674.174	16.9
674.361	17.36
674.548	16.85
674.734	17.38
674.921	17.52
675.108	17.02
675.294	16.91
675.481	16.8
675.668	17.24
675.854	17.74
676.041	17.63
676.227	17.67
676.414	17.86
676.601	17.73
676.787	17.58
676.974	17.76
677.16	18.37
677.347	18.27
677.533	18.24
677.719	17.73
677.906	17.4
678.092	17.63
678.279	17.67
678.465	17.4
678.651	17.46
678.838	17.56
679.024	17.1
679.21	16.51
679.397	16.77
679.583	17.07
679.769	17.5
679.955	17.38
680.142	17.18
680.328	17.07
680.514	16.78
680.7	16.58
680.886	16.34
681.073	16.53
681.259	17.25
681.445	16.99
681.631	17.16
681.817	16.61
682.003	16.39
682.189	16.12
682.375	15.92
682.561	15.99
682.747	16.03
682.933	16.46
683.119	16.37
683.305	16.48
683.491	16.24
683.677	16.11
683.863	16.2
684.049	16.63
684.235	16.49
684.42	16.64
684.606	16.94
684.792	17.36
684.978	17.03
685.164	17.32
685.349	17.29
685.535	17.74
685.721	17.34
685.907	17.82
686.092	17.17
686.278	17.54
686.464	18.16
686.649	18.13
686.835	17.61
687.021	17.56
687.206	17.39
687.392	16.85
687.577	16.69
687.763	16.36
687.948	16.15
688.134	16.9
688.319	16.48
688.505	15.84
688.69	15.81
688.876	15.9
689.061	15.93
689.247	16.18
689.432	16.72
689.618	17.09
689.803	17.41
689.988	17.33
690.174	17.06
690.359	16.74
690.544	16.64
690.73	16.66
690.915	17.34
691.1	17.17
691.285	17.08
691.471	17.06
691.656	17.14
691.841	17.35
692.026	17.45
692.211	17.45
692.396	17.47
692.582	17.27
692.767	17.22
692.952	16.69
693.137	17.08
693.322	17.2
693.507	17.25
693.692	16.26
693.877	16.18
694.062	16.8
694.247	16.98
694.432	18.21
694.617	18.43
694.802	18.72
694.987	18.81
695.172	18.15
695.357	18.18
695.541	17.66
695.726	17.73
695.911	17.66
696.096	17.25
696.281	17.01
696.466	16.43
696.65	16.73
696.835	16.67
697.02	16.71
697.204	17.55
697.389	17.5
697.574	17.47
697.759	17.64
697.943	17.75
698.128	17.53
698.312	18.04
698.497	18.01
698.682	17.9
698.866	17.61
699.051	17.32
699.235	16.68
699.42	16.73
699.604	16.69
699.789	16.73
699.973	16.95
700.158	16.8
700.342	16.4
700.527	16.46
700.711	16.21
700.895	16.72
701.08	17.26
701.264	17.09
701.448	16.86
701.633	16.86
701.817	17.29
702.001	16.92
702.186	16.63
702.37	16.92
702.554	17.33
702.738	17.53
702.923	17.48
703.107	17.67
703.291	18.69
703.475	18.72
703.659	18.99
703.843	18.64
704.027	18.88
704.212	19.07
704.396	19.19
704.58	18.85
704.764	18.85
704.948	18.78
705.132	18.16
705.316	17.99
705.5	18.14
705.684	17.65
705.868	17.55
706.052	17.14
706.235	18.02
706.419	17.34
706.603	17.33
706.787	17.12
706.971	16.77
707.155	16.73
707.339	17.06
707.522	16.74
707.706	17.9
707.89	17.86
708.074	18.46
708.257	17.43
708.441	18.15
708.625	18
708.808	17.64
708.992	17.66
709.176	17.24
709.359	16.66
709.543	16.52
709.727	16.31
709.91	16.78
710.094	16.41
710.277	17.44
710.461	17.85
710.644	18.25
710.828	18.9
711.011	19.15
711.195	19.71
711.378	20.5
711.562	20.98
711.745	21.07
711.928	20.7
712.112	20.47
712.295	20.53
712.478	19.71
712.662	19.73
712.845	19.45
713.028	19.1
713.212	19.66
713.395	19.05
713.578	19.53
713.761	19.46
713.945	19.57
714.128	19.33
714.311	19.5
714.494	19.26
714.677	18.79
714.86	18.75
715.043	19.56
715.227	18.97
715.41	19
715.593	17.83
715.776	17.77
715.959	17.17
716.142	17.33
716.325	16.94
716.508	17.29
716.691	17.73
716.874	18.36
717.057	18.42
717.239	18.66
717.422	18.36
717.605	19.42
717.788	19.08
717.971	19.91
718.154	19.91
718.337	19.6
718.519	19.89
718.702	20.27
718.885	20.13
719.068	18.47
719.25	18.33
719.433	19.85
719.616	19.22
719.798	19.29
719.981	19.57
720.164	20.07
720.346	20.39
720.529	18.92
720.712	18.2
720.894	17.36
721.077	18.32
721.259	18.34
721.442	17.02
721.624	16.92
721.807	17.28
721.989	17.27
722.172	16.63
722.354	15.9
722.537	17.06
722.719	18.1
722.901	18.25
723.084	18.01
723.266	18.24
723.448	17.89
723.631	18.2
723.813	17.7
723.995	17.53
724.178	18.46
724.36	18.7
724.542	18.81
724.724	18.27
724.907	18.84
725.089	18.96
725.271	19.08
725.453	19.63
725.635	19.66
725.817	19.95
725.999	20.25
726.181	19.06
726.364	19.15
726.546	19.92
726.728	20.07
726.91	20.02
727.092	20.27
727.274	19.78
727.456	20.8
727.638	20.98
727.819	20.42
728.001	20.31
728.183	20.73
728.365	21.56
728.547	20.69
728.729	20.29
728.911	19.61
729.093	19.53
729.274	19.49
729.456	18.52
729.638	17.79
729.82	18.61
730.001	19.22
730.183	20.09
730.365	19.32
730.546	19.52
730.728	18.99
730.91	20.09
731.091	20.08
731.273	21.09
731.455	21.13
731.636	21.64
731.818	20.72
731.999	19.73
732.181	18.9
732.362	18.96
732.544	18.87
732.725	19.98
732.907	19.25
733.088	19.3
733.27	18.67
733.451	18.76
733.633	19.12
733.814	20.44
733.995	20.16
734.177	20.84
734.358	20.49
734.539	19.75
734.721	19.1
734.902	19.39
735.083	19.65
735.264	20.11
735.446	20.07
735.627	19.87
735.808	18.99
735.989	20.53
736.17	20.28
736.351	21.58
736.533	22.6
736.714	22.52
736.895	21.56
737.076	21.91
737.257	21.47
737.438	22.19
737.619	22.3
737.8	23.39
737.981	22.96
738.162	23.38
738.343	21.85
738.524	21.31
738.705	22.61
738.886	23.21
739.067	22.35
739.247	21.99
739.428	21.4
739.609	20.77
739.79	20.59
739.971	19.72
740.151	19.12
740.332	20.14
740.513	20.95
740.694	20
740.874	19.8
741.055	19.41
741.236	19.49
741.417	19.95
741.597	19.78
741.778	19.46
741.958	20.25
742.139	20.75
742.32	20.95
742.5	19.92
742.681	20.23
742.861	21.05
743.042	21.94
743.222	21.9
743.403	21.95
743.583	22.39
743.764	22.2
743.944	22.01
744.124	20.33
744.305	20.26
744.485	21.43
744.666	21.38
744.846	20.78
745.026	19.82
745.207	21.17
745.387	20.53
745.567	19.79
745.747	19.09
745.928	20.2
746.108	21.27
746.288	20.72
746.468	20.17
746.648	18.35
746.829	19.72
747.009	20.75
747.189	19.34
747.369	19.58
747.549	20.42
747.729	19.86
747.909	18.07
748.089	18.12
748.269	17.49
748.449	17.74
748.629	19.09
748.809	18.57
748.989	19.1
749.169	18.59
749.349	18.56
749.529	18.71
749.709	19.61
749.889	20.04
750.068	20.01
750.248	20.43
750.428	19.93
750.608	19.62
750.788	19.7
750.967	18.11
751.147	18.9
751.327	17.65
751.507	17.66
751.686	16.88
751.866	16.17
752.046	17.16
752.225	17.4
752.405	18.63
752.585	18.47
752.764	18.97
752.944	19.86
753.123	19.55
753.303	22.1
753.482	21.67
753.662	22.18
753.841	23.27
754.021	22.93
754.2	23.47
754.38	22.89
754.559	23.11
754.739	23.33
754.918	23.84
755.097	24.03
755.277	23.52
755.456	23.92
755.635	23.67
755.815	23.5
755.994	23.78
756.173	23.5
756.352	22.81
756.532	23.5
756.711	22.93
756.89	22.19
757.069	22.58
757.248	21.05
757.427	21.28
757.607	21.79
757.786	21.5
757.965	21.33
758.144	21.48
758.323	23.2
758.502	22.39
758.681	22.77
758.86	23.55
759.039	23
759.218	23.42
759.397	23.93
759.576	24.68
759.755	24.92
759.934	23.42
760.113	23.42
760.291	22.43
760.47	23.72
760.649	23.48
760.828	23.43
761.007	24.75
761.186	25.1
761.364	23.76
761.543	22.94
761.722	22.83
761.901	24.12
762.079	24.71
762.258	25.15
762.437	24.91
762.615	23.68
762.794	23.7
762.972	22.26
763.151	22.69
763.33	23.27
763.508	23.38
763.687	23.21
763.865	22.64
764.044	21.8
764.222	20.91
764.401	19.24
764.579	20.5
764.758	19.97
764.936	20.49
765.114	20.25
765.293	19.62
765.471	19.29
765.65	19.81
765.828	20.08
766.006	19.48
766.184	20.67
766.363	22.48
766.541	22.09
766.719	22.53
766.898	22.38
767.076	22.67
767.254	23.83
767.432	24.85
767.61	24.07
767.788	24.66
767.967	26.58
768.145	25.18
768.323	25.33
768.501	24.54
768.679	25.1
768.857	26.14
769.035	26.33
769.213	24.89
769.391	22.88
769.569	23.31
769.747	22.47
769.925	20.85
770.103	22.64
770.281	21.91
770.459	24.81
770.636	23.32
770.814	22.8
770.992	22.61
771.17	26.3
771.348	27.37
771.525	26.66
771.703	26.54
771.881	28.56
772.059	27.72
772.236	28.77
772.414	25.12
772.592	26.18
772.769	25.4
772.947	23.73
773.125	19.84
773.302	21.38
773.48	21.82
773.657	21.5
773.835	20.67
774.013	21.28
774.19	20.83
774.368	21.86
774.545	21.27
774.723	22.55
774.9	21.52
775.077	20.17
775.255	18.04
775.432	17.84
775.61	19.18
775.787	17.01
775.964	16.27
776.142	16.47
776.319	15.36
776.496	15.6
776.674	16.35
776.851	19.04
777.028	21.72
777.205	22.94
777.382	25.86
777.56	28.12
777.737	30.12
777.914	31.52
778.091	31.1
778.268	34.07
778.445	33.87
778.622	32.96
778.8	32.02
778.977	33.56
779.154	32.41
779.331	31.26
779.508	29.85
779.685	28.15
779.862	23.94
780.038	23.51
780.215	20.66
780.392	20.67
780.569	20.23
780.746	20.75
780.923	19.03
781.1	20.14
781.277	19.05
781.453	17.66
781.63	19.4
781.807	26.07
781.984	29.48
782.16	30.11
782.337	32.54
782.514	31.47
782.691	32
782.867	32.34
783.044	34.06
783.221	34.96
783.397	34.52
783.574	33.93
783.75	31.83
783.927	26.86
784.103	27.42
784.28	26.27
784.456	28.82
784.633	29.79
784.809	30.51
784.986	28.51
785.162	28.62
785.339	29.74
785.515	31.32
785.692	31.18
785.868	33.07
786.044	32.36
786.221	31.62
786.397	32.2
786.573	32.59
786.749	33.33
786.926	37.38
787.102	37.03
787.278	38.39
787.454	37.15
787.631	38.35
787.807	38.82
787.983	38.97
788.159	39.07
788.335	37.7
788.511	35.03
788.687	30.3
788.863	25.3
789.039	25.16
789.216	23.38
789.392	22.65
789.568	21.21
789.744	20.82
789.919	20.01
790.095	18
790.271	18.51
790.447	19.66
790.623	23.66
790.799	25.83
790.975	27.45
791.151	27.74
791.327	26.74
791.502	29.13
791.678	26.65
791.854	27.58
792.03	28.23
792.205	28.27
792.381	27.23
792.557	25.81
792.733	25.25
792.908	23.48
793.084	22.36
793.259	22.15
793.435	19.75
793.611	21.34
793.786	20.66
793.962	21.77
794.137	21.21
794.313	23.55
794.488	25.86
794.664	27.11
794.839	28.1
795.015	30.32
795.19	30.46
795.366	30.56
795.541	30.87
795.716	30.3
795.892	32.88
796.067	32.53
796.242	30.31
796.418	28.01
796.593	29.14
796.768	27.06
796.944	25.59
797.119	28
797.294	25.17
797.469	23.88
797.644	24.39
797.82	21.45
797.995	22.23
798.17	21.76
798.345	26.25
798.52	28.22
798.695	30.93
798.87	32.32
799.045	31.94
799.22	33.95
799.395	34.51
799.57	35.59
799.745	34.52
799.92	32.96
800.095	35.3
800.27	34.07
800.445	33.69
800.62	32.89
800.795	34.06
800.97	32.7
801.145	33.25
801.319	31.63
801.494	31.19
801.669	34.15
801.844	36.21
802.018	35.03
802.193	35.05
802.368	31.17
802.543	28.48
802.717	28.65
802.892	31.45
803.067	30.04
803.241	33.17
803.416	33.33
803.59	31.62
803.765	32.43
803.94	31.71
804.114	28.96
804.289	30.74
804.463	36.41
804.638	35.92
804.812	34.4
804.986	36.18
805.161	36.15
805.335	37.09
805.51	34.94
805.684	34.74
805.858	36.62
806.033	36.6
806.207	35.38
806.381	31.72
806.556	28.86
806.73	28.78
806.904	27.61
807.078	29.19
807.253	29.78
807.427	31.95
807.601	25.92
807.775	25.28
807.949	25.17
808.123	26.13
808.298	28.9
808.472	30.9
808.646	26.82
808.82	26.02
808.994	26.91
809.168	23.71
809.342	23.79
809.516	27.41
809.69	27.98
809.864	26.41
810.038	27.26
810.212	29.18
810.385	28.99
810.559	33.67
810.733	35.5
810.907	33.32
811.081	34.22
811.255	36.57
811.428	38.95
811.602	39.25
811.776	39.3
811.95	34.8
812.123	31.32
812.297	31.71
812.471	32.67
812.644	32.32
812.818	32.7
812.992	34.25
813.165	32.93
813.339	32.43
813.512	30.93
813.686	31.98
813.86	36.49
814.033	37.67
814.207	37.86
814.38	34.32
814.554	35.81
814.727	33.07
814.9	32.02
815.074	32.19
815.247	29.89
815.421	31.42
815.594	30.92
815.767	33.67
815.941	33.69
816.114	34.84
816.287	37.21
816.46	33.73
816.634	35.49
816.807	32.8
816.98	31.21
817.153	34.6
817.327	31.89
817.5	33.19
817.673	29.8
817.846	30.96
818.019	31.72
818.192	36.31
818.365	38.5
818.538	38.45
818.711	41.37
818.884	38.71
819.057	37.87
819.23	40.29
819.403	39.44
819.576	37.83
819.749	39.3
819.922	37.67
820.095	31.18
820.268	31.86
820.441	27.66
820.614	27.35
820.786	28.47
820.959	26.84
821.132	24.85
821.305	25.4
821.477	26.45
821.65	25.52
821.823	24.92
821.996	24.82
822.168	24.25
822.341	25.18
822.514	24.66
822.686	24.21
822.859	23.78
823.031	24.27
823.204	23.45
823.376	22.98
823.549	22.62
823.722	22.77
823.894	22.9
824.067	22.66
824.239	21.62
824.411	22.65
824.584	23.44
824.756	24.39
824.929	23.86
825.101	25.01
825.273	25.83
825.446	26.48
825.618	25.93
825.79	26.27
825.963	26.16
826.135	28.05
826.307	27.13
826.479	26.18
826.652	24.35
826.824	26.03
826.996	25.69
827.168	24.86
827.34	23.73
827.512	22.98
827.684	24.19
827.856	25.55
828.029	26.28
828.201	25.22
828.373	25.33
828.545	28.09
828.717	26.37
828.889	26.4
829.061	25.02
829.232	27.25
829.404	29.86
829.576	28.4
829.748	27.2
829.92	25.57
830.092	28.32
830.264	28.34
830.436	28.75
830.607	30.86
830.779	32.62
830.951	35.45
831.123	32.27
831.294	33.76
831.466	32.5
831.638	31.85
831.809	30.24
831.981	28.22
832.153	29.83
832.324	28.87
832.496	28.53
832.667	25.6
832.839	25.53
833.011	23.99
833.182	22.24
833.354	24.73
833.525	26.79
833.697	28.9
833.868	30.02
834.039	29.45
834.211	26.63
834.382	26.77
834.554	27.43
834.725	28.94
834.896	31.29
835.068	30.36
835.239	29.47
835.41	30.44
835.581	30.63
835.753	28.72
835.924	30.35
836.095	33.99
836.266	33.39
836.438	34.24
836.609	32.82
836.78	29.33
836.951	30.42
837.122	32.88
837.293	31.44
837.464	30.37
837.635	30.3
837.806	28.28
837.977	26.24
838.148	26.69
838.319	25.86
838.49	22.13
838.661	28.87
838.832	30.12
839.003	31.5
839.174	30.9
839.345	33.28
839.516	33.24
839.687	35.52
839.857	32.5
840.028	31.07
840.199	31.46
840.37	38.26
840.54	34.29
840.711	33.79
840.882	32.58
841.053	33.23
841.223	32.29
841.394	36.66
841.564	34.98
841.735	40.56
841.906	43.05
842.076	45.36
842.247	40.19
842.417	41.34
842.588	44.17
842.758	37.4
842.929	44.17
843.099	46.48
843.27	45.37
843.44	51.96
843.611	48.39
843.781	53.7
843.951	44.58
844.122	50.05
844.292	51.93
844.462	45.82
844.633	50.47
844.803	43.74
844.973	42.03
845.144	41.1
845.314	34.23
845.484	29.38
845.654	26.45
845.824	36.95
845.995	46.34
846.165	51.79
846.335	55.46
846.505	67.31
846.675	68.23
846.845	65.46
847.015	63.02
847.185	52.75
847.355	58.35
847.525	51.42
847.695	48.87
847.865	38.13
848.035	40.72
848.205	42.34
848.375	35.19
848.545	40.58
848.715	53.59
848.884	59.56
849.054	75.03
849.224	79.74
849.394	86.63
849.564	83.75
849.733	85.61
849.903	77.28
850.073	75.94
850.243	73.41
850.412	81.77
850.582	83.51
850.752	78.66
850.921	77.91
851.091	73.45
851.26	74.22
851.43	73.4
851.599	76.7
851.769	73.28
851.939	72.37
852.108	76.08
852.278	63.04
852.447	54.51
852.616	54.24
852.786	51.96
852.955	58.07
853.125	55.88
853.294	58.53
853.463	51.86
853.633	52.86
853.802	54.8
853.971	56.65
854.141	64.13
854.31	75.61
854.479	84.2
854.648	63.73
854.818	60.29
854.987	60.87
855.156	61.56
855.325	67.13
855.494	59.41
855.663	54.63
855.832	41.91
856.001	37.58
856.171	45.98
856.34	32.82
856.509	39.13
856.678	38.52
856.847	41.29
857.016	40.55
857.185	34.07
857.353	34.32
857.522	41.02
857.691	36.93
857.86	35.53
858.029	42.11
858.198	54.29
858.367	58.72
858.535	57.23
858.704	57.31
858.873	64.84
859.042	64.35
859.21	80.91
859.379	80.98
859.548	92.68
859.717	98.04
859.885	77.74
860.054	73.5
860.222	77.64
860.391	82.85
860.56	79.53
860.728	70.42
860.897	74
861.065	65.16
861.234	55.6
861.402	49.62
861.571	47.93
861.739	57.06
861.908	70.45
862.076	61.93
862.244	68.41
862.413	72.01
862.581	73.83
862.749	81.15
862.918	95.36
863.086	112.4
863.254	102.37
863.423	124.91
863.591	113.99
863.759	100.53
863.927	115.09
864.096	80.89
864.264	91.78
864.432	91.42
864.6	82.25
864.768	65.28
864.936	59.95
865.104	68.69
865.272	68.62
865.44	60.96
865.608	49.57
865.776	45.28
865.944	47.47
866.112	38.57
866.28	38.47
866.448	38.07
866.616	41.13
866.784	52.69
866.952	48.83
867.12	39.78
867.288	49.53
867.455	56.4
867.623	55.95
867.791	59.5
867.959	66.41
868.127	67.44
868.294	66.27
868.462	62.75
868.63	56.73
868.797	68.61
868.965	68.45
869.133	60.04
869.3	55.16
869.468	59.57
869.636	61.12
869.803	55.5
869.971	57.91
870.138	71.1
870.306	83.29
870.473	78.91
870.641	70.6
870.808	74.15
870.975	93.82
871.143	92.96
871.31	91.12
871.478	87.53
871.645	95.96
871.812	105.18
871.98	89.67
872.147	89.8
872.314	95.17
872.482	80.28
872.649	80.91
872.816	79.49
872.983	83.56
873.15	79.44
873.318	86.89
873.485	66.04
873.652	49.79
873.819	60.16
873.986	46.91
874.153	55.49
874.32	56.04
874.487	52.94
874.654	42.54
874.821	32.26
874.988	34.65
875.155	37.45
875.322	30.42
875.489	40.47
875.656	34.59
875.823	47.02
875.99	40.35
876.157	41.18
876.324	36.78
876.49	37.83
876.657	52.62
876.824	55.58
876.991	56.43
877.157	60.28
877.324	55.45
877.491	58.85
877.658	62.06
877.824	68.17
877.991	72.82
878.157	89.04
878.324	87.37
878.491	81.9
878.657	76.83
878.824	82.57
878.99	84.07
879.157	90.84
879.323	89.74
879.49	84.71
879.656	79.64
879.823	75.93
879.989	71.08
880.156	77.64
880.322	79.65
880.488	77.87
880.655	67.42
880.821	75.78
880.987	70.57
881.154	62.37
881.32	59.45
881.486	49.63
881.652	47.05
881.819	41.46
881.985	35.12
882.151	31.31
882.317	31.72
882.483	33.03
882.649	31.89
882.816	32.45
882.982	34.99
883.148	33.83
883.314	36.63
883.48	38.26
883.646	40.63
883.812	40.01
883.978	40.49
884.144	40.34
884.31	40.08
884.476	40.93
884.642	39.97
884.807	40.58
884.973	38.03
885.139	35.87
885.305	33.92
885.471	31.19
885.637	29.65
885.802	28.54
885.968	30.95
886.134	30.86
886.3	26.48
886.465	23.46
886.631	20.37
886.797	24.9
886.962	26.5
887.128	25.2
887.293	22.37
887.459	24.01
887.625	20.31
887.79	14.27
887.956	15.81
888.121	13.78
888.287	18.12
888.452	15.52
888.618	15.97
888.783	2.11
