Data from 2938121_Reflection_2.txt Node
Date: Sat Jul 11 17:49:03 EDT 2015
User: robert
Spectrometer: USB4E03001
Autoset integration time: false
Trigger mode: 4
Integration Time (sec): 1.000000E-1
Scans to average: 10
Electric dark correction enabled: true
Nonlinearity correction enabled: false
Boxcar width: 5
Stray light correction enabled: false
XAxis mode: Wavelengths
Stop averaging: false
Number of Pixels in Spectrum: 3648
>>>>>Begin Spectral Data<<<<<
177.566	820.83
177.785	-334.76
178.005	-152.78
178.225	28.33
178.445	76.84
178.665	117.22
178.885	167.27
179.105	120.31
179.324	102.29
179.544	127.01
179.764	144.16
179.984	191.63
180.204	342.96
180.423	332.58
180.643	795.37
180.863	-666.78
181.083	378.74
181.302	337.02
181.522	265.62
181.742	263.86
181.961	233.92
182.181	177.39
182.401	200.17
182.621	607.9
182.84	298.58
183.06	126.61
183.279	130.36
183.499	105.25
183.719	97.28
183.938	83.79
184.158	124.48
184.377	134.44
184.597	170.49
184.816	174.79
185.036	145.36
185.256	174.31
185.475	192.93
185.695	185.68
185.914	229.07
186.134	205.96
186.353	215.72
186.572	144.87
186.792	162.03
187.011	205.4
187.231	159.55
187.45	134.05
187.67	111.95
187.889	112.07
188.108	135.57
188.328	148.26
188.547	152.21
188.766	151.42
188.986	200.06
189.205	217.24
189.424	205.08
189.644	294.83
189.863	479.3
190.082	2446.43
190.302	649.42
190.521	671.51
190.74	663.46
190.959	-4011.34
191.178	-2339.16
191.398	1375.08
191.617	430.06
191.836	399.27
192.055	583.91
192.274	344.91
192.494	222.39
192.713	1328.62
192.932	761.94
193.151	-5648.45
193.37	-1217.7
193.589	-405.8
193.808	-1955.14
194.027	-1160.27
194.246	759.73
194.465	11445.76
194.685	1434.21
194.904	-2956.27
195.123	470.96
195.342	-534.28
195.561	418.83
195.78	174.27
195.999	99.17
196.218	399.37
196.436	453
196.655	369.65
196.874	185.25
197.093	149.73
197.312	119.91
197.531	150.1
197.75	126.79
197.969	129.28
198.188	143.5
198.407	136.79
198.625	141.19
198.844	135.75
199.063	145.71
199.282	256.61
199.501	333.33
199.719	529.25
199.938	324.02
200.157	672
200.376	-4860.29
200.594	448.52
200.813	247.23
201.032	128.27
201.251	108.67
201.469	105.74
201.688	62.6
201.907	44.51
202.125	42.44
202.344	60.04
202.563	90.36
202.781	91.18
203	70.91
203.218	104.58
203.437	97.87
203.656	150.05
203.874	123.26
204.093	103.71
204.311	111.52
204.53	142.42
204.748	109.97
204.967	96.91
205.185	104.65
205.404	97.61
205.622	104
205.841	119.45
206.059	114.25
206.278	118.86
206.496	160.87
206.715	205.05
206.933	184.16
207.151	364.8
207.37	469.95
207.588	568.4
207.806	339.78
208.025	602.84
208.243	528.88
208.461	562.26
208.68	-280.24
208.898	556.34
209.116	304.63
209.335	287.63
209.553	569.04
209.771	474.06
209.989	1575.61
210.208	-3028.2
210.426	-1344.11
210.644	-1777.35
210.862	463.56
211.081	418.88
211.299	406.75
211.517	693.56
211.735	698.54
211.953	248.59
212.171	249.55
212.39	213.3
212.608	180.19
212.826	158.07
213.044	143.68
213.262	167.98
213.48	141.49
213.698	148.65
213.916	130.13
214.134	106.57
214.352	113
214.57	104.62
214.788	96.1
215.006	96.02
215.224	89.47
215.442	82.16
215.66	83.65
215.878	86.44
216.096	106.84
216.314	92.93
216.532	87.58
216.75	91.68
216.968	105
217.185	102.45
217.403	131.77
217.621	136
217.839	158.87
218.057	104.99
218.275	103.71
218.492	90.25
218.71	77.42
218.928	129.35
219.146	135.48
219.363	88.04
219.581	119.87
219.799	-3.94
220.017	-2244.33
220.234	19.74
220.452	65.42
220.67	87.63
220.887	120.81
221.105	320.92
221.323	163.48
221.54	135.08
221.758	149.6
221.976	145.65
222.193	123.95
222.411	89.28
222.629	84.33
222.846	93.01
223.064	96.3
223.281	97.22
223.499	90.45
223.716	84.64
223.934	73.58
224.151	65.42
224.369	70.68
224.586	72.44
224.804	86.12
225.021	81.99
225.239	72.76
225.456	63.71
225.674	54.71
225.891	58.39
226.108	58.78
226.326	70.26
226.543	71.25
226.76	62.56
226.978	63.42
227.195	62
227.413	61.65
227.63	63.45
227.847	58.03
228.064	53.66
228.282	53.76
228.499	45.78
228.716	40.49
228.934	38.43
229.151	37.98
229.368	33.38
229.585	31.88
229.802	34.16
230.02	30.44
230.237	29.27
230.454	29.6
230.671	26.41
230.888	26.59
231.105	27.13
231.323	27.75
231.54	26.11
231.757	31.06
231.974	34.69
232.191	32.69
232.408	37.36
232.625	44.34
232.842	41.64
233.059	45.08
233.276	44.11
233.493	46.79
233.71	43.05
233.927	39.24
234.144	34
234.361	37.34
234.578	33.48
234.795	28.11
235.012	24
235.229	25.89
235.446	22.81
235.663	28.75
235.879	28.33
236.096	30.23
236.313	31.35
236.53	36.36
236.747	35.45
236.964	39.12
237.181	40.19
237.397	39.5
237.614	42.99
237.831	36.33
238.048	36.63
238.264	29.97
238.481	31.03
238.698	38.66
238.915	32.29
239.131	27.76
239.348	28.21
239.565	26.61
239.781	28.64
239.998	28.32
240.215	32.01
240.431	31.31
240.648	30.99
240.865	27.85
241.081	25.3
241.298	27.32
241.514	24.74
241.731	23.49
241.947	22.13
242.164	20.29
242.38	19.45
242.597	19.05
242.814	20.04
243.03	21.24
243.246	21.62
243.463	21.77
243.679	22.01
243.896	23.14
244.112	23.24
244.329	25.53
244.545	27.65
244.762	26.29
244.978	26.68
245.194	25.78
245.411	22.91
245.627	23.49
245.843	22.17
246.06	21.97
246.276	20.73
246.492	21.35
246.709	19.69
246.925	19.46
247.141	19.22
247.357	18.36
247.574	17.73
247.79	19.01
248.006	18.32
248.222	18.53
248.439	18.43
248.655	18.08
248.871	17.59
249.087	17.67
249.303	16.19
249.519	16.83
249.736	17.65
249.952	16.88
250.168	15.54
250.384	17.17
250.6	14.51
250.816	13.83
251.032	14.55
251.248	15.21
251.464	17.06
251.68	19.4
251.896	18.57
252.112	17.32
252.328	16.51
252.544	16.42
252.76	17.27
252.976	19.06
253.192	19.82
253.408	19.55
253.624	19.88
253.84	20.98
254.056	19.61
254.272	21.57
254.487	22.47
254.703	27.01
254.919	27.67
255.135	26.96
255.351	29.88
255.567	27.52
255.782	30.2
255.998	29.8
256.214	28.68
256.43	28.58
256.646	28.61
256.861	31.38
257.077	28.32
257.293	28.16
257.508	25.62
257.724	22.13
257.94	21.54
258.155	20.07
258.371	20.53
258.587	18.22
258.802	17
259.018	14.07
259.234	12.42
259.449	11.05
259.665	10.26
259.88	10.63
260.096	10.49
260.312	10.61
260.527	10.49
260.743	10.32
260.958	10.81
261.174	11.63
261.389	12.01
261.605	12.27
261.82	13.21
262.036	13.7
262.251	13.74
262.466	14.9
262.682	16.11
262.897	16
263.113	13.96
263.328	12.86
263.543	12.69
263.759	14.67
263.974	14.52
264.189	13.54
264.405	14.34
264.62	14
264.835	12.9
265.051	12.46
265.266	12.89
265.481	13.77
265.696	14.51
265.912	15.46
266.127	15.23
266.342	15.04
266.557	15.34
266.773	13.18
266.988	13.15
267.203	12.82
267.418	13.37
267.633	14.53
267.848	14.68
268.064	15.46
268.279	14.8
268.494	15.22
268.709	14.26
268.924	14.26
269.139	15.15
269.354	17.31
269.569	18.51
269.784	17.36
269.999	16.59
270.214	14.98
270.429	16.19
270.644	16.31
270.859	16.7
271.074	17.04
271.289	18.02
271.504	17.66
271.719	15.7
271.934	15.96
272.149	15.39
272.363	15.32
272.578	15.01
272.793	12.45
273.008	12.3
273.223	11.43
273.438	11.75
273.653	11.49
273.867	11.49
274.082	13.07
274.297	12.89
274.512	12.9
274.726	11.9
274.941	12.88
275.156	14.01
275.371	12.57
275.585	14.32
275.8	16.19
276.015	15.89
276.229	16.99
276.444	15.88
276.659	14.93
276.873	15.56
277.088	17.46
277.302	18.82
277.517	19.03
277.732	18.93
277.946	16.62
278.161	16.44
278.375	16.75
278.59	17.45
278.804	17.18
279.019	18.33
279.233	19.25
279.448	18.06
279.662	17.66
279.877	18.56
280.091	19.73
280.306	21.07
280.52	18.77
280.735	17.13
280.949	16.57
281.163	16.47
281.378	15.76
281.592	16.45
281.806	16.92
282.021	17
282.235	16.67
282.449	16
282.664	15.1
282.878	17.03
283.092	19.12
283.307	19.5
283.521	18.31
283.735	17.81
283.949	16.39
284.164	16.27
284.378	15.54
284.592	15.56
284.806	15.93
285.02	14.97
285.234	14.55
285.449	12.16
285.663	11.41
285.877	12.7
286.091	14.01
286.305	13.49
286.519	12.09
286.733	11.5
286.947	11.22
287.161	11.06
287.375	12.46
287.589	11.78
287.803	14.23
288.017	15.06
288.231	15.67
288.445	13.86
288.659	16.78
288.873	18.27
289.087	19.73
289.301	19.59
289.515	19.8
289.729	20.47
289.943	20.52
290.157	19.91
290.371	20.77
290.584	20.73
290.798	21.26
291.012	18.84
291.226	19.94
291.44	20.04
291.654	19.01
291.867	19.58
292.081	18.9
292.295	19.54
292.509	18.83
292.722	16.84
292.936	16.22
293.15	16.23
293.364	19.67
293.577	19.32
293.791	18.45
294.005	20.15
294.218	18.53
294.432	17.77
294.645	19.09
294.859	19.44
295.073	20.64
295.286	21.63
295.5	22.32
295.713	20.58
295.927	19.63
296.14	19.47
296.354	18.84
296.568	19.3
296.781	20.22
296.994	18.39
297.208	17.61
297.421	16.87
297.635	15.13
297.848	14.26
298.062	14.41
298.275	14.14
298.489	14.45
298.702	15.89
298.915	16.4
299.129	16.23
299.342	16.35
299.555	18.31
299.769	19.85
299.982	20.94
300.195	21.49
300.409	21.89
300.622	21.84
300.835	22.26
301.048	20.36
301.262	19.8
301.475	18.87
301.688	20.4
301.901	20.86
302.115	19.61
302.328	19.65
302.541	20.28
302.754	18.83
302.967	20.16
303.18	18.57
303.393	19.72
303.607	19.72
303.82	18.69
304.033	17.78
304.246	17.84
304.459	17.61
304.672	17.56
304.885	17.37
305.098	18.31
305.311	16.52
305.524	17.53
305.737	15.81
305.95	17.24
306.163	16.92
306.376	15.7
306.589	14.56
306.802	13.6
307.015	13.57
307.228	12.47
307.44	12.83
307.653	14.35
307.866	15.05
308.079	17.59
308.292	15.32
308.505	14.97
308.718	16.22
308.93	16.68
309.143	18.42
309.356	17.57
309.569	18.43
309.781	18.6
309.994	17.24
310.207	16.79
310.42	15.1
310.632	15.49
310.845	16.16
311.058	15.41
311.27	14.15
311.483	13.49
311.696	13.75
311.908	13.78
312.121	13
312.333	14.31
312.546	13.13
312.759	14.5
312.971	14.96
313.184	15.46
313.396	15.94
313.609	16.13
313.821	17.43
314.034	19.22
314.246	18.22
314.459	17.29
314.671	17.17
314.884	16.9
315.096	15.51
315.309	14.87
315.521	14.2
315.733	14.96
315.946	15.07
316.158	12.1
316.371	11.16
316.583	12.88
316.795	13.32
317.008	12.4
317.22	14.4
317.432	14.7
317.644	15.71
317.857	16.42
318.069	15.85
318.281	15.57
318.494	16.15
318.706	15.68
318.918	16.34
319.13	16.24
319.342	18.71
319.555	18.09
319.767	18.83
319.979	17.44
320.191	17.32
320.403	17.48
320.615	18.87
320.827	20.35
321.039	20.86
321.252	19.78
321.464	20.36
321.676	19.48
321.888	18.41
322.1	18.6
322.312	17.96
322.524	16.88
322.736	15.41
322.948	14.14
323.16	14.31
323.372	14.23
323.584	14.09
323.796	15.6
324.007	13.57
324.219	14.91
324.431	14.5
324.643	15.51
324.855	15.31
325.067	17.39
325.279	18.74
325.491	18.45
325.702	18.95
325.914	18.92
326.126	17.87
326.338	18.71
326.55	18.96
326.761	18.75
326.973	19.51
327.185	20.2
327.396	19.68
327.608	17.98
327.82	18.01
328.032	17.68
328.243	16.99
328.455	17.69
328.666	17.59
328.878	16.88
329.09	15.89
329.301	15.07
329.513	16.95
329.725	16.33
329.936	17.83
330.148	18.64
330.359	16.56
330.571	16.78
330.782	15.11
330.994	16.17
331.205	16.27
331.417	17.29
331.628	16.2
331.84	15.13
332.051	14.25
332.262	14.75
332.474	15.29
332.685	17.27
332.897	17.31
333.108	16.72
333.319	17.18
333.531	17.78
333.742	17.9
333.953	18.49
334.165	19.13
334.376	20.24
334.587	19.01
334.799	18.2
335.01	18.87
335.221	18.63
335.432	19.33
335.644	18.05
335.855	17.12
336.066	16.57
336.277	15.99
336.488	13.9
336.7	13.45
336.911	14.48
337.122	14.21
337.333	13.6
337.544	13.68
337.755	13.95
337.966	13.19
338.177	13.95
338.388	13.3
338.599	14.56
338.811	15.24
339.022	15.02
339.233	14.47
339.444	14.72
339.655	14.12
339.866	14.15
340.076	14.54
340.287	15.44
340.498	13.45
340.709	14
340.92	13.77
341.131	13.95
341.342	14.51
341.553	15
341.764	14.5
341.975	15.1
342.185	15.98
342.396	16.22
342.607	15.94
342.818	17.94
343.029	18.75
343.239	19.57
343.45	18.98
343.661	18.75
343.872	17.36
344.082	17.78
344.293	18.12
344.504	18.08
344.714	17.47
344.925	18.13
345.136	17.06
345.346	16.59
345.557	15.18
345.768	15.9
345.978	17.23
346.189	17.86
346.399	17.17
346.61	16.39
346.821	15.48
347.031	15.72
347.242	15.28
347.452	15.41
347.663	15.31
347.873	16.26
348.084	16.9
348.294	15.36
348.504	14.35
348.715	14.86
348.925	14.86
349.136	14.91
349.346	14.64
349.557	14.11
349.767	15.07
349.977	14.67
350.188	14.7
350.398	14.39
350.608	13.68
350.819	14.17
351.029	13.94
351.239	14.11
351.449	14.08
351.66	13.25
351.87	13.1
352.08	12.65
352.29	12.2
352.501	12.47
352.711	12.72
352.921	13.13
353.131	13.49
353.341	13.2
353.552	13.29
353.762	12.41
353.972	13.83
354.182	13.83
354.392	12.64
354.602	13.74
354.812	13.42
355.022	12.68
355.232	12.35
355.442	12.77
355.652	13.44
355.862	13.44
356.072	14.05
356.282	11.85
356.492	12.12
356.702	12.49
356.912	12.31
357.122	11.99
357.332	12.77
357.542	12.7
357.752	12.02
357.962	11.2
358.171	10.77
358.381	11.86
358.591	13.27
358.801	13.91
359.011	14.79
359.221	15.18
359.43	14.3
359.64	13.18
359.85	13.01
360.06	13.34
360.269	13.72
360.479	14
360.689	12.58
360.899	12.49
361.108	11.47
361.318	10.64
361.528	10.18
361.737	10.75
361.947	11.16
362.156	11.42
362.366	11.77
362.576	11.28
362.785	11.11
362.995	11.58
363.204	10.84
363.414	10.73
363.623	11.05
363.833	11.9
364.042	12.26
364.252	12.06
364.461	11.74
364.671	11.45
364.88	12.57
365.09	11.84
365.299	12.21
365.509	12.8
365.718	13.25
365.927	13.19
366.137	12.89
366.346	12.04
366.555	11.92
366.765	11.95
366.974	11.24
367.183	11.13
367.393	11.39
367.602	11.31
367.811	10.13
368.021	10.57
368.23	10.22
368.439	9.88
368.648	10.8
368.857	10.46
369.067	10.73
369.276	10.53
369.485	9.57
369.694	10.4
369.903	9.78
370.112	10.28
370.321	10.8
370.531	10.98
370.74	10.78
370.949	11.08
371.158	11.11
371.367	10.58
371.576	11.16
371.785	11.52
371.994	11.03
372.203	11.13
372.412	11.76
372.621	11.14
372.83	11.36
373.039	11.37
373.248	9.85
373.457	10.84
373.666	11.34
373.874	11.36
374.083	10.74
374.292	10.93
374.501	10.73
374.71	10.71
374.919	10.32
375.128	9.89
375.336	9.85
375.545	10.78
375.754	9.83
375.963	9.25
376.171	8.89
376.38	9.37
376.589	8.65
376.798	9.12
377.006	8.61
377.215	8.64
377.424	8.4
377.632	8.29
377.841	8.26
378.05	8.59
378.258	8.62
378.467	8.85
378.675	8.54
378.884	8.49
379.093	8.03
379.301	8.55
379.51	8.56
379.718	8.7
379.927	8.59
380.135	8.95
380.344	8.97
380.552	9.56
380.761	9.75
380.969	9.94
381.177	9.8
381.386	9.93
381.594	9.42
381.803	9.37
382.011	9.64
382.219	9.85
382.428	9.2
382.636	8.5
382.845	8.5
383.053	7.83
383.261	7.59
383.469	7.87
383.678	7.8
383.886	8.06
384.094	7.77
384.302	7.62
384.511	7.62
384.719	7.34
384.927	7.25
385.135	7.02
385.343	7.2
385.552	7.66
385.76	7.75
385.968	7.72
386.176	7.59
386.384	7.58
386.592	7.12
386.8	6.96
387.008	7.05
387.216	7.15
387.424	6.78
387.633	6.78
387.841	6.4
388.049	5.9
388.257	5.62
388.465	5.52
388.672	5.79
388.88	6.55
389.088	5.92
389.296	5.62
389.504	5.73
389.712	5.3
389.92	4.92
390.128	4.94
390.336	5.58
390.544	5.35
390.751	5.17
390.959	4.75
391.167	4.37
391.375	4.93
391.583	4.91
391.79	4.75
391.998	5.25
392.206	5.43
392.414	5.53
392.621	5.01
392.829	5.16
393.037	5.15
393.244	5.61
393.452	5.2
393.66	5.2
393.867	5.11
394.075	5.08
394.283	5.02
394.49	4.89
394.698	5.02
394.905	4.89
395.113	5.14
395.32	5.22
395.528	5.04
395.735	5.49
395.943	5.32
396.15	5.51
396.358	5.57
396.565	5.43
396.773	6
396.98	5.67
397.188	5.71
397.395	5.45
397.602	5.31
397.81	5.14
398.017	4.61
398.225	4.52
398.432	4.79
398.639	4.61
398.847	4.9
399.054	4.43
399.261	4.37
399.468	4.29
399.676	4.35
399.883	4.47
400.09	4.27
400.297	4.67
400.505	4.59
400.712	4.41
400.919	4.74
401.126	4.51
401.333	4.51
401.54	4.79
401.748	5.17
401.955	4.9
402.162	4.99
402.369	5.08
402.576	5.03
402.783	5
402.99	4.72
403.197	4.45
403.404	4.43
403.611	4.49
403.818	4.3
404.025	4.18
404.232	4.45
404.439	4.63
404.646	4.7
404.853	4.55
405.06	4.73
405.267	4.81
405.474	4.88
405.681	5.01
405.887	5.08
406.094	5.32
406.301	5.53
406.508	5.55
406.715	5.45
406.922	5.39
407.128	5.39
407.335	5.26
407.542	5.39
407.749	5.41
407.955	5.51
408.162	5.7
408.369	5.34
408.575	5.19
408.782	5.12
408.989	5.03
409.195	5.1
409.402	5.31
409.609	5.24
409.815	5.31
410.022	5.36
410.228	5.5
410.435	5.14
410.642	5.35
410.848	5.44
411.055	5.61
411.261	5.52
411.468	5.6
411.674	5.55
411.881	5.49
412.087	5.02
412.294	4.99
412.5	4.66
412.706	4.89
412.913	4.67
413.119	4.64
413.326	3.96
413.532	3.75
413.738	3.76
413.945	3.7
414.151	3.85
414.357	4.23
414.564	4.06
414.77	3.93
414.976	3.84
415.182	4.13
415.389	4.36
415.595	4.82
415.801	4.9
416.007	4.99
416.214	4.84
416.42	4.69
416.626	4.94
416.832	5.21
417.038	4.99
417.244	4.95
417.45	4.84
417.657	4.34
417.863	4.3
418.069	4.48
418.275	4.45
418.481	4.41
418.687	4.4
418.893	3.98
419.099	3.98
419.305	3.99
419.511	3.89
419.717	3.72
419.923	3.91
420.129	3.79
420.335	3.67
420.541	3.47
420.746	3.49
420.952	3.56
421.158	3.69
421.364	3.49
421.57	3.56
421.776	3.69
421.982	3.79
422.187	3.76
422.393	3.8
422.599	3.67
422.805	3.62
423.01	3.71
423.216	3.63
423.422	3.58
423.628	3.74
423.833	3.69
424.039	3.71
424.245	3.72
424.45	3.66
424.656	3.63
424.862	3.82
425.067	4.01
425.273	3.98
425.478	3.96
425.684	4.04
425.889	3.85
426.095	3.87
426.301	3.66
426.506	3.6
426.712	3.69
426.917	3.77
427.123	3.52
427.328	3.43
427.533	3.36
427.739	3.37
427.944	3.35
428.15	3.48
428.355	3.38
428.561	3.46
428.766	3.38
428.971	3.46
429.177	3.61
429.382	3.68
429.587	3.62
429.793	3.64
429.998	3.69
430.203	3.45
430.408	3.44
430.614	3.8
430.819	3.67
431.024	3.93
431.229	3.82
431.434	3.56
431.64	3.78
431.845	3.92
432.05	4.02
432.255	3.98
432.46	4.08
432.665	3.95
432.87	3.71
433.076	3.91
433.281	3.76
433.486	3.62
433.691	3.66
433.896	3.54
434.101	3.38
434.306	3.25
434.511	3.31
434.716	3.37
434.921	3.57
435.126	3.73
435.331	3.58
435.535	3.33
435.74	3.37
435.945	3.42
436.15	3.45
436.355	3.52
436.56	3.64
436.765	3.57
436.97	3.54
437.174	3.3
437.379	3.5
437.584	3.56
437.789	3.75
437.993	3.86
438.198	3.86
438.403	3.59
438.608	3.57
438.812	3.41
439.017	3.24
439.222	3.21
439.426	3.24
439.631	2.97
439.836	2.91
440.04	3
440.245	2.93
440.45	2.86
440.654	3.15
440.859	3.09
441.063	3.01
441.268	3.09
441.472	3.03
441.677	3.2
441.881	3.15
442.086	3.1
442.29	3.09
442.495	3.04
442.699	2.99
442.904	2.84
443.108	3.16
443.312	3.45
443.517	3.59
443.721	3.73
443.925	3.6
444.13	3.8
444.334	3.82
444.538	3.6
444.743	3.71
444.947	3.77
445.151	3.75
445.356	3.47
445.56	3.41
445.764	3.37
445.968	3.47
446.173	3.42
446.377	3.37
446.581	3.44
446.785	3.44
446.989	3.33
447.193	3.34
447.398	3.3
447.602	3.19
447.806	3.24
448.01	3.37
448.214	3.3
448.418	3.33
448.622	3.41
448.826	3.31
449.03	3.46
449.234	3.65
449.438	3.54
449.642	3.65
449.846	3.67
450.05	3.65
450.254	3.52
450.458	3.4
450.662	3.38
450.866	3.04
451.069	3.22
451.273	2.97
451.477	2.81
451.681	2.88
451.885	2.81
452.089	2.92
452.292	2.79
452.496	2.81
452.7	2.94
452.904	2.9
453.107	2.9
453.311	2.85
453.515	2.92
453.719	2.93
453.922	3.07
454.126	3.08
454.33	3.18
454.533	3.28
454.737	3.26
454.94	3.09
455.144	3.24
455.348	3.36
455.551	3.33
455.755	3.5
455.958	3.81
456.162	3.86
456.365	3.92
456.569	3.81
456.772	3.67
456.976	3.89
457.179	3.91
457.383	3.85
457.586	3.7
457.79	3.74
457.993	3.73
458.196	3.34
458.4	3.27
458.603	3.1
458.807	3.14
459.01	3.23
459.213	3.06
459.417	3.07
459.62	3.07
459.823	3.27
460.026	3.08
460.23	3.06
460.433	3.2
460.636	3.18
460.839	3.21
461.042	3.25
461.246	3.32
461.449	3.24
461.652	3.17
461.855	3
462.058	3.05
462.261	3.33
462.464	3.2
462.668	3.29
462.871	3.24
463.074	3.46
463.277	3.41
463.48	3.34
463.683	3.7
463.886	3.94
464.089	4.08
464.292	3.93
464.495	3.78
464.698	3.92
464.901	3.86
465.104	3.97
465.306	3.81
465.509	3.79
465.712	3.76
465.915	3.58
466.118	3.52
466.321	3.63
466.524	3.5
466.726	3.64
466.929	3.7
467.132	3.59
467.335	3.51
467.538	3.46
467.74	3.53
467.943	3.46
468.146	3.48
468.348	3.52
468.551	3.56
468.754	3.78
468.956	3.73
469.159	3.79
469.362	3.83
469.564	3.93
469.767	3.98
469.969	3.94
470.172	4.05
470.375	4.14
470.577	4.03
470.78	3.72
470.982	3.49
471.185	3.43
471.387	3.19
471.59	3.14
471.792	2.9
471.995	2.92
472.197	2.82
472.399	2.97
472.602	2.87
472.804	3
473.007	3.25
473.209	3.39
473.411	3.3
473.614	3.3
473.816	3.5
474.018	3.52
474.22	3.57
474.423	3.66
474.625	3.66
474.827	3.58
475.03	3.55
475.232	3.4
475.434	3.49
475.636	3.62
475.838	3.65
476.04	3.56
476.243	3.78
476.445	3.74
476.647	3.79
476.849	3.56
477.051	3.63
477.253	3.44
477.455	3.4
477.657	3.37
477.859	3.35
478.061	3.31
478.263	3.3
478.465	3.2
478.667	3.19
478.869	3.26
479.071	3.31
479.273	3.07
479.475	3.14
479.677	3.2
479.879	3.04
480.081	3.03
480.283	3.22
480.485	3.16
480.686	3.19
480.888	3.08
481.09	2.97
481.292	2.84
481.494	2.96
481.695	3.02
481.897	2.96
482.099	2.94
482.301	2.88
482.502	2.74
482.704	2.63
482.906	2.57
483.107	2.61
483.309	2.63
483.511	2.67
483.712	2.63
483.914	2.63
484.115	2.68
484.317	2.71
484.519	2.72
484.72	2.72
484.922	2.71
485.123	2.74
485.325	2.75
485.526	2.73
485.728	2.77
485.929	2.76
486.131	2.73
486.332	2.68
486.534	2.71
486.735	2.78
486.936	2.79
487.138	2.91
487.339	2.87
487.541	2.87
487.742	2.85
487.943	2.82
488.144	2.89
488.346	2.98
488.547	3
488.748	3.02
488.95	3
489.151	3.02
489.352	3.03
489.553	3.04
489.755	3.07
489.956	3.16
490.157	3.16
490.358	3.09
490.559	3.01
490.76	2.99
490.961	2.97
491.163	2.86
491.364	2.84
491.565	2.81
491.766	2.88
491.967	2.92
492.168	2.9
492.369	2.92
492.57	2.94
492.771	2.91
492.972	2.91
493.173	2.85
493.374	2.97
493.575	3.08
493.776	3.15
493.976	3.15
494.177	3.21
494.378	3.18
494.579	3.18
494.78	3.38
494.981	3.53
495.182	3.58
495.382	3.66
495.583	3.71
495.784	3.52
495.985	3.5
496.185	3.57
496.386	3.35
496.587	3.39
496.788	3.32
496.988	3.28
497.189	3.21
497.39	3.17
497.59	3.2
497.791	3.16
497.992	3.26
498.192	3.14
498.393	3.08
498.593	3.22
498.794	3.3
498.994	3.31
499.195	3.16
499.395	3.21
499.596	3.25
499.796	3.15
499.997	3.1
500.197	3.06
500.398	3.09
500.598	3.06
500.799	3
500.999	2.8
501.199	2.68
501.4	2.84
501.6	2.7
501.801	2.77
502.001	2.81
502.201	2.85
502.402	2.87
502.602	3.1
502.802	2.95
503.002	3.08
503.203	3.17
503.403	3.23
503.603	3.17
503.803	3.36
504.003	3.2
504.204	3.14
504.404	3.34
504.604	3.45
504.804	3.34
505.004	3.37
505.204	3.41
505.404	3.38
505.604	3.55
505.804	3.58
506.005	3.57
506.205	3.69
506.405	3.77
506.605	3.51
506.805	3.53
507.005	3.52
507.204	3.54
507.404	3.42
507.604	3.46
507.804	3.43
508.004	3.5
508.204	3.42
508.404	3.32
508.604	3.23
508.804	3.35
509.003	3.26
509.203	3.17
509.403	3.18
509.603	3.19
509.803	3.27
510.002	3.43
510.202	3.41
510.402	3.54
510.602	3.54
510.801	3.58
511.001	3.61
511.201	3.64
511.4	3.81
511.6	3.81
511.8	3.75
511.999	3.69
512.199	3.4
512.398	3.36
512.598	3.4
512.797	3.5
512.997	3.52
513.197	3.48
513.396	3.31
513.596	3.27
513.795	3.3
513.994	3.31
514.194	3.29
514.393	3.5
514.593	3.56
514.792	3.53
514.992	3.44
515.191	3.4
515.39	3.4
515.59	3.52
515.789	3.54
515.988	3.59
516.188	3.54
516.387	3.5
516.586	3.37
516.786	3.21
516.985	3.06
517.184	3.16
517.383	3.3
517.582	3.29
517.782	3.35
517.981	3.32
518.18	3.35
518.379	3.48
518.578	3.58
518.777	3.58
518.976	3.75
519.176	3.71
519.375	3.78
519.574	3.67
519.773	3.71
519.972	3.77
520.171	3.84
520.37	3.87
520.569	3.85
520.768	3.91
520.967	4.08
521.166	4.06
521.365	4.22
521.564	4.19
521.762	4.3
521.961	4.32
522.16	4.34
522.359	4.23
522.558	4.06
522.757	4.18
522.956	4.11
523.154	4.02
523.353	3.89
523.552	3.83
523.751	3.77
523.949	3.82
524.148	3.7
524.347	3.62
524.546	3.58
524.744	3.55
524.943	3.43
525.142	3.44
525.34	3.43
525.539	3.52
525.737	3.53
525.936	3.61
526.135	3.45
526.333	3.48
526.532	3.49
526.73	3.52
526.929	3.6
527.127	3.56
527.326	3.6
527.524	3.66
527.723	3.66
527.921	3.7
528.12	3.68
528.318	3.76
528.516	3.8
528.715	3.77
528.913	3.79
529.112	3.8
529.31	3.89
529.508	3.83
529.707	3.79
529.905	3.73
530.103	3.73
530.301	3.67
530.5	3.77
530.698	3.75
530.896	3.88
531.094	3.94
531.293	4
531.491	3.98
531.689	4.06
531.887	4.12
532.085	4.24
532.283	4.23
532.481	4.2
532.68	4.08
532.878	4.13
533.076	4.04
533.274	4.06
533.472	4.01
533.67	4.02
533.868	4.02
534.066	3.98
534.264	3.99
534.462	3.99
534.66	4.08
534.858	4.11
535.056	4.15
535.253	4.18
535.451	4.13
535.649	4.22
535.847	4.14
536.045	4.2
536.243	4.2
536.441	4.23
536.638	4.35
536.836	4.35
537.034	4.39
537.232	4.33
537.43	4.33
537.627	4.31
537.825	4.35
538.023	4.4
538.22	4.44
538.418	4.5
538.616	4.53
538.813	4.35
539.011	4.47
539.209	4.45
539.406	4.48
539.604	4.6
539.801	4.74
539.999	4.73
540.196	4.7
540.394	4.58
540.591	4.68
540.789	4.67
540.986	4.7
541.184	4.61
541.381	4.62
541.579	4.68
541.776	4.65
541.974	4.59
542.171	4.67
542.368	4.82
542.566	4.88
542.763	4.88
542.96	4.9
543.158	4.93
543.355	5
543.552	5.09
543.75	5.16
543.947	5.22
544.144	5.33
544.341	5.37
544.539	5.37
544.736	5.48
544.933	5.51
545.13	5.58
545.327	5.71
545.524	5.85
545.722	5.87
545.919	5.8
546.116	5.97
546.313	6.13
546.51	6.07
546.707	6.07
546.904	6.09
547.101	6.15
547.298	6.16
547.495	6.04
547.692	6.04
547.889	6.14
548.086	6.21
548.283	6.06
548.48	5.9
548.677	5.98
548.874	6.07
549.07	6.08
549.267	6.07
549.464	6
549.661	6.27
549.858	6.29
550.055	6.44
550.251	6.5
550.448	6.7
550.645	6.82
550.842	6.91
551.038	6.7
551.235	6.88
551.432	6.89
551.628	7.05
551.825	6.91
552.022	6.82
552.218	6.62
552.415	6.65
552.612	6.56
552.808	6.56
553.005	6.32
553.201	6.48
553.398	6.49
553.594	6.64
553.791	6.76
553.987	7.08
554.184	7.39
554.38	7.57
554.577	7.65
554.773	7.96
554.97	7.86
555.166	8.05
555.362	8.13
555.559	7.99
555.755	8.13
555.952	8.08
556.148	7.93
556.344	7.73
556.541	7.55
556.737	7.66
556.933	7.5
557.129	7.65
557.326	7.76
557.522	7.66
557.718	8.04
557.914	8.03
558.11	8.16
558.307	8.46
558.503	8.65
558.699	8.83
558.895	8.72
559.091	8.81
559.287	8.94
559.483	8.96
559.679	9.14
559.876	9.01
560.072	9.13
560.268	9.06
560.464	8.73
560.66	8.54
560.856	8.61
561.052	8.63
561.247	8.73
561.443	8.65
561.639	8.83
561.835	8.76
562.031	8.79
562.227	8.59
562.423	8.54
562.619	8.76
562.815	9.16
563.01	9.21
563.206	9.19
563.402	9.23
563.598	9.47
563.793	9.47
563.989	9.91
564.185	10
564.381	10.27
564.576	10.34
564.772	10.37
564.968	10.15
565.163	10.1
565.359	10.23
565.555	10.08
565.75	10.08
565.946	9.99
566.141	9.64
566.337	9.62
566.532	9.5
566.728	9.45
566.923	9.63
567.119	9.66
567.314	9.77
567.51	9.79
567.705	9.88
567.901	9.9
568.096	10.1
568.292	10.28
568.487	10.33
568.682	10.44
568.878	10.37
569.073	10.2
569.268	10.29
569.464	10.41
569.659	10.6
569.854	10.65
570.05	10.77
570.245	10.7
570.44	10.74
570.635	10.57
570.831	10.41
571.026	10.84
571.221	10.97
571.416	11.03
571.611	10.99
571.806	10.99
572.002	11.03
572.197	10.83
572.392	10.93
572.587	10.9
572.782	11.14
572.977	11.2
573.172	11.06
573.367	11.1
573.562	11.43
573.757	11.34
573.952	11.22
574.147	11.28
574.342	11.48
574.537	11.44
574.732	11.75
574.927	11.72
575.121	11.93
575.316	12
575.511	12.02
575.706	11.81
575.901	11.99
576.096	12.01
576.29	12.04
576.485	12.1
576.68	12.21
576.875	12
577.069	11.95
577.264	11.95
577.459	11.95
577.654	11.93
577.848	11.77
578.043	11.55
578.238	11.53
578.432	11.33
578.627	11.4
578.821	11.55
579.016	11.66
579.21	11.49
579.405	11.44
579.6	11.51
579.794	11.66
579.989	11.82
580.183	11.88
580.378	12.11
580.572	12.15
580.766	12.31
580.961	12.14
581.155	12.28
581.35	12.75
581.544	12.59
581.738	12.39
581.933	12.37
582.127	12.4
582.321	12.49
582.516	12.56
582.71	12.91
582.904	12.54
583.099	12.39
583.293	11.92
583.487	11.85
583.681	12.29
583.875	12.32
584.07	12.28
584.264	12.44
584.458	12.68
584.652	12.6
584.846	12.45
585.04	12.59
585.234	12.72
585.428	12.93
585.623	12.91
585.817	12.73
586.011	13.09
586.205	12.93
586.399	12.63
586.593	12.47
586.787	12.63
586.981	12.81
587.174	12.93
587.368	13.17
587.562	13.33
587.756	13.43
587.95	13.44
588.144	13.32
588.338	13.68
588.532	13.82
588.725	13.9
588.919	13.89
589.113	13.79
589.307	13.82
589.501	13.69
589.694	13.71
589.888	13.75
590.082	13.92
590.275	13.87
590.469	13.57
590.663	13.72
590.856	13.61
591.05	13.56
591.244	13.67
591.437	13.87
591.631	13.71
591.824	13.82
592.018	13.7
592.212	13.64
592.405	13.85
592.599	14.05
592.792	13.95
592.986	14.01
593.179	14.03
593.372	14.1
593.566	14.12
593.759	14.28
593.953	14.5
594.146	14.61
594.339	14.49
594.533	14.27
594.726	14.02
594.92	14.1
595.113	14.02
595.306	13.9
595.499	13.8
595.693	13.67
595.886	13.78
596.079	13.55
596.272	13.47
596.466	13.4
596.659	13.6
596.852	13.7
597.045	13.77
597.238	13.93
597.431	13.81
597.624	13.89
597.818	13.94
598.011	13.91
598.204	13.84
598.397	13.92
598.59	14.12
598.783	14.09
598.976	14.26
599.169	14.32
599.362	14.06
599.555	14.59
599.748	14.69
599.941	14.52
600.134	14.2
600.326	14.38
600.519	14.55
600.712	14.38
600.905	14.41
601.098	14.4
601.291	14.43
601.483	14.66
601.676	14.36
601.869	14.33
602.062	14.28
602.255	14.52
602.447	14.55
602.64	14.49
602.833	14.53
603.025	14.52
603.218	14.51
603.411	14.41
603.603	14.46
603.796	14.23
603.989	14.21
604.181	14.19
604.374	14.35
604.566	14.28
604.759	14.45
604.951	14.7
605.144	14.72
605.336	14.54
605.529	14.31
605.721	14.29
605.914	14.68
606.106	14.48
606.299	14.58
606.491	14.52
606.683	14.5
606.876	14.34
607.068	14.24
607.26	14.04
607.453	14.46
607.645	14.87
607.837	14.56
608.03	14.51
608.222	14.74
608.414	14.77
608.606	14.87
608.799	14.9
608.991	14.69
609.183	14.52
609.375	14.74
609.567	14.47
609.759	14.42
609.952	14.9
610.144	14.82
610.336	14.74
610.528	14.53
610.72	14.23
610.912	14.21
611.104	14.38
611.296	14.28
611.488	14.22
611.68	14.29
611.872	14.07
612.064	13.83
612.256	13.87
612.448	13.88
612.64	14.12
612.832	14.45
613.023	14.51
613.215	14.5
613.407	14.82
613.599	14.55
613.791	14.66
613.983	14.86
614.174	14.8
614.366	14.97
614.558	15.09
614.75	15.24
614.941	15.05
615.133	15.03
615.325	15.16
615.516	15.16
615.708	15.41
615.9	15.49
616.091	15.45
616.283	15.55
616.475	15.38
616.666	15.63
616.858	15.37
617.049	15.35
617.241	15.46
617.432	15.27
617.624	15.34
617.815	15.28
618.007	15.03
618.198	15.18
618.39	15.3
618.581	15.45
618.773	15.09
618.964	15.39
619.155	15.58
619.347	15.26
619.538	15.27
619.729	15.34
619.921	15.53
620.112	15.73
620.303	15.47
620.494	15.32
620.686	15.08
620.877	15.08
621.068	14.96
621.259	14.96
621.451	15.05
621.642	15.08
621.833	14.95
622.024	14.64
622.215	14.52
622.406	14.95
622.597	15.19
622.788	15.45
622.98	15.84
623.171	15.87
623.362	15.91
623.553	15.95
623.744	15.68
623.935	15.66
624.126	15.85
624.317	15.61
624.508	15.21
624.698	14.79
624.889	14.47
625.08	14.11
625.271	13.95
625.462	13.6
625.653	13.41
625.844	13.77
626.034	13.94
626.225	14.06
626.416	14.01
626.607	14.11
626.798	14.39
626.988	14.63
627.179	14.84
627.37	14.97
627.56	15.4
627.751	15.78
627.942	15.72
628.132	15.72
628.323	15.71
628.514	15.94
628.704	16.22
628.895	16.25
629.085	16.07
629.276	15.72
629.466	15.9
629.657	15.63
629.847	15.61
630.038	15.68
630.228	15.43
630.419	15.39
630.609	15.53
630.8	15.29
630.99	14.94
631.181	14.85
631.371	15.41
631.561	15.18
631.752	15.1
631.942	14.88
632.132	14.71
632.323	14.8
632.513	14.44
632.703	14.43
632.893	14.49
633.084	14.58
633.274	14.53
633.464	13.99
633.654	14
633.844	13.89
634.034	13.88
634.225	13.98
634.415	13.73
634.605	14.04
634.795	14.02
634.985	13.84
635.175	14.17
635.365	14.49
635.555	14.81
635.745	15.07
635.935	15.57
636.125	15.64
636.315	15.73
636.505	15.79
636.695	15.9
636.885	16.05
637.075	16.3
637.265	16.38
637.455	16.46
637.644	16.44
637.834	16.37
638.024	15.9
638.214	16.46
638.404	16.59
638.593	16.81
638.783	16.53
638.973	16.53
639.163	16.38
639.352	16.38
639.542	16.38
639.732	16.52
639.921	16.15
640.111	16.32
640.301	15.93
640.49	15.97
640.68	16.18
640.87	16.36
641.059	16.07
641.249	16.16
641.438	16.03
641.628	15.82
641.817	15.63
642.007	16.09
642.196	16.16
642.386	16.35
642.575	16.41
642.764	16.52
642.954	16.52
643.143	16.78
643.333	17.23
643.522	17.55
643.711	17.3
643.901	17.37
644.09	17.53
644.279	17.82
644.469	17.03
644.658	16.57
644.847	16.21
645.036	16.45
645.226	16.48
645.415	16.01
645.604	15.68
645.793	15.8
645.982	15.61
646.171	15.26
646.361	15.01
646.55	15.27
646.739	15.2
646.928	15.19
647.117	14.81
647.306	14.82
647.495	15.08
647.684	15.2
647.873	15.21
648.062	15.61
648.251	15.94
648.44	16.19
648.629	16.48
648.818	16.4
649.007	16.32
649.196	16.27
649.384	16.25
649.573	16.06
649.762	15.74
649.951	15.99
650.14	15.47
650.328	15.12
650.517	14.76
650.706	14.77
650.895	14.86
651.083	14.86
651.272	15.44
651.461	15.54
651.65	15.43
651.838	15.44
652.027	15.38
652.216	15.41
652.404	15.35
652.593	15.64
652.781	15.4
652.97	15.67
653.158	15.72
653.347	15.31
653.535	15.52
653.724	15.48
653.912	15.88
654.101	15.83
654.289	15.91
654.478	16.33
654.666	16.52
654.855	17.26
655.043	16.92
655.231	16.73
655.42	16.24
655.608	15.32
655.796	15.56
655.985	15.19
656.173	15.12
656.361	15.63
656.55	15.26
656.738	15.18
656.926	14.65
657.114	15
657.302	15.07
657.491	15.7
657.679	16.01
657.867	15.44
658.055	15.47
658.243	15.68
658.431	15.59
658.619	15.7
658.807	15.29
658.996	15.47
659.184	15.48
659.372	15.66
659.56	15.67
659.748	15.87
659.936	16.45
660.124	16.66
660.311	17.16
660.499	16.93
660.687	16.85
660.875	17.24
661.063	17.38
661.251	17.2
661.439	17.2
661.627	17.09
661.814	17.16
662.002	17.03
662.19	17.3
662.378	16.68
662.565	16.78
662.753	16.98
662.941	16.68
663.129	16.48
663.316	16.83
663.504	16.9
663.692	17.08
663.879	17.4
664.067	17.02
664.254	16.68
664.442	16.97
664.63	17.21
664.817	17.62
665.005	17.31
665.192	17.1
665.38	16.83
665.567	16.74
665.755	16.84
665.942	16.69
666.13	17.04
666.317	17.33
666.504	16.71
666.692	16.35
666.879	15.77
667.067	16.36
667.254	17.11
667.441	16.93
667.629	16.95
667.816	16.43
668.003	16.34
668.19	16.25
668.378	16.19
668.565	16.87
668.752	17.18
668.939	17.11
669.127	16.75
669.314	16.28
669.501	16.85
669.688	17.16
669.875	17.71
670.062	17.89
670.249	17.48
670.436	16.69
670.623	16.53
670.81	16.01
670.997	16.37
671.184	16.41
671.371	16.2
671.558	16.06
671.745	15.91
671.932	15.57
672.119	15.12
672.306	15.82
672.493	16.62
672.68	16.17
672.867	16.38
673.054	16.36
673.24	16.64
673.427	17.1
673.614	17.26
673.801	17.53
673.988	17.79
674.174	18.02
674.361	17.5
674.548	17.3
674.734	17.77
674.921	17.49
675.108	17.34
675.294	17.19
675.481	16.68
675.668	16.44
675.854	15.67
676.041	15.47
676.227	15.28
676.414	15.7
676.601	15.94
676.787	16.03
676.974	16.43
677.16	16.75
677.347	17.01
677.533	17.47
677.719	17.38
677.906	17.77
678.092	18
678.279	18.35
678.465	18.1
678.651	17.23
678.838	17.25
679.024	17.5
679.21	17.27
679.397	17.32
679.583	16.97
679.769	16.81
679.955	17.03
680.142	17.16
680.328	17.24
680.514	17.25
680.7	17.84
680.886	17.47
681.073	17.56
681.259	17.46
681.445	16.72
681.631	16.42
681.817	16.24
682.003	16.01
682.189	15.93
682.375	15.79
682.561	16.14
682.747	15.85
682.933	15.93
683.119	15.44
683.305	15.61
683.491	15.85
683.677	16.32
683.863	16.82
684.049	16.97
684.235	16.96
684.42	16.58
684.606	15.72
684.792	15.9
684.978	15.69
685.164	15.93
685.349	15.82
685.535	15.81
685.721	15.33
685.907	15.21
686.092	15.32
686.278	15.16
686.464	14.97
686.649	15.82
686.835	15.88
687.021	16.33
687.206	16.48
687.392	16.42
687.577	17.19
687.763	17.39
687.948	17.65
688.134	17.48
688.319	17.41
688.505	17.65
688.69	17.46
688.876	17.86
689.061	17.59
689.247	17.3
689.432	17.24
689.618	16.98
689.803	17.35
689.988	17.47
690.174	17.33
690.359	17.51
690.544	17.58
690.73	17.93
690.915	17.81
691.1	17.57
691.285	17.71
691.471	17.88
691.656	17.43
691.841	17.11
692.026	16.78
692.211	17.2
692.396	16.94
692.582	17.13
692.767	16.52
692.952	16.07
693.137	16.34
693.322	16.5
693.507	16.81
693.692	16.73
693.877	16.67
694.062	16.46
694.247	16.28
694.432	16.63
694.617	16.78
694.802	16.79
694.987	17.12
695.172	17.08
695.357	16.89
695.541	16.76
695.726	17.3
695.911	17.34
696.096	17.49
696.281	17.27
696.466	16.89
696.65	17.1
696.835	17.26
697.02	16.95
697.204	17.38
697.389	16.76
697.574	16.42
697.759	16.63
697.943	16.91
698.128	16.93
698.312	17.14
698.497	17.34
698.682	17.13
698.866	17.01
699.051	17.08
699.235	16.82
699.42	16.82
699.604	17.27
699.789	16.82
699.973	17.13
700.158	16.96
700.342	16.51
700.527	16.65
700.711	16.53
700.895	16.39
701.08	16.79
701.264	17.11
701.448	17.85
701.633	17.42
701.817	17.95
702.001	17.31
702.186	17.63
702.37	18.5
702.554	18.26
702.738	18.4
702.923	18.37
703.107	18.19
703.291	17.8
703.475	17.62
703.659	17.61
703.843	17.51
704.027	17.59
704.212	17.76
704.396	17.77
704.58	18.1
704.764	17.73
704.948	18.82
705.132	18
705.316	18.26
705.5	18.61
705.684	19.09
705.868	19.21
706.052	19.5
706.235	19.62
706.419	19.27
706.603	19.31
706.787	19.88
706.971	19.24
707.155	19.5
707.339	19.12
707.522	19.04
707.706	18.79
707.89	18.51
708.074	18.99
708.257	18.63
708.441	18.85
708.625	17.47
708.808	17.29
708.992	17.85
709.176	17.94
709.359	18.53
709.543	18.11
709.727	18.18
709.91	18.08
710.094	18.02
710.277	18.67
710.461	17.9
710.644	18.9
710.828	19.08
711.011	18.71
711.195	19.04
711.378	19.3
711.562	20.03
711.745	20.23
711.928	19.77
712.112	19.64
712.295	19.2
712.478	19.79
712.662	19.79
712.845	19.25
713.028	19.19
713.212	18.54
713.395	18.31
713.578	17.65
713.761	17.42
713.945	19.09
714.128	18.27
714.311	18.23
714.494	18.05
714.677	18.12
714.86	18.19
715.043	18.48
715.227	19.26
715.41	18.74
715.593	19.43
715.776	19.69
715.959	18.89
716.142	18.75
716.325	18.92
716.508	18.58
716.691	18.32
716.874	18.86
717.057	18.76
717.239	18.33
717.422	18.38
717.605	17.9
717.788	17.22
717.971	17.71
718.154	17.83
718.337	17.67
718.519	17.55
718.702	17.77
718.885	17.54
719.068	17.05
719.25	17.78
719.433	18.51
719.616	18.82
719.798	19.9
719.981	18.79
720.164	19.27
720.346	19.54
720.529	20.72
720.712	21.23
720.894	21.66
721.077	22.32
721.259	21.75
721.442	21.07
721.624	20.14
721.807	19.72
721.989	20.22
722.172	19.82
722.354	20.37
722.537	19.71
722.719	19.68
722.901	19.72
723.084	19.39
723.266	18.99
723.448	18.96
723.631	19.89
723.813	18.95
723.995	17.77
724.178	18.8
724.36	18.8
724.542	19.84
724.724	19.16
724.907	18.03
725.089	19.31
725.271	19.97
725.453	19.93
725.635	19.62
725.817	20.32
725.999	22.21
726.181	21.58
726.364	20.12
726.546	18.59
726.728	18.28
726.91	18.97
727.092	18.27
727.274	17.96
727.456	17.89
727.638	19.2
727.819	18.87
728.001	17.46
728.183	17.23
728.365	17.81
728.547	18.35
728.729	19.57
728.911	19.63
729.093	19.04
729.274	20.04
729.456	20.17
729.638	18.75
729.82	19.68
730.001	20.63
730.183	21.45
730.365	22.3
730.546	22.53
730.728	22.11
730.91	22.31
731.091	22.1
731.273	21.59
731.455	21.79
731.636	22.75
731.818	22.38
731.999	22.46
732.181	22.54
732.362	21.14
732.544	21.3
732.725	21.05
732.907	20.95
733.088	21.97
733.27	22
733.451	21.75
733.633	20.5
733.814	20.36
733.995	20.28
734.177	19.17
734.358	20.19
734.539	20.31
734.721	20.64
734.902	20.1
735.083	19.5
735.264	19.44
735.446	19.34
735.627	20.11
735.808	20.29
735.989	20.08
736.17	20.66
736.351	20.2
736.533	20.88
736.714	20.64
736.895	21.17
737.076	21.02
737.257	21.52
737.438	21.98
737.619	21.96
737.8	21.97
737.981	22.7
738.162	22.76
738.343	22.06
738.524	21.5
738.705	21.92
738.886	20.72
739.067	20.54
739.247	19.63
739.428	18.99
739.609	18.37
739.79	17.46
739.971	16.61
740.151	15.97
740.332	16.62
740.513	16.3
740.694	15.37
740.874	16.78
741.055	16.97
741.236	18.65
741.417	19.72
741.597	19.76
741.778	20.65
741.958	21.66
742.139	21.29
742.32	20.09
742.5	20.09
742.681	21.15
742.861	20.5
743.042	20.17
743.222	17.72
743.403	17.05
743.583	18.3
743.764	18.87
743.944	17.23
744.124	19
744.305	19.53
744.485	19.29
744.666	18.68
744.846	19.69
745.026	20.49
745.207	21.5
745.387	21.43
745.567	20.9
745.747	19.72
745.928	18.71
746.108	19.4
746.288	20.21
746.468	20.79
746.648	20.33
746.829	21.46
747.009	21.33
747.189	21.19
747.369	21.91
747.549	21.61
747.729	21.57
747.909	23.55
748.089	22
748.269	21.99
748.449	22.1
748.629	22.89
748.809	21.34
748.989	21.68
749.169	21.35
749.349	21.24
749.529	22.61
749.709	22.7
749.889	21.3
750.068	21.51
750.248	21.81
750.428	21.75
750.608	20.91
750.788	21.92
750.967	20.74
751.147	20.74
751.327	20.71
751.507	20.68
751.686	20.91
751.866	21.28
752.046	21.72
752.225	21.58
752.405	20.7
752.585	21.43
752.764	20.23
752.944	20.63
753.123	21.34
753.303	21.14
753.482	20.57
753.662	20.82
753.841	21.96
754.021	22.75
754.2	23.7
754.38	23.95
754.559	24.59
754.739	24.82
754.918	24.63
755.097	23.75
755.277	23.98
755.456	23.39
755.635	23.56
755.815	22.76
755.994	21.01
756.173	20.11
756.352	20.46
756.532	19.41
756.711	19.83
756.89	21.58
757.069	22.23
757.248	21.63
757.427	23.21
757.607	23.72
757.786	23.09
757.965	23.14
758.144	23.27
758.323	22.97
758.502	22.68
758.681	22.17
758.86	21.95
759.039	22.65
759.218	23.06
759.397	21.06
759.576	19.44
759.755	18.56
759.934	19.77
760.113	19.26
760.291	18.94
760.47	20.78
760.649	22.88
760.828	21.88
761.007	21.26
761.186	21.78
761.364	23.1
761.543	24.12
761.722	24.72
761.901	24.41
762.079	24.8
762.258	24.17
762.437	22.61
762.615	20.8
762.794	21.8
762.972	22.52
763.151	21.9
763.33	21.81
763.508	20.98
763.687	21.63
763.865	21.11
764.044	20.06
764.222	20.73
764.401	20.63
764.579	20.92
764.758	19.53
764.936	19
765.114	19.4
765.293	17.62
765.471	17.64
765.65	16.99
765.828	17.55
766.006	18.77
766.184	18.58
766.363	18.44
766.541	18.85
766.719	18.91
766.898	19.05
767.076	19.77
767.254	21.54
767.432	21.89
767.61	22.27
767.788	21.94
767.967	21.39
768.145	20.79
768.323	21.66
768.501	19.81
768.679	19.79
768.857	20.09
769.035	18.69
769.213	19.37
769.391	19.23
769.569	18.92
769.747	20.31
769.925	19.41
770.103	19.39
770.281	19.45
770.459	21.16
770.636	22.4
770.814	21.84
770.992	22.75
771.17	21.87
771.348	21.12
771.525	20.26
771.703	17.92
771.881	19.66
772.059	19.77
772.236	18.71
772.414	18.45
772.592	19.54
772.769	20.44
772.947	20.16
773.125	19.91
773.302	22.9
773.48	25.33
773.657	26.54
773.835	28.66
774.013	28.69
774.19	31.28
774.368	31.2
774.545	31.09
774.723	29.28
774.9	31.21
775.077	32.03
775.255	32.74
775.432	33.19
775.61	33.66
775.787	29.64
775.964	30.69
776.142	28.29
776.319	29.82
776.496	29.67
776.674	30.33
776.851	26.56
777.028	27.74
777.205	27.45
777.382	28.18
777.56	30.02
777.737	31.63
777.914	30.53
778.091	33.07
778.268	29.74
778.445	29.23
778.622	30.37
778.8	31.97
778.977	31.14
779.154	30.4
779.331	27.51
779.508	26.39
779.685	27.9
779.862	30.44
780.038	27.46
780.215	29.78
780.392	28.11
780.569	26.9
780.746	25.87
780.923	24.56
781.1	23.92
781.277	25.41
781.453	24.5
781.63	24.3
781.807	21.76
781.984	22.13
782.16	22.42
782.337	24.76
782.514	27.26
782.691	28.01
782.867	29.28
783.044	30.92
783.221	30.92
783.397	32.27
783.574	32.58
783.75	33.05
783.927	34.43
784.103	34.59
784.28	33.53
784.456	29.94
784.633	30.94
784.809	28.62
784.986	26.44
785.162	22.69
785.339	19.3
785.515	17.28
785.692	17.57
785.868	18.98
786.044	19.18
786.221	22.03
786.397	24.79
786.573	25.4
786.749	26.54
786.926	24.42
787.102	30.68
787.278	30.85
787.454	31.17
787.631	31.54
787.807	28.26
787.983	25.52
788.159	24.33
788.335	22.55
788.511	22.03
788.687	22.63
788.863	23.72
789.039	20.79
789.216	21.69
789.392	19.24
789.568	18.58
789.744	20.34
789.919	20.57
790.095	18.57
790.271	22.52
790.447	22.24
790.623	20.06
790.799	19.47
790.975	19.98
791.151	20.32
791.327	22.99
791.502	24.4
791.678	27.25
791.854	28.86
792.03	28.94
792.205	25.09
792.381	23.08
792.557	26.49
792.733	29.59
792.908	29.3
793.084	27.35
793.259	25.33
793.435	23.79
793.611	19.32
793.786	19.66
793.962	17.86
794.137	17.48
794.313	17.55
794.488	15.85
794.664	12.36
794.839	13.22
795.015	14.59
795.19	15.31
795.366	18.36
795.541	18.81
795.716	18.79
795.892	20.84
796.067	24.81
796.242	27.56
796.418	28.97
796.593	32.57
796.768	33.11
796.944	32.94
797.119	33.31
797.294	28.92
797.469	31.7
797.644	32.1
797.82	32.74
797.995	28.32
798.17	28.99
798.345	29.55
798.52	30.31
798.695	27.96
798.87	29.21
799.045	27.72
799.22	32.15
799.395	33.67
799.57	32.8
799.745	31.27
799.92	31.61
800.095	30.12
800.27	30.23
800.445	29.01
800.62	31.85
800.795	29.21
800.97	30.51
801.145	27.64
801.319	25.67
801.494	29.96
801.669	32.86
801.844	35.62
802.018	36.6
802.193	35.91
802.368	32.25
802.543	30.03
802.717	36.37
802.892	36.88
803.067	38.55
803.241	37.83
803.416	33.47
803.59	33.44
803.765	29.07
803.94	24.79
804.114	24.17
804.289	28.19
804.463	33.07
804.638	30.48
804.812	31.23
804.986	29.27
805.161	29.43
805.335	30.95
805.51	31.62
805.684	31.65
805.858	34.9
806.033	32.64
806.207	28.22
806.381	25.91
806.556	25.28
806.73	24.72
806.904	22.58
807.078	24.7
807.253	20.25
807.427	18.06
807.601	17.63
807.775	15.82
807.949	19.27
808.123	23.74
808.298	21.8
808.472	22.19
808.646	23.61
808.82	25.49
808.994	24.88
809.168	28.33
809.342	28.21
809.516	30.18
809.69	28.18
809.864	27.85
810.038	25.72
810.212	23.46
810.385	22.16
810.559	22.44
810.733	24.75
810.907	23.51
811.081	26.19
811.255	27.9
811.428	31.4
811.602	35.45
811.776	37.51
811.95	37.1
812.123	40.39
812.297	40.52
812.471	38.59
812.644	36.35
812.818	36.56
812.992	32.86
813.165	35.72
813.339	34.42
813.512	29.29
813.686	30.4
813.86	31.35
814.033	31.18
814.207	30.94
814.38	30.11
814.554	32.81
814.727	36.93
814.9	39.55
815.074	37.28
815.247	37.31
815.421	43.64
815.594	38.92
815.767	39.49
815.941	43.69
816.114	45.9
816.287	46.91
816.46	49.13
816.634	42.87
816.807	41
816.98	38.46
817.153	39.18
817.327	35.19
817.5	40.47
817.673	42.55
817.846	36.71
818.019	37.08
818.192	36.01
818.365	32.98
818.538	35.8
818.711	35.4
818.884	35.37
819.057	32.68
819.23	33.48
819.403	32.08
819.576	28.8
819.749	29.55
819.922	27.18
820.095	27.71
820.268	29.49
820.441	28.81
820.614	28.39
820.786	29.58
820.959	27.27
821.132	25.35
821.305	24.16
821.477	23.37
821.65	22.78
821.823	22.39
821.996	22.21
822.168	20.76
822.341	20.57
822.514	20.3
822.686	19.67
822.859	20.46
823.031	20.85
823.204	19.89
823.376	19.96
823.549	19.03
823.722	19.18
823.894	18.98
824.067	19.69
824.239	19.02
824.411	19.35
824.584	19.84
824.756	19.59
824.929	19
825.101	21.02
825.273	21.25
825.446	22.18
825.618	22.67
825.79	21.81
825.963	20.69
826.135	21.65
826.307	22.09
826.479	21.4
826.652	20.91
826.824	22.2
826.996	20.64
827.168	20.66
827.34	21.99
827.512	21.42
827.684	22.95
827.856	24.19
828.029	24.06
828.201	23.51
828.373	22.79
828.545	23.88
828.717	23.5
828.889	25.15
829.061	24.76
829.232	24.2
829.404	24.14
829.576	23.9
829.748	21.62
829.92	22.82
830.092	23.84
830.264	24.9
830.436	24.67
830.607	25.9
830.779	26.69
830.951	29.2
831.123	30.26
831.294	31.54
831.466	31.29
831.638	34.09
831.809	32.09
831.981	32.9
832.153	36.18
832.324	36.14
832.496	34.53
832.667	33.94
832.839	34.55
833.011	34.63
833.182	30.86
833.354	29.74
833.525	27.54
833.697	27.38
833.868	27.7
834.039	27.72
834.211	27.2
834.382	26.18
834.554	26.25
834.725	24.13
834.896	22.19
835.068	25.48
835.239	24.77
835.41	27.35
835.581	28.55
835.753	26.56
835.924	24
836.095	24.26
836.266	25.36
836.438	24.06
836.609	24.5
836.78	27.12
836.951	25.7
837.122	28.46
837.293	28.35
837.464	27.88
837.635	29.14
837.806	30.61
837.977	30.8
838.148	35.07
838.319	37.68
838.49	37.94
838.661	40.89
838.832	42.86
839.003	44.8
839.174	46.66
839.345	44.48
839.516	45.21
839.687	48.41
839.857	46.22
840.028	34.66
840.199	35.33
840.37	37.55
840.54	29.8
840.711	37.11
840.882	32.96
841.053	27.64
841.223	32.86
841.394	33.24
841.564	32.83
841.735	36.84
841.906	42.35
842.076	40.04
842.247	41.82
842.417	45.48
842.588	37.23
842.758	39.59
842.929	47.11
843.099	50.03
843.27	48.33
843.44	53.24
843.611	49.87
843.781	50.26
843.951	55.14
844.122	60.92
844.292	63.04
844.462	69.61
844.633	63.05
844.803	53.49
844.973	41.55
845.144	45.41
845.314	35.58
845.484	43.37
845.654	39.79
845.824	29.63
845.995	16.66
846.165	15.83
846.335	11.24
846.505	30.66
846.675	43.8
846.845	57.16
847.015	73.44
847.185	73.89
847.355	75.24
847.525	78.3
847.695	76.92
847.865	85.56
848.035	83.92
848.205	81.25
848.375	71.47
848.545	72.34
848.715	66.67
848.884	56.18
849.054	56.53
849.224	54.99
849.394	76.62
849.564	79.56
849.733	64.63
849.903	62.77
850.073	83.06
850.243	98.79
850.412	90.33
850.582	114.32
850.752	111.92
850.921	133.96
851.091	97.78
851.26	81.38
851.43	95.86
851.599	103.55
851.769	115.58
851.939	102.06
852.108	98.35
852.278	101.65
852.447	77
852.616	85.24
852.786	86.44
852.955	92.29
853.125	82.69
853.294	77.98
853.463	85.68
853.633	83.18
853.802	78.76
853.971	88.3
854.141	78.52
854.31	87.37
854.479	91.87
854.648	87.18
854.818	83.23
854.987	91.33
855.156	90.38
855.325	86.63
855.494	83.03
855.663	82.27
855.832	72.51
856.001	82.71
856.171	80.34
856.34	67.51
856.509	70.75
856.678	72.34
856.847	57.18
857.016	57.04
857.185	44.22
857.353	36.18
857.522	33.05
857.691	29.56
857.86	32.43
858.029	22.33
858.198	32.96
858.367	31.72
858.535	25.05
858.704	47.28
858.873	52.77
859.042	58.73
859.21	83.61
859.379	89.83
859.548	92.18
859.717	78.38
859.885	84.53
860.054	80.96
860.222	78.32
860.391	81.85
860.56	74.09
860.728	60.7
860.897	77.47
861.065	66
861.234	85.56
861.402	78.8
861.571	80.8
861.739	86.15
861.908	74.64
862.076	69.23
862.244	71.63
862.413	77.85
862.581	88.76
862.749	87.73
862.918	81.24
863.086	75.51
863.254	80.89
863.423	82.72
863.591	73.55
863.759	77.95
863.927	84.7
864.096	85.33
864.264	69.02
864.432	57.37
864.6	49.97
864.768	54.64
864.936	59.56
865.104	59.65
865.272	54.48
865.44	65.92
865.608	78.46
865.776	80.36
865.944	88.32
866.112	99.65
866.28	108.05
866.448	111.32
866.616	139.67
866.784	138.18
866.952	103.81
867.12	102.54
867.288	88.23
867.455	85.73
867.623	68.11
867.791	50.42
867.959	57.58
868.127	47.3
868.294	52.94
868.462	43.29
868.63	43.78
868.797	63.12
868.965	80.02
869.133	83.27
869.3	81.68
869.468	89.31
869.636	94.91
869.803	95.38
869.971	106.24
870.138	140.46
870.306	147.38
870.473	131.02
870.641	102.95
870.808	99.88
870.975	99.71
871.143	96.9
871.31	103.2
871.478	102.18
871.645	105.72
871.812	109.79
871.98	81.97
872.147	76.97
872.314	69.25
872.482	70.18
872.649	47.79
872.816	43
872.983	43.92
873.15	36.48
873.318	33.91
873.485	34.13
873.652	41.85
873.819	52.61
873.986	52.84
874.153	69.27
874.32	77.98
874.487	96.46
874.654	100.1
874.821	95
874.988	98.93
875.155	103.3
875.322	77.5
875.489	63.4
875.656	49.08
875.823	41.91
875.99	29.25
876.157	9.58
876.324	15.72
876.49	0.35
876.657	-2.92
876.824	2.65
876.991	2.26
877.157	19.28
877.324	24.06
877.491	46.61
877.658	46.24
877.824	58.36
877.991	62.05
878.157	73.44
878.324	90.48
878.491	99.15
878.657	85.85
878.824	86.67
878.99	88.21
879.157	89.83
879.323	70.89
879.49	85.07
879.656	81.11
879.823	77.94
879.989	69.2
880.156	74.53
880.322	61.89
880.488	62.74
880.655	63.35
880.821	69.29
880.987	70.27
881.154	64.54
881.32	49.68
881.486	34.12
881.652	38.69
881.819	38.04
881.985	32.48
882.151	33.51
882.317	33.41
882.483	37.55
882.649	33.94
882.816	31.21
882.982	29.45
883.148	31.99
883.314	35.02
883.48	34.11
883.646	33.12
883.812	36.4
883.978	35.63
884.144	34.18
884.31	33.4
884.476	34.06
884.642	32.16
884.807	38.07
884.973	36.56
885.139	35.75
885.305	32.65
885.471	29.98
885.637	28.47
885.802	30.91
885.968	33.23
886.134	33.18
886.3	29.12
886.465	38.67
886.631	36.57
886.797	38.36
886.962	44.87
887.128	52.54
887.293	58.79
887.459	51.76
887.625	46.92
887.79	44.34
887.956	38.57
888.121	45.15
888.287	34.61
888.452	25.34
888.618	20.39
888.783	11.9
