Data from 2938047_Reflection_1.txt Node
Date: Sun Jul 12 14:23:23 EDT 2015
User: robert
Spectrometer: USB4E03001
Autoset integration time: false
Trigger mode: 4
Integration Time (sec): 1.000000E-1
Scans to average: 10
Electric dark correction enabled: true
Nonlinearity correction enabled: false
Boxcar width: 5
Stray light correction enabled: false
XAxis mode: Wavelengths
Stop averaging: false
Number of Pixels in Spectrum: 3648
>>>>>Begin Spectral Data<<<<<
177.566	-56.23
177.785	-48.87
178.005	-50.8
178.225	-4.67
178.445	31.83
178.665	44.22
178.885	-1.56
179.105	-113.33
179.324	73.41
179.544	105.86
179.764	236.69
179.984	258.76
180.204	226.06
180.423	145.72
180.643	122.99
180.863	98.51
181.083	100.31
181.302	88.53
181.522	83.75
181.742	92.13
181.961	76.7
182.181	72.47
182.401	96.43
182.621	88.66
182.84	71.07
183.06	80.25
183.279	71.43
183.499	64.49
183.719	57.67
183.938	82.65
184.158	100.64
184.377	115.39
184.597	119.9
184.816	95.87
185.036	94
185.256	121.68
185.475	55.78
185.695	64.49
185.914	91.42
186.134	124.31
186.353	102.75
186.572	79.38
186.792	62.31
187.011	48.41
187.231	44.28
187.45	52.77
187.67	64.64
187.889	69.47
188.108	57.34
188.328	32.28
188.547	-5.64
188.766	-65.59
188.986	-65.04
189.205	-107.57
189.424	-67.55
189.644	-56.49
189.863	-87.2
190.082	-60.92
190.302	-28.73
190.521	-18.37
190.74	-6.52
190.959	15.57
191.178	56.23
191.398	67.85
191.617	65.21
191.836	86.03
192.055	39.64
192.274	50.56
192.494	209.38
192.713	67.65
192.932	82.33
193.151	67.1
193.37	57.4
193.589	29.9
193.808	57.94
194.027	81.23
194.246	78.82
194.465	94.61
194.685	102.36
194.904	93.68
195.123	86.75
195.342	92.49
195.561	110.15
195.78	155.87
195.999	131.31
196.218	77.02
196.436	76.24
196.655	77.62
196.874	83.5
197.093	73.01
197.312	86.39
197.531	83.88
197.75	63.14
197.969	83.82
198.188	86.58
198.407	89.91
198.625	104.88
198.844	95.96
199.063	71.11
199.282	58.43
199.501	47.98
199.719	29.08
199.938	53.82
200.157	69.15
200.376	38.23
200.594	28.37
200.813	33.39
201.032	36.01
201.251	52.26
201.469	63.59
201.688	68.33
201.907	76.97
202.125	74.07
202.344	66.56
202.563	57.65
202.781	82.55
203	74.43
203.218	86.45
203.437	103.94
203.656	107.38
203.874	129.74
204.093	94.8
204.311	104.45
204.53	101.65
204.748	122.08
204.967	120.58
205.185	101.89
205.404	99.62
205.622	91.54
205.841	68.75
206.059	42.03
206.278	27.69
206.496	53.5
206.715	46.5
206.933	76.6
207.151	72.68
207.37	93.17
207.588	79.34
207.806	92.4
208.025	87.77
208.243	78.62
208.461	101.17
208.68	160.92
208.898	177.22
209.116	151.88
209.335	126.95
209.553	88.02
209.771	51.82
209.989	63.33
210.208	65.46
210.426	84.75
210.644	86.09
210.862	86.71
211.081	72.49
211.299	71.42
211.517	63.24
211.735	56.38
211.953	63.84
212.171	63.76
212.39	62.16
212.608	61.64
212.826	51.62
213.044	46.69
213.262	50.3
213.48	49.57
213.698	51.52
213.916	61.04
214.134	71.34
214.352	73.83
214.57	77.69
214.788	76.08
215.006	67.82
215.224	78.26
215.442	106.04
215.66	91.36
215.878	92.76
216.096	89.22
216.314	89.92
216.532	88.15
216.75	77.2
216.968	68.42
217.185	69.44
217.403	72.44
217.621	65.97
217.839	62
218.057	65.61
218.275	60.81
218.492	54.51
218.71	44.93
218.928	43.34
219.146	44.14
219.363	52.17
219.581	60.08
219.799	56.44
220.017	50.94
220.234	47.12
220.452	39.74
220.67	45.81
220.887	49.01
221.105	47.12
221.323	54.66
221.54	53.34
221.758	46.89
221.976	46.46
222.193	45.73
222.411	60.3
222.629	65.06
222.846	60.7
223.064	58.6
223.281	53.05
223.499	75.58
223.716	59.37
223.934	43.62
224.151	48.33
224.369	46.92
224.586	56.82
224.804	57.44
225.021	49.14
225.239	72.21
225.456	70.14
225.674	58.53
225.891	53.66
226.108	50.26
226.326	48.95
226.543	45.28
226.76	40.27
226.978	41.2
227.195	36.78
227.413	36.15
227.63	28.93
227.847	22.21
228.064	26.15
228.282	21.99
228.499	20.86
228.716	21.45
228.934	24.7
229.151	22.51
229.368	21.64
229.585	21.77
229.802	22.95
230.02	22.16
230.237	25.04
230.454	23.4
230.671	25.79
230.888	28.77
231.105	29.93
231.323	26.74
231.54	29.34
231.757	30.44
231.974	30.62
232.191	28.03
232.408	28.84
232.625	29.84
232.842	31.56
233.059	32.98
233.276	29.09
233.493	26.19
233.71	21.95
233.927	16.13
234.144	13.16
234.361	14.85
234.578	16.96
234.795	14.42
235.012	15.18
235.229	10.34
235.446	13.23
235.663	17.91
235.879	20.77
236.096	25.27
236.313	27.67
236.53	22.57
236.747	24.48
236.964	16.74
237.181	21.03
237.397	19.1
237.614	26.79
237.831	18.24
238.048	13.63
238.264	16.13
238.481	13.04
238.698	14.39
238.915	16.02
239.131	10.07
239.348	16.45
239.565	16.01
239.781	16.39
239.998	8
240.215	13.06
240.431	14.78
240.648	10.22
240.865	10.05
241.081	13.69
241.298	15.1
241.514	17.83
241.731	18.35
241.947	15.7
242.164	14.76
242.38	16.75
242.597	16.31
242.814	15.95
243.03	17.87
243.246	18.9
243.463	15.56
243.679	16.84
243.896	16.22
244.112	16.87
244.329	18.43
244.545	20.16
244.762	21.73
244.978	18.97
245.194	19.27
245.411	19.19
245.627	19.08
245.843	20.65
246.06	19.32
246.276	17.15
246.492	15.58
246.709	15.69
246.925	14.9
247.141	14.47
247.357	14.5
247.574	14.72
247.79	14.67
248.006	14.88
248.222	14.56
248.439	15.07
248.655	15.84
248.871	15.6
249.087	15.77
249.303	16.54
249.519	17.25
249.736	19.03
249.952	18.26
250.168	19.88
250.384	18.98
250.6	18.37
250.816	17.38
251.032	17.29
251.248	19.13
251.464	19.26
251.68	17.54
251.896	15.91
252.112	15.87
252.328	15.55
252.544	11.74
252.76	11.4
252.976	12.17
253.192	12.85
253.408	12.76
253.624	11.37
253.84	10.21
254.056	11.49
254.272	13.45
254.487	14.78
254.703	14.94
254.919	16.93
255.135	15.16
255.351	15.48
255.567	17.6
255.782	18.93
255.998	17.64
256.214	18.1
256.43	18.4
256.646	15.11
256.861	13.44
257.077	12.96
257.293	14.47
257.508	14.76
257.724	14.27
257.94	11.06
258.155	10.19
258.371	12.33
258.587	12.49
258.802	11.75
259.018	11.63
259.234	11.31
259.449	11.94
259.665	11.47
259.88	12.3
260.096	12.59
260.312	12.63
260.527	12.23
260.743	11.51
260.958	10.94
261.174	10.56
261.389	11.15
261.605	11.15
261.82	11.14
262.036	12.47
262.251	13.46
262.466	12.39
262.682	12.23
262.897	11.63
263.113	12.23
263.328	12.85
263.543	13.71
263.759	13.82
263.974	13.94
264.189	13.37
264.405	9.83
264.62	7.06
264.835	9.36
265.051	9.54
265.266	10.1
265.481	10.77
265.696	11.02
265.912	10.74
266.127	11.79
266.342	11.47
266.557	11.35
266.773	14.18
266.988	12.91
267.203	12.5
267.418	13.8
267.633	13.81
267.848	13.45
268.064	15.6
268.279	16.13
268.494	14.71
268.709	14.76
268.924	16.14
269.139	14.06
269.354	15.66
269.569	15.37
269.784	13.77
269.999	14.57
270.214	13.78
270.429	12.67
270.644	11.64
270.859	11.84
271.074	11.17
271.289	11.72
271.504	12.24
271.719	11.9
271.934	11.09
272.149	11.83
272.363	12.02
272.578	12.18
272.793	12.95
273.008	13.63
273.223	12.97
273.438	13.13
273.653	11.16
273.867	11.06
274.082	10.98
274.297	12.38
274.512	13.29
274.726	11.56
274.941	11.87
275.156	10.32
275.371	9.26
275.585	10.06
275.8	10.19
276.015	11.51
276.229	11.11
276.444	10.15
276.659	9.49
276.873	8
277.088	8.65
277.302	9.34
277.517	7.68
277.732	7.3
277.946	7.66
278.161	8.89
278.375	7.31
278.59	9.34
278.804	11.48
279.019	11.97
279.233	12.5
279.448	12.14
279.662	10.1
279.877	9.8
280.091	12.01
280.306	10.81
280.52	8.98
280.735	9.81
280.949	8.35
281.163	7.67
281.378	7.32
281.592	7.88
281.806	7.94
282.021	7.66
282.235	9.98
282.449	10.94
282.664	11.82
282.878	13.05
283.092	13.36
283.307	13.54
283.521	14.02
283.735	13.98
283.949	13.06
284.164	13.93
284.378	15.11
284.592	14.16
284.806	12.28
285.02	11.82
285.234	11.1
285.449	11.43
285.663	12.3
285.877	12.42
286.091	13.04
286.305	13.18
286.519	12.96
286.733	12.08
286.947	12
287.161	13.31
287.375	13.7
287.589	13.84
287.803	13.28
288.017	13.24
288.231	13.55
288.445	12.16
288.659	12.48
288.873	11.68
289.087	13.38
289.301	14.61
289.515	13.43
289.729	11.8
289.943	13.15
290.157	12.91
290.371	11.54
290.584	10.32
290.798	10.94
291.012	11.38
291.226	12.91
291.44	13.27
291.654	13.21
291.867	13.24
292.081	14.02
292.295	14.55
292.509	15.1
292.722	16.13
292.936	17.8
293.15	16.42
293.364	15.29
293.577	15.13
293.791	14.33
294.005	12.8
294.218	12.63
294.432	11.29
294.645	9.54
294.859	8.66
295.073	8.45
295.286	7.23
295.5	9.13
295.713	9.31
295.927	9.05
296.14	8.38
296.354	9.11
296.568	9.17
296.781	10.92
296.994	11.43
297.208	11.84
297.421	12.06
297.635	11.89
297.848	12.21
298.062	11.98
298.275	11.48
298.489	11.04
298.702	11.05
298.915	11.18
299.129	10.91
299.342	11.32
299.555	11.25
299.769	10.8
299.982	11.56
300.195	10.89
300.409	13.01
300.622	12.55
300.835	13.12
301.048	13.91
301.262	15.19
301.475	16.52
301.688	15.5
301.901	16.33
302.115	15.08
302.328	15.7
302.541	14.71
302.754	11.97
302.967	13.56
303.18	14.78
303.393	13.43
303.607	12.39
303.82	11.94
304.033	13.96
304.246	13.95
304.459	16.31
304.672	15.85
304.885	16.84
305.098	19.32
305.311	18.93
305.524	18.29
305.737	18.78
305.95	18.14
306.163	18.89
306.376	17.42
306.589	18.31
306.802	18.21
307.015	17.49
307.228	16.47
307.44	14.23
307.653	13.6
307.866	14.15
308.079	16.99
308.292	17.83
308.505	15.58
308.718	15.63
308.93	15.1
309.143	14.02
309.356	15.8
309.569	17.53
309.781	18.34
309.994	19.88
310.207	18.86
310.42	16.11
310.632	15.88
310.845	16.18
311.058	16.03
311.27	14.69
311.483	13.71
311.696	12.46
311.908	12.04
312.121	11.41
312.333	10.22
312.546	10.61
312.759	10.31
312.971	10.14
313.184	10.84
313.396	10.99
313.609	12.03
313.821	12.43
314.034	11.27
314.246	9.54
314.459	10.64
314.671	11.29
314.884	10.69
315.096	11.68
315.309	12.62
315.521	10.69
315.733	12.16
315.946	12.65
316.158	14.25
316.371	15.51
316.583	16.43
316.795	16.3
317.008	16.5
317.22	16.73
317.432	15.92
317.644	16.64
317.857	18.47
318.069	16.52
318.281	14.86
318.494	14.36
318.706	15.3
318.918	15.42
319.13	15.7
319.342	15.68
319.555	17.5
319.767	17.63
319.979	15.76
320.191	15.82
320.403	15.5
320.615	17.34
320.827	17.92
321.039	16.33
321.252	16.84
321.464	14.67
321.676	14.79
321.888	13.42
322.1	14.89
322.312	16.3
322.524	16.43
322.736	18.09
322.948	17.14
323.16	15.52
323.372	16.5
323.584	15.76
323.796	18.39
324.007	18.43
324.219	19.23
324.431	17.14
324.643	17.52
324.855	16.78
325.067	17.46
325.279	17.45
325.491	17.63
325.702	18.42
325.914	18.68
326.126	17.2
326.338	16.53
326.55	15.08
326.761	15.39
326.973	15.68
327.185	17.09
327.396	15.89
327.608	16.11
327.82	17.4
328.032	16.28
328.243	17.56
328.455	16.67
328.666	15.95
328.878	16.89
329.09	17.24
329.301	14.28
329.513	13.34
329.725	12.5
329.936	13.68
330.148	13.03
330.359	13.68
330.571	11.78
330.782	11.76
330.994	12.96
331.205	13.37
331.417	15.65
331.628	15.6
331.84	14.31
332.051	14.24
332.262	13.12
332.474	13.76
332.685	13.66
332.897	13.4
333.108	13.97
333.319	13.91
333.531	14.03
333.742	13.33
333.953	14.6
334.165	14.42
334.376	14.68
334.587	15.17
334.799	14.04
335.01	13.2
335.221	13.99
335.432	13.94
335.644	13
335.855	12.05
336.066	11.69
336.277	12.17
336.488	13.18
336.7	14.14
336.911	13.05
337.122	13.14
337.333	14.03
337.544	13.73
337.755	14.67
337.966	15.36
338.177	15.9
338.388	15.04
338.599	14.1
338.811	13.9
339.022	11.74
339.233	12.9
339.444	13.71
339.655	11.36
339.866	11.64
340.076	11.55
340.287	12.04
340.498	10.86
340.709	11.46
340.92	12.05
341.131	11.99
341.342	12.61
341.553	12.86
341.764	12.15
341.975	13.31
342.185	12.62
342.396	12.33
342.607	11.5
342.818	12.24
343.029	13.05
343.239	13.15
343.45	12.46
343.661	12.67
343.872	11.73
344.082	11.92
344.293	11.41
344.504	11.94
344.714	11.61
344.925	11.84
345.136	11.75
345.346	9.84
345.557	9.31
345.768	10.28
345.978	10.31
346.189	10.92
346.399	10.93
346.61	11.98
346.821	12.02
347.031	11.72
347.242	11.23
347.452	11.68
347.663	12.29
347.873	13.52
348.084	14.15
348.294	14.86
348.504	14.19
348.715	14.15
348.925	14.06
349.136	13.14
349.346	12.63
349.557	11.01
349.767	10.25
349.977	10.75
350.188	8.95
350.398	7.97
350.608	6.76
350.819	5.64
351.029	5.31
351.239	5.38
351.449	6.83
351.66	7.72
351.87	9.09
352.08	9.94
352.29	11.09
352.501	12.32
352.711	12.23
352.921	13.14
353.131	12.92
353.341	12.85
353.552	13.75
353.762	14.66
353.972	14.29
354.182	14.18
354.392	13.81
354.602	13.44
354.812	12.35
355.022	12.98
355.232	11.68
355.442	12.8
355.652	12.82
355.862	11.62
356.072	10.21
356.282	10.8
356.492	11.92
356.702	12.02
356.912	11.6
357.122	12.27
357.332	11.9
357.542	12.47
357.752	12.4
357.962	12.1
358.171	12.07
358.381	11.72
358.591	10.76
358.801	9.6
359.011	9.36
359.221	8.93
359.43	8.43
359.64	7.88
359.85	9.06
360.06	9.51
360.269	10.47
360.479	11.23
360.689	11.3
360.899	11.35
361.108	11.8
361.318	12.23
361.528	11.77
361.737	11.71
361.947	11.82
362.156	11.19
362.366	10.78
362.576	10.67
362.785	10.2
362.995	10.27
363.204	10.71
363.414	10.66
363.623	9.87
363.833	10.54
364.042	10.45
364.252	10.71
364.461	10.64
364.671	10.35
364.88	10.36
365.09	10.52
365.299	10.92
365.509	11.08
365.718	10.35
365.927	10.49
366.137	10.24
366.346	10.23
366.555	9.77
366.765	10.3
366.974	10.37
367.183	9.66
367.393	9.1
367.602	7.89
367.811	7.89
368.021	9.04
368.23	8.76
368.439	9.3
368.648	9.9
368.857	9.49
369.067	8.18
369.276	8.57
369.485	8.41
369.694	8.99
369.903	10.71
370.112	10.21
370.321	9.37
370.531	9.38
370.74	9.27
370.949	8.66
371.158	8.99
371.367	9.65
371.576	9.59
371.785	10.21
371.994	10.46
372.203	9.62
372.412	9.76
372.621	9.78
372.83	10.12
373.039	10.13
373.248	10.12
373.457	10.13
373.666	9.8
373.874	9.48
374.083	8.8
374.292	8.02
374.501	7.91
374.71	7.7
374.919	7.59
375.128	7.14
375.336	6.39
375.545	5.98
375.754	5.96
375.963	5.93
376.171	5.72
376.38	6.15
376.589	6.22
376.798	6.5
377.006	6.47
377.215	7.14
377.424	7.44
377.632	7.38
377.841	7.93
378.05	8.19
378.258	8.05
378.467	8.33
378.675	7.68
378.884	7.65
379.093	7.31
379.301	7.52
379.51	7.34
379.718	7.09
379.927	7.72
380.135	8.17
380.344	8.11
380.552	8.34
380.761	7.94
380.969	8.77
381.177	8.77
381.386	9.24
381.594	8.69
381.803	8.46
382.011	8.43
382.219	7.91
382.428	7.36
382.636	7.46
382.845	7.59
383.053	7.93
383.261	7.61
383.469	6.77
383.678	5.89
383.886	6.49
384.094	6.32
384.302	6.16
384.511	6.32
384.719	6.47
384.927	6.22
385.135	5.61
385.343	5.71
385.552	5.55
385.76	6.41
385.968	7.07
386.176	6.66
386.384	6.72
386.592	7.22
386.8	7.06
387.008	6.68
387.216	6.3
387.424	6.91
387.633	6.56
387.841	6.77
388.049	6.84
388.257	6.37
388.465	6.23
388.672	5.86
388.88	5.36
389.088	5.47
389.296	5.59
389.504	5.81
389.712	5.76
389.92	5.69
390.128	5.48
390.336	4.79
390.544	4.97
390.751	5.29
390.959	5.05
391.167	4.97
391.375	4.88
391.583	4.82
391.79	4.67
391.998	4.52
392.206	4.64
392.414	4.74
392.621	4.67
392.829	4.77
393.037	4.69
393.244	5.32
393.452	5.32
393.66	5.12
393.867	4.93
394.075	4.88
394.283	4.49
394.49	4.42
394.698	4.11
394.905	4.97
395.113	4.76
395.32	4.73
395.528	4.19
395.735	4.24
395.943	4.35
396.15	4.71
396.358	4.69
396.565	4.89
396.773	4.79
396.98	4.94
397.188	4.38
397.395	4.05
397.602	3.98
397.81	4.05
398.017	3.97
398.225	4.1
398.432	3.82
398.639	4.17
398.847	4.28
399.054	4.2
399.261	4.15
399.468	4.32
399.676	4.46
399.883	4.46
400.09	4.6
400.297	4.49
400.505	4.42
400.712	4.43
400.919	4.2
401.126	4.11
401.333	4.25
401.54	4.15
401.748	4.04
401.955	4.26
402.162	4.27
402.369	4.56
402.576	4.45
402.783	4.21
402.99	4.31
403.197	4.25
403.404	4.39
403.611	4.28
403.818	4.23
404.025	4.15
404.232	3.9
404.439	3.6
404.646	3.07
404.853	3.52
405.06	3.65
405.267	3.49
405.474	3.4
405.681	3.14
405.887	3.39
406.094	3.25
406.301	3.26
406.508	3.4
406.715	3.73
406.922	3.86
407.128	3.47
407.335	3.4
407.542	3.69
407.749	4.14
407.955	4.2
408.162	3.95
408.369	3.9
408.575	3.87
408.782	3.77
408.989	3.56
409.195	3.66
409.402	3.71
409.609	3.84
409.815	3.46
410.022	2.95
410.228	2.74
410.435	2.91
410.642	3.06
410.848	2.95
411.055	3.17
411.261	3.33
411.468	3.23
411.674	3.12
411.881	3.27
412.087	3.36
412.294	3.74
412.5	3.87
412.706	3.71
412.913	3.93
413.119	3.88
413.326	3.49
413.532	3.33
413.738	3.63
413.945	3.84
414.151	3.79
414.357	3.91
414.564	3.63
414.77	3.8
414.976	3.69
415.182	3.49
415.389	3.63
415.595	3.87
415.801	3.93
416.007	3.63
416.214	3.55
416.42	3.42
416.626	3.44
416.832	3.62
417.038	3.44
417.244	3.39
417.45	3.38
417.657	3.49
417.863	3.5
418.069	3.55
418.275	3.61
418.481	3.6
418.687	3.56
418.893	3.6
419.099	3.5
419.305	3.49
419.511	3.57
419.717	3.59
419.923	3.32
420.129	3.21
420.335	3.22
420.541	3.13
420.746	3.08
420.952	3.05
421.158	3.02
421.364	3
421.57	3.01
421.776	3.07
421.982	3.16
422.187	3.15
422.393	3.12
422.599	2.96
422.805	3.03
423.01	3.14
423.216	3.28
423.422	3.18
423.628	3.23
423.833	3.11
424.039	3.06
424.245	3.01
424.45	3.09
424.656	3.1
424.862	3.04
425.067	3
425.273	2.77
425.478	2.62
425.684	2.55
425.889	2.47
426.095	2.66
426.301	2.62
426.506	2.51
426.712	2.42
426.917	2.56
427.123	2.76
427.328	2.8
427.533	2.92
427.739	2.87
427.944	2.97
428.15	2.98
428.355	2.8
428.561	2.76
428.766	2.79
428.971	2.87
429.177	3.06
429.382	3.08
429.587	3.26
429.793	3.4
429.998	3.3
430.203	3.14
430.408	3.12
430.614	3.24
430.819	3.16
431.024	3.1
431.229	3.16
431.434	2.79
431.64	2.56
431.845	2.29
432.05	2.38
432.255	2.49
432.46	2.62
432.665	2.61
432.87	2.66
433.076	2.74
433.281	2.87
433.486	2.74
433.691	2.79
433.896	3.04
434.101	3.22
434.306	3
434.511	2.94
434.716	2.97
434.921	3.06
435.126	2.96
435.331	2.91
435.535	2.58
435.74	2.74
435.945	2.68
436.15	2.35
436.355	1.98
436.56	2.16
436.765	2.26
436.97	2.27
437.174	2.12
437.379	2.03
437.584	2.11
437.789	2.33
437.993	2.28
438.198	2.47
438.403	2.52
438.608	2.59
438.812	2.44
439.017	2.51
439.222	2.41
439.426	2.49
439.631	2.5
439.836	2.49
440.04	2.48
440.245	2.54
440.45	2.61
440.654	2.52
440.859	2.55
441.063	2.62
441.268	2.53
441.472	2.54
441.677	2.56
441.881	2.54
442.086	2.52
442.29	2.57
442.495	2.54
442.699	2.38
442.904	2.58
443.108	2.62
443.312	2.58
443.517	2.57
443.721	2.64
443.925	2.69
444.13	2.76
444.334	2.65
444.538	2.53
444.743	2.42
444.947	2.45
445.151	2.47
445.356	2.57
445.56	2.59
445.764	2.62
445.968	2.51
446.173	2.37
446.377	2.34
446.581	2.48
446.785	2.55
446.989	2.55
447.193	2.42
447.398	2.46
447.602	2.44
447.806	2.43
448.01	2.55
448.214	2.63
448.418	2.64
448.622	2.68
448.826	2.45
449.03	2.5
449.234	2.45
449.438	2.45
449.642	2.34
449.846	2.39
450.05	2.35
450.254	2.22
450.458	2.26
450.662	2.28
450.866	2.36
451.069	2.55
451.273	2.48
451.477	2.5
451.681	2.68
451.885	2.63
452.089	2.33
452.292	2.36
452.496	2.29
452.7	2.3
452.904	2.34
453.107	2.44
453.311	2.65
453.515	2.76
453.719	2.93
453.922	2.89
454.126	3.04
454.33	3.11
454.533	3.24
454.737	3.11
454.94	3.04
455.144	3.17
455.348	3.04
455.551	2.96
455.755	3.02
455.958	2.85
456.162	2.93
456.365	2.77
456.569	2.89
456.772	2.87
456.976	2.99
457.179	2.84
457.383	2.65
457.586	2.54
457.79	2.33
457.993	2.18
458.196	2.21
458.4	2.03
458.603	2.12
458.807	2.14
459.01	2.15
459.213	2.06
459.417	2.13
459.62	2.26
459.823	2.38
460.026	2.49
460.23	2.43
460.433	2.47
460.636	2.55
460.839	2.55
461.042	2.66
461.246	2.63
461.449	2.66
461.652	2.75
461.855	2.57
462.058	2.5
462.261	2.49
462.464	2.59
462.668	2.45
462.871	2.42
463.074	2.43
463.277	2.33
463.48	2.39
463.683	2.46
463.886	2.35
464.089	2.41
464.292	2.59
464.495	2.47
464.698	2.46
464.901	2.53
465.104	2.49
465.306	2.44
465.509	2.27
465.712	2.1
465.915	2
466.118	2.1
466.321	1.94
466.524	1.9
466.726	2
466.929	1.92
467.132	2.08
467.335	2.2
467.538	2.23
467.74	2.3
467.943	2.43
468.146	2.6
468.348	2.63
468.551	2.83
468.754	2.73
468.956	2.53
469.159	2.61
469.362	2.63
469.564	2.46
469.767	2.63
469.969	2.71
470.172	2.69
470.375	2.6
470.577	2.42
470.78	2.58
470.982	2.83
471.185	3.1
471.387	3.14
471.59	3.03
471.792	3.2
471.995	3.24
472.197	3.25
472.399	3.29
472.602	3.28
472.804	3.33
473.007	3.32
473.209	2.95
473.411	2.92
473.614	2.83
473.816	2.75
474.018	2.74
474.22	2.58
474.423	2.5
474.625	2.39
474.827	2.58
475.03	2.56
475.232	2.52
475.434	2.67
475.636	2.7
475.838	2.78
476.04	2.9
476.243	2.89
476.445	2.83
476.647	2.76
476.849	2.95
477.051	2.67
477.253	2.81
477.455	2.64
477.657	2.7
477.859	2.59
478.061	2.46
478.263	2.45
478.465	2.57
478.667	2.63
478.869	2.56
479.071	2.39
479.273	2.6
479.475	2.41
479.677	2.49
479.879	2.38
480.081	2.36
480.283	2.47
480.485	2.51
480.686	2.39
480.888	2.35
481.09	2.44
481.292	2.42
481.494	2.38
481.695	2.47
481.897	2.52
482.099	2.6
482.301	2.58
482.502	2.48
482.704	2.37
482.906	2.36
483.107	2.44
483.309	2.43
483.511	2.42
483.712	2.46
483.914	2.46
484.115	2.41
484.317	2.32
484.519	2.32
484.72	2.33
484.922	2.38
485.123	2.42
485.325	2.32
485.526	2.35
485.728	2.41
485.929	2.33
486.131	2.33
486.332	2.37
486.534	2.43
486.735	2.38
486.936	2.41
487.138	2.4
487.339	2.37
487.541	2.41
487.742	2.41
487.943	2.36
488.144	2.38
488.346	2.37
488.547	2.39
488.748	2.43
488.95	2.52
489.151	2.54
489.352	2.51
489.553	2.5
489.755	2.48
489.956	2.42
490.157	2.5
490.358	2.44
490.559	2.43
490.76	2.43
490.961	2.39
491.163	2.37
491.364	2.41
491.565	2.42
491.766	2.46
491.967	2.51
492.168	2.55
492.369	2.55
492.57	2.67
492.771	2.7
492.972	2.73
493.173	2.75
493.374	2.73
493.575	2.71
493.776	2.79
493.976	2.78
494.177	2.8
494.378	2.77
494.579	2.63
494.78	2.59
494.981	2.62
495.182	2.59
495.382	2.64
495.583	2.7
495.784	2.69
495.985	2.68
496.185	2.6
496.386	2.57
496.587	2.67
496.788	2.83
496.988	2.86
497.189	2.8
497.39	2.78
497.59	2.68
497.791	2.71
497.992	2.7
498.192	2.65
498.393	2.59
498.593	2.44
498.794	2.37
498.994	2.23
499.195	2.24
499.395	2.24
499.596	2.26
499.796	2.37
499.997	2.33
500.197	2.28
500.398	2.39
500.598	2.43
500.799	2.72
500.999	2.77
501.199	2.96
501.4	2.79
501.6	2.75
501.801	2.74
502.001	2.75
502.201	2.68
502.402	2.7
502.602	2.48
502.802	2.65
503.002	2.57
503.203	2.68
503.403	2.67
503.603	2.96
503.803	3.09
504.003	3.13
504.204	3.22
504.404	3.16
504.604	3.17
504.804	3.25
505.004	3.26
505.204	3.19
505.404	3.04
505.604	2.94
505.804	2.74
506.005	2.73
506.205	2.73
506.405	2.66
506.605	2.78
506.805	2.93
507.005	3.04
507.204	2.88
507.404	2.97
507.604	3.12
507.804	3.21
508.004	3.32
508.204	3.27
508.404	3.25
508.604	3.04
508.804	2.88
509.003	2.73
509.203	2.69
509.403	2.65
509.603	2.67
509.803	2.73
510.002	2.75
510.202	2.69
510.402	2.7
510.602	2.64
510.801	2.87
511.001	3.05
511.201	3.11
511.4	3.04
511.6	3.14
511.8	3.09
511.999	3.02
512.199	2.86
512.398	2.9
512.598	2.99
512.797	3.11
512.997	3.06
513.197	2.98
513.396	3.01
513.596	3.06
513.795	3.06
513.994	3.06
514.194	3
514.393	3.13
514.593	3.23
514.792	3.21
514.992	3.1
515.191	3.18
515.39	3.18
515.59	3.12
515.789	3.17
515.988	3.15
516.188	3.17
516.387	3.3
516.586	3.29
516.786	3.11
516.985	3.03
517.184	3.11
517.383	3.11
517.582	3.21
517.782	3.24
517.981	3.29
518.18	3.28
518.379	3.24
518.578	3.2
518.777	3.15
518.976	3.19
519.176	3.26
519.375	3.28
519.574	3.34
519.773	3.37
519.972	3.36
520.171	3.25
520.37	3.38
520.569	3.42
520.768	3.37
520.967	3.41
521.166	3.42
521.365	3.43
521.564	3.44
521.762	3.39
521.961	3.42
522.16	3.45
522.359	3.57
522.558	3.45
522.757	3.36
522.956	3.46
523.154	3.48
523.353	3.48
523.552	3.49
523.751	3.53
523.949	3.52
524.148	3.43
524.347	3.39
524.546	3.4
524.744	3.4
524.943	3.58
525.142	3.62
525.34	3.68
525.539	3.67
525.737	3.62
525.936	3.6
526.135	3.49
526.333	3.48
526.532	3.65
526.73	3.56
526.929	3.57
527.127	3.54
527.326	3.51
527.524	3.37
527.723	3.37
527.921	3.41
528.12	3.38
528.318	3.46
528.516	3.5
528.715	3.44
528.913	3.48
529.112	3.5
529.31	3.48
529.508	3.52
529.707	3.61
529.905	3.65
530.103	3.64
530.301	3.67
530.5	3.67
530.698	3.74
530.896	3.73
531.094	3.73
531.293	3.78
531.491	3.87
531.689	3.81
531.887	3.83
532.085	3.79
532.283	3.85
532.481	3.89
532.68	3.84
532.878	3.82
533.076	3.8
533.274	3.88
533.472	3.95
533.67	3.91
533.868	3.97
534.066	3.96
534.264	3.99
534.462	3.95
534.66	3.9
534.858	3.94
535.056	3.87
535.253	3.93
535.451	3.9
535.649	3.85
535.847	3.87
536.045	3.79
536.243	3.8
536.441	3.88
536.638	3.95
536.836	4.03
537.034	4.15
537.232	4.25
537.43	4.33
537.627	4.45
537.825	4.52
538.023	4.5
538.22	4.48
538.418	4.56
538.616	4.52
538.813	4.61
539.011	4.76
539.209	4.82
539.406	4.86
539.604	4.81
539.801	4.81
539.999	4.8
540.196	4.97
540.394	5.09
540.591	5.04
540.789	5.13
540.986	5.03
541.184	4.97
541.381	4.96
541.579	5
541.776	4.98
541.974	4.96
542.171	4.96
542.368	4.96
542.566	4.98
542.763	5.09
542.96	5.02
543.158	4.99
543.355	5.11
543.552	5.14
543.75	5.07
543.947	5.21
544.144	5.24
544.341	5.3
544.539	5.26
544.736	5.2
544.933	5.17
545.13	5.27
545.327	5.45
545.524	5.49
545.722	5.5
545.919	5.52
546.116	5.58
546.313	5.67
546.51	5.8
546.707	5.9
546.904	6.05
547.101	6.14
547.298	6.17
547.495	6.25
547.692	6.16
547.889	6.16
548.086	6.24
548.283	6.34
548.48	6.39
548.677	6.25
548.874	6.37
549.07	6.33
549.267	6.32
549.464	6.38
549.661	6.39
549.858	6.48
550.055	6.51
550.251	6.62
550.448	6.45
550.645	6.43
550.842	6.46
551.038	6.46
551.235	6.51
551.432	6.6
551.628	6.71
551.825	6.76
552.022	6.81
552.218	6.91
552.415	7.05
552.612	7.17
552.808	7.41
553.005	7.57
553.201	7.51
553.398	7.63
553.594	7.73
553.791	7.69
553.987	7.82
554.184	7.85
554.38	7.89
554.577	7.86
554.773	7.99
554.97	7.95
555.166	7.91
555.362	8.02
555.559	7.8
555.755	7.78
555.952	8.17
556.148	8.12
556.344	8.06
556.541	8.05
556.737	8.15
556.933	8.13
557.129	8.05
557.326	8.06
557.522	8.04
557.718	8.3
557.914	8.15
558.11	7.98
558.307	7.98
558.503	8.25
558.699	8.31
558.895	8.24
559.091	8.17
559.287	8.15
559.483	8.35
559.679	8.45
559.876	8.4
560.072	8.51
560.268	8.51
560.464	8.54
560.66	8.41
560.856	8.52
561.052	8.77
561.247	9.14
561.443	9.17
561.639	9.26
561.835	9.42
562.031	9.61
562.227	9.61
562.423	9.68
562.619	9.67
562.815	9.7
563.01	9.55
563.206	9.49
563.402	9.38
563.598	9.37
563.793	9.28
563.989	9.09
564.185	9.14
564.381	9.34
564.576	9.4
564.772	9.46
564.968	9.58
565.163	9.82
565.359	9.82
565.555	9.68
565.75	9.98
565.946	10.13
566.141	10.37
566.337	10.35
566.532	10.33
566.728	10.36
566.923	10.51
567.119	10.42
567.314	10.45
567.51	10.43
567.705	10.62
567.901	10.36
568.096	10.22
568.292	10.19
568.487	10.06
568.682	10.18
568.878	10.19
569.073	10.13
569.268	10.47
569.464	10.36
569.659	10.54
569.854	10.67
570.05	10.91
570.245	11.12
570.44	11.18
570.635	11.32
570.831	11.31
571.026	11.38
571.221	11.56
571.416	11.42
571.611	11.65
571.806	11.6
572.002	11.57
572.197	11.58
572.392	11.58
572.587	11.57
572.782	11.67
572.977	11.72
573.172	11.8
573.367	11.67
573.562	11.79
573.757	11.78
573.952	11.79
574.147	11.84
574.342	11.77
574.537	11.87
574.732	11.79
574.927	11.72
575.121	11.73
575.316	11.67
575.511	11.82
575.706	11.83
575.901	11.9
576.096	11.99
576.29	11.97
576.485	12.12
576.68	12.11
576.875	12.33
577.069	12.54
577.264	12.44
577.459	12.4
577.654	12.31
577.848	12.3
578.043	12.37
578.238	12.17
578.432	12.14
578.627	11.95
578.821	11.98
579.016	11.82
579.21	11.59
579.405	11.72
579.6	11.84
579.794	11.96
579.989	11.97
580.183	11.77
580.378	12.08
580.572	12.31
580.766	12.44
580.961	12.17
581.155	12.02
581.35	12.39
581.544	12.59
581.738	12.53
581.933	12.54
582.127	12.75
582.321	12.79
582.516	12.88
582.71	12.54
582.904	12.85
583.099	12.92
583.293	13.14
583.487	13.08
583.681	12.87
583.875	12.95
584.07	13.03
584.264	13.2
584.458	13.39
584.652	13.25
584.846	13.44
585.04	13.05
585.234	13.55
585.428	13.67
585.623	13.54
585.817	13.67
586.011	13.84
586.205	13.86
586.399	13.56
586.593	13.09
586.787	13.29
586.981	13.17
587.174	13.22
587.368	12.72
587.562	12.87
587.756	12.86
587.95	12.82
588.144	12.7
588.338	12.74
588.532	12.59
588.725	12.97
588.919	12.93
589.113	12.97
589.307	13.34
589.501	13.46
589.694	13.41
589.888	13.27
590.082	13.48
590.275	13.47
590.469	13.32
590.663	13.63
590.856	13.68
591.05	13.47
591.244	13.6
591.437	13.4
591.631	13.59
591.824	13.46
592.018	13.68
592.212	13.54
592.405	13.57
592.599	13.51
592.792	13.54
592.986	13.41
593.179	13.44
593.372	13.28
593.566	13.28
593.759	13.4
593.953	13.58
594.146	13.56
594.339	13.7
594.533	13.51
594.726	13.68
594.92	13.52
595.113	13.63
595.306	14.06
595.499	14.36
595.693	14.61
595.886	14.45
596.079	14.28
596.272	14.24
596.466	14.05
596.659	14.22
596.852	14.07
597.045	14.25
597.238	14.3
597.431	14.05
597.624	14.2
597.818	14.14
598.011	14.09
598.204	14.1
598.397	14.09
598.59	14.38
598.783	14.27
598.976	14.52
599.169	14.32
599.362	14.01
599.555	13.97
599.748	13.55
599.941	13.4
600.134	13.43
600.326	13.42
600.519	13.35
600.712	12.97
600.905	13.08
601.098	12.95
601.291	12.98
601.483	13.23
601.676	13.17
601.869	13.16
602.062	13.18
602.255	13.23
602.447	13.09
602.64	13.24
602.833	13.47
603.025	13.34
603.218	13.47
603.411	13.41
603.603	13.59
603.796	13.81
603.989	13.79
604.181	13.74
604.374	13.79
604.566	13.99
604.759	14.06
604.951	14.18
605.144	14.09
605.336	14.17
605.529	14.29
605.721	14.1
605.914	13.96
606.106	14.05
606.299	14.25
606.491	14.07
606.683	13.92
606.876	13.6
607.068	13.21
607.26	13.54
607.453	13.28
607.645	13.2
607.837	13.35
608.03	13.72
608.222	13.64
608.414	13.56
608.606	13.81
608.799	13.96
608.991	14.25
609.183	14.4
609.375	14.48
609.567	14.65
609.759	14.71
609.952	14.58
610.144	14.43
610.336	14.63
610.528	14.62
610.72	14.66
610.912	14.74
611.104	14.9
611.296	15.05
611.488	14.83
611.68	14.98
611.872	14.95
612.064	15.24
612.256	15.15
612.448	15.29
612.64	15.34
612.832	15.19
613.023	15.18
613.215	15.17
613.407	14.97
613.599	15.2
613.791	15.21
613.983	15.16
614.174	14.9
614.366	14.73
614.558	14.48
614.75	14.54
614.941	14.37
615.133	14.33
615.325	14.07
615.516	14.01
615.708	14.17
615.9	13.69
616.091	13.56
616.283	13.73
616.475	13.77
616.666	13.77
616.858	13.6
617.049	13.71
617.241	13.53
617.432	13.62
617.624	13.79
617.815	13.54
618.007	13.69
618.198	14.01
618.39	13.67
618.581	13.74
618.773	13.61
618.964	13.62
619.155	13.67
619.347	13.95
619.538	13.91
619.729	14.02
619.921	13.94
620.112	14.23
620.303	14.18
620.494	14.33
620.686	14.51
620.877	14.82
621.068	15.11
621.259	15.29
621.451	15.24
621.642	15.08
621.833	14.91
622.024	14.89
622.215	14.74
622.406	14.56
622.597	14.51
622.788	14.35
622.98	14.01
623.171	13.91
623.362	13.65
623.553	13.71
623.744	14.2
623.935	14.39
624.126	14.89
624.317	15.12
624.508	15.14
624.698	15.26
624.889	15.48
625.08	15.93
625.271	15.8
625.462	15.86
625.653	15.61
625.844	15.32
626.034	15.19
626.225	14.83
626.416	14.49
626.607	14.38
626.798	14.5
626.988	14.47
627.179	14.19
627.37	14.13
627.56	14.44
627.751	14.5
627.942	14.59
628.132	14.54
628.323	14.66
628.514	14.72
628.704	14.96
628.895	14.92
629.085	14.97
629.276	14.97
629.466	15.02
629.657	14.76
629.847	14.76
630.038	14.6
630.228	14.58
630.419	14.42
630.609	14.6
630.8	14.71
630.99	15
631.181	14.81
631.371	15.12
631.561	15.35
631.752	15.48
631.942	15.27
632.132	15.23
632.323	15.23
632.513	15.3
632.703	14.92
632.893	14.61
633.084	14.52
633.274	14.94
633.464	14.56
633.654	14.45
633.844	14.19
634.034	14.49
634.225	14.64
634.415	14.85
634.605	15.13
634.795	15.33
634.985	15.41
635.175	15.64
635.365	15.23
635.555	15.33
635.745	15.49
635.935	15.82
636.125	15.63
636.315	15.83
636.505	15.7
636.695	15.56
636.885	15.58
637.075	15.95
637.265	15.74
637.455	15.75
637.644	15.86
637.834	15.85
638.024	15.68
638.214	16.06
638.404	15.89
638.593	15.79
638.783	15.86
638.973	15.59
639.163	15.49
639.352	15.25
639.542	15.23
639.732	15.14
639.921	14.75
640.111	14.71
640.301	14.57
640.49	14.55
640.68	14.69
640.87	14.44
641.059	15.16
641.249	15.29
641.438	15.04
641.628	15.22
641.817	15.5
642.007	15.57
642.196	15.65
642.386	15.67
642.575	15.4
642.764	15.28
642.954	15.55
643.143	15.2
643.333	14.88
643.522	15.09
643.711	15.3
643.901	15.34
644.09	15.2
644.279	15.33
644.469	15.5
644.658	16.02
644.847	16.13
645.036	16.31
645.226	16.18
645.415	16.16
645.604	16.04
645.793	15.84
645.982	15.62
646.171	15.86
646.361	15.77
646.55	15.59
646.739	15.18
646.928	15.37
647.117	14.72
647.306	14.69
647.495	14.5
647.684	14.5
647.873	14.63
648.062	14.42
648.251	14.5
648.44	14.58
648.629	14.54
648.818	14.75
649.007	14.23
649.196	14.74
649.384	14.49
649.573	14.76
649.762	14.96
649.951	14.46
650.14	14.69
650.328	14.88
650.517	14.83
650.706	14.98
650.895	14.85
651.083	14.91
651.272	14.68
651.461	14.9
651.65	14.62
651.838	14.6
652.027	14.92
652.216	14.89
652.404	14.98
652.593	15.02
652.781	14.84
652.97	14.86
653.158	15.27
653.347	15.69
653.535	15.7
653.724	16.11
653.912	16.05
654.101	15.75
654.289	15.7
654.478	15.48
654.666	15.28
654.855	15.63
655.043	16.22
655.231	16.32
655.42	15.99
655.608	16.18
655.796	15.92
655.985	16.29
656.173	16.6
656.361	16.47
656.55	16.31
656.738	16.75
656.926	16.52
657.114	16.08
657.302	15.64
657.491	15.48
657.679	15.47
657.867	15.55
658.055	15.08
658.243	15.31
658.431	15.5
658.619	15.46
658.807	15.38
658.996	15.48
659.184	15.54
659.372	15.94
659.56	16.24
659.748	16.44
659.936	16.22
660.124	16.07
660.311	15.7
660.499	15.72
660.687	15.88
660.875	15.66
661.063	15.59
661.251	15.64
661.439	15.69
661.627	15.18
661.814	14.89
662.002	15.16
662.19	15.45
662.378	15.99
662.565	15.92
662.753	16.06
662.941	16.04
663.129	15.88
663.316	15.57
663.504	15.36
663.692	15.07
663.879	15.09
664.067	15.06
664.254	15.24
664.442	14.42
664.63	14.4
664.817	14.56
665.005	15.07
665.192	15.11
665.38	14.93
665.567	14.58
665.755	15.24
665.942	15.2
666.13	14.98
666.317	14.69
666.504	15.47
666.692	15.39
666.879	15.3
667.067	14.69
667.254	14.51
667.441	14.87
667.629	15.09
667.816	14.85
668.003	15.2
668.19	15.59
668.378	15.67
668.565	15.54
668.752	15.76
668.939	15.84
669.127	15.38
669.314	15.57
669.501	15.59
669.688	15.54
669.875	15.4
670.062	15.54
670.249	15.07
670.436	15.38
670.623	15.1
670.81	15.1
670.997	14.49
671.184	15.03
671.371	15.17
671.558	15.14
671.745	15.45
671.932	15.67
672.119	15.24
672.306	15.7
672.493	15.46
672.68	15.17
672.867	14.9
673.054	15.35
673.24	14.73
673.427	14.85
673.614	15.1
673.801	14.63
673.988	14.94
674.174	15.13
674.361	15.03
674.548	15.08
674.734	15.45
674.921	15.83
675.108	15.5
675.294	16.61
675.481	16.61
675.668	16.55
675.854	16.97
676.041	16.74
676.227	16.38
676.414	16.24
676.601	16.25
676.787	16.22
676.974	16.02
677.16	15.85
677.347	15.46
677.533	15.21
677.719	15.42
677.906	15.33
678.092	14.91
678.279	15.38
678.465	15.66
678.651	15.51
678.838	15.85
679.024	15.81
679.21	16.29
679.397	16.29
679.583	16.37
679.769	16
679.955	16.1
680.142	16.99
680.328	17.01
680.514	16.9
680.7	17.19
680.886	17.26
681.073	17.31
681.259	17.1
681.445	16.99
681.631	16.67
681.817	16.75
682.003	16.46
682.189	16.3
682.375	16.02
682.561	16.2
682.747	16.17
682.933	15.52
683.119	15.92
683.305	16.31
683.491	16.77
683.677	16.88
683.863	17.17
684.049	17.38
684.235	17.1
684.42	16.69
684.606	16.42
684.792	15.98
684.978	16.13
685.164	15.68
685.349	15.15
685.535	14.9
685.721	15.18
685.907	15.19
686.092	15.39
686.278	14.63
686.464	15.1
686.649	15.19
686.835	15.46
687.021	15.71
687.206	15.66
687.392	16.23
687.577	16.12
687.763	16.1
687.948	15.91
688.134	15.7
688.319	16.7
688.505	16.42
688.69	16.1
688.876	16.33
689.061	16.3
689.247	16.47
689.432	15.97
689.618	16.14
689.803	16.19
689.988	16.1
690.174	16.07
690.359	15.73
690.544	16.24
690.73	16.83
690.915	16.28
691.1	16.27
691.285	16.42
691.471	16.32
691.656	16.14
691.841	15.94
692.026	16.25
692.211	16.18
692.396	16.43
692.582	16.52
692.767	15.39
692.952	15.56
693.137	15.48
693.322	15.36
693.507	16.08
693.692	15.92
693.877	15.95
694.062	15.98
694.247	16.25
694.432	16.49
694.617	16.33
694.802	17.19
694.987	17.87
695.172	18.33
695.357	18.18
695.541	17.58
695.726	17.95
695.911	18.05
696.096	17.69
696.281	17.89
696.466	17.23
696.65	17.1
696.835	17
697.02	16.62
697.204	16.45
697.389	16.12
697.574	16.53
697.759	16.52
697.943	16.73
698.128	17.03
698.312	17.16
698.497	17.72
698.682	17.29
698.866	17.38
699.051	17.76
699.235	17.59
699.42	18.35
699.604	18.36
699.789	18.31
699.973	18.05
700.158	17.96
700.342	17.34
700.527	16.79
700.711	17.26
700.895	17.24
701.08	17.25
701.264	16.72
701.448	16.5
701.633	16.44
701.817	16.23
702.001	16.18
702.186	16.02
702.37	16.21
702.554	16.48
702.738	16.51
702.923	16.24
703.107	15.39
703.291	16.11
703.475	15.86
703.659	15.09
703.843	15.98
704.027	16.58
704.212	16.06
704.396	16.86
704.58	16.59
704.764	17.46
704.948	17.08
705.132	18.17
705.316	17.94
705.5	18.57
705.684	19.1
705.868	18.72
706.052	18.53
706.235	19.21
706.419	18.75
706.603	18.72
706.787	17.72
706.971	18.72
707.155	17.7
707.339	18.01
707.522	17.44
707.706	17.2
707.89	17.44
708.074	16.47
708.257	16.59
708.441	17.06
708.625	17.09
708.808	17.34
708.992	16.96
709.176	16.91
709.359	16.81
709.543	16.88
709.727	17.98
709.91	17.87
710.094	19.76
710.277	19.59
710.461	18.71
710.644	18.87
710.828	19.09
711.011	19.57
711.195	19.82
711.378	20.23
711.562	20.3
711.745	19.4
711.928	19.41
712.112	17.99
712.295	17.93
712.478	18.74
712.662	18.23
712.845	18.26
713.028	18.01
713.212	17.95
713.395	18.16
713.578	17.96
713.761	18.09
713.945	18.53
714.128	19.09
714.311	19.38
714.494	19.26
714.677	20.19
714.86	20.09
715.043	20.25
715.227	20.24
715.41	20.21
715.593	19.49
715.776	18.43
715.959	17.5
716.142	17.45
716.325	17.12
716.508	17.2
716.691	16.43
716.874	16.61
717.057	16.72
717.239	17.22
717.422	16.46
717.605	17.05
717.788	17.76
717.971	19.2
718.154	19.08
718.337	18.74
718.519	18.31
718.702	18.45
718.885	18.12
719.068	18.52
719.25	18.65
719.433	19.21
719.616	19.88
719.798	20.21
719.981	18.72
720.164	18.96
720.346	18.81
720.529	19.52
720.712	19.52
720.894	19.98
721.077	19.39
721.259	18.3
721.442	18.64
721.624	17.71
721.807	18.51
721.989	18.86
722.172	18.66
722.354	19.38
722.537	18.06
722.719	18.44
722.901	17.75
723.084	17.48
723.266	18.5
723.448	18.06
723.631	18.49
723.813	18.02
723.995	17.55
724.178	16.97
724.36	16.69
724.542	17.76
724.724	17
724.907	16.14
725.089	15.87
725.271	15.25
725.453	15.26
725.635	14.85
725.817	15.31
725.999	15.76
726.181	16.38
726.364	16.04
726.546	15.61
726.728	17.19
726.91	17.62
727.092	17.22
727.274	17.43
727.456	17.97
727.638	18.41
727.819	17.93
728.001	17.33
728.183	17.72
728.365	18.32
728.547	17.81
728.729	16.99
728.911	17.84
729.093	18.32
729.274	17.3
729.456	16.35
729.638	15.92
729.82	15.86
730.001	15.74
730.183	15.93
730.365	15.99
730.546	16.36
730.728	16.47
730.91	16.48
731.091	17.24
731.273	17.66
731.455	18.02
731.636	18.95
731.818	18.73
731.999	19.8
732.181	19.75
732.362	19.34
732.544	19.37
732.725	19.1
732.907	18.54
733.088	18.08
733.27	18.29
733.451	18.5
733.633	17.73
733.814	18.52
733.995	17.57
734.177	17.06
734.358	17.97
734.539	18.12
734.721	17.38
734.902	17.59
735.083	17.8
735.264	18.03
735.446	18.39
735.627	19.27
735.808	19.04
735.989	20.4
736.17	19.53
736.351	17.23
736.533	17
736.714	17.91
736.895	17.8
737.076	17.49
737.257	17.56
737.438	17.53
737.619	15.91
737.8	15.49
737.981	15.18
738.162	16.08
738.343	18.77
738.524	19.42
738.705	20.23
738.886	20.98
739.067	21.53
739.247	21.38
739.428	21.03
739.609	21.22
739.79	21.21
739.971	21.35
740.151	21.11
740.332	19.74
740.513	19.52
740.694	19.42
740.874	17.91
741.055	17.09
741.236	17.04
741.417	17.85
741.597	18.24
741.778	18.47
741.958	17.41
742.139	18.87
742.32	18.42
742.5	18.64
742.681	17.99
742.861	19.12
743.042	19.44
743.222	19.19
743.403	19.2
743.583	19.01
743.764	17.96
743.944	17.67
744.124	16.73
744.305	16.41
744.485	14.86
744.666	15.01
744.846	15.96
745.026	17.05
745.207	17.4
745.387	16.02
745.567	15.88
745.747	15.78
745.928	16.64
746.108	15.69
746.288	17.36
746.468	18.86
746.648	19.78
746.829	17.43
747.009	15.95
747.189	16.92
747.369	18.04
747.549	18.41
747.729	19.66
747.909	19.65
748.089	20.57
748.269	20.39
748.449	21.04
748.629	19.73
748.809	20.58
748.989	20.47
749.169	19.56
749.349	18.98
749.529	18.59
749.709	18.83
749.889	18.52
750.068	17.78
750.248	16.8
750.428	15.42
750.608	16.31
750.788	15.19
750.967	15.02
751.147	14.27
751.327	15.04
751.507	16.07
751.686	16.5
751.866	17.15
752.046	18.79
752.225	19.31
752.405	20.01
752.585	20.88
752.764	22.13
752.944	22.49
753.123	22.5
753.303	22.61
753.482	21.68
753.662	20.23
753.841	19.9
754.021	20.48
754.2	21.46
754.38	20.89
754.559	20.52
754.739	19.75
754.918	20.08
755.097	21.04
755.277	20.46
755.456	20.3
755.635	21.25
755.815	20.41
755.994	18.47
756.173	17.72
756.352	16.94
756.532	15.64
756.711	16.19
756.89	17.05
757.069	17.11
757.248	15.8
757.427	17.65
757.607	16.87
757.786	18.47
757.965	18.81
758.144	17.69
758.323	18.24
758.502	19.77
758.681	19.99
758.86	19.48
759.039	19.65
759.218	20.03
759.397	19.65
759.576	20.87
759.755	19.63
759.934	19.6
760.113	20.13
760.291	20.88
760.47	20
760.649	20.51
760.828	21.36
761.007	20.47
761.186	20.74
761.364	21.54
761.543	20.64
761.722	20.74
761.901	20.82
762.079	21.97
762.258	21.25
762.437	20.18
762.615	19.85
762.794	19.66
762.972	20.49
763.151	20.5
763.33	19.51
763.508	20.24
763.687	20.59
763.865	20.5
764.044	19.64
764.222	19.36
764.401	20.46
764.579	20.42
764.758	19.99
764.936	20.12
765.114	20.19
765.293	20.11
765.471	18.44
765.65	18.62
765.828	19.03
766.006	20.12
766.184	20.41
766.363	19.71
766.541	19.88
766.719	19.76
766.898	18.67
767.076	20.05
767.254	20
767.432	21.58
767.61	21.42
767.788	19.8
767.967	18.7
768.145	19.92
768.323	20.59
768.501	19.97
768.679	20.96
768.857	21.41
769.035	21.29
769.213	20.9
769.391	19.2
769.569	18.55
769.747	21.69
769.925	22.7
770.103	21.42
770.281	22.25
770.459	24.46
770.636	22.24
770.814	24.51
770.992	21.31
771.17	22.29
771.348	22.68
771.525	23.66
771.703	21.66
771.881	21.21
772.059	21.23
772.236	21.01
772.414	18.59
772.592	19.87
772.769	16.77
772.947	16.5
773.125	16.57
773.302	20.27
773.48	19.86
773.657	21.75
773.835	21.78
774.013	22.79
774.19	22.81
774.368	24.4
774.545	23.77
774.723	25.67
774.9	28.56
775.077	27.12
775.255	24.08
775.432	26.25
775.61	24.2
775.787	22.35
775.964	20.99
776.142	21.05
776.319	20.15
776.496	19.15
776.674	17.25
776.851	17.22
777.028	20.39
777.205	19.72
777.382	18.54
777.56	18.5
777.737	18.83
777.914	21.37
778.091	20.28
778.268	20.42
778.445	23.44
778.622	24.3
778.8	23.33
778.977	22.96
779.154	23.6
779.331	20.86
779.508	20.04
779.685	22.1
779.862	19.45
780.038	18.65
780.215	19.08
780.392	16.89
780.569	16.93
780.746	15.78
780.923	14.13
781.1	16.58
781.277	16.2
781.453	16.88
781.63	15.18
781.807	16.88
781.984	17.12
782.16	13.82
782.337	14.12
782.514	13.91
782.691	16.24
782.867	14.87
783.044	14.1
783.221	15.81
783.397	14.62
783.574	13.9
783.75	12.59
783.927	13.22
784.103	16.77
784.28	16.87
784.456	17.4
784.633	17.8
784.809	19.71
784.986	16.28
785.162	15.94
785.339	17.57
785.515	18.08
785.692	17.81
785.868	20.09
786.044	17.36
786.221	19.38
786.397	20.34
786.573	21.76
786.749	23.04
786.926	24.32
787.102	24.32
787.278	23.41
787.454	25.37
787.631	26.17
787.807	23.89
787.983	26.92
788.159	25.17
788.335	25.03
788.511	21.79
788.687	18.71
788.863	19.73
789.039	22.29
789.216	22.01
789.392	18.84
789.568	17.35
789.744	15.32
789.919	12.86
790.095	13.55
790.271	13.07
790.447	13.14
790.623	16.34
790.799	16.33
790.975	14.34
791.151	16.22
791.327	18.41
791.502	20.28
791.678	22.49
791.854	23.74
792.03	23.25
792.205	21.31
792.381	22.13
792.557	19.01
792.733	18.37
792.908	17.97
793.084	17.08
793.259	19.57
793.435	21.53
793.611	21.05
793.786	21.67
793.962	21.95
794.137	22.95
794.313	21.97
794.488	24.12
794.664	26.54
794.839	27.99
795.015	27.82
795.19	23.15
795.366	19.72
795.541	20.86
795.716	18.89
795.892	18.83
796.067	16.77
796.242	16.07
796.418	17.17
796.593	15.66
796.768	14.67
796.944	16.29
797.119	19.06
797.294	23.54
797.469	24.37
797.644	24.16
797.82	21.96
797.995	23.25
798.17	24.95
798.345	21.17
798.52	17.52
798.695	17.07
798.87	15.61
799.045	13.46
799.22	10.92
799.395	10.55
799.57	11.82
799.745	15
799.92	15.34
800.095	15.69
800.27	17.7
800.445	21.29
800.62	21.46
800.795	25.29
800.97	28.62
801.145	23.67
801.319	21.91
801.494	22.29
801.669	16.87
801.844	15.47
802.018	16.55
802.193	16.64
802.368	12.21
802.543	11.79
802.717	7.38
802.892	5.24
803.067	12.02
803.241	12.1
803.416	11.67
803.59	16.96
803.765	20.94
803.94	18.85
804.114	18.54
804.289	22.28
804.463	23.43
804.638	29.49
804.812	31.32
804.986	29.49
805.161	32.4
805.335	33.85
805.51	31.55
805.684	29.65
805.858	26.9
806.033	28.07
806.207	25.23
806.381	24.94
806.556	19.39
806.73	18.68
806.904	19.57
807.078	17.38
807.253	16.56
807.427	15.48
807.601	13.6
807.775	18.68
807.949	15.21
808.123	17.07
808.298	16.52
808.472	17.19
808.646	12.35
808.82	11.53
808.994	10.82
809.168	9.83
809.342	14.83
809.516	17.54
809.69	15.16
809.864	17.49
810.038	16.55
810.212	16.76
810.385	15.86
810.559	17.59
810.733	15.43
810.907	16.6
811.081	17.22
811.255	16.61
811.428	14.98
811.602	11.12
811.776	11.61
811.95	9.22
812.123	10.82
812.297	9.18
812.471	14.38
812.644	16.4
812.818	16.47
812.992	14.37
813.165	11.75
813.339	12.64
813.512	16.92
813.686	17.45
813.86	17.35
814.033	16.08
814.207	19.48
814.38	13.64
814.554	16.08
814.727	17
814.9	14.87
815.074	14.86
815.247	13.75
815.421	16.04
815.594	15.7
815.767	21.87
815.941	22.52
816.114	20.55
816.287	22.22
816.46	15.64
816.634	18.12
816.807	22.1
816.98	25.54
817.153	27.66
817.327	26.16
817.5	26.19
817.673	22.19
817.846	21.06
818.019	19.45
818.192	20.39
818.365	24.27
818.538	18.74
818.711	16.67
818.884	15.81
819.057	16.82
819.23	19.52
819.403	19.42
819.576	23.16
819.749	22.82
819.922	25.88
820.095	26.22
820.268	27.61
820.441	27.39
820.614	26.89
820.786	26.16
820.959	24.56
821.132	24.63
821.305	23.86
821.477	23
821.65	22.71
821.823	22.25
821.996	21.48
822.168	20.99
822.341	21.49
822.514	21.84
822.686	22.3
822.859	22.06
823.031	21.21
823.204	21.64
823.376	20.99
823.549	21.04
823.722	20.39
823.894	20.8
824.067	20.4
824.239	20.01
824.411	20.72
824.584	19.19
824.756	19.73
824.929	20.13
825.101	19.74
825.273	20.29
825.446	20.38
825.618	22.12
825.79	22.41
825.963	21.97
826.135	22.99
826.307	21.37
826.479	22.38
826.652	20.58
826.824	19.08
826.996	19.14
827.168	19.88
827.34	20.34
827.512	18.73
827.684	17.58
827.856	18.2
828.029	18.87
828.201	19.07
828.373	20.77
828.545	23.02
828.717	24.75
828.889	24.81
829.061	23.42
829.232	21.9
829.404	23.88
829.576	24.82
829.748	26.89
829.92	24.34
830.092	23.47
830.264	20.68
830.436	18.18
830.607	16.49
830.779	12.98
830.951	11.23
831.123	11.97
831.294	6.35
831.466	3.57
831.638	-0.4
831.809	-3.26
831.981	-4.3
832.153	-3.51
832.324	-0.99
832.496	0.35
832.667	6.19
832.839	10.02
833.011	9.66
833.182	14.6
833.354	17.85
833.525	18.92
833.697	21.46
833.868	22.31
834.039	20.69
834.211	21.07
834.382	22.27
834.554	22.88
834.725	21.84
834.896	22.17
835.068	21.6
835.239	22.99
835.41	25.29
835.581	24.9
835.753	27.53
835.924	30.02
836.095	29.32
836.266	27.87
836.438	27.29
836.609	28.71
836.78	31
836.951	28.41
837.122	28.83
837.293	26.59
837.464	27.82
837.635	27.77
837.806	28.42
837.977	24.46
838.148	25.99
838.319	25.86
838.49	28.17
838.661	25.42
838.832	29.33
839.003	28.97
839.174	30.46
839.345	27.53
839.516	27.13
839.687	25.82
839.857	28.77
840.028	27.13
840.199	29.37
840.37	24.15
840.54	23.24
840.711	20.05
840.882	13.77
841.053	10.62
841.223	14.92
841.394	13.91
841.564	13.33
841.735	19.08
841.906	24.29
842.076	17.14
842.247	24.83
842.417	26.05
842.588	34.14
842.758	37.84
842.929	40.93
843.099	43.29
843.27	41.18
843.44	44.61
843.611	42.16
843.781	37
843.951	38.35
844.122	34.06
844.292	36.48
844.462	33.72
844.633	32.64
844.803	34.35
844.973	26.81
845.144	26.44
845.314	20.77
845.484	17.08
845.654	18.03
845.824	17.32
845.995	22.9
846.165	20.67
846.335	22.51
846.505	28.77
846.675	34.23
846.845	38.69
847.015	49.94
847.185	43.51
847.355	37.74
847.525	45.21
847.695	48.41
847.865	42.65
848.035	47.25
848.205	45.07
848.375	50.33
848.545	38.24
848.715	41.15
848.884	37.19
849.054	45.22
849.224	50.7
849.394	52.76
849.564	44.03
849.733	52.93
849.903	49.94
850.073	50.3
850.243	31
850.412	40.08
850.582	36.65
850.752	39.83
850.921	43.65
851.091	46.97
851.26	43.75
851.43	46.78
851.599	35.89
851.769	32.64
851.939	35.5
852.108	39.66
852.278	29.56
852.447	36.79
852.616	38.3
852.786	26.22
852.955	25.89
853.125	21.04
853.294	18.33
853.463	19.71
853.633	23.09
853.802	8.41
853.971	21.04
854.141	26.43
854.31	22.39
854.479	17.19
854.648	14.82
854.818	13.03
854.987	15.85
855.156	24.22
855.325	17.03
855.494	17.87
855.663	26.07
855.832	17.43
856.001	21.43
856.171	26.31
856.34	31.39
856.509	41.93
856.678	40.34
856.847	44.69
857.016	46.94
857.185	57.71
857.353	53.66
857.522	64.96
857.691	65.97
857.86	59.95
858.029	41.29
858.198	29.99
858.367	22.47
858.535	21.67
858.704	10.16
858.873	15.41
859.042	9.01
859.21	20.12
859.379	12.97
859.548	-4.87
859.717	15.44
859.885	33.42
860.054	51.07
860.222	51.01
860.391	55.66
860.56	60.56
860.728	59.88
860.897	63.83
861.065	49.66
861.234	42.05
861.402	59.89
861.571	44.43
861.739	31.28
861.908	22.57
862.076	33.75
862.244	26.1
862.413	25.47
862.581	20.43
862.749	21.41
862.918	30.85
863.086	35.78
863.254	33.63
863.423	37.95
863.591	47.34
863.759	36.16
863.927	18.23
864.096	19.04
864.264	27.91
864.432	32.01
864.6	29.49
864.768	28.04
864.936	28.72
865.104	29.16
865.272	24.52
865.44	24.69
865.608	29.73
865.776	36.52
865.944	36.51
866.112	30.22
866.28	31.48
866.448	33.87
866.616	32.62
866.784	31.88
866.952	39.92
867.12	38.28
867.288	29.34
867.455	26.9
867.623	24.95
867.791	35.3
867.959	32.44
868.127	29.05
868.294	23.24
868.462	41.92
868.63	46.84
868.797	44.96
868.965	40.3
869.133	49.61
869.3	57.73
869.468	58.82
869.636	45.33
869.803	52.52
869.971	53
870.138	59.48
870.306	52.11
870.473	49.27
870.641	52.06
870.808	60.03
870.975	45.76
871.143	42.96
871.31	45.59
871.478	55.32
871.645	50.17
871.812	48.85
871.98	34.27
872.147	22.08
872.314	21.63
872.482	16.57
872.649	11.23
872.816	22.77
872.983	26.82
873.15	33.81
873.318	19.15
873.485	23.64
873.652	33.15
873.819	39.97
873.986	43.84
874.153	40.96
874.32	36.58
874.487	47.55
874.654	47.47
874.821	39.77
874.988	30.11
875.155	39.48
875.322	43.79
875.489	43.75
875.656	41.77
875.823	46.8
875.99	46.62
876.157	46.19
876.324	35.35
876.49	43.93
876.657	60
876.824	71.47
876.991	75.43
877.157	66.16
877.324	69.19
877.491	75.37
877.658	61.67
877.824	56.09
877.991	62.1
878.157	69.11
878.324	63.98
878.491	55.06
878.657	45.28
878.824	36
878.99	38.64
879.157	28.28
879.323	16.52
879.49	38.99
879.656	48.33
879.823	54.06
879.989	50.77
880.156	53.87
880.322	56.45
880.488	65.39
880.655	55.39
880.821	47.14
880.987	49.5
881.154	48.84
881.32	46.6
881.486	40.96
881.652	32.66
881.819	29.47
881.985	26.16
882.151	30.46
882.317	28.73
882.483	30.99
882.649	28.05
882.816	27.5
882.982	26.97
883.148	26.52
883.314	28.36
883.48	27.51
883.646	25.59
883.812	24.78
883.978	18.68
884.144	16.23
884.31	15.51
884.476	18.92
884.642	16.89
884.807	16.14
884.973	14.24
885.139	12.41
885.305	15.52
885.471	18.55
885.637	16.84
885.802	19.91
885.968	24.33
886.134	26.66
886.3	28.04
886.465	28.48
886.631	32.56
886.797	34.36
886.962	33.54
887.128	29.3
887.293	23.66
887.459	26.21
887.625	23.07
887.79	27.52
887.956	29.1
888.121	24.7
888.287	27.71
888.452	17.77
888.618	15.6
888.783	25.09
