Data from 2938024_Reflection_2.txt Node
Date: Sun Jul 12 15:19:40 EDT 2015
User: robert
Spectrometer: USB4E03001
Autoset integration time: false
Trigger mode: 4
Integration Time (sec): 1.000000E-1
Scans to average: 10
Electric dark correction enabled: true
Nonlinearity correction enabled: false
Boxcar width: 5
Stray light correction enabled: false
XAxis mode: Wavelengths
Stop averaging: false
Number of Pixels in Spectrum: 3648
>>>>>Begin Spectral Data<<<<<
177.566	246.76
177.785	-1371.02
178.005	-797.87
178.225	79.81
178.445	34.5
178.665	9.21
178.885	5.67
179.105	-190.97
179.324	-184.53
179.544	206.91
179.764	164.25
179.984	143.93
180.204	312.79
180.423	192.93
180.643	152.92
180.863	-82.22
181.083	-76.01
181.302	-667.23
181.522	-425.7
181.742	-294.43
181.961	-921.48
182.181	-162.63
182.401	-130.91
182.621	-244.05
182.84	-310.98
183.06	-138.16
183.279	-92.96
183.499	-133.64
183.719	-110.1
183.938	-114.61
184.158	-80.7
184.377	-40.27
184.597	-49.84
184.816	-42.93
185.036	-55.23
185.256	-67.63
185.475	-127.68
185.695	-145.36
185.914	-143.16
186.134	-133.1
186.353	-96.68
186.572	-110.38
186.792	-151.89
187.011	-217.76
187.231	-5702.84
187.45	-862.29
187.67	-162.06
187.889	-58.68
188.108	-69.8
188.328	-67.95
188.547	-41.61
188.766	-74.75
188.986	-448.6
189.205	813.22
189.424	1952.67
189.644	4764.18
189.863	5221.51
190.082	340.45
190.302	334.48
190.521	-2590.16
190.74	-132.3
190.959	-96.22
191.178	-210.15
191.398	-77.18
191.617	-39.43
191.836	-34.76
192.055	-25.06
192.274	-1.12
192.494	27.08
192.713	32.59
192.932	16.89
193.151	-0.7
193.37	7.22
193.589	12.33
193.808	24.74
194.027	-11.98
194.246	31.39
194.465	35.14
194.685	181.43
194.904	182.24
195.123	250.43
195.342	164.1
195.561	178.42
195.78	149.06
195.999	253.68
196.218	128.02
196.436	180.68
196.655	927.97
196.874	873.98
197.093	5116.67
197.312	-331.75
197.531	2211.36
197.75	-1.32
197.969	-19.5
198.188	38.9
198.407	11.62
198.625	8.73
198.844	45.99
199.063	29.03
199.282	43.18
199.501	57.22
199.719	80.54
199.938	76.8
200.157	48.42
200.376	56.58
200.594	55.09
200.813	60.82
201.032	72.3
201.251	93.92
201.469	50.62
201.688	42.54
201.907	57.7
202.125	128.95
202.344	-29.17
202.563	500.53
202.781	263.06
203	82.21
203.218	-0.17
203.437	52.89
203.656	43.17
203.874	116.42
204.093	54.79
204.311	35.14
204.53	23.26
204.748	51.4
204.967	54.65
205.185	87.68
205.404	78.84
205.622	41.82
205.841	36.01
206.059	33.54
206.278	40.27
206.496	-4.67
206.715	-12.8
206.933	-18.12
207.151	-25.08
207.37	-39.12
207.588	-44.9
207.806	-50.75
208.025	-85.96
208.243	-73.6
208.461	-52.32
208.68	-84.64
208.898	12.27
209.116	5.1
209.335	15.96
209.553	34.07
209.771	35.15
209.989	2.57
210.208	-8.07
210.426	27.11
210.644	44.24
210.862	45.31
211.081	47.66
211.299	34.95
211.517	24.08
211.735	21.52
211.953	-101.86
212.171	-86.34
212.39	16.06
212.608	41.21
212.826	11.28
213.044	-52.06
213.262	-246.05
213.48	3553.81
213.698	-1266.25
213.916	-205.02
214.134	-343.9
214.352	-391.43
214.57	-430.94
214.788	-484.19
215.006	-375.65
215.224	-1074.69
215.442	-905.25
215.66	-290.24
215.878	-285.6
216.096	-384.68
216.314	-643.78
216.532	-254.56
216.75	-196.45
216.968	-308.07
217.185	-356.12
217.403	-151.55
217.621	-44.47
217.839	15.98
218.057	16.1
218.275	12.42
218.492	18.92
218.71	18.82
218.928	23.14
219.146	10
219.363	4.09
219.581	6.62
219.799	12.65
220.017	12.32
220.234	14.96
220.452	20.83
220.67	5.44
220.887	4.7
221.105	-16.24
221.323	-30.14
221.54	-2.21
221.758	8.93
221.976	23.17
222.193	18.35
222.411	2.07
222.629	-3.35
222.846	-10.2
223.064	7.89
223.281	29.07
223.499	40.77
223.716	49.87
223.934	55.84
224.151	61.94
224.369	44.87
224.586	22.85
224.804	30.77
225.021	22.5
225.239	10.79
225.456	18.01
225.674	4.65
225.891	-13.62
226.108	-24.4
226.326	-18.12
226.543	-19.28
226.76	-22
226.978	-6
227.195	0.87
227.413	-5.16
227.63	3.23
227.847	5.24
228.064	-0.99
228.282	8.22
228.499	17.01
228.716	19.85
228.934	21.26
229.151	19.84
229.368	18.7
229.585	16.04
229.802	19.73
230.02	17.66
230.237	17.87
230.454	23.36
230.671	21.11
230.888	17.05
231.105	15.69
231.323	13
231.54	17.91
231.757	21.17
231.974	18.69
232.191	16.25
232.408	15.03
232.625	8.41
232.842	0.37
233.059	-1.6
233.276	5.13
233.493	7.78
233.71	13.73
233.927	4.62
234.144	0.02
234.361	6.73
234.578	7.03
234.795	13.07
235.012	11.41
235.229	15.04
235.446	17.25
235.663	13.83
235.879	5.45
236.096	-1.29
236.313	2.11
236.53	6.82
236.747	-3.38
236.964	-2.88
237.181	-8.92
237.397	-1.96
237.614	-2.73
237.831	-0.46
238.048	0.18
238.264	3.18
238.481	5.33
238.698	2.54
238.915	-1.02
239.131	3.12
239.348	4.75
239.565	9.45
239.781	10.83
239.998	12.04
240.215	14.27
240.431	13.59
240.648	10.35
240.865	9.33
241.081	11.92
241.298	11.5
241.514	13.72
241.731	15.17
241.947	14.25
242.164	12.95
242.38	12.81
242.597	12.56
242.814	13.29
243.03	14.25
243.246	14.43
243.463	12.42
243.679	12.42
243.896	12.31
244.112	9.75
244.329	11.54
244.545	9.49
244.762	9.61
244.978	7.06
245.194	8.71
245.411	9.6
245.627	12.85
245.843	15.05
246.06	15.61
246.276	14.78
246.492	16.63
246.709	14.85
246.925	15.12
247.141	15.25
247.357	15.54
247.574	14.46
247.79	13.39
248.006	12.56
248.222	12.86
248.439	12.99
248.655	13.61
248.871	12.73
249.087	13.21
249.303	13.74
249.519	12.91
249.736	12.16
249.952	10.9
250.168	11.26
250.384	9.12
250.6	7.18
250.816	6.51
251.032	3.9
251.248	-0.17
251.464	2.63
251.68	0.61
251.896	-2.56
252.112	-2.59
252.328	-1.78
252.544	0.21
252.76	0.01
252.976	0.44
253.192	-1.54
253.408	1.99
253.624	7.42
253.84	7.67
254.056	7.5
254.272	11.1
254.487	11.32
254.703	9.84
254.919	6.72
255.135	11.14
255.351	10.71
255.567	14.47
255.782	5.66
255.998	0.28
256.214	-2.1
256.43	2.84
256.646	2.73
256.861	5.49
257.077	6.58
257.293	8.9
257.508	7.03
257.724	6.14
257.94	5.72
258.155	8.9
258.371	10.26
258.587	9.44
258.802	9.05
259.018	8.34
259.234	7.48
259.449	7.6
259.665	7.26
259.88	7.98
260.096	8.34
260.312	8.79
260.527	8.47
260.743	8.23
260.958	8.34
261.174	8.14
261.389	7.75
261.605	7.81
261.82	8.16
262.036	8.01
262.251	8.09
262.466	7.05
262.682	6.64
262.897	5.97
263.113	5.56
263.328	5.47
263.543	3.25
263.759	4.51
263.974	4.27
264.189	2.54
264.405	2.35
264.62	1.71
264.835	3.52
265.051	1.23
265.266	3.77
265.481	3.46
265.696	5.32
265.912	8.63
266.127	8.79
266.342	9.49
266.557	10.06
266.773	12.61
266.988	12.08
267.203	10.92
267.418	11.38
267.633	10.45
267.848	10.17
268.064	9.57
268.279	8.21
268.494	8.43
268.709	8
268.924	7.67
269.139	6.3
269.354	6.51
269.569	5.02
269.784	5.33
269.999	4.37
270.214	5.32
270.429	4.54
270.644	5.85
270.859	4.65
271.074	5.49
271.289	6.34
271.504	6.13
271.719	4.66
271.934	6.36
272.149	5.97
272.363	6.47
272.578	5.23
272.793	4.38
273.008	3.19
273.223	4.16
273.438	4.07
273.653	4.37
273.867	3.91
274.082	6.31
274.297	6.94
274.512	9.6
274.726	9.27
274.941	10.59
275.156	11.62
275.371	11.45
275.585	10.71
275.8	8.27
276.015	6.2
276.229	5.23
276.444	2.92
276.659	1.34
276.873	-1.74
277.088	1.46
277.302	1.42
277.517	0.54
277.732	1.05
277.946	0.95
278.161	1.31
278.375	0.97
278.59	3.52
278.804	3.54
279.019	4.74
279.233	5.9
279.448	2.74
279.662	2.2
279.877	4.5
280.091	6.01
280.306	6.15
280.52	7.95
280.735	9.22
280.949	8.46
281.163	8.91
281.378	8.26
281.592	7.72
281.806	8.41
282.021	7.11
282.235	6.96
282.449	4.76
282.664	5.68
282.878	6.63
283.092	7.44
283.307	6.46
283.521	7.89
283.735	7.77
283.949	8.95
284.164	9.39
284.378	10.88
284.592	8.92
284.806	9.53
285.02	9.3
285.234	7.8
285.449	8.26
285.663	9.03
285.877	9.64
286.091	10.31
286.305	9.73
286.519	9.85
286.733	10.96
286.947	11.6
287.161	12.86
287.375	13.16
287.589	13.75
287.803	13.12
288.017	12.37
288.231	9.97
288.445	10.63
288.659	11.03
288.873	9.67
289.087	8.61
289.301	9.15
289.515	6.79
289.729	6.89
289.943	7.58
290.157	8.74
290.371	8.9
290.584	10
290.798	9.95
291.012	8.8
291.226	9.41
291.44	8.7
291.654	8.17
291.867	8.7
292.081	7.54
292.295	7.11
292.509	7.06
292.722	7.85
292.936	8.4
293.15	8.78
293.364	10.66
293.577	12.26
293.791	11.9
294.005	12.94
294.218	13.09
294.432	14.54
294.645	14.99
294.859	13.99
295.073	14.87
295.286	15.55
295.5	13.04
295.713	12.36
295.927	10.57
296.14	13.09
296.354	11.84
296.568	14.1
296.781	13.87
296.994	13.8
297.208	13.71
297.421	13.48
297.635	11.02
297.848	11.62
298.062	11.52
298.275	11.87
298.489	11.21
298.702	11.99
298.915	9.72
299.129	9.72
299.342	8.09
299.555	8.04
299.769	7.23
299.982	8.94
300.195	9.29
300.409	8.57
300.622	7.8
300.835	7.64
301.048	7.75
301.262	7.21
301.475	7.52
301.688	11.16
301.901	10.1
302.115	10.07
302.328	10.26
302.541	11.34
302.754	12.28
302.967	13.9
303.18	13.65
303.393	11.88
303.607	13.43
303.82	12.59
304.033	9.55
304.246	10.66
304.459	11.57
304.672	10.74
304.885	9.92
305.098	9.98
305.311	9.71
305.524	10.31
305.737	11.83
305.95	11.55
306.163	9.88
306.376	10.99
306.589	9.25
306.802	6.56
307.015	6.14
307.228	5.15
307.44	3.27
307.653	2.71
307.866	0.24
308.079	-0.61
308.292	-0.45
308.505	4.46
308.718	5.1
308.93	7.5
309.143	8.03
309.356	10.5
309.569	11.46
309.781	11.82
309.994	12.37
310.207	12.29
310.42	12.28
310.632	13.84
310.845	12.2
311.058	12.56
311.27	12.1
311.483	11.9
311.696	10.39
311.908	10.13
312.121	10.72
312.333	10.29
312.546	11.3
312.759	12.96
312.971	9.73
313.184	9.69
313.396	8.22
313.609	7.17
313.821	8.81
314.034	8.96
314.246	9.52
314.459	8.99
314.671	9.71
314.884	8.92
315.096	7.5
315.309	11.02
315.521	11.44
315.733	13.13
315.946	14.78
316.158	14.03
316.371	13.95
316.583	13.13
316.795	14.01
317.008	12.66
317.22	12.59
317.432	8.94
317.644	8.16
317.857	7.35
318.069	4.84
318.281	5.01
318.494	3.73
318.706	4.29
318.918	4.14
319.13	4.78
319.342	2.4
319.555	3.2
319.767	4.7
319.979	2.17
320.191	4.8
320.403	5.69
320.615	2.65
320.827	4.65
321.039	3.67
321.252	2.5
321.464	1.73
321.676	3.33
321.888	1.02
322.1	3.15
322.312	4.03
322.524	2.25
322.736	2.18
322.948	4.3
323.16	4.6
323.372	7.67
323.584	8.65
323.796	8.03
324.007	10.1
324.219	11.19
324.431	12.21
324.643	11.31
324.855	11.25
325.067	10.44
325.279	9.79
325.491	9.41
325.702	8.57
325.914	10.68
326.126	10.2
326.338	10.74
326.55	11.21
326.761	8.82
326.973	11.2
327.185	9.54
327.396	10.35
327.608	11.56
327.82	11.66
328.032	10.19
328.243	8.13
328.455	7.53
328.666	7.35
328.878	7.85
329.09	9.48
329.301	7.81
329.513	10.15
329.725	9.44
329.936	9.05
330.148	8.39
330.359	9.22
330.571	11.28
330.782	11.26
330.994	9.76
331.205	9.07
331.417	8.94
331.628	8.57
331.84	7.19
332.051	9.72
332.262	9.27
332.474	8.62
332.685	7.3
332.897	3.55
333.108	5.08
333.319	3.86
333.531	2.8
333.742	3.58
333.953	4.55
334.165	5.96
334.376	5.65
334.587	6.09
334.799	8.34
335.01	8.93
335.221	10.54
335.432	10.98
335.644	13.07
335.855	13.78
336.066	13.74
336.277	13.9
336.488	12.18
336.7	11.95
336.911	14.05
337.122	13.86
337.333	13.48
337.544	14.44
337.755	15.26
337.966	13.66
338.177	13.27
338.388	13.57
338.599	14.5
338.811	17.03
339.022	15.03
339.233	12.98
339.444	11.15
339.655	12.42
339.866	9.55
340.076	8.04
340.287	8.32
340.498	10.01
340.709	9.29
340.92	9.02
341.131	8.87
341.342	10.54
341.553	9.87
341.764	10.99
341.975	11.7
342.185	13.44
342.396	13.41
342.607	15.02
342.818	15.27
343.029	15.34
343.239	14.46
343.45	13.3
343.661	13.8
343.872	13.56
344.082	14.85
344.293	12.44
344.504	12.3
344.714	13.12
344.925	11
345.136	9.4
345.346	8.22
345.557	8.18
345.768	7.88
345.978	7.31
346.189	7.39
346.399	6.35
346.61	9.36
346.821	8.71
347.031	8.83
347.242	9.5
347.452	9.89
347.663	10.57
347.873	11.33
348.084	11.97
348.294	12.16
348.504	13.27
348.715	13.33
348.925	11.76
349.136	12.79
349.346	11.81
349.557	12.7
349.767	13.03
349.977	13.52
350.188	13.68
350.398	13
350.608	12.95
350.819	13.27
351.029	11.57
351.239	10.52
351.449	8.77
351.66	9.13
351.87	7.91
352.08	7.6
352.29	7.48
352.501	7.76
352.711	6.86
352.921	7.15
353.131	6.64
353.341	7.95
353.552	8.95
353.762	9.29
353.972	9.67
354.182	8.67
354.392	8.85
354.602	8.12
354.812	7.53
355.022	8.09
355.232	7.9
355.442	7.57
355.652	7.79
355.862	7.72
356.072	8.65
356.282	8.66
356.492	10.39
356.702	9.32
356.912	10.89
357.122	11.31
357.332	10.98
357.542	10.06
357.752	9.36
357.962	8.99
358.171	7.68
358.381	7.96
358.591	7.17
358.801	7.68
359.011	9.1
359.221	8.79
359.43	8.65
359.64	9.37
359.85	9.42
360.06	9.59
360.269	10.11
360.479	11.06
360.689	10.33
360.899	10.01
361.108	9.31
361.318	9.22
361.528	8.15
361.737	8.2
361.947	8
362.156	8.19
362.366	8.5
362.576	8.24
362.785	8.03
362.995	8.51
363.204	8.41
363.414	8.56
363.623	8.29
363.833	9.95
364.042	8.77
364.252	9.64
364.461	9.92
364.671	10.33
364.88	9.89
365.09	10.8
365.299	11.05
365.509	11.8
365.718	11.13
365.927	10.83
366.137	8.74
366.346	9.31
366.555	8.22
366.765	7.9
366.974	6.63
367.183	6.91
367.393	5.99
367.602	5.34
367.811	4.23
368.021	4.49
368.23	4.17
368.439	4.38
368.648	4.71
368.857	4.98
369.067	4.99
369.276	5.44
369.485	4.4
369.694	3.98
369.903	4.66
370.112	6.33
370.321	6.18
370.531	6.62
370.74	7.02
370.949	6.63
371.158	5.78
371.367	6.47
371.576	6.13
371.785	7.11
371.994	7.5
372.203	7.46
372.412	7.28
372.621	8.52
372.83	8.3
373.039	7.68
373.248	7.32
373.457	7.48
373.666	7.4
373.874	7
374.083	6.02
374.292	5.91
374.501	4.96
374.71	5.01
374.919	3.55
375.128	3.9
375.336	4.19
375.545	4.55
375.754	5.1
375.963	4.45
376.171	5.84
376.38	6.71
376.589	5.94
376.798	6.97
377.006	6.17
377.215	6.81
377.424	6.34
377.632	6.87
377.841	6.47
378.05	6.63
378.258	7.22
378.467	6.31
378.675	6.63
378.884	8
379.093	7.56
379.301	8.35
379.51	7.93
379.718	7.92
379.927	7.75
380.135	8.73
380.344	8.6
380.552	8.3
380.761	8.63
380.969	7.61
381.177	6.98
381.386	6.61
381.594	5.32
381.803	5.85
382.011	6.18
382.219	6.19
382.428	6.15
382.636	5.48
382.845	5.14
383.053	5.71
383.261	5.84
383.469	6.33
383.678	5.98
383.886	6.73
384.094	6.36
384.302	5.81
384.511	5.77
384.719	5.06
384.927	5.6
385.135	5.8
385.343	5.11
385.552	5.49
385.76	5.14
385.968	5.7
386.176	5.79
386.384	5.38
386.592	6.17
386.8	6.45
387.008	6.99
387.216	7.3
387.424	6.93
387.633	6.64
387.841	6.35
388.049	6.24
388.257	6.46
388.465	6.41
388.672	6.82
388.88	6.72
389.088	5.88
389.296	5.71
389.504	5.99
389.712	5.94
389.92	6.2
390.128	5.85
390.336	5.89
390.544	5.24
390.751	5.06
390.959	4.85
391.167	4.63
391.375	4.94
391.583	4.84
391.79	4
391.998	4.35
392.206	4.18
392.414	4.12
392.621	4.18
392.829	4.32
393.037	4.17
393.244	4.2
393.452	4.01
393.66	3.64
393.867	3.81
394.075	4.41
394.283	4.53
394.49	4.8
394.698	5
394.905	5.15
395.113	4.88
395.32	4.93
395.528	4.87
395.735	4.82
395.943	5.13
396.15	5.16
396.358	5
396.565	4.56
396.773	4.67
396.98	4.64
397.188	4.34
397.395	4.59
397.602	4.9
397.81	4.59
398.017	4.78
398.225	4.91
398.432	4.41
398.639	3.88
398.847	4.21
399.054	3.8
399.261	3.38
399.468	3.43
399.676	3.34
399.883	3.44
400.09	4.14
400.297	3.94
400.505	3.77
400.712	4.09
400.919	4.4
401.126	4.19
401.333	4.53
401.54	4.82
401.748	4.44
401.955	4.24
402.162	3.97
402.369	3.87
402.576	4.19
402.783	4.1
402.99	3.75
403.197	3.99
403.404	4.32
403.611	4.07
403.818	4.39
404.025	4.58
404.232	5.32
404.439	5.34
404.646	5.09
404.853	4.94
405.06	5.31
405.267	5.68
405.474	5.2
405.681	4.73
405.887	4.86
406.094	4.51
406.301	4.32
406.508	3.91
406.715	3.84
406.922	3.81
407.128	3.69
407.335	3.31
407.542	2.94
407.749	3.16
407.955	3.33
408.162	2.93
408.369	3.24
408.575	3.68
408.782	3.33
408.989	3.28
409.195	3.64
409.402	3.95
409.609	3.93
409.815	4.24
410.022	4.25
410.228	4.51
410.435	5.2
410.642	5.07
410.848	4.96
411.055	5.34
411.261	5.53
411.468	5.09
411.674	4.63
411.881	4.45
412.087	4.18
412.294	4.06
412.5	3.9
412.706	3.37
412.913	3.64
413.119	3.56
413.326	3.52
413.532	3.23
413.738	3.47
413.945	3.78
414.151	4.12
414.357	3.93
414.564	4.1
414.77	3.91
414.976	3.73
415.182	3.5
415.389	3.44
415.595	3.48
415.801	3.38
416.007	3.29
416.214	3.03
416.42	3.04
416.626	3.25
416.832	3.29
417.038	3.17
417.244	3.44
417.45	3.36
417.657	3.31
417.863	3.17
418.069	3.33
418.275	3.42
418.481	3.76
418.687	3.64
418.893	3.85
419.099	3.86
419.305	4.06
419.511	3.86
419.717	3.87
419.923	3.86
420.129	3.9
420.335	3.82
420.541	3.77
420.746	3.57
420.952	3.68
421.158	3.56
421.364	3.54
421.57	3.41
421.776	3.43
421.982	3.44
422.187	3.51
422.393	3.62
422.599	3.7
422.805	3.63
423.01	3.63
423.216	3.75
423.422	3.77
423.628	3.68
423.833	3.69
424.039	3.76
424.245	3.82
424.45	3.72
424.656	3.76
424.862	3.82
425.067	3.88
425.273	3.99
425.478	3.85
425.684	3.92
425.889	4.16
426.095	4.24
426.301	4.23
426.506	4.12
426.712	3.99
426.917	3.74
427.123	3.76
427.328	3.67
427.533	3.8
427.739	3.72
427.944	3.72
428.15	3.5
428.355	3.6
428.561	3.66
428.766	3.67
428.971	4.03
429.177	4.19
429.382	4.22
429.587	4.47
429.793	4.06
429.998	4.08
430.203	4.12
430.408	4
430.614	3.84
430.819	4
431.024	3.99
431.229	3.99
431.434	3.83
431.64	3.61
431.845	3.83
432.05	3.86
432.255	3.84
432.46	3.55
432.665	3.57
432.87	3.49
433.076	3.37
433.281	3.21
433.486	3.28
433.691	3.39
433.896	3.54
434.101	3.32
434.306	3.5
434.511	3.49
434.716	3.44
434.921	3.51
435.126	3.7
435.331	3.73
435.535	3.99
435.74	3.81
435.945	3.71
436.15	3.61
436.355	3.64
436.56	3.66
436.765	3.62
436.97	3.89
437.174	3.72
437.379	3.79
437.584	3.91
437.789	3.95
437.993	4.01
438.198	4.11
438.403	4.08
438.608	3.98
438.812	3.92
439.017	4.12
439.222	4.03
439.426	4.16
439.631	3.89
439.836	3.75
440.04	3.55
440.245	3.58
440.45	3.58
440.654	3.46
440.859	3.41
441.063	3.49
441.268	3.39
441.472	3.52
441.677	3.46
441.881	3.63
442.086	3.73
442.29	4
442.495	4.04
442.699	3.87
442.904	4.2
443.108	4.25
443.312	4.13
443.517	4.18
443.721	4.15
443.925	4.07
444.13	4.11
444.334	3.97
444.538	3.89
444.743	3.66
444.947	3.74
445.151	3.54
445.356	3.7
445.56	3.41
445.764	3.36
445.968	3.13
446.173	3.35
446.377	3.28
446.581	3.31
446.785	3.27
446.989	3.42
447.193	3.42
447.398	3.38
447.602	3.09
447.806	3.17
448.01	3.18
448.214	3.2
448.418	3.21
448.622	3.29
448.826	3.27
449.03	3.12
449.234	3.03
449.438	3.18
449.642	3.17
449.846	3.48
450.05	3.72
450.254	3.61
450.458	3.72
450.662	3.45
450.866	3.4
451.069	3.26
451.273	3.43
451.477	3.54
451.681	3.41
451.885	3.31
452.089	3.33
452.292	3.44
452.496	3.44
452.7	3.39
452.904	3.42
453.107	3.45
453.311	3.56
453.515	3.39
453.719	3.49
453.922	3.49
454.126	3.51
454.33	3.21
454.533	3.06
454.737	3.22
454.94	3.13
455.144	3.18
455.348	3.19
455.551	3.27
455.755	3.36
455.958	3.17
456.162	3.25
456.365	3.27
456.569	3.44
456.772	3.5
456.976	3.5
457.179	3.55
457.383	3.39
457.586	3.39
457.79	3.48
457.993	3.61
458.196	3.55
458.4	3.45
458.603	3.54
458.807	3.45
459.01	3.33
459.213	3.21
459.417	3.23
459.62	3.26
459.823	3.25
460.026	3.12
460.23	3.1
460.433	3.1
460.636	3.11
460.839	3.03
461.042	3.01
461.246	3.21
461.449	3.38
461.652	3.3
461.855	3.5
462.058	3.38
462.261	3.25
462.464	3.26
462.668	3.12
462.871	3.07
463.074	3.04
463.277	3.26
463.48	3.21
463.683	2.88
463.886	3.15
464.089	2.81
464.292	3
464.495	3.14
464.698	2.87
464.901	2.98
465.104	2.79
465.306	2.78
465.509	2.62
465.712	2.51
465.915	2.6
466.118	2.43
466.321	2.61
466.524	2.51
466.726	2.7
466.929	2.76
467.132	2.91
467.335	2.96
467.538	3.03
467.74	3
467.943	2.79
468.146	2.91
468.348	2.95
468.551	3.17
468.754	3.01
468.956	2.75
469.159	2.95
469.362	2.9
469.564	3.26
469.767	3.08
469.969	3.11
470.172	3.21
470.375	3.13
470.577	2.92
470.78	2.8
470.982	2.81
471.185	2.85
471.387	2.73
471.59	2.62
471.792	2.43
471.995	2.83
472.197	2.8
472.399	3.05
472.602	3.09
472.804	3.35
473.007	3.26
473.209	3.28
473.411	3.53
473.614	3.59
473.816	3.51
474.018	3.43
474.22	3.26
474.423	3.3
474.625	3
474.827	3.21
475.03	3.28
475.232	3.21
475.434	3.38
475.636	3.17
475.838	3.35
476.04	3.47
476.243	3.5
476.445	3.34
476.647	3.4
476.849	3.47
477.051	3.3
477.253	3.35
477.455	3.41
477.657	3.21
477.859	3.26
478.061	3.05
478.263	3.38
478.465	3.48
478.667	3.49
478.869	3.43
479.071	3.45
479.273	3.39
479.475	3.35
479.677	3.35
479.879	3.32
480.081	3.41
480.283	3.6
480.485	3.28
480.686	3.11
480.888	3.18
481.09	3.12
481.292	3.06
481.494	3.04
481.695	3.05
481.897	3.03
482.099	3.04
482.301	3.02
482.502	3
482.704	3.02
482.906	3.05
483.107	3.11
483.309	3.18
483.511	3.21
483.712	3.26
483.914	3.19
484.115	3.18
484.317	3.21
484.519	3.19
484.72	3.19
484.922	3.19
485.123	3.16
485.325	3.19
485.526	3.15
485.728	3.13
485.929	3.08
486.131	3.13
486.332	3.15
486.534	3.14
486.735	3.16
486.936	3.11
487.138	3.13
487.339	3.21
487.541	3.09
487.742	3.1
487.943	3.06
488.144	3.06
488.346	3.07
488.547	3.13
488.748	3.17
488.95	3.1
489.151	3.08
489.352	2.99
489.553	2.93
489.755	3
489.956	2.96
490.157	2.95
490.358	2.93
490.559	3
490.76	3.04
490.961	2.98
491.163	3.05
491.364	3.02
491.565	3.1
491.766	3.2
491.967	3.12
492.168	3.17
492.369	3.23
492.57	3.28
492.771	3.29
492.972	3.15
493.173	3.28
493.374	3.36
493.575	3.43
493.776	3.54
493.976	3.39
494.177	3.5
494.378	3.6
494.579	3.7
494.78	3.66
494.981	3.55
495.182	3.55
495.382	3.52
495.583	3.48
495.784	3.48
495.985	3.52
496.185	3.54
496.386	3.59
496.587	3.54
496.788	3.47
496.988	3.52
497.189	3.48
497.39	3.44
497.59	3.36
497.791	3.3
497.992	3.23
498.192	3.15
498.393	3.25
498.593	3.13
498.794	3.19
498.994	3.13
499.195	3.1
499.395	3.03
499.596	3.17
499.796	3.32
499.997	3.35
500.197	3.45
500.398	3.28
500.598	3.22
500.799	3.21
500.999	3.05
501.199	3.13
501.4	3.24
501.6	3.1
501.801	3.06
502.001	2.93
502.201	2.96
502.402	3
502.602	3.21
502.802	3.41
503.002	3.56
503.203	3.69
503.403	3.77
503.603	3.62
503.803	3.8
504.003	3.84
504.204	3.72
504.404	3.62
504.604	3.57
504.804	3.35
505.004	2.97
505.204	2.86
505.404	2.92
505.604	2.99
505.804	3.02
506.005	3.04
506.205	3.11
506.405	3.23
506.605	3.24
506.805	3.28
507.005	3.42
507.204	3.63
507.404	3.75
507.604	3.64
507.804	3.41
508.004	3.41
508.204	3.43
508.404	3.26
508.604	3.28
508.804	3.28
509.003	3.23
509.203	3.14
509.403	3.07
509.603	2.9
509.803	2.92
510.002	2.98
510.202	3.06
510.402	2.96
510.602	2.97
510.801	2.94
511.001	3.09
511.201	3.07
511.4	3.16
511.6	3.25
511.8	3.39
511.999	3.33
512.199	3.33
512.398	3.32
512.598	3.31
512.797	3.33
512.997	3.26
513.197	3.15
513.396	3.19
513.596	3.21
513.795	3.27
513.994	3.39
514.194	3.46
514.393	3.45
514.593	3.39
514.792	3.55
514.992	3.46
515.191	3.55
515.39	3.48
515.59	3.65
515.789	3.72
515.988	3.73
516.188	3.58
516.387	3.57
516.586	3.56
516.786	3.55
516.985	3.48
517.184	3.57
517.383	3.54
517.582	3.71
517.782	3.53
517.981	3.53
518.18	3.5
518.379	3.47
518.578	3.47
518.777	3.45
518.976	3.45
519.176	3.45
519.375	3.56
519.574	3.6
519.773	3.45
519.972	3.43
520.171	3.34
520.37	3.24
520.569	3.3
520.768	3.34
520.967	3.18
521.166	3.15
521.365	3.1
521.564	3.09
521.762	3.04
521.961	3.01
522.16	2.95
522.359	2.92
522.558	2.94
522.757	2.9
522.956	2.92
523.154	3.16
523.353	3.23
523.552	3.2
523.751	3.08
523.949	3.14
524.148	3.21
524.347	3.42
524.546	3.47
524.744	3.44
524.943	3.44
525.142	3.38
525.34	3.48
525.539	3.49
525.737	3.53
525.936	3.62
526.135	3.68
526.333	3.7
526.532	3.67
526.73	3.77
526.929	3.89
527.127	3.74
527.326	3.76
527.524	3.63
527.723	3.68
527.921	3.74
528.12	3.67
528.318	3.64
528.516	3.61
528.715	3.67
528.913	3.65
529.112	3.6
529.31	3.72
529.508	3.7
529.707	3.78
529.905	3.71
530.103	3.66
530.301	3.68
530.5	3.65
530.698	3.75
530.896	3.76
531.094	3.72
531.293	3.77
531.491	3.84
531.689	3.98
531.887	3.98
532.085	4.02
532.283	4.08
532.481	4.11
532.68	4.2
532.878	4.19
533.076	4.06
533.274	4.08
533.472	4.15
533.67	4.11
533.868	4.14
534.066	4.2
534.264	4.26
534.462	4.25
534.66	4.2
534.858	4.23
535.056	4.21
535.253	4.28
535.451	4.3
535.649	4.14
535.847	4.21
536.045	4.08
536.243	4.06
536.441	3.99
536.638	4.04
536.836	4.1
537.034	4.03
537.232	4.09
537.43	4.07
537.627	4.08
537.825	4.21
538.023	4.16
538.22	4.21
538.418	4.02
538.616	3.98
538.813	3.89
539.011	3.97
539.209	4.03
539.406	3.92
539.604	4.04
539.801	4.13
539.999	4.14
540.196	4.15
540.394	4.24
540.591	4.47
540.789	4.6
540.986	4.69
541.184	4.72
541.381	4.75
541.579	4.8
541.776	4.86
541.974	4.95
542.171	5.03
542.368	5.11
542.566	5.15
542.763	5.15
542.96	5.2
543.158	5.23
543.355	5.22
543.552	5.21
543.75	5.08
543.947	4.97
544.144	4.72
544.341	4.59
544.539	4.46
544.736	4.39
544.933	4.35
545.13	4.29
545.327	4.28
545.524	4.37
545.722	4.53
545.919	4.84
546.116	4.87
546.313	5.1
546.51	5.14
546.707	5.33
546.904	5.3
547.101	5.33
547.298	5.5
547.495	5.55
547.692	5.39
547.889	5.39
548.086	5.43
548.283	5.44
548.48	5.39
548.677	5.46
548.874	5.38
549.07	5.41
549.267	5.58
549.464	5.54
549.661	5.61
549.858	5.85
550.055	5.59
550.251	5.51
550.448	5.63
550.645	5.73
550.842	5.79
551.038	5.91
551.235	6
551.432	6.13
551.628	5.97
551.825	5.93
552.022	6.01
552.218	6.13
552.415	6.23
552.612	6.31
552.808	6.29
553.005	6.35
553.201	6.34
553.398	6.27
553.594	5.99
553.791	6.29
553.987	6.4
554.184	6.33
554.38	6.41
554.577	6.26
554.773	6.27
554.97	6.2
555.166	6.17
555.362	6.01
555.559	6.14
555.755	6.24
555.952	6.06
556.148	5.9
556.344	6.01
556.541	6.01
556.737	6.26
556.933	6.11
557.129	6.31
557.326	6.41
557.522	6.61
557.718	6.79
557.914	6.84
558.11	7.02
558.307	7.18
558.503	7.18
558.699	7.22
558.895	7.2
559.091	7.52
559.287	7.68
559.483	7.86
559.679	8.25
559.876	8.21
560.072	8.29
560.268	8.18
560.464	8.28
560.66	8.47
560.856	8.5
561.052	8.58
561.247	8.64
561.443	8.53
561.639	8.49
561.835	8.21
562.031	8.14
562.227	8.21
562.423	8.43
562.619	8.5
562.815	8.44
563.01	8.41
563.206	8.39
563.402	8.52
563.598	8.74
563.793	8.66
563.989	8.94
564.185	9.04
564.381	9
564.576	9.05
564.772	9.06
564.968	9.15
565.163	9.43
565.359	9.53
565.555	9.44
565.75	9.36
565.946	9.56
566.141	9.6
566.337	9.66
566.532	9.72
566.728	9.53
566.923	9.46
567.119	9.6
567.314	9.66
567.51	9.73
567.705	9.9
567.901	9.99
568.096	9.95
568.292	9.8
568.487	9.92
568.682	9.92
568.878	10.26
569.073	10.5
569.268	10.52
569.464	10.72
569.659	10.67
569.854	10.62
570.05	10.63
570.245	10.66
570.44	10.7
570.635	10.73
570.831	10.68
571.026	10.85
571.221	10.98
571.416	11.07
571.611	10.92
571.806	10.95
572.002	10.97
572.197	11.04
572.392	10.98
572.587	11.24
572.782	11.15
572.977	11.32
573.172	11.17
573.367	11.23
573.562	11.13
573.757	11.16
573.952	11.26
574.147	11.37
574.342	11.57
574.537	11.88
574.732	11.87
574.927	12.14
575.121	12.04
575.316	12.09
575.511	11.92
575.706	11.93
575.901	12.08
576.096	12.04
576.29	11.89
576.485	11.74
576.68	11.61
576.875	11.58
577.069	11.54
577.264	11.75
577.459	11.89
577.654	12.12
577.848	12.25
578.043	12.15
578.238	12.09
578.432	12.17
578.627	12.34
578.821	12.41
579.016	12.38
579.21	12.32
579.405	12.35
579.6	12.04
579.794	11.78
579.989	11.75
580.183	11.78
580.378	11.82
580.572	12.01
580.766	11.99
580.961	11.94
581.155	11.87
581.35	12.03
581.544	12.11
581.738	12.5
581.933	12.88
582.127	13.25
582.321	13.4
582.516	14.15
582.71	14.19
582.904	14.39
583.099	14.62
583.293	14.75
583.487	14.59
583.681	14.49
583.875	14.15
584.07	13.79
584.264	13.09
584.458	12.91
584.652	12.28
584.846	12.11
585.04	12.08
585.234	11.84
585.428	11.78
585.623	11.91
585.817	12.08
586.011	12.4
586.205	12.44
586.399	12.74
586.593	12.94
586.787	13.04
586.981	13.2
587.174	12.95
587.368	12.94
587.562	13.09
587.756	13.01
587.95	12.67
588.144	12.44
588.338	12.74
588.532	12.52
588.725	12.28
588.919	12.5
589.113	12.25
589.307	12.17
589.501	12.38
589.694	12.09
589.888	12.11
590.082	12.44
590.275	12.79
590.469	12.79
590.663	13.2
590.856	13.1
591.05	13.07
591.244	13.19
591.437	13.24
591.631	13.11
591.824	13.5
592.018	13.64
592.212	13.65
592.405	13.68
592.599	13.71
592.792	13.89
592.986	14.27
593.179	14.04
593.372	13.94
593.566	14.27
593.759	14.39
593.953	14.28
594.146	14.33
594.339	14.42
594.533	14.36
594.726	14.26
594.92	13.82
595.113	13.65
595.306	13.81
595.499	13.94
595.693	13.89
595.886	13.82
596.079	13.89
596.272	13.72
596.466	13.72
596.659	13.48
596.852	13.62
597.045	13.6
597.238	13.33
597.431	13.21
597.624	13.31
597.818	13.49
598.011	13.26
598.204	13.2
598.397	13.41
598.59	13.09
598.783	13.47
598.976	13.2
599.169	13.41
599.362	13.79
599.555	13.87
599.748	13.67
599.941	13.56
600.134	13.93
600.326	13.8
600.519	13.58
600.712	13.7
600.905	13.26
601.098	13.28
601.291	13.21
601.483	13.3
601.676	13.31
601.869	13.59
602.062	13.44
602.255	13.57
602.447	13.43
602.64	13.4
602.833	13.78
603.025	13.76
603.218	13.86
603.411	14.04
603.603	13.78
603.796	13.85
603.989	13.75
604.181	13.65
604.374	13.35
604.566	13.52
604.759	13.83
604.951	13.72
605.144	13.83
605.336	13.85
605.529	13.77
605.721	13.76
605.914	13.74
606.106	13.78
606.299	13.79
606.491	13.97
606.683	13.73
606.876	13.61
607.068	13.09
607.26	12.87
607.453	12.97
607.645	12.96
607.837	13.22
608.03	13.39
608.222	13.47
608.414	13.79
608.606	13.75
608.799	13.95
608.991	13.75
609.183	14.31
609.375	14.56
609.567	14.26
609.759	14.29
609.952	14.26
610.144	14.05
610.336	14.08
610.528	14.05
610.72	14
610.912	14.12
611.104	14.13
611.296	13.82
611.488	13.83
611.68	14.12
611.872	13.94
612.064	14.03
612.256	14.18
612.448	14.02
612.64	13.6
612.832	13.54
613.023	13.41
613.215	13.23
613.407	13.57
613.599	13.29
613.791	13.18
613.983	13.46
614.174	13.56
614.366	13.48
614.558	13.42
614.75	13.53
614.941	13.76
615.133	13.53
615.325	13.6
615.516	13.41
615.708	13.56
615.9	13.45
616.091	13.39
616.283	13.48
616.475	13.39
616.666	13.25
616.858	13.28
617.049	13.42
617.241	13.48
617.432	13.64
617.624	13.73
617.815	13.49
618.007	13.65
618.198	13.63
618.39	13.19
618.581	13.28
618.773	13.7
618.964	13.87
619.155	13.82
619.347	13.86
619.538	14.06
619.729	14.24
619.921	14.5
620.112	14.33
620.303	14.26
620.494	14.57
620.686	14.21
620.877	14.18
621.068	13.83
621.259	14.03
621.451	14.28
621.642	13.96
621.833	13.71
622.024	13.62
622.215	13.56
622.406	13.89
622.597	13.82
622.788	13.87
622.98	13.64
623.171	13.52
623.362	13.22
623.553	12.94
623.744	13
623.935	12.92
624.126	12.98
624.317	13.14
624.508	12.97
624.698	12.96
624.889	13.4
625.08	13.65
625.271	13.67
625.462	13.63
625.653	13.97
625.844	14.31
626.034	14.46
626.225	14.38
626.416	14.42
626.607	14.12
626.798	14.06
626.988	14.01
627.179	13.82
627.37	14.1
627.56	14.2
627.751	14.01
627.942	13.73
628.132	13.72
628.323	13.64
628.514	13.74
628.704	13.65
628.895	13.74
629.085	13.56
629.276	13.69
629.466	13.79
629.657	14.1
629.847	13.82
630.038	13.67
630.228	13.31
630.419	13.62
630.609	13.5
630.8	13.98
630.99	13.96
631.181	13.84
631.371	13.78
631.561	13.84
631.752	13.51
631.942	13.99
632.132	14.25
632.323	14.59
632.513	14.52
632.703	14.55
632.893	14.44
633.084	14.34
633.274	14.83
633.464	14.53
633.654	14.45
633.844	14.54
634.034	14.42
634.225	14.37
634.415	14.31
634.605	14.04
634.795	13.9
634.985	13.89
635.175	13.86
635.365	13.82
635.555	14.34
635.745	14.51
635.935	14.5
636.125	14.88
636.315	14.93
636.505	14.81
636.695	15.45
636.885	15.41
637.075	15.59
637.265	16.06
637.455	15.14
637.644	14.91
637.834	14.41
638.024	14.49
638.214	14.27
638.404	14.44
638.593	14.89
638.783	14.48
638.973	14.89
639.163	14.51
639.352	14.34
639.542	15.07
639.732	14.38
639.921	14.86
640.111	14.63
640.301	14.51
640.49	14.12
640.68	13.94
640.87	14.26
641.059	14.14
641.249	14.29
641.438	14.18
641.628	13.88
641.817	14.35
642.007	14.01
642.196	13.54
642.386	13.85
642.575	14.28
642.764	14.28
642.954	13.5
643.143	13.27
643.333	13.21
643.522	13.14
643.711	13.22
643.901	13.49
644.09	13.24
644.279	13.41
644.469	13.2
644.658	12.99
644.847	12.58
645.036	13.04
645.226	13.01
645.415	12.99
645.604	12.53
645.793	12.83
645.982	12.98
646.171	13.19
646.361	13.34
646.55	13.26
646.739	13.31
646.928	13.95
647.117	13.82
647.306	14.24
647.495	14.58
647.684	15.24
647.873	15.29
648.062	14.89
648.251	14.92
648.44	15.06
648.629	15.53
648.818	15.55
649.007	15.23
649.196	15.08
649.384	14.96
649.573	14.78
649.762	14.66
649.951	14.74
650.14	14.86
650.328	15.13
650.517	15.14
650.706	14.56
650.895	14.39
651.083	14.23
651.272	14.43
651.461	14.29
651.65	14.51
651.838	14.03
652.027	13.84
652.216	13.8
652.404	13.77
652.593	13.9
652.781	13.85
652.97	14.05
653.158	14.08
653.347	14.22
653.535	13.85
653.724	13.54
653.912	14.1
654.101	14.18
654.289	14.48
654.478	14.15
654.666	14.11
654.855	14.61
655.043	14.88
655.231	14.74
655.42	14.72
655.608	15.07
655.796	14.79
655.985	14.83
656.173	14.38
656.361	14.06
656.55	14.12
656.738	13.69
656.926	12.89
657.114	12.71
657.302	13.08
657.491	13.13
657.679	12.83
657.867	13.18
658.055	13.04
658.243	13.7
658.431	13.72
658.619	13.98
658.807	14.06
658.996	14.59
659.184	14.55
659.372	14.58
659.56	14.65
659.748	15
659.936	14.85
660.124	14.82
660.311	14.69
660.499	14.91
660.687	14.86
660.875	14.56
661.063	14.5
661.251	14.5
661.439	14.33
661.627	13.95
661.814	13.8
662.002	14.06
662.19	13.93
662.378	13.66
662.565	13.5
662.753	13.39
662.941	14.21
663.129	13.8
663.316	13.51
663.504	13.57
663.692	14.07
663.879	14.53
664.067	14.39
664.254	14.65
664.442	14.65
664.63	14.73
664.817	14.56
665.005	14.47
665.192	14.8
665.38	15.44
665.567	15.2
665.755	15.07
665.942	14.56
666.13	14.7
666.317	14.57
666.504	14.65
666.692	14.51
666.879	14.4
667.067	14.02
667.254	13.64
667.441	13.25
667.629	13.68
667.816	13.15
668.003	13.32
668.19	13
668.378	12.85
668.565	12.65
668.752	12.29
668.939	12.39
669.127	12.73
669.314	12.87
669.501	12.37
669.688	11.71
669.875	12.03
670.062	11.92
670.249	11.88
670.436	11.8
670.623	11.5
670.81	12.26
670.997	12.21
671.184	11.84
671.371	11.4
671.558	12.21
671.745	13.21
671.932	12.84
672.119	12.67
672.306	12.37
672.493	12.46
672.68	13.12
672.867	13.17
673.054	13.29
673.24	13.67
673.427	14.55
673.614	13.99
673.801	13.49
673.988	13.95
674.174	14.69
674.361	15.53
674.548	15.68
674.734	15.42
674.921	15.06
675.108	15.07
675.294	14.31
675.481	14.07
675.668	14.08
675.854	14.35
676.041	14.47
676.227	14.44
676.414	14.48
676.601	14.27
676.787	14.52
676.974	14.73
677.16	14.88
677.347	15.58
677.533	15.59
677.719	15.98
677.906	15.45
678.092	15.63
678.279	15.32
678.465	15.05
678.651	15.31
678.838	15.19
679.024	14.72
679.21	14.98
679.397	14.92
679.583	15.49
679.769	15.22
679.955	15.48
680.142	14.88
680.328	14.64
680.514	14.42
680.7	14.53
680.886	14.66
681.073	14.88
681.259	14.31
681.445	14.02
681.631	13.33
681.817	13.07
682.003	12.99
682.189	13.59
682.375	13.67
682.561	13.81
682.747	13.72
682.933	13.89
683.119	13.96
683.305	14.33
683.491	14.71
683.677	14.58
683.863	15.24
684.049	15.46
684.235	14.92
684.42	14.49
684.606	14.41
684.792	14.19
684.978	13.69
685.164	13.44
685.349	13.14
685.535	13.45
685.721	14.03
685.907	13.86
686.092	13.76
686.278	14.34
686.464	14.77
686.649	15.27
686.835	15.55
687.021	16.1
687.206	16.34
687.392	16.75
687.577	16.4
687.763	16.14
687.948	16.15
688.134	15.81
688.319	15.16
688.505	15.16
688.69	14.86
688.876	14.38
689.061	14.09
689.247	14.32
689.432	14.44
689.618	14.59
689.803	14.48
689.988	14.71
690.174	14.45
690.359	14.36
690.544	14.75
690.73	14.8
690.915	15.04
691.1	14.73
691.285	14.22
691.471	14.47
691.656	14.76
691.841	15.1
692.026	14.89
692.211	15.89
692.396	16.63
692.582	16.23
692.767	16.38
692.952	16.53
693.137	17.19
693.322	17.61
693.507	17.53
693.692	17.12
693.877	17.18
694.062	16.95
694.247	16.45
694.432	15.88
694.617	16.42
694.802	16.2
694.987	17.07
695.172	17.41
695.357	17.44
695.541	17.4
695.726	17.79
695.911	17.32
696.096	17.27
696.281	17.45
696.466	17.84
696.65	17.69
696.835	18.06
697.02	17.42
697.204	17.02
697.389	16.93
697.574	16.81
697.759	16.5
697.943	16.83
698.128	17.03
698.312	17.34
698.497	17.28
698.682	17.27
698.866	16.7
699.051	17.04
699.235	16.69
699.42	16.8
699.604	16.5
699.789	16.57
699.973	16.3
700.158	16.4
700.342	15.97
700.527	16.28
700.711	16.07
700.895	16.21
701.08	15.36
701.264	15.28
701.448	15.02
701.633	15.02
701.817	15.28
702.001	15.42
702.186	14.8
702.37	15.23
702.554	15.04
702.738	14.91
702.923	15.2
703.107	15.72
703.291	15.85
703.475	15.29
703.659	15.09
703.843	14.37
704.027	14.42
704.212	14.5
704.396	13.34
704.58	13.13
704.764	13.72
704.948	14.49
705.132	14.57
705.316	14.62
705.5	15.53
705.684	15.53
705.868	15.47
706.052	15.86
706.235	16.61
706.419	17.41
706.603	18.09
706.787	17.34
706.971	16.66
707.155	16.76
707.339	16.71
707.522	16.23
707.706	16.4
707.89	16.83
708.074	15.99
708.257	15.74
708.441	15.55
708.625	15.17
708.808	15.28
708.992	14.81
709.176	14.26
709.359	14.52
709.543	14.76
709.727	15.18
709.91	15.03
710.094	15.12
710.277	15.64
710.461	16.29
710.644	15.6
710.828	15.56
711.011	16.2
711.195	16.53
711.378	16.1
711.562	16.11
711.745	16.2
711.928	15.69
712.112	15.89
712.295	15.16
712.478	14.87
712.662	14.98
712.845	15.06
713.028	14.91
713.212	14.85
713.395	15.18
713.578	14.13
713.761	14.07
713.945	15.02
714.128	15.07
714.311	14.89
714.494	14.4
714.677	14.64
714.86	13.84
715.043	14.07
715.227	13.74
715.41	13.33
715.593	14.78
715.776	14.62
715.959	14.56
716.142	14.97
716.325	15.2
716.508	15.18
716.691	15.05
716.874	15.82
717.057	14.54
717.239	15.27
717.422	15.63
717.605	15.52
717.788	14.72
717.971	13.85
718.154	13.63
718.337	13.68
718.519	13.97
718.702	13.59
718.885	13.07
719.068	14.44
719.25	14.57
719.433	14.35
719.616	14.83
719.798	16.36
719.981	17.13
720.164	16.31
720.346	15.88
720.529	15.93
720.712	16.44
720.894	17.31
721.077	17.41
721.259	17.36
721.442	17.86
721.624	16.35
721.807	17.17
721.989	17.18
722.172	17.75
722.354	19.01
722.537	18.8
722.719	18.61
722.901	19.32
723.084	18.83
723.266	18.16
723.448	18.72
723.631	18.82
723.813	17.78
723.995	17.1
724.178	17.3
724.36	16.54
724.542	16.69
724.724	16.29
724.907	15.78
725.089	15.97
725.271	16.36
725.453	15.46
725.635	15.79
725.817	15.63
725.999	15.39
726.181	15.4
726.364	15.49
726.546	15.21
726.728	16.01
726.91	15.41
727.092	14.98
727.274	15.36
727.456	16.28
727.638	15.44
727.819	16.14
728.001	16.74
728.183	16.88
728.365	16.8
728.547	16.69
728.729	17.2
728.911	18.36
729.093	19.09
729.274	17.74
729.456	17.61
729.638	20.19
729.82	18.35
730.001	19.2
730.183	19.92
730.365	20.12
730.546	20.17
730.728	19.02
730.91	18.12
731.091	17.08
731.273	17.42
731.455	17.23
731.636	15.29
731.818	16.49
731.999	16.31
732.181	15.8
732.362	15
732.544	15.76
732.725	17.26
732.907	16.84
733.088	17.8
733.27	18.24
733.451	18.43
733.633	18.12
733.814	17.37
733.995	16.37
734.177	16.12
734.358	15.91
734.539	15.92
734.721	16.1
734.902	16.42
735.083	15.14
735.264	14.33
735.446	14.16
735.627	14.83
735.808	15.22
735.989	15.9
736.17	15.66
736.351	16.29
736.533	15.17
736.714	13.16
736.895	12.91
737.076	14.51
737.257	14.66
737.438	14.69
737.619	14.63
737.8	14.77
737.981	14.41
738.162	13.96
738.343	14.49
738.524	15.9
738.705	16.67
738.886	17.88
739.067	16.8
739.247	16.83
739.428	16.43
739.609	17.53
739.79	17.32
739.971	17.38
740.151	17.54
740.332	16.07
740.513	16.58
740.694	15.46
740.874	14.63
741.055	14.58
741.236	15.36
741.417	15.58
741.597	14
741.778	14.25
741.958	14.88
742.139	15.22
742.32	15.91
742.5	15
742.681	15.52
742.861	15.05
743.042	15.96
743.222	13.59
743.403	12.63
743.583	14.09
743.764	13.62
743.944	13.15
744.124	13.35
744.305	13.98
744.485	12.93
744.666	14.26
744.846	13.38
745.026	12.55
745.207	15.38
745.387	16.02
745.567	14
745.747	14.54
745.928	14.72
746.108	15.14
746.288	15.01
746.468	16.61
746.648	15.46
746.829	17.13
747.009	18.57
747.189	16.89
747.369	17.41
747.549	17.91
747.729	18.1
747.909	18.39
748.089	17.69
748.269	17.78
748.449	15.81
748.629	15.45
748.809	15.84
748.989	14.96
749.169	16.32
749.349	17.21
749.529	17.13
749.709	18.95
749.889	17.77
750.068	17.44
750.248	17.66
750.428	20.01
750.608	20.26
750.788	19.69
750.967	19.78
751.147	19.36
751.327	19.59
751.507	19.96
751.686	17.65
751.866	18.02
752.046	18.41
752.225	18.39
752.405	17.46
752.585	16.33
752.764	15.87
752.944	15.05
753.123	16.04
753.303	15.05
753.482	16.33
753.662	17.11
753.841	17.64
754.021	18.44
754.2	17.6
754.38	16.37
754.559	17.93
754.739	19.26
754.918	19.8
755.097	19.67
755.277	19.17
755.456	17.79
755.635	15.71
755.815	16.88
755.994	14.74
756.173	14.42
756.352	14.42
756.532	14.12
756.711	14.21
756.89	14.91
757.069	14.75
757.248	14.77
757.427	16.35
757.607	17.73
757.786	17.26
757.965	19.1
758.144	20.92
758.323	21.46
758.502	22.12
758.681	19.96
758.86	20.09
759.039	20.3
759.218	19.08
759.397	16.9
759.576	16.36
759.755	15.12
759.934	16.53
760.113	16.24
760.291	15.35
760.47	14.92
760.649	15.84
760.828	16.29
761.007	14.95
761.186	16.26
761.364	15.19
761.543	17.03
761.722	16.13
761.901	13.76
762.079	13
762.258	13.94
762.437	13.41
762.615	13.26
762.794	12.38
762.972	13.81
763.151	13.86
763.33	13.9
763.508	12.84
763.687	13.61
763.865	13.71
764.044	14.29
764.222	14.52
764.401	14.37
764.579	14.69
764.758	13.54
764.936	12.28
765.114	12.72
765.293	13.71
765.471	14.18
765.65	12.96
765.828	12.77
766.006	12.21
766.184	11.84
766.363	12.66
766.541	10.79
766.719	12.34
766.898	12.77
767.076	13.1
767.254	13.34
767.432	13.11
767.61	15.12
767.788	16.72
767.967	18.35
768.145	17.88
768.323	16.52
768.501	18.54
768.679	19.41
768.857	19.88
769.035	17.88
769.213	17.96
769.391	18.63
769.569	17.57
769.747	16.15
769.925	14.77
770.103	14.73
770.281	16.57
770.459	17.23
770.636	15.13
770.814	14.64
770.992	15.97
771.17	15.04
771.348	14.47
771.525	16.33
771.703	15.34
771.881	16
772.059	18.09
772.236	15.95
772.414	16.6
772.592	17.52
772.769	18.15
772.947	17.5
773.125	19.58
773.302	21.13
773.48	19.4
773.657	22.56
773.835	22.12
774.013	20.92
774.19	23.72
774.368	21.76
774.545	20.68
774.723	19.45
774.9	19.21
775.077	16.83
775.255	15.17
775.432	15.84
775.61	12.03
775.787	11.91
775.964	10.67
776.142	7.93
776.319	6.29
776.496	6.21
776.674	9.94
776.851	9.94
777.028	10.74
777.205	11.92
777.382	10.42
777.56	10.94
777.737	11.79
777.914	14.35
778.091	14.63
778.268	13.1
778.445	11.56
778.622	11.06
778.8	11.6
778.977	11.95
779.154	11.23
779.331	12.63
779.508	14.76
779.685	12.52
779.862	12.98
780.038	10.51
780.215	12.36
780.392	12.33
780.569	10.83
780.746	10.91
780.923	12.5
781.1	12.2
781.277	14.58
781.453	15.59
781.63	17.3
781.807	16.66
781.984	20.02
782.16	21.02
782.337	22.21
782.514	22.07
782.691	22.42
782.867	22.44
783.044	20.99
783.221	18.99
783.397	17.62
783.574	13.33
783.75	14.09
783.927	16.34
784.103	18.78
784.28	19.7
784.456	18.65
784.633	19.02
784.809	18.3
784.986	20.61
785.162	21.7
785.339	23.03
785.515	24.84
785.692	24.41
785.868	23.44
786.044	22.74
786.221	21.71
786.397	21.07
786.573	22.23
786.749	20.04
786.926	16.94
787.102	14.98
787.278	15.78
787.454	17.45
787.631	15.01
787.807	13.69
787.983	14.59
788.159	15.87
788.335	16.71
788.511	13.37
788.687	14.49
788.863	17.82
789.039	16.5
789.216	13.2
789.392	11.78
789.568	12.38
789.744	10.7
789.919	11.02
790.095	10.63
790.271	9.99
790.447	10.27
790.623	11.26
790.799	10.32
790.975	9.48
791.151	10.04
791.327	10.07
791.502	12.03
791.678	16.25
791.854	16.99
792.03	14.83
792.205	12.18
792.381	11.5
792.557	7.32
792.733	3.27
792.908	6.69
793.084	6.8
793.259	5.57
793.435	-0.18
793.611	-3.83
793.786	-9.73
793.962	-7.03
794.137	-6.33
794.313	-3.93
794.488	1.64
794.664	9.45
794.839	8.29
795.015	11.14
795.19	12.26
795.366	15.99
795.541	16.14
795.716	20.48
795.892	23.52
796.067	27.18
796.242	28.82
796.418	28.1
796.593	23.2
796.768	23.94
796.944	23.19
797.119	25.97
797.294	26
797.469	25.71
797.644	22.69
797.82	18.78
797.995	16.26
798.17	11.25
798.345	11.16
798.52	11.23
798.695	8.91
798.87	9.57
799.045	7.74
799.22	5.14
799.395	4.53
799.57	3.4
799.745	6.1
799.92	5.47
800.095	10.11
800.27	11.26
800.445	10.4
800.62	11.41
800.795	6.6
800.97	5.22
801.145	5.99
801.319	4.57
801.494	5.77
801.669	-1.08
801.844	0.9
802.018	0.15
802.193	-5.88
802.368	-5.52
802.543	0.3
802.717	2.68
802.892	-1.39
803.067	0.98
803.241	1.1
803.416	4.26
803.59	5.72
803.765	3.84
803.94	2.81
804.114	3.85
804.289	6.62
804.463	1.71
804.638	2.46
804.812	5.87
804.986	8.28
805.161	12.73
805.335	11.46
805.51	13.56
805.684	16.73
805.858	14.86
806.033	16.3
806.207	16.3
806.381	12.85
806.556	14.05
806.73	13.09
806.904	11.65
807.078	9.77
807.253	11.29
807.427	8.59
807.601	4.68
807.775	7.42
807.949	8.61
808.123	5.39
808.298	8.94
808.472	7.7
808.646	6.29
808.82	5.27
808.994	8.14
809.168	2.79
809.342	4.26
809.516	11.19
809.69	7.31
809.864	4.46
810.038	3.93
810.212	5.41
810.385	6.46
810.559	7.49
810.733	5.99
810.907	4.19
811.081	3.84
811.255	5.41
811.428	3.58
811.602	5.69
811.776	11.36
811.95	14.97
812.123	7.26
812.297	9.18
812.471	14.44
812.644	16.3
812.818	11.36
812.992	15.06
813.165	12.88
813.339	9.71
813.512	8.03
813.686	3.01
813.86	-0.12
814.033	7.84
814.207	2.33
814.38	1.58
814.554	1.42
814.727	6.38
814.9	7.24
815.074	6.57
815.247	4.59
815.421	8.28
815.594	5.58
815.767	7.8
815.941	4.98
816.114	7.35
816.287	3.19
816.46	0.91
816.634	-4.38
816.807	-4.97
816.98	-4.1
817.153	0.65
817.327	3.54
817.5	9.69
817.673	8.97
817.846	11.88
818.019	10.26
818.192	10.77
818.365	10.34
818.538	14.76
818.711	11.18
818.884	10.23
819.057	6.49
819.23	4.53
819.403	2.01
819.576	-1.14
819.749	1.64
819.922	2.4
820.095	7
820.268	13.58
820.441	13.22
820.614	16.73
820.786	16.61
820.959	17.52
821.132	18.65
821.305	16.54
821.477	18.03
821.65	17.04
821.823	16.61
821.996	15.24
822.168	13.28
822.341	13.43
822.514	13.35
822.686	14.33
822.859	13.89
823.031	13.63
823.204	14.58
823.376	15.81
823.549	16.05
823.722	16.38
823.894	15.94
824.067	16.42
824.239	15.75
824.411	15.04
824.584	15.32
824.756	15.84
824.929	15.15
825.101	13.63
825.273	12.23
825.446	11.54
825.618	11.86
825.79	12.45
825.963	13.02
826.135	12.76
826.307	14.48
826.479	14.65
826.652	16.65
826.824	17.62
826.996	20.55
827.168	20.04
827.34	21.08
827.512	19.9
827.684	19.71
827.856	17.26
828.029	18.58
828.201	17.85
828.373	16.78
828.545	14.58
828.717	14.69
828.889	13.18
829.061	13.05
829.232	9.28
829.404	9.08
829.576	8.04
829.748	10.12
829.92	14.06
830.092	14.74
830.264	15.56
830.436	17.05
830.607	18.31
830.779	18.81
830.951	19.2
831.123	23.08
831.294	23.46
831.466	26.68
831.638	26.44
831.809	22.43
831.981	19.03
832.153	18.13
832.324	18.51
832.496	10.86
832.667	9.52
832.839	6.98
833.011	11.38
833.182	10.01
833.354	7.4
833.525	10.37
833.697	6.63
833.868	5.12
834.039	4.41
834.211	1.52
834.382	4.47
834.554	4.17
834.725	4.76
834.896	1.05
835.068	2.39
835.239	4.16
835.41	1.09
835.581	1.86
835.753	1.87
835.924	3.57
836.095	4.7
836.266	4.65
836.438	4.23
836.609	5.99
836.78	6.3
836.951	8.34
837.122	6.37
837.293	8.28
837.464	8.32
837.635	10.88
837.806	5.93
837.977	10.77
838.148	13.82
838.319	15.75
838.49	13.9
838.661	12.19
838.832	10.8
839.003	13.85
839.174	13.51
839.345	12.4
839.516	10.92
839.687	14.16
839.857	7.87
840.028	11.03
840.199	5.93
840.37	8.02
840.54	14.01
840.711	8.63
840.882	10.81
841.053	9.64
841.223	14.88
841.394	16.38
841.564	14.23
841.735	13.11
841.906	8.5
842.076	18.71
842.247	17.34
842.417	10.94
842.588	11.08
842.758	1.43
842.929	4.17
843.099	11.37
843.27	18.69
843.44	15.82
843.611	23.77
843.781	17.43
843.951	13.08
844.122	16
844.292	8.11
844.462	11.1
844.633	18.88
844.803	3.56
844.973	-21.34
845.144	-31.46
845.314	-31.09
845.484	-89.07
845.654	-50.21
845.824	-37.33
845.995	-37.34
846.165	-16.67
846.335	1.03
846.505	5.42
846.675	14.85
846.845	15.58
847.015	10.65
847.185	8.34
847.355	15.21
847.525	17.15
847.695	8.9
847.865	14.74
848.035	15.48
848.205	11.51
848.375	5.35
848.545	9.29
848.715	17.66
848.884	17.4
849.054	10.75
849.224	8.53
849.394	4.65
849.564	-3.1
849.733	-20.93
849.903	-37.34
850.073	-26.11
850.243	-26.25
850.412	-34.01
850.582	-36.67
850.752	-21.73
850.921	-25.31
851.091	-16.9
851.26	-14.14
851.43	-0.53
851.599	3.95
851.769	13.71
851.939	2.95
852.108	16.57
852.278	6.06
852.447	5.22
852.616	-14.24
852.786	-15.75
852.955	-13.72
853.125	-31.63
853.294	-18.46
853.463	-19.39
853.633	-20.53
853.802	-25.09
853.971	-11.73
854.141	5.75
854.31	12.3
854.479	12.54
854.648	33.07
854.818	21.72
854.987	46.36
855.156	33.42
855.325	41.61
855.494	38.11
855.663	32.27
855.832	6.62
856.001	2.7
856.171	1.41
856.34	3.77
856.509	9.63
856.678	15.85
856.847	19.82
857.016	10.78
857.185	-5.03
857.353	-14.15
857.522	-11.85
857.691	-24.1
857.86	-23.86
858.029	-39.97
858.198	-32.76
858.367	-22.22
858.535	-21.11
858.704	-23.33
858.873	-15.94
859.042	0.36
859.21	18.48
859.379	13.42
859.548	18.16
859.717	18.11
859.885	13.19
860.054	15.84
860.222	-18.51
860.391	-9.32
860.56	-5.5
860.728	11.4
860.897	13.58
861.065	-0.07
861.234	13.63
861.402	25.11
861.571	34.14
861.739	38.98
861.908	42.38
862.076	64.41
862.244	64.59
862.413	72.21
862.581	54.68
862.749	42.3
862.918	37.99
863.086	26.3
863.254	26.06
863.423	16.88
863.591	24.6
863.759	23.61
863.927	24.38
864.096	17.02
864.264	6.7
864.432	11.71
864.6	7.83
864.768	10.74
864.936	29.51
865.104	31.76
865.272	25.82
865.44	31.69
865.608	6.87
865.776	-2.72
865.944	-14.08
866.112	-14.76
866.28	-10.04
866.448	3.7
866.616	9.53
866.784	2.42
866.952	-0.99
867.12	-10.8
867.288	-21.77
867.455	-7.68
867.623	-3.16
867.791	-8.69
867.959	1.45
868.127	-8.42
868.294	-7.65
868.462	-12.53
868.63	0.29
868.797	-5.93
868.965	-37.67
869.133	-15.79
869.3	-0.6
869.468	-36.16
869.636	-11.82
869.803	-16.56
869.971	-3.25
870.138	-9.95
870.306	-0.32
870.473	-7.93
870.641	3.06
870.808	26.74
870.975	17.83
871.143	-3.38
871.31	21.95
871.478	22.78
871.645	-1.26
871.812	-3.91
871.98	-2.56
872.147	-2.25
872.314	-8.61
872.482	-1.08
872.649	1.96
872.816	5
872.983	27.32
873.15	16.16
873.318	22.12
873.485	23.52
873.652	28.51
873.819	13.77
873.986	14.5
874.153	22.8
874.32	9.13
874.487	-2.9
874.654	8
874.821	-6.38
874.988	7.08
875.155	-2.81
875.322	-7.27
875.489	-4.05
875.656	1.03
875.823	-1.27
875.99	-7.81
876.157	11.26
876.324	22.51
876.49	28.06
876.657	20.18
876.824	33.54
876.991	31.24
877.157	35.75
877.324	37.68
877.491	61.16
877.658	18.41
877.824	18.62
877.991	18.71
878.157	32.14
878.324	22.98
878.491	38.58
878.657	23.85
878.824	24.14
878.99	23.44
879.157	21.76
879.323	22.05
879.49	23.09
879.656	26.96
879.823	26.85
879.989	7.35
880.156	1.14
880.322	-12.44
880.488	-18.73
880.655	-24.49
880.821	-9.86
880.987	-9.61
881.154	-3.43
881.32	-1.2
881.486	-10.59
881.652	-12.63
881.819	-5.63
881.985	-3.66
882.151	-4.2
882.317	-1.09
882.483	-2.5
882.649	-4.82
882.816	-3.47
882.982	-0.66
883.148	0.58
883.314	3.46
883.48	1.56
883.646	2.82
883.812	5.39
883.978	6.36
884.144	8.71
884.31	10.18
884.476	9
884.642	12.12
884.807	12.48
884.973	11.35
885.139	11.23
885.305	14.07
885.471	17.99
885.637	17.51
885.802	17.27
885.968	15.32
886.134	14.7
886.3	15.44
886.465	10.52
886.631	8.37
886.797	14.18
886.962	12.11
887.128	4.89
887.293	-9.25
887.459	-18.69
887.625	-13.5
887.79	-13.93
887.956	-21.7
888.121	-23.57
888.287	-26.88
888.452	-36.48
888.618	-70.9
888.783	-81.84
