Data from 2938074_Reflection_2.txt Node
Date: Sat Jul 11 20:29:12 EDT 2015
User: robert
Spectrometer: USB4E03001
Autoset integration time: false
Trigger mode: 4
Integration Time (sec): 1.000000E-1
Scans to average: 10
Electric dark correction enabled: true
Nonlinearity correction enabled: false
Boxcar width: 5
Stray light correction enabled: false
XAxis mode: Wavelengths
Stop averaging: false
Number of Pixels in Spectrum: 3648
>>>>>Begin Spectral Data<<<<<
177.566	-176.45
177.785	-287.75
178.005	-124.43
178.225	-115.59
178.445	-34.54
178.665	-15.22
178.885	50.69
179.105	144.22
179.324	202.1
179.544	-576.88
179.764	-32.71
179.984	1.07
180.204	-31.11
180.423	-135.86
180.643	-51.29
180.863	3.38
181.083	21.08
181.302	-23.53
181.522	-18.56
181.742	-72.16
181.961	-185.4
182.181	1152.65
182.401	-254.66
182.621	-82.12
182.84	-59.53
183.06	-295.17
183.279	-1821.36
183.499	-222.97
183.719	-219.55
183.938	-102.15
184.158	-151.82
184.377	-192.6
184.597	-58.73
184.816	-137.59
185.036	-964.99
185.256	-230.3
185.475	-22.21
185.695	-15.81
185.914	-36.93
186.134	6.82
186.353	-57.31
186.572	-27.27
186.792	-36.82
187.011	-23.96
187.231	9.78
187.45	41.15
187.67	37.59
187.889	62.36
188.108	-14.52
188.328	-31.05
188.547	-101.13
188.766	-32.6
188.986	-214.67
189.205	-130.12
189.424	-49.73
189.644	-57.62
189.863	-70.69
190.082	-97.75
190.302	-180.64
190.521	-87.07
190.74	-35.72
190.959	-16.45
191.178	-9.63
191.398	-2.22
191.617	13.89
191.836	-29.53
192.055	-117.6
192.274	-1.63
192.494	4.49
192.713	12.57
192.932	7.69
193.151	-11.91
193.37	-20.75
193.589	-40.54
193.808	-35.51
194.027	-10.2
194.246	22.55
194.465	27.41
194.685	2.26
194.904	10.61
195.123	1.36
195.342	8.79
195.561	-12.28
195.78	1.32
195.999	9.7
196.218	16.39
196.436	-13.71
196.655	-35.7
196.874	-1.91
197.093	-22.7
197.312	-42.5
197.531	-25.03
197.75	-23.37
197.969	-9.68
198.188	-55.2
198.407	-129.42
198.625	-132.04
198.844	-52.03
199.063	-58.57
199.282	-338.64
199.501	-62.57
199.719	118.38
199.938	133.48
200.157	176.31
200.376	217.74
200.594	-209.75
200.813	-811.11
201.032	40.56
201.251	46.74
201.469	74.03
201.688	84.34
201.907	176.33
202.125	443.39
202.344	734.44
202.563	133.25
202.781	-71.73
203	139.64
203.218	-64.81
203.437	2.34
203.656	7.03
203.874	16.73
204.093	29.59
204.311	37.74
204.53	27.18
204.748	22.8
204.967	17.72
205.185	13.1
205.404	13.68
205.622	18.13
205.841	9.56
206.059	-2.41
206.278	9.92
206.496	5.22
206.715	-1.37
206.933	-0.68
207.151	11.77
207.37	34.08
207.588	48.81
207.806	70.85
208.025	66.58
208.243	75.27
208.461	76.69
208.68	60.67
208.898	22.33
209.116	-55.21
209.335	-103.69
209.553	-80.06
209.771	-297.42
209.989	-175.4
210.208	-492.77
210.426	-1298.31
210.644	562.25
210.862	967.32
211.081	207.52
211.299	119.28
211.517	25.63
211.735	-68.2
211.953	-17.81
212.171	54.68
212.39	62.49
212.608	90.69
212.826	2545.65
213.044	-199.45
213.262	-145.36
213.48	-160.53
213.698	-183.32
213.916	-307.28
214.134	-349.97
214.352	-363.76
214.57	-2818.79
214.788	-252.25
215.006	-218.89
215.224	-203.82
215.442	-212.89
215.66	-283.16
215.878	-518.7
216.096	-185.63
216.314	-265.42
216.532	-364.29
216.75	-966.52
216.968	-617.78
217.185	-870.52
217.403	-551.55
217.621	-862.17
217.839	-149.74
218.057	-46.83
218.275	-40.31
218.492	-49.39
218.71	-14.75
218.928	-6.93
219.146	0.34
219.363	-8.56
219.581	-18.13
219.799	-23.56
220.017	-18.86
220.234	-15.61
220.452	-24.99
220.67	-26.27
220.887	-16.46
221.105	-63.23
221.323	-83.54
221.54	-62.54
221.758	-38.62
221.976	-13.05
222.193	-0.43
222.411	-10.75
222.629	-13.49
222.846	6.86
223.064	23.53
223.281	9.39
223.499	28.12
223.716	42.69
223.934	46.44
224.151	40.83
224.369	35.47
224.586	33.12
224.804	31.08
225.021	14.93
225.239	-7.5
225.456	-11.82
225.674	-4.62
225.891	1.74
226.108	1.17
226.326	0.84
226.543	-1.24
226.76	-3.79
226.978	-13.98
227.195	-13.36
227.413	-3.84
227.63	-3.24
227.847	1.98
228.064	1.51
228.282	1.83
228.499	-2.42
228.716	-0.34
228.934	0.81
229.151	0.1
229.368	2.34
229.585	0.96
229.802	4.24
230.02	6.77
230.237	6.06
230.454	2.71
230.671	-1.07
230.888	-0.23
231.105	-1.9
231.323	-4.66
231.54	-3.86
231.757	-0.08
231.974	3.78
232.191	-1.81
232.408	-2.26
232.625	-3.43
232.842	-0.99
233.059	4.25
233.276	2.56
233.493	2.52
233.71	2.29
233.927	3.17
234.144	0.76
234.361	2.55
234.578	-0.65
234.795	-3.63
235.012	-4.73
235.229	1.49
235.446	1.1
235.663	4.5
235.879	4.22
236.096	0.93
236.313	0.11
236.53	-4.79
236.747	-5.88
236.964	-1.21
237.181	5.13
237.397	7.93
237.614	6.79
237.831	7.9
238.048	7.79
238.264	5.66
238.481	14.29
238.698	16.05
238.915	19.42
239.131	21.06
239.348	18.64
239.565	11.52
239.781	9.25
239.998	7.79
240.215	9.41
240.431	8.86
240.648	12.2
240.865	9.05
241.081	9.71
241.298	8.94
241.514	6.92
241.731	7.66
241.947	9
242.164	10.69
242.38	10.27
242.597	8.8
242.814	8.48
243.03	6.8
243.246	8.49
243.463	8.5
243.679	9.44
243.896	11.22
244.112	11.52
244.329	12.36
244.545	11.16
244.762	10.96
244.978	11.45
245.194	11.65
245.411	12.78
245.627	9.51
245.843	9.43
246.06	8.54
246.276	7.4
246.492	8.17
246.709	7.73
246.925	7.7
247.141	8.42
247.357	8.36
247.574	8.9
247.79	9.15
248.006	9.48
248.222	8.92
248.439	8.33
248.655	8.41
248.871	6.95
249.087	7.51
249.303	8.1
249.519	7.54
249.736	7.8
249.952	7.53
250.168	6.21
250.384	7.69
250.6	6.89
250.816	7.46
251.032	5.71
251.248	6.35
251.464	5.33
251.68	6.09
251.896	5.27
252.112	4.98
252.328	5.29
252.544	5.69
252.76	4.19
252.976	4.38
253.192	4.02
253.408	3.91
253.624	4.83
253.84	4.65
254.056	4.13
254.272	4.1
254.487	5.64
254.703	3.23
254.919	2.13
255.135	4.73
255.351	5.78
255.567	7.77
255.782	7.76
255.998	6.71
256.214	7.62
256.43	5.1
256.646	6.22
256.861	6.29
257.077	9.09
257.293	11.3
257.508	9.11
257.724	8.72
257.94	7.75
258.155	9.23
258.371	9.21
258.587	8.84
258.802	9.56
259.018	8.84
259.234	8.83
259.449	7.89
259.665	7.17
259.88	7.21
260.096	6.58
260.312	6.73
260.527	6.72
260.743	6.9
260.958	6.82
261.174	6.32
261.389	6.16
261.605	5
261.82	4.79
262.036	4.22
262.251	4.03
262.466	5.45
262.682	4.26
262.897	4.09
263.113	4.09
263.328	4.44
263.543	3.81
263.759	5.49
263.974	5.84
264.189	6.95
264.405	6.84
264.62	5.73
264.835	3.81
265.051	5.05
265.266	4.89
265.481	4.82
265.696	5.12
265.912	4.16
266.127	3.19
266.342	3.84
266.557	4.17
266.773	4.84
266.988	4.47
267.203	4.6
267.418	4.41
267.633	4.39
267.848	3.43
268.064	4.14
268.279	5.27
268.494	6.74
268.709	5.93
268.924	4.07
269.139	3.38
269.354	4.42
269.569	2.98
269.784	2.65
269.999	1.77
270.214	1.98
270.429	0.63
270.644	0.32
270.859	-1.42
271.074	-0.16
271.289	0.29
271.504	0.82
271.719	0.59
271.934	2.72
272.149	3.87
272.363	4.94
272.578	5.92
272.793	5.37
273.008	5.97
273.223	6.94
273.438	6.99
273.653	7.58
273.867	7.68
274.082	8.32
274.297	7.26
274.512	6.98
274.726	5.88
274.941	5.44
275.156	6.39
275.371	7.09
275.585	6.97
275.8	6.57
276.015	6.87
276.229	7.18
276.444	6.81
276.659	7.64
276.873	7.66
277.088	7.17
277.302	7.74
277.517	7.01
277.732	6.52
277.946	5.17
278.161	6.07
278.375	6.18
278.59	6.6
278.804	6.78
279.019	5.62
279.233	5.23
279.448	5.85
279.662	4.59
279.877	5.07
280.091	4.38
280.306	6.45
280.52	4.4
280.735	4.7
280.949	5.7
281.163	5.74
281.378	7.32
281.592	7.48
281.806	8.27
282.021	7.76
282.235	7.3
282.449	7.38
282.664	6.06
282.878	7.95
283.092	7.8
283.307	6.2
283.521	6.1
283.735	5.42
283.949	4.99
284.164	4.3
284.378	5.04
284.592	6.47
284.806	6.9
285.02	7.24
285.234	6.76
285.449	6.65
285.663	5.98
285.877	6.16
286.091	5.84
286.305	5.26
286.519	5.54
286.733	6.45
286.947	5.95
287.161	6.11
287.375	6.02
287.589	5.97
287.803	6.63
288.017	8.28
288.231	8.72
288.445	9
288.659	10.09
288.873	9.43
289.087	8.15
289.301	8.02
289.515	7.78
289.729	7.55
289.943	7.64
290.157	6.43
290.371	5.84
290.584	5.27
290.798	5.41
291.012	5.02
291.226	5.56
291.44	5.81
291.654	5.32
291.867	5.25
292.081	5.52
292.295	5.31
292.509	4.99
292.722	4.6
292.936	4.16
293.15	4.57
293.364	4.66
293.577	5.09
293.791	5.35
294.005	4.32
294.218	4.36
294.432	3.81
294.645	3.04
294.859	4.32
295.073	5.01
295.286	5.22
295.5	3.99
295.713	4.15
295.927	3.81
296.14	4.05
296.354	5.45
296.568	5.74
296.781	6.25
296.994	6.05
297.208	6.52
297.421	5.51
297.635	5.55
297.848	6.29
298.062	6.54
298.275	7.07
298.489	6.76
298.702	5.82
298.915	6.1
299.129	6.86
299.342	7.55
299.555	6.75
299.769	8.23
299.982	8.87
300.195	7.72
300.409	7.06
300.622	5.73
300.835	6.45
301.048	7.59
301.262	6.66
301.475	6.3
301.688	5.71
301.901	5.76
302.115	4.62
302.328	4.08
302.541	4.79
302.754	5.17
302.967	5.74
303.18	5.49
303.393	6.11
303.607	6.44
303.82	5.82
304.033	6.02
304.246	5.81
304.459	5.89
304.672	5.68
304.885	4.67
305.098	3.72
305.311	3.7
305.524	2.2
305.737	0.36
305.95	0.26
306.163	-2.13
306.376	-1.43
306.589	-2.85
306.802	-2.59
307.015	-2.15
307.228	0.16
307.44	1.61
307.653	2.78
307.866	3.47
308.079	3.14
308.292	3.14
308.505	6.27
308.718	6.64
308.93	7.71
309.143	7.75
309.356	8.94
309.569	8.54
309.781	7.76
309.994	7.59
310.207	7.68
310.42	9.06
310.632	9.35
310.845	7.23
311.058	7.43
311.27	7.6
311.483	7.56
311.696	6.52
311.908	5.79
312.121	5.28
312.333	3.78
312.546	4.63
312.759	3.96
312.971	4.74
313.184	6.41
313.396	5.39
313.609	5.58
313.821	6.06
314.034	6.67
314.246	7.56
314.459	8.58
314.671	9.86
314.884	7.15
315.096	7.56
315.309	5.66
315.521	6.42
315.733	6.7
315.946	5.63
316.158	5.39
316.371	5.09
316.583	5.53
316.795	5.69
317.008	5.22
317.22	6.4
317.432	5.04
317.644	5.56
317.857	4.38
318.069	3.6
318.281	4.08
318.494	3.36
318.706	3
318.918	1.13
319.13	1.12
319.342	2.2
319.555	3.88
319.767	4.35
319.979	4.09
320.191	3.68
320.403	3.54
320.615	3.41
320.827	3.6
321.039	3.7
321.252	4.74
321.464	6.31
321.676	4.86
321.888	4.83
322.1	4.88
322.312	4.8
322.524	4.5
322.736	5
322.948	4.43
323.16	3.67
323.372	3.52
323.584	5
323.796	3.24
324.007	4.31
324.219	3.61
324.431	4.76
324.643	4.34
324.855	5.46
325.067	5.32
325.279	4.48
325.491	5.2
325.702	6.29
325.914	5.18
326.126	5.55
326.338	5.5
326.55	5.5
326.761	4.59
326.973	4.13
327.185	2.67
327.396	2.55
327.608	4.23
327.82	5.05
328.032	3.17
328.243	3.22
328.455	3.18
328.666	1.94
328.878	2.52
329.09	1.33
329.301	0.77
329.513	2.48
329.725	2.12
329.936	0.55
330.148	-0.98
330.359	0.56
330.571	-0.65
330.782	-0.78
330.994	-0.59
331.205	-2.38
331.417	-1.42
331.628	0.15
331.84	-0.02
332.051	1.28
332.262	2.62
332.474	3.28
332.685	4.01
332.897	4.84
333.108	4.52
333.319	6.23
333.531	6.59
333.742	7.15
333.953	7.82
334.165	8
334.376	7.85
334.587	8.89
334.799	9.64
335.01	8.56
335.221	7.79
335.432	7.75
335.644	7.49
335.855	7.75
336.066	7.99
336.277	7.11
336.488	6.27
336.7	5.68
336.911	4.35
337.122	3.55
337.333	3.54
337.544	4.59
337.755	4.49
337.966	5.13
338.177	5.64
338.388	6.05
338.599	6
338.811	5.66
339.022	6.81
339.233	6.83
339.444	7.26
339.655	6.88
339.866	7.1
340.076	7.82
340.287	6.85
340.498	6.59
340.709	6.2
340.92	7.28
341.131	7.5
341.342	6.25
341.553	7.08
341.764	6.42
341.975	6.32
342.185	6.49
342.396	6.69
342.607	6.39
342.818	6.46
343.029	6.63
343.239	5.29
343.45	5.86
343.661	6.67
343.872	5.94
344.082	6.93
344.293	7.57
344.504	7.67
344.714	7.74
344.925	8.25
345.136	7.39
345.346	7.41
345.557	8.08
345.768	8.68
345.978	8.46
346.189	8.75
346.399	8.32
346.61	7.76
346.821	7.23
347.031	6.69
347.242	6.16
347.452	6.64
347.663	5.68
347.873	5.38
348.084	5.81
348.294	6.75
348.504	5.57
348.715	5.56
348.925	6.54
349.136	6.17
349.346	5.57
349.557	5.69
349.767	5.9
349.977	6.34
350.188	6.54
350.398	5.33
350.608	4.58
350.819	4.48
351.029	4.16
351.239	3.13
351.449	3.57
351.66	4.25
351.87	4.07
352.08	4.22
352.29	4
352.501	4.26
352.711	4.55
352.921	4.79
353.131	5.91
353.341	5.51
353.552	5.78
353.762	6.41
353.972	6.59
354.182	6.32
354.392	6.16
354.602	7.06
354.812	5.94
355.022	4.74
355.232	4.2
355.442	4.91
355.652	5.81
355.862	5.16
356.072	4.64
356.282	4.7
356.492	4.91
356.702	5.06
356.912	4.53
357.122	5.3
357.332	5.97
357.542	5.85
357.752	5.03
357.962	4.79
358.171	5.76
358.381	5.91
358.591	5
358.801	5.1
359.011	4.88
359.221	4.31
359.43	4.75
359.64	4.77
359.85	4.82
360.06	4.84
360.269	4.45
360.479	3.91
360.689	3.31
360.899	4.05
361.108	4.39
361.318	3.93
361.528	3.98
361.737	4.29
361.947	4.15
362.156	4.01
362.366	4.94
362.576	4.88
362.785	4.79
362.995	5.17
363.204	4.64
363.414	4.71
363.623	5.36
363.833	5.27
364.042	4.45
364.252	4.81
364.461	5.46
364.671	4.6
364.88	4.66
365.09	5.19
365.299	5.2
365.509	5.05
365.718	4.73
365.927	4.76
366.137	4.94
366.346	4.69
366.555	5.16
366.765	4.43
366.974	4.24
367.183	4.16
367.393	3.59
367.602	3.45
367.811	4.17
368.021	5.14
368.23	5.03
368.439	5.17
368.648	6.07
368.857	5.44
369.067	6.39
369.276	6.89
369.485	7.32
369.694	7.47
369.903	7.28
370.112	7.3
370.321	5.97
370.531	5.62
370.74	6.01
370.949	4.49
371.158	4.19
371.367	4.04
371.576	3.51
371.785	3.48
371.994	3.54
372.203	3.69
372.412	3.73
372.621	3.66
372.83	3.96
373.039	3.69
373.248	4.48
373.457	4.66
373.666	4.92
373.874	4.51
374.083	4.8
374.292	4.93
374.501	4.95
374.71	4.63
374.919	4.62
375.128	4.7
375.336	4.65
375.545	4.65
375.754	4.78
375.963	3.95
376.171	4.37
376.38	4.38
376.589	4.46
376.798	4.75
377.006	4.51
377.215	4.16
377.424	3.79
377.632	3.21
377.841	3.34
378.05	3.51
378.258	3.98
378.467	4.09
378.675	3.8
378.884	3.79
379.093	3.42
379.301	3.65
379.51	4.13
379.718	4.3
379.927	4.65
380.135	4.22
380.344	4.6
380.552	4.64
380.761	4.54
380.969	4.27
381.177	3.51
381.386	3.75
381.594	3.95
381.803	3.89
382.011	3.91
382.219	3.9
382.428	4.15
382.636	3.09
382.845	2.67
383.053	2.11
383.261	1.89
383.469	2.49
383.678	1.95
383.886	1.8
384.094	1.95
384.302	1.59
384.511	1.57
384.719	1.53
384.927	1.94
385.135	1.56
385.343	2.14
385.552	2.56
385.76	2.38
385.968	2.47
386.176	2.4
386.384	2.21
386.592	2.44
386.8	3.09
387.008	3.38
387.216	3.49
387.424	3.75
387.633	3.25
387.841	2.87
388.049	2.65
388.257	2.7
388.465	2.45
388.672	2.4
388.88	2.11
389.088	1.52
389.296	1.55
389.504	1.62
389.712	1.3
389.92	1.74
390.128	1.79
390.336	2.09
390.544	2.19
390.751	2.5
390.959	2.66
391.167	3
391.375	2.86
391.583	2.53
391.79	2.02
391.998	2.38
392.206	2
392.414	2.28
392.621	2.35
392.829	1.98
393.037	2.02
393.244	2.02
393.452	1.88
393.66	1.88
393.867	1.65
394.075	2.08
394.283	1.87
394.49	2.01
394.698	2
394.905	1.96
395.113	2.4
395.32	2.33
395.528	2.21
395.735	2.29
395.943	2.47
396.15	2.82
396.358	2.9
396.565	3.19
396.773	3.25
396.98	3.26
397.188	3.21
397.395	2.88
397.602	2.89
397.81	2.95
398.017	2.74
398.225	2.4
398.432	2.35
398.639	1.74
398.847	1.52
399.054	1.6
399.261	1.84
399.468	2.06
399.676	1.9
399.883	1.88
400.09	1.88
400.297	1.95
400.505	2.14
400.712	2.4
400.919	2.66
401.126	2.69
401.333	2.48
401.54	2.06
401.748	1.73
401.955	1.97
402.162	2.14
402.369	2.25
402.576	2.53
402.783	2.79
402.99	2.48
403.197	2.33
403.404	2.27
403.611	2.47
403.818	2.72
404.025	2.84
404.232	2.88
404.439	2.49
404.646	2.48
404.853	2.34
405.06	2.18
405.267	2.25
405.474	2.3
405.681	2.46
405.887	2.21
406.094	1.98
406.301	1.79
406.508	1.73
406.715	1.94
406.922	1.59
407.128	1.67
407.335	1.71
407.542	1.56
407.749	1.7
407.955	1.48
408.162	1.79
408.369	1.97
408.575	2.31
408.782	2.36
408.989	2.18
409.195	2.3
409.402	2.15
409.609	2.1
409.815	2.3
410.022	2.46
410.228	2.34
410.435	2.2
410.642	2.05
410.848	1.66
411.055	1.57
411.261	1.74
411.468	1.79
411.674	1.75
411.881	1.59
412.087	1.5
412.294	1.23
412.5	1.8
412.706	1.73
412.913	1.86
413.119	1.94
413.326	1.95
413.532	2.11
413.738	2.15
413.945	2.19
414.151	2.39
414.357	2.31
414.564	2.4
414.77	1.99
414.976	2.11
415.182	2.06
415.389	2.26
415.595	2.11
415.801	1.98
416.007	1.96
416.214	2
416.42	1.99
416.626	2.14
416.832	2.06
417.038	2.01
417.244	1.89
417.45	1.84
417.657	1.77
417.863	1.85
418.069	1.77
418.275	1.8
418.481	1.77
418.687	1.72
418.893	1.69
419.099	1.67
419.305	1.82
419.511	1.85
419.717	1.83
419.923	1.8
420.129	1.92
420.335	2.09
420.541	1.97
420.746	2.11
420.952	2.03
421.158	2.05
421.364	2.03
421.57	2.12
421.776	2.11
421.982	1.98
422.187	2.05
422.393	1.92
422.599	1.84
422.805	1.78
423.01	1.63
423.216	1.78
423.422	1.7
423.628	1.75
423.833	1.68
424.039	1.62
424.245	1.81
424.45	1.77
424.656	1.88
424.862	1.85
425.067	1.96
425.273	2.05
425.478	2.02
425.684	2.1
425.889	2.13
426.095	2.18
426.301	2.22
426.506	2.29
426.712	2.26
426.917	2.2
427.123	2.34
427.328	2.44
427.533	2.31
427.739	2.2
427.944	1.9
428.15	1.75
428.355	1.49
428.561	1.54
428.766	1.33
428.971	1.3
429.177	1.58
429.382	1.32
429.587	1.21
429.793	1.11
429.998	1.4
430.203	1.73
430.408	1.99
430.614	2.1
430.819	2.24
431.024	2.38
431.229	2.4
431.434	2.14
431.64	2.08
431.845	2.36
432.05	2.4
432.255	2.18
432.46	2.1
432.665	1.88
432.87	1.88
433.076	1.83
433.281	1.81
433.486	1.82
433.691	1.81
433.896	2.15
434.101	2.07
434.306	2.23
434.511	2.32
434.716	2.48
434.921	2.61
435.126	2.66
435.331	2.53
435.535	2.54
435.74	2.52
435.945	2.55
436.15	2.29
436.355	2.1
436.56	2
436.765	1.89
436.97	1.54
437.174	1.54
437.379	1.45
437.584	1.65
437.789	1.52
437.993	1.56
438.198	1.57
438.403	1.47
438.608	1.49
438.812	1.47
439.017	1.43
439.222	1.76
439.426	1.6
439.631	1.51
439.836	1.54
440.04	1.5
440.245	1.66
440.45	1.5
440.654	1.45
440.859	1.48
441.063	1.4
441.268	1.49
441.472	1.33
441.677	1.25
441.881	1.42
442.086	1.25
442.29	1.27
442.495	1.11
442.699	1.31
442.904	1.45
443.108	1.39
443.312	1.47
443.517	1.58
443.721	1.64
443.925	1.72
444.13	1.56
444.334	1.54
444.538	1.64
444.743	1.69
444.947	1.75
445.151	1.83
445.356	1.95
445.56	1.89
445.764	1.79
445.968	1.78
446.173	1.93
446.377	1.9
446.581	2
446.785	1.98
446.989	1.87
447.193	1.76
447.398	1.7
447.602	1.7
447.806	1.69
448.01	1.78
448.214	1.69
448.418	1.66
448.622	1.83
448.826	1.94
449.03	1.93
449.234	2
449.438	2.03
449.642	1.94
449.846	1.79
450.05	1.94
450.254	1.76
450.458	1.67
450.662	1.39
450.866	1.4
451.069	1.33
451.273	1.35
451.477	1.42
451.681	1.25
451.885	1.4
452.089	1.48
452.292	1.55
452.496	1.55
452.7	1.65
452.904	1.91
453.107	1.72
453.311	1.69
453.515	1.64
453.719	1.39
453.922	1.79
454.126	1.75
454.33	1.84
454.533	1.77
454.737	1.82
454.94	1.91
455.144	1.93
455.348	2.05
455.551	1.95
455.755	1.99
455.958	2.25
456.162	2.05
456.365	2.12
456.569	1.96
456.772	1.79
456.976	1.72
457.179	1.67
457.383	1.71
457.586	1.89
457.79	1.62
457.993	1.82
458.196	1.68
458.4	1.6
458.603	1.57
458.807	1.57
459.01	1.7
459.213	1.69
459.417	1.77
459.62	1.7
459.823	1.74
460.026	1.92
460.23	1.75
460.433	1.82
460.636	1.86
460.839	1.86
461.042	1.95
461.246	1.93
461.449	2.08
461.652	1.9
461.855	1.91
462.058	1.67
462.261	1.7
462.464	1.59
462.668	1.7
462.871	1.65
463.074	1.48
463.277	1.48
463.48	1.39
463.683	1.35
463.886	1.54
464.089	1.55
464.292	1.45
464.495	1.33
464.698	1.43
464.901	1.25
465.104	1.42
465.306	1.56
465.509	1.74
465.712	1.9
465.915	1.83
466.118	1.76
466.321	1.74
466.524	1.9
466.726	1.93
466.929	2.01
467.132	2.08
467.335	2
467.538	2.06
467.74	1.81
467.943	1.78
468.146	1.89
468.348	2.05
468.551	2.21
468.754	2.32
468.956	2.35
469.159	2.24
469.362	2.22
469.564	2.18
469.767	1.99
469.969	2.01
470.172	2.01
470.375	1.99
470.577	1.87
470.78	1.53
470.982	1.52
471.185	1.64
471.387	1.68
471.59	1.64
471.792	1.67
471.995	1.87
472.197	1.98
472.399	1.87
472.602	1.9
472.804	1.87
473.007	1.95
473.209	1.82
473.411	1.73
473.614	1.65
473.816	1.77
474.018	1.6
474.22	1.48
474.423	1.22
474.625	1.21
474.827	1.14
475.03	1.09
475.232	1.34
475.434	1.4
475.636	1.4
475.838	1.47
476.04	1.37
476.243	1.5
476.445	1.68
476.647	1.78
476.849	1.87
477.051	2.02
477.253	2.07
477.455	1.92
477.657	1.79
477.859	1.81
478.061	1.8
478.263	1.75
478.465	1.84
478.667	1.73
478.869	1.72
479.071	1.7
479.273	1.5
479.475	1.51
479.677	1.61
479.879	1.72
480.081	1.77
480.283	1.75
480.485	1.89
480.686	1.8
480.888	1.81
481.09	1.88
481.292	1.84
481.494	1.93
481.695	1.9
481.897	1.82
482.099	1.81
482.301	1.76
482.502	1.82
482.704	1.8
482.906	1.81
483.107	1.83
483.309	1.84
483.511	1.83
483.712	1.82
483.914	1.78
484.115	1.79
484.317	1.76
484.519	1.73
484.72	1.7
484.922	1.71
485.123	1.74
485.325	1.68
485.526	1.62
485.728	1.64
485.929	1.59
486.131	1.7
486.332	1.68
486.534	1.71
486.735	1.82
486.936	1.84
487.138	1.81
487.339	1.77
487.541	1.79
487.742	1.87
487.943	1.8
488.144	1.82
488.346	1.79
488.547	1.84
488.748	1.87
488.95	1.82
489.151	1.82
489.352	1.82
489.553	1.83
489.755	1.78
489.956	1.79
490.157	1.87
490.358	1.8
490.559	1.71
490.76	1.62
490.961	1.56
491.163	1.57
491.364	1.54
491.565	1.6
491.766	1.62
491.967	1.77
492.168	1.69
492.369	1.72
492.57	1.87
492.771	1.83
492.972	1.88
493.173	1.92
493.374	1.92
493.575	1.93
493.776	1.89
493.976	1.8
494.177	1.78
494.378	1.91
494.579	1.96
494.78	1.87
494.981	1.99
495.182	1.94
495.382	1.84
495.583	1.96
495.784	2.16
495.985	2.23
496.185	2.26
496.386	2.22
496.587	2.26
496.788	2.23
496.988	2.16
497.189	2.17
497.39	2.3
497.59	2.4
497.791	2.19
497.992	2.06
498.192	1.92
498.393	1.94
498.593	1.99
498.794	1.76
498.994	1.73
499.195	1.76
499.395	1.89
499.596	1.87
499.796	1.96
499.997	2.11
500.197	2.23
500.398	2.24
500.598	2.38
500.799	2.13
500.999	2.12
501.199	2.07
501.4	2.1
501.6	2.12
501.801	2.01
502.001	1.9
502.201	1.85
502.402	1.79
502.602	1.85
502.802	1.71
503.002	1.82
503.203	1.96
503.403	2.09
503.603	2.11
503.803	2.09
504.003	2.11
504.204	2.05
504.404	2.09
504.604	1.9
504.804	1.86
505.004	1.87
505.204	2.03
505.404	1.86
505.604	1.87
505.804	1.8
506.005	1.76
506.205	1.82
506.405	1.9
506.605	1.86
506.805	1.97
507.005	2.04
507.204	1.94
507.404	1.77
507.604	1.96
507.804	1.88
508.004	1.91
508.204	1.91
508.404	1.9
508.604	1.91
508.804	1.94
509.003	2.02
509.203	2.07
509.403	2.18
509.603	2.24
509.803	2.21
510.002	2.2
510.202	2.21
510.402	2.22
510.602	2.27
510.801	2.33
511.001	2.34
511.201	2.39
511.4	2.33
511.6	2.43
511.8	2.43
511.999	2.35
512.199	2.31
512.398	2.28
512.598	2.27
512.797	2.23
512.997	2.24
513.197	2.21
513.396	2.11
513.596	2.05
513.795	1.88
513.994	1.95
514.194	2.08
514.393	2.2
514.593	2.16
514.792	2.29
514.992	2.22
515.191	2.18
515.39	2.34
515.59	2.48
515.789	2.59
515.988	2.81
516.188	2.75
516.387	2.61
516.586	2.62
516.786	2.64
516.985	2.47
517.184	2.69
517.383	2.68
517.582	2.63
517.782	2.52
517.981	2.47
518.18	2.34
518.379	2.39
518.578	2.52
518.777	2.47
518.976	2.55
519.176	2.57
519.375	2.55
519.574	2.44
519.773	2.39
519.972	2.46
520.171	2.53
520.37	2.59
520.569	2.59
520.768	2.45
520.967	2.48
521.166	2.45
521.365	2.6
521.564	2.49
521.762	2.55
521.961	2.5
522.16	2.52
522.359	2.53
522.558	2.35
522.757	2.32
522.956	2.47
523.154	2.42
523.353	2.39
523.552	2.42
523.751	2.44
523.949	2.48
524.148	2.49
524.347	2.46
524.546	2.36
524.744	2.39
524.943	2.38
525.142	2.31
525.34	2.5
525.539	2.51
525.737	2.41
525.936	2.48
526.135	2.54
526.333	2.6
526.532	2.65
526.73	2.76
526.929	2.96
527.127	2.96
527.326	3
527.524	3.03
527.723	3.04
527.921	3.01
528.12	2.93
528.318	2.93
528.516	2.95
528.715	2.95
528.913	2.94
529.112	2.87
529.31	2.86
529.508	2.85
529.707	2.71
529.905	2.73
530.103	2.75
530.301	2.8
530.5	2.79
530.698	2.78
530.896	2.85
531.094	2.85
531.293	2.95
531.491	2.93
531.689	2.92
531.887	2.95
532.085	2.88
532.283	2.92
532.481	2.94
532.68	3.04
532.878	3.07
533.076	3.01
533.274	3.03
533.472	3.03
533.67	3.14
533.868	3.22
534.066	3.31
534.264	3.33
534.462	3.33
534.66	3.44
534.858	3.39
535.056	3.37
535.253	3.45
535.451	3.45
535.649	3.51
535.847	3.43
536.045	3.42
536.243	3.39
536.441	3.36
536.638	3.38
536.836	3.3
537.034	3.21
537.232	3.23
537.43	3.15
537.627	3.23
537.825	3.06
538.023	3.19
538.22	3.19
538.418	3.26
538.616	3.44
538.813	3.53
539.011	3.54
539.209	3.68
539.406	3.84
539.604	3.91
539.801	3.9
539.999	4.12
540.196	4.07
540.394	4.11
540.591	4.03
540.789	4.07
540.986	3.96
541.184	3.99
541.381	4
541.579	4.07
541.776	4.1
541.974	4.08
542.171	4
542.368	3.97
542.566	3.94
542.763	4.06
542.96	4.03
543.158	4.15
543.355	4.11
543.552	4.15
543.75	4.06
543.947	4.01
544.144	4.05
544.341	4.12
544.539	4.26
544.736	4.41
544.933	4.43
545.13	4.58
545.327	4.63
545.524	4.72
545.722	4.63
545.919	4.69
546.116	4.74
546.313	4.73
546.51	4.8
546.707	4.82
546.904	4.78
547.101	4.79
547.298	4.65
547.495	4.74
547.692	4.88
547.889	4.94
548.086	4.98
548.283	5.12
548.48	5.21
548.677	5.15
548.874	5.07
549.07	5.06
549.267	5.04
549.464	5.13
549.661	5
549.858	4.96
550.055	5.1
550.251	4.89
550.448	4.81
550.645	4.7
550.842	4.92
551.038	5.13
551.235	5.3
551.432	5.26
551.628	5.41
551.825	5.51
552.022	5.43
552.218	5.52
552.415	5.63
552.612	5.47
552.808	5.75
553.005	5.55
553.201	5.59
553.398	5.7
553.594	5.76
553.791	5.62
553.987	5.63
554.184	5.66
554.38	5.74
554.577	5.82
554.773	6.17
554.97	5.99
555.166	5.95
555.362	6.02
555.559	5.84
555.755	5.89
555.952	6.2
556.148	6.18
556.344	6.2
556.541	6.09
556.737	6.14
556.933	6.07
557.129	6.27
557.326	6.53
557.522	6.47
557.718	6.67
557.914	6.78
558.11	6.7
558.307	6.72
558.503	6.77
558.699	6.88
558.895	6.83
559.091	6.86
559.287	6.93
559.483	6.94
559.679	6.99
559.876	6.83
560.072	6.91
560.268	6.78
560.464	6.91
560.66	6.92
560.856	6.86
561.052	6.99
561.247	7.08
561.443	7.04
561.639	7.02
561.835	7.09
562.031	7.15
562.227	7.01
562.423	7.03
562.619	7.06
562.815	7.13
563.01	7.16
563.206	7.15
563.402	7.07
563.598	7.2
563.793	7.46
563.989	7.46
564.185	7.58
564.381	7.86
564.576	7.86
564.772	7.87
564.968	8.02
565.163	8.25
565.359	8.28
565.555	8.33
565.75	8.44
565.946	8.25
566.141	8.24
566.337	8.3
566.532	8.25
566.728	8.46
566.923	8.53
567.119	8.51
567.314	8.42
567.51	8.46
567.705	8.58
567.901	8.48
568.096	8.49
568.292	8.53
568.487	8.37
568.682	8.34
568.878	8.59
569.073	8.46
569.268	8.45
569.464	8.43
569.659	8.59
569.854	8.58
570.05	8.51
570.245	8.67
570.44	8.78
570.635	9.02
570.831	9.08
571.026	8.78
571.221	8.95
571.416	9.11
571.611	9.23
571.806	9.13
572.002	9.26
572.197	9.37
572.392	9.5
572.587	9.54
572.782	9.51
572.977	9.55
573.172	9.6
573.367	9.61
573.562	9.41
573.757	9.35
573.952	9.36
574.147	9.21
574.342	9.17
574.537	9.17
574.732	9.13
574.927	9.26
575.121	9.11
575.316	9.13
575.511	8.99
575.706	9.25
575.901	9.37
576.096	9.67
576.29	9.8
576.485	9.71
576.68	9.6
576.875	9.59
577.069	9.56
577.264	9.76
577.459	9.78
577.654	9.93
577.848	9.76
578.043	9.71
578.238	9.52
578.432	9.54
578.627	9.77
578.821	9.86
579.016	9.9
579.21	9.86
579.405	10
579.6	10.28
579.794	10.39
579.989	10.21
580.183	10.11
580.378	10.11
580.572	10.12
580.766	10.25
580.961	10.09
581.155	10.23
581.35	10.28
581.544	10.19
581.738	10.1
581.933	10.12
582.127	10.49
582.321	10.59
582.516	10.87
582.71	10.74
582.904	10.67
583.099	10.95
583.293	10.67
583.487	10.28
583.681	10.14
583.875	10.12
584.07	10.3
584.264	10.25
584.458	10.14
584.652	9.5
584.846	9.56
585.04	9.49
585.234	9.32
585.428	9.44
585.623	9.93
585.817	10.2
586.011	10.38
586.205	10.12
586.399	10.1
586.593	10.18
586.787	10.6
586.981	10.58
587.174	10.59
587.368	10.5
587.562	10.6
587.756	10.47
587.95	10.19
588.144	10.12
588.338	10.23
588.532	10.26
588.725	10.46
588.919	10.27
589.113	10.31
589.307	10.26
589.501	10.37
589.694	10.42
589.888	10.56
590.082	10.65
590.275	10.57
590.469	10.71
590.663	10.69
590.856	10.55
591.05	10.73
591.244	10.87
591.437	10.89
591.631	11.03
591.824	10.79
592.018	10.81
592.212	10.85
592.405	10.92
592.599	10.52
592.792	10.57
592.986	10.67
593.179	10.7
593.372	10.54
593.566	10.65
593.759	10.55
593.953	10.69
594.146	10.57
594.339	10.82
594.533	10.95
594.726	11.12
594.92	11.06
595.113	11.06
595.306	10.88
595.499	11.11
595.693	11.06
595.886	11.16
596.079	11.41
596.272	11.33
596.466	11.27
596.659	11.15
596.852	10.98
597.045	11.19
597.238	11.35
597.431	11.45
597.624	11.26
597.818	11.15
598.011	11.21
598.204	11.12
598.397	11.32
598.59	11.17
598.783	10.95
598.976	11.15
599.169	11.03
599.362	10.7
599.555	10.7
599.748	10.63
599.941	10.61
600.134	10.62
600.326	10.56
600.519	10.57
600.712	10.64
600.905	10.92
601.098	10.85
601.291	10.87
601.483	10.92
601.676	10.83
601.869	11.23
602.062	11.33
602.255	11.11
602.447	11.14
602.64	11.11
602.833	11.06
603.025	11.02
603.218	11.3
603.411	11.19
603.603	11.26
603.796	11.37
603.989	11.19
604.181	11.13
604.374	11.26
604.566	11.28
604.759	11.23
604.951	11.18
605.144	11.14
605.336	10.97
605.529	11.02
605.721	10.96
605.914	10.84
606.106	10.67
606.299	10.86
606.491	10.76
606.683	10.73
606.876	10.67
607.068	10.97
607.26	11.03
607.453	11.02
607.645	11.07
607.837	11.33
608.03	11.37
608.222	11.38
608.414	11.35
608.606	11.35
608.799	11.46
608.991	11.65
609.183	11.29
609.375	11.18
609.567	11.26
609.759	11.24
609.952	11.12
610.144	11.18
610.336	11.37
610.528	11.3
610.72	11.34
610.912	11.46
611.104	11.25
611.296	11.46
611.488	11.62
611.68	11.63
611.872	11.58
612.064	11.54
612.256	11.76
612.448	11.68
612.64	11.77
612.832	11.9
613.023	11.69
613.215	11.82
613.407	11.96
613.599	11.95
613.791	11.99
613.983	12.23
614.174	12.47
614.366	12.21
614.558	12.23
614.75	12
614.941	11.87
615.133	11.74
615.325	12.08
615.516	11.93
615.708	11.98
615.9	12.11
616.091	11.79
616.283	11.66
616.475	11.53
616.666	11.38
616.858	11.96
617.049	11.99
617.241	11.98
617.432	11.43
617.624	11.29
617.815	11.1
618.007	11.25
618.198	11.41
618.39	11.33
618.581	11.63
618.773	11.88
618.964	11.31
619.155	11.31
619.347	11.33
619.538	11.33
619.729	11.06
619.921	11.18
620.112	10.8
620.303	10.77
620.494	11
620.686	10.99
620.877	11.22
621.068	11.64
621.259	11.53
621.451	11.68
621.642	11.81
621.833	12.21
622.024	12.34
622.215	12.21
622.406	12.13
622.597	12.1
622.788	12.11
622.98	11.55
623.171	11.47
623.362	11.38
623.553	11.15
623.744	11.23
623.935	10.97
624.126	10.85
624.317	11.24
624.508	11.5
624.698	11.29
624.889	11.18
625.08	11.51
625.271	11.25
625.462	11.35
625.653	11.26
625.844	11.38
626.034	11.56
626.225	11.62
626.416	11.53
626.607	11.57
626.798	11.64
626.988	11.57
627.179	11.43
627.37	11.51
627.56	11.56
627.751	11.71
627.942	11.78
628.132	11.65
628.323	11.72
628.514	11.69
628.704	11.69
628.895	11.83
629.085	12.1
629.276	12.3
629.466	12.08
629.657	12.02
629.847	12.13
630.038	12.13
630.228	12.32
630.419	11.83
630.609	11.73
630.8	11.42
630.99	11.16
631.181	10.72
631.371	10.77
631.561	11.08
631.752	11.32
631.942	11.24
632.132	10.9
632.323	10.86
632.513	11.37
632.703	11.75
632.893	11.68
633.084	11.72
633.274	11.79
633.464	11.79
633.654	11.57
633.844	11.23
634.034	11.26
634.225	11.29
634.415	11.24
634.605	10.93
634.795	10.81
634.985	10.86
635.175	11.16
635.365	11.14
635.555	11.03
635.745	11.25
635.935	11.52
636.125	11.38
636.315	11.07
636.505	11.36
636.695	11.47
636.885	11.34
637.075	11.9
637.265	11.64
637.455	11.79
637.644	11.58
637.834	11.87
638.024	12.01
638.214	12.1
638.404	12.53
638.593	12.61
638.783	12.79
638.973	12.57
639.163	12.06
639.352	11.73
639.542	11.74
639.732	11.89
639.921	11.44
640.111	11.17
640.301	11.06
640.49	10.92
640.68	10.52
640.87	10.3
641.059	10.7
641.249	10.94
641.438	11.37
641.628	11.24
641.817	10.85
642.007	10.81
642.196	10.36
642.386	10.34
642.575	10.41
642.764	10.45
642.954	10.52
643.143	9.98
643.333	9.6
643.522	9.22
643.711	9.55
643.901	9.96
644.09	10.22
644.279	10.62
644.469	10.43
644.658	10.4
644.847	10.41
645.036	10.28
645.226	10.35
645.415	10.41
645.604	10.27
645.793	10.32
645.982	10.37
646.171	9.98
646.361	9.89
646.55	10.24
646.739	10.3
646.928	10.65
647.117	10.78
647.306	10.98
647.495	10.88
647.684	11.42
647.873	10.97
648.062	10.61
648.251	10.98
648.44	10.87
648.629	10.96
648.818	11.24
649.007	11.2
649.196	11.49
649.384	11.57
649.573	11.94
649.762	12.18
649.951	12.77
650.14	13
650.328	12.76
650.517	12.93
650.706	13.13
650.895	12.56
651.083	12.17
651.272	11.54
651.461	11.79
651.65	11.8
651.838	11.17
652.027	10.9
652.216	11.03
652.404	11.13
652.593	11.23
652.781	10.6
652.97	11.1
653.158	11.18
653.347	11.6
653.535	11.31
653.724	11.24
653.912	11.36
654.101	11.01
654.289	10.88
654.478	11.15
654.666	11.24
654.855	11.47
655.043	11.19
655.231	10.61
655.42	10.58
655.608	10.31
655.796	10.17
655.985	10.33
656.173	10.41
656.361	10.36
656.55	10.28
656.738	10.33
656.926	10.53
657.114	10.87
657.302	11.19
657.491	10.83
657.679	11.52
657.867	11.59
658.055	11.86
658.243	11.94
658.431	11.74
658.619	11.48
658.807	11.34
658.996	11.2
659.184	11.3
659.372	11.48
659.56	11.51
659.748	11.13
659.936	11.21
660.124	10.62
660.311	10.65
660.499	10.76
660.687	11
660.875	10.98
661.063	11.15
661.251	10.57
661.439	10.52
661.627	10.87
661.814	10.78
662.002	10.43
662.19	10.5
662.378	10.53
662.565	10.31
662.753	10.31
662.941	10.72
663.129	10.8
663.316	11.72
663.504	11.72
663.692	11.3
663.879	11.53
664.067	12.02
664.254	12.25
664.442	12.23
664.63	12.35
664.817	11.76
665.005	11.43
665.192	10.91
665.38	9.78
665.567	9.57
665.755	9.35
665.942	9.46
666.13	9.1
666.317	9.32
666.504	8.94
666.692	9.27
666.879	9.93
667.067	9.88
667.254	9.98
667.441	10.61
667.629	10.9
667.816	11.48
668.003	11.53
668.19	11.79
668.378	11.46
668.565	11.87
668.752	11.93
668.939	11.44
669.127	11.23
669.314	11.85
669.501	11.61
669.688	11.52
669.875	12
670.062	11.73
670.249	11.57
670.436	11.78
670.623	11.6
670.81	11.62
670.997	12.12
671.184	12.24
671.371	11.75
671.558	12.11
671.745	12.06
671.932	11.19
672.119	11.05
672.306	11.15
672.493	10.65
672.68	10.7
672.867	10.89
673.054	10.76
673.24	11.19
673.427	11.14
673.614	10.81
673.801	10.44
673.988	10.41
674.174	10.5
674.361	9.88
674.548	10.27
674.734	10.37
674.921	10.33
675.108	9.72
675.294	9.18
675.481	9.38
675.668	9.59
675.854	10.14
676.041	10.83
676.227	10.85
676.414	11.26
676.601	11.31
676.787	10.9
676.974	10.3
677.16	10.01
677.347	9.81
677.533	9.72
677.719	9.84
677.906	9.89
678.092	9.54
678.279	9.52
678.465	9.6
678.651	9.64
678.838	10.16
679.024	10.48
679.21	11.15
679.397	11.57
679.583	11.91
679.769	11.34
679.955	11.14
680.142	11.07
680.328	11.28
680.514	11.22
680.7	11.43
680.886	11.48
681.073	11.46
681.259	11.5
681.445	11.45
681.631	11.26
681.817	11.07
682.003	10.5
682.189	10.77
682.375	10.8
682.561	11.29
682.747	11.44
682.933	11.55
683.119	11.62
683.305	12.03
683.491	11.81
683.677	11.83
683.863	12.37
684.049	13.56
684.235	13.55
684.42	13.35
684.606	12.69
684.792	12.42
684.978	12.27
685.164	12.38
685.349	11.98
685.535	11.95
685.721	11.74
685.907	12
686.092	11.74
686.278	11.8
686.464	11.58
686.649	12
686.835	11.95
687.021	11.66
687.206	11.89
687.392	12.02
687.577	12.4
687.763	12.21
687.948	12.42
688.134	11.97
688.319	12.42
688.505	12.83
688.69	12.42
688.876	12.53
689.061	12.44
689.247	12.17
689.432	11.9
689.618	12.03
689.803	12.09
689.988	11.93
690.174	12.23
690.359	11.18
690.544	10.8
690.73	11.08
690.915	10.73
691.1	10.78
691.285	10.48
691.471	10.62
691.656	10.38
691.841	10.43
692.026	10.1
692.211	10.1
692.396	10.39
692.582	10.88
692.767	10.97
692.952	11.59
693.137	11.6
693.322	11.72
693.507	12.29
693.692	12.01
693.877	12.48
694.062	12.71
694.247	13.03
694.432	12.86
694.617	12.63
694.802	12.44
694.987	11.92
695.172	11.75
695.357	11.85
695.541	11.06
695.726	10.87
695.911	10.04
696.096	10.01
696.281	9.54
696.466	9.92
696.65	10.06
696.835	10.5
697.02	11.14
697.204	11.06
697.389	10.65
697.574	10.62
697.759	11.03
697.943	11.37
698.128	11.36
698.312	11.61
698.497	11.57
698.682	11.39
698.866	11.11
699.051	11.07
699.235	11.61
699.42	12.07
699.604	12.27
699.789	12.07
699.973	12.15
700.158	12.42
700.342	12.33
700.527	12.94
700.711	13.06
700.895	13.19
701.08	13.22
701.264	13.25
701.448	12.73
701.633	12.6
701.817	12.74
702.001	12.73
702.186	12.36
702.37	12.35
702.554	11.68
702.738	11.93
702.923	11.44
703.107	10.63
703.291	9.55
703.475	9.72
703.659	9.28
703.843	8.84
704.027	8.52
704.212	8.37
704.396	9.02
704.58	8.98
704.764	8.57
704.948	9.14
705.132	10.54
705.316	10.78
705.5	11.12
705.684	12.36
705.868	12.73
706.052	13.61
706.235	13.57
706.419	13.89
706.603	14.1
706.787	14.61
706.971	13.94
707.155	13.01
707.339	14.22
707.522	14.39
707.706	13.46
707.89	13.65
708.074	13.83
708.257	14.85
708.441	15.06
708.625	14.54
708.808	13.7
708.992	14.47
709.176	14.54
709.359	13.92
709.543	13.7
709.727	14.78
709.91	15.21
710.094	15.13
710.277	14.35
710.461	13.34
710.644	13.48
710.828	14.68
711.011	14.58
711.195	14.5
711.378	14.1
711.562	13.76
711.745	13.56
711.928	13.27
712.112	13.08
712.295	13.41
712.478	13.3
712.662	13.53
712.845	13.25
713.028	13.33
713.212	13.18
713.395	13.01
713.578	13.65
713.761	12.01
713.945	11.98
714.128	11.71
714.311	11.66
714.494	12.09
714.677	11.29
714.86	10.92
715.043	11.19
715.227	11.28
715.41	12.49
715.593	12.1
715.776	13.09
715.959	12.66
716.142	12.06
716.325	11.71
716.508	11.33
716.691	11.69
716.874	12.06
717.057	11.33
717.239	11.6
717.422	10.67
717.605	10.53
717.788	10.27
717.971	10.21
718.154	10.36
718.337	11.08
718.519	11
718.702	11.12
718.885	11.18
719.068	11.03
719.25	10.34
719.433	10.84
719.616	10.36
719.798	10.86
719.981	11.14
720.164	11.59
720.346	10.45
720.529	10.42
720.712	9.91
720.894	8.96
721.077	8.67
721.259	10.27
721.442	10.18
721.624	11.43
721.807	11.59
721.989	12.35
722.172	13.11
722.354	13.19
722.537	13.37
722.719	14.31
722.901	14.74
723.084	15.53
723.266	13.47
723.448	12.7
723.631	11.47
723.813	10.49
723.995	9.19
724.178	8.48
724.36	10.06
724.542	9.01
724.724	8.39
724.907	7.87
725.089	8.51
725.271	9.74
725.453	10.38
725.635	11.44
725.817	12.03
725.999	12.26
726.181	12.42
726.364	10.83
726.546	12.57
726.728	13.01
726.91	13.52
727.092	12.39
727.274	11.97
727.456	11.65
727.638	10.83
727.819	11.46
728.001	12.24
728.183	11.77
728.365	12.71
728.547	12.66
728.729	13.31
728.911	13.77
729.093	14.06
729.274	13.9
729.456	13.58
729.638	14.81
729.82	14.02
730.001	13.15
730.183	13.33
730.365	12.48
730.546	11.53
730.728	10.68
730.91	9.77
731.091	10.56
731.273	10.61
731.455	10.94
731.636	10.25
731.818	10.07
731.999	10.44
732.181	10.43
732.362	10.43
732.544	11.4
732.725	12.64
732.907	12.79
733.088	11.19
733.27	11.98
733.451	12.48
733.633	11.6
733.814	11.96
733.995	11.67
734.177	10.35
734.358	10.54
734.539	9.96
734.721	8.99
734.902	9.74
735.083	10.37
735.264	9.39
735.446	8.71
735.627	9.34
735.808	9.75
735.989	10.2
736.17	11.5
736.351	12.06
736.533	12.46
736.714	12.52
736.895	11.94
737.076	11.53
737.257	11.71
737.438	12.55
737.619	13.56
737.8	12.56
737.981	12.55
738.162	12.67
738.343	11.56
738.524	11.37
738.705	11.13
738.886	11.01
739.067	12.39
739.247	11.88
739.428	10.87
739.609	9.86
739.79	10.39
739.971	10.66
740.151	10.19
740.332	10.97
740.513	10.72
740.694	11.08
740.874	11.25
741.055	10.49
741.236	11.2
741.417	11.58
741.597	11.22
741.778	9.69
741.958	9.04
742.139	8.56
742.32	8.44
742.5	8.59
742.681	9.38
742.861	8.57
743.042	7.88
743.222	7.39
743.403	7.37
743.583	8.75
743.764	10.21
743.944	9.5
744.124	10.61
744.305	11.8
744.485	11.04
744.666	10.71
744.846	10.76
745.026	10.76
745.207	11.46
745.387	11.35
745.567	10.03
745.747	10.05
745.928	10.15
746.108	9.46
746.288	8.12
746.468	7.39
746.648	6.01
746.829	6.94
747.009	6.1
747.189	5.98
747.369	6.01
747.549	6.06
747.729	7.01
747.909	8.9
748.089	9.4
748.269	9.42
748.449	11
748.629	11.74
748.809	12.35
748.989	13.91
749.169	13.36
749.349	13.32
749.529	13.91
749.709	12.41
749.889	11.09
750.068	11.59
750.248	11.81
750.428	11.47
750.608	11.04
750.788	10.32
750.967	10.12
751.147	10.55
751.327	10.38
751.507	10.74
751.686	11.22
751.866	10.66
752.046	9.71
752.225	10.04
752.405	10.18
752.585	11.5
752.764	11.16
752.944	12.42
753.123	12.45
753.303	12.99
753.482	12.51
753.662	13.33
753.841	13.47
754.021	13.29
754.2	13.52
754.38	13.37
754.559	10.99
754.739	10.66
754.918	9.46
755.097	8.03
755.277	7.06
755.456	6.99
755.635	6.35
755.815	6.31
755.994	6.82
756.173	5.2
756.352	4.95
756.532	5.12
756.711	5.79
756.89	6.12
757.069	6.45
757.248	6.81
757.427	7.66
757.607	7.47
757.786	7.3
757.965	7.41
758.144	9.03
758.323	8.64
758.502	8.38
758.681	7.92
758.86	7.3
759.039	8.13
759.218	8.21
759.397	7.22
759.576	7.12
759.755	7.34
759.934	7.19
760.113	5.41
760.291	5.52
760.47	5.68
760.649	5.88
760.828	7.19
761.007	6.69
761.186	6.39
761.364	6.28
761.543	5.96
761.722	6.92
761.901	7.5
762.079	8.14
762.258	9.09
762.437	9.93
762.615	9.87
762.794	9.54
762.972	10.38
763.151	11.24
763.33	12.18
763.508	12.93
763.687	13.33
763.865	12.96
764.044	13.28
764.222	13.6
764.401	12.88
764.579	13.4
764.758	13.67
764.936	13.31
765.114	12.62
765.293	12.12
765.471	11.12
765.65	11.91
765.828	12.02
766.006	12.79
766.184	11.93
766.363	12.51
766.541	11.9
766.719	12
766.898	13.1
767.076	14.02
767.254	14.32
767.432	14.24
767.61	13.01
767.788	13.7
767.967	12.8
768.145	12.58
768.323	12.87
768.501	13
768.679	13.25
768.857	12.81
769.035	10.93
769.213	11.01
769.391	12.15
769.569	12.56
769.747	13.1
769.925	12.3
770.103	13.78
770.281	14.4
770.459	13.65
770.636	11.31
770.814	11.87
770.992	12.62
771.17	9.68
771.348	9.21
771.525	7.67
771.703	6.55
771.881	5.92
772.059	4.19
772.236	3.16
772.414	4.18
772.592	5.38
772.769	3.89
772.947	4.88
773.125	10.06
773.302	11.53
773.48	11.13
773.657	9.93
773.835	11.84
774.013	12.74
774.19	12.21
774.368	12.72
774.545	10.13
774.723	8.8
774.9	9.54
775.077	6.37
775.255	5.97
775.432	7.72
775.61	6.85
775.787	6
775.964	4.1
776.142	4.56
776.319	3.29
776.496	4.81
776.674	7.6
776.851	8.8
777.028	11.69
777.205	11.54
777.382	10.45
777.56	12.71
777.737	12.34
777.914	14.46
778.091	16.46
778.268	18.18
778.445	19.14
778.622	17.85
778.8	16.05
778.977	14.49
779.154	13.56
779.331	13.47
779.508	15.89
779.685	15.21
779.862	15.68
780.038	13.32
780.215	13.65
780.392	13.94
780.569	13.89
780.746	14.3
780.923	14.49
781.1	16.8
781.277	17.27
781.453	12.58
781.63	12.91
781.807	9.73
781.984	9.9
782.16	10.04
782.337	10.18
782.514	7.95
782.691	5.28
782.867	1.58
783.044	0.61
783.221	-0.09
783.397	3.12
783.574	3.14
783.75	6.45
783.927	7.08
784.103	3.21
784.28	2.03
784.456	6.4
784.633	7.66
784.809	9.61
784.986	11.11
785.162	10.11
785.339	7.31
785.515	8.48
785.692	5.73
785.868	3.43
786.044	6.79
786.221	6.73
786.397	1.78
786.573	0.96
786.749	1.5
786.926	-1.1
787.102	0.64
787.278	2.52
787.454	1.49
787.631	4.24
787.807	6.25
787.983	8.36
788.159	10.44
788.335	13.56
788.511	13.84
788.687	13.72
788.863	12.46
789.039	13.05
789.216	13.15
789.392	12.92
789.568	11.06
789.744	10.38
789.919	7.13
790.095	7.59
790.271	9.16
790.447	13.08
790.623	14.14
790.799	15.45
790.975	15.42
791.151	15.65
791.327	16.9
791.502	19.37
791.678	18.51
791.854	19.55
792.03	15.64
792.205	12.1
792.381	5.18
792.557	6.41
792.733	5.51
792.908	5.18
793.084	5.3
793.259	4.79
793.435	2.63
793.611	3.45
793.786	3.82
793.962	3
794.137	1.65
794.313	6.1
794.488	3.08
794.664	7.64
794.839	8.8
795.015	7.36
795.19	7.61
795.366	7.28
795.541	9.7
795.716	6.55
795.892	10.52
796.067	11.76
796.242	9.85
796.418	14.5
796.593	11.29
796.768	11.32
796.944	10.95
797.119	12.34
797.294	11.42
797.469	8.67
797.644	10.67
797.82	9.13
797.995	8.69
798.17	8.71
798.345	5.14
798.52	4.82
798.695	3.41
798.87	4.82
799.045	2.6
799.22	2.5
799.395	1.65
799.57	-1.85
799.745	0.7
799.92	3.38
800.095	4.58
800.27	1.57
800.445	1.77
800.62	0.27
800.795	-1.14
800.97	1.11
801.145	1.37
801.319	2.36
801.494	9.28
801.669	4.02
801.844	3.14
802.018	2.93
802.193	5.61
802.368	6.62
802.543	3.91
802.717	7.64
802.892	5.66
803.067	8.37
803.241	8.5
803.416	5.23
803.59	6.04
803.765	4.49
803.94	4.29
804.114	5.72
804.289	3.67
804.463	4.46
804.638	4.13
804.812	6.54
804.986	6.41
805.161	4.39
805.335	2.31
805.51	7.13
805.684	8.07
805.858	5.95
806.033	3.37
806.207	6.17
806.381	11.75
806.556	11.31
806.73	8.84
806.904	7.89
807.078	13.91
807.253	14.67
807.427	9.57
807.601	7.58
807.775	8.88
807.949	11.3
808.123	9.44
808.298	7.91
808.472	6.55
808.646	6.62
808.82	6.04
808.994	4.17
809.168	3.15
809.342	5.71
809.516	6.48
809.69	4.63
809.864	1.71
810.038	4.84
810.212	5.6
810.385	8.88
810.559	11.03
810.733	11.85
810.907	6.81
811.081	5.51
811.255	3.98
811.428	6.59
811.602	7.23
811.776	5.03
811.95	-1.05
812.123	-7.26
812.297	-10.69
812.471	-11.02
812.644	-9.62
812.818	-8.32
812.992	-5.77
813.165	-5.62
813.339	-7.47
813.512	-7.05
813.686	-0.97
813.86	6.2
814.033	11.45
814.207	12.61
814.38	5.85
814.554	2.04
814.727	7.5
814.9	7.91
815.074	10.06
815.247	11.81
815.421	13.01
815.594	10.41
815.767	4.92
815.941	4.63
816.114	4.54
816.287	14.79
816.46	16.13
816.634	13.32
816.807	13.86
816.98	10.79
817.153	9.73
817.327	10.59
817.5	12.04
817.673	18.11
817.846	20.62
818.019	18.74
818.192	10.16
818.365	12.01
818.538	11.61
818.711	12.8
818.884	14.9
819.057	14.16
819.23	17.77
819.403	19.44
819.576	13.3
819.749	8.98
819.922	10.56
820.095	13.09
820.268	13.92
820.441	10.88
820.614	13.24
820.786	13.9
820.959	14.1
821.132	11.65
821.305	11.88
821.477	13.03
821.65	13.72
821.823	13.13
821.996	13.88
822.168	13.38
822.341	15.17
822.514	13.58
822.686	12.32
822.859	12.27
823.031	11.56
823.204	11.68
823.376	11.65
823.549	11.82
823.722	12.59
823.894	11.81
824.067	11.68
824.239	11.89
824.411	13.65
824.584	14.63
824.756	15.05
824.929	15.48
825.101	13.92
825.273	14.13
825.446	13.19
825.618	11.65
825.79	11.55
825.963	11.15
826.135	9.59
826.307	6.57
826.479	4.63
826.652	5.15
826.824	5.55
826.996	7.01
827.168	7.49
827.34	8.21
827.512	9.09
827.684	9.72
827.856	10.97
828.029	11.24
828.201	11.93
828.373	14.63
828.545	14.36
828.717	16.02
828.889	16.47
829.061	15.75
829.232	14.68
829.404	15.28
829.576	14.5
829.748	12.65
829.92	13.29
830.092	14.51
830.264	13.14
830.436	11.28
830.607	8.29
830.779	5.68
830.951	4.03
831.123	4.45
831.294	0.68
831.466	3.55
831.638	2.51
831.809	2.15
831.981	0.08
832.153	-1.53
832.324	-3.63
832.496	-1.52
832.667	0.02
832.839	2.66
833.011	4.78
833.182	9.16
833.354	4.96
833.525	7.13
833.697	5.65
833.868	5.19
834.039	6.19
834.211	9.67
834.382	8.54
834.554	9.49
834.725	9.04
834.896	9.64
835.068	7.74
835.239	7.6
835.41	8.4
835.581	10.36
835.753	10.23
835.924	9.96
836.095	7.47
836.266	10.13
836.438	8.81
836.609	8.87
836.78	9.79
836.951	10.15
837.122	12
837.293	10.43
837.464	12.01
837.635	13.92
837.806	15.62
837.977	18.46
838.148	15.89
838.319	15.88
838.49	15.63
838.661	14.12
838.832	10.99
839.003	11.03
839.174	14.39
839.345	10.55
839.516	9.09
839.687	2.29
839.857	-0.79
840.028	2.74
840.199	5.46
840.37	9.21
840.54	6.05
840.711	6.55
840.882	10
841.053	3.71
841.223	4.93
841.394	6.68
841.564	14.99
841.735	18.45
841.906	14.19
842.076	13.09
842.247	9.25
842.417	12.15
842.588	10.82
842.758	6.66
842.929	9.51
843.099	1.85
843.27	-0.72
843.44	-6.27
843.611	-16.72
843.781	-13.4
843.951	-17.2
844.122	-19.17
844.292	-22.3
844.462	-23.45
844.633	-17.42
844.803	-29.44
844.973	-10.98
845.144	-3.9
845.314	-9.21
845.484	7.43
845.654	10.44
845.824	5.46
845.995	15.46
846.165	24.13
846.335	32.46
846.505	32.91
846.675	40.16
846.845	50.33
847.015	52.75
847.185	59.77
847.355	58.96
847.525	57.21
847.695	59.68
847.865	63.29
848.035	58.58
848.205	68.71
848.375	69.51
848.545	71.38
848.715	32.99
848.884	31.15
849.054	43.29
849.224	37.72
849.394	44.26
849.564	27.71
849.733	16.83
849.903	6.39
850.073	-11.68
850.243	-17.77
850.412	-27.11
850.582	-14.98
850.752	-19.01
850.921	-35.24
851.091	-53.4
851.26	-59.81
851.43	-58.71
851.599	-92.54
851.769	-73.14
851.939	-57.09
852.108	-73.37
852.278	-57.89
852.447	-41.09
852.616	-24.42
852.786	-20.07
852.955	2.45
853.125	-6.87
853.294	-7.04
853.463	21.73
853.633	2.59
853.802	20.14
853.971	23.62
854.141	35.64
854.31	35.62
854.479	17.68
854.648	18.76
854.818	1.09
854.987	19.3
855.156	24.99
855.325	27.58
855.494	26.52
855.663	22.38
855.832	32.05
856.001	32.59
856.171	36.31
856.34	38.4
856.509	40.21
856.678	60.94
856.847	50.54
857.016	55.47
857.185	39.75
857.353	43.04
857.522	48.99
857.691	44.69
857.86	30.56
858.029	40.04
858.198	45.42
858.367	40.84
858.535	36.72
858.704	25.48
858.873	13.4
859.042	27.88
859.21	26.42
859.379	19.77
859.548	20.22
859.717	9.46
859.885	3.24
860.054	1.99
860.222	2.56
860.391	15.24
860.56	32.15
860.728	22.2
860.897	23.98
861.065	26.87
861.234	32.34
861.402	26.93
861.571	32.74
861.739	51.7
861.908	43.85
862.076	41.48
862.244	16.67
862.413	8.17
862.581	42.63
862.749	29.31
862.918	17.53
863.086	15.35
863.254	13.45
863.423	15.39
863.591	-9.19
863.759	-21.73
863.927	-12.38
864.096	2.86
864.264	-8.64
864.432	-17.47
864.6	-23.94
864.768	-11.15
864.936	-12.22
865.104	-7.92
865.272	9.61
865.44	31.95
865.608	34.85
865.776	23.64
865.944	25.77
866.112	29.98
866.28	28.71
866.448	30.43
866.616	37
866.784	26.02
866.952	26.91
867.12	25.1
867.288	18.22
867.455	21.85
867.623	17.57
867.791	8.84
867.959	9.22
868.127	16.92
868.294	18.84
868.462	8.89
868.63	16.67
868.797	7.61
868.965	8.11
869.133	2.3
869.3	2.13
869.468	29.38
869.636	37.18
869.803	25.44
869.971	11.07
870.138	16.29
870.306	17.88
870.473	21.94
870.641	32.85
870.808	30.88
870.975	28.56
871.143	18.55
871.31	-4.36
871.478	-19.94
871.645	-17.43
871.812	-9.75
871.98	-3.12
872.147	-5.66
872.314	-33.1
872.482	-46.61
872.649	-99.46
872.816	-55.55
872.983	-35.05
873.15	-28.66
873.318	-27.34
873.485	-14.63
873.652	-44.03
873.819	-122.92
873.986	-80.06
874.153	-46.97
874.32	-24.11
874.487	-15.7
874.654	-25.35
874.821	-14.7
874.988	-5.72
875.155	-10.15
875.322	-2.86
875.489	5.35
875.656	10.71
875.823	-4.55
875.99	3.58
876.157	2.65
876.324	8.06
876.49	8.36
876.657	6.98
876.824	17.99
876.991	25.52
877.157	28.1
877.324	25.11
877.491	10.06
877.658	24.17
877.824	13.28
877.991	14.57
878.157	20.85
878.324	17.25
878.491	8.66
878.657	-13.76
878.824	-9.32
878.99	-17.72
879.157	-27.45
879.323	-13.11
879.49	-34.26
879.656	4.62
879.823	-0.97
879.989	-7.39
880.156	1.39
880.322	14.06
880.488	20.56
880.655	13.32
880.821	17
880.987	22.87
881.154	28.35
881.32	32.05
881.486	28.62
881.652	29.88
881.819	23.1
881.985	19.14
882.151	14.1
882.317	14.59
882.483	15.42
882.649	13.33
882.816	13.05
882.982	8.82
883.148	8.36
883.314	6.44
883.48	6.91
883.646	12.75
883.812	15.34
883.978	16.16
884.144	15.9
884.31	15.6
884.476	15.48
884.642	17.01
884.807	16.36
884.973	14.16
885.139	16.73
885.305	16.88
885.471	14.47
885.637	12.25
885.802	12.06
885.968	14.4
886.134	13.96
886.3	10.24
886.465	5.85
886.631	9.59
886.797	14.7
886.962	13.42
887.128	7.67
887.293	5.31
887.459	-3.14
887.625	-5.76
887.79	-12.29
887.956	-5.44
888.121	2.44
888.287	4.55
888.452	0.8
888.618	-4.89
888.783	-9.83
