Data from 2938075_Reflection_3.txt Node
Date: Sat Jul 11 20:26:45 EDT 2015
User: robert
Spectrometer: USB4E03001
Autoset integration time: false
Trigger mode: 4
Integration Time (sec): 1.000000E-1
Scans to average: 10
Electric dark correction enabled: true
Nonlinearity correction enabled: false
Boxcar width: 5
Stray light correction enabled: false
XAxis mode: Wavelengths
Stop averaging: false
Number of Pixels in Spectrum: 3648
>>>>>Begin Spectral Data<<<<<
177.566	-12.48
177.785	-24.41
178.005	212.62
178.225	85.28
178.445	82.19
178.665	353.55
178.885	-324.62
179.105	-15.06
179.324	30.59
179.544	1017.84
179.764	92.57
179.984	106.25
180.204	109.66
180.423	135.2
180.643	226.81
180.863	481.71
181.083	233.11
181.302	172.31
181.522	174.72
181.742	161.72
181.961	172.1
182.181	275.22
182.401	245.75
182.621	285.5
182.84	335.57
183.06	273.97
183.279	3174.35
183.499	556.4
183.719	-382.44
183.938	-305.66
184.158	-67.5
184.377	-136.45
184.597	-55.81
184.816	-60.19
185.036	-91.64
185.256	-52.99
185.475	-28.64
185.695	-282.86
185.914	-201.28
186.134	5313.79
186.353	-1977.65
186.572	-378.59
186.792	-210.99
187.011	-306.79
187.231	-489.75
187.45	-155.36
187.67	-1012.04
187.889	686.94
188.108	865.33
188.328	373.19
188.547	1085.64
188.766	365.34
188.986	546.58
189.205	358.14
189.424	345.05
189.644	-1232.59
189.863	209.98
190.082	357.14
190.302	-3362.69
190.521	-256.48
190.74	-179.44
190.959	-372.04
191.178	-221.55
191.398	-240.55
191.617	-369.35
191.836	-2320.44
192.055	386.35
192.274	5621.24
192.494	681.02
192.713	246.95
192.932	272.06
193.151	169.25
193.37	149.41
193.589	197.13
193.808	116.96
194.027	164.86
194.246	127.19
194.465	145.77
194.685	199.4
194.904	385.4
195.123	722.29
195.342	520.52
195.561	22234.29
195.78	-656.99
195.999	-405.16
196.218	-388.95
196.436	-584.89
196.655	-347.16
196.874	-374.97
197.093	-72.74
197.312	-300.94
197.531	-235.58
197.75	602.88
197.969	264.16
198.188	-465.68
198.407	-62.73
198.625	-90.48
198.844	-116.22
199.063	-63.16
199.282	-117.6
199.501	-1745.13
199.719	5387.08
199.938	-322.26
200.157	-309.83
200.376	-219.51
200.594	-1487.34
200.813	-703.03
201.032	43172.73
201.251	687.08
201.469	370.93
201.688	219.01
201.907	379.7
202.125	227.66
202.344	120
202.563	115.91
202.781	110.91
203	162.5
203.218	111.6
203.437	168.3
203.656	263.33
203.874	345.01
204.093	686.8
204.311	351.49
204.53	644.05
204.748	-1122.06
204.967	8571.26
205.185	-1403.41
205.404	-728.71
205.622	-440.53
205.841	-336.71
206.059	929.12
206.278	950.8
206.496	-1028.15
206.715	33127.27
206.933	-264.86
207.151	-3046.21
207.37	512.67
207.588	252.56
207.806	282.66
208.025	-27423.53
208.243	368.66
208.461	328.26
208.68	128.16
208.898	113.94
209.116	133.06
209.335	105.2
209.553	127.02
209.771	146.09
209.989	170.23
210.208	125.18
210.426	98.61
210.644	98.69
210.862	86.94
211.081	143.99
211.299	101.3
211.517	84.9
211.735	66.91
211.953	37.63
212.171	33.41
212.39	24.57
212.608	51.46
212.826	72.92
213.044	63.27
213.262	142.06
213.48	98.79
213.698	93.19
213.916	74.03
214.134	70.61
214.352	76.98
214.57	112.16
214.788	189.3
215.006	128.42
215.224	142.56
215.442	178.06
215.66	157.25
215.878	159.78
216.096	150.04
216.314	-2444.21
216.532	182.86
216.75	8.38
216.968	-7.84
217.185	-61.25
217.403	-9.84
217.621	-33.93
217.839	7.53
218.057	9.24
218.275	1.19
218.492	1.56
218.71	-2.28
218.928	32.39
219.146	90.16
219.363	98.89
219.581	87.1
219.799	90.13
220.017	133.92
220.234	154.89
220.452	183.06
220.67	142.56
220.887	154.81
221.105	138.82
221.323	109.57
221.54	128.97
221.758	121.25
221.976	148.81
222.193	154.94
222.411	116.29
222.629	76.92
222.846	55.84
223.064	53.66
223.281	57.84
223.499	65.61
223.716	89.92
223.934	81.26
224.151	68.73
224.369	62.52
224.586	43.89
224.804	54.17
225.021	52.4
225.239	58.01
225.456	88.46
225.674	85.94
225.891	68.07
226.108	50.07
226.326	50.08
226.543	60.56
226.76	60.42
226.978	61.74
227.195	53.11
227.413	47.16
227.63	41.19
227.847	29.99
228.064	27.24
228.282	25.24
228.499	24.02
228.716	18.7
228.934	16.75
229.151	15.53
229.368	13.33
229.585	14.91
229.802	14.54
230.02	11.3
230.237	12.71
230.454	8.19
230.671	10.84
230.888	11.75
231.105	13.67
231.323	12.28
231.54	9.96
231.757	7.5
231.974	3.23
232.191	6.15
232.408	15.04
232.625	19.47
232.842	28.88
233.059	28.37
233.276	32.14
233.493	32.07
233.71	36.81
233.927	36.51
234.144	43.62
234.361	44.07
234.578	38.02
234.795	36.39
235.012	36.44
235.229	33.56
235.446	33.41
235.663	25.84
235.879	27.42
236.096	28.89
236.313	28.08
236.53	25.34
236.747	28.92
236.964	34.59
237.181	32.43
237.397	20.44
237.614	20.72
237.831	18.28
238.048	21.15
238.264	22.27
238.481	14.71
238.698	16.67
238.915	9.56
239.131	3.62
239.348	7.64
239.565	11.22
239.781	18.02
239.998	15.21
240.215	16.2
240.431	16.52
240.648	15.61
240.865	16.66
241.081	17.23
241.298	15.72
241.514	14.83
241.731	14.16
241.947	12.27
242.164	10.82
242.38	10.23
242.597	9.6
242.814	8.91
243.03	9.28
243.246	7.64
243.463	8.62
243.679	10.4
243.896	10.26
244.112	10.37
244.329	11.81
244.545	12.14
244.762	14.86
244.978	12.01
245.194	14.76
245.411	14
245.627	13.47
245.843	10.68
246.06	8.37
246.276	8.97
246.492	7.43
246.709	5.43
246.925	4.71
247.141	3.19
247.357	5.05
247.574	3.69
247.79	4.07
248.006	4.28
248.222	3.78
248.439	4.93
248.655	3.96
248.871	4.2
249.087	5.98
249.303	6.89
249.519	8.98
249.736	9.02
249.952	11.58
250.168	10
250.384	11.43
250.6	11.01
250.816	9.91
251.032	10.91
251.248	7.69
251.464	7.72
251.68	7.52
251.896	7.31
252.112	6.35
252.328	5.16
252.544	6.44
252.76	4.18
252.976	4.48
253.192	3.28
253.408	4.53
253.624	6.07
253.84	5.04
254.056	5.37
254.272	3.26
254.487	5.33
254.703	1.89
254.919	2.29
255.135	5.43
255.351	8.8
255.567	11.72
255.782	8.64
255.998	9.76
256.214	11.75
256.43	15.39
256.646	15.75
256.861	15.23
257.077	17.92
257.293	17.15
257.508	15.61
257.724	13.75
257.94	11.12
258.155	12.3
258.371	13
258.587	10.78
258.802	8.69
259.018	9.08
259.234	7.8
259.449	6.79
259.665	5.52
259.88	5.81
260.096	6.19
260.312	6.03
260.527	6.13
260.743	5.19
260.958	5.26
261.174	5.59
261.389	4.69
261.605	5.41
261.82	5.52
262.036	5.38
262.251	5.09
262.466	4.81
262.682	5.26
262.897	4.34
263.113	4.37
263.328	3
263.543	1.89
263.759	4.06
263.974	4.86
264.189	5.08
264.405	8.54
264.62	7.73
264.835	7.13
265.051	7.49
265.266	8.93
265.481	9.62
265.696	12.37
265.912	12.25
266.127	10.39
266.342	7.91
266.557	8.39
266.773	8.85
266.988	10.57
267.203	10.49
267.418	8.8
267.633	8.05
267.848	8.83
268.064	7.25
268.279	7.88
268.494	7.95
268.709	8.36
268.924	8.33
269.139	7.3
269.354	6.16
269.569	6.12
269.784	9.15
269.999	7.86
270.214	6.42
270.429	9
270.644	9.43
270.859	10.01
271.074	10.03
271.289	9.19
271.504	8.21
271.719	8.03
271.934	7.61
272.149	5.73
272.363	6.49
272.578	7.13
272.793	6.64
273.008	5.16
273.223	4.36
273.438	3.73
273.653	3.58
273.867	4.11
274.082	2.91
274.297	2.9
274.512	5.25
274.726	4.44
274.941	5.66
275.156	3.27
275.371	2.98
275.585	3.56
275.8	5.69
276.015	5.58
276.229	5.55
276.444	5.45
276.659	5.51
276.873	4.05
277.088	5.38
277.302	5.51
277.517	6.56
277.732	6.7
277.946	6.81
278.161	5.15
278.375	6.19
278.59	5.28
278.804	7.28
279.019	7.25
279.233	7.58
279.448	7.36
279.662	5.99
279.877	5.69
280.091	7.55
280.306	8.23
280.52	7.97
280.735	7.14
280.949	7.94
281.163	7.5
281.378	8.09
281.592	7.46
281.806	7.65
282.021	8.96
282.235	6.81
282.449	5.35
282.664	4.94
282.878	4.88
283.092	4.42
283.307	3.58
283.521	3.53
283.735	2.28
283.949	1.9
284.164	1.74
284.378	0.01
284.592	1.4
284.806	1.62
285.02	1.28
285.234	2.48
285.449	2.15
285.663	2.39
285.877	2.73
286.091	3.45
286.305	4.59
286.519	5.24
286.733	5.74
286.947	5.93
287.161	5.72
287.375	5.98
287.589	5.34
287.803	6.14
288.017	7.08
288.231	7.16
288.445	6.56
288.659	6.65
288.873	5.35
289.087	6.13
289.301	7.83
289.515	9.08
289.729	9.1
289.943	9.65
290.157	11.1
290.371	10.67
290.584	10.17
290.798	11.28
291.012	10.32
291.226	10.13
291.44	8.69
291.654	7.49
291.867	6.31
292.081	7.57
292.295	7.84
292.509	7.12
292.722	5.35
292.936	6.12
293.15	6.9
293.364	8.54
293.577	9.56
293.791	10.55
294.005	10.57
294.218	10.03
294.432	9.12
294.645	7.72
294.859	8.95
295.073	9.7
295.286	10.23
295.5	8.82
295.713	8.62
295.927	7.8
296.14	9.14
296.354	8.85
296.568	9.26
296.781	10.22
296.994	10.74
297.208	10.46
297.421	10.76
297.635	9.86
297.848	10.23
298.062	9.2
298.275	10.3
298.489	9.75
298.702	10.39
298.915	10.39
299.129	10.09
299.342	10.28
299.555	10.07
299.769	10.57
299.982	11.16
300.195	11.91
300.409	12.29
300.622	11.4
300.835	10.37
301.048	10.13
301.262	11.11
301.475	9.72
301.688	8.33
301.901	9.9
302.115	8.72
302.328	9.43
302.541	9.87
302.754	10.7
302.967	11.47
303.18	11.55
303.393	12.06
303.607	11.38
303.82	10.67
304.033	11.55
304.246	9.27
304.459	10.82
304.672	9.27
304.885	9.06
305.098	8.48
305.311	9.38
305.524	10.98
305.737	10.26
305.95	10.84
306.163	12.6
306.376	14.14
306.589	14.44
306.802	14.15
307.015	15.57
307.228	12.72
307.44	13.34
307.653	13.07
307.866	11.3
308.079	11.1
308.292	10.77
308.505	10.01
308.718	9.42
308.93	10.01
309.143	10.75
309.356	10.42
309.569	10.8
309.781	10.8
309.994	9.18
310.207	9.07
310.42	9.07
310.632	9.18
310.845	9.3
311.058	8.57
311.27	8.75
311.483	8.49
311.696	8.34
311.908	9.98
312.121	9.93
312.333	11.46
312.546	12.66
312.759	13.02
312.971	12.57
313.184	13.78
313.396	14.48
313.609	15.36
313.821	14.5
314.034	14.2
314.246	15.17
314.459	14.79
314.671	12.93
314.884	12.32
315.096	12.3
315.309	13.67
315.521	13.65
315.733	13.95
315.946	11.61
316.158	11
316.371	11.12
316.583	8.92
316.795	10.44
317.008	12.93
317.22	13.67
317.432	15.09
317.644	14.39
317.857	14.72
318.069	14.4
318.281	14.73
318.494	16.1
318.706	16.35
318.918	18.11
319.13	17.49
319.342	16.06
319.555	14.32
319.767	13.26
319.979	13.41
320.191	11.24
320.403	9.96
320.615	8.49
320.827	8.66
321.039	10.31
321.252	8.59
321.464	7.45
321.676	8.21
321.888	10.82
322.1	12.63
322.312	13.52
322.524	14.93
322.736	15.15
322.948	16.87
323.16	15.73
323.372	15.04
323.584	14.2
323.796	15.86
324.007	15.61
324.219	13.71
324.431	12.23
324.643	10.43
324.855	10.11
325.067	10.45
325.279	10.75
325.491	11.19
325.702	10.43
325.914	11.65
326.126	10.87
326.338	10.87
326.55	11.84
326.761	13.5
326.973	13.68
327.185	13.2
327.396	14.5
327.608	14.05
327.82	15.02
328.032	17.22
328.243	17.29
328.455	17.54
328.666	19.18
328.878	19.85
329.09	19.13
329.301	19.54
329.513	20.97
329.725	21.49
329.936	22.02
330.148	21.57
330.359	19.98
330.571	20.58
330.782	20.72
330.994	19.62
331.205	19.47
331.417	20.28
331.628	22.68
331.84	23.63
332.051	22.24
332.262	21.99
332.474	22.92
332.685	22.72
332.897	23.03
333.108	22.81
333.319	22.51
333.531	21.04
333.742	20.89
333.953	20.35
334.165	19.24
334.376	19.94
334.587	20.69
334.799	20.76
335.01	21.01
335.221	20.72
335.432	21.47
335.644	21.42
335.855	22.88
336.066	21.83
336.277	21.29
336.488	22.09
336.7	23.03
336.911	24.04
337.122	23.63
337.333	24.34
337.544	23.57
337.755	23.3
337.966	22.71
338.177	21.62
338.388	23.11
338.599	23.89
338.811	23.82
339.022	22.58
339.233	19.33
339.444	20.38
339.655	19.54
339.866	20.8
340.076	19.82
340.287	21.09
340.498	21.93
340.709	21.72
340.92	21.4
341.131	20.52
341.342	20.8
341.553	21.85
341.764	20.54
341.975	21.74
342.185	21.99
342.396	22.86
342.607	22.53
342.818	22.11
343.029	21.66
343.239	22.03
343.45	22.26
343.661	22.44
343.872	23.14
344.082	22.66
344.293	21.84
344.504	20.82
344.714	20.71
344.925	20.38
345.136	21.68
345.346	22.14
345.557	21.72
345.768	21.09
345.978	20.87
346.189	19.98
346.399	20.4
346.61	20.73
346.821	21.64
347.031	21.1
347.242	21.2
347.452	21.14
347.663	20.78
347.873	20.4
348.084	21.69
348.294	21.7
348.504	22.45
348.715	22.72
348.925	23.84
349.136	23.92
349.346	25.33
349.557	25.95
349.767	25.19
349.977	24.8
350.188	25.31
350.398	25.98
350.608	26.72
350.819	26.63
351.029	27.81
351.239	26.71
351.449	26.31
351.66	25.08
351.87	25.75
352.08	26.03
352.29	26.14
352.501	26.43
352.711	25.32
352.921	25.04
353.131	25.15
353.341	24.97
353.552	23.87
353.762	23.13
353.972	23.99
354.182	23.83
354.392	23.59
354.602	23.37
354.812	22.27
355.022	22.74
355.232	22.7
355.442	22.5
355.652	21.25
355.862	21.9
356.072	23.13
356.282	23.19
356.492	22.94
356.702	23
356.912	23.11
357.122	23.99
357.332	23.68
357.542	23.66
357.752	23.4
357.962	24.13
358.171	24.12
358.381	23.92
358.591	23.64
358.801	23.8
359.011	23.72
359.221	23.93
359.43	24.26
359.64	24.86
359.85	24.88
360.06	25.26
360.269	25.31
360.479	24.84
360.689	24.18
360.899	23.53
361.108	23.27
361.318	23.76
361.528	23.74
361.737	23.13
361.947	22.55
362.156	22.34
362.366	22.46
362.576	21.66
362.785	22.03
362.995	22.12
363.204	23.13
363.414	23.13
363.623	22.99
363.833	22.97
364.042	23.75
364.252	23.75
364.461	24
364.671	22.88
364.88	23.3
365.09	23.62
365.299	23.4
365.509	23.07
365.718	22.63
365.927	22.31
366.137	22.81
366.346	22.86
366.555	23.29
366.765	22.78
366.974	23.16
367.183	23.62
367.393	23.58
367.602	23.92
367.811	24.1
368.021	24.7
368.23	24.79
368.439	24.41
368.648	23.88
368.857	23.66
369.067	24.04
369.276	24.91
369.485	25.89
369.694	25.49
369.903	25.57
370.112	24.86
370.321	24.33
370.531	24.04
370.74	23.74
370.949	24.55
371.158	24.48
371.367	24.72
371.576	24.85
371.785	23.1
371.994	23.95
372.203	24.08
372.412	24.69
372.621	25.58
372.83	25.47
373.039	25.62
373.248	24.35
373.457	25.03
373.666	24.97
373.874	24.77
374.083	25.12
374.292	24.4
374.501	24.51
374.71	23.29
374.919	22.17
375.128	23.39
375.336	23.43
375.545	23.92
375.754	23
375.963	22.93
376.171	22.14
376.38	22.48
376.589	22.7
376.798	22.86
377.006	24.07
377.215	24.46
377.424	23.75
377.632	23.96
377.841	23.96
378.05	23.93
378.258	23.98
378.467	24.65
378.675	24.23
378.884	24.62
379.093	24.25
379.301	23.86
379.51	23.88
379.718	23.85
379.927	24.09
380.135	24.16
380.344	24.89
380.552	25.16
380.761	25.3
380.969	25.53
381.177	25.74
381.386	26.02
381.594	26.1
381.803	26.42
382.011	26.62
382.219	26.47
382.428	26.17
382.636	26.21
382.845	25.97
383.053	25.75
383.261	25.52
383.469	24.96
383.678	24.31
383.886	23.95
384.094	23.85
384.302	23.69
384.511	23.78
384.719	24.26
384.927	23.88
385.135	23.83
385.343	23.91
385.552	23.65
385.76	23.6
385.968	24.01
386.176	24.47
386.384	24.53
386.592	24.63
386.8	24.3
387.008	24.52
387.216	24.81
387.424	24.62
387.633	24.46
387.841	24.99
388.049	25.31
388.257	25.28
388.465	25.25
388.672	24.7
388.88	24.93
389.088	25.27
389.296	24.73
389.504	24.68
389.712	24.58
389.92	24.79
390.128	24.68
390.336	24.57
390.544	24.58
390.751	24.47
390.959	25.16
391.167	25.26
391.375	24.95
391.583	25.2
391.79	25.12
391.998	25.62
392.206	25.76
392.414	26.28
392.621	26.58
392.829	26.9
393.037	26.85
393.244	26.7
393.452	26.41
393.66	26.76
393.867	26.82
394.075	26.86
394.283	26.64
394.49	26.72
394.698	26.38
394.905	26.35
395.113	26.2
395.32	26.7
395.528	26.58
395.735	26.78
395.943	26.9
396.15	26.76
396.358	26.96
396.565	27.35
396.773	27.46
396.98	27.81
397.188	28.07
397.395	28.18
397.602	28.15
397.81	28.71
398.017	28.49
398.225	28.65
398.432	29.14
398.639	29.18
398.847	29.19
399.054	29.3
399.261	29.28
399.468	29.33
399.676	29.6
399.883	29.33
400.09	29.37
400.297	29.71
400.505	29.34
400.712	29.13
400.919	29.49
401.126	29.65
401.333	29.82
401.54	29.95
401.748	29.71
401.955	29.42
402.162	29.66
402.369	29.66
402.576	29.74
402.783	30.04
402.99	30.3
403.197	30.01
403.404	30
403.611	30.09
403.818	30.13
404.025	30.46
404.232	30.76
404.439	30.81
404.646	30.75
404.853	30.82
405.06	30.79
405.267	30.94
405.474	31.06
405.681	31.06
405.887	30.7
406.094	30.69
406.301	30.49
406.508	30.51
406.715	30.59
406.922	30.34
407.128	30.48
407.335	30.5
407.542	30.49
407.749	30.6
407.955	30.77
408.162	31.02
408.369	31.17
408.575	31.4
408.782	31.57
408.989	31.43
409.195	31.5
409.402	31.38
409.609	31.4
409.815	31.27
410.022	31.45
410.228	31.48
410.435	31.37
410.642	31.12
410.848	31.05
411.055	30.65
411.261	31.07
411.468	31.32
411.674	31.38
411.881	31.56
412.087	31.62
412.294	31.53
412.5	31.41
412.706	31.75
412.913	31.76
413.119	31.48
413.326	31.62
413.532	31.35
413.738	31.15
413.945	31.11
414.151	31.13
414.357	31.05
414.564	30.98
414.77	30.98
414.976	30.64
415.182	30.61
415.389	30.82
415.595	30.75
415.801	30.79
416.007	30.68
416.214	30.65
416.42	30.55
416.626	30.72
416.832	30.57
417.038	30.64
417.244	30.65
417.45	30.78
417.657	30.72
417.863	30.94
418.069	30.84
418.275	30.91
418.481	30.88
418.687	30.91
418.893	30.89
419.099	30.97
419.305	30.78
419.511	30.59
419.717	30.5
419.923	30.38
420.129	30.29
420.335	30.28
420.541	30.3
420.746	30.26
420.952	30.11
421.158	29.91
421.364	29.81
421.57	29.8
421.776	29.96
421.982	29.94
422.187	30.02
422.393	29.94
422.599	29.96
422.805	29.96
423.01	30.04
423.216	29.91
423.422	29.93
423.628	30.04
423.833	30.03
424.039	29.98
424.245	29.99
424.45	30
424.656	30.11
424.862	30.09
425.067	30.03
425.273	30.01
425.478	30.32
425.684	30.23
425.889	30.06
426.095	30.2
426.301	30.2
426.506	30.05
426.712	29.96
426.917	29.81
427.123	29.66
427.328	29.63
427.533	29.53
427.739	29.2
427.944	29.28
428.15	29.32
428.355	29.14
428.561	29.17
428.766	29.36
428.971	29.4
429.177	29.45
429.382	29.76
429.587	29.81
429.793	29.91
429.998	30.24
430.203	30.31
430.408	30.39
430.614	30.29
430.819	30.32
431.024	30.22
431.229	30.21
431.434	30.04
431.64	29.67
431.845	29.83
432.05	29.67
432.255	29.43
432.46	29.53
432.665	29.49
432.87	29.56
433.076	29.45
433.281	29.53
433.486	29.56
433.691	29.59
433.896	29.64
434.101	29.48
434.306	29.53
434.511	29.54
434.716	29.31
434.921	29.3
435.126	29.39
435.331	29.5
435.535	29.58
435.74	29.69
435.945	29.95
436.15	30.02
436.355	30
436.56	30.1
436.765	30.3
436.97	30.4
437.174	30.33
437.379	30.34
437.584	30.24
437.789	30.05
437.993	29.87
438.198	29.59
438.403	29.56
438.608	29.43
438.812	29.33
439.017	29.15
439.222	29.12
439.426	29.13
439.631	28.99
439.836	29.08
440.04	29.1
440.245	29.16
440.45	29.27
440.654	29.31
440.859	29.6
441.063	29.58
441.268	29.57
441.472	29.57
441.677	29.65
441.881	29.76
442.086	29.59
442.29	29.74
442.495	29.85
442.699	29.73
442.904	29.83
443.108	29.65
443.312	29.72
443.517	29.73
443.721	29.72
443.925	29.57
444.13	29.42
444.334	29.41
444.538	29.26
444.743	29.01
444.947	29.08
445.151	28.88
445.356	28.87
445.56	28.81
445.764	28.92
445.968	28.95
446.173	29.15
446.377	29.14
446.581	29.16
446.785	29.29
446.989	29.27
447.193	29.28
447.398	29.47
447.602	29.43
447.806	29.5
448.01	29.58
448.214	29.52
448.418	29.35
448.622	29.38
448.826	29.49
449.03	29.36
449.234	29.32
449.438	29.28
449.642	29.19
449.846	29.08
450.05	28.86
450.254	28.62
450.458	28.7
450.662	28.77
450.866	28.63
451.069	28.45
451.273	28.46
451.477	28.68
451.681	28.87
451.885	28.58
452.089	28.67
452.292	28.87
452.496	29.02
452.7	28.96
452.904	28.88
453.107	28.94
453.311	29.11
453.515	29.18
453.719	29.02
453.922	28.86
454.126	28.97
454.33	29.21
454.533	29.04
454.737	29.01
454.94	28.99
455.144	28.95
455.348	29.01
455.551	28.96
455.755	28.85
455.958	29.02
456.162	28.84
456.365	28.86
456.569	28.7
456.772	28.7
456.976	28.66
457.179	28.74
457.383	28.77
457.586	28.89
457.79	29.01
457.993	28.96
458.196	28.7
458.4	28.8
458.603	28.71
458.807	28.77
459.01	28.88
459.213	28.83
459.417	28.72
459.62	28.69
459.823	28.69
460.026	28.68
460.23	28.68
460.433	28.99
460.636	29.09
460.839	29.26
461.042	29.26
461.246	29.26
461.449	29.36
461.652	29.63
461.855	29.82
462.058	29.95
462.261	30
462.464	30.23
462.668	30.21
462.871	30.11
463.074	30.09
463.277	30.16
463.48	30.22
463.683	30.25
463.886	30.09
464.089	30.17
464.292	30.04
464.495	29.93
464.698	29.95
464.901	29.81
465.104	29.89
465.306	30
465.509	30.22
465.712	30.38
465.915	30.52
466.118	30.55
466.321	30.6
466.524	30.54
466.726	30.56
466.929	30.31
467.132	30.45
467.335	30.49
467.538	30.4
467.74	30.13
467.943	30.1
468.146	29.87
468.348	29.86
468.551	29.64
468.754	29.68
468.956	29.75
469.159	29.71
469.362	29.57
469.564	29.55
469.767	29.6
469.969	29.73
470.172	29.54
470.375	29.79
470.577	29.96
470.78	30.22
470.982	30.27
471.185	30.28
471.387	30.29
471.59	30.37
471.792	30.35
471.995	30.32
472.197	30.35
472.399	30.71
472.602	30.56
472.804	30.52
473.007	30.36
473.209	30.33
473.411	30.51
473.614	30.72
473.816	30.63
474.018	30.61
474.22	30.8
474.423	30.64
474.625	30.23
474.827	30.29
475.03	30.23
475.232	30.45
475.434	30.58
475.636	30.32
475.838	30.28
476.04	30.4
476.243	30.48
476.445	30.41
476.647	30.45
476.849	30.54
477.051	30.51
477.253	30.57
477.455	30.48
477.657	30.52
477.859	30.64
478.061	30.74
478.263	30.52
478.465	30.41
478.667	30.37
478.869	30.55
479.071	30.61
479.273	30.58
479.475	30.52
479.677	30.64
479.879	30.47
480.081	30.34
480.283	30.24
480.485	30.37
480.686	30.28
480.888	30.22
481.09	30.05
481.292	30.02
481.494	30.03
481.695	30.03
481.897	29.81
482.099	29.9
482.301	29.97
482.502	29.88
482.704	29.89
482.906	29.97
483.107	29.97
483.309	29.91
483.511	29.88
483.712	29.88
483.914	29.79
484.115	29.77
484.317	29.76
484.519	29.73
484.72	29.83
484.922	29.82
485.123	29.81
485.325	29.84
485.526	29.85
485.728	29.83
485.929	29.83
486.131	29.93
486.332	29.92
486.534	29.97
486.735	30.07
486.936	29.98
487.138	29.97
487.339	29.99
487.541	30
487.742	30.1
487.943	30.15
488.144	30.13
488.346	30.14
488.547	30.19
488.748	30.12
488.95	29.99
489.151	30.04
489.352	30.04
489.553	30.08
489.755	30.03
489.956	29.95
490.157	30.04
490.358	30.17
490.559	30.15
490.76	30.15
490.961	30.27
491.163	30.36
491.364	30.38
491.565	30.38
491.766	30.31
491.967	30.35
492.168	30.41
492.369	30.34
492.57	30.27
492.771	30.36
492.972	30.39
493.173	30.3
493.374	30.27
493.575	30.2
493.776	30.24
493.976	30.28
494.177	30.23
494.378	30.29
494.579	30.39
494.78	30.28
494.981	30.04
495.182	29.98
495.382	29.94
495.583	29.97
495.784	30.05
495.985	29.92
496.185	29.9
496.386	29.99
496.587	29.66
496.788	29.61
496.988	29.82
497.189	29.99
497.39	30.05
497.59	30.05
497.791	30.1
497.992	30.15
498.192	30.25
498.393	30.22
498.593	30.15
498.794	30.36
498.994	30.32
499.195	30.21
499.395	30.16
499.596	30.15
499.796	30.17
499.997	30.14
500.197	30.03
500.398	30.13
500.598	30.14
500.799	30.23
500.999	30.1
501.199	30.09
501.4	30.14
501.6	30.12
501.801	30.28
502.001	30.21
502.201	30.17
502.402	30.42
502.602	30.48
502.802	30.7
503.002	30.8
503.203	30.89
503.403	31.02
503.603	30.99
503.803	30.94
504.003	30.88
504.204	31.21
504.404	31.28
504.604	31.16
504.804	30.9
505.004	30.8
505.204	30.67
505.404	30.57
505.604	30.58
505.804	30.49
506.005	30.48
506.205	30.52
506.405	30.37
506.605	30.36
506.805	30.37
507.005	30.43
507.204	30.36
507.404	30.33
507.604	30.46
507.804	30.45
508.004	30.59
508.204	30.77
508.404	30.8
508.604	30.82
508.804	30.78
509.003	30.61
509.203	30.77
509.403	30.88
509.603	30.89
509.803	31.03
510.002	31
510.202	30.92
510.402	31
510.602	30.9
510.801	30.76
511.001	30.74
511.201	30.89
511.4	31.01
511.6	31.23
511.8	31.24
511.999	31.14
512.199	31.15
512.398	31.25
512.598	31.17
512.797	31.17
512.997	31.39
513.197	31.43
513.396	31.46
513.596	31.43
513.795	31.25
513.994	31.34
514.194	31.37
514.393	31.42
514.593	31.55
514.792	31.52
514.992	31.53
515.191	31.5
515.39	31.67
515.59	31.72
515.789	31.55
515.988	31.62
516.188	31.53
516.387	31.72
516.586	31.75
516.786	31.61
516.985	31.7
517.184	31.95
517.383	31.85
517.582	31.79
517.782	31.76
517.981	31.91
518.18	31.86
518.379	31.94
518.578	31.78
518.777	31.72
518.976	31.66
519.176	31.54
519.375	31.49
519.574	31.71
519.773	31.77
519.972	31.77
520.171	31.63
520.37	31.6
520.569	31.53
520.768	31.68
520.967	31.89
521.166	31.97
521.365	32.09
521.564	32.04
521.762	31.81
521.961	31.86
522.16	32.05
522.359	32.05
522.558	32.02
522.757	32.2
522.956	32.06
523.154	31.96
523.353	32.09
523.552	32.06
523.751	32.1
523.949	32.17
524.148	32.18
524.347	32.14
524.546	32.27
524.744	32.44
524.943	32.4
525.142	32.42
525.34	32.44
525.539	32.31
525.737	32.35
525.936	32.38
526.135	32.46
526.333	32.43
526.532	32.28
526.73	32.19
526.929	32.03
527.127	32.03
527.326	31.96
527.524	31.9
527.723	31.83
527.921	31.72
528.12	31.65
528.318	31.62
528.516	31.57
528.715	31.61
528.913	31.63
529.112	31.65
529.31	31.61
529.508	31.64
529.707	31.65
529.905	31.66
530.103	31.74
530.301	31.76
530.5	31.71
530.698	31.79
530.896	31.83
531.094	31.9
531.293	32.02
531.491	32.03
531.689	32.01
531.887	31.99
532.085	32.18
532.283	32.08
532.481	32.06
532.68	32.13
532.878	32.11
533.076	32.03
533.274	31.94
533.472	31.78
533.67	31.77
533.868	31.78
534.066	31.82
534.264	31.74
534.462	31.86
534.66	31.88
534.858	31.71
535.056	31.73
535.253	31.79
535.451	31.96
535.649	31.98
535.847	32.04
536.045	32.07
536.243	32.13
536.441	32.21
536.638	32.28
536.836	32.3
537.034	32.52
537.232	32.47
537.43	32.46
537.627	32.29
537.825	32.45
538.023	32.48
538.22	32.48
538.418	32.39
538.616	32.3
538.813	32.2
539.011	32.26
539.209	32.23
539.406	32.23
539.604	32.24
539.801	32.31
539.999	32.18
540.196	32.19
540.394	32.17
540.591	32.27
540.789	32.24
540.986	32.23
541.184	32.17
541.381	32.18
541.579	32.14
541.776	32.08
541.974	32.07
542.171	32.08
542.368	32.06
542.566	32.13
542.763	32.07
542.96	32.04
543.158	31.97
543.355	31.96
543.552	31.98
543.75	32.01
543.947	32.14
544.144	32.17
544.341	32.19
544.539	32.2
544.736	32.23
544.933	32.27
545.13	32.32
545.327	32.41
545.524	32.52
545.722	32.46
545.919	32.34
546.116	32.39
546.313	32.32
546.51	32.36
546.707	32.27
546.904	32.16
547.101	32.18
547.298	32.21
547.495	32.12
547.692	31.88
547.889	31.88
548.086	32
548.283	31.91
548.48	31.92
548.677	31.85
548.874	32.04
549.07	32.13
549.267	32.03
549.464	31.97
549.661	32.12
549.858	32.36
550.055	32.49
550.251	32.56
550.448	32.58
550.645	32.84
550.842	32.78
551.038	32.45
551.235	32.28
551.432	32.4
551.628	32.4
551.825	32.35
552.022	32.25
552.218	32.09
552.415	32.06
552.612	31.99
552.808	31.87
553.005	32
553.201	32.22
553.398	32.21
553.594	32.03
553.791	32.01
553.987	32.16
554.184	32.13
554.38	32.15
554.577	32.15
554.773	32.21
554.97	32.05
555.166	32.09
555.362	32.02
555.559	31.97
555.755	32.05
555.952	32.2
556.148	32.08
556.344	32.05
556.541	32.15
556.737	31.81
556.933	31.95
557.129	32
557.326	31.81
557.522	31.95
557.718	32.06
557.914	31.83
558.11	31.9
558.307	31.84
558.503	32.26
558.699	32.19
558.895	32.35
559.091	32.06
559.287	32
559.483	32.26
559.679	32.07
559.876	32.4
560.072	32.59
560.268	32.42
560.464	32.41
560.66	32.12
560.856	32.01
561.052	32.2
561.247	32.35
561.443	32.42
561.639	32.43
561.835	32.6
562.031	32.34
562.227	32.39
562.423	32.55
562.619	32.43
562.815	32.57
563.01	32.82
563.206	32.73
563.402	32.75
563.598	32.91
563.793	32.68
563.989	32.59
564.185	32.6
564.381	32.58
564.576	32.35
564.772	32.56
564.968	32.33
565.163	32.18
565.359	32.03
565.555	32.04
565.75	31.85
565.946	31.85
566.141	31.83
566.337	31.72
566.532	31.71
566.728	31.69
566.923	31.47
567.119	31.5
567.314	31.56
567.51	31.58
567.705	31.34
567.901	31.52
568.096	31.59
568.292	31.6
568.487	31.76
568.682	31.69
568.878	31.74
569.073	31.85
569.268	32.05
569.464	32.1
569.659	32.26
569.854	32.36
570.05	32.2
570.245	32.12
570.44	32.13
570.635	31.99
570.831	32.1
571.026	32.19
571.221	32.1
571.416	31.92
571.611	31.7
571.806	31.56
572.002	31.59
572.197	31.65
572.392	31.66
572.587	31.59
572.782	31.62
572.977	31.68
573.172	31.68
573.367	31.83
573.562	31.79
573.757	32.03
573.952	32.18
574.147	32.16
574.342	32.2
574.537	32.27
574.732	32.14
574.927	32.28
575.121	32.25
575.316	32.24
575.511	32.3
575.706	32.48
575.901	32.27
576.096	32.2
576.29	32.37
576.485	32.35
576.68	32.26
576.875	32.36
577.069	32.21
577.264	31.89
577.459	32.02
577.654	31.79
577.848	31.73
578.043	31.78
578.238	31.86
578.432	31.71
578.627	31.85
578.821	31.87
579.016	31.99
579.21	32
579.405	32.35
579.6	32.44
579.794	32.76
579.989	32.71
580.183	32.85
580.378	32.62
580.572	32.47
580.766	32.24
580.961	32.11
581.155	32.04
581.35	32.12
581.544	32.07
581.738	31.84
581.933	31.62
582.127	31.39
582.321	31.19
582.516	31.2
582.71	31.36
582.904	31.32
583.099	31.77
583.293	31.45
583.487	31.41
583.681	31.37
583.875	31.37
584.07	31.49
584.264	31.78
584.458	32.09
584.652	32.13
584.846	31.97
585.04	32.17
585.234	31.86
585.428	32.22
585.623	32.15
585.817	32.06
586.011	32.06
586.205	32.02
586.399	32.24
586.593	31.9
586.787	32.06
586.981	32.26
587.174	32.08
587.368	32.02
587.562	31.99
587.756	32.23
587.95	32.11
588.144	32.37
588.338	32.56
588.532	31.97
588.725	32.11
588.919	32.15
589.113	32.13
589.307	32.21
589.501	32.39
589.694	32.38
589.888	32.31
590.082	32.5
590.275	32.17
590.469	32.11
590.663	32.32
590.856	32.12
591.05	32.22
591.244	32.37
591.437	32.33
591.631	32.41
591.824	32.22
592.018	32.06
592.212	32.14
592.405	32.47
592.599	32.41
592.792	32.26
592.986	32.59
593.179	32.31
593.372	32.26
593.566	32.14
593.759	32.05
593.953	32.44
594.146	32.34
594.339	32.44
594.533	32.35
594.726	32.29
594.92	32.53
595.113	32.33
595.306	32.43
595.499	32.17
595.693	32.39
595.886	32.42
596.079	32.23
596.272	32.21
596.466	32.14
596.659	31.86
596.852	31.79
597.045	31.83
597.238	31.84
597.431	31.78
597.624	31.88
597.818	31.78
598.011	31.74
598.204	31.88
598.397	32.02
598.59	32.16
598.783	32.29
598.976	32.54
599.169	32.56
599.362	32.62
599.555	32.76
599.748	32.53
599.941	32.55
600.134	32.63
600.326	32.64
600.519	32.81
600.712	32.48
600.905	32.45
601.098	32.37
601.291	32.53
601.483	32.48
601.676	32.25
601.869	32.45
602.062	32.72
602.255	32.73
602.447	32.74
602.64	32.7
602.833	32.8
603.025	32.8
603.218	32.76
603.411	32.53
603.603	32.72
603.796	32.66
603.989	32.79
604.181	32.39
604.374	32.23
604.566	32.06
604.759	31.98
604.951	31.81
605.144	31.83
605.336	31.88
605.529	31.83
605.721	31.68
605.914	31.97
606.106	31.67
606.299	31.94
606.491	32.27
606.683	32.41
606.876	32.36
607.068	32.62
607.26	32.74
607.453	32.53
607.645	32.53
607.837	32.55
608.03	32.44
608.222	32.65
608.414	32.46
608.606	31.98
608.799	31.87
608.991	31.88
609.183	31.86
609.375	31.77
609.567	31.89
609.759	31.92
609.952	31.89
610.144	31.95
610.336	31.96
610.528	32.04
610.72	32.15
610.912	32.36
611.104	32.55
611.296	32.48
611.488	32.43
611.68	32.62
611.872	32.56
612.064	32.6
612.256	32.62
612.448	32.69
612.64	32.58
612.832	32.47
613.023	32.32
613.215	31.81
613.407	31.96
613.599	32.03
613.791	31.99
613.983	32.01
614.174	31.99
614.366	31.85
614.558	31.72
614.75	31.93
614.941	32.04
615.133	32.23
615.325	32.59
615.516	32.56
615.708	32.62
615.9	32.46
616.091	32.6
616.283	32.9
616.475	32.79
616.666	32.89
616.858	32.8
617.049	33.02
617.241	33.02
617.432	32.92
617.624	32.85
617.815	32.98
618.007	33.04
618.198	33.12
618.39	32.89
618.581	33.14
618.773	32.85
618.964	32.8
619.155	32.82
619.347	32.58
619.538	32.73
619.729	32.63
619.921	32.59
620.112	32.58
620.303	32.38
620.494	32.22
620.686	32.15
620.877	32.53
621.068	32.51
621.259	32.47
621.451	32.66
621.642	32.63
621.833	32.67
622.024	32.65
622.215	32.38
622.406	32.49
622.597	32.45
622.788	32.46
622.98	32.2
623.171	32.34
623.362	32.27
623.553	32.13
623.744	32.24
623.935	32.27
624.126	32.29
624.317	32.38
624.508	32.4
624.698	32.51
624.889	32.46
625.08	32.72
625.271	32.73
625.462	32.68
625.653	32.64
625.844	32.7
626.034	32.75
626.225	32.49
626.416	32.46
626.607	32.45
626.798	32.27
626.988	32.23
627.179	32.31
627.37	32.41
627.56	32.3
627.751	32.15
627.942	32.04
628.132	31.97
628.323	32.03
628.514	32.16
628.704	32.25
628.895	32.41
629.085	32.51
629.276	32.23
629.466	32.14
629.657	32.11
629.847	32.49
630.038	32.73
630.228	32.84
630.419	33.24
630.609	33.05
630.8	33.09
630.99	33.35
631.181	32.93
631.371	32.93
631.561	32.99
631.752	33.5
631.942	33.18
632.132	32.76
632.323	32.67
632.513	32.04
632.703	32.36
632.893	32.37
633.084	32.12
633.274	32.53
633.464	32.54
633.654	32.39
633.844	32.37
634.034	32.78
634.225	33.16
634.415	33.29
634.605	33.63
634.795	33.41
634.985	33.48
635.175	33.84
635.365	33.94
635.555	34
635.745	34.23
635.935	34.23
636.125	33.62
636.315	33.36
636.505	33.43
636.695	33.58
636.885	33.72
637.075	33.37
637.265	32.97
637.455	32.86
637.644	33.16
637.834	33.08
638.024	33.11
638.214	33.72
638.404	33.92
638.593	33.58
638.783	33.3
638.973	33.23
639.163	33.45
639.352	33.73
639.542	33.9
639.732	33.46
639.921	32.96
640.111	32.51
640.301	32.25
640.49	32.24
640.68	32.31
640.87	32.45
641.059	32.27
641.249	32.54
641.438	32.33
641.628	32.39
641.817	32.97
642.007	33.5
642.196	33.7
642.386	33.84
642.575	33.49
642.764	33.72
642.954	33.75
643.143	34.02
643.333	33.62
643.522	34.02
643.711	33.92
643.901	33.42
644.09	33.28
644.279	33.19
644.469	32.8
644.658	33.44
644.847	33.12
645.036	32.99
645.226	32.72
645.415	33.09
645.604	32.65
645.793	32.63
645.982	32.53
646.171	32.24
646.361	32.83
646.55	33.34
646.739	32.67
646.928	32.91
647.117	33.23
647.306	33.25
647.495	33.28
647.684	33.47
647.873	33.44
648.062	33.7
648.251	34.09
648.44	33.92
648.629	33.81
648.818	33.91
649.007	33.56
649.196	33.53
649.384	33.57
649.573	33.48
649.762	33.44
649.951	33.52
650.14	34.02
650.328	33.75
650.517	33.38
650.706	33.1
650.895	32.87
651.083	33.08
651.272	32.6
651.461	32.45
651.65	31.85
651.838	31.87
652.027	31.4
652.216	30.74
652.404	30.76
652.593	30.63
652.781	30.83
652.97	31.32
653.158	30.97
653.347	31.59
653.535	32
653.724	32.3
653.912	32.07
654.101	32.31
654.289	32.61
654.478	33.07
654.666	33.04
654.855	32.91
655.043	32.56
655.231	33.06
655.42	32.57
655.608	32.44
655.796	32.67
655.985	32.66
656.173	32.61
656.361	32.43
656.55	31.79
656.738	31.68
656.926	31.87
657.114	32.2
657.302	31.92
657.491	32.28
657.679	32.34
657.867	32.11
658.055	32.36
658.243	32.52
658.431	32.52
658.619	32.91
658.807	33.05
658.996	32.97
659.184	32.95
659.372	33.07
659.56	33.01
659.748	32.96
659.936	33.03
660.124	32.93
660.311	32.54
660.499	32.69
660.687	32.5
660.875	32.54
661.063	32.64
661.251	32.45
661.439	32.61
661.627	32.57
661.814	32.51
662.002	32.52
662.19	32.8
662.378	33.17
662.565	33.27
662.753	33.61
662.941	33.71
663.129	33.49
663.316	33.55
663.504	33.61
663.692	33.73
663.879	34.12
664.067	33.98
664.254	34.07
664.442	34.12
664.63	34.01
664.817	33.6
665.005	33.2
665.192	33.45
665.38	33.24
665.567	33.21
665.755	33.09
665.942	32.85
666.13	33.13
666.317	32.65
666.504	32.83
666.692	32.36
666.879	32.72
667.067	33.37
667.254	33.27
667.441	33.36
667.629	33.37
667.816	33.33
668.003	33.22
668.19	33.07
668.378	33.03
668.565	33.08
668.752	33.23
668.939	33.44
669.127	33.41
669.314	33.28
669.501	33.45
669.688	33.49
669.875	33.39
670.062	33.41
670.249	33.53
670.436	33.79
670.623	33.55
670.81	33.77
670.997	33.34
671.184	33
671.371	32.75
671.558	32.5
671.745	31.99
671.932	31.48
672.119	31.59
672.306	31.45
672.493	31.35
672.68	31.47
672.867	31.72
673.054	31.36
673.24	31.18
673.427	31.82
673.614	31.79
673.801	31.97
673.988	32.32
674.174	32.47
674.361	32.48
674.548	32.58
674.734	32.58
674.921	32.38
675.108	32.86
675.294	33.04
675.481	33.23
675.668	33.62
675.854	33.97
676.041	33.8
676.227	33.86
676.414	34.16
676.601	33.78
676.787	33.77
676.974	33.42
677.16	33.53
677.347	34.24
677.533	33.74
677.719	33.56
677.906	33.15
678.092	33.51
678.279	33.63
678.465	33.27
678.651	34.03
678.838	34.31
679.024	34.71
679.21	34.61
679.397	34.6
679.583	35.03
679.769	35.06
679.955	35.14
680.142	35.33
680.328	34.94
680.514	34.89
680.7	34.31
680.886	34.05
681.073	34.1
681.259	34.15
681.445	33.35
681.631	32.93
681.817	33.09
682.003	33.28
682.189	33.07
682.375	33.1
682.561	33.25
682.747	33.24
682.933	33
683.119	32.86
683.305	32.69
683.491	33.13
683.677	33.24
683.863	33.71
684.049	33.55
684.235	33.11
684.42	33.25
684.606	33.24
684.792	33.38
684.978	34.03
685.164	33.94
685.349	33.7
685.535	33.83
685.721	33.66
685.907	32.85
686.092	32.88
686.278	32.95
686.464	32.51
686.649	32.07
686.835	31.86
687.021	31.28
687.206	30.95
687.392	31.51
687.577	31.77
687.763	31.39
687.948	31.42
688.134	32.09
688.319	32.69
688.505	33.19
688.69	33.94
688.876	34.18
689.061	34.46
689.247	34.83
689.432	34.31
689.618	33.88
689.803	34.27
689.988	34.39
690.174	33.67
690.359	33.15
690.544	33.15
690.73	33.04
690.915	32.95
691.1	32.75
691.285	32.6
691.471	33.26
691.656	33.26
691.841	33.35
692.026	33.67
692.211	33.92
692.396	34.09
692.582	33.89
692.767	33.6
692.952	33.37
693.137	33.5
693.322	33.75
693.507	33.24
693.692	33.21
693.877	32.67
694.062	32.22
694.247	32.47
694.432	32.85
694.617	32.03
694.802	32.3
694.987	32.55
695.172	32.34
695.357	32.13
695.541	32.53
695.726	32.29
695.911	32.91
696.096	33.17
696.281	32.58
696.466	32.5
696.65	33.69
696.835	33.58
697.02	33.62
697.204	33.66
697.389	33.37
697.574	33.56
697.759	34.14
697.943	33.64
698.128	33.38
698.312	33.09
698.497	32.97
698.682	32.73
698.866	33.06
699.051	33.05
699.235	33.04
699.42	33.3
699.604	33.04
699.789	32.87
699.973	32.77
700.158	32.82
700.342	33.25
700.527	33.54
700.711	33.89
700.895	34.12
701.08	34.09
701.264	34.17
701.448	34.55
701.633	34.11
701.817	34.06
702.001	34.72
702.186	34.91
702.37	35.22
702.554	35.03
702.738	34.4
702.923	33.98
703.107	33.86
703.291	33.59
703.475	33.66
703.659	33.83
703.843	33.78
704.027	33.77
704.212	34.12
704.396	33.76
704.58	33.44
704.764	33.7
704.948	33.17
705.132	33.29
705.316	33.34
705.5	32.55
705.684	32.39
705.868	32.97
706.052	32.75
706.235	32.23
706.419	32.11
706.603	33.06
706.787	33.47
706.971	33.78
707.155	33.6
707.339	33.66
707.522	33.91
707.706	34.79
707.89	33.87
708.074	34.07
708.257	33.89
708.441	33.96
708.625	33.52
708.808	33.11
708.992	32.46
709.176	33.2
709.359	33.09
709.543	33.43
709.727	32.92
709.91	32.73
710.094	32.37
710.277	32.6
710.461	32.42
710.644	32.05
710.828	31.38
711.011	32.04
711.195	31.71
711.378	31.97
711.562	32.54
711.745	32.44
711.928	32.97
712.112	33.48
712.295	33.25
712.478	33.42
712.662	33.39
712.845	33.86
713.028	32.97
713.212	32.72
713.395	32.79
713.578	32.04
713.761	31.99
713.945	31.73
714.128	31.11
714.311	30.79
714.494	31.4
714.677	31.84
714.86	31.64
715.043	32.26
715.227	32.2
715.41	32.46
715.593	31.81
715.776	32.4
715.959	32.45
716.142	32.56
716.325	32.88
716.508	31.5
716.691	30.69
716.874	30.89
717.057	30.93
717.239	30.89
717.422	30.38
717.605	30.38
717.788	29.91
717.971	29.9
718.154	30.22
718.337	30.53
718.519	31.39
718.702	31.81
718.885	32.4
719.068	33.61
719.25	34.12
719.433	34.68
719.616	35.25
719.798	35.29
719.981	35.98
720.164	36.08
720.346	35.86
720.529	35.47
720.712	35.67
720.894	35.53
721.077	34.49
721.259	34.03
721.442	33.06
721.624	34.66
721.807	34.93
721.989	34.18
722.172	33.94
722.354	34.39
722.537	35.73
722.719	34.8
722.901	34.72
723.084	34.26
723.266	34.31
723.448	35.54
723.631	34.22
723.813	33.56
723.995	32.77
724.178	32.98
724.36	32.5
724.542	32.01
724.724	32.46
724.907	32.4
725.089	32.37
725.271	32.45
725.453	31.61
725.635	31.63
725.817	32.14
725.999	32.47
726.181	32.43
726.364	31.64
726.546	31.3
726.728	31.95
726.91	31.38
727.092	32.03
727.274	31.96
727.456	32.17
727.638	31.06
727.819	31.16
728.001	32.63
728.183	32.68
728.365	33.95
728.547	34.08
728.729	34.07
728.911	33.58
729.093	33.01
729.274	32.83
729.456	32.21
729.638	32.43
729.82	32.82
730.001	32.71
730.183	33.02
730.365	32.56
730.546	32.32
730.728	32.02
730.91	32.21
731.091	32.07
731.273	32.82
731.455	33.87
731.636	34.11
731.818	33.63
731.999	32.65
732.181	32.56
732.362	32.49
732.544	33.38
732.725	34.03
732.907	34.34
733.088	34.56
733.27	35.02
733.451	35.18
733.633	35.45
733.814	35.22
733.995	35.79
734.177	35.79
734.358	36.11
734.539	34.93
734.721	34.16
734.902	34.44
735.083	34.59
735.264	33.55
735.446	33.22
735.627	33.13
735.808	34
735.989	33.09
736.17	32.75
736.351	33.07
736.533	33.74
736.714	34.75
736.895	35.25
737.076	36.31
737.257	36.72
737.438	36.75
737.619	37.07
737.8	36.49
737.981	37.15
738.162	37.74
738.343	37.64
738.524	37.5
738.705	36.89
738.886	36.42
739.067	34.92
739.247	33.91
739.428	32.5
739.609	31.34
739.79	30.68
739.971	30.37
740.151	29.55
740.332	30.01
740.513	30.77
740.694	30.73
740.874	31.63
741.055	33.27
741.236	33.46
741.417	34.24
741.597	35.93
741.778	36.8
741.958	38.04
742.139	37.67
742.32	36.88
742.5	36.64
742.681	36.29
742.861	35.53
743.042	33.97
743.222	34.64
743.403	34.7
743.583	34.78
743.764	34.84
743.944	33.48
744.124	34.32
744.305	35.26
744.485	34.8
744.666	34.97
744.846	35.18
745.026	36.65
745.207	37.81
745.387	36.92
745.567	36.11
745.747	36.45
745.928	36.4
746.108	36.97
746.288	36.72
746.468	36.7
746.648	36.32
746.829	35.14
747.009	34.39
747.189	33.24
747.369	33.63
747.549	33.54
747.729	33.12
747.909	32.84
748.089	32.29
748.269	32.01
748.449	33.09
748.629	33.01
748.809	33.76
748.989	33.83
749.169	34.45
749.349	35.85
749.529	35.3
749.709	34.93
749.889	35.78
750.068	35.84
750.248	35.06
750.428	35.1
750.608	35.59
750.788	35.69
750.967	36.27
751.147	36.17
751.327	35.4
751.507	34.89
751.686	35.6
751.866	35.15
752.046	34.52
752.225	36.55
752.405	34.75
752.585	34.01
752.764	34.77
752.944	32.71
753.123	31.61
753.303	32.05
753.482	33.14
753.662	32.04
753.841	32.65
754.021	32.84
754.2	31.34
754.38	30.96
754.559	30.55
754.739	29.25
754.918	29.98
755.097	31.43
755.277	31.74
755.456	33.17
755.635	33.27
755.815	33.77
755.994	34.9
756.173	35.08
756.352	35.11
756.532	36.25
756.711	36.71
756.89	37.22
757.069	36.7
757.248	36.76
757.427	34.87
757.607	35.85
757.786	33.84
757.965	34.76
758.144	35.15
758.323	36.25
758.502	35.27
758.681	35.35
758.86	34.97
759.039	34.98
759.218	34.41
759.397	35.12
759.576	34.65
759.755	36.19
759.934	34.88
760.113	34.93
760.291	34.44
760.47	35.09
760.649	35.77
760.828	36.7
761.007	36.62
761.186	37.29
761.364	38.31
761.543	38.88
761.722	37.78
761.901	37.48
762.079	36.87
762.258	37.13
762.437	37.03
762.615	35.61
762.794	34.22
762.972	33.97
763.151	33.59
763.33	32
763.508	32.28
763.687	33.83
763.865	34.31
764.044	35.23
764.222	35.37
764.401	35.38
764.579	35.51
764.758	35.64
764.936	36.27
765.114	36.2
765.293	37.77
765.471	36.85
765.65	35.71
765.828	34.9
766.006	33.58
766.184	32.42
766.363	31.71
766.541	32.02
766.719	32.7
766.898	32.54
767.076	33.18
767.254	31.85
767.432	32.11
767.61	32.05
767.788	33.1
767.967	33.64
768.145	35.62
768.323	36.31
768.501	37.14
768.679	37.22
768.857	37.51
769.035	36.71
769.213	36.67
769.391	36.51
769.569	37.44
769.747	36.01
769.925	36.78
770.103	37.05
770.281	38.03
770.459	36.49
770.636	36.62
770.814	36.99
770.992	37.78
771.17	39.49
771.348	40.07
771.525	39.22
771.703	40.46
771.881	41.04
772.059	41.08
772.236	40.5
772.414	41.1
772.592	41.2
772.769	40.24
772.947	41.68
773.125	41.98
773.302	42.05
773.48	42.79
773.657	43.15
773.835	42.37
774.013	42.97
774.19	42.77
774.368	43.66
774.545	44.05
774.723	44.33
774.9	42.51
775.077	41.23
775.255	40.83
775.432	39.83
775.61	38.79
775.787	37.16
775.964	33.81
776.142	34.14
776.319	35.07
776.496	33.76
776.674	31.47
776.851	32.42
777.028	30.57
777.205	31.85
777.382	33
777.56	32.78
777.737	33.69
777.914	33.82
778.091	34.79
778.268	34.21
778.445	35.4
778.622	39.52
778.8	39.43
778.977	40.8
779.154	40.28
779.331	40.05
779.508	41.27
779.685	42.85
779.862	43.92
780.038	45.01
780.215	44.3
780.392	44.62
780.569	43.2
780.746	44.13
780.923	44.94
781.1	43.47
781.277	41.69
781.453	39.56
781.63	37.63
781.807	39.32
781.984	36.77
782.16	39.17
782.337	38.35
782.514	36.37
782.691	34.65
782.867	34.11
783.044	34.93
783.221	35.37
783.397	39.26
783.574	41.83
783.75	41.39
783.927	42.27
784.103	42.63
784.28	44.81
784.456	46.18
784.633	44.1
784.809	43.83
784.986	46.85
785.162	47.24
785.339	43.3
785.515	41.77
785.692	40.67
785.868	43.08
786.044	38.27
786.221	38.6
786.397	37.19
786.573	39.71
786.749	39.61
786.926	35.82
787.102	36.63
787.278	37.84
787.454	37.63
787.631	36.33
787.807	35.33
787.983	35.3
788.159	30.36
788.335	32.34
788.511	33.89
788.687	35.17
788.863	36.33
789.039	36.82
789.216	37.72
789.392	38.94
789.568	41.03
789.744	40.41
789.919	40.37
790.095	42.72
790.271	43.72
790.447	41.64
790.623	41.38
790.799	38.88
790.975	39.04
791.151	39.92
791.327	39.81
791.502	39.98
791.678	39.25
791.854	42.35
792.03	42.88
792.205	41.21
792.381	40.26
792.557	39.3
792.733	38.77
792.908	35.28
793.084	36.57
793.259	34.54
793.435	31.12
793.611	31.21
793.786	30.53
793.962	30.79
794.137	31.22
794.313	33.35
794.488	33.63
794.664	36.33
794.839	41.79
795.015	42.52
795.19	42.39
795.366	42.79
795.541	44.16
795.716	42.74
795.892	42.53
796.067	41.21
796.242	38.9
796.418	39.13
796.593	37.8
796.768	34.1
796.944	30.84
797.119	29.76
797.294	30.62
797.469	30.06
797.644	30.01
797.82	30.8
797.995	33.48
798.17	36.44
798.345	36.18
798.52	33.5
798.695	34.6
798.87	36.08
799.045	39.33
799.22	42.09
799.395	40.6
799.57	41.94
799.745	40.58
799.92	39.79
800.095	37.62
800.27	38.95
800.445	43.51
800.62	40.95
800.795	38.84
800.97	37.57
801.145	37.53
801.319	37.24
801.494	38.75
801.669	39.32
801.844	39.46
802.018	41.01
802.193	43.3
802.368	40.38
802.543	42.55
802.717	43.38
802.892	41.89
803.067	39.4
803.241	39.78
803.416	39.32
803.59	37.01
803.765	35.21
803.94	35.98
804.114	35.34
804.289	39.07
804.463	38.23
804.638	37.71
804.812	39.22
804.986	38.88
805.161	34.58
805.335	32.62
805.51	35.13
805.684	34.86
805.858	35.99
806.033	35.57
806.207	34.46
806.381	35.99
806.556	36.54
806.73	36.7
806.904	34.91
807.078	37.8
807.253	39.42
807.427	42.79
807.601	44.89
807.775	42.06
807.949	39.54
808.123	36.84
808.298	35.46
808.472	32.93
808.646	31.7
808.82	35.27
808.994	41.04
809.168	41.95
809.342	39.03
809.516	40.47
809.69	40.28
809.864	42.03
810.038	45.48
810.212	46.5
810.385	50.42
810.559	51.06
810.733	50.09
810.907	49.39
811.081	50.67
811.255	49.58
811.428	47.12
811.602	48.4
811.776	47.26
811.95	46.5
812.123	46.95
812.297	47.11
812.471	45.25
812.644	49
812.818	44.11
812.992	42.01
813.165	43.82
813.339	46.63
813.512	45.51
813.686	47.21
813.86	45.23
814.033	40.94
814.207	35.6
814.38	38.78
814.554	35.11
814.727	36.71
814.9	33.88
815.074	35.67
815.247	34.25
815.421	35.2
815.594	37.62
815.767	38.5
815.941	41.1
816.114	41.56
816.287	42.18
816.46	47.28
816.634	50.79
816.807	55.12
816.98	53.03
817.153	47.97
817.327	46.45
817.5	44.83
817.673	45.72
817.846	47.46
818.019	45.99
818.192	43.32
818.365	39.12
818.538	34.59
818.711	33.82
818.884	35.36
819.057	38.55
819.23	41.02
819.403	35.46
819.576	34.71
819.749	37.93
819.922	39.65
820.095	38.39
820.268	38.16
820.441	39.24
820.614	38.65
820.786	37.03
820.959	36.81
821.132	35.45
821.305	35.74
821.477	35.72
821.65	34.76
821.823	35.58
821.996	35.74
822.168	34.87
822.341	35.06
822.514	34.86
822.686	34.79
822.859	34.4
823.031	34.05
823.204	33.87
823.376	34.16
823.549	33.23
823.722	32.07
823.894	31.96
824.067	32.73
824.239	31.68
824.411	31.32
824.584	31.78
824.756	31.39
824.929	31.74
825.101	32.5
825.273	32.87
825.446	33.51
825.618	35.44
825.79	36.06
825.963	35.48
826.135	36.67
826.307	37.97
826.479	37.09
826.652	37.07
826.824	38.27
826.996	36.72
827.168	35.56
827.34	35.36
827.512	35.39
827.684	33.55
827.856	34.17
828.029	34.71
828.201	32.28
828.373	31.98
828.545	33.21
828.717	32.63
828.889	33.76
829.061	35.07
829.232	33.92
829.404	32.56
829.576	34.21
829.748	33.1
829.92	31.08
830.092	32.67
830.264	33.46
830.436	33.97
830.607	32.38
830.779	32.12
830.951	31.61
831.123	33.94
831.294	36.48
831.466	33.64
831.638	34.62
831.809	33.84
831.981	34.18
832.153	32.39
832.324	29.45
832.496	27.24
832.667	31.53
832.839	29.57
833.011	28.52
833.182	29.41
833.354	36.06
833.525	38.18
833.697	41.14
833.868	38.79
834.039	40.62
834.211	41.88
834.382	43.43
834.554	40.58
834.725	41.55
834.896	41.22
835.068	40.66
835.239	37.44
835.41	37.91
835.581	36.74
835.753	38.73
835.924	40.43
836.095	40.99
836.266	39.3
836.438	41.75
836.609	43.17
836.78	43.08
836.951	40.89
837.122	42.09
837.293	36.55
837.464	38.1
837.635	38.01
837.806	33.33
837.977	35.7
838.148	37.24
838.319	40.11
838.49	43.37
838.661	48.7
838.832	51.37
839.003	50.04
839.174	57.03
839.345	55.21
839.516	56.03
839.687	55.85
839.857	52.03
840.028	53.56
840.199	46.1
840.37	37.67
840.54	38.94
840.711	41.49
840.882	43.65
841.053	39.25
841.223	39.39
841.394	32.26
841.564	32.23
841.735	32.96
841.906	35.12
842.076	41.02
842.247	43.91
842.417	40.9
842.588	44.37
842.758	52.41
842.929	58.98
843.099	69.42
843.27	75.38
843.44	84.11
843.611	83.19
843.781	86.8
843.951	84.16
844.122	89.05
844.292	86.47
844.462	89.38
844.633	85.55
844.803	85.95
844.973	73.88
845.144	89.08
845.314	91.65
845.484	80.21
845.654	69.66
845.824	63.5
845.995	46.97
846.165	54.23
846.335	49.7
846.505	53.84
846.675	50.55
846.845	59.57
847.015	53.71
847.185	46.3
847.355	53.22
847.525	58.46
847.695	60.3
847.865	56.55
848.035	50.69
848.205	40.51
848.375	31.09
848.545	22.76
848.715	14.95
848.884	8.58
849.054	12.95
849.224	12.8
849.394	9.82
849.564	25.61
849.733	39.72
849.903	47.14
850.073	43.95
850.243	59.84
850.412	69.54
850.582	74.67
850.752	69.27
850.921	68.53
851.091	64.16
851.26	61.28
851.43	62.1
851.599	56.04
851.769	69.77
851.939	73.78
852.108	58.43
852.278	61.27
852.447	75.06
852.616	61.92
852.786	69.41
852.955	66
853.125	68.11
853.294	67.75
853.463	65.14
853.633	59
853.802	68.63
853.971	94.81
854.141	90.61
854.31	85.27
854.479	88.26
854.648	82.61
854.818	93.59
854.987	109.44
855.156	114.49
855.325	101.56
855.494	102.03
855.663	90.04
855.832	71.6
856.001	67.81
856.171	71.36
856.34	86.6
856.509	95.24
856.678	97.44
856.847	78.62
857.016	72.77
857.185	82.46
857.353	60.51
857.522	71.12
857.691	69.21
857.86	71.27
858.029	59.91
858.198	63.36
858.367	62.54
858.535	41.04
858.704	45.55
858.873	29.57
859.042	16.54
859.21	64.42
859.379	11.11
859.548	68.48
859.717	58.66
859.885	55.37
860.054	44.28
860.222	44.82
860.391	52.47
860.56	66
860.728	66.77
860.897	73.57
861.065	68.61
861.234	74.08
861.402	72.32
861.571	76.57
861.739	78.56
861.908	77.71
862.076	73.77
862.244	78.77
862.413	69.59
862.581	68.19
862.749	62.92
862.918	67.24
863.086	67.98
863.254	58.26
863.423	60.89
863.591	59.42
863.759	70.02
863.927	72
864.096	69.63
864.264	72.43
864.432	69.39
864.6	88.25
864.768	83.55
864.936	80.45
865.104	93.72
865.272	93.47
865.44	100.95
865.608	96.31
865.776	90.04
865.944	98.19
866.112	105.06
866.28	103.28
866.448	92.23
866.616	97.45
866.784	103.01
866.952	100.09
867.12	92.2
867.288	68.04
867.455	55.79
867.623	59.31
867.791	60.15
867.959	60.86
868.127	68.97
868.294	64.38
868.462	44.91
868.63	40.71
868.797	30.88
868.965	40.71
869.133	49.31
869.3	37.83
869.468	65.27
869.636	53.32
869.803	38.56
869.971	43.62
870.138	50.23
870.306	59.97
870.473	62.19
870.641	60.27
870.808	61.11
870.975	75.59
871.143	79.43
871.31	69.91
871.478	70.06
871.645	62.51
871.812	55.27
871.98	59.41
872.147	58.12
872.314	55.56
872.482	62.74
872.649	74.78
872.816	64.71
872.983	66.31
873.15	74.7
873.318	99.1
873.485	120.71
873.652	138.85
873.819	118.64
873.986	126.61
874.153	120
874.32	107.14
874.487	118.08
874.654	105.85
874.821	126.23
874.988	93.01
875.155	75.77
875.322	71.25
875.489	84.84
875.656	92.17
875.823	90.17
875.99	73.9
876.157	72.49
876.324	54.74
876.49	71.37
876.657	44.26
876.824	42.88
876.991	32.08
877.157	34.18
877.324	10.68
877.491	11.76
877.658	40.54
877.824	66.87
877.991	95.42
878.157	94.97
878.324	92.1
878.491	99.49
878.657	107.53
878.824	109.45
878.99	129.64
879.157	122.17
879.323	108.53
879.49	87.67
879.656	84.14
879.823	70.36
879.989	61.41
880.156	56.42
880.322	74.84
880.488	82.46
880.655	99.76
880.821	95.65
880.987	81.93
881.154	77.18
881.32	66.78
881.486	58.39
881.652	54.3
881.819	58.49
881.985	53.32
882.151	46.17
882.317	42.63
882.483	37.77
882.649	35.63
882.816	34.31
882.982	31.43
883.148	33.24
883.314	34.77
883.48	34.59
883.646	29.93
883.812	30.05
883.978	34.19
884.144	35.45
884.31	35.16
884.476	34.07
884.642	35.13
884.807	34.66
884.973	35.19
885.139	34.82
885.305	34.61
885.471	38.37
885.637	39.56
885.802	39.82
885.968	38.3
886.134	36.88
886.3	38.7
886.465	39.68
886.631	42.76
886.797	44.53
886.962	45.06
887.128	53.37
887.293	57.81
887.459	58.16
887.625	59.87
887.79	66.45
887.956	77.93
888.121	81.17
888.287	86.71
888.452	90.52
888.618	88.87
888.783	93.97
