Data from 2938117_Reflection_1.txt Node
Date: Sat Jul 11 18:04:50 EDT 2015
User: robert
Spectrometer: USB4E03001
Autoset integration time: false
Trigger mode: 4
Integration Time (sec): 1.000000E-1
Scans to average: 10
Electric dark correction enabled: true
Nonlinearity correction enabled: false
Boxcar width: 5
Stray light correction enabled: false
XAxis mode: Wavelengths
Stop averaging: false
Number of Pixels in Spectrum: 3648
>>>>>Begin Spectral Data<<<<<
177.566	579.17
177.785	-145.83
178.005	-40.18
178.225	17.99
178.445	22.66
178.665	73.29
178.885	116.52
179.105	128.55
179.324	124.68
179.544	67.96
179.764	62.87
179.984	30.43
180.204	27.28
180.423	24.97
180.643	193.5
180.863	-49.65
181.083	0.06
181.302	43.04
181.522	105.89
181.742	166.18
181.961	148.51
182.181	126.24
182.401	187.3
182.621	653.88
182.84	410.94
183.06	102.83
183.279	102.8
183.499	101.32
183.719	70.63
183.938	58.16
184.158	12.93
184.377	84.71
184.597	82.9
184.816	96.43
185.036	100.07
185.256	122.75
185.475	120.04
185.695	124
185.914	133.13
186.134	150.4
186.353	179.37
186.572	138.75
186.792	130.71
187.011	174.43
187.231	166.18
187.45	145.11
187.67	134.56
187.889	151.84
188.108	169.87
188.328	186.01
188.547	192.65
188.766	169.62
188.986	192.82
189.205	234.11
189.424	258.65
189.644	326.03
189.863	444.81
190.082	2138.67
190.302	695.74
190.521	683.58
190.74	693.14
190.959	-3990.99
191.178	-2439.54
191.398	1579.96
191.617	515.54
191.836	461.56
192.055	647.23
192.274	553.61
192.494	382.28
192.713	1219.79
192.932	839.37
193.151	-6259.79
193.37	-1575.17
193.589	-383.99
193.808	-2192.7
194.027	-1394.11
194.246	811.29
194.465	14500
194.685	1603.14
194.904	-3215.41
195.123	781.19
195.342	-1111.35
195.561	822.21
195.78	287.6
195.999	221.64
196.218	479.54
196.436	433.39
196.655	431.83
196.874	215.88
197.093	160.86
197.312	128.61
197.531	144.37
197.75	110.21
197.969	132.57
198.188	158.6
198.407	160.36
198.625	188.16
198.844	175.54
199.063	169.87
199.282	295.55
199.501	429.01
199.719	633.84
199.938	352.26
200.157	663.41
200.376	-4885.29
200.594	482.18
200.813	284.09
201.032	169.31
201.251	164.27
201.469	179.52
201.688	122.52
201.907	128.42
202.125	127.81
202.344	172.35
202.563	204.68
202.781	187.24
203	144.89
203.218	134.55
203.437	131.74
203.656	253.42
203.874	241.92
204.093	198.25
204.311	155.27
204.53	145.25
204.748	145.41
204.967	132.31
205.185	121.74
205.404	142.5
205.622	153.92
205.841	166.6
206.059	164.23
206.278	157.73
206.496	187.05
206.715	257.99
206.933	348.96
207.151	525.22
207.37	765.3
207.588	1128
207.806	596.89
208.025	1258.08
208.243	938.7
208.461	650.43
208.68	-353.28
208.898	833.91
209.116	412.67
209.335	353.5
209.553	790.17
209.771	512.34
209.989	1428.07
210.208	-2625.9
210.426	-991.82
210.644	-1343.89
210.862	413.49
211.081	346.09
211.299	327.1
211.517	558.38
211.735	548.81
211.953	199.56
212.171	200.24
212.39	186.78
212.608	148.89
212.826	142.67
213.044	126.85
213.262	128.8
213.48	103.64
213.698	103.69
213.916	94.78
214.134	90.44
214.352	105.93
214.57	98
214.788	105.74
215.006	124.91
215.224	99.85
215.442	101.06
215.66	122.74
215.878	147.11
216.096	178.69
216.314	158.96
216.532	169.72
216.75	146.84
216.968	189.25
217.185	184.06
217.403	175.3
217.621	274.37
217.839	239.05
218.057	168.43
218.275	184.17
218.492	211.52
218.71	207.67
218.928	235.78
219.146	360.65
219.363	275.22
219.581	333.99
219.799	-302.71
220.017	-2601.03
220.234	-144.34
220.452	-59.6
220.67	-100.59
220.887	184.09
221.105	233.52
221.323	118.6
221.54	78.97
221.758	98.2
221.976	97.86
222.193	92.12
222.411	95.25
222.629	82.33
222.846	91.35
223.064	97.43
223.281	97.13
223.499	89.53
223.716	90.31
223.934	104.45
224.151	82.04
224.369	91.04
224.586	109.88
224.804	100.39
225.021	100.42
225.239	91.67
225.456	84.67
225.674	82.42
225.891	96.73
226.108	92.86
226.326	83.8
226.543	87.8
226.76	80.06
226.978	66.82
227.195	64.5
227.413	65.92
227.63	53.38
227.847	50.5
228.064	46.3
228.282	37.8
228.499	34.88
228.716	31.51
228.934	30.31
229.151	30.78
229.368	30.47
229.585	29.64
229.802	30.16
230.02	29.81
230.237	31.26
230.454	32.87
230.671	32.5
230.888	31.14
231.105	33.4
231.323	33.06
231.54	34.46
231.757	36.66
231.974	42.21
232.191	40.48
232.408	37.03
232.625	38.89
232.842	36.56
233.059	34.37
233.276	35.48
233.493	38.3
233.71	40.95
233.927	41.41
234.144	38.32
234.361	37.91
234.578	38.39
234.795	39.61
235.012	34.46
235.229	30.14
235.446	32.82
235.663	34.05
235.879	33.91
236.096	32.29
236.313	31.16
236.53	29.25
236.747	32.6
236.964	36.24
237.181	39.92
237.397	42.35
237.614	52.54
237.831	52.38
238.048	57.31
238.264	52.76
238.481	52.04
238.698	50.54
238.915	45.27
239.131	39.59
239.348	35.58
239.565	34.04
239.781	32.48
239.998	28.04
240.215	28.26
240.431	25.8
240.648	25.22
240.865	24.97
241.081	25.35
241.298	27.44
241.514	24.51
241.731	23.57
241.947	22
242.164	20.35
242.38	19.52
242.597	19.1
242.814	18.64
243.03	20.2
243.246	20.84
243.463	21.26
243.679	23.63
243.896	25.9
244.112	26.04
244.329	27.24
244.545	31.09
244.762	31.67
244.978	33.52
245.194	34.9
245.411	32.49
245.627	31.62
245.843	27.15
246.06	23.88
246.276	21.92
246.492	23.25
246.709	22.25
246.925	22.19
247.141	21.48
247.357	20.62
247.574	20.61
247.79	21.04
248.006	20.57
248.222	22
248.439	22.36
248.655	22.76
248.871	21.43
249.087	22.63
249.303	22.43
249.519	24.44
249.736	24.27
249.952	23.92
250.168	25.56
250.384	27.46
250.6	25.31
250.816	24.57
251.032	25.5
251.248	25.89
251.464	28.69
251.68	26.44
251.896	25.29
252.112	25.51
252.328	24.33
252.544	23.87
252.76	22.56
252.976	23.45
253.192	24.35
253.408	23.27
253.624	24.22
253.84	22.6
254.056	22.83
254.272	22.48
254.487	22.01
254.703	23.21
254.919	21.91
255.135	22.55
255.351	23.72
255.567	26.48
255.782	30.1
255.998	29.7
256.214	27.01
256.43	27.64
256.646	30.23
256.861	30.33
257.077	29.55
257.293	31.15
257.508	30.02
257.724	29.59
257.94	25.75
258.155	23.64
258.371	23.52
258.587	21.29
258.802	20.12
259.018	18.01
259.234	17.67
259.449	16.47
259.665	15.64
259.88	15.89
260.096	15.14
260.312	14.97
260.527	15.34
260.743	15.04
260.958	15.76
261.174	16.09
261.389	16.46
261.605	16.7
261.82	17.46
262.036	16.98
262.251	15.52
262.466	16.47
262.682	17.84
262.897	16.65
263.113	17.37
263.328	17.17
263.543	19.31
263.759	21.43
263.974	20.85
264.189	21.53
264.405	23.12
264.62	26.05
264.835	25.48
265.051	25.33
265.266	25.38
265.481	23.27
265.696	23.43
265.912	21.78
266.127	20.99
266.342	19.85
266.557	18.18
266.773	18.35
266.988	16.69
267.203	16.29
267.418	16.7
267.633	18.75
267.848	18.69
268.064	19.42
268.279	19.39
268.494	19.03
268.709	19.69
268.924	20.61
269.139	19.09
269.354	21.54
269.569	23
269.784	23.03
269.999	21.17
270.214	20.54
270.429	19.87
270.644	19.28
270.859	19.75
271.074	19.14
271.289	19.15
271.504	19.98
271.719	18.96
271.934	17.45
272.149	16.82
272.363	16.68
272.578	16.74
272.793	15.5
273.008	14.76
273.223	13.1
273.438	13.65
273.653	14.57
273.867	13.67
274.082	13.24
274.297	13.14
274.512	13.66
274.726	13.86
274.941	13.92
275.156	16.01
275.371	16.13
275.585	18.55
275.8	18.81
276.015	17.99
276.229	18.68
276.444	18.49
276.659	17.92
276.873	16.34
277.088	17.24
277.302	19.34
277.517	18.27
277.732	19.36
277.946	17.27
278.161	19.53
278.375	19.05
278.59	20.34
278.804	20.96
279.019	22.42
279.233	23.83
279.448	24.91
279.662	25.03
279.877	25.13
280.091	22.98
280.306	24.5
280.52	22.86
280.735	21.2
280.949	21.4
281.163	20.92
281.378	20.54
281.592	21.12
281.806	18.99
282.021	18.14
282.235	18.74
282.449	18.86
282.664	19.16
282.878	19.33
283.092	21.26
283.307	20.76
283.521	19.15
283.735	18.47
283.949	17.38
284.164	17.52
284.378	17.57
284.592	16.66
284.806	16.99
285.02	15.18
285.234	14.4
285.449	13.84
285.663	12.62
285.877	13.89
286.091	15.48
286.305	14.5
286.519	13.29
286.733	11.9
286.947	12.89
287.161	13.88
287.375	14.56
287.589	15.95
287.803	17.54
288.017	19.13
288.231	19.88
288.445	18.84
288.659	21.4
288.873	23.06
289.087	23.62
289.301	23.53
289.515	23.7
289.729	24.82
289.943	24.29
290.157	23.68
290.371	24.09
290.584	23.51
290.798	23.11
291.012	21.79
291.226	22.11
291.44	23.04
291.654	22.17
291.867	22.53
292.081	22.21
292.295	21.98
292.509	21.87
292.722	19.43
292.936	20.53
293.15	21.37
293.364	23.8
293.577	25.12
293.791	26.3
294.005	26.86
294.218	25.55
294.432	24.38
294.645	24.97
294.859	24.69
295.073	25.22
295.286	25.1
295.5	25.05
295.713	24.17
295.927	22.83
296.14	21.47
296.354	21.57
296.568	21.4
296.781	22.49
296.994	21.36
297.208	21.34
297.421	22.15
297.635	21.96
297.848	22.6
298.062	22.1
298.275	22.52
298.489	23.69
298.702	23.82
298.915	24.8
299.129	24.9
299.342	26.73
299.555	28.11
299.769	28.56
299.982	30.21
300.195	29.28
300.409	29.85
300.622	30.22
300.835	30.15
301.048	30.66
301.262	30.89
301.475	30.13
301.688	29.83
301.901	29.73
302.115	29.87
302.328	29.36
302.541	30.86
302.754	30.46
302.967	31.44
303.18	29.99
303.393	31.06
303.607	30.61
303.82	30.82
304.033	30.44
304.246	31.25
304.459	31.66
304.672	30.68
304.885	30.13
305.098	30.86
305.311	29.77
305.524	31.66
305.737	30.37
305.95	32.12
306.163	32.26
306.376	32.38
306.589	32.06
306.802	31.36
307.015	31.34
307.228	31.09
307.44	30.88
307.653	32.07
307.866	31.5
308.079	30.93
308.292	28.83
308.505	27.93
308.718	27.98
308.93	27.18
309.143	27.78
309.356	26.27
309.569	26.08
309.781	27.33
309.994	26.94
310.207	26.85
310.42	25.5
310.632	25.31
310.845	25.04
311.058	24.6
311.27	23.94
311.483	23.38
311.696	24.24
311.908	24.94
312.121	24.03
312.333	24.17
312.546	24.05
312.759	26.97
312.971	27.75
313.184	29.6
313.396	30.13
313.609	30.93
313.821	31.52
314.034	33.82
314.246	34.95
314.459	35.59
314.671	35.9
314.884	35.04
315.096	33.61
315.309	33.92
315.521	32.97
315.733	32.85
315.946	33.08
316.158	32.9
316.371	31.97
316.583	31.97
316.795	30.13
317.008	28.84
317.22	29.51
317.432	31.23
317.644	32.2
317.857	34.08
318.069	34.02
318.281	34.33
318.494	35.57
318.706	35.76
318.918	35.17
319.13	35.95
319.342	37.41
319.555	37.03
319.767	35.37
319.979	34
320.191	32.95
320.403	34.37
320.615	34.32
320.827	35.3
321.039	34.89
321.252	34.19
321.464	36.73
321.676	35.98
321.888	37.68
322.1	37.9
322.312	36.42
322.524	35.82
322.736	33.93
322.948	33.49
323.16	33.09
323.372	32.37
323.584	32.08
323.796	30.75
324.007	30.24
324.219	29.71
324.431	30.74
324.643	31.54
324.855	31.67
325.067	33.29
325.279	34.38
325.491	33.18
325.702	33.38
325.914	33.54
326.126	33.87
326.338	34.17
326.55	34.24
326.761	33.88
326.973	33.75
327.185	35.35
327.396	34.73
327.608	34.01
327.82	35.42
328.032	36.56
328.243	37.74
328.455	37.94
328.666	37.66
328.878	37.34
329.09	36.49
329.301	38.15
329.513	37.81
329.725	36.96
329.936	38.05
330.148	39.19
330.359	38.22
330.571	37.27
330.782	36.87
330.994	39.07
331.205	39.75
331.417	41.49
331.628	41.84
331.84	40.21
332.051	42.74
332.262	43.3
332.474	42.69
332.685	43.48
332.897	43
333.108	43.01
333.319	41.01
333.531	42.3
333.742	43.22
333.953	42.35
334.165	42.76
334.376	42.17
334.587	40.65
334.799	39.7
335.01	39.3
335.221	40.29
335.432	39.55
335.644	40.13
335.855	38.95
336.066	38.36
336.277	39.06
336.488	39.99
336.7	40.59
336.911	40.44
337.122	41.16
337.333	41.18
337.544	41.86
337.755	42.93
337.966	42.68
338.177	43.27
338.388	41.69
338.599	41.32
338.811	40.8
339.022	39.64
339.233	41.06
339.444	41.21
339.655	41.83
339.866	41.24
340.076	40.7
340.287	41.88
340.498	40.41
340.709	41.16
340.92	40.12
341.131	40.39
341.342	40.8
341.553	40.34
341.764	39.92
341.975	40.03
342.185	39.75
342.396	40.36
342.607	40.33
342.818	41.68
343.029	42.19
343.239	43.23
343.45	42.67
343.661	42.31
343.872	41.66
344.082	41.39
344.293	41.33
344.504	41.39
344.714	40.98
344.925	40.62
345.136	38.97
345.346	38.95
345.557	38.8
345.768	39.25
345.978	39.55
346.189	40.43
346.399	41.17
346.61	40.85
346.821	41.31
347.031	41.59
347.242	42.32
347.452	43.33
347.663	43.78
347.873	44.15
348.084	44.42
348.294	43.71
348.504	42.81
348.715	42.22
348.925	43
349.136	41.88
349.346	41.36
349.557	39.55
349.767	40.52
349.977	39.59
350.188	38.85
350.398	39.53
350.608	39.47
350.819	38.96
351.029	37.91
351.239	38.47
351.449	38.57
351.66	39.3
351.87	40.64
352.08	40.5
352.29	40.23
352.501	40.63
352.711	40.38
352.921	40.92
353.131	41.06
353.341	42.71
353.552	41.61
353.762	41.44
353.972	42.13
354.182	41.38
354.392	40.74
354.602	40.57
354.812	40.85
355.022	39.9
355.232	38.56
355.442	39.52
355.652	39.05
355.862	39.07
356.072	39.34
356.282	37.73
356.492	37.92
356.702	38.01
356.912	38.56
357.122	38.13
357.332	38.36
357.542	38.18
357.752	37.02
357.962	36.35
358.171	35.37
358.381	36.06
358.591	36.51
358.801	36.12
359.011	35.93
359.221	35.77
359.43	34.89
359.64	33.59
359.85	33.73
360.06	34.42
360.269	34.29
360.479	34.6
360.689	34.26
360.899	34.36
361.108	34.12
361.318	33.78
361.528	33.48
361.737	33.77
361.947	34.34
362.156	34.73
362.366	34.52
362.576	34.48
362.785	34.61
362.995	34.14
363.204	33.72
363.414	33.93
363.623	33.86
363.833	34.22
364.042	34.75
364.252	34.68
364.461	34.87
364.671	34.53
364.88	35.21
365.09	34.81
365.299	35.37
365.509	35.88
365.718	35.68
365.927	35.3
366.137	35.42
366.346	35.38
366.555	34.44
366.765	34.01
366.974	33.78
367.183	33.45
367.393	33.82
367.602	33.59
367.811	33.62
368.021	34.49
368.23	34.59
368.439	34.27
368.648	34.23
368.857	34.75
369.067	34.54
369.276	34.4
369.485	34.46
369.694	34.66
369.903	34.28
370.112	32.92
370.321	32.79
370.531	32.37
370.74	32.82
370.949	32.6
371.158	32.4
371.367	32.58
371.576	33.12
371.785	32.17
371.994	32.02
372.203	32.49
372.412	32.52
372.621	32.11
372.83	32.87
373.039	31.87
373.248	31.52
373.457	31.99
373.666	31.7
373.874	30.8
374.083	30.55
374.292	30.01
374.501	29.36
374.71	29.56
374.919	29.44
375.128	29.37
375.336	29.43
375.545	30.05
375.754	29.58
375.963	29.01
376.171	29.71
376.38	29.9
376.589	29.55
376.798	29.18
377.006	29.76
377.215	29.3
377.424	28.97
377.632	29.49
377.841	28.79
378.05	28.77
378.258	28.14
378.467	27.89
378.675	27.44
378.884	27.03
379.093	26.82
379.301	26.29
379.51	26.61
379.718	26.74
379.927	26.18
380.135	25.8
380.344	26
380.552	27.22
380.761	26.68
380.969	27.12
381.177	27.64
381.386	27.35
381.594	26.84
381.803	25.75
382.011	25.21
382.219	25.11
382.428	25.53
382.636	25.19
382.845	24.67
383.053	24.86
383.261	24.11
383.469	23.28
383.678	23.78
383.886	23.57
384.094	24.14
384.302	24.22
384.511	24.2
384.719	23.47
384.927	23.01
385.135	22.99
385.343	22.86
385.552	23.44
385.76	23.7
385.968	23.48
386.176	23.73
386.384	23.37
386.592	22.61
386.8	22.46
387.008	22.46
387.216	22.61
387.424	22.57
387.633	22.43
387.841	22.11
388.049	21.77
388.257	21.85
388.465	21.49
388.672	21.11
388.88	21.84
389.088	21.32
389.296	20.79
389.504	20.66
389.712	20.56
389.92	20.28
390.128	20.26
390.336	20.56
390.544	20.09
390.751	19.84
390.959	20.1
391.167	19.43
391.375	19.15
391.583	19.69
391.79	19.65
391.998	19.48
392.206	19.37
392.414	19.22
392.621	18.78
392.829	18.71
393.037	18.79
393.244	18.6
393.452	18.47
393.66	18.97
393.867	18.44
394.075	18.2
394.283	18.31
394.49	18.07
394.698	18.22
394.905	18.24
395.113	18.36
395.32	18.4
395.528	18.31
395.735	18.46
395.943	18.27
396.15	18.53
396.358	18.65
396.565	18.06
396.773	18.52
396.98	18.35
397.188	18.27
397.395	17.91
397.602	17.99
397.81	18.14
398.017	18.31
398.225	17.96
398.432	18.12
398.639	17.94
398.847	18.46
399.054	18.32
399.261	18.19
399.468	18.04
399.676	18.19
399.883	17.7
400.09	17.43
400.297	17.17
400.505	17.26
400.712	16.98
400.919	17.09
401.126	17.19
401.333	16.99
401.54	16.97
401.748	17.22
401.955	16.92
402.162	17.55
402.369	17.38
402.576	17.43
402.783	17.11
402.99	17.31
403.197	16.95
403.404	16.62
403.611	16.75
403.818	16.9
404.025	16.78
404.232	16.98
404.439	16.66
404.646	16.82
404.853	16.72
405.06	17.11
405.267	17.01
405.474	17.13
405.681	17.27
405.887	17.31
406.094	17.15
406.301	17.57
406.508	17.33
406.715	17.35
406.922	17.52
407.128	17.59
407.335	17.51
407.542	17.55
407.749	17.76
407.955	17.6
408.162	17.33
408.369	17.12
408.575	16.64
408.782	16.94
408.989	16.8
409.195	16.8
409.402	16.66
409.609	16.62
409.815	16.7
410.022	16.45
410.228	16.59
410.435	16.75
410.642	16.79
410.848	17.07
411.055	17.14
411.261	17.5
411.468	17.41
411.674	17.39
411.881	17.43
412.087	17.24
412.294	17.14
412.5	17.11
412.706	17.46
412.913	17.74
413.119	17.57
413.326	17.31
413.532	16.86
413.738	16.7
413.945	16.78
414.151	16.66
414.357	16.53
414.564	16.77
414.77	16.6
414.976	16.56
415.182	16.66
415.389	16.77
415.595	16.96
415.801	17.13
416.007	17.04
416.214	16.78
416.42	16.8
416.626	16.9
416.832	16.88
417.038	16.84
417.244	16.48
417.45	16.24
417.657	16.17
417.863	16.01
418.069	16.01
418.275	16.2
418.481	16.23
418.687	16.23
418.893	16
419.099	15.91
419.305	15.85
419.511	15.83
419.717	15.71
419.923	15.66
420.129	15.6
420.335	15.55
420.541	15.42
420.746	15.56
420.952	15.6
421.158	15.72
421.364	15.66
421.57	15.62
421.776	15.68
421.982	15.79
422.187	15.87
422.393	15.87
422.599	15.77
422.805	15.76
423.01	15.76
423.216	15.74
423.422	15.73
423.628	15.81
423.833	15.86
424.039	15.88
424.245	15.89
424.45	15.75
424.656	15.92
424.862	15.97
425.067	16.02
425.273	15.98
425.478	15.84
425.684	15.91
425.889	15.92
426.095	15.89
426.301	15.76
426.506	15.76
426.712	15.72
426.917	15.82
427.123	15.74
427.328	15.9
427.533	15.93
427.739	15.95
427.944	15.86
428.15	15.83
428.355	15.68
428.561	15.86
428.766	15.82
428.971	15.96
429.177	15.94
429.382	16.09
429.587	15.86
429.793	15.85
429.998	16.07
430.203	16.04
430.408	16.02
430.614	16.53
430.819	16.3
431.024	16.56
431.229	16.4
431.434	16.24
431.64	16.18
431.845	16.15
432.05	16.08
432.255	15.94
432.46	16.06
432.665	15.95
432.87	15.73
433.076	15.8
433.281	15.46
433.486	15.54
433.691	15.5
433.896	15.56
434.101	15.51
434.306	15.57
434.511	15.54
434.716	15.43
434.921	15.52
435.126	15.5
435.331	15.53
435.535	15.54
435.74	15.55
435.945	15.51
436.15	15.57
436.355	15.65
436.56	15.57
436.765	15.58
436.97	15.69
437.174	15.67
437.379	15.81
437.584	15.76
437.789	15.76
437.993	15.68
438.198	15.88
438.403	15.76
438.608	15.75
438.812	15.68
439.017	15.65
439.222	15.36
439.426	15.28
439.631	15.11
439.836	15.12
440.04	15.27
440.245	15.36
440.45	15.12
440.654	15.08
440.859	15.09
441.063	15.11
441.268	15.2
441.472	15.22
441.677	15.32
441.881	15.24
442.086	15.3
442.29	15.27
442.495	15.25
442.699	15.26
442.904	15.33
443.108	15.37
443.312	15.49
443.517	15.43
443.721	15.55
443.925	15.58
444.13	15.83
444.334	15.81
444.538	15.74
444.743	15.66
444.947	15.65
445.151	15.65
445.356	15.61
445.56	15.49
445.764	15.45
445.968	15.47
446.173	15.26
446.377	15.23
446.581	15.18
446.785	15.25
446.989	15.24
447.193	15.33
447.398	15.19
447.602	15.23
447.806	15.29
448.01	15.4
448.214	15.39
448.418	15.57
448.622	15.59
448.826	15.6
449.03	15.54
449.234	15.58
449.438	15.53
449.642	15.73
449.846	15.65
450.05	15.73
450.254	15.56
450.458	15.53
450.662	15.42
450.866	15.31
451.069	15.51
451.273	15.48
451.477	15.36
451.681	15.23
451.885	15.27
452.089	15.26
452.292	15.09
452.496	15.26
452.7	15.32
452.904	15.32
453.107	15.23
453.311	14.88
453.515	14.82
453.719	14.89
453.922	15.17
454.126	14.97
454.33	15
454.533	15.1
454.737	15.05
454.94	14.97
455.144	15.14
455.348	15.17
455.551	15.26
455.755	15.38
455.958	15.61
456.162	15.46
456.365	15.4
456.569	15.36
456.772	15.33
456.976	15.44
457.179	15.42
457.383	15.42
457.586	15.36
457.79	15.28
457.993	15.29
458.196	15.19
458.4	15.17
458.603	15.23
458.807	15.17
459.01	15.18
459.213	15.07
459.417	15.13
459.62	15.16
459.823	15.27
460.026	15.24
460.23	15.09
460.433	15.03
460.636	15.03
460.839	15.04
461.042	15.1
461.246	15.17
461.449	15.2
461.652	15.13
461.855	15
462.058	14.97
462.261	15.14
462.464	15.21
462.668	15.29
462.871	15.32
463.074	15.35
463.277	15.28
463.48	15.28
463.683	15.21
463.886	15.24
464.089	15.17
464.292	15.12
464.495	15.06
464.698	15.06
464.901	14.98
465.104	14.98
465.306	15.07
465.509	15.11
465.712	15.05
465.915	15.11
466.118	15.17
466.321	15.45
466.524	15.33
466.726	15.29
466.929	15.53
467.132	15.53
467.335	15.64
467.538	15.43
467.74	15.36
467.943	15.07
468.146	15.09
468.348	15.04
468.551	15.04
468.754	15.05
468.956	14.87
469.159	14.8
469.362	14.73
469.564	14.71
469.767	14.93
469.969	14.85
470.172	15.09
470.375	15.08
470.577	15.28
470.78	15.05
470.982	14.96
471.185	15.2
471.387	15.02
471.59	15.11
471.792	14.9
471.995	14.72
472.197	14.85
472.399	14.88
472.602	14.74
472.804	14.62
473.007	14.72
473.209	14.92
473.411	14.86
473.614	14.79
473.816	14.67
474.018	14.82
474.22	14.92
474.423	14.87
474.625	15.04
474.827	15.16
475.03	14.96
475.232	14.96
475.434	14.89
475.636	14.94
475.838	15.09
476.04	15.2
476.243	15.25
476.445	15.3
476.647	15.32
476.849	15.14
477.051	15.02
477.253	15.02
477.455	14.75
477.657	14.7
477.859	14.75
478.061	14.85
478.263	14.87
478.465	14.75
478.667	14.77
478.869	14.78
479.071	14.81
479.273	14.76
479.475	14.86
479.677	15.08
479.879	14.97
480.081	14.93
480.283	14.81
480.485	14.68
480.686	14.84
480.888	14.77
481.09	14.67
481.292	14.57
481.494	14.62
481.695	14.55
481.897	14.6
482.099	14.63
482.301	14.62
482.502	14.58
482.704	14.51
482.906	14.38
483.107	14.35
483.309	14.41
483.511	14.4
483.712	14.37
483.914	14.43
484.115	14.42
484.317	14.42
484.519	14.41
484.72	14.43
484.922	14.43
485.123	14.42
485.325	14.4
485.526	14.38
485.728	14.42
485.929	14.37
486.131	14.27
486.332	14.25
486.534	14.28
486.735	14.22
486.936	14.16
487.138	14.24
487.339	14.26
487.541	14.23
487.742	14.22
487.943	14.18
488.144	14.32
488.346	14.33
488.547	14.26
488.748	14.25
488.95	14.27
489.151	14.36
489.352	14.33
489.553	14.38
489.755	14.41
489.956	14.44
490.157	14.43
490.358	14.3
490.559	14.4
490.76	14.39
490.961	14.37
491.163	14.42
491.364	14.35
491.565	14.31
491.766	14.33
491.967	14.39
492.168	14.36
492.369	14.41
492.57	14.38
492.771	14.3
492.972	14.35
493.173	14.38
493.374	14.39
493.575	14.47
493.776	14.6
493.976	14.56
494.177	14.53
494.378	14.59
494.579	14.66
494.78	14.75
494.981	14.73
495.182	14.72
495.382	14.83
495.583	14.87
495.784	14.82
495.985	14.68
496.185	14.8
496.386	14.91
496.587	14.98
496.788	14.89
496.988	15.05
497.189	15.1
497.39	15.14
497.59	15.11
497.791	14.93
497.992	15
498.192	15.01
498.393	14.96
498.593	14.93
498.794	14.92
498.994	15.01
499.195	14.82
499.395	14.88
499.596	14.84
499.796	14.7
499.997	14.95
500.197	14.81
500.398	14.85
500.598	14.83
500.799	14.89
500.999	14.75
501.199	14.63
501.4	14.86
501.6	14.94
501.801	14.97
502.001	15.02
502.201	14.97
502.402	15.04
502.602	15.23
502.802	15.15
503.002	15.12
503.203	15.13
503.403	15.16
503.603	15.11
503.803	15.12
504.003	15.21
504.204	15.21
504.404	15.27
504.604	15.29
504.804	15.19
505.004	15.1
505.204	15.09
505.404	15.15
505.604	15.23
505.804	15.14
506.005	15.23
506.205	15.35
506.405	15.5
506.605	15.35
506.805	15.5
507.005	15.54
507.204	15.54
507.404	15.49
507.604	15.51
507.804	15.48
508.004	15.6
508.204	15.5
508.404	15.32
508.604	15.23
508.804	15.16
509.003	15.09
509.203	15.01
509.403	15.06
509.603	15.08
509.803	15.16
510.002	15.19
510.202	15.19
510.402	15.19
510.602	15.19
510.801	15.12
511.001	15.22
511.201	15.18
511.4	15.23
511.6	15.34
511.8	15.44
511.999	15.35
512.199	15.24
512.398	15.11
512.598	14.99
512.797	15.06
512.997	15.15
513.197	15.17
513.396	15.16
513.596	15.23
513.795	15.25
513.994	15.24
514.194	15.19
514.393	15.36
514.593	15.59
514.792	15.79
514.992	15.79
515.191	15.85
515.39	15.91
515.59	15.83
515.789	15.85
515.988	15.79
516.188	15.87
516.387	15.87
516.586	15.86
516.786	15.63
516.985	15.6
517.184	15.64
517.383	15.66
517.582	15.65
517.782	15.65
517.981	15.68
518.18	15.7
518.379	15.66
518.578	15.76
518.777	15.78
518.976	15.88
519.176	15.92
519.375	15.94
519.574	15.86
519.773	15.86
519.972	16.02
520.171	16.08
520.37	16.11
520.569	16.03
520.768	16.12
520.967	16.32
521.166	16.3
521.365	16.36
521.564	16.37
521.762	16.41
521.961	16.57
522.16	16.5
522.359	16.45
522.558	16.33
522.757	16.45
522.956	16.41
523.154	16.08
523.353	16.13
523.552	16.02
523.751	15.95
523.949	16.04
524.148	15.99
524.347	16.21
524.546	16.14
524.744	16.2
524.943	16.24
525.142	16.16
525.34	16.28
525.539	16.33
525.737	16.33
525.936	16.46
526.135	16.35
526.333	16.38
526.532	16.19
526.73	16.24
526.929	16.28
527.127	16.25
527.326	16.34
527.524	16.38
527.723	16.36
527.921	16.38
528.12	16.38
528.318	16.49
528.516	16.48
528.715	16.46
528.913	16.48
529.112	16.51
529.31	16.57
529.508	16.52
529.707	16.44
529.905	16.45
530.103	16.47
530.301	16.42
530.5	16.43
530.698	16.38
530.896	16.46
531.094	16.5
531.293	16.42
531.491	16.39
531.689	16.47
531.887	16.53
532.085	16.6
532.283	16.61
532.481	16.54
532.68	16.5
532.878	16.49
533.076	16.57
533.274	16.49
533.472	16.55
533.67	16.64
533.868	16.59
534.066	16.62
534.264	16.63
534.462	16.7
534.66	16.89
534.858	16.98
535.056	17.19
535.253	17.17
535.451	17.27
535.649	17.31
535.847	17.28
536.045	17.38
536.243	17.43
536.441	17.39
536.638	17.41
536.836	17.34
537.034	17.37
537.232	17.22
537.43	17.27
537.627	17.22
537.825	17.26
538.023	17.3
538.22	17.26
538.418	17.36
538.616	17.47
538.813	17.48
539.011	17.61
539.209	17.51
539.406	17.53
539.604	17.63
539.801	17.92
539.999	18.12
540.196	17.93
540.394	17.87
540.591	17.85
540.789	17.79
540.986	17.82
541.184	17.78
541.381	17.85
541.579	17.99
541.776	17.89
541.974	17.76
542.171	17.76
542.368	17.86
542.566	18
542.763	18.03
542.96	18.1
543.158	18.04
543.355	18.03
543.552	18.02
543.75	18.01
543.947	18.13
544.144	18.15
544.341	18.15
544.539	18.21
544.736	18.22
544.933	18.13
545.13	18.1
545.327	18.21
545.524	18.38
545.722	18.44
545.919	18.51
546.116	18.69
546.313	18.87
546.51	18.9
546.707	18.95
546.904	19
547.101	19.23
547.298	19.28
547.495	19.36
547.692	19.33
547.889	19.52
548.086	19.43
548.283	19.43
548.48	19.44
548.677	19.43
548.874	19.43
549.07	19.37
549.267	19.31
549.464	19.56
549.661	19.55
549.858	19.83
550.055	19.69
550.251	19.82
550.448	19.82
550.645	19.62
550.842	19.68
551.038	19.59
551.235	20
551.432	19.91
551.628	19.97
551.825	19.83
552.022	19.59
552.218	19.73
552.415	19.7
552.612	19.58
552.808	19.77
553.005	19.85
553.201	20.02
553.398	19.9
553.594	20.07
553.791	20.06
553.987	20.27
554.184	20.52
554.38	20.63
554.577	20.68
554.773	21.06
554.97	21.19
555.166	21.21
555.362	21.24
555.559	21.18
555.755	21.22
555.952	21.3
556.148	21.32
556.344	21.23
556.541	21.32
556.737	21.4
556.933	21.07
557.129	20.97
557.326	20.94
557.522	20.89
557.718	21.03
557.914	21.13
558.11	21.2
558.307	21.45
558.503	21.54
558.699	21.36
558.895	21.37
559.091	21.64
559.287	21.68
559.483	21.74
559.679	21.91
559.876	22.05
560.072	22.04
560.268	21.92
560.464	21.68
560.66	21.55
560.856	21.69
561.052	21.83
561.247	21.82
561.443	21.99
561.639	22.14
561.835	22.07
562.031	21.94
562.227	21.79
562.423	21.87
562.619	22.03
562.815	22.26
563.01	22.21
563.206	22.16
563.402	22.32
563.598	22.34
563.793	22.43
563.989	22.67
564.185	22.58
564.381	22.99
564.576	22.91
564.772	22.92
564.968	22.89
565.163	22.75
565.359	22.87
565.555	22.81
565.75	22.85
565.946	22.86
566.141	22.79
566.337	22.91
566.532	22.76
566.728	22.84
566.923	22.9
567.119	22.98
567.314	23.27
567.51	23.16
567.705	23.13
567.901	23.11
568.096	23.2
568.292	23.18
568.487	23.27
568.682	23.3
568.878	23.49
569.073	23.49
569.268	23.54
569.464	23.59
569.659	23.79
569.854	23.87
570.05	23.97
570.245	23.88
570.44	24.18
570.635	24.2
570.831	24.07
571.026	24.16
571.221	24.11
571.416	24.14
571.611	24.14
571.806	24.29
572.002	24.41
572.197	24.38
572.392	24.52
572.587	24.39
572.782	24.48
572.977	24.53
573.172	24.36
573.367	24.55
573.562	24.71
573.757	24.73
573.952	24.54
574.147	24.51
574.342	24.71
574.537	24.66
574.732	24.81
574.927	24.66
575.121	24.82
575.316	24.88
575.511	24.86
575.706	24.85
575.901	24.97
576.096	25.03
576.29	24.93
576.485	24.74
576.68	24.94
576.875	24.83
577.069	25.04
577.264	25.18
577.459	25.34
577.654	25.54
577.848	25.47
578.043	25.35
578.238	25.34
578.432	25.41
578.627	25.55
578.821	25.4
579.016	25.57
579.21	25.41
579.405	25.43
579.6	25.42
579.794	25.64
579.989	25.7
580.183	25.65
580.378	25.92
580.572	26.18
580.766	26.17
580.961	26.21
581.155	26.08
581.35	26.56
581.544	26.28
581.738	26.18
581.933	25.76
582.127	25.77
582.321	25.81
582.516	25.75
582.71	25.81
582.904	25.88
583.099	25.62
583.293	25.64
583.487	25.36
583.681	25.93
583.875	26.05
584.07	26.19
584.264	25.83
584.458	26.19
584.652	26.07
584.846	25.91
585.04	25.72
585.234	26.07
585.428	26.15
585.623	26.07
585.817	25.92
586.011	25.87
586.205	25.83
586.399	26.18
586.593	26.03
586.787	26.37
586.981	26.41
587.174	26.88
587.368	26.95
587.562	26.84
587.756	26.91
587.95	26.79
588.144	26.86
588.338	26.92
588.532	26.91
588.725	27.07
588.919	26.86
589.113	26.9
589.307	26.68
589.501	26.52
589.694	26.88
589.888	26.89
590.082	26.69
590.275	26.65
590.469	26.71
590.663	26.89
590.856	26.56
591.05	26.62
591.244	26.75
591.437	26.91
591.631	27.08
591.824	26.89
592.018	26.97
592.212	27.31
592.405	27.28
592.599	27.28
592.792	27.03
592.986	27.34
593.179	27.24
593.372	27.25
593.566	27.37
593.759	27.27
593.953	27.46
594.146	27.51
594.339	27.46
594.533	27.53
594.726	27.55
594.92	27.87
595.113	27.99
595.306	27.99
595.499	27.99
595.693	27.68
595.886	27.88
596.079	27.68
596.272	27.59
596.466	27.67
596.659	27.58
596.852	27.65
597.045	27.51
597.238	27.37
597.431	27.41
597.624	27.35
597.818	27.59
598.011	27.67
598.204	27.59
598.397	27.72
598.59	27.79
598.783	28.1
598.976	28.05
599.169	28.23
599.362	28.16
599.555	28.38
599.748	28.59
599.941	28.43
600.134	27.98
600.326	28.04
600.519	28.02
600.712	27.68
600.905	27.69
601.098	27.72
601.291	27.67
601.483	28.02
601.676	27.82
601.869	27.82
602.062	27.83
602.255	27.75
602.447	27.84
602.64	27.83
602.833	28.04
603.025	27.84
603.218	27.69
603.411	27.66
603.603	27.55
603.796	27.66
603.989	27.41
604.181	27.35
604.374	27.69
604.566	27.68
604.759	27.72
604.951	27.86
605.144	27.84
605.336	27.88
605.529	27.86
605.721	27.75
605.914	27.73
606.106	27.79
606.299	27.81
606.491	27.63
606.683	27.6
606.876	27.58
607.068	27.31
607.26	27.37
607.453	27.46
607.645	27.4
607.837	27.36
608.03	27.35
608.222	27.54
608.414	27.69
608.606	27.82
608.799	27.85
608.991	27.94
609.183	28.05
609.375	28.24
609.567	28.22
609.759	28.19
609.952	28.17
610.144	27.85
610.336	27.54
610.528	27.46
610.72	27.23
610.912	26.99
611.104	27.14
611.296	27.02
611.488	26.92
611.68	26.78
611.872	26.59
612.064	26.48
612.256	26.79
612.448	27.11
612.64	27.01
612.832	27.22
613.023	27.55
613.215	27.31
613.407	27.32
613.599	27.16
613.791	27.24
613.983	27.55
614.174	27.88
614.366	28.14
614.558	28.08
614.75	28.3
614.941	28.51
615.133	28.42
615.325	28.51
615.516	28.71
615.708	28.72
615.9	29
616.091	28.79
616.283	28.89
616.475	28.93
616.666	29.05
616.858	29.32
617.049	28.91
617.241	28.92
617.432	28.89
617.624	28.96
617.815	29.05
618.007	28.65
618.198	28.94
618.39	28.76
618.581	28.44
618.773	28.41
618.964	28.01
619.155	28.36
619.347	28.62
619.538	28.61
619.729	28.57
619.921	28.87
620.112	29.06
620.303	29.02
620.494	29.07
620.686	29.46
620.877	29.11
621.068	29.6
621.259	29.53
621.451	29.17
621.642	29.56
621.833	29.86
622.024	29.3
622.215	29.39
622.406	29.31
622.597	29.51
622.788	29.32
622.98	29.85
623.171	29.54
623.362	29.67
623.553	29.63
623.744	29.1
623.935	28.93
624.126	29.41
624.317	29.29
624.508	29.17
624.698	28.88
624.889	28.79
625.08	28.38
625.271	28.33
625.462	28.08
625.653	28.18
625.844	28.48
626.034	28.18
626.225	28.11
626.416	28.13
626.607	28.31
626.798	28.43
626.988	28.67
627.179	28.9
627.37	29.04
627.56	29.21
627.751	29.45
627.942	29.45
628.132	29.56
628.323	29.4
628.514	29.47
628.704	29.65
628.895	29.67
629.085	29.47
629.276	29.21
629.466	29.13
629.657	28.94
629.847	28.82
630.038	28.66
630.228	28.89
630.419	29
630.609	29.08
630.8	28.88
630.99	28.74
631.181	28.44
631.371	29.06
631.561	28.85
631.752	28.91
631.942	28.78
632.132	28.9
632.323	28.73
632.513	28.79
632.703	28.59
632.893	28.69
633.084	28.94
633.274	29.15
633.464	28.81
633.654	28.87
633.844	28.96
634.034	29.21
634.225	29.09
634.415	28.81
634.605	28.69
634.795	28.63
634.985	28.5
635.175	28.52
635.365	28.75
635.555	28.74
635.745	28.74
635.935	28.77
636.125	28.26
636.315	28.42
636.505	28.42
636.695	28.72
636.885	29.2
637.075	29.55
637.265	29.68
637.455	29.53
637.644	29.49
637.834	29.77
638.024	29.58
638.214	30.69
638.404	30.53
638.593	30.72
638.783	30.59
638.973	30.36
639.163	29.96
639.352	29.81
639.542	29.68
639.732	29.93
639.921	29.64
640.111	29.68
640.301	28.6
640.49	28.95
640.68	29.24
640.87	29.01
641.059	29.11
641.249	29.36
641.438	29.3
641.628	30.01
641.817	30.36
642.007	30.71
642.196	30.66
642.386	30.98
642.575	30.95
642.764	30.99
642.954	30.86
643.143	30.86
643.333	30.91
643.522	31
643.711	30.39
643.901	29.87
644.09	30.13
644.279	30.45
644.469	30.3
644.658	30.42
644.847	30.2
645.036	30.27
645.226	30.16
645.415	29.88
645.604	29.82
645.793	29.77
645.982	29.72
646.171	29.28
646.361	28.98
646.55	29.05
646.739	28.56
646.928	28.5
647.117	28.93
647.306	28.72
647.495	28.86
647.684	29.03
647.873	29.37
648.062	29.52
648.251	29.88
648.44	30.14
648.629	30.38
648.818	30.4
649.007	30.47
649.196	30.15
649.384	30.39
649.573	30.67
649.762	30.69
649.951	30.2
650.14	29.89
650.328	29.65
650.517	29.55
650.706	29.96
650.895	30.35
651.083	30.27
651.272	30.73
651.461	31.12
651.65	31.05
651.838	30.63
652.027	30.96
652.216	30.99
652.404	30.71
652.593	31.15
652.781	30.45
652.97	30.05
653.158	30.13
653.347	29.58
653.535	29.46
653.724	29.35
653.912	30.07
654.101	30.15
654.289	30.38
654.478	30.43
654.666	30.28
654.855	30.68
655.043	31.15
655.231	31.15
655.42	30.76
655.608	30.22
655.796	30.6
655.985	30.45
656.173	30.35
656.361	30.31
656.55	30.6
656.738	30.62
656.926	30.65
657.114	30.4
657.302	30.4
657.491	30.89
657.679	30.94
657.867	30.23
658.055	29.9
658.243	30.08
658.431	29.98
658.619	29.84
658.807	29.4
658.996	29.43
659.184	29.09
659.372	29.01
659.56	29.17
659.748	29.17
659.936	29.55
660.124	29.61
660.311	29.57
660.499	29.55
660.687	29.55
660.875	29.6
661.063	29.66
661.251	30
661.439	29.79
661.627	29.69
661.814	29.95
662.002	29.97
662.19	30.26
662.378	30.07
662.565	30.3
662.753	30.54
662.941	30.43
663.129	30.41
663.316	30.12
663.504	30.61
663.692	30.68
663.879	30.58
664.067	30.95
664.254	30.57
664.442	31.07
664.63	31.2
664.817	31.52
665.005	31.58
665.192	31.52
665.38	31.95
665.567	31.88
665.755	31.89
665.942	31.86
666.13	31.74
666.317	31.75
666.504	31.19
666.692	31.33
666.879	30.94
667.067	31.48
667.254	31.4
667.441	31.44
667.629	31.93
667.816	31.79
668.003	31.92
668.19	31.68
668.378	31.8
668.565	31.9
668.752	31.64
668.939	31.79
669.127	31.93
669.314	31.78
669.501	31.24
669.688	30.91
669.875	31.31
670.062	31.87
670.249	31.48
670.436	31.85
670.623	32.05
670.81	32.17
670.997	31.72
671.184	31.04
671.371	31.32
671.558	31.84
671.745	32.04
671.932	32.04
672.119	31.25
672.306	31.72
672.493	31.26
672.68	31.6
672.867	31.65
673.054	32.19
673.24	31.75
673.427	31.85
673.614	31.78
673.801	31.65
673.988	31.36
674.174	31.67
674.361	31.3
674.548	30.94
674.734	30.46
674.921	29.89
675.108	29.67
675.294	30.61
675.481	30.4
675.668	30.18
675.854	30.29
676.041	30.29
676.227	29.87
676.414	30.27
676.601	30.96
676.787	31.39
676.974	31.85
677.16	31.9
677.347	31.87
677.533	32.31
677.719	32.23
677.906	32.14
678.092	32.04
678.279	32.46
678.465	32.29
678.651	32.1
678.838	31.9
679.024	31.61
679.21	31.39
679.397	31.48
679.583	30.73
679.769	30.97
679.955	30.66
680.142	30.91
680.328	30.81
680.514	30.64
680.7	30.36
680.886	30.49
681.073	30.74
681.259	30.75
681.445	30.14
681.631	30.29
681.817	30.14
682.003	30.19
682.189	30.05
682.375	30.27
682.561	30.45
682.747	30.66
682.933	30.22
683.119	29.82
683.305	29.9
683.491	30.32
683.677	30.46
683.863	30.34
684.049	30.36
684.235	30.21
684.42	29.65
684.606	29.44
684.792	29.32
684.978	29.44
685.164	30.1
685.349	30.41
685.535	30.65
685.721	30.22
685.907	30.56
686.092	31
686.278	31.09
686.464	31.46
686.649	32.19
686.835	31.99
687.021	32.24
687.206	31.96
687.392	31.99
687.577	31.95
687.763	32.06
687.948	32.13
688.134	32.02
688.319	31.96
688.505	31.98
688.69	31.64
688.876	32.3
689.061	32.04
689.247	32.44
689.432	31.95
689.618	32.29
689.803	33.03
689.988	33.23
690.174	33.09
690.359	33.49
690.544	32.93
690.73	33.22
690.915	32.99
691.1	32.9
691.285	32.99
691.471	33.43
691.656	33.03
691.841	32.72
692.026	32.26
692.211	32.07
692.396	31.29
692.582	32.17
692.767	31.61
692.952	31.21
693.137	31.84
693.322	31.23
693.507	31.06
693.692	30.87
693.877	30.58
694.062	30.51
694.247	30.76
694.432	30.95
694.617	30.32
694.802	30.54
694.987	30.76
695.172	30.28
695.357	30.13
695.541	29.79
695.726	30.23
695.911	30.52
696.096	30.45
696.281	30.51
696.466	30.77
696.65	30.9
696.835	30.54
697.02	31.19
697.204	31.72
697.389	31.45
697.574	31.39
697.759	31.28
697.943	31.1
698.128	31.28
698.312	31.67
698.497	32.03
698.682	32.37
698.866	32.75
699.051	32.46
699.235	31.85
699.42	31.76
699.604	32.04
699.789	31.83
699.973	32.03
700.158	32.34
700.342	31.87
700.527	31.81
700.711	31.03
700.895	30.44
701.08	30.33
701.264	30.29
701.448	31.35
701.633	31.36
701.817	32.06
702.001	32.21
702.186	31.73
702.37	31.85
702.554	31.64
702.738	32.28
702.923	32.5
703.107	32.16
703.291	32.89
703.475	32.88
703.659	33.04
703.843	32.82
704.027	32.69
704.212	32.72
704.396	32.95
704.58	33.3
704.764	33.1
704.948	33.67
705.132	34.27
705.316	34.2
705.5	34.18
705.684	34.45
705.868	34.66
706.052	34.44
706.235	35.49
706.419	34.98
706.603	34.65
706.787	35.24
706.971	35.46
707.155	34.54
707.339	34.52
707.522	33.65
707.706	33.2
707.89	32.49
708.074	33
708.257	31.92
708.441	32.88
708.625	31.48
708.808	30.44
708.992	30.99
709.176	31.4
709.359	31.16
709.543	31.39
709.727	31.47
709.91	31.6
710.094	32.29
710.277	32.67
710.461	31.37
710.644	32.63
710.828	33.13
711.011	32.48
711.195	32.76
711.378	32.73
711.562	33.21
711.745	33.25
711.928	33.39
712.112	32.81
712.295	32.15
712.478	32.89
712.662	33.44
712.845	32.88
713.028	32.29
713.212	31.47
713.395	31.85
713.578	31.41
713.761	31.58
713.945	31.7
714.128	31.6
714.311	32.25
714.494	31.6
714.677	30.47
714.86	31.08
715.043	31.6
715.227	32.78
715.41	32.28
715.593	32.19
715.776	32.19
715.959	32.36
716.142	31.64
716.325	31.47
716.508	31.65
716.691	32.13
716.874	31.98
717.057	31.88
717.239	31.85
717.422	31.93
717.605	31.97
717.788	31.67
717.971	31.6
718.154	31.75
718.337	31.77
718.519	31.79
718.702	32.34
718.885	32.95
719.068	32.35
719.25	32.5
719.433	32.39
719.616	33.28
719.798	33.36
719.981	33.08
720.164	33.45
720.346	33.47
720.529	33.06
720.712	32.91
720.894	33.05
721.077	33.55
721.259	33.17
721.442	34.19
721.624	32.7
721.807	32.87
721.989	32.8
722.172	32.42
722.354	33.49
722.537	35.63
722.719	34.49
722.901	34.29
723.084	34.24
723.266	34.01
723.448	33.32
723.631	34.47
723.813	34.77
723.995	34.1
724.178	34.81
724.36	35.48
724.542	35
724.724	35.77
724.907	35.26
725.089	36.2
725.271	36.75
725.453	36.48
725.635	35.55
725.817	35.4
725.999	35.73
726.181	35.78
726.364	34.29
726.546	33.08
726.728	32.3
726.91	33.07
727.092	32.27
727.274	31.84
727.456	32.62
727.638	33.47
727.819	32.69
728.001	33.03
728.183	32.39
728.365	31.72
728.547	32.71
728.729	33.88
728.911	34.15
729.093	33.34
729.274	33.4
729.456	33.21
729.638	32.26
729.82	33.21
730.001	32.04
730.183	33.08
730.365	34.55
730.546	34.12
730.728	34.71
730.91	34.11
731.091	34.01
731.273	33.32
731.455	32.85
731.636	34
731.818	34.67
731.999	35.75
732.181	35.34
732.362	34.62
732.544	35.05
732.725	34.28
732.907	34.93
733.088	37.05
733.27	37.24
733.451	37.94
733.633	36.81
733.814	35.48
733.995	35.33
734.177	35.49
734.358	35.82
734.539	35.54
734.721	36.03
734.902	34.83
735.083	33.66
735.264	34.83
735.446	34.64
735.627	35.2
735.808	36.08
735.989	36.45
736.17	36.19
736.351	36.35
736.533	36.1
736.714	36.03
736.895	36.87
737.076	36.45
737.257	35.14
737.438	34.96
737.619	35.03
737.8	35.25
737.981	35.32
738.162	34.77
738.343	34.98
738.524	35.42
738.705	35.06
738.886	34.53
739.067	34.19
739.247	35
739.428	33.67
739.609	33.67
739.79	32.03
739.971	31.81
740.151	32.02
740.332	30.84
740.513	29.82
740.694	28.19
740.874	27.99
741.055	28.43
741.236	28.16
741.417	29.99
741.597	29.53
741.778	31.24
741.958	31.72
742.139	32.93
742.32	32.48
742.5	33.72
742.681	35.63
742.861	35.69
743.042	35.45
743.222	34.46
743.403	34.49
743.583	36.13
743.764	35.66
743.944	34.84
744.124	33.77
744.305	34.07
744.485	34.42
744.666	34.38
744.846	36.13
745.026	37.38
745.207	38.84
745.387	40.18
745.567	39.75
745.747	39.7
745.928	41.24
746.108	41.59
746.288	42.23
746.468	42.12
746.648	41.58
746.829	41.31
747.009	41.59
747.189	41.09
747.369	39.06
747.549	38.98
747.729	38.52
747.909	37.85
748.089	37.5
748.269	38.02
748.449	38.46
748.629	38.73
748.809	37.17
748.989	35.46
749.169	35.07
749.349	35.53
749.529	36.08
749.709	35.49
749.889	34.48
750.068	33.25
750.248	33.83
750.428	31.34
750.608	31.48
750.788	32.08
750.967	31.64
751.147	32.29
751.327	33.18
751.507	31.4
751.686	32.84
751.866	32.56
752.046	33.89
752.225	33.68
752.405	34.94
752.585	34.32
752.764	34.02
752.944	36.09
753.123	35.92
753.303	35.76
753.482	37.16
753.662	37.01
753.841	37.25
754.021	37.97
754.2	37.84
754.38	37.64
754.559	38.93
754.739	38.73
754.918	37.06
755.097	36.67
755.277	35.85
755.456	35.36
755.635	35.16
755.815	37.05
755.994	35.27
756.173	34.85
756.352	35.94
756.532	34.94
756.711	35.51
756.89	36.77
757.069	36.16
757.248	36.56
757.427	35.99
757.607	36.98
757.786	35.46
757.965	36.23
758.144	35.94
758.323	34.58
758.502	34.55
758.681	33.68
758.86	32.32
759.039	34.28
759.218	34.09
759.397	34.91
759.576	33.55
759.755	33.7
759.934	33.48
760.113	33.97
760.291	34.68
760.47	35.63
760.649	38.24
760.828	38.22
761.007	37.41
761.186	36.97
761.364	36.77
761.543	37
761.722	36.72
761.901	36.95
762.079	36.93
762.258	35.89
762.437	34.77
762.615	33.81
762.794	35.4
762.972	35.84
763.151	35.45
763.33	35.91
763.508	35.22
763.687	34.89
763.865	35.12
764.044	33.87
764.222	34.05
764.401	35.3
764.579	34.86
764.758	34.4
764.936	33.61
765.114	34.22
765.293	33.45
765.471	33.79
765.65	33.9
765.828	33.72
766.006	34.48
766.184	35.21
766.363	33.25
766.541	33.49
766.719	32.28
766.898	33.83
767.076	32.76
767.254	33.08
767.432	33.32
767.61	34.48
767.788	35.03
767.967	36.55
768.145	36.23
768.323	37.56
768.501	37.33
768.679	38.86
768.857	38.74
769.035	40.41
769.213	41.44
769.391	41.42
769.569	40.85
769.747	40.07
769.925	38.19
770.103	38.05
770.281	36.5
770.459	37.27
770.636	37.09
770.814	36.09
770.992	36.27
771.17	33.16
771.348	32.42
771.525	32.6
771.703	33.99
771.881	35.45
772.059	36.09
772.236	37.36
772.414	36.75
772.592	35.03
772.769	36.53
772.947	35.73
773.125	37.62
773.302	39.5
773.48	40.32
773.657	38.34
773.835	38.91
774.013	37.93
774.19	39.12
774.368	40.41
774.545	43.52
774.723	41.96
774.9	44.31
775.077	45.22
775.255	45.99
775.432	45.73
775.61	48
775.787	48.44
775.964	48.17
776.142	47.68
776.319	46.46
776.496	45.93
776.674	45.81
776.851	43.21
777.028	43.46
777.205	42.95
777.382	45.59
777.56	45.6
777.737	45.16
777.914	45.91
778.091	46.51
778.268	46.09
778.445	45.34
778.622	45.54
778.8	44.3
778.977	44.05
779.154	42.43
779.331	39.08
779.508	37.46
779.685	36.97
779.862	37.95
780.038	37.19
780.215	35.75
780.392	34.91
780.569	36.34
780.746	37.65
780.923	36.67
781.1	39.04
781.277	41.92
781.453	42.57
781.63	41.93
781.807	40.82
781.984	40.94
782.16	42.69
782.337	42.23
782.514	40.82
782.691	41.46
782.867	43.56
783.044	41.44
783.221	41.59
783.397	43.35
783.574	45.66
783.75	45.46
783.927	45.89
784.103	48.31
784.28	50.56
784.456	50.6
784.633	50.49
784.809	47.64
784.986	46.08
785.162	42.68
785.339	40.19
785.515	37.9
785.692	37.46
785.868	33.74
786.044	30.42
786.221	31.18
786.397	33.24
786.573	33.93
786.749	34.6
786.926	34.17
787.102	37.31
787.278	38.53
787.454	39.47
787.631	40.45
787.807	41.63
787.983	41.23
788.159	37.75
788.335	33.83
788.511	33.72
788.687	35.48
788.863	37.55
789.039	35.96
789.216	33.97
789.392	33.8
789.568	33.33
789.744	35.22
789.919	37.14
790.095	38.57
790.271	38.87
790.447	38.44
790.623	37.73
790.799	35.69
790.975	35.84
791.151	36.16
791.327	36.55
791.502	37.7
791.678	36.63
791.854	35.73
792.03	36.47
792.205	38.67
792.381	37.2
792.557	38.14
792.733	40.64
792.908	40.59
793.084	42.47
793.259	40.89
793.435	41.39
793.611	42.31
793.786	42.35
793.962	40.56
794.137	38.46
794.313	37.75
794.488	36.62
794.664	36.43
794.839	36.47
795.015	36.27
795.19	34.94
795.366	34.69
795.541	35.07
795.716	33.83
795.892	33.89
796.067	36.03
796.242	40.37
796.418	40.1
796.593	41.82
796.768	41.74
796.944	41.68
797.119	43.73
797.294	42.8
797.469	43.91
797.644	46.51
797.82	46.61
797.995	45.52
798.17	44.02
798.345	46.34
798.52	43.19
798.695	43.23
798.87	43.18
799.045	44.14
799.22	43.65
799.395	42.72
799.57	41.16
799.745	41.29
799.92	41.92
800.095	42.03
800.27	40.35
800.445	43.81
800.62	43.21
800.795	43.56
800.97	43.6
801.145	44.96
801.319	44.42
801.494	46.23
801.669	50.62
801.844	49.1
802.018	48.55
802.193	49.22
802.368	44.7
802.543	44.2
802.717	45.46
802.892	45
803.067	45.54
803.241	46.93
803.416	46.25
803.59	44.81
803.765	47.7
803.94	43.8
804.114	42.17
804.289	44.7
804.463	43.77
804.638	42.21
804.812	43.03
804.986	38.25
805.161	37.93
805.335	38.04
805.51	37.13
805.684	34
805.858	37.43
806.033	37.54
806.207	36.4
806.381	39.19
806.556	38.64
806.73	36.89
806.904	41
807.078	38.05
807.253	34.8
807.427	33.04
807.601	34.79
807.775	32.91
807.949	33.91
808.123	34.19
808.298	36.55
808.472	35.12
808.646	36.31
808.82	37.26
808.994	36.59
809.168	39.57
809.342	39.58
809.516	37.7
809.69	38.76
809.864	40.22
810.038	44.1
810.212	40.51
810.385	39.98
810.559	37.83
810.733	36.37
810.907	38.03
811.081	38.55
811.255	38.24
811.428	42.26
811.602	42.71
811.776	44.68
811.95	44.25
812.123	45.14
812.297	46.62
812.471	47.85
812.644	48.48
812.818	53.11
812.992	52.57
813.165	53.67
813.339	55.03
813.512	54.88
813.686	53.07
813.86	51.78
814.033	50.92
814.207	54.5
814.38	56.3
814.554	57.85
814.727	54.39
814.9	52.48
815.074	51.54
815.247	48.19
815.421	49.29
815.594	48.81
815.767	46.26
815.941	49.24
816.114	46.61
816.287	45.72
816.46	44.2
816.634	41.96
816.807	43.24
816.98	44.15
817.153	49.79
817.327	51.37
817.5	51.77
817.673	56.05
817.846	51.04
818.019	50.04
818.192	49.44
818.365	43.18
818.538	45.92
818.711	48.4
818.884	43.26
819.057	39.78
819.23	39.11
819.403	37.55
819.576	38.42
819.749	38.67
819.922	39.92
820.095	40
820.268	43.9
820.441	44.42
820.614	42.04
820.786	44.04
820.959	40.75
821.132	38.19
821.305	37.83
821.477	35.12
821.65	35.62
821.823	34.91
821.996	33.89
822.168	33.82
822.341	33.39
822.514	33.12
822.686	32.43
822.859	32.76
823.031	33.13
823.204	32.79
823.376	33.08
823.549	31.99
823.722	31.94
823.894	32.64
824.067	32.78
824.239	32.18
824.411	32.98
824.584	32.82
824.756	33.33
824.929	33.74
825.101	34.65
825.273	35.19
825.446	36.24
825.618	36.64
825.79	36.46
825.963	36.26
826.135	35.94
826.307	35.63
826.479	36.8
826.652	35.76
826.824	35.97
826.996	35.43
827.168	34.8
827.34	36.1
827.512	36.69
827.684	37
827.856	35.96
828.029	36.48
828.201	37.18
828.373	36.62
828.545	37.89
828.717	37.89
828.889	38.02
829.061	37.83
829.232	36.83
829.404	35.47
829.576	34.63
829.748	33.81
829.92	34.39
830.092	35.79
830.264	39.2
830.436	39.53
830.607	41.96
830.779	44.64
830.951	47.5
831.123	48.9
831.294	49.23
831.466	46.27
831.638	52.51
831.809	54.81
831.981	49.01
832.153	46.73
832.324	46.82
832.496	42.68
832.667	40.82
832.839	41.52
833.011	40.09
833.182	38.49
833.354	42
833.525	37.59
833.697	37.77
833.868	38.58
834.039	39.97
834.211	39.08
834.382	38.05
834.554	37.02
834.725	33.57
834.896	34.02
835.068	37.28
835.239	35.66
835.41	38.09
835.581	37.36
835.753	39.4
835.924	37.63
836.095	37.1
836.266	37.9
836.438	39.81
836.609	41.43
836.78	40.7
836.951	39.05
837.122	38.65
837.293	39.22
837.464	38.51
837.635	39.15
837.806	40.37
837.977	43.28
838.148	47.34
838.319	47.19
838.49	50.03
838.661	51.82
838.832	50.73
839.003	57.75
839.174	57.02
839.345	55.99
839.516	57.43
839.687	58.94
839.857	56.77
840.028	53.08
840.199	53.27
840.37	50.96
840.54	51.34
840.711	52.11
840.882	50.98
841.053	48.87
841.223	52.74
841.394	50.2
841.564	47.8
841.735	46.9
841.906	44.77
842.076	44.24
842.247	54.47
842.417	56.87
842.588	61.81
842.758	59.78
842.929	62.87
843.099	62.81
843.27	65.42
843.44	68.11
843.611	71.21
843.781	69.06
843.951	72.6
844.122	69.04
844.292	65.2
844.462	63.66
844.633	72.53
844.803	64.37
844.973	63.13
845.144	58.42
845.314	59.56
845.484	60.33
845.654	72.56
845.824	82.52
845.995	69.06
846.165	84.33
846.335	80.93
846.505	77.54
846.675	88.2
846.845	86.5
847.015	98.21
847.185	90.02
847.355	80.36
847.525	72.4
847.695	59.59
847.865	76.56
848.035	65.32
848.205	70.86
848.375	71.32
848.545	58.64
848.715	70.94
848.884	72.28
849.054	80.83
849.224	100.84
849.394	130.89
849.564	111.22
849.733	115.32
849.903	122.33
850.073	125.69
850.243	130.94
850.412	140.78
850.582	145.63
850.752	145.93
850.921	177.2
851.091	154.66
851.26	119.49
851.43	128.85
851.599	108.65
851.769	116.57
851.939	104.09
852.108	96.58
852.278	95.61
852.447	83.34
852.616	83.47
852.786	76.9
852.955	74.66
853.125	80.76
853.294	90.45
853.463	102.63
853.633	97.23
853.802	92.21
853.971	97.27
854.141	86.62
854.31	74.47
854.479	83.12
854.648	74.49
854.818	67.62
854.987	74.34
855.156	63.09
855.325	56.19
855.494	56.37
855.663	62.11
855.832	64.34
856.001	74.3
856.171	82.93
856.34	73.06
856.509	78.97
856.678	79.82
856.847	70.7
857.016	72.31
857.185	72.77
857.353	63.69
857.522	58.9
857.691	60.05
857.86	55.07
858.029	54.73
858.198	57.5
858.367	57.1
858.535	56.87
858.704	58.11
858.873	75.38
859.042	70.7
859.21	94.32
859.379	119.19
859.548	126.26
859.717	120.28
859.885	116.89
860.054	118.89
860.222	109.78
860.391	120.58
860.56	146.12
860.728	119.22
860.897	128.47
861.065	123.36
861.234	110.34
861.402	86.35
861.571	103.2
861.739	109.15
861.908	97.83
862.076	95.79
862.244	86.61
862.413	76.56
862.581	89.62
862.749	91.27
862.918	92.48
863.086	87.39
863.254	92.05
863.423	84.85
863.591	82.34
863.759	88.02
863.927	83.18
864.096	86.05
864.264	77.35
864.432	66.58
864.6	63.65
864.768	60.99
864.936	69.22
865.104	80.15
865.272	70.28
865.44	78.71
865.608	69.35
865.776	78.9
865.944	96.22
866.112	99.83
866.28	108.78
866.448	120.28
866.616	141.47
866.784	157.55
866.952	115.72
867.12	134.23
867.288	112.38
867.455	141.73
867.623	150.54
867.791	111.78
867.959	125.07
868.127	107.54
868.294	99.82
868.462	84.98
868.63	81.77
868.797	84.57
868.965	82.17
869.133	98.03
869.3	89.1
869.468	78.9
869.636	100.36
869.803	91.59
869.971	97.42
870.138	111.28
870.306	125.23
870.473	120.83
870.641	117.46
870.808	117.88
870.975	104.48
871.143	111.38
871.31	124.57
871.478	97.27
871.645	96.43
871.812	98.06
871.98	85.94
872.147	88.79
872.314	84.73
872.482	79.79
872.649	75.25
872.816	72.33
872.983	65.87
873.15	62.02
873.318	77.05
873.485	82.07
873.652	73.46
873.819	82.18
873.986	81.29
874.153	91.92
874.32	102.84
874.487	110.65
874.654	111.41
874.821	115.23
874.988	101.9
875.155	92.04
875.322	77.46
875.489	100.23
875.656	97.55
875.823	95.23
875.99	74.43
876.157	69.28
876.324	73.37
876.49	70.71
876.657	52.57
876.824	60.83
876.991	72.75
877.157	76.71
877.324	72.25
877.491	78.66
877.658	77.33
877.824	80.25
877.991	80.99
878.157	81.31
878.324	95.29
878.491	106.52
878.657	111.6
878.824	124.61
878.99	120.92
879.157	108.31
879.323	102.34
879.49	109.12
879.656	111.23
879.823	103.14
879.989	98.81
880.156	98.48
880.322	99.81
880.488	94.1
880.655	86.54
880.821	86.1
880.987	98.23
881.154	77.48
881.32	68.28
881.486	70.77
881.652	65.4
881.819	60.25
881.985	51.52
882.151	50.21
882.317	49.44
882.483	45.61
882.649	45.64
882.816	40.47
882.982	43.04
883.148	44.08
883.314	43.15
883.48	42.11
883.646	42.67
883.812	46.08
883.978	47.06
884.144	46.7
884.31	48.05
884.476	46.76
884.642	49.73
884.807	53.35
884.973	52.67
885.139	53.01
885.305	53.66
885.471	51.57
885.637	50.36
885.802	48.64
885.968	47.99
886.134	54.35
886.3	57.67
886.465	55.07
886.631	50.61
886.797	55.62
886.962	57.8
887.128	65.39
887.293	70.86
887.459	71.77
887.625	79.87
887.79	79.96
887.956	73.13
888.121	73.99
888.287	79.89
888.452	84.64
888.618	79.61
888.783	85.11
