Data from 2938027_Reflection_3.txt Node
Date: Sun Jul 12 15:11:14 EDT 2015
User: robert
Spectrometer: USB4E03001
Autoset integration time: false
Trigger mode: 4
Integration Time (sec): 1.000000E-1
Scans to average: 10
Electric dark correction enabled: true
Nonlinearity correction enabled: false
Boxcar width: 5
Stray light correction enabled: false
XAxis mode: Wavelengths
Stop averaging: false
Number of Pixels in Spectrum: 3648
>>>>>Begin Spectral Data<<<<<
177.566	197.21
177.785	199.78
178.005	305.08
178.225	263.86
178.445	105.82
178.665	73.37
178.885	135.97
179.105	60.47
179.324	87.04
179.544	115.72
179.764	111.92
179.984	139.5
180.204	156.94
180.423	133.71
180.643	123.06
180.863	90.73
181.083	71.19
181.302	58.59
181.522	48.39
181.742	40.81
181.961	16.6
182.181	29.79
182.401	19.81
182.621	3.33
182.84	27.58
183.06	59.8
183.279	113.24
183.499	122.01
183.719	152.23
183.938	157.95
184.158	169.45
184.377	236.78
184.597	121.37
184.816	134.52
185.036	153.78
185.256	102.58
185.475	145.62
185.695	132.26
185.914	178.12
186.134	171.89
186.353	327.12
186.572	413.95
186.792	221.94
187.011	402.9
187.231	286.77
187.45	188.81
187.67	175.84
187.889	60.4
188.108	39.45
188.328	2.87
188.547	-5.07
188.766	-21.59
188.986	-4.16
189.205	-0.13
189.424	0
189.644	15.38
189.863	10.36
190.082	33.75
190.302	45.36
190.521	50.8
190.74	68.98
190.959	72.34
191.178	67.01
191.398	65.6
191.617	74.88
191.836	70.25
192.055	68.01
192.274	80.58
192.494	72.8
192.713	90.09
192.932	85.41
193.151	77.07
193.37	76.04
193.589	89.36
193.808	110.4
194.027	111.47
194.246	134.56
194.465	134.94
194.685	166.55
194.904	186.1
195.123	96.58
195.342	169.64
195.561	141.82
195.78	363.33
195.999	-39780
196.218	1406.6
196.436	1195.42
196.655	456.27
196.874	-5505.1
197.093	332.88
197.312	243.42
197.531	315.76
197.75	272.35
197.969	341.85
198.188	254.69
198.407	136.72
198.625	162.5
198.844	52.34
199.063	38.72
199.282	43.39
199.501	7.99
199.719	38.46
199.938	20.93
200.157	4.32
200.376	-12.15
200.594	-5.89
200.813	26.11
201.032	34.02
201.251	49.25
201.469	48.7
201.688	52.09
201.907	99.38
202.125	77.35
202.344	85.14
202.563	95.89
202.781	99.26
203	126.03
203.218	105.51
203.437	130.93
203.656	194.25
203.874	200.03
204.093	151.14
204.311	107
204.53	126.92
204.748	197.21
204.967	563.33
205.185	180.74
205.404	157.77
205.622	252.27
205.841	-940.79
206.059	-213.3
206.278	598.75
206.496	569.21
206.715	302.21
206.933	-41414.29
207.151	242.54
207.37	120.61
207.588	124.87
207.806	112.7
208.025	108.33
208.243	114.97
208.461	94.68
208.68	64.35
208.898	93.32
209.116	116.01
209.335	103.91
209.553	101.58
209.771	77
209.989	66.47
210.208	64.18
210.426	85.5
210.644	72.84
210.862	73.5
211.081	120.96
211.299	95.72
211.517	68.43
211.735	71.56
211.953	83.9
212.171	131.47
212.39	213.94
212.608	266.12
212.826	193.68
213.044	137.1
213.262	120.07
213.48	97.22
213.698	85.4
213.916	103.46
214.134	128.34
214.352	148.07
214.57	149.52
214.788	195.8
215.006	175.07
215.224	216.67
215.442	-331.5
215.66	-169.82
215.878	-1463.73
216.096	2354.36
216.314	219.34
216.532	246.56
216.75	199.44
216.968	94.41
217.185	51.34
217.403	87.17
217.621	92.97
217.839	85.18
218.057	68.61
218.275	64.51
218.492	50.57
218.71	94.67
218.928	97.89
219.146	73.6
219.363	86.61
219.581	88.64
219.799	86.98
220.017	97.14
220.234	99.37
220.452	97.09
220.67	92.23
220.887	84.97
221.105	84.22
221.323	72.31
221.54	91.59
221.758	83.4
221.976	74.01
222.193	69.36
222.411	62.7
222.629	59.4
222.846	55.07
223.064	69.48
223.281	65.41
223.499	58.09
223.716	39.18
223.934	41.47
224.151	50.24
224.369	45.25
224.586	45.48
224.804	48.08
225.021	50.11
225.239	42.58
225.456	19.87
225.674	26.07
225.891	21.07
226.108	29.54
226.326	25.72
226.543	14.03
226.76	17.25
226.978	18.26
227.195	4.47
227.413	0.96
227.63	7.06
227.847	18.35
228.064	17.2
228.282	16.92
228.499	18.95
228.716	17.3
228.934	18.79
229.151	15.64
229.368	12.03
229.585	12.16
229.802	13.7
230.02	11.67
230.237	9.27
230.454	7.24
230.671	7.82
230.888	3.62
231.105	5.09
231.323	3.18
231.54	8.06
231.757	9.82
231.974	9.44
232.191	5.11
232.408	7.08
232.625	12.29
232.842	11.04
233.059	9.12
233.276	10.74
233.493	4.04
233.71	2.44
233.927	-1.53
234.144	2.93
234.361	9.49
234.578	10.1
234.795	7.88
235.012	6
235.229	11.13
235.446	12.22
235.663	12.08
235.879	14.76
236.096	15.6
236.313	21.84
236.53	22.02
236.747	17.06
236.964	16.21
237.181	21.27
237.397	15.93
237.614	14.24
237.831	11.94
238.048	15.94
238.264	11.69
238.481	12.15
238.698	7.54
238.915	4.8
239.131	7.89
239.348	10.16
239.565	9.54
239.781	13.95
239.998	11.02
240.215	11.21
240.431	8.46
240.648	11.07
240.865	11.22
241.081	13.54
241.298	11.45
241.514	10.57
241.731	10.03
241.947	10.65
242.164	8.13
242.38	9.47
242.597	10.66
242.814	10.1
243.03	9.62
243.246	7.86
243.463	2.88
243.679	3.92
243.896	2.37
244.112	3.18
244.329	1.21
244.545	1.77
244.762	-1.01
244.978	-2.17
245.194	1.7
245.411	1.86
245.627	2.92
245.843	5.83
246.06	4.62
246.276	5.24
246.492	4.26
246.709	3.73
246.925	3.83
247.141	5.14
247.357	5.31
247.574	4.33
247.79	4.72
248.006	5.08
248.222	4.48
248.439	4.52
248.655	4.92
248.871	4.85
249.087	4.77
249.303	4.41
249.519	4.02
249.736	3.24
249.952	2.45
250.168	2.51
250.384	2.9
250.6	4.38
250.816	5.66
251.032	6.53
251.248	7.23
251.464	8.13
251.68	8.39
251.896	5.72
252.112	5.63
252.328	5.89
252.544	5.45
252.76	4.41
252.976	4.25
253.192	3.35
253.408	2.24
253.624	2.01
253.84	3.65
254.056	5.17
254.272	6.05
254.487	7.15
254.703	5.89
254.919	5.64
255.135	6.06
255.351	3.71
255.567	5.3
255.782	6.98
255.998	5.39
256.214	3.49
256.43	2.92
256.646	4.9
256.861	2.88
257.077	3.53
257.293	2.24
257.508	2.91
257.724	3.82
257.94	4.06
258.155	1.63
258.371	4.37
258.587	3.52
258.802	3.2
259.018	3.68
259.234	4.27
259.449	5.13
259.665	5.34
259.88	5.59
260.096	5.3
260.312	5.41
260.527	5.98
260.743	5.18
260.958	5.81
261.174	5.44
261.389	5.97
261.605	6.62
261.82	6.91
262.036	7.41
262.251	7.08
262.466	8.31
262.682	8.85
262.897	9.42
263.113	9.83
263.328	9.63
263.543	11.16
263.759	11.39
263.974	10.29
264.189	10.75
264.405	8.8
264.62	10.08
264.835	11.76
265.051	11.45
265.266	9.74
265.481	8.22
265.696	8.92
265.912	9.97
266.127	7.34
266.342	7.81
266.557	6.05
266.773	7.22
266.988	5.39
267.203	4.65
267.418	3.45
267.633	5.67
267.848	7.48
268.064	6.5
268.279	5.92
268.494	5.91
268.709	4.89
268.924	4.17
269.139	3.81
269.354	5.16
269.569	4.49
269.784	4.19
269.999	3.1
270.214	0.73
270.429	1.26
270.644	0.75
270.859	3.44
271.074	3.46
271.289	4.44
271.504	5.36
271.719	5.45
271.934	5.22
272.149	5.31
272.363	4.54
272.578	4.04
272.793	4.08
273.008	3.82
273.223	3.35
273.438	4.04
273.653	4.2
273.867	3.13
274.082	2.6
274.297	1.53
274.512	1.46
274.726	0.88
274.941	2.54
275.156	2.68
275.371	3.09
275.585	3.2
275.8	3.86
276.015	4.21
276.229	5
276.444	5.76
276.659	5.71
276.873	6.17
277.088	7.75
277.302	8.1
277.517	5.76
277.732	6.75
277.946	5.91
278.161	5.39
278.375	3.51
278.59	3.02
278.804	1.41
279.019	3.43
279.233	4.85
279.448	4.74
279.662	4.4
279.877	6.91
280.091	6.35
280.306	6.33
280.52	5.69
280.735	7.2
280.949	7.62
281.163	7.47
281.378	6.3
281.592	4.86
281.806	4.44
282.021	5.52
282.235	5.78
282.449	5.27
282.664	5.78
282.878	6.5
283.092	7.71
283.307	8.93
283.521	10.08
283.735	11.72
283.949	11.33
284.164	11.73
284.378	10.67
284.592	10.78
284.806	10.63
285.02	9.49
285.234	7.96
285.449	6.73
285.663	5.23
285.877	4.24
286.091	4.1
286.305	4.26
286.519	5.18
286.733	5.04
286.947	5.38
287.161	6.41
287.375	6.16
287.589	7.64
287.803	7.34
288.017	6.74
288.231	7.42
288.445	6.75
288.659	8.4
288.873	7.85
289.087	7.96
289.301	6.89
289.515	5.28
289.729	6.18
289.943	5.95
290.157	7.81
290.371	9.49
290.584	8.42
290.798	8.13
291.012	8.18
291.226	7.9
291.44	6.8
291.654	5.14
291.867	5
292.081	5.32
292.295	5.32
292.509	4.68
292.722	4.81
292.936	6.07
293.15	5.62
293.364	5.44
293.577	6.29
293.791	6.18
294.005	8.67
294.218	8.7
294.432	8.82
294.645	8.04
294.859	8.59
295.073	8.45
295.286	8.48
295.5	8.32
295.713	8.33
295.927	6.92
296.14	8.71
296.354	9.54
296.568	10.83
296.781	9.63
296.994	10.34
297.208	9.29
297.421	9.63
297.635	9.11
297.848	10.04
298.062	10.01
298.275	11.09
298.489	10.95
298.702	10.19
298.915	8.79
299.129	10.05
299.342	9.98
299.555	8.92
299.769	7.93
299.982	8.83
300.195	8.42
300.409	7.98
300.622	7.36
300.835	6.11
301.048	6.11
301.262	8.39
301.475	6.46
301.688	5.21
301.901	7.03
302.115	6.33
302.328	7.07
302.541	7.43
302.754	7.12
302.967	7.28
303.18	10.19
303.393	11.05
303.607	9.7
303.82	12.06
304.033	13.96
304.246	15.03
304.459	16.23
304.672	15.31
304.885	15.29
305.098	17.2
305.311	18.39
305.524	16.5
305.737	15.96
305.95	15.99
306.163	16.76
306.376	15.86
306.589	14.41
306.802	14.09
307.015	14.43
307.228	15.12
307.44	12.89
307.653	11.58
307.866	12.27
308.079	12.73
308.292	14.87
308.505	13.1
308.718	14.31
308.93	15.86
309.143	16.11
309.356	16.33
309.569	15.1
309.781	15.58
309.994	15.59
310.207	15.4
310.42	15.13
310.632	13.79
310.845	14.07
311.058	13.38
311.27	12.38
311.483	12.55
311.696	12.06
311.908	12.03
312.121	11.86
312.333	11.44
312.546	10.75
312.759	10.05
312.971	11.07
313.184	11.83
313.396	12.12
313.609	11.81
313.821	10.99
314.034	11.16
314.246	12.12
314.459	11.88
314.671	11.88
314.884	13.22
315.096	13.44
315.309	12.8
315.521	13.08
315.733	14.18
315.946	15.7
316.158	16.81
316.371	17.64
316.583	16.66
316.795	16.55
317.008	16.49
317.22	16.62
317.432	17.29
317.644	16.25
317.857	15.63
318.069	13.43
318.281	13.78
318.494	12.81
318.706	10.74
318.918	10.83
319.13	9.03
319.342	10.81
319.555	10.29
319.767	9.68
319.979	10.22
320.191	8.91
320.403	11.22
320.615	9.08
320.827	8.06
321.039	8.78
321.252	10.8
321.464	12.52
321.676	12.36
321.888	11.55
322.1	12.65
322.312	12.02
322.524	14.01
322.736	13.06
322.948	13.64
323.16	14.66
323.372	14.3
323.584	12.51
323.796	14.62
324.007	15.17
324.219	15.86
324.431	14.81
324.643	15.69
324.855	15.24
325.067	15.38
325.279	16.19
325.491	16.95
325.702	17.81
325.914	18.27
326.126	17.62
326.338	16.74
326.55	17.89
326.761	17.98
326.973	17.06
327.185	15.91
327.396	16.27
327.608	16.92
327.82	17.58
328.032	18.2
328.243	21.3
328.455	21.17
328.666	20.61
328.878	19.85
329.09	21.91
329.301	23.51
329.513	24.4
329.725	25.62
329.936	23.63
330.148	23
330.359	24.98
330.571	24.02
330.782	24.87
330.994	26.93
331.205	29.28
331.417	28.42
331.628	27.6
331.84	27.66
332.051	26.96
332.262	30.35
332.474	31.35
332.685	31.16
332.897	31.9
333.108	31.53
333.319	31.35
333.531	31.92
333.742	33.08
333.953	35.58
334.165	37.06
334.376	38.31
334.587	37.9
334.799	38.41
335.01	38.42
335.221	37.31
335.432	38.54
335.644	39.7
335.855	38.64
336.066	38.31
336.277	38.45
336.488	39.75
336.7	40.87
336.911	41.31
337.122	41.9
337.333	42.46
337.544	43.05
337.755	45.34
337.966	45.79
338.177	47.64
338.388	48.02
338.599	48.49
338.811	48.04
339.022	47.88
339.233	47.73
339.444	47.69
339.655	47.4
339.866	47.58
340.076	45.34
340.287	45.74
340.498	44.6
340.709	44.38
340.92	43.45
341.131	42.29
341.342	41.19
341.553	41.19
341.764	42.34
341.975	41.92
342.185	42.87
342.396	43.46
342.607	43.15
342.818	44.13
343.029	44.62
343.239	44.65
343.45	45.6
343.661	46.22
343.872	46.21
344.082	45.38
344.293	46.18
344.504	45.78
344.714	46.21
344.925	45.91
345.136	45.17
345.346	44.61
345.557	45.35
345.768	46.58
345.978	46.47
346.189	46.42
346.399	46.36
346.61	45.93
346.821	45.86
347.031	45.73
347.242	46
347.452	46.68
347.663	47.59
347.873	48.57
348.084	47.41
348.294	47.59
348.504	48.08
348.715	47.54
348.925	49.4
349.136	49.31
349.346	48.79
349.557	49.08
349.767	48.19
349.977	48.53
350.188	48.02
350.398	48.57
350.608	47.76
350.819	46.79
351.029	47.74
351.239	46.39
351.449	46.44
351.66	46.66
351.87	46.1
352.08	46.04
352.29	45.48
352.501	44.86
352.711	45.49
352.921	46.56
353.131	47.21
353.341	47.81
353.552	47.45
353.762	47.71
353.972	47.72
354.182	48.1
354.392	48.23
354.602	48.69
354.812	48.84
355.022	47.9
355.232	47.78
355.442	48.34
355.652	46.83
355.862	47.02
356.072	46.95
356.282	46.41
356.492	46.56
356.702	46.18
356.912	45.64
357.122	45.25
357.332	45.32
357.542	45.78
357.752	45.94
357.962	46.21
358.171	46.48
358.381	46.2
358.591	45.98
358.801	45.95
359.011	47.11
359.221	47.07
359.43	47
359.64	46.84
359.85	46.25
360.06	45.33
360.269	44.75
360.479	43.91
360.689	44.37
360.899	45.79
361.108	46.08
361.318	45.51
361.528	45.31
361.737	45.3
361.947	46.49
362.156	46.25
362.366	46.36
362.576	47.04
362.785	47.93
362.995	47.48
363.204	46.43
363.414	46.54
363.623	46.63
363.833	47.57
364.042	47.3
364.252	46.21
364.461	46.48
364.671	46.89
364.88	46.8
365.09	46.57
365.299	47.06
365.509	47.42
365.718	47.26
365.927	47.52
366.137	46.76
366.346	46.69
366.555	46.81
366.765	46.3
366.974	45.8
367.183	44.65
367.393	44.36
367.602	44.16
367.811	43.91
368.021	43.7
368.23	42.77
368.439	42.73
368.648	43.66
368.857	43.05
369.067	44.37
369.276	43.49
369.485	44.87
369.694	44.87
369.903	45.06
370.112	44.24
370.321	44.19
370.531	44.98
370.74	44.66
370.949	44.46
371.158	44.78
371.367	43.18
371.576	43.34
371.785	43.42
371.994	43.03
372.203	42.65
372.412	42.77
372.621	42.03
372.83	41.37
373.039	40.96
373.248	40.25
373.457	39.57
373.666	40.09
373.874	41.46
374.083	40.96
374.292	40.77
374.501	41.21
374.71	41.54
374.919	41.83
375.128	42.19
375.336	41.96
375.545	41.9
375.754	41.76
375.963	41.57
376.171	40.48
376.38	40.5
376.589	40.31
376.798	39.49
377.006	39.6
377.215	39.01
377.424	39.02
377.632	39.33
377.841	39.14
378.05	39
378.258	38.62
378.467	38.8
378.675	38.08
378.884	38.11
379.093	38.23
379.301	37.96
379.51	38.24
379.718	37.63
379.927	38.23
380.135	38.7
380.344	38.68
380.552	38.73
380.761	38.57
380.969	38.76
381.177	38.67
381.386	38.21
381.594	37.74
381.803	37.67
382.011	37.58
382.219	37.25
382.428	36.41
382.636	35.94
382.845	35.69
383.053	35.52
383.261	35.89
383.469	36.21
383.678	36.08
383.886	36.28
384.094	35.96
384.302	36.5
384.511	36.18
384.719	36.55
384.927	36.54
385.135	36.97
385.343	36.72
385.552	36.29
385.76	35.88
385.968	36.26
386.176	36
386.384	36.08
386.592	35.13
386.8	34.59
387.008	34.5
387.216	34.77
387.424	34.61
387.633	34.43
387.841	34.46
388.049	34.63
388.257	34.15
388.465	34.3
388.672	34.05
388.88	34.31
389.088	34.65
389.296	34.48
389.504	34.43
389.712	34.13
389.92	33.7
390.128	33.27
390.336	32.74
390.544	33.01
390.751	32.73
390.959	32.75
391.167	32.57
391.375	32.56
391.583	32.65
391.79	32.55
391.998	32.54
392.206	32.86
392.414	32.88
392.621	33.35
392.829	33.35
393.037	33.38
393.244	33.49
393.452	33.38
393.66	32.99
393.867	32.96
394.075	32.75
394.283	32.84
394.49	32.64
394.698	32.77
394.905	32.48
395.113	32.3
395.32	32.08
395.528	31.94
395.735	31.78
395.943	31.93
396.15	31.8
396.358	31.5
396.565	30.98
396.773	31.58
396.98	31.44
397.188	31.31
397.395	31.2
397.602	31.2
397.81	30.88
398.017	31.09
398.225	30.98
398.432	30.99
398.639	31.5
398.847	32.27
399.054	31.64
399.261	31.78
399.468	31.85
399.676	31.58
399.883	31.71
400.09	32.05
400.297	32.16
400.505	32.41
400.712	32.08
400.919	32.06
401.126	31.73
401.333	32.38
401.54	32.15
401.748	32.3
401.955	32.47
402.162	32.97
402.369	32.83
402.576	32.61
402.783	32.4
402.99	32.69
403.197	32.71
403.404	32.61
403.611	32.25
403.818	32.22
404.025	32.06
404.232	32.3
404.439	32.02
404.646	32.25
404.853	32.24
405.06	32.12
405.267	32.03
405.474	31.97
405.681	32.06
405.887	32.13
406.094	32.27
406.301	32.34
406.508	32.55
406.715	32.51
406.922	32.42
407.128	32.57
407.335	32.78
407.542	32.65
407.749	32.5
407.955	32.27
408.162	32.09
408.369	31.88
408.575	31.68
408.782	31.42
408.989	31.26
409.195	31.12
409.402	31.32
409.609	31.28
409.815	31.37
410.022	31.39
410.228	31.47
410.435	31.77
410.642	31.8
410.848	31.86
411.055	31.57
411.261	31.52
411.468	31.69
411.674	31.42
411.881	31.56
412.087	31.89
412.294	31.8
412.5	31.7
412.706	31.26
412.913	31.41
413.119	31.71
413.326	31.88
413.532	31.91
413.738	31.86
413.945	31.86
414.151	31.69
414.357	31.45
414.564	31.66
414.77	31.82
414.976	31.75
415.182	31.73
415.389	31.69
415.595	31.89
415.801	31.82
416.007	31.71
416.214	31.72
416.42	31.85
416.626	31.74
416.832	31.49
417.038	31.52
417.244	31.36
417.45	31
417.657	30.62
417.863	30.57
418.069	30.66
418.275	30.49
418.481	30.56
418.687	30.3
418.893	30.33
419.099	30.39
419.305	30.05
419.511	30.21
419.717	30.49
419.923	30.63
420.129	30.41
420.335	30.23
420.541	30.3
420.746	30
420.952	29.99
421.158	29.9
421.364	29.91
421.57	29.97
421.776	29.89
421.982	29.81
422.187	29.57
422.393	29.54
422.599	29.61
422.805	29.49
423.01	29.54
423.216	29.45
423.422	29.46
423.628	29.37
423.833	29.34
424.039	29.28
424.245	29.07
424.45	29.12
424.656	29.18
424.862	29.19
425.067	29.28
425.273	29.22
425.478	29.3
425.684	29.06
425.889	29.07
426.095	29.04
426.301	28.94
426.506	29.11
426.712	29.19
426.917	29.14
427.123	29.15
427.328	29.04
427.533	29.18
427.739	29.35
427.944	29.73
428.15	29.73
428.355	29.69
428.561	29.8
428.766	29.63
428.971	29.69
429.177	29.72
429.382	29.66
429.587	29.58
429.793	29.53
429.998	29.29
430.203	29.03
430.408	28.91
430.614	29.18
430.819	29.06
431.024	29.11
431.229	28.92
431.434	28.67
431.64	28.62
431.845	28.67
432.05	28.85
432.255	28.97
432.46	28.95
432.665	28.98
432.87	28.77
433.076	29.08
433.281	29.11
433.486	29.26
433.691	29.3
433.896	29.21
434.101	29.2
434.306	29.19
434.511	28.93
434.716	29.01
434.921	29.08
435.126	29.13
435.331	29.01
435.535	29.01
435.74	28.75
435.945	28.9
436.15	28.91
436.355	28.78
436.56	28.74
436.765	28.64
436.97	28.68
437.174	28.6
437.379	28.48
437.584	28.55
437.789	28.56
437.993	28.88
438.198	28.91
438.403	29.15
438.608	29.21
438.812	29.13
439.017	29.37
439.222	29.34
439.426	29.39
439.631	29.53
439.836	29.41
440.04	29.58
440.245	29.35
440.45	29.42
440.654	29.15
440.859	29.22
441.063	29.17
441.268	29.08
441.472	29.14
441.677	29.1
441.881	29.02
442.086	28.98
442.29	28.78
442.495	28.92
442.699	28.59
442.904	28.71
443.108	28.57
443.312	28.63
443.517	28.75
443.721	28.87
443.925	29.01
444.13	28.95
444.334	28.97
444.538	29
444.743	29
444.947	29.11
445.151	29.08
445.356	29.22
445.56	28.97
445.764	28.98
445.968	28.62
446.173	28.45
446.377	28.52
446.581	28.52
446.785	28.47
446.989	28.35
447.193	28.42
447.398	28.44
447.602	28.36
447.806	28.44
448.01	28.36
448.214	28.53
448.418	28.48
448.622	28.39
448.826	28.34
449.03	28.23
449.234	28.37
449.438	28.18
449.642	28.16
449.846	28.14
450.05	28.2
450.254	28.03
450.458	27.9
450.662	27.91
450.866	27.85
451.069	27.96
451.273	28.01
451.477	28.02
451.681	28.08
451.885	27.75
452.089	27.84
452.292	27.73
452.496	27.8
452.7	27.86
452.904	27.9
453.107	28.04
453.311	27.99
453.515	27.97
453.719	27.82
453.922	27.82
454.126	28.03
454.33	27.95
454.533	28.11
454.737	27.96
454.94	27.91
455.144	27.93
455.348	27.74
455.551	27.74
455.755	27.78
455.958	27.67
456.162	27.43
456.365	27.56
456.569	27.35
456.772	27.28
456.976	27.53
457.179	27.61
457.383	27.74
457.586	27.74
457.79	27.77
457.993	27.79
458.196	28.15
458.4	28.27
458.603	28.12
458.807	28.3
459.01	28.49
459.213	28.44
459.417	28.45
459.62	28.31
459.823	28.33
460.026	28.33
460.23	28.29
460.433	28.1
460.636	28.17
460.839	28.34
461.042	28.25
461.246	28.16
461.449	28.23
461.652	28.23
461.855	28.36
462.058	28.57
462.261	28.56
462.464	28.59
462.668	28.47
462.871	28.42
463.074	28.4
463.277	28.41
463.48	28.45
463.683	28.36
463.886	28.42
464.089	28.36
464.292	28.29
464.495	28.3
464.698	28.4
464.901	28.87
465.104	29.04
465.306	28.84
465.509	29.08
465.712	28.94
465.915	28.9
466.118	28.88
466.321	28.84
466.524	28.63
466.726	28.72
466.929	28.61
467.132	28.56
467.335	28.54
467.538	28.65
467.74	28.52
467.943	28.51
468.146	28.5
468.348	28.36
468.551	28.57
468.754	28.76
468.956	28.71
469.159	28.8
469.362	28.63
469.564	28.69
469.767	28.87
469.969	29.01
470.172	28.99
470.375	29.06
470.577	29.39
470.78	29.4
470.982	29.37
471.185	29.44
471.387	29.56
471.59	29.56
471.792	29.57
471.995	29.51
472.197	29.45
472.399	29.53
472.602	29.58
472.804	29.35
473.007	29.17
473.209	29.22
473.411	29.16
473.614	29.04
473.816	29.16
474.018	29.19
474.22	29.15
474.423	29.2
474.625	29.39
474.827	29.48
475.03	29.51
475.232	29.71
475.434	29.62
475.636	29.74
475.838	29.95
476.04	29.99
476.243	29.85
476.445	29.92
476.647	29.77
476.849	29.62
477.051	29.61
477.253	29.74
477.455	29.61
477.657	29.81
477.859	29.68
478.061	29.58
478.263	29.55
478.465	29.69
478.667	29.62
478.869	29.69
479.071	29.7
479.273	29.68
479.475	29.52
479.677	29.49
479.879	29.27
480.081	29.26
480.283	29.27
480.485	29.28
480.686	29.17
480.888	29.27
481.09	29.19
481.292	29.25
481.494	29.21
481.695	29.07
481.897	28.96
482.099	29.08
482.301	29.08
482.502	28.97
482.704	28.94
482.906	28.85
483.107	28.69
483.309	28.65
483.511	28.61
483.712	28.59
483.914	28.67
484.115	28.69
484.317	28.62
484.519	28.59
484.72	28.61
484.922	28.55
485.123	28.6
485.325	28.61
485.526	28.61
485.728	28.61
485.929	28.59
486.131	28.53
486.332	28.58
486.534	28.58
486.735	28.65
486.936	28.74
487.138	28.72
487.339	28.66
487.541	28.7
487.742	28.73
487.943	28.68
488.144	28.72
488.346	28.69
488.547	28.67
488.748	28.7
488.95	28.63
489.151	28.53
489.352	28.64
489.553	28.71
489.755	28.76
489.956	28.79
490.157	28.85
490.358	28.88
490.559	29.03
490.76	28.97
490.961	28.96
491.163	29.01
491.364	28.91
491.565	28.9
491.766	28.87
491.967	28.8
492.168	28.82
492.369	28.9
492.57	28.89
492.771	28.84
492.972	28.97
493.173	29.07
493.374	29.04
493.575	29.27
493.776	29.26
493.976	29.34
494.177	29.41
494.378	29.62
494.579	29.41
494.78	29.46
494.981	29.51
495.182	29.51
495.382	29.52
495.583	29.63
495.784	29.57
495.985	29.62
496.185	29.7
496.386	29.64
496.587	29.65
496.788	29.89
496.988	29.82
497.189	29.96
497.39	29.87
497.59	30.06
497.791	30.14
497.992	30.12
498.192	30.2
498.393	30.13
498.593	30.28
498.794	30.06
498.994	30.03
499.195	30.12
499.395	30.16
499.596	30.25
499.796	30.09
499.997	29.88
500.197	29.99
500.398	29.97
500.598	29.86
500.799	29.86
500.999	30.1
501.199	30.11
501.4	30.19
501.6	30.1
501.801	30.17
502.001	30.34
502.201	30.83
502.402	30.89
502.602	30.95
502.802	31.21
503.002	31.4
503.203	31.44
503.403	31.46
503.603	31.5
503.803	31.46
504.003	31.57
504.204	31.77
504.404	31.5
504.604	31.58
504.804	31.72
505.004	31.86
505.204	31.77
505.404	31.66
505.604	31.8
505.804	31.84
506.005	32.06
506.205	31.94
506.405	31.74
506.605	31.83
506.805	31.84
507.005	31.74
507.204	31.85
507.404	32
507.604	32.15
507.804	32.17
508.004	32.21
508.204	32.34
508.404	32.38
508.604	32.52
508.804	32.59
509.003	32.75
509.203	32.84
509.403	32.79
509.603	32.73
509.803	32.96
510.002	33.04
510.202	33.14
510.402	33.11
510.602	33.32
510.801	33.29
511.001	33.32
511.201	33.31
511.4	33.44
511.6	33.41
511.8	33.67
511.999	33.6
512.199	33.74
512.398	33.73
512.598	33.72
512.797	33.69
512.997	33.85
513.197	33.97
513.396	34.13
513.596	34.26
513.795	34.46
513.994	34.52
514.194	34.68
514.393	34.62
514.593	34.84
514.792	34.97
514.992	34.99
515.191	34.95
515.39	35.04
515.59	34.89
515.789	34.93
515.988	34.92
516.188	34.96
516.387	34.79
516.586	34.92
516.786	35.06
516.985	35.2
517.184	35.39
517.383	35.4
517.582	35.35
517.782	35.43
517.981	35.43
518.18	35.49
518.379	35.54
518.578	35.73
518.777	35.82
518.976	35.89
519.176	35.98
519.375	36.06
519.574	36.07
519.773	36.24
519.972	36.39
520.171	36.48
520.37	36.53
520.569	36.62
520.768	36.69
520.967	36.87
521.166	36.87
521.365	36.95
521.564	37.05
521.762	37.24
521.961	37.37
522.16	37.54
522.359	37.76
522.558	37.84
522.757	37.75
522.956	37.86
523.154	37.9
523.353	37.95
523.552	38.08
523.751	38.1
523.949	38.18
524.148	37.99
524.347	38.06
524.546	38.09
524.744	38.19
524.943	38.31
525.142	38.3
525.34	38.34
525.539	38.32
525.737	38.24
525.936	38.15
526.135	38.24
526.333	38.38
526.532	38.33
526.73	38.32
526.929	38.34
527.127	38.4
527.326	38.41
527.524	38.37
527.723	38.4
527.921	38.47
528.12	38.45
528.318	38.45
528.516	38.48
528.715	38.58
528.913	38.59
529.112	38.6
529.31	38.62
529.508	38.73
529.707	38.79
529.905	38.88
530.103	38.93
530.301	39.18
530.5	39.24
530.698	39.34
530.896	39.31
531.094	39.37
531.293	39.45
531.491	39.51
531.689	39.49
531.887	39.48
532.085	39.57
532.283	39.56
532.481	39.45
532.68	39.42
532.878	39.38
533.076	39.29
533.274	39.37
533.472	39.45
533.67	39.44
533.868	39.46
534.066	39.43
534.264	39.41
534.462	39.36
534.66	39.51
534.858	39.56
535.056	39.63
535.253	39.87
535.451	39.89
535.649	39.83
535.847	39.95
536.045	39.95
536.243	40.13
536.441	40.11
536.638	40.26
536.836	40.09
537.034	40.12
537.232	40.16
537.43	40.15
537.627	40.11
537.825	40.24
538.023	40.22
538.22	40.3
538.418	40.19
538.616	40.18
538.813	40.09
539.011	40.12
539.209	40.14
539.406	40.12
539.604	40.03
539.801	40.04
539.999	39.87
540.196	39.84
540.394	39.81
540.591	39.81
540.789	39.86
540.986	39.89
541.184	39.93
541.381	39.96
541.579	39.96
541.776	40.06
541.974	40.14
542.171	40.24
542.368	40.35
542.566	40.39
542.763	40.42
542.96	40.49
543.158	40.57
543.355	40.66
543.552	40.75
543.75	40.93
543.947	40.88
544.144	40.78
544.341	40.82
544.539	40.88
544.736	40.96
544.933	41.04
545.13	41.06
545.327	41.04
545.524	41.06
545.722	40.94
545.919	40.88
546.116	40.83
546.313	40.92
546.51	41.06
546.707	40.96
546.904	40.98
547.101	40.93
547.298	40.91
547.495	40.98
547.692	40.92
547.889	41.15
548.086	41.18
548.283	41.31
548.48	41.49
548.677	41.35
548.874	41.45
549.07	41.4
549.267	41.56
549.464	41.59
549.661	41.5
549.858	41.52
550.055	41.44
550.251	41.24
550.448	41.33
550.645	41.2
550.842	41.35
551.038	41.34
551.235	41.23
551.432	41.06
551.628	41.09
551.825	41.31
552.022	41.37
552.218	41.24
552.415	41.29
552.612	41.36
552.808	41.24
553.005	41.06
553.201	40.94
553.398	41.08
553.594	41.13
553.791	41.06
553.987	40.98
554.184	40.95
554.38	41.06
554.577	41.01
554.773	40.94
554.97	41.14
555.166	41.32
555.362	41.29
555.559	41.23
555.755	41.33
555.952	41.46
556.148	41.53
556.344	41.52
556.541	41.69
556.737	41.81
556.933	41.77
557.129	41.53
557.326	41.6
557.522	41.57
557.718	41.66
557.914	41.6
558.11	41.61
558.307	41.51
558.503	41.67
558.699	41.59
558.895	41.27
559.091	41.07
559.287	41.11
559.483	40.93
559.679	41.18
559.876	41.37
560.072	41.42
560.268	41.31
560.464	41.14
560.66	41.17
560.856	41.17
561.052	41.34
561.247	41.45
561.443	41.64
561.639	41.77
561.835	41.8
562.031	41.56
562.227	41.58
562.423	41.75
562.619	41.91
562.815	41.69
563.01	41.63
563.206	41.81
563.402	42.14
563.598	41.96
563.793	41.98
563.989	41.85
564.185	42.07
564.381	42
564.576	41.91
564.772	41.66
564.968	41.79
565.163	41.73
565.359	41.59
565.555	41.45
565.75	41.5
565.946	41.35
566.141	41.43
566.337	41.26
566.532	41.21
566.728	41.26
566.923	41.55
567.119	41.59
567.314	41.74
567.51	41.74
567.705	41.58
567.901	41.74
568.096	41.88
568.292	41.69
568.487	41.7
568.682	41.89
568.878	41.61
569.073	41.55
569.268	41.41
569.464	41.3
569.659	41.42
569.854	41.49
570.05	41.19
570.245	41.17
570.44	41.17
570.635	41.3
570.831	41.2
571.026	41.47
571.221	41.56
571.416	41.7
571.611	41.74
571.806	41.78
572.002	41.87
572.197	41.88
572.392	41.81
572.587	41.89
572.782	41.9
572.977	41.98
573.172	41.91
573.367	41.72
573.562	41.82
573.757	41.65
573.952	41.73
574.147	41.69
574.342	41.89
574.537	41.88
574.732	41.9
574.927	41.89
575.121	41.82
575.316	41.99
575.511	42.33
575.706	42.13
575.901	42.15
576.096	42.12
576.29	42.15
576.485	42.46
576.68	42.66
576.875	42.74
577.069	42.9
577.264	42.88
577.459	42.72
577.654	42.35
577.848	42.39
578.043	42.84
578.238	42.64
578.432	42.62
578.627	42.45
578.821	42.4
579.016	42.39
579.21	42.3
579.405	42.48
579.6	42.38
579.794	42.62
579.989	42.64
580.183	42.27
580.378	42.48
580.572	42.59
580.766	42.48
580.961	42.5
581.155	42.66
581.35	42.62
581.544	42.51
581.738	42.86
581.933	42.78
582.127	42.6
582.321	42.7
582.516	42.84
582.71	42.73
582.904	42.44
583.099	42.43
583.293	42.61
583.487	42.47
583.681	42.32
583.875	42.07
584.07	42.03
584.264	42.21
584.458	42.26
584.652	42.15
584.846	42.1
585.04	42.39
585.234	42.6
585.428	42.36
585.623	42.52
585.817	42.75
586.011	43.06
586.205	42.99
586.399	43.37
586.593	43.13
586.787	43.3
586.981	43.45
587.174	43.19
587.368	42.93
587.562	42.83
587.756	42.81
587.95	42.9
588.144	42.6
588.338	42.68
588.532	42.35
588.725	42.55
588.919	42.61
589.113	42.47
589.307	42.42
589.501	42.53
589.694	42.43
589.888	42.28
590.082	42.2
590.275	42.4
590.469	42.42
590.663	42.17
590.856	41.98
591.05	41.82
591.244	42
591.437	41.96
591.631	41.91
591.824	41.97
592.018	42.01
592.212	42.23
592.405	42.02
592.599	42.11
592.792	42.21
592.986	42.46
593.179	42.21
593.372	42.36
593.566	42.53
593.759	42.48
593.953	42.36
594.146	42.36
594.339	42.07
594.533	42.19
594.726	42.2
594.92	42.4
595.113	42.2
595.306	42.38
595.499	42.21
595.693	42.06
595.886	41.96
596.079	41.91
596.272	42.02
596.466	42.18
596.659	42.07
596.852	41.91
597.045	41.88
597.238	41.91
597.431	41.89
597.624	41.86
597.818	42.03
598.011	42.03
598.204	42.23
598.397	42.25
598.59	42.1
598.783	42.25
598.976	42.23
599.169	42.51
599.362	42.66
599.555	42.67
599.748	42.7
599.941	42.7
600.134	42.97
600.326	43.03
600.519	42.81
600.712	42.92
600.905	43.03
601.098	43.32
601.291	42.97
601.483	43.22
601.676	43.23
601.869	43.12
602.062	43.32
602.255	43.28
602.447	43.25
602.64	43.36
602.833	43.63
603.025	43.68
603.218	43.65
603.411	43.74
603.603	43.6
603.796	43.51
603.989	43.4
604.181	43.27
604.374	43.18
604.566	43.09
604.759	43.06
604.951	42.98
605.144	42.84
605.336	42.9
605.529	43.02
605.721	42.85
605.914	42.97
606.106	43.07
606.299	42.85
606.491	42.72
606.683	42.84
606.876	42.93
607.068	42.77
607.26	42.62
607.453	42.42
607.645	42.2
607.837	42.26
608.03	42.31
608.222	42.23
608.414	42.36
608.606	42.56
608.799	42.33
608.991	42.12
609.183	42.33
609.375	42.54
609.567	42.47
609.759	42.48
609.952	42.67
610.144	42.78
610.336	42.86
610.528	43.01
610.72	42.89
610.912	43.12
611.104	43.31
611.296	43.1
611.488	42.95
611.68	43.21
611.872	43.2
612.064	43.03
612.256	42.74
612.448	42.84
612.64	42.79
612.832	42.9
613.023	42.65
613.215	42.55
613.407	42.27
613.599	42.28
613.791	42.03
613.983	42.15
614.174	42.28
614.366	42.36
614.558	42.2
614.75	42.32
614.941	42.33
615.133	42.73
615.325	42.99
615.516	43.42
615.708	43.29
615.9	43.61
616.091	43.37
616.283	43.16
616.475	43.17
616.666	43.48
616.858	43.57
617.049	43.21
617.241	42.99
617.432	43.05
617.624	42.92
617.815	43.11
618.007	42.96
618.198	42.92
618.39	42.66
618.581	42.68
618.773	42.66
618.964	42.62
619.155	43.09
619.347	43.15
619.538	42.95
619.729	43.01
619.921	43.12
620.112	43.1
620.303	43.42
620.494	43.59
620.686	43.73
620.877	43.62
621.068	43.43
621.259	43.35
621.451	43.46
621.642	43.19
621.833	43.35
622.024	43.32
622.215	43.2
622.406	43.19
622.597	43
622.788	43.17
622.98	43.22
623.171	43.39
623.362	43.49
623.553	43.46
623.744	43.81
623.935	43.52
624.126	43.18
624.317	43.11
624.508	43.05
624.698	43.07
624.889	42.98
625.08	42.93
625.271	42.61
625.462	42.37
625.653	42.49
625.844	42.4
626.034	42.37
626.225	42.48
626.416	42.65
626.607	42.5
626.798	42.4
626.988	42.39
627.179	42.48
627.37	42.63
627.56	42.77
627.751	42.74
627.942	42.79
628.132	42.82
628.323	43.04
628.514	42.87
628.704	43.06
628.895	43.49
629.085	43.38
629.276	43.26
629.466	43.43
629.657	43.51
629.847	43.45
630.038	43.6
630.228	43.92
630.419	43.73
630.609	43.99
630.8	44.19
630.99	44.05
631.181	43.84
631.371	43.91
631.561	43.91
631.752	43.81
631.942	43.67
632.132	43.28
632.323	43.05
632.513	42.86
632.703	42.58
632.893	41.95
633.084	42.2
633.274	41.86
633.464	41.8
633.654	41.83
633.844	41.76
634.034	41.78
634.225	41.98
634.415	41.91
634.605	42.13
634.795	42.26
634.985	42.68
635.175	42.55
635.365	42.88
635.555	42.89
635.745	42.79
635.935	42.6
636.125	42.74
636.315	42.66
636.505	42.82
636.695	42.62
636.885	42.86
637.075	42.63
637.265	42.44
637.455	42.77
637.644	42.65
637.834	42.76
638.024	43.46
638.214	43.05
638.404	43.13
638.593	43.16
638.783	43.51
638.973	43.35
639.163	43.59
639.352	43.46
639.542	43.02
639.732	42.9
639.921	42.52
640.111	42.05
640.301	42.26
640.49	42.59
640.68	42.56
640.87	42.39
641.059	42.65
641.249	42.67
641.438	43.31
641.628	43.61
641.817	43.63
642.007	43.72
642.196	43.45
642.386	43.44
642.575	43.2
642.764	43.08
642.954	42.98
643.143	42.49
643.333	42.49
643.522	41.77
643.711	41.75
643.901	41.7
644.09	42.21
644.279	42.49
644.469	42.82
644.658	42.74
644.847	42.69
645.036	42.86
645.226	42.67
645.415	42.85
645.604	43.27
645.793	43.15
645.982	43.64
646.171	43.06
646.361	43.14
646.55	42.98
646.739	42.87
646.928	42.87
647.117	42.73
647.306	42.63
647.495	42.23
647.684	41.86
647.873	41.88
648.062	41.89
648.251	41.73
648.44	41.54
648.629	41.68
648.818	41.63
649.007	41.5
649.196	41.88
649.384	42.68
649.573	42.93
649.762	43.54
649.951	43.61
650.14	43.66
650.328	44.19
650.517	44.11
650.706	43.84
650.895	43.96
651.083	43.99
651.272	44.09
651.461	43.56
651.65	43.43
651.838	42.75
652.027	42.51
652.216	42.2
652.404	42.02
652.593	42.62
652.781	42.73
652.97	42.66
653.158	43.09
653.347	42.67
653.535	42.8
653.724	43.06
653.912	43.31
654.101	43.58
654.289	43.46
654.478	43.32
654.666	43.15
654.855	43.06
655.043	43.32
655.231	42.72
655.42	42.58
655.608	43.02
655.796	43.11
655.985	43.21
656.173	43.08
656.361	42.92
656.55	42.95
656.738	42.68
656.926	42.51
657.114	42.27
657.302	42.54
657.491	42.72
657.679	42.36
657.867	41.97
658.055	41.96
658.243	42.2
658.431	42.31
658.619	42.45
658.807	42.49
658.996	42.44
659.184	42.31
659.372	42.61
659.56	42.91
659.748	42.82
659.936	42.88
660.124	43.01
660.311	42.74
660.499	42.82
660.687	42.47
660.875	42.28
661.063	42.51
661.251	42.84
661.439	42.53
661.627	42.21
661.814	42.69
662.002	42.85
662.19	42.62
662.378	42.86
662.565	43.29
662.753	43.68
662.941	43.56
663.129	43.67
663.316	43.77
663.504	43.45
663.692	43.32
663.879	43.62
664.067	43.3
664.254	43.64
664.442	43.4
664.63	43.23
664.817	43.48
665.005	43.33
665.192	43.39
665.38	43.15
665.567	43.68
665.755	43.93
665.942	43.04
666.13	42.92
666.317	42.67
666.504	42.74
666.692	42.36
666.879	42.19
667.067	42.89
667.254	42.57
667.441	42.89
667.629	42.6
667.816	42.55
668.003	42.91
668.19	43.7
668.378	43.59
668.565	44.03
668.752	44.19
668.939	43.83
669.127	43.88
669.314	43.86
669.501	43.7
669.688	43.82
669.875	43.86
670.062	43.84
670.249	43.26
670.436	43.26
670.623	43.7
670.81	43.72
670.997	44.14
671.184	43.92
671.371	43.86
671.558	44.26
671.745	44.33
671.932	44.37
672.119	44.06
672.306	44.52
672.493	44.9
672.68	43.8
672.867	43.99
673.054	44.25
673.24	44.77
673.427	45.18
673.614	44.97
673.801	44.99
673.988	44.47
674.174	44.67
674.361	44.1
674.548	43.9
674.734	43.98
674.921	43.81
675.108	43.6
675.294	43.19
675.481	43.19
675.668	42.91
675.854	42.85
676.041	43.15
676.227	43.31
676.414	43.06
676.601	42.89
676.787	43.32
676.974	42.95
677.16	42.56
677.347	42.09
677.533	41.74
677.719	41.96
677.906	42.18
678.092	42.61
678.279	42.35
678.465	42.27
678.651	42.47
678.838	42.66
679.024	43.11
679.21	43.14
679.397	43.34
679.583	43.8
679.769	43.23
679.955	42.83
680.142	42.7
680.328	42.46
680.514	42.94
680.7	43.21
680.886	42.98
681.073	42.74
681.259	42.83
681.445	42.89
681.631	42.6
681.817	43.01
682.003	43.2
682.189	42.87
682.375	42.75
682.561	42.99
682.747	42.58
682.933	42.56
683.119	42.69
683.305	43.06
683.491	43.02
683.677	43.2
683.863	42.96
684.049	43.31
684.235	43.03
684.42	43.67
684.606	43.15
684.792	43.19
684.978	42.64
685.164	42.87
685.349	42.29
685.535	42.99
685.721	42.65
685.907	42.66
686.092	42.35
686.278	42.42
686.464	42.25
686.649	42.2
686.835	42.25
687.021	42.55
687.206	42.41
687.392	42.36
687.577	41.27
687.763	41.41
687.948	41.27
688.134	41.11
688.319	41.04
688.505	40.87
688.69	40.42
688.876	40.55
689.061	40.46
689.247	40.4
689.432	40.43
689.618	41.2
689.803	40.95
689.988	41.13
690.174	41.24
690.359	41.85
690.544	41.95
690.73	43.26
690.915	43.73
691.1	43.89
691.285	44.02
691.471	44.5
691.656	43.6
691.841	43.97
692.026	44.05
692.211	44.08
692.396	43.77
692.582	44.3
692.767	43.61
692.952	43.19
693.137	43
693.322	42.31
693.507	42.05
693.692	42.15
693.877	41.94
694.062	42.34
694.247	42.07
694.432	42.51
694.617	41.85
694.802	41.81
694.987	41.33
695.172	41.46
695.357	42.52
695.541	42
695.726	41.96
695.911	42.35
696.096	41.78
696.281	42.02
696.466	41.7
696.65	41.58
696.835	41.51
697.02	42.1
697.204	42.1
697.389	41.53
697.574	41.87
697.759	42.38
697.943	42.13
698.128	42.44
698.312	42.64
698.497	42.69
698.682	42.58
698.866	42.89
699.051	42.8
699.235	42.53
699.42	42.55
699.604	42.75
699.789	42.47
699.973	42.34
700.158	42.17
700.342	42.03
700.527	42.09
700.711	42.76
700.895	42.5
701.08	42.44
701.264	43.09
701.448	42.51
701.633	42.13
701.817	41.78
702.001	42.16
702.186	42.03
702.37	41.91
702.554	42.05
702.738	41.84
702.923	42.38
703.107	42.17
703.291	41.77
703.475	42.69
703.659	42.93
703.843	43.63
704.027	43.1
704.212	42.85
704.396	43.21
704.58	42.4
704.764	42.19
704.948	42.08
705.132	41.22
705.316	40.67
705.5	40.59
705.684	40.38
705.868	40.38
706.052	40.6
706.235	40.78
706.419	40.52
706.603	41.11
706.787	41.61
706.971	41.69
707.155	42.32
707.339	42.98
707.522	42.38
707.706	42.66
707.89	43.25
708.074	43.18
708.257	43.32
708.441	43.18
708.625	42.94
708.808	42.51
708.992	42.4
709.176	42.7
709.359	42.95
709.543	42.96
709.727	43.37
709.91	42.77
710.094	42.61
710.277	42.88
710.461	43.1
710.644	43.22
710.828	43.01
711.011	42.33
711.195	42.14
711.378	41.36
711.562	41.96
711.745	41.65
711.928	42.34
712.112	42.81
712.295	43.03
712.478	42.93
712.662	42.7
712.845	43.27
713.028	43.03
713.212	42.95
713.395	43.71
713.578	43.71
713.761	43.44
713.945	43.55
714.128	43.68
714.311	42.98
714.494	43.23
714.677	44
714.86	43.79
715.043	43.54
715.227	43.59
715.41	43.79
715.593	44.21
715.776	44.44
715.959	43.68
716.142	43.9
716.325	44.13
716.508	44.04
716.691	43.35
716.874	42.74
717.057	43.72
717.239	43.67
717.422	43.41
717.605	42.68
717.788	42.8
717.971	42.61
718.154	42.04
718.337	41.82
718.519	41.92
718.702	42.03
718.885	42.22
719.068	41.61
719.25	41.58
719.433	41.63
719.616	40.91
719.798	40.99
719.981	41
720.164	40.71
720.346	41.13
720.529	40.53
720.712	41.17
720.894	41.39
721.077	42.43
721.259	43.21
721.442	43.08
721.624	44.49
721.807	43.79
721.989	43.76
722.172	44.49
722.354	44.49
722.537	44.85
722.719	44.23
722.901	44.51
723.084	43.59
723.266	43.73
723.448	43.85
723.631	43.47
723.813	43.36
723.995	43.74
724.178	43.52
724.36	43.91
724.542	43.58
724.724	43.75
724.907	43.98
725.089	43.86
725.271	43.7
725.453	43.13
725.635	42.41
725.817	42.83
725.999	42.16
726.181	42.09
726.364	42.2
726.546	41.95
726.728	42.17
726.91	41.75
727.092	42.08
727.274	41.4
727.456	41.71
727.638	42.14
727.819	42.53
728.001	44.4
728.183	44.78
728.365	45.15
728.547	45.18
728.729	45.43
728.911	45.3
729.093	44.62
729.274	44.78
729.456	44.71
729.638	44.76
729.82	43.52
730.001	40.94
730.183	39.8
730.365	38.88
730.546	39.64
730.728	39.19
730.91	39.06
731.091	39.82
731.273	39.51
731.455	39.45
731.636	39.29
731.818	40.19
731.999	40.73
732.181	41.32
732.362	41.38
732.544	41.03
732.725	41.04
732.907	41.98
733.088	42.14
733.27	42.92
733.451	42.75
733.633	42.57
733.814	41.78
733.995	42.01
734.177	42.39
734.358	42.53
734.539	42.47
734.721	42.18
734.902	41.88
735.083	41.79
735.264	41.35
735.446	41.61
735.627	42.31
735.808	42.57
735.989	42.35
736.17	41.28
736.351	41.18
736.533	40.86
736.714	41.38
736.895	41.13
737.076	41.49
737.257	42.12
737.438	43.04
737.619	43.86
737.8	45.06
737.981	45.37
738.162	45.44
738.343	45.07
738.524	45.57
738.705	46.27
738.886	45.27
739.067	45.07
739.247	44.79
739.428	44.92
739.609	44.39
739.79	43.69
739.971	43.82
740.151	44.56
740.332	44.98
740.513	43.34
740.694	42.28
740.874	43.14
741.055	41.93
741.236	41.09
741.417	39.99
741.597	39.07
741.778	40.42
741.958	40.4
742.139	40.78
742.32	41.39
742.5	42.85
742.681	44.4
742.861	43.71
743.042	44.03
743.222	43.89
743.403	43.35
743.583	45.71
743.764	45.41
743.944	44.36
744.124	44.04
744.305	42.47
744.485	42.36
744.666	40.97
744.846	41.52
745.026	42.91
745.207	44.19
745.387	45.62
745.567	44.25
745.747	43.11
745.928	44.09
746.108	44.08
746.288	45.18
746.468	44.69
746.648	43.51
746.829	43.08
747.009	41.74
747.189	41.35
747.369	40.39
747.549	40.12
747.729	40.1
747.909	40.93
748.089	39.91
748.269	39
748.449	38.82
748.629	38.77
748.809	39.9
748.989	40.04
749.169	39.8
749.349	39.78
749.529	39.41
749.709	38.68
749.889	38.15
750.068	39.06
750.248	39.04
750.428	38.59
750.608	39.88
750.788	40.48
750.967	40.28
751.147	40.91
751.327	41.86
751.507	41.6
751.686	42.91
751.866	43.22
752.046	43.76
752.225	44.35
752.405	46.05
752.585	44.71
752.764	43.6
752.944	44.1
753.123	44.43
753.303	42.97
753.482	43.99
753.662	43.28
753.841	42.35
754.021	40.96
754.2	41.46
754.38	41.49
754.559	43.18
754.739	43.16
754.918	42.18
755.097	41.43
755.277	42.5
755.456	42.29
755.635	42.41
755.815	42.18
755.994	41.19
756.173	41.42
756.352	40.63
756.532	38.99
756.711	39.03
756.89	40.79
757.069	40.54
757.248	38.89
757.427	37.8
757.607	39.1
757.786	40.97
757.965	42.54
758.144	41.84
758.323	41.3
758.502	41.67
758.681	42.12
758.86	41.18
759.039	41.16
759.218	41.74
759.397	42.12
759.576	40.83
759.755	39.43
759.934	39.01
760.113	38.79
760.291	39.38
760.47	39.66
760.649	38.1
760.828	38.63
761.007	38.55
761.186	38.51
761.364	39.15
761.543	38.59
761.722	39.41
761.901	40.49
762.079	40.79
762.258	39.57
762.437	39.71
762.615	41.05
762.794	40.35
762.972	40.65
763.151	41.14
763.33	41.02
763.508	40.74
763.687	40.87
763.865	40.64
764.044	41.01
764.222	41.98
764.401	42.23
764.579	41.09
764.758	41.22
764.936	41.09
765.114	41.68
765.293	41.7
765.471	42.17
765.65	42.14
765.828	42.24
766.006	42.21
766.184	41.5
766.363	40.31
766.541	40.36
766.719	41.66
766.898	41.09
767.076	40.51
767.254	39.52
767.432	39.74
767.61	38.82
767.788	37.53
767.967	36.24
768.145	38.59
768.323	39.66
768.501	41.21
768.679	40.58
768.857	40.01
769.035	40.17
769.213	41.82
769.391	43.12
769.569	43.06
769.747	43.44
769.925	44.75
770.103	43.41
770.281	42.04
770.459	41.92
770.636	41.97
770.814	44.27
770.992	44.34
771.17	44.28
771.348	43.9
771.525	45.3
771.703	45.25
771.881	44.48
772.059	43.3
772.236	46.06
772.414	44.3
772.592	43.24
772.769	41.48
772.947	40.98
773.125	41.22
773.302	40.84
773.48	39.93
773.657	39.34
773.835	38.78
774.013	39.18
774.19	37.45
774.368	39.25
774.545	39.72
774.723	42.04
774.9	42.76
775.077	41.24
775.255	38.75
775.432	40.54
775.61	43.32
775.787	43.41
775.964	43.89
776.142	44.08
776.319	44.95
776.496	43.25
776.674	41.55
776.851	40.61
777.028	40.23
777.205	43.47
777.382	42.17
777.56	41.63
777.737	44.26
777.914	45.21
778.091	43.53
778.268	40.63
778.445	43.03
778.622	41.89
778.8	43.96
778.977	45.72
779.154	44.32
779.331	42.17
779.508	39.69
779.685	38.54
779.862	38.3
780.038	37.13
780.215	38.62
780.392	37.38
780.569	38.11
780.746	37.35
780.923	35.76
781.1	36.61
781.277	36.89
781.453	37.97
781.63	36.62
781.807	34.68
781.984	36.69
782.16	36.86
782.337	34.97
782.514	35.64
782.691	34.31
782.867	35.43
783.044	34.51
783.221	37.06
783.397	37.74
783.574	38.21
783.75	41.99
783.927	43.1
784.103	44.34
784.28	46.29
784.456	48.33
784.633	48.65
784.809	49.26
784.986	49.5
785.162	46.83
785.339	43.53
785.515	42.3
785.692	39.35
785.868	38.5
786.044	36.72
786.221	35.79
786.397	34.78
786.573	34.72
786.749	31.34
786.926	32.48
787.102	35.23
787.278	38.5
787.454	39.18
787.631	39.71
787.807	40.85
787.983	41.28
788.159	42.38
788.335	40.49
788.511	38.38
788.687	39.54
788.863	39.53
789.039	38.54
789.216	39.74
789.392	40.19
789.568	41.82
789.744	43.07
789.919	42.63
790.095	44.95
790.271	47.36
790.447	46.62
790.623	49.45
790.799	50.29
790.975	50.27
791.151	47.04
791.327	46.43
791.502	43.09
791.678	42.1
791.854	42.4
792.03	40.27
792.205	37.63
792.381	40.45
792.557	36.61
792.733	33.95
792.908	33.17
793.084	34.36
793.259	35.45
793.435	38.1
793.611	34.95
793.786	36.19
793.962	36.25
794.137	37.04
794.313	35.67
794.488	36.91
794.664	38.87
794.839	38.44
795.015	41.51
795.19	41.78
795.366	40.78
795.541	42.76
795.716	41.12
795.892	40.54
796.067	41.34
796.242	42.5
796.418	40.05
796.593	39.75
796.768	42.05
796.944	38.55
797.119	38.25
797.294	40.18
797.469	40.39
797.644	42.43
797.82	42
797.995	39.56
798.17	40.69
798.345	43.4
798.52	43.61
798.695	42.64
798.87	42.58
799.045	41.28
799.22	40.68
799.395	40.71
799.57	38.99
799.745	40.18
799.92	42.09
800.095	40.62
800.27	42.85
800.445	41.7
800.62	41.44
800.795	41.91
800.97	42.86
801.145	43.97
801.319	42.79
801.494	42.06
801.669	38.1
801.844	37.87
802.018	37.94
802.193	36.4
802.368	35.22
802.543	36.57
802.717	38.63
802.892	36.52
803.067	34.63
803.241	35.31
803.416	35.53
803.59	41.15
803.765	42.22
803.94	43.7
804.114	41.66
804.289	43.66
804.463	42.49
804.638	39.63
804.812	43.68
804.986	40.62
805.161	41.65
805.335	44.14
805.51	42.25
805.684	38.32
805.858	36.88
806.033	37.64
806.207	35.25
806.381	35.06
806.556	35.45
806.73	36.41
806.904	37.14
807.078	36.14
807.253	33.09
807.427	32.34
807.601	35.07
807.775	38.01
807.949	39.63
808.123	38.98
808.298	36.69
808.472	37.47
808.646	33.5
808.82	37.77
808.994	39.8
809.168	42
809.342	42.07
809.516	46.63
809.69	47.5
809.864	44.45
810.038	45.53
810.212	47.64
810.385	47.56
810.559	49.18
810.733	46.09
810.907	40.83
811.081	36.1
811.255	39.16
811.428	38.76
811.602	31.87
811.776	35.68
811.95	38.2
812.123	32.9
812.297	35.27
812.471	33.72
812.644	34.61
812.818	42.38
812.992	45.08
813.165	42.65
813.339	38.51
813.512	43.31
813.686	42.38
813.86	44.77
814.033	51.17
814.207	49.24
814.38	46.3
814.554	43.41
814.727	38.33
814.9	37.87
815.074	41.31
815.247	42.96
815.421	40.5
815.594	41.62
815.767	39.68
815.941	38.55
816.114	41.62
816.287	46.67
816.46	45.23
816.634	46.5
816.807	45.91
816.98	44.54
817.153	42.05
817.327	37.58
817.5	39.55
817.673	39.7
817.846	43.18
818.019	40.12
818.192	39.39
818.365	35.79
818.538	31.96
818.711	31.92
818.884	30.53
819.057	33.34
819.23	38.56
819.403	34.9
819.576	38.32
819.749	33.58
819.922	33.07
820.095	33.41
820.268	36.84
820.441	41.04
820.614	42.35
820.786	43.57
820.959	41.24
821.132	40.11
821.305	41.72
821.477	39.26
821.65	39.59
821.823	39.61
821.996	39.39
822.168	39.88
822.341	39.96
822.514	40.04
822.686	39.36
822.859	39.64
823.031	39.94
823.204	39.97
823.376	40.48
823.549	40.65
823.722	40.75
823.894	40.62
824.067	40.35
824.239	39.13
824.411	38.87
824.584	39.97
824.756	40.13
824.929	39.61
825.101	38.3
825.273	37.73
825.446	37.65
825.618	36.46
825.79	36.32
825.963	36.46
826.135	38.29
826.307	39.39
826.479	37.69
826.652	38.11
826.824	37.32
826.996	38.97
827.168	40.85
827.34	39.89
827.512	41.79
827.684	41.63
827.856	41.35
828.029	40.1
828.201	38.66
828.373	39.25
828.545	38.47
828.717	39.21
828.889	38.03
829.061	36.61
829.232	36.57
829.404	35.56
829.576	36.09
829.748	35.36
829.92	36.26
830.092	36.32
830.264	33.81
830.436	34.14
830.607	34.97
830.779	33.71
830.951	31.87
831.123	31.12
831.294	31.15
831.466	27.91
831.638	30.78
831.809	32.76
831.981	32.65
832.153	34.96
832.324	37.57
832.496	39.45
832.667	37.71
832.839	38.22
833.011	40.12
833.182	41.78
833.354	40.1
833.525	39.46
833.697	37.03
833.868	37.98
834.039	40.71
834.211	39.09
834.382	37.74
834.554	39.03
834.725	39.77
834.896	39.45
835.068	37.32
835.239	42.18
835.41	42.45
835.581	42.38
835.753	41.07
835.924	39.32
836.095	38.87
836.266	36.86
836.438	36.21
836.609	35.42
836.78	37.84
836.951	37.13
837.122	33.89
837.293	35.83
837.464	37.19
837.635	41.01
837.806	41.16
837.977	41.81
838.148	44.35
838.319	49.23
838.49	49.89
838.661	46.34
838.832	49.89
839.003	51.84
839.174	50.25
839.345	49.14
839.516	43.06
839.687	36.8
839.857	37.29
840.028	41.99
840.199	39.21
840.37	43.96
840.54	44.93
840.711	43.98
840.882	39.03
841.053	35.34
841.223	33.05
841.394	34.99
841.564	43.27
841.735	42.35
841.906	39.81
842.076	48.27
842.247	43.84
842.417	43.69
842.588	43.56
842.758	50.54
842.929	56.63
843.099	59.68
843.27	60.58
843.44	55.18
843.611	61.54
843.781	54.38
843.951	36.96
844.122	30.59
844.292	42.24
844.462	33.94
844.633	29.36
844.803	25.77
844.973	31.26
845.144	28.49
845.314	34.43
845.484	28.21
845.654	28.87
845.824	27.08
845.995	36.17
846.165	26.07
846.335	37.97
846.505	39.43
846.675	51.57
846.845	45.08
847.015	51.5
847.185	47.64
847.355	57.6
847.525	73.69
847.695	79.12
847.865	68.3
848.035	66.57
848.205	63.68
848.375	63.52
848.545	52.41
848.715	55.81
848.884	61.02
849.054	55.36
849.224	43.46
849.394	24.04
849.564	31.75
849.733	40.89
849.903	43.41
850.073	37.58
850.243	27.84
850.412	29.29
850.582	25.71
850.752	39.57
850.921	52.5
851.091	54.16
851.26	62.93
851.43	73.5
851.599	53.25
851.769	54.98
851.939	56.43
852.108	55.6
852.278	56.35
852.447	63.5
852.616	55.51
852.786	52.26
852.955	58.6
853.125	55.64
853.294	46.26
853.463	56.03
853.633	58.29
853.802	64.07
853.971	70.9
854.141	77.5
854.31	71.3
854.479	72.64
854.648	73.45
854.818	83.35
854.987	81.6
855.156	88.97
855.325	80.64
855.494	79.31
855.663	64.84
855.832	62.09
856.001	49.17
856.171	47.59
856.34	41.48
856.509	43.91
856.678	35.97
856.847	35.24
857.016	36.5
857.185	41.74
857.353	35.19
857.522	41.03
857.691	41.11
857.86	42.29
858.029	46.88
858.198	51.6
858.367	63.46
858.535	72.93
858.704	80.64
858.873	71.78
859.042	73.81
859.21	97.84
859.379	95.16
859.548	97.6
859.717	110.64
859.885	102.82
860.054	89.81
860.222	80.58
860.391	74.01
860.56	81.06
860.728	82.87
860.897	86.64
861.065	72.6
861.234	70.48
861.402	74.13
861.571	70.74
861.739	78
861.908	77.49
862.076	78.59
862.244	82.22
862.413	59.78
862.581	56.29
862.749	57.45
862.918	62.06
863.086	65.03
863.254	59.19
863.423	50.62
863.591	50.73
863.759	59.07
863.927	65.42
864.096	60.43
864.264	65.14
864.432	87.41
864.6	85.27
864.768	78.52
864.936	78.07
865.104	93.88
865.272	80.54
865.44	78
865.608	80.35
865.776	70.84
865.944	63.98
866.112	60.91
866.28	32.59
866.448	34.02
866.616	33.03
866.784	29
866.952	14.68
867.12	28.1
867.288	27.37
867.455	30.14
867.623	32.43
867.791	32.82
867.959	36.45
868.127	49.97
868.294	44.64
868.462	45.1
868.63	50.24
868.797	44.91
868.965	51.25
869.133	47.22
869.3	35.77
869.468	53.4
869.636	55.47
869.803	55.02
869.971	60.42
870.138	66.45
870.306	81.42
870.473	85.82
870.641	93.28
870.808	92.14
870.975	92.7
871.143	92.41
871.31	73.23
871.478	71.45
871.645	78.46
871.812	68.8
871.98	55.96
872.147	52.81
872.314	14.09
872.482	4.98
872.649	-2.42
872.816	-1.44
872.983	16.78
873.15	17.9
873.318	55.71
873.485	50.39
873.652	44.46
873.819	44.2
873.986	51.65
874.153	69.22
874.32	80.16
874.487	73.07
874.654	79.69
874.821	87.89
874.988	91.37
875.155	68.49
875.322	71.09
875.489	75.37
875.656	81.78
875.823	79.05
875.99	61.55
876.157	63.66
876.324	74.14
876.49	54.4
876.657	43.5
876.824	41.32
876.991	53.14
877.157	46.37
877.324	46.18
877.491	56.38
877.658	44.93
877.824	43.74
877.991	48.23
878.157	40.63
878.324	50.13
878.491	45.02
878.657	48.35
878.824	39.26
878.99	41.58
879.157	48.22
879.323	34.26
879.49	39.28
879.656	50.47
879.823	47.47
879.989	46.34
880.156	48.94
880.322	42.7
880.488	48.5
880.655	47.74
880.821	50.4
880.987	45.88
881.154	45.94
881.32	46.34
881.486	44.81
881.652	41.07
881.819	41.52
881.985	39.83
882.151	44.47
882.317	45.58
882.483	48.69
882.649	49.34
882.816	46.77
882.982	46.24
883.148	42.83
883.314	42.56
883.48	40.89
883.646	38.97
883.812	39.15
883.978	37.46
884.144	35.44
884.31	32.92
884.476	30.16
884.642	32.26
884.807	31.6
884.973	31.22
885.139	28.96
885.305	28.08
885.471	29.85
885.637	29.02
885.802	31.03
885.968	30.77
886.134	28.42
886.3	26.95
886.465	27.81
886.631	27.75
886.797	31.95
886.962	33.59
887.128	37.83
887.293	37.8
887.459	38.97
887.625	32.35
887.79	29.54
887.956	22.1
888.121	22.45
888.287	11.5
888.452	9.49
888.618	8.87
888.783	0
