Data from 2938121_Reflection_3.txt Node
Date: Sat Jul 11 17:49:19 EDT 2015
User: robert
Spectrometer: USB4E03001
Autoset integration time: false
Trigger mode: 4
Integration Time (sec): 1.000000E-1
Scans to average: 10
Electric dark correction enabled: true
Nonlinearity correction enabled: false
Boxcar width: 5
Stray light correction enabled: false
XAxis mode: Wavelengths
Stop averaging: false
Number of Pixels in Spectrum: 3648
>>>>>Begin Spectral Data<<<<<
177.566	708.8
177.785	-273.2
178.005	-114.91
178.225	22.12
178.445	10.13
178.665	113.48
178.885	129.88
179.105	108.63
179.324	80.78
179.544	68.6
179.764	102.42
179.984	110.16
180.204	153.06
180.423	161.84
180.643	482.5
180.863	-850
181.083	400.61
181.302	395.94
181.522	247.32
181.742	277.01
181.961	276.09
182.181	215.38
182.401	311.93
182.621	1253.16
182.84	739.43
183.06	204.44
183.279	137.76
183.499	104.33
183.719	82.12
183.938	77.93
184.158	102.74
184.377	91.8
184.597	108.66
184.816	115.35
185.036	106.26
185.256	108.54
185.475	110.77
185.695	118.07
185.914	130.98
186.134	128.43
186.353	150.68
186.572	102.03
186.792	136.64
187.011	172.46
187.231	148.23
187.45	127.07
187.67	148.33
187.889	160.58
188.108	168.49
188.328	161.39
188.547	163.86
188.766	161.56
188.986	196.47
189.205	225.3
189.424	236.2
189.644	295.5
189.863	400.71
190.082	1365.77
190.302	463.02
190.521	404.16
190.74	395.76
190.959	-2267.15
191.178	-1008.17
191.398	883.56
191.617	262.3
191.836	245.05
192.055	388.53
192.274	336.84
192.494	352.28
192.713	1412.37
192.932	1118.43
193.151	-11136.08
193.37	-2190.34
193.589	-427.67
193.808	-2213.24
194.027	-1381.37
194.246	757.96
194.465	14761.02
194.685	1488.93
194.904	-2581
195.123	489.06
195.342	-354.69
195.561	289.57
195.78	177.77
195.999	215.17
196.218	473.97
196.436	443.68
196.655	364.64
196.874	170.51
197.093	152.88
197.312	115.6
197.531	148.76
197.75	135.61
197.969	135.54
198.188	166.86
198.407	164.68
198.625	157.57
198.844	174.07
199.063	155.29
199.282	213.8
199.501	250.28
199.719	358.33
199.938	185.95
200.157	465.38
200.376	-3870.59
200.594	328.15
200.813	232.13
201.032	171.29
201.251	171.94
201.469	209.17
201.688	156.22
201.907	160.01
202.125	144.73
202.344	198.11
202.563	170.57
202.781	178.68
203	148.39
203.218	117.11
203.437	141.01
203.656	174.91
203.874	149.6
204.093	94.17
204.311	94.06
204.53	105.08
204.748	102.14
204.967	83.57
205.185	76.09
205.404	69.26
205.622	78.89
205.841	73.23
206.059	62.53
206.278	80.23
206.496	125.96
206.715	160.31
206.933	209.97
207.151	347.11
207.37	565.92
207.588	659.37
207.806	401.07
208.025	748.58
208.243	503.03
208.461	461.52
208.68	-174.91
208.898	298.35
209.116	155.7
209.335	143.9
209.553	-43.62
209.771	24.82
209.989	553.89
210.208	-1184.59
210.426	-603.88
210.644	-1032.92
210.862	250.35
211.081	276.57
211.299	324.14
211.517	526.45
211.735	488.16
211.953	201.07
212.171	172.27
212.39	139.32
212.608	124.02
212.826	108.94
213.044	115.98
213.262	139.93
213.48	106
213.698	93.12
213.916	92.45
214.134	81.03
214.352	98.75
214.57	97.37
214.788	105.51
215.006	115.83
215.224	97.81
215.442	78.64
215.66	74.21
215.878	80.78
216.096	98.55
216.314	92.09
216.532	89.57
216.75	48.79
216.968	87.43
217.185	59.69
217.403	48.1
217.621	73.68
217.839	119.65
218.057	99.5
218.275	97.76
218.492	93.7
218.71	111.04
218.928	140.69
219.146	244.33
219.363	162.34
219.581	250.05
219.799	-404.93
220.017	-4796.91
220.234	-117.45
220.452	-16.47
220.67	-238.29
220.887	376.89
221.105	363.71
221.323	169.34
221.54	116
221.758	122.11
221.976	111.62
222.193	97.88
222.411	74.6
222.629	66.9
222.846	77.67
223.064	70.96
223.281	71.84
223.499	74.65
223.716	74.41
223.934	67.01
224.151	60.63
224.369	67.93
224.586	69.34
224.804	68.02
225.021	58.14
225.239	52.59
225.456	45.61
225.674	30.93
225.891	34.06
226.108	29.09
226.326	41.49
226.543	36.62
226.76	21.1
226.978	13
227.195	9.4
227.413	17.9
227.63	18.11
227.847	20.05
228.064	19.08
228.282	16.22
228.499	18.31
228.716	15.94
228.934	19.35
229.151	22.46
229.368	21.78
229.585	23.68
229.802	24.2
230.02	22.08
230.237	22.67
230.454	25.22
230.671	25.1
230.888	22.84
231.105	20.31
231.323	18.19
231.54	15.5
231.757	19.72
231.974	14.24
232.191	15.44
232.408	16.17
232.625	18.85
232.842	21.61
233.059	20.81
233.276	20.71
233.493	27.88
233.71	29.64
233.927	29.36
234.144	29.94
234.361	36.94
234.578	33.98
234.795	28.26
235.012	20.74
235.229	14.47
235.446	13.94
235.663	19.32
235.879	16.75
236.096	10.37
236.313	12.49
236.53	5.1
236.747	8.22
236.964	6.76
237.181	21.59
237.397	27.69
237.614	33.99
237.831	29.62
238.048	30.11
238.264	26.61
238.481	32.67
238.698	35.55
238.915	30.59
239.131	27.71
239.348	25.63
239.565	21.14
239.781	21.6
239.998	19.54
240.215	24.65
240.431	22.4
240.648	20.91
240.865	20
241.081	18.63
241.298	20.75
241.514	17.55
241.731	17.95
241.947	18.92
242.164	17.22
242.38	15.38
242.597	13.66
242.814	13.83
243.03	15.98
243.246	15.28
243.463	14.86
243.679	15.24
243.896	16.94
244.112	16.28
244.329	15.12
244.545	15.01
244.762	17.34
244.978	19.31
245.194	18.56
245.411	16.71
245.627	14.75
245.843	13.61
246.06	13.66
246.276	12.15
246.492	13.16
246.709	11.19
246.925	12.05
247.141	10.9
247.357	9.89
247.574	10.21
247.79	11.03
248.006	11.3
248.222	11.68
248.439	11.39
248.655	11.06
248.871	9.72
249.087	11.81
249.303	10.34
249.519	10.91
249.736	10.63
249.952	10.73
250.168	11.08
250.384	14.17
250.6	13.96
250.816	13.77
251.032	16.61
251.248	19.1
251.464	19.66
251.68	20.4
251.896	19.71
252.112	18.64
252.328	16.82
252.544	14.7
252.76	13.58
252.976	15.35
253.192	15.89
253.408	14.69
253.624	14.13
253.84	11.96
254.056	13.36
254.272	16.8
254.487	18.36
254.703	19.8
254.919	20.99
255.135	17.71
255.351	15.17
255.567	15.61
255.782	17.69
255.998	17.79
256.214	19
256.43	15.29
256.646	9.87
256.861	12.66
257.077	12.27
257.293	12.83
257.508	13.83
257.724	13.63
257.94	11.44
258.155	9.35
258.371	10.29
258.587	8.57
258.802	10.66
259.018	10.17
259.234	9.33
259.449	8.85
259.665	8.32
259.88	9.64
260.096	9.5
260.312	9.58
260.527	10.14
260.743	9.37
260.958	10.68
261.174	9.34
261.389	10.46
261.605	10.54
261.82	11.19
262.036	11.92
262.251	10.85
262.466	9.96
262.682	10.74
262.897	8.92
263.113	8.74
263.328	6.63
263.543	9.4
263.759	7.7
263.974	8.65
264.189	6.83
264.405	6.52
264.62	6.36
264.835	7.66
265.051	9.9
265.266	12.49
265.481	12.15
265.696	13.3
265.912	13.18
266.127	13.68
266.342	11.7
266.557	13.27
266.773	12.32
266.988	11.04
267.203	10.24
267.418	8.07
267.633	7.48
267.848	8.42
268.064	8.42
268.279	8.3
268.494	8.96
268.709	9.73
268.924	7.47
269.139	7.62
269.354	8.78
269.569	9.81
269.784	9.28
269.999	8.33
270.214	6.8
270.429	7.06
270.644	6.78
270.859	7.08
271.074	5.24
271.289	7.65
271.504	8.27
271.719	8.94
271.934	9.27
272.149	9.04
272.363	9.31
272.578	9.31
272.793	8.11
273.008	6.89
273.223	5.81
273.438	6.93
273.653	7.01
273.867	6.58
274.082	7.01
274.297	6.23
274.512	7.36
274.726	6.41
274.941	5.79
275.156	7.45
275.371	7.82
275.585	9.14
275.8	10.28
276.015	10.2
276.229	10.39
276.444	10.17
276.659	9.42
276.873	7.82
277.088	10.93
277.302	12.59
277.517	11.07
277.732	11.5
277.946	10.32
278.161	9.98
278.375	8.69
278.59	10.16
278.804	8.82
279.019	9.09
279.233	11.38
279.448	10.23
279.662	11.87
279.877	11.86
280.091	12.1
280.306	12.24
280.52	12.07
280.735	11.13
280.949	10.6
281.163	10.12
281.378	10.59
281.592	11.67
281.806	10.64
282.021	10.77
282.235	10.69
282.449	10.92
282.664	11.76
282.878	11.26
283.092	12.57
283.307	12.15
283.521	12.68
283.735	12.47
283.949	10.51
284.164	11.16
284.378	10.53
284.592	10.15
284.806	10.44
285.02	9.76
285.234	10.35
285.449	9.77
285.663	9.13
285.877	9.56
286.091	9.57
286.305	9.63
286.519	8.95
286.733	8.58
286.947	9.73
287.161	9.67
287.375	9.77
287.589	10.26
287.803	11.38
288.017	12.3
288.231	12.75
288.445	12.44
288.659	13.04
288.873	14.96
289.087	14.55
289.301	13.33
289.515	13.6
289.729	15.11
289.943	15.35
290.157	15.26
290.371	15.5
290.584	15.48
290.798	15.36
291.012	14.85
291.226	14.99
291.44	15.53
291.654	15.73
291.867	15.19
292.081	14.86
292.295	14.71
292.509	14.7
292.722	12.35
292.936	11.76
293.15	12.98
293.364	15.6
293.577	14.28
293.791	14.72
294.005	15.47
294.218	14.15
294.432	11.93
294.645	10.9
294.859	11.2
295.073	11.91
295.286	12.99
295.5	12.5
295.713	11.3
295.927	11.84
296.14	11.06
296.354	11.46
296.568	11.76
296.781	14.14
296.994	13.69
297.208	13.75
297.421	14.66
297.635	13.45
297.848	13.81
298.062	13.24
298.275	12.08
298.489	12.18
298.702	13.04
298.915	13.52
299.129	12.76
299.342	13.57
299.555	14.21
299.769	15.27
299.982	16.88
300.195	17.03
300.409	18.02
300.622	19.39
300.835	20.35
301.048	19.45
301.262	19.96
301.475	18.85
301.688	20.01
301.901	19.95
302.115	19.32
302.328	17.53
302.541	18.02
302.754	17.92
302.967	18.62
303.18	17.94
303.393	16.21
303.607	17.25
303.82	16.74
304.033	14.62
304.246	15.29
304.459	13.76
304.672	13.33
304.885	12.36
305.098	11.98
305.311	11.22
305.524	11.96
305.737	13.21
305.95	13.1
306.163	12.8
306.376	14.26
306.589	11.94
306.802	12.22
307.015	13.48
307.228	13.3
307.44	14.24
307.653	15.37
307.866	15.5
308.079	16.98
308.292	15.5
308.505	17.24
308.718	16.72
308.93	16.94
309.143	17.47
309.356	16.33
309.569	17.35
309.781	18.22
309.994	16.55
310.207	16.88
310.42	15.39
310.632	15.58
310.845	14.31
311.058	14.85
311.27	14.57
311.483	14.41
311.696	14.98
311.908	15.47
312.121	13.81
312.333	15.48
312.546	15.02
312.759	16.29
312.971	16.19
313.184	16.12
313.396	14.86
313.609	15.72
313.821	15.78
314.034	16.78
314.246	16.66
314.459	17.35
314.671	16.96
314.884	15.82
315.096	14.8
315.309	15.19
315.521	17.12
315.733	18.53
315.946	18.36
316.158	18.53
316.371	18.18
316.583	17.54
316.795	16.97
317.008	17.1
317.22	18.33
317.432	19.11
317.644	19.79
317.857	19.78
318.069	19.9
318.281	20.87
318.494	20.17
318.706	21.32
318.918	21.21
319.13	20.81
319.342	21.27
319.555	20.87
319.767	22.61
319.979	22.3
320.191	21.03
320.403	21.39
320.615	21.82
320.827	23.86
321.039	23.83
321.252	24.56
321.464	26.53
321.676	23.92
321.888	24.04
322.1	22.66
322.312	21.15
322.524	21.01
322.736	19.2
322.948	20.19
323.16	20.47
323.372	19.86
323.584	19.94
323.796	19.66
324.007	20.25
324.219	20.26
324.431	19.63
324.643	20.09
324.855	20.28
325.067	22.13
325.279	21.47
325.491	20.48
325.702	20.1
325.914	19.48
326.126	18.62
326.338	19.32
326.55	19.5
326.761	19.8
326.973	21.71
327.185	23.65
327.396	23.75
327.608	22.75
327.82	23.63
328.032	24.71
328.243	25.01
328.455	26.12
328.666	26.29
328.878	26.29
329.09	26.08
329.301	25.98
329.513	24.18
329.725	22.61
329.936	24.44
330.148	25.07
330.359	23.66
330.571	24.86
330.782	24.32
330.994	25.84
331.205	26.94
331.417	27.76
331.628	27.54
331.84	27.28
332.051	28.48
332.262	29.45
332.474	28.72
332.685	30.23
332.897	29.85
333.108	29.39
333.319	28.85
333.531	29.56
333.742	29.93
333.953	29.18
334.165	30.95
334.376	31.03
334.587	29.73
334.799	30.51
335.01	29.81
335.221	29.67
335.432	29.62
335.644	28.89
335.855	28.66
336.066	29.24
336.277	30.06
336.488	28.54
336.7	28.36
336.911	28.05
337.122	27.93
337.333	27.94
337.544	27.31
337.755	27.18
337.966	27.18
338.177	26.26
338.388	24.74
338.599	25.8
338.811	25.59
339.022	25.64
339.233	26.67
339.444	26.93
339.655	26.79
339.866	28.25
340.076	30.05
340.287	30.71
340.498	30.45
340.709	31.57
340.92	30.22
341.131	31.61
341.342	32.21
341.553	31.86
341.764	31.6
341.975	32.29
342.185	31.49
342.396	31.36
342.607	31.57
342.818	31.8
343.029	32.36
343.239	33.71
343.45	32.54
343.661	32.23
343.872	31.65
344.082	31.7
344.293	32.38
344.504	31.75
344.714	31.41
344.925	31.32
345.136	31.66
345.346	31.56
345.557	30.69
345.768	32.14
345.978	32.62
346.189	32.99
346.399	33.12
346.61	31.79
346.821	33.48
347.031	34.08
347.242	34.72
347.452	35.01
347.663	34.83
347.873	35.37
348.084	34.45
348.294	33.29
348.504	32.52
348.715	32.15
348.925	34.01
349.136	32.69
349.346	31.49
349.557	30.52
349.767	31.46
349.977	31.26
350.188	30.38
350.398	31.31
350.608	31.62
350.819	31.36
351.029	31.35
351.239	30.83
351.449	31.07
351.66	30.72
351.87	30.88
352.08	30.2
352.29	30.34
352.501	31.6
352.711	31.55
352.921	31.5
353.131	31.89
353.341	32.63
353.552	32.03
353.762	31.38
353.972	33.03
354.182	32.55
354.392	32.67
354.602	32.84
354.812	32.15
355.022	31.05
355.232	31.34
355.442	33.31
355.652	33.78
355.862	34.6
356.072	34.91
356.282	32.6
356.492	32.53
356.702	32.04
356.912	31.52
357.122	31.27
357.332	32.06
357.542	31.68
357.752	30.34
357.962	28.78
358.171	27.85
358.381	29.08
358.591	30.63
358.801	31.58
359.011	31.6
359.221	31.69
359.43	31.23
359.64	30.91
359.85	30.24
360.06	30.29
360.269	30.51
360.479	30.41
360.689	29.65
360.899	29.68
361.108	28.95
361.318	29.07
361.528	28.81
361.737	29.47
361.947	29.36
362.156	30.3
362.366	30.4
362.576	30.34
362.785	30.14
362.995	30.49
363.204	30.17
363.414	30.56
363.623	30.27
363.833	30.86
364.042	31
364.252	30.66
364.461	29.91
364.671	29.63
364.88	31.07
365.09	31.13
365.299	31.38
365.509	32.13
365.718	31.81
365.927	31.57
366.137	31.52
366.346	30.64
366.555	30.96
366.765	30.72
366.974	30.16
367.183	29.4
367.393	30.02
367.602	29.81
367.811	28.68
368.021	29.52
368.23	29.55
368.439	30.17
368.648	30.26
368.857	30.22
369.067	30.2
369.276	30.22
369.485	29.58
369.694	29.66
369.903	28.82
370.112	29.16
370.321	28.75
370.531	29.07
370.74	28.58
370.949	28.71
371.158	28.45
371.367	28.81
371.576	30.2
371.785	30.29
371.994	30.29
372.203	30.29
372.412	29.6
372.621	29.4
372.83	29.32
373.039	28.71
373.248	28.59
373.457	28.6
373.666	29.09
373.874	28.25
374.083	28.17
374.292	28.16
374.501	28.24
374.71	29.27
374.919	29.48
375.128	29.54
375.336	29.84
375.545	30.42
375.754	30.48
375.963	29.74
376.171	29.57
376.38	29.02
376.589	28.41
376.798	27.95
377.006	26.9
377.215	26.54
377.424	25.89
377.632	26.31
377.841	26.12
378.05	26.04
378.258	25.65
378.467	25.3
378.675	25.78
378.884	25.65
379.093	25.5
379.301	26.11
379.51	25.88
379.718	26.41
379.927	25.56
380.135	25.41
380.344	25.52
380.552	26.59
380.761	26.94
380.969	26.9
381.177	27.29
381.386	27.55
381.594	26.57
381.803	26.66
382.011	26.69
382.219	26.95
382.428	26.92
382.636	26.11
382.845	25.25
383.053	25.12
383.261	24.72
383.469	24.22
383.678	24.71
383.886	25.54
384.094	26
384.302	25.74
384.511	25.76
384.719	25.61
384.927	25.53
385.135	25.56
385.343	25.51
385.552	26
385.76	26.45
385.968	26.14
386.176	26.09
386.384	25.6
386.592	25.31
386.8	25.05
387.008	24.71
387.216	24.94
387.424	25.13
387.633	24.51
387.841	24.21
388.049	23.76
388.257	23.8
388.465	23.42
388.672	22.92
388.88	23.52
389.088	23.48
389.296	23.39
389.504	23.32
389.712	22.87
389.92	23.08
390.128	23.24
390.336	23.4
390.544	22.93
390.751	22.8
390.959	22.86
391.167	22.65
391.375	22.57
391.583	22.58
391.79	22.47
391.998	22.68
392.206	22.77
392.414	22.35
392.621	21.98
392.829	22.18
393.037	22.61
393.244	22.9
393.452	22.43
393.66	22.54
393.867	22.54
394.075	22.59
394.283	22.71
394.49	22.94
394.698	23.25
394.905	23.42
395.113	23.3
395.32	22.88
395.528	22.72
395.735	22.94
395.943	22.87
396.15	22.96
396.358	22.98
396.565	22.67
396.773	22.45
396.98	22.35
397.188	22.3
397.395	22.21
397.602	22.39
397.81	22.38
398.017	22.45
398.225	22.36
398.432	22.64
398.639	22.72
398.847	23.19
399.054	22.84
399.261	22.78
399.468	22.65
399.676	22.68
399.883	22.26
400.09	22.36
400.297	22.48
400.505	22.51
400.712	22.13
400.919	22.24
401.126	22.23
401.333	22.36
401.54	22.61
401.748	22.79
401.955	22.96
402.162	23.79
402.369	23.57
402.576	23.58
402.783	23.52
402.99	23.76
403.197	23.67
403.404	23.55
403.611	23.84
403.818	23.78
404.025	23.64
404.232	23.62
404.439	23.43
404.646	23.48
404.853	23.52
405.06	23.9
405.267	23.75
405.474	23.79
405.681	23.66
405.887	23.83
406.094	23.92
406.301	24.15
406.508	24.05
406.715	23.89
406.922	24.07
407.128	23.89
407.335	23.51
407.542	23.61
407.749	23.46
407.955	23.63
408.162	23.28
408.369	23.11
408.575	23.11
408.782	23.3
408.989	23.36
409.195	23.23
409.402	23.21
409.609	23.14
409.815	22.84
410.022	23.15
410.228	23.37
410.435	23.34
410.642	23.27
410.848	23.39
411.055	23.76
411.261	23.73
411.468	23.84
411.674	23.83
411.881	23.86
412.087	23.94
412.294	23.67
412.5	23.59
412.706	23.91
412.913	23.81
413.119	23.48
413.326	22.9
413.532	22.86
413.738	22.78
413.945	22.86
414.151	23.19
414.357	23.12
414.564	23.1
414.77	22.71
414.976	22.68
415.182	22.6
415.389	22.85
415.595	22.92
415.801	22.7
416.007	22.6
416.214	22.37
416.42	22.07
416.626	22.24
416.832	22.33
417.038	22.23
417.244	22.07
417.45	22.26
417.657	22.03
417.863	22.1
418.069	22.39
418.275	22.35
418.481	22.34
418.687	22.32
418.893	22.15
419.099	21.98
419.305	21.88
419.511	21.85
419.717	21.7
419.923	21.88
420.129	21.63
420.335	21.53
420.541	21.42
420.746	21.5
420.952	21.51
421.158	21.56
421.364	21.63
421.57	21.6
421.776	21.57
421.982	21.69
422.187	21.53
422.393	21.65
422.599	21.51
422.805	21.57
423.01	21.57
423.216	21.54
423.422	21.5
423.628	21.59
423.833	21.61
424.039	21.69
424.245	21.6
424.45	21.56
424.656	21.55
424.862	21.72
425.067	21.82
425.273	21.74
425.478	21.85
425.684	21.97
425.889	21.78
426.095	21.77
426.301	21.64
426.506	21.69
426.712	21.89
426.917	21.92
427.123	21.63
427.328	21.71
427.533	21.77
427.739	21.68
427.944	21.5
428.15	21.45
428.355	21.48
428.561	21.41
428.766	21.33
428.971	21.26
429.177	21.33
429.382	21.41
429.587	21.14
429.793	21.11
429.998	21.05
430.203	20.97
430.408	20.92
430.614	21.13
430.819	21.2
431.024	21.18
431.229	21.16
431.434	21.03
431.64	21.19
431.845	21.12
432.05	21.3
432.255	21.1
432.46	21.19
432.665	21.37
432.87	21.33
433.076	21.37
433.281	21.41
433.486	21.17
433.691	21.33
433.896	21.37
434.101	21.4
434.306	21.26
434.511	21.55
434.716	21.5
434.921	21.52
435.126	21.6
435.331	21.63
435.535	21.54
435.74	21.74
435.945	21.7
436.15	21.66
436.355	21.65
436.56	21.66
436.765	21.66
436.97	21.78
437.174	21.74
437.379	21.85
437.584	21.76
437.789	21.77
437.993	21.86
438.198	21.83
438.403	21.7
438.608	21.76
438.812	21.68
439.017	21.47
439.222	21.41
439.426	21.38
439.631	21.17
439.836	21.14
440.04	20.93
440.245	21.04
440.45	20.82
440.654	20.74
440.859	20.75
441.063	20.78
441.268	20.85
441.472	20.86
441.677	20.97
441.881	20.92
442.086	20.85
442.29	21.05
442.495	20.68
442.699	20.82
442.904	21
443.108	21.11
443.312	21.17
443.517	21.09
443.721	20.93
443.925	20.75
444.13	20.83
444.334	20.72
444.538	20.64
444.743	20.81
444.947	20.81
445.151	20.62
445.356	20.42
445.56	20.48
445.764	20.48
445.968	20.58
446.173	20.43
446.377	20.45
446.581	20.44
446.785	20.36
446.989	20.21
447.193	20.18
447.398	20.2
447.602	20.17
447.806	20.12
448.01	20.2
448.214	20
448.418	20.1
448.622	20.07
448.826	20.25
449.03	20.29
449.234	20.33
449.438	20.17
449.642	20.23
449.846	20.07
450.05	19.96
450.254	19.75
450.458	19.85
450.662	19.89
450.866	19.71
451.069	19.73
451.273	19.66
451.477	19.68
451.681	19.76
451.885	19.62
452.089	19.9
452.292	19.75
452.496	20.04
452.7	20.16
452.904	20.06
453.107	19.94
453.311	19.65
453.515	19.75
453.719	19.72
453.922	19.84
454.126	20.05
454.33	20.02
454.533	20.13
454.737	19.79
454.94	19.78
455.144	19.95
455.348	20.06
455.551	20.29
455.755	20.33
455.958	20.32
456.162	20.28
456.365	20.05
456.569	19.84
456.772	19.82
456.976	20.03
457.179	19.94
457.383	19.78
457.586	19.87
457.79	19.86
457.993	19.89
458.196	19.86
458.4	19.94
458.603	20.04
458.807	20.04
459.01	20.22
459.213	20.18
459.417	20.22
459.62	20.27
459.823	20.28
460.026	20.19
460.23	20.07
460.433	20.17
460.636	20.1
460.839	20.08
461.042	20.3
461.246	20.15
461.449	20.13
461.652	20.06
461.855	20
462.058	20.11
462.261	20.3
462.464	20.56
462.668	20.49
462.871	20.52
463.074	20.73
463.277	20.62
463.48	20.7
463.683	20.71
463.886	20.72
464.089	20.89
464.292	20.82
464.495	20.6
464.698	20.4
464.901	20.48
465.104	20.52
465.306	20.36
465.509	20.33
465.712	20.36
465.915	20.39
466.118	20.34
466.321	20.52
466.524	20.36
466.726	20.32
466.929	20.54
467.132	20.46
467.335	20.33
467.538	20.19
467.74	20.26
467.943	20.11
468.146	20.16
468.348	20.4
468.551	20.12
468.754	20.31
468.956	20.46
469.159	20.36
469.362	20.54
469.564	20.85
469.767	21.02
469.969	21.02
470.172	21.26
470.375	21.34
470.577	21.35
470.78	21.36
470.982	21.2
471.185	21.46
471.387	21.35
471.59	21.4
471.792	21.31
471.995	21.31
472.197	21.29
472.399	21.2
472.602	21.12
472.804	21.14
473.007	21.01
473.209	21.12
473.411	20.94
473.614	20.91
473.816	20.94
474.018	20.8
474.22	20.85
474.423	20.84
474.625	20.93
474.827	20.85
475.03	20.82
475.232	21.09
475.434	21.09
475.636	21.19
475.838	21.15
476.04	21.21
476.243	21.27
476.445	21.37
476.647	21.39
476.849	21.28
477.051	21.28
477.253	21.21
477.455	21.26
477.657	21.25
477.859	21.19
478.061	21.45
478.263	21.33
478.465	21.25
478.667	21.05
478.869	21.09
479.071	21.13
479.273	21.07
479.475	21.02
479.677	20.89
479.879	20.82
480.081	20.63
480.283	20.54
480.485	20.57
480.686	20.69
480.888	20.77
481.09	20.7
481.292	20.59
481.494	20.7
481.695	20.59
481.897	20.66
482.099	20.73
482.301	20.86
482.502	20.78
482.704	20.73
482.906	20.69
483.107	20.61
483.309	20.65
483.511	20.66
483.712	20.57
483.914	20.61
484.115	20.55
484.317	20.49
484.519	20.47
484.72	20.5
484.922	20.45
485.123	20.42
485.325	20.43
485.526	20.4
485.728	20.41
485.929	20.44
486.131	20.39
486.332	20.43
486.534	20.42
486.735	20.35
486.936	20.32
487.138	20.31
487.339	20.29
487.541	20.29
487.742	20.22
487.943	20.16
488.144	20.23
488.346	20.32
488.547	20.32
488.748	20.31
488.95	20.31
489.151	20.29
489.352	20.32
489.553	20.33
489.755	20.42
489.956	20.6
490.157	20.7
490.358	20.63
490.559	20.56
490.76	20.5
490.961	20.55
491.163	20.61
491.364	20.6
491.565	20.59
491.766	20.71
491.967	20.7
492.168	20.61
492.369	20.67
492.57	20.66
492.771	20.61
492.972	20.72
493.173	20.73
493.374	20.8
493.575	20.9
493.776	21.15
493.976	21.07
494.177	21.11
494.378	21.1
494.579	21.12
494.78	21.28
494.981	21.42
495.182	21.34
495.382	21.51
495.583	21.49
495.784	21.38
495.985	21.25
496.185	21.29
496.386	21.29
496.587	21.45
496.788	21.33
496.988	21.27
497.189	21.34
497.39	21.29
497.59	21.23
497.791	21.19
497.992	21.16
498.192	21.08
498.393	21.08
498.593	21.04
498.794	21.08
498.994	21.18
499.195	21.17
499.395	21.18
499.596	21.32
499.796	21.4
499.997	21.55
500.197	21.77
500.398	21.79
500.598	21.82
500.799	21.92
500.999	21.74
501.199	21.53
501.4	21.63
501.6	21.63
501.801	21.62
502.001	21.62
502.201	21.53
502.402	21.43
502.602	21.56
502.802	21.58
503.002	21.59
503.203	21.72
503.403	21.93
503.603	21.95
503.803	22.07
504.003	22.09
504.204	21.94
504.404	22.17
504.604	22.36
504.804	22.29
505.004	22.27
505.204	22.48
505.404	22.37
505.604	22.43
505.804	22.46
506.005	22.51
506.205	22.57
506.405	22.89
506.605	22.74
506.805	22.89
507.005	22.98
507.204	23.02
507.404	22.82
507.604	22.85
507.804	22.95
508.004	23.06
508.204	23.02
508.404	23.01
508.604	22.85
508.804	22.97
509.003	22.82
509.203	22.83
509.403	22.76
509.603	22.87
509.803	23.12
510.002	23.18
510.202	23.21
510.402	23.21
510.602	23.17
510.801	23.27
511.001	23.34
511.201	23.48
511.4	23.45
511.6	23.62
511.8	23.7
511.999	23.73
512.199	23.59
512.398	23.57
512.598	23.61
512.797	23.85
512.997	23.89
513.197	23.98
513.396	23.81
513.596	24.08
513.795	24.11
513.994	24.09
514.194	23.99
514.393	24.24
514.593	24.31
514.792	24.33
514.992	24.25
515.191	24.2
515.39	24.26
515.59	24.38
515.789	24.27
515.988	24.45
516.188	24.53
516.387	24.53
516.586	24.42
516.786	24.38
516.985	24.37
517.184	24.48
517.383	24.74
517.582	24.69
517.782	24.64
517.981	24.72
518.18	24.66
518.379	24.72
518.578	24.85
518.777	24.82
518.976	24.84
519.176	24.83
519.375	24.84
519.574	24.71
519.773	24.72
519.972	24.82
520.171	24.9
520.37	24.86
520.569	24.76
520.768	24.84
520.967	25.16
521.166	25.27
521.365	25.51
521.564	25.68
521.762	25.81
521.961	26.02
522.16	26.05
522.359	26.11
522.558	26.23
522.757	26.3
522.956	26.36
523.154	26.1
523.353	26.13
523.552	26.1
523.751	26.07
523.949	26.07
524.148	25.88
524.347	26.01
524.546	25.85
524.744	25.7
524.943	25.7
525.142	25.47
525.34	25.47
525.539	25.52
525.737	25.47
525.936	25.5
526.135	25.43
526.333	25.42
526.532	25.36
526.73	25.45
526.929	25.59
527.127	25.58
527.326	25.6
527.524	25.68
527.723	25.7
527.921	25.67
528.12	25.64
528.318	25.67
528.516	25.72
528.715	25.74
528.913	25.77
529.112	25.77
529.31	25.85
529.508	25.93
529.707	25.9
529.905	25.85
530.103	25.89
530.301	25.99
530.5	26.05
530.698	26.05
530.896	26.13
531.094	26.11
531.293	26.17
531.491	26.12
531.689	26.26
531.887	26.37
532.085	26.41
532.283	26.48
532.481	26.32
532.68	26.28
532.878	26.33
533.076	26.24
533.274	26.36
533.472	26.33
533.67	26.46
533.868	26.44
534.066	26.39
534.264	26.43
534.462	26.42
534.66	26.56
534.858	26.68
535.056	26.72
535.253	26.76
535.451	26.69
535.649	26.68
535.847	26.59
536.045	26.65
536.243	26.77
536.441	26.74
536.638	26.72
536.836	26.58
537.034	26.56
537.232	26.54
537.43	26.59
537.627	26.62
537.825	26.67
538.023	26.71
538.22	26.64
538.418	26.7
538.616	26.87
538.813	26.92
539.011	27.06
539.209	27.01
539.406	27.03
539.604	27.14
539.801	27.05
539.999	27.06
540.196	26.91
540.394	26.95
540.591	26.94
540.789	26.87
540.986	26.89
541.184	26.85
541.381	26.95
541.579	27.03
541.776	26.99
541.974	27.09
542.171	27.16
542.368	27.32
542.566	27.29
542.763	27.3
542.96	27.41
543.158	27.47
543.355	27.6
543.552	27.68
543.75	27.74
543.947	27.77
544.144	27.83
544.341	27.85
544.539	27.89
544.736	28
544.933	28.08
545.13	28.09
545.327	28.25
545.524	28.39
545.722	28.26
545.919	28.34
546.116	28.47
546.313	28.59
546.51	28.5
546.707	28.52
546.904	28.49
547.101	28.36
547.298	28.16
547.495	28.09
547.692	27.91
547.889	28.01
548.086	27.94
548.283	28
548.48	27.84
548.677	27.95
548.874	28.06
549.07	28.18
549.267	28.25
549.464	28.62
549.661	28.52
549.858	28.57
550.055	28.45
550.251	28.27
550.448	28.12
550.645	27.95
550.842	27.9
551.038	27.8
551.235	27.92
551.432	27.89
551.628	27.83
551.825	27.78
552.022	27.74
552.218	27.97
552.415	28.02
552.612	28.28
552.808	28.35
553.005	28.14
553.201	28.01
553.398	27.78
553.594	27.76
553.791	27.85
553.987	28.14
554.184	28.23
554.38	28.04
554.577	28.08
554.773	28.01
554.97	28.01
555.166	28.47
555.362	28.62
555.559	28.74
555.755	28.92
555.952	28.85
556.148	28.75
556.344	28.76
556.541	28.88
556.737	28.9
556.933	28.74
557.129	28.79
557.326	28.7
557.522	28.5
557.718	28.71
557.914	28.53
558.11	28.37
558.307	28.45
558.503	28.53
558.699	28.45
558.895	28.51
559.091	28.59
559.287	28.75
559.483	28.75
559.679	28.81
559.876	28.57
560.072	28.94
560.268	28.98
560.464	28.96
560.66	28.8
560.856	28.81
561.052	28.7
561.247	28.68
561.443	28.5
561.639	28.42
561.835	28.37
562.031	28.36
562.227	28.11
562.423	28.12
562.619	28.06
562.815	28.2
563.01	28.04
563.206	28.05
563.402	28
563.598	28.06
563.793	28.17
563.989	28.29
564.185	28.34
564.381	28.41
564.576	28.51
564.772	28.48
564.968	28.3
565.163	28.41
565.359	28.49
565.555	28.38
565.75	28.36
565.946	28.33
566.141	28.27
566.337	28.18
566.532	28.1
566.728	28.07
566.923	28.16
567.119	28.41
567.314	28.61
567.51	28.5
567.705	28.49
567.901	28.5
568.096	28.6
568.292	28.52
568.487	28.68
568.682	28.77
568.878	28.79
569.073	28.75
569.268	28.6
569.464	28.56
569.659	28.73
569.854	28.66
570.05	28.66
570.245	28.53
570.44	28.8
570.635	28.76
570.831	28.66
571.026	28.61
571.221	28.55
571.416	28.41
571.611	28.33
571.806	28.25
572.002	28.43
572.197	28.4
572.392	28.6
572.587	28.56
572.782	28.46
572.977	28.33
573.172	28.3
573.367	28.32
573.562	28.66
573.757	28.71
573.952	28.78
574.147	28.83
574.342	28.94
574.537	28.86
574.732	28.92
574.927	29.02
575.121	29.25
575.316	29.37
575.511	29.33
575.706	29.32
575.901	29.24
576.096	29.19
576.29	29.04
576.485	29.15
576.68	29.18
576.875	29.26
577.069	29.22
577.264	29.43
577.459	29.17
577.654	29.2
577.848	29.12
578.043	29.28
578.238	29.23
578.432	29.33
578.627	29.15
578.821	29.16
579.016	29.08
579.21	29.09
579.405	29.05
579.6	29.45
579.794	29.78
579.989	29.85
580.183	29.73
580.378	30.02
580.572	30.32
580.766	30.61
580.961	30.84
581.155	30.82
581.35	31.21
581.544	31.14
581.738	30.9
581.933	30.69
582.127	30.65
582.321	30.82
582.516	30.69
582.71	30.78
582.904	30.56
583.099	30.09
583.293	30.23
583.487	30.37
583.681	30.52
583.875	30.58
584.07	30.66
584.264	30.58
584.458	30.69
584.652	30.64
584.846	30.25
585.04	30.22
585.234	30.5
585.428	30.54
585.623	29.98
585.817	29.71
586.011	29.98
586.205	29.89
586.399	29.99
586.593	29.63
586.787	29.88
586.981	30
587.174	30.14
587.368	29.98
587.562	29.9
587.756	29.96
587.95	29.98
588.144	29.77
588.338	29.94
588.532	29.85
588.725	30.19
588.919	30.22
589.113	30.18
589.307	30.14
589.501	30.36
589.694	30.43
589.888	30.45
590.082	30.57
590.275	30.57
590.469	30.42
590.663	30.4
590.856	30.11
591.05	30.13
591.244	30.34
591.437	30.57
591.631	30.48
591.824	30.37
592.018	30.52
592.212	30.49
592.405	30.49
592.599	30.6
592.792	30.48
592.986	30.79
593.179	30.58
593.372	30.62
593.566	30.48
593.759	30.48
593.953	30.9
594.146	30.92
594.339	30.96
594.533	31.16
594.726	31.11
594.92	31.42
595.113	31.3
595.306	31.37
595.499	31.26
595.693	31.23
595.886	31.22
596.079	31.03
596.272	30.92
596.466	30.95
596.659	30.98
596.852	31.16
597.045	31.17
597.238	31.25
597.431	31.12
597.624	31.11
597.818	31.22
598.011	31.29
598.204	31.1
598.397	31.11
598.59	31.1
598.783	31.04
598.976	30.77
599.169	30.8
599.362	30.51
599.555	30.68
599.748	30.79
599.941	30.55
600.134	30.27
600.326	30.23
600.519	30.45
600.712	30.34
600.905	30.38
601.098	30.51
601.291	30.41
601.483	30.69
601.676	30.72
601.869	30.61
602.062	30.42
602.255	30.65
602.447	31.05
602.64	30.86
602.833	30.98
603.025	30.9
603.218	30.8
603.411	30.64
603.603	30.6
603.796	30.59
603.989	30.47
604.181	30.59
604.374	30.67
604.566	30.53
604.759	30.78
604.951	30.8
605.144	30.86
605.336	30.78
605.529	31
605.721	30.92
605.914	31.17
606.106	31.35
606.299	31.53
606.491	31.68
606.683	31.51
606.876	31.36
607.068	31.34
607.26	31.22
607.453	31.46
607.645	31.49
607.837	31.54
608.03	31.27
608.222	31.52
608.414	31.5
608.606	31.6
608.799	31.89
608.991	32.01
609.183	32.1
609.375	32.62
609.567	32.99
609.759	33.22
609.952	33.6
610.144	33.78
610.336	33.9
610.528	34.15
610.72	34.29
610.912	34.23
611.104	34.68
611.296	34.76
611.488	34.63
611.68	34.25
611.872	34
612.064	33.87
612.256	33.94
612.448	33.71
612.64	33.63
612.832	33.54
613.023	33.65
613.215	33.03
613.407	33.26
613.599	33.05
613.791	33.15
613.983	33.02
614.174	32.9
614.366	33
614.558	32.92
614.75	33.17
614.941	32.86
615.133	32.87
615.325	33.06
615.516	32.79
615.708	32.91
615.9	32.83
616.091	32.92
616.283	32.87
616.475	32.42
616.666	32.55
616.858	32.18
617.049	32.32
617.241	32.25
617.432	32.13
617.624	32.28
617.815	32.11
618.007	32.12
618.198	32.24
618.39	32.15
618.581	32.26
618.773	32.15
618.964	31.94
619.155	31.95
619.347	31.75
619.538	31.83
619.729	31.57
619.921	31.58
620.112	31.62
620.303	31.36
620.494	31.29
620.686	31.39
620.877	31.49
621.068	31.98
621.259	31.89
621.451	32.02
621.642	32.1
621.833	32.53
622.024	32.39
622.215	32.49
622.406	32.53
622.597	32.78
622.788	32.68
622.98	32.58
623.171	32.36
623.362	32.57
623.553	32.63
623.744	32.12
623.935	31.7
624.126	32.16
624.317	31.78
624.508	31.82
624.698	31.74
624.889	31.89
625.08	31.9
625.271	31.81
625.462	31.42
625.653	31.23
625.844	31.5
626.034	31.69
626.225	31.46
626.416	31.47
626.607	31.24
626.798	31.43
626.988	31.49
627.179	31.58
627.37	31.47
627.56	31.86
627.751	31.94
627.942	32
628.132	32.02
628.323	32
628.514	32.08
628.704	32.61
628.895	32.62
629.085	32.51
629.276	32.33
629.466	32.57
629.657	32.12
629.847	32.34
630.038	32.14
630.228	32.02
630.419	31.87
630.609	31.92
630.8	31.52
630.99	31.31
631.181	31.1
631.371	31.46
631.561	31.4
631.752	31.51
631.942	31.19
632.132	31.49
632.323	31.47
632.513	31.75
632.703	31.67
632.893	31.74
633.084	31.77
633.274	31.61
633.464	31.25
633.654	31.22
633.844	31.55
634.034	31.72
634.225	31.6
634.415	31.6
634.605	31.16
634.795	31.3
634.985	31.15
635.175	31.25
635.365	31.68
635.555	31.7
635.745	31.91
635.935	31.64
636.125	31.41
636.315	31.65
636.505	31.25
636.695	31.58
636.885	31.86
637.075	31.99
637.265	32.01
637.455	31.97
637.644	31.85
637.834	31.78
638.024	31.79
638.214	32.46
638.404	32.15
638.593	32.85
638.783	32.76
638.973	32.8
639.163	32.83
639.352	32.79
639.542	32.71
639.732	33.16
639.921	32.98
640.111	32.85
640.301	32.05
640.49	32.21
640.68	32.09
640.87	32.22
641.059	32.08
641.249	32.4
641.438	32.19
641.628	32.34
641.817	32.24
642.007	32.68
642.196	32.84
642.386	33.3
642.575	33.49
642.764	33.49
642.954	33.49
643.143	33.41
643.333	33.28
643.522	33.46
643.711	33.5
643.901	33.22
644.09	32.87
644.279	32.98
644.469	32.25
644.658	31.83
644.847	31.41
645.036	31.35
645.226	31.19
645.415	31.36
645.604	31.17
645.793	30.99
645.982	30.65
646.171	30.42
646.361	30.16
646.55	30.75
646.739	30.4
646.928	30.26
647.117	30.23
647.306	30.27
647.495	30.28
647.684	30.63
647.873	30.89
648.062	31.22
648.251	31.47
648.44	31.62
648.629	31.72
648.818	32.03
649.007	32.68
649.196	32.73
649.384	32.95
649.573	33.13
649.762	33.05
649.951	32.53
650.14	32.64
650.328	32.96
650.517	32.77
650.706	32.53
650.895	32.25
651.083	31.77
651.272	32.01
651.461	32.19
651.65	31.71
651.838	31.59
652.027	31.69
652.216	31.65
652.404	31.25
652.593	31.7
652.781	31.74
652.97	31.83
653.158	31.97
653.347	31.16
653.535	31.18
653.724	31.11
653.912	30.88
654.101	31.07
654.289	30.92
654.478	31.32
654.666	31.01
654.855	31.53
655.043	31.78
655.231	31.76
655.42	31.74
655.608	31.15
655.796	31.64
655.985	31.87
656.173	31.77
656.361	31.99
656.55	31.24
656.738	31.28
656.926	31.26
657.114	31.21
657.302	31.18
657.491	31.73
657.679	31.71
657.867	31.25
658.055	31.01
658.243	31.12
658.431	30.98
658.619	31.14
658.807	31.24
658.996	31.03
659.184	30.84
659.372	30.78
659.56	30.79
659.748	30.96
659.936	31.18
660.124	31.4
660.311	31.21
660.499	31.45
660.687	32.12
660.875	32.06
661.063	31.99
661.251	32.14
661.439	32.23
661.627	32.31
661.814	32.57
662.002	32.56
662.19	33.16
662.378	33.56
662.565	33.46
662.753	32.73
662.941	32.6
663.129	32.72
663.316	32.91
663.504	32.75
663.692	32.81
663.879	32.42
664.067	32.37
664.254	31.45
664.442	31.91
664.63	32.1
664.817	32.76
665.005	32.79
665.192	32.82
665.38	32.95
665.567	33.03
665.755	33.36
665.942	33.77
666.13	34.23
666.317	34.45
666.504	33.62
666.692	33.3
666.879	32.82
667.067	33.34
667.254	33.35
667.441	33.23
667.629	33.46
667.816	33.15
668.003	33.08
668.19	32.47
668.378	32.73
668.565	32.7
668.752	32.67
668.939	32.33
669.127	31.92
669.314	31.56
669.501	31.48
669.688	31.71
669.875	32.17
670.062	32.21
670.249	32.24
670.436	32.09
670.623	32.7
670.81	33.04
670.997	33.53
671.184	33.71
671.371	33.95
671.558	34.27
671.745	33.96
671.932	32.86
672.119	32.52
672.306	33.01
672.493	33.16
672.68	32.88
672.867	32.87
673.054	32.97
673.24	32.82
673.427	33.09
673.614	33.34
673.801	33.55
673.988	34.17
674.174	34.47
674.361	33.57
674.548	33.14
674.734	33.11
674.921	32.63
675.108	32.19
675.294	32.04
675.481	31.29
675.668	30.7
675.854	31.05
676.041	31.01
676.227	30.54
676.414	31.08
676.601	31.46
676.787	31.93
676.974	31.99
677.16	31.91
677.347	32.11
677.533	33.16
677.719	33.22
677.906	33.03
678.092	33.51
678.279	33.48
678.465	33.47
678.651	33.06
678.838	32.21
679.024	32.18
679.21	32.18
679.397	32.15
679.583	31.4
679.769	31.17
679.955	30.9
680.142	30.51
680.328	30.7
680.514	30.5
680.7	30.88
680.886	31.23
681.073	31.52
681.259	31.63
681.445	31.18
681.631	31.4
681.817	31.3
682.003	31.35
682.189	31.3
682.375	31.38
682.561	31.21
682.747	31.03
682.933	30.77
683.119	30.57
683.305	30.77
683.491	31.07
683.677	30.93
683.863	31.15
684.049	31.18
684.235	31.07
684.42	31.24
684.606	31.53
684.792	31.91
684.978	32.22
685.164	31.77
685.349	31.72
685.535	31.5
685.721	31.02
685.907	30.96
686.092	31.28
686.278	31.31
686.464	30.76
686.649	31.16
686.835	30.91
687.021	30.55
687.206	30.94
687.392	31.04
687.577	31.51
687.763	31.75
687.948	32.3
688.134	32.37
688.319	32.36
688.505	32.86
688.69	32.7
688.876	32.98
689.061	33.52
689.247	33.67
689.432	33.23
689.618	33.29
689.803	33.9
689.988	34.34
690.174	33.94
690.359	34.04
690.544	33.34
690.73	33.57
690.915	33.56
691.1	32.54
691.285	32.62
691.471	33.14
691.656	32.78
691.841	32.3
692.026	32.03
692.211	32.17
692.396	32.15
692.582	32.6
692.767	31.99
692.952	31.53
693.137	32.39
693.322	32.37
693.507	31.98
693.692	31.81
693.877	32.17
694.062	31.42
694.247	30.53
694.432	30.43
694.617	30.63
694.802	30.6
694.987	30.72
695.172	30.98
695.357	30.81
695.541	30.74
695.726	31.18
695.911	31.19
696.096	31.63
696.281	32.36
696.466	32.42
696.65	32.64
696.835	32.19
697.02	32.28
697.204	32
697.389	31.92
697.574	32.01
697.759	31.78
697.943	31.45
698.128	31.66
698.312	31.65
698.497	31.56
698.682	31.77
698.866	32.47
699.051	32.3
699.235	32.44
699.42	32.32
699.604	32.45
699.789	32.36
699.973	32.76
700.158	32.67
700.342	32.75
700.527	33.25
700.711	32.25
700.895	31.49
701.08	31.29
701.264	30.85
701.448	31.26
701.633	31.94
701.817	32.45
702.001	32.33
702.186	31.66
702.37	31.64
702.554	31.06
702.738	31.78
702.923	32.22
703.107	32.01
703.291	31.85
703.475	31.28
703.659	30.26
703.843	30.63
704.027	30.39
704.212	31.18
704.396	31.61
704.58	32.29
704.764	32.28
704.948	32.91
705.132	33.64
705.316	34
705.5	34.49
705.684	34.92
705.868	34.75
706.052	35.1
706.235	35.6
706.419	35.29
706.603	34.75
706.787	35.16
706.971	34.62
707.155	34.5
707.339	34.49
707.522	34.24
707.706	33.78
707.89	33.46
708.074	33.74
708.257	33.14
708.441	33.43
708.625	32.52
708.808	32.14
708.992	32.79
709.176	32.29
709.359	32.25
709.543	32.13
709.727	32.25
709.91	32.64
710.094	32.71
710.277	32.35
710.461	32.16
710.644	32.91
710.828	32.83
711.011	32.72
711.195	33.06
711.378	33.5
711.562	33.21
711.745	33.64
711.928	32.61
712.112	32.49
712.295	32.7
712.478	32.56
712.662	32.41
712.845	31.85
713.028	31.6
713.212	31.47
713.395	31.68
713.578	31.93
713.761	31.51
713.945	32.46
714.128	32.44
714.311	31.99
714.494	31.49
714.677	31.9
714.86	32.53
715.043	32.41
715.227	32.81
715.41	31.52
715.593	32.31
715.776	32.77
715.959	32.34
716.142	31.3
716.325	31.68
716.508	32.21
716.691	31.68
716.874	31.75
717.057	31.87
717.239	31.29
717.422	31.48
717.605	31
717.788	30.62
717.971	30.67
718.154	31.57
718.337	31.4
718.519	31.46
718.702	32.03
718.885	31.85
719.068	31.32
719.25	32.53
719.433	33.56
719.616	33.45
719.798	33.54
719.981	33.84
720.164	33.67
720.346	34.77
720.529	34.39
720.712	34.56
720.894	34.55
721.077	35.09
721.259	33.74
721.442	33.71
721.624	32.7
721.807	32.52
721.989	32.32
722.172	32.44
722.354	31.87
722.537	32.12
722.719	32.05
722.901	32.43
723.084	32.11
723.266	31.81
723.448	31.11
723.631	32.89
723.813	33.32
723.995	33.25
724.178	33.24
724.36	33
724.542	33.51
724.724	33.27
724.907	33.06
725.089	34
725.271	34.28
725.453	34.22
725.635	33.22
725.817	32.06
725.999	32.72
726.181	32.69
726.364	31.56
726.546	30.71
726.728	30.63
726.91	30.93
727.092	30.31
727.274	31.86
727.456	32.1
727.638	33.42
727.819	34.16
728.001	33.1
728.183	32.84
728.365	33.11
728.547	32.65
728.729	33.47
728.911	33.88
729.093	33.81
729.274	32.79
729.456	32.53
729.638	31.09
729.82	32.26
730.001	31.86
730.183	31.87
730.365	32.61
730.546	33.4
730.728	32.06
730.91	31.69
731.091	31.56
731.273	31.91
731.455	31.84
731.636	33.2
731.818	31.99
731.999	33.33
732.181	34.01
732.362	34.23
732.544	34.36
732.725	35.27
732.907	35.03
733.088	36.64
733.27	36.39
733.451	36.85
733.633	35.35
733.814	35.63
733.995	34.7
734.177	33.98
734.358	34.1
734.539	34.19
734.721	33.69
734.902	34.06
735.083	32.99
735.264	33.73
735.446	33.84
735.627	34.34
735.808	34.62
735.989	35.42
736.17	35.2
736.351	34.82
736.533	34.84
736.714	35.31
736.895	34.79
737.076	34.73
737.257	34.28
737.438	33.98
737.619	34.66
737.8	34.51
737.981	34.06
738.162	34.03
738.343	33.65
738.524	32.75
738.705	32.71
738.886	32.32
739.067	31.45
739.247	31.56
739.428	31.65
739.609	31.16
739.79	29.96
739.971	29.81
740.151	30
740.332	29.44
740.513	30.2
740.694	29.45
740.874	30.33
741.055	31.09
741.236	31.06
741.417	31.68
741.597	31.35
741.778	32.66
741.958	32.97
742.139	33.95
742.32	34.81
742.5	35.01
742.681	36.14
742.861	35.56
743.042	35.73
743.222	34.07
743.403	33.94
743.583	35.45
743.764	35.45
743.944	34.94
744.124	34.48
744.305	34.09
744.485	33.99
744.666	33.46
744.846	34.33
745.026	35.47
745.207	37.38
745.387	37.31
745.567	36.7
745.747	36.31
745.928	35.53
746.108	36.07
746.288	35.97
746.468	36.83
746.648	36.96
746.829	36.89
747.009	33.92
747.189	33.46
747.369	34.62
747.549	35.35
747.729	36.04
747.909	37.93
748.089	36.23
748.269	36.75
748.449	36.05
748.629	35.83
748.809	35.77
748.989	36.98
749.169	37.1
749.349	36.78
749.529	36.01
749.709	36.2
749.889	34.44
750.068	35.33
750.248	35.7
750.428	35.69
750.608	35.76
750.788	35.71
750.967	35.81
751.147	35.7
751.327	34.49
751.507	33.53
751.686	32.93
751.866	33.3
752.046	33.41
752.225	32.83
752.405	32.33
752.585	32.05
752.764	31.2
752.944	30
753.123	30.04
753.303	30.9
753.482	31.02
753.662	30.57
753.841	31.68
754.021	31.6
754.2	32.75
754.38	33.47
754.559	33.53
754.739	33.47
754.918	35.39
755.097	34.46
755.277	33.48
755.456	34.79
755.635	35.08
755.815	34.32
755.994	32.99
756.173	31.13
756.352	31.67
756.532	31.93
756.711	33.1
756.89	32.87
757.069	34.02
757.248	34.2
757.427	34.07
757.607	34.66
757.786	34.43
757.965	34.95
758.144	37.36
758.323	35.16
758.502	35.61
758.681	35.26
758.86	34.82
759.039	34.88
759.218	35.16
759.397	34.01
759.576	32.59
759.755	32.45
759.934	33.21
760.113	31.31
760.291	32.31
760.47	32.08
760.649	32.37
760.828	32.49
761.007	31.82
761.186	31.45
761.364	32.2
761.543	32.38
761.722	33.4
761.901	32.45
762.079	32.17
762.258	31.95
762.437	30.99
762.615	31.82
762.794	32.25
762.972	32.39
763.151	32.22
763.33	32.81
763.508	32.69
763.687	32.23
763.865	33.03
764.044	32.87
764.222	32.91
764.401	33.55
764.579	32.4
764.758	31.4
764.936	31.53
765.114	31.72
765.293	31.02
765.471	30.96
765.65	30.31
765.828	29.54
766.006	29.58
766.184	29.5
766.363	28.78
766.541	28.91
766.719	27.82
766.898	28.63
767.076	28.07
767.254	28.68
767.432	29.52
767.61	30.61
767.788	31.44
767.967	31.79
768.145	32.25
768.323	33.44
768.501	33.96
768.679	35.24
768.857	34.37
769.035	34.93
769.213	34.34
769.391	32.82
769.569	33
769.747	32.17
769.925	31.93
770.103	30.82
770.281	28.76
770.459	29.38
770.636	30.59
770.814	29.89
770.992	31.38
771.17	31.18
771.348	33.19
771.525	32.08
771.703	32.07
771.881	33.12
772.059	33.71
772.236	34.89
772.414	33.07
772.592	31.89
772.769	35.32
772.947	34.51
773.125	33.86
773.302	33.25
773.48	34.26
773.657	34.38
773.835	35.1
774.013	33.83
774.19	36.21
774.368	38.34
774.545	39.47
774.723	35.03
774.9	36.17
775.077	35.8
775.255	36.2
775.432	35.5
775.61	36.15
775.787	35.32
775.964	39.08
776.142	36.73
776.319	36.88
776.496	36.61
776.674	39.02
776.851	34.17
777.028	35.62
777.205	35.29
777.382	36.38
777.56	36.73
777.737	37.05
777.914	35.38
778.091	36.79
778.268	34.62
778.445	35.06
778.622	31.6
778.8	34.36
778.977	34.39
779.154	34.11
779.331	33.49
779.508	33.4
779.685	33.79
779.862	34.4
780.038	33.98
780.215	33.99
780.392	33.59
780.569	37.82
780.746	38.72
780.923	38.12
781.1	38.44
781.277	41.27
781.453	42.46
781.63	41.51
781.807	41.03
781.984	40.22
782.16	41.4
782.337	40.49
782.514	39.58
782.691	36.96
782.867	37.64
783.044	39.7
783.221	39.15
783.397	41.35
783.574	41.16
783.75	41.2
783.927	40.8
784.103	42.18
784.28	43.59
784.456	39.51
784.633	40.96
784.809	40
784.986	38.98
785.162	36.16
785.339	30.91
785.515	28.79
785.692	25.81
785.868	28.25
786.044	26.44
786.221	25.21
786.397	28.71
786.573	32.14
786.749	34.6
786.926	32.05
787.102	32.84
787.278	33.21
787.454	33.76
787.631	34.55
787.807	31.69
787.983	29.87
788.159	29.31
788.335	27.1
788.511	23.6
788.687	22.31
788.863	23.87
789.039	23.6
789.216	23.29
789.392	24.27
789.568	24.95
789.744	25.34
789.919	27.56
790.095	28.17
790.271	29.79
790.447	32.87
790.623	31.93
790.799	29.75
790.975	29.34
791.151	32.11
791.327	31.64
791.502	33.96
791.678	36.02
791.854	34.9
792.03	33.41
792.205	34.47
792.381	29.28
792.557	30.94
792.733	35.54
792.908	36.64
793.084	34.51
793.259	34.4
793.435	32.91
793.611	32.09
793.786	33.04
793.962	34.58
794.137	32.34
794.313	37.35
794.488	37.91
794.664	37.08
794.839	37.02
795.015	37.29
795.19	36.41
795.366	39.03
795.541	39.8
795.716	36.79
795.892	37.54
796.067	39.47
796.242	37.16
796.418	35.74
796.593	36.59
796.768	37.23
796.944	37.22
797.119	36.91
797.294	34.33
797.469	36.29
797.644	38.97
797.82	38.4
797.995	38.33
798.17	40.19
798.345	41.6
798.52	38.75
798.695	39.87
798.87	42.6
799.045	41.31
799.22	42.03
799.395	37.6
799.57	36.74
799.745	37.9
799.92	37.19
800.095	35.84
800.27	36.13
800.445	38.79
800.62	36.52
800.795	35.47
800.97	39.57
801.145	37.74
801.319	40.27
801.494	42.93
801.669	43.93
801.844	46.68
802.018	45.28
802.193	44.4
802.368	42.49
802.543	42.9
802.717	45.16
802.892	41.33
803.067	43.47
803.241	42.23
803.416	39.24
803.59	36.57
803.765	33.35
803.94	30.82
804.114	29.49
804.289	30.99
804.463	30.8
804.638	29
804.812	31.71
804.986	25.37
805.161	24.78
805.335	25.47
805.51	29.31
805.684	28.91
805.858	31.88
806.033	31.32
806.207	29.05
806.381	31.43
806.556	31.37
806.73	30.59
806.904	33.59
807.078	33.65
807.253	33.95
807.427	31.94
807.601	31.34
807.775	28.79
807.949	30.7
808.123	31.55
808.298	32.23
808.472	34.16
808.646	37.12
808.82	36.56
808.994	34.83
809.168	37.58
809.342	35.39
809.516	36.83
809.69	38.9
809.864	41.5
810.038	41.64
810.212	38.51
810.385	31.55
810.559	31.09
810.733	31.83
810.907	34.53
811.081	30.65
811.255	32.68
811.428	33.82
811.602	37.44
811.776	37
811.95	36.17
812.123	37.47
812.297	42.12
812.471	39.74
812.644	41.13
812.818	40.92
812.992	39.91
813.165	39.09
813.339	38.86
813.512	35.02
813.686	32.17
813.86	32.28
814.033	30.6
814.207	31.05
814.38	31.3
814.554	34.61
814.727	36.32
814.9	41.59
815.074	41.93
815.247	41.12
815.421	45.34
815.594	45.31
815.767	47.19
815.941	47.47
816.114	47.91
816.287	49.37
816.46	44.76
816.634	42.16
816.807	38.69
816.98	37.54
817.153	39.73
817.327	34.03
817.5	38.32
817.673	38.67
817.846	38
818.019	39.81
818.192	39.05
818.365	37.25
818.538	36.4
818.711	39.07
818.884	39.31
819.057	38.47
819.23	39.13
819.403	37.17
819.576	36.09
819.749	36.7
819.922	33.73
820.095	33.42
820.268	38.16
820.441	41.03
820.614	36.38
820.786	36.21
820.959	34.95
821.132	35.21
821.305	33.31
821.477	34.71
821.65	34.18
821.823	34.06
821.996	34.02
822.168	32.9
822.341	32.48
822.514	32.82
822.686	32.5
822.859	32.23
823.031	32.16
823.204	32.64
823.376	31.1
823.549	30.58
823.722	29.71
823.894	29.24
824.067	29.33
824.239	28.92
824.411	28.67
824.584	28.91
824.756	28.73
824.929	28.05
825.101	28.31
825.273	28.7
825.446	29.49
825.618	31.43
825.79	31.63
825.963	31.61
826.135	32.17
826.307	33.37
826.479	32.22
826.652	31.63
826.824	32.81
826.996	32.54
827.168	32.26
827.34	32.09
827.512	30.85
827.684	32.45
827.856	32.21
828.029	30.71
828.201	30.12
828.373	30.47
828.545	30.97
828.717	29.98
828.889	30.77
829.061	31.87
829.232	32.98
829.404	31.95
829.576	29.42
829.748	29.61
829.92	33.06
830.092	35.03
830.264	37.16
830.436	39.9
830.607	41.98
830.779	41.19
830.951	43.71
831.123	43.08
831.294	46.47
831.466	48.34
831.638	49.52
831.809	46.88
831.981	44.87
832.153	45.35
832.324	45.3
832.496	45.19
832.667	46
832.839	46.15
833.011	46.01
833.182	41.46
833.354	39.44
833.525	38.24
833.697	39.35
833.868	39.42
834.039	39.31
834.211	36.71
834.382	35.77
834.554	35.51
834.725	35.35
834.896	32.8
835.068	36.55
835.239	35.41
835.41	36.32
835.581	35.89
835.753	35.53
835.924	35.58
836.095	37.21
836.266	34.26
836.438	34.84
836.609	32.35
836.78	33.94
836.951	33.62
837.122	35.54
837.293	33.07
837.464	33.63
837.635	36.14
837.806	34.4
837.977	33.79
838.148	40.4
838.319	40.72
838.49	45.84
838.661	48.96
838.832	44.35
839.003	46.22
839.174	54.8
839.345	53
839.516	52.28
839.687	57.68
839.857	59.81
840.028	56.46
840.199	52.06
840.37	42.42
840.54	43.79
840.711	46.57
840.882	42.79
841.053	38.06
841.223	40.93
841.394	38.97
841.564	36.58
841.735	37.46
841.906	36.28
842.076	39.27
842.247	46.62
842.417	46.83
842.588	45.6
842.758	48.91
842.929	45.06
843.099	43.52
843.27	41.79
843.44	44.03
843.611	42.52
843.781	38.53
843.951	39.06
844.122	39.18
844.292	36.07
844.462	47.81
844.633	53
844.803	50.06
844.973	48.28
845.144	47.9
845.314	42.9
845.484	42.8
845.654	58.54
845.824	52.7
845.995	42.76
846.165	50.41
846.335	39.71
846.505	43.09
846.675	60.21
846.845	67.12
847.015	84.6
847.185	90.98
847.355	86.79
847.525	78.52
847.695	70.4
847.865	72.68
848.035	64.54
848.205	58.1
848.375	64.79
848.545	56.96
848.715	56.68
848.884	59.51
849.054	55.23
849.224	55.56
849.394	62.96
849.564	67.29
849.733	80.38
849.903	79.71
850.073	105.06
850.243	89.02
850.412	93.49
850.582	94.06
850.752	72.7
850.921	70.83
851.091	68.39
851.26	48.74
851.43	59.17
851.599	54.99
851.769	50.65
851.939	34.1
852.108	30.6
852.278	30.59
852.447	22.74
852.616	25.94
852.786	35.27
852.955	39.7
853.125	41.2
853.294	51.64
853.463	54.91
853.633	61.16
853.802	67.59
853.971	84.91
854.141	78.48
854.31	87.01
854.479	99.1
854.648	82.65
854.818	76.18
854.987	80.81
855.156	71.05
855.325	61.66
855.494	57.7
855.663	53.43
855.832	44.18
856.001	50.26
856.171	56.6
856.34	53.66
856.509	60.48
856.678	59.54
856.847	48.65
857.016	45.54
857.185	51.79
857.353	43.59
857.522	42.51
857.691	44.08
857.86	35.61
858.029	23.09
858.198	17.51
858.367	23.07
858.535	29.06
858.704	43.95
858.873	68.4
859.042	62.45
859.21	82.83
859.379	98.34
859.548	104.89
859.717	98.66
859.885	97.83
860.054	93.11
860.222	91.45
860.391	80.94
860.56	88.27
860.728	70.09
860.897	81.7
861.065	74.6
861.234	72.71
861.402	61.44
861.571	66.47
861.739	71.27
861.908	66.83
862.076	67.77
862.244	77.67
862.413	67.99
862.581	70.43
862.749	63.58
862.918	65.88
863.086	74.34
863.254	79.93
863.423	85.53
863.591	83.55
863.759	100.88
863.927	100.33
864.096	95.97
864.264	85.37
864.432	73.12
864.6	72.59
864.768	76.13
864.936	64.06
865.104	70.08
865.272	71.78
865.44	83.92
865.608	63.67
865.776	57.2
865.944	66.53
866.112	79.99
866.28	91.21
866.448	86.95
866.616	80.93
866.784	76.03
866.952	53.96
867.12	29.05
867.288	20.16
867.455	25.18
867.623	35.66
867.791	19.93
867.959	23.53
868.127	29.24
868.294	44.41
868.462	46.97
868.63	51.68
868.797	51.24
868.965	67.13
869.133	68.25
869.3	72.27
869.468	63.72
869.636	80.58
869.803	87.65
869.971	89.59
870.138	112.05
870.306	116.38
870.473	119.75
870.641	114.37
870.808	109.23
870.975	118.05
871.143	117.74
871.31	130.86
871.478	118.75
871.645	112.48
871.812	125.08
871.98	94.46
872.147	91.1
872.314	75.48
872.482	73.51
872.649	59.91
872.816	39.75
872.983	27.11
873.15	28.39
873.318	22.91
873.485	29.84
873.652	21.37
873.819	31.13
873.986	32.01
874.153	41.43
874.32	53.46
874.487	52.29
874.654	56.34
874.821	69.59
874.988	62.33
875.155	64.71
875.322	36.06
875.489	46.15
875.656	41.01
875.823	38.68
875.99	31.54
876.157	17.08
876.324	30.71
876.49	31.44
876.657	14.72
876.824	8.66
876.991	13.87
877.157	29.19
877.324	22.56
877.491	35.52
877.658	24.06
877.824	25.7
877.991	29.66
878.157	16.65
878.324	10.76
878.491	25.5
878.657	44.15
878.824	38.07
878.99	24.77
879.157	35.43
879.323	21.38
879.49	37.63
879.656	41.89
879.823	48.43
879.989	57.5
880.156	68.8
880.322	59.46
880.488	61.66
880.655	67.19
880.821	88.31
880.987	85.4
881.154	80.85
881.32	66.75
881.486	54.67
881.652	51.57
881.819	49.03
881.985	45.53
882.151	48.03
882.317	43.92
882.483	47.93
882.649	44.21
882.816	40.64
882.982	39.68
883.148	41.54
883.314	44.86
883.48	44.19
883.646	43.01
883.812	43.83
883.978	43
884.144	42.29
884.31	37.51
884.476	36.31
884.642	37.91
884.807	39.96
884.973	36.55
885.139	36.78
885.305	37.36
885.471	38.19
885.637	37.55
885.802	38.86
885.968	39.11
886.134	41.53
886.3	44.25
886.465	42.07
886.631	44.38
886.797	47.43
886.962	46.09
887.128	48.51
887.293	49.09
887.459	46.24
887.625	43.46
887.79	43.02
887.956	46.66
888.121	48.4
888.287	53.22
888.452	44.3
888.618	49.66
888.783	53.25
