Data from 2938061_Reflection_3.txt Node
Date: Sun Jul 12 13:49:32 EDT 2015
User: robert
Spectrometer: USB4E03001
Autoset integration time: false
Trigger mode: 4
Integration Time (sec): 1.000000E-1
Scans to average: 10
Electric dark correction enabled: true
Nonlinearity correction enabled: false
Boxcar width: 5
Stray light correction enabled: false
XAxis mode: Wavelengths
Stop averaging: false
Number of Pixels in Spectrum: 3648
>>>>>Begin Spectral Data<<<<<
177.566	392.71
177.785	-1180.43
178.005	-1071.43
178.225	-559.37
178.445	-125.47
178.665	-48.02
178.885	152.82
179.105	-3271.11
179.324	-339.39
179.544	-1454.84
179.764	200.46
179.984	210.64
180.204	-38.03
180.423	-59.97
180.643	-80.45
180.863	18.05
181.083	24.44
181.302	72.47
181.522	63.18
181.742	23.09
181.961	17.07
182.181	1.36
182.401	26.62
182.621	-24.24
182.84	-16.49
183.06	48.65
183.279	-98.93
183.499	-44.38
183.719	-98.23
183.938	-135.71
184.158	-122.83
184.377	-174.21
184.597	400.27
184.816	128.74
185.036	107.89
185.256	284.11
185.475	195.69
185.695	119.57
185.914	53.82
186.134	30.66
186.353	32.3
186.572	44.67
186.792	75.38
187.011	60.78
187.231	83.35
187.45	101.28
187.67	94.8
187.889	188.35
188.108	989.17
188.328	127.09
188.547	221.95
188.766	127.33
188.986	63.91
189.205	10.61
189.424	90.12
189.644	61.3
189.863	97.98
190.082	49.65
190.302	23.96
190.521	27.16
190.74	64.71
190.959	81.63
191.178	92.34
191.398	141.33
191.617	178.49
191.836	342.92
192.055	-275.19
192.274	-539.73
192.494	-1045.18
192.713	-708.83
192.932	-745.92
193.151	-255.67
193.37	-146.39
193.589	-667.04
193.808	2313.15
194.027	-280.2
194.246	-350.83
194.465	-914.58
194.685	-366.19
194.904	-10845.1
195.123	-1953.57
195.342	-385.81
195.561	150.92
195.78	56.96
195.999	67.84
196.218	-6.54
196.436	-6.7
196.655	62.19
196.874	179.41
197.093	56.85
197.312	-58.87
197.531	163.23
197.75	303.78
197.969	-1737.98
198.188	137.38
198.407	76.12
198.625	74.34
198.844	56.85
199.063	16.85
199.282	-64.4
199.501	-5.39
199.719	-4.6
199.938	-53.32
200.157	-44.29
200.376	-17.33
200.594	-5.14
200.813	-41.34
201.032	-54.33
201.251	-4.78
201.469	18.86
201.688	48.44
201.907	49.43
202.125	90.06
202.344	84.64
202.563	151.61
202.781	102.11
203	54.12
203.218	55.01
203.437	116.03
203.656	485.6
203.874	294.01
204.093	-197.76
204.311	-129.71
204.53	-47.31
204.748	-83.35
204.967	-103.88
205.185	-100.69
205.404	-92.06
205.622	-93.72
205.841	-26.46
206.059	-86.62
206.278	-277.11
206.496	62.11
206.715	31.42
206.933	65.17
207.151	106.27
207.37	100.13
207.588	123.78
207.806	78.5
208.025	93.2
208.243	49.78
208.461	42.62
208.68	19.1
208.898	18.82
209.116	-8.02
209.335	151.64
209.553	-18.95
209.771	-55.64
209.989	-186.33
210.208	-288.41
210.426	-172.13
210.644	-97.67
210.862	-57.27
211.081	-22.06
211.299	-272.78
211.517	-110.48
211.735	197.84
211.953	-44.54
212.171	-44.15
212.39	-70.9
212.608	16.84
212.826	-26.48
213.044	-144.56
213.262	-37.06
213.48	-13.94
213.698	269.67
213.916	-33.63
214.134	217.65
214.352	2772.15
214.57	287.91
214.788	285.17
215.006	267.26
215.224	3477.86
215.442	315.29
215.66	197.99
215.878	215.81
216.096	161.05
216.314	149.82
216.532	265.18
216.75	9798.11
216.968	-651.55
217.185	-186.73
217.403	-146.57
217.621	-249.69
217.839	-99.69
218.057	-67.89
218.275	-134.09
218.492	28.77
218.71	-35.06
218.928	-240.8
219.146	103.93
219.363	88.04
219.581	129.92
219.799	226.89
220.017	63.71
220.234	43.59
220.452	76
220.67	119.81
220.887	84.22
221.105	126.25
221.323	105.51
221.54	53.92
221.758	-17.01
221.976	-10.57
222.193	-14.42
222.411	14.75
222.629	139.28
222.846	1443.51
223.064	-229.39
223.281	102.48
223.499	-67.11
223.716	-19.2
223.934	36.07
224.151	-139.84
224.369	248.24
224.586	569.77
224.804	190.99
225.021	63.22
225.239	38.03
225.456	36.33
225.674	15.49
225.891	10.75
226.108	21.28
226.326	14.59
226.543	22.97
226.76	23.23
226.978	13.23
227.195	2.21
227.413	10.51
227.63	18.03
227.847	12.37
228.064	26.41
228.282	32.36
228.499	24.11
228.716	20.15
228.934	16.17
229.151	15.36
229.368	16.08
229.585	21.04
229.802	24.63
230.02	22.4
230.237	26.54
230.454	24.24
230.671	23.86
230.888	31.84
231.105	31.97
231.323	33.96
231.54	36.73
231.757	44.09
231.974	41.5
232.191	38.17
232.408	41.33
232.625	38.7
232.842	35.35
233.059	33.36
233.276	22.56
233.493	29.59
233.71	31.2
233.927	29.45
234.144	23.93
234.361	20.64
234.578	25.54
234.795	25.01
235.012	16.75
235.229	19.88
235.446	14.21
235.663	21.02
235.879	15.42
236.096	16.54
236.313	17.94
236.53	11.85
236.747	4.59
236.964	2.42
237.181	-1.9
237.397	7.55
237.614	7.39
237.831	19.67
238.048	12.82
238.264	20.19
238.481	15.34
238.698	15.29
238.915	21.68
239.131	36.61
239.348	33.43
239.565	35.51
239.781	39.95
239.998	35.54
240.215	34.92
240.431	33.13
240.648	29.6
240.865	32.66
241.081	26.84
241.298	23.99
241.514	24.02
241.731	21.64
241.947	19.31
242.164	18.94
242.38	22.26
242.597	19.26
242.814	19.88
243.03	21.59
243.246	20.24
243.463	20.23
243.679	20.14
243.896	18.67
244.112	21.74
244.329	23.24
244.545	20.39
244.762	19.01
244.978	18.8
245.194	17.96
245.411	13.84
245.627	12.27
245.843	15.02
246.06	15.26
246.276	14.54
246.492	12.84
246.709	13.35
246.925	14.69
247.141	14.31
247.357	13.24
247.574	15.19
247.79	15.86
248.006	16.85
248.222	15.94
248.439	16.05
248.655	18.24
248.871	21.18
249.087	20.81
249.303	20.62
249.519	19.48
249.736	21.37
249.952	21.18
250.168	22.33
250.384	19.96
250.6	22.71
250.816	21
251.032	16.87
251.248	16.18
251.464	17.64
251.68	18.61
251.896	17.9
252.112	15.99
252.328	12.36
252.544	12.15
252.76	14.24
252.976	11.65
253.192	11.02
253.408	9.09
253.624	7.5
253.84	9.58
254.056	7.81
254.272	9.67
254.487	12.58
254.703	14.41
254.919	13.8
255.135	8.75
255.351	10.4
255.567	13.52
255.782	14.61
255.998	16.5
256.214	13.14
256.43	15.27
256.646	17.26
256.861	15.41
257.077	14.26
257.293	14.52
257.508	18.37
257.724	18.32
257.94	18.62
258.155	19.84
258.371	18.68
258.587	17.75
258.802	15.4
259.018	15.04
259.234	14.68
259.449	14.4
259.665	15.13
259.88	15.6
260.096	15.27
260.312	14.95
260.527	15.36
260.743	14.56
260.958	13.84
261.174	14.82
261.389	15.57
261.605	15.76
261.82	17.22
262.036	16.16
262.251	15.19
262.466	15.59
262.682	16.29
262.897	16.23
263.113	17.63
263.328	21.41
263.543	20.45
263.759	17.27
263.974	18.25
264.189	17.89
264.405	18.93
264.62	18.34
264.835	18.82
265.051	20.72
265.266	18.58
265.481	16.99
265.696	14.88
265.912	13.73
266.127	15.9
266.342	14.66
266.557	12.77
266.773	14.4
266.988	14.29
267.203	13.61
267.418	11.02
267.633	11.51
267.848	10.42
268.064	8.91
268.279	10.44
268.494	10.09
268.709	10.24
268.924	11.23
269.139	8.82
269.354	8.89
269.569	9.73
269.784	11.45
269.999	12.42
270.214	14.3
270.429	16.27
270.644	15.54
270.859	13.2
271.074	12.63
271.289	12.19
271.504	12.29
271.719	12.17
271.934	11.34
272.149	10.28
272.363	12.45
272.578	12.85
272.793	10.95
273.008	10.47
273.223	11.54
273.438	13.72
273.653	14.3
273.867	13.89
274.082	15.68
274.297	15.6
274.512	15.43
274.726	12.17
274.941	9.48
275.156	11.57
275.371	11.87
275.585	12.13
275.8	10.38
276.015	12.06
276.229	12.33
276.444	10.21
276.659	11.89
276.873	12.1
277.088	13.26
277.302	15.6
277.517	13.82
277.732	13.36
277.946	12.5
278.161	12.41
278.375	13
278.59	14.76
278.804	12.92
279.019	11.28
279.233	11.73
279.448	9.23
279.662	8.43
279.877	9.26
280.091	12.43
280.306	14.37
280.52	13.69
280.735	12.98
280.949	13.25
281.163	14.67
281.378	15.39
281.592	13.41
281.806	13.41
282.021	14.71
282.235	14.51
282.449	13.04
282.664	11.04
282.878	10.73
283.092	7.42
283.307	7.04
283.521	7.07
283.735	7.83
283.949	9.58
284.164	11.18
284.378	9.81
284.592	12.14
284.806	11.02
285.02	11.84
285.234	14.29
285.449	15.73
285.663	15.84
285.877	15.74
286.091	14.69
286.305	14.75
286.519	13.92
286.733	15.81
286.947	13.7
287.161	13.72
287.375	12.8
287.589	12.33
287.803	13.5
288.017	11.08
288.231	13.39
288.445	12.71
288.659	12.38
288.873	13.67
289.087	11.8
289.301	13.89
289.515	14.16
289.729	15.06
289.943	12.15
290.157	11.77
290.371	12.91
290.584	12.57
290.798	13.39
291.012	13.83
291.226	13.26
291.44	13.94
291.654	14.08
291.867	13.5
292.081	13.1
292.295	17.46
292.509	17.15
292.722	20.32
292.936	19.99
293.15	20.83
293.364	18.75
293.577	19.15
293.791	19.57
294.005	18.69
294.218	21.77
294.432	22.13
294.645	19.11
294.859	17.45
295.073	17.17
295.286	16.31
295.5	15.12
295.713	17.23
295.927	18.46
296.14	18.22
296.354	16.66
296.568	14.62
296.781	14.52
296.994	15.42
297.208	15.5
297.421	14.69
297.635	14.96
297.848	15.16
298.062	15.15
298.275	15.85
298.489	15.12
298.702	15.45
298.915	16.08
299.129	16.62
299.342	15.69
299.555	15.92
299.769	13.3
299.982	13.32
300.195	14.43
300.409	14.95
300.622	11.76
300.835	12.72
301.048	15.22
301.262	14.43
301.475	14.01
301.688	15.79
301.901	18.24
302.115	20.03
302.328	18.98
302.541	18.14
302.754	15.83
302.967	17.2
303.18	17.07
303.393	14.61
303.607	15.17
303.82	15.01
304.033	12.93
304.246	11.14
304.459	11.14
304.672	12.03
304.885	11.74
305.098	12.99
305.311	12.63
305.524	9.91
305.737	10.01
305.95	11.69
306.163	12.97
306.376	14.29
306.589	15.66
306.802	15.37
307.015	15.5
307.228	16.57
307.44	16.52
307.653	17.36
307.866	18.39
308.079	16.79
308.292	16.08
308.505	14.92
308.718	13.57
308.93	14.3
309.143	15.26
309.356	15.78
309.569	15.56
309.781	16.5
309.994	16.47
310.207	15.09
310.42	16.64
310.632	16.88
310.845	15.75
311.058	16.63
311.27	16
311.483	14.4
311.696	13.34
311.908	14.32
312.121	14.62
312.333	15.81
312.546	18.42
312.759	20.36
312.971	20.42
313.184	21.19
313.396	19.86
313.609	20.29
313.821	20.96
314.034	20.71
314.246	21.07
314.459	20.24
314.671	18.68
314.884	15.9
315.096	12.84
315.309	10.88
315.521	11.67
315.733	13.98
315.946	12.6
316.158	12.73
316.371	12.4
316.583	8.15
316.795	8.76
317.008	7.97
317.22	10.28
317.432	12.05
317.644	14.35
317.857	14.73
318.069	13.34
318.281	14.03
318.494	13.7
318.706	15.41
318.918	17.41
319.13	15.84
319.342	14.8
319.555	14.16
319.767	12.98
319.979	11.34
320.191	11.69
320.403	13.08
320.615	10.49
320.827	13.19
321.039	13.31
321.252	14.4
321.464	15.27
321.676	17.29
321.888	17.33
322.1	19.53
322.312	20.15
322.524	19.19
322.736	17.78
322.948	20.65
323.16	20.09
323.372	19.89
323.584	18.66
323.796	19.82
324.007	18.39
324.219	19.61
324.431	16.76
324.643	15.96
324.855	17.34
325.067	17.83
325.279	16.51
325.491	18.08
325.702	18.06
325.914	18.44
326.126	16.32
326.338	16.35
326.55	15.53
326.761	18.02
326.973	18.66
327.185	18.22
327.396	18.81
327.608	19.95
327.82	19.16
328.032	17.33
328.243	19.55
328.455	22.16
328.666	24.17
328.878	25.48
329.09	25.29
329.301	24.27
329.513	24.76
329.725	23.86
329.936	24.51
330.148	25.33
330.359	26.15
330.571	25.75
330.782	25.1
330.994	24.69
331.205	24.28
331.417	25.03
331.628	26.73
331.84	26.28
332.051	26.89
332.262	27.14
332.474	25.84
332.685	26.55
332.897	26.65
333.108	28.5
333.319	28.05
333.531	29.19
333.742	30.28
333.953	31.59
334.165	30.71
334.376	31.24
334.587	30.8
334.799	30.45
335.01	30.59
335.221	29.74
335.432	28.3
335.644	27.65
335.855	26.36
336.066	25.79
336.277	25.54
336.488	26.03
336.7	26.49
336.911	27.05
337.122	26.9
337.333	29.03
337.544	30.19
337.755	30.53
337.966	31.33
338.177	32.52
338.388	31.36
338.599	32.25
338.811	33.09
339.022	33.18
339.233	33.74
339.444	34.66
339.655	33.62
339.866	33.49
340.076	33.3
340.287	34.76
340.498	35.23
340.709	35.22
340.92	33.82
341.131	34.86
341.342	34
341.553	33.36
341.764	33.6
341.975	34.65
342.185	33.53
342.396	34.42
342.607	33.33
342.818	33.6
343.029	34.74
343.239	35.54
343.45	34.51
343.661	34.4
343.872	34.47
344.082	33.15
344.293	32.37
344.504	33.52
344.714	33.1
344.925	32.25
345.136	31.52
345.346	30.86
345.557	28.91
345.768	29.26
345.978	29.79
346.189	30.31
346.399	32.18
346.61	32.49
346.821	32.49
347.031	31.85
347.242	32.25
347.452	31.68
347.663	31.91
347.873	33
348.084	33.15
348.294	33.08
348.504	31.63
348.715	30.62
348.925	30.78
349.136	29.96
349.346	29.57
349.557	30.31
349.767	30.86
349.977	30.59
350.188	32.37
350.398	32.18
350.608	31.48
350.819	32.06
351.029	32.5
351.239	31.52
351.449	32.39
351.66	33.64
351.87	32.83
352.08	32.09
352.29	33.2
352.501	31.48
352.711	30.47
352.921	31.37
353.131	31.64
353.341	30.93
353.552	31.58
353.762	31.75
353.972	31.7
354.182	33.4
354.392	34.17
354.602	33
354.812	33.45
355.022	34.3
355.232	34.54
355.442	34.98
355.652	35.88
355.862	35.72
356.072	35.42
356.282	35.12
356.492	34.71
356.702	34.28
356.912	35.1
357.122	35.48
357.332	35.59
357.542	35.45
357.752	35.02
357.962	34.89
358.171	35.3
358.381	34.31
358.591	34.32
358.801	34.59
359.011	34.57
359.221	33.88
359.43	33.69
359.64	33.71
359.85	33.38
360.06	33.57
360.269	33.82
360.479	33.3
360.689	34.11
360.899	33.53
361.108	33.11
361.318	33.24
361.528	33.55
361.737	32.73
361.947	32.1
362.156	32.25
362.366	32.39
362.576	31.97
362.785	31.45
362.995	31.03
363.204	31.15
363.414	30.6
363.623	29.63
363.833	29.58
364.042	30.23
364.252	30.73
364.461	31.35
364.671	30.73
364.88	30.73
365.09	31.63
365.299	31.42
365.509	31.08
365.718	31.26
365.927	31.9
366.137	30.93
366.346	31.46
366.555	30.8
366.765	30.11
366.974	30.18
367.183	29.89
367.393	29.22
367.602	28.75
367.811	29.72
368.021	29.62
368.23	29.97
368.439	31.07
368.648	30.15
368.857	30.69
369.067	30.22
369.276	30.01
369.485	30.24
369.694	30.2
369.903	29.82
370.112	28.94
370.321	28.77
370.531	28.36
370.74	27.78
370.949	28.11
371.158	28.4
371.367	28.59
371.576	28.6
371.785	27.51
371.994	28.07
372.203	29.1
372.412	29.12
372.621	28.92
372.83	29.09
373.039	28.86
373.248	28.47
373.457	27.89
373.666	27.95
373.874	27.91
374.083	28.35
374.292	27.69
374.501	27.42
374.71	27.24
374.919	27.72
375.128	27.41
375.336	27.11
375.545	27.63
375.754	27.16
375.963	26.45
376.171	25.62
376.38	26.05
376.589	25.8
376.798	25.1
377.006	25.32
377.215	25.54
377.424	25.57
377.632	25.77
377.841	24.7
378.05	24.83
378.258	25.09
378.467	24.8
378.675	24.29
378.884	24.1
379.093	24.36
379.301	24.24
379.51	23.65
379.718	23.68
379.927	23.24
380.135	23.07
380.344	22.79
380.552	22.3
380.761	22.74
380.969	23.01
381.177	23.13
381.386	23.05
381.594	22.26
381.803	22.07
382.011	21.4
382.219	21.73
382.428	22.01
382.636	22.26
382.845	22.44
383.053	22.5
383.261	22.4
383.469	22.21
383.678	22.08
383.886	22.48
384.094	22.07
384.302	22.4
384.511	22.27
384.719	22.43
384.927	22.52
385.135	22.62
385.343	22.71
385.552	22.35
385.76	22.59
385.968	22.86
386.176	22.76
386.384	23.36
386.592	22.83
386.8	22.11
387.008	21.79
387.216	21.53
387.424	21.07
387.633	20.41
387.841	20.68
388.049	20.31
388.257	20.05
388.465	19.84
388.672	19.33
388.88	19.87
389.088	19.91
389.296	19.54
389.504	19.11
389.712	19.33
389.92	19.46
390.128	19.11
390.336	19.14
390.544	18.88
390.751	18.68
390.959	18.37
391.167	17.9
391.375	17.77
391.583	17.88
391.79	18
391.998	18.06
392.206	18.01
392.414	18.17
392.621	18.05
392.829	17.91
393.037	18.19
393.244	18.07
393.452	18.18
393.66	18.78
393.867	18.46
394.075	18.14
394.283	17.85
394.49	18.12
394.698	18.01
394.905	17.87
395.113	17.92
395.32	17.67
395.528	17.66
395.735	17.89
395.943	17.41
396.15	17.44
396.358	17.47
396.565	17.07
396.773	16.65
396.98	16.45
397.188	16.58
397.395	16.84
397.602	17.01
397.81	17.51
398.017	16.95
398.225	17.12
398.432	17.38
398.639	17.65
398.847	18.3
399.054	18.57
399.261	18.87
399.468	18.77
399.676	18.45
399.883	18.23
400.09	18.12
400.297	18.22
400.505	17.83
400.712	17.83
400.919	18.01
401.126	17.98
401.333	17.75
401.54	17.29
401.748	17.43
401.955	17.36
402.162	17.49
402.369	17.44
402.576	17.61
402.783	17.62
402.99	17.78
403.197	17.39
403.404	17.1
403.611	17.2
403.818	17.47
404.025	17.7
404.232	17.53
404.439	17.51
404.646	17.14
404.853	17.09
405.06	17.47
405.267	17.27
405.474	17.28
405.681	17.56
405.887	17.4
406.094	17.33
406.301	16.87
406.508	16.97
406.715	16.77
406.922	16.86
407.128	16.77
407.335	16.89
407.542	16.81
407.749	16.75
407.955	16.48
408.162	16.38
408.369	16.44
408.575	16.47
408.782	16.66
408.989	16.95
409.195	17.17
409.402	17.09
409.609	17.01
409.815	16.85
410.022	16.99
410.228	17.06
410.435	17.24
410.642	16.94
410.848	17.02
411.055	16.83
411.261	16.6
411.468	16.46
411.674	16.55
411.881	16.23
412.087	16.34
412.294	16.49
412.5	16.49
412.706	16.64
412.913	16.72
413.119	16.31
413.326	16.32
413.532	16.52
413.738	16.85
413.945	16.64
414.151	16.65
414.357	16.68
414.564	16.58
414.77	16.38
414.976	16.13
415.182	16.16
415.389	16.46
415.595	16.47
415.801	16.31
416.007	16.02
416.214	16.44
416.42	16.69
416.626	16.7
416.832	16.79
417.038	16.74
417.244	16.7
417.45	16.71
417.657	16.67
417.863	16.79
418.069	16.73
418.275	16.81
418.481	16.55
418.687	16.35
418.893	16.32
419.099	16.11
419.305	16.11
419.511	16.09
419.717	16.21
419.923	16.24
420.129	16.1
420.335	16.05
420.541	15.93
420.746	15.79
420.952	15.8
421.158	15.84
421.364	16.01
421.57	15.98
421.776	16.06
421.982	15.95
422.187	15.96
422.393	16.01
422.599	16.05
422.805	16
423.01	16.15
423.216	16.09
423.422	15.94
423.628	15.79
423.833	15.83
424.039	15.91
424.245	15.76
424.45	15.79
424.656	15.72
424.862	15.51
425.067	15.56
425.273	15.57
425.478	15.55
425.684	15.64
425.889	15.75
426.095	15.82
426.301	15.49
426.506	15.61
426.712	15.37
426.917	15.35
427.123	15.7
427.328	15.73
427.533	15.66
427.739	15.58
427.944	15.62
428.15	15.42
428.355	15.39
428.561	15.31
428.766	15.41
428.971	15.7
429.177	15.81
429.382	15.5
429.587	15.22
429.793	15.19
429.998	15.35
430.203	15.17
430.408	15.3
430.614	15.23
430.819	15.44
431.024	15.14
431.229	15.07
431.434	15
431.64	15.02
431.845	15.3
432.05	15.18
432.255	15.05
432.46	15.06
432.665	14.82
432.87	14.74
433.076	14.93
433.281	15.15
433.486	15.19
433.691	15.21
433.896	15.41
434.101	15.23
434.306	15.17
434.511	15.28
434.716	15.31
434.921	15.4
435.126	15.52
435.331	15.37
435.535	15.21
435.74	15.01
435.945	15.06
436.15	15
436.355	15.15
436.56	15.18
436.765	15.18
436.97	15.42
437.174	15.39
437.379	15.41
437.584	15.43
437.789	15.38
437.993	15.22
438.198	15.24
438.403	15.23
438.608	15.35
438.812	15.45
439.017	15.39
439.222	15.14
439.426	15.12
439.631	15.12
439.836	15.15
440.04	15.28
440.245	15.29
440.45	15.2
440.654	15.1
440.859	14.98
441.063	15
441.268	14.96
441.472	14.94
441.677	14.84
441.881	14.89
442.086	14.95
442.29	14.84
442.495	14.82
442.699	14.83
442.904	14.77
443.108	14.74
443.312	14.67
443.517	14.66
443.721	14.71
443.925	14.65
444.13	14.48
444.334	14.28
444.538	14.19
444.743	14.37
444.947	14.42
445.151	14.62
445.356	14.63
445.56	14.74
445.764	14.8
445.968	14.78
446.173	15.01
446.377	14.99
446.581	15.08
446.785	15.21
446.989	15.19
447.193	15.16
447.398	15.12
447.602	15.16
447.806	15
448.01	14.96
448.214	15.08
448.418	14.99
448.622	15.19
448.826	15.2
449.03	15.16
449.234	15.15
449.438	15.12
449.642	15.08
449.846	15.02
450.05	15.02
450.254	15.13
450.458	14.98
450.662	15
450.866	14.74
451.069	14.57
451.273	14.68
451.477	14.67
451.681	14.71
451.885	14.74
452.089	14.67
452.292	14.81
452.496	14.66
452.7	14.58
452.904	14.51
453.107	14.48
453.311	14.57
453.515	14.48
453.719	14.49
453.922	14.56
454.126	14.37
454.33	14.38
454.533	14.35
454.737	14.19
454.94	14.2
455.144	14.45
455.348	14.53
455.551	14.62
455.755	14.56
455.958	14.67
456.162	14.58
456.365	14.7
456.569	14.62
456.772	14.86
456.976	15.07
457.179	15.27
457.383	15.11
457.586	14.87
457.79	14.85
457.993	14.89
458.196	14.67
458.4	14.56
458.603	14.72
458.807	14.76
459.01	14.57
459.213	14.61
459.417	14.37
459.62	14.27
459.823	14.47
460.026	14.46
460.23	14.41
460.433	14.43
460.636	14.5
460.839	14.44
461.042	14.45
461.246	14.47
461.449	14.39
461.652	14.51
461.855	14.69
462.058	14.59
462.261	14.58
462.464	14.6
462.668	14.86
462.871	14.86
463.074	14.58
463.277	14.5
463.48	14.37
463.683	14.69
463.886	14.86
464.089	14.73
464.292	14.89
464.495	14.8
464.698	14.77
464.901	14.53
465.104	14.51
465.306	14.91
465.509	15.26
465.712	15.51
465.915	15.25
466.118	15.12
466.321	15.14
466.524	15.22
466.726	15.26
466.929	15.35
467.132	15.48
467.335	15.42
467.538	15.41
467.74	15.1
467.943	15.06
468.146	14.99
468.348	14.98
468.551	14.88
468.754	14.76
468.956	14.81
469.159	14.77
469.362	14.81
469.564	14.71
469.767	14.6
469.969	14.75
470.172	14.65
470.375	14.66
470.577	14.83
470.78	14.98
470.982	14.9
471.185	14.89
471.387	15.13
471.59	15.14
471.792	15.31
471.995	15.22
472.197	15.03
472.399	15.24
472.602	15.23
472.804	14.94
473.007	14.92
473.209	15.11
473.411	15.05
473.614	14.66
473.816	14.48
474.018	14.52
474.22	14.46
474.423	14.69
474.625	14.45
474.827	14.52
475.03	14.62
475.232	14.53
475.434	14.41
475.636	14.39
475.838	14.61
476.04	14.76
476.243	14.66
476.445	14.48
476.647	14.29
476.849	14.25
477.051	14.26
477.253	14.32
477.455	14.4
477.657	14.41
477.859	14.31
478.061	14.22
478.263	14.17
478.465	14.16
478.667	14.5
478.869	14.55
479.071	14.63
479.273	14.47
479.475	14.45
479.677	14.4
479.879	14.33
480.081	14.43
480.283	14.43
480.485	14.43
480.686	14.51
480.888	14.42
481.09	14.41
481.292	14.42
481.494	14.63
481.695	14.62
481.897	14.61
482.099	14.61
482.301	14.56
482.502	14.59
482.704	14.45
482.906	14.39
483.107	14.43
483.309	14.4
483.511	14.31
483.712	14.27
483.914	14.26
484.115	14.27
484.317	14.25
484.519	14.25
484.72	14.23
484.922	14.25
485.123	14.24
485.325	14.2
485.526	14.27
485.728	14.31
485.929	14.38
486.131	14.4
486.332	14.42
486.534	14.51
486.735	14.59
486.936	14.57
487.138	14.62
487.339	14.62
487.541	14.7
487.742	14.66
487.943	14.69
488.144	14.6
488.346	14.57
488.547	14.53
488.748	14.46
488.95	14.42
489.151	14.41
489.352	14.41
489.553	14.46
489.755	14.34
489.956	14.33
490.157	14.36
490.358	14.38
490.559	14.42
490.76	14.41
490.961	14.43
491.163	14.37
491.364	14.43
491.565	14.38
491.766	14.38
491.967	14.46
492.168	14.53
492.369	14.51
492.57	14.49
492.771	14.53
492.972	14.58
493.173	14.6
493.374	14.58
493.575	14.66
493.776	14.7
493.976	14.58
494.177	14.56
494.378	14.56
494.579	14.6
494.78	14.52
494.981	14.65
495.182	14.59
495.382	14.57
495.583	14.49
495.784	14.54
495.985	14.51
496.185	14.68
496.386	14.66
496.587	14.64
496.788	14.66
496.988	14.97
497.189	14.83
497.39	14.82
497.59	14.97
497.791	15.09
497.992	14.95
498.192	15.07
498.393	15.04
498.593	15.05
498.794	15.05
498.994	15
499.195	14.85
499.395	14.71
499.596	14.76
499.796	14.61
499.997	14.66
500.197	14.68
500.398	14.75
500.598	14.8
500.799	14.87
500.999	14.71
501.199	14.62
501.4	14.73
501.6	14.71
501.801	14.75
502.001	14.88
502.201	14.92
502.402	14.8
502.602	14.75
502.802	14.86
503.002	14.93
503.203	15.14
503.403	15.34
503.603	15.21
503.803	15.47
504.003	15.46
504.204	15.53
504.404	15.55
504.604	15.63
504.804	15.76
505.004	15.71
505.204	15.54
505.404	15.55
505.604	15.46
505.804	15.59
506.005	15.63
506.205	15.59
506.405	15.46
506.605	15.66
506.805	15.77
507.005	15.81
507.204	15.93
507.404	16.15
507.604	16.31
507.804	16.4
508.004	16.36
508.204	16.19
508.404	16.36
508.604	16.56
508.804	16.48
509.003	16.65
509.203	16.56
509.403	16.51
509.603	16.46
509.803	16.31
510.002	16.43
510.202	16.47
510.402	16.72
510.602	16.66
510.801	16.49
511.001	16.41
511.201	16.44
511.4	16.43
511.6	16.37
511.8	16.37
511.999	16.55
512.199	16.53
512.398	16.58
512.598	16.5
512.797	16.62
512.997	16.69
513.197	16.85
513.396	16.81
513.596	16.97
513.795	17.14
513.994	17.23
514.194	17.2
514.393	17.15
514.593	17.18
514.792	17.28
514.992	17.28
515.191	17.32
515.39	17.41
515.59	17.27
515.789	17.33
515.988	17.37
516.188	17.38
516.387	17.46
516.586	17.43
516.786	17.41
516.985	17.37
517.184	17.36
517.383	17.3
517.582	17.36
517.782	17.36
517.981	17.23
518.18	17.31
518.379	17.17
518.578	17.19
518.777	17.25
518.976	17.22
519.176	17.39
519.375	17.42
519.574	17.58
519.773	17.58
519.972	17.66
520.171	17.78
520.37	17.61
520.569	17.85
520.768	17.88
520.967	17.99
521.166	18.14
521.365	17.93
521.564	18.06
521.762	18.18
521.961	18.28
522.16	18.47
522.359	18.49
522.558	18.72
522.757	18.72
522.956	18.53
523.154	18.59
523.353	18.67
523.552	18.77
523.751	18.79
523.949	18.63
524.148	18.41
524.347	18.41
524.546	18.37
524.744	18.33
524.943	18.31
525.142	18.43
525.34	18.37
525.539	18.32
525.737	18.25
525.936	18.27
526.135	18.25
526.333	18.41
526.532	18.43
526.73	18.49
526.929	18.52
527.127	18.6
527.326	18.67
527.524	18.81
527.723	18.91
527.921	19.01
528.12	18.97
528.318	19.05
528.516	19
528.715	19.03
528.913	19.04
529.112	19.03
529.31	19.02
529.508	18.96
529.707	18.88
529.905	18.71
530.103	18.68
530.301	18.77
530.5	18.79
530.698	18.88
530.896	18.87
531.094	18.97
531.293	19.05
531.491	19.12
531.689	19.22
531.887	19.35
532.085	19.54
532.283	19.61
532.481	19.51
532.68	19.55
532.878	19.57
533.076	19.52
533.274	19.49
533.472	19.53
533.67	19.52
533.868	19.64
534.066	19.63
534.264	19.65
534.462	19.67
534.66	19.73
534.858	19.68
535.056	19.63
535.253	19.62
535.451	19.63
535.649	19.68
535.847	19.68
536.045	19.58
536.243	19.51
536.441	19.53
536.638	19.55
536.836	19.6
537.034	19.75
537.232	19.83
537.43	20
537.627	19.97
537.825	19.91
538.023	19.99
538.22	19.98
538.418	20.11
538.616	20.18
538.813	20.22
539.011	20.1
539.209	19.93
539.406	19.88
539.604	19.74
539.801	19.83
539.999	19.93
540.196	19.91
540.394	20.13
540.591	20.13
540.789	20.21
540.986	20.19
541.184	20.29
541.381	20.41
541.579	20.49
541.776	20.52
541.974	20.57
542.171	20.48
542.368	20.47
542.566	20.46
542.763	20.57
542.96	20.6
543.158	20.71
543.355	20.67
543.552	20.63
543.75	20.62
543.947	20.7
544.144	20.62
544.341	20.84
544.539	20.91
544.736	20.84
544.933	20.82
545.13	20.74
545.327	20.69
545.524	20.84
545.722	20.92
545.919	20.96
546.116	21.02
546.313	20.98
546.51	20.91
546.707	20.82
546.904	20.85
547.101	20.8
547.298	20.81
547.495	20.85
547.692	20.82
547.889	20.78
548.086	20.62
548.283	20.6
548.48	20.82
548.677	20.72
548.874	20.76
549.07	20.91
549.267	20.91
549.464	20.94
549.661	20.78
549.858	20.81
550.055	20.92
550.251	20.98
550.448	21.14
550.645	21.29
550.842	21.5
551.038	21.65
551.235	21.72
551.432	21.71
551.628	21.92
551.825	22.36
552.022	22.33
552.218	22.25
552.415	22.39
552.612	22.34
552.808	22.19
553.005	22.37
553.201	22.71
553.398	22.51
553.594	22.64
553.791	22.46
553.987	22.07
554.184	22.14
554.38	21.96
554.577	22.19
554.773	22.17
554.97	22.34
555.166	22.22
555.362	21.87
555.559	21.95
555.755	21.96
555.952	22.19
556.148	22.33
556.344	22.42
556.541	22.72
556.737	22.54
556.933	22.56
557.129	22.42
557.326	22.57
557.522	22.53
557.718	22.66
557.914	22.93
558.11	22.89
558.307	23.14
558.503	23.2
558.699	23.19
558.895	23.38
559.091	23.55
559.287	23.67
559.483	23.71
559.679	23.86
559.876	23.74
560.072	23.55
560.268	23.61
560.464	23.49
560.66	23.44
560.856	23.53
561.052	23.34
561.247	23.34
561.443	23.25
561.639	23.26
561.835	23.16
562.031	23.17
562.227	23.26
562.423	23.39
562.619	23.57
562.815	23.33
563.01	23.34
563.206	23.58
563.402	23.61
563.598	23.72
563.793	23.49
563.989	23.83
564.185	24.12
564.381	24.29
564.576	24.3
564.772	24.31
564.968	24.66
565.163	24.76
565.359	24.69
565.555	24.75
565.75	24.7
565.946	24.85
566.141	24.87
566.337	24.76
566.532	24.6
566.728	24.64
566.923	24.6
567.119	24.53
567.314	24.41
567.51	24.36
567.705	24.26
567.901	24.49
568.096	24.52
568.292	24.21
568.487	24.29
568.682	24.21
568.878	24.06
569.073	24.3
569.268	24.2
569.464	24.42
569.659	24.38
569.854	24.48
570.05	24.29
570.245	24.3
570.44	24.58
570.635	24.64
570.831	24.76
571.026	24.75
571.221	24.71
571.416	24.95
571.611	24.76
571.806	24.78
572.002	24.81
572.197	24.91
572.392	24.95
572.587	24.84
572.782	24.79
572.977	24.79
573.172	24.83
573.367	24.63
573.562	24.57
573.757	24.68
573.952	24.76
574.147	24.81
574.342	24.74
574.537	24.73
574.732	24.93
574.927	24.94
575.121	25.16
575.316	25.22
575.511	25.4
575.706	25.47
575.901	25.55
576.096	25.64
576.29	25.49
576.485	25.66
576.68	25.5
576.875	25.4
577.069	25.5
577.264	25.45
577.459	25.65
577.654	25.59
577.848	25.67
578.043	25.7
578.238	25.91
578.432	25.98
578.627	25.98
578.821	26.38
579.016	26.57
579.21	26.63
579.405	26.47
579.6	26.22
579.794	26.46
579.989	26.47
580.183	26.79
580.378	26.36
580.572	26.71
580.766	26.67
580.961	26.61
581.155	26.59
581.35	26.65
581.544	26.79
581.738	26.96
581.933	26.8
582.127	26.69
582.321	26.46
582.516	26.72
582.71	26.39
582.904	26.34
583.099	26.14
583.293	26.12
583.487	25.86
583.681	25.57
583.875	25.32
584.07	25.3
584.264	25.24
584.458	25.2
584.652	25.26
584.846	25.55
585.04	25.65
585.234	25.78
585.428	25.86
585.623	25.96
585.817	26.22
586.011	26.46
586.205	26.64
586.399	26.93
586.593	27
586.787	26.84
586.981	26.36
587.174	26.51
587.368	26.4
587.562	26.33
587.756	26.39
587.95	26.19
588.144	26.23
588.338	26.24
588.532	25.94
588.725	25.74
588.919	25.77
589.113	26.1
589.307	26.12
589.501	26.36
589.694	26.33
589.888	26.4
590.082	26.55
590.275	26.38
590.469	26.5
590.663	26.52
590.856	26.73
591.05	26.7
591.244	26.53
591.437	26.48
591.631	26.55
591.824	26.65
592.018	26.64
592.212	26.58
592.405	27.21
592.599	26.81
592.792	26.87
592.986	26.95
593.179	27.4
593.372	27.44
593.566	27.67
593.759	27.55
593.953	27.78
594.146	27.81
594.339	28.09
594.533	27.74
594.726	27.81
594.92	27.82
595.113	27.54
595.306	27.22
595.499	27.32
595.693	27.29
595.886	27.07
596.079	26.69
596.272	26.73
596.466	26.7
596.659	26.62
596.852	26.79
597.045	26.93
597.238	26.96
597.431	27.23
597.624	27.2
597.818	27.14
598.011	27.1
598.204	27.16
598.397	27.12
598.59	27.27
598.783	27.29
598.976	27.06
599.169	27.02
599.362	27.21
599.555	27.2
599.748	27.43
599.941	27.4
600.134	27.6
600.326	27.66
600.519	27.67
600.712	27.58
600.905	27.81
601.098	28.1
601.291	28.39
601.483	28.5
601.676	28.21
601.869	28.13
602.062	28.16
602.255	28.4
602.447	28.48
602.64	28.57
602.833	28.49
603.025	28.35
603.218	28.37
603.411	28.32
603.603	28.33
603.796	28.23
603.989	28.12
604.181	28.07
604.374	27.94
604.566	27.99
604.759	28.02
604.951	27.96
605.144	27.93
605.336	27.65
605.529	27.55
605.721	27.54
605.914	27.65
606.106	27.69
606.299	27.6
606.491	27.63
606.683	27.55
606.876	27.52
607.068	27.54
607.26	27.56
607.453	27.78
607.645	27.63
607.837	27.57
608.03	27.68
608.222	27.94
608.414	27.95
608.606	27.84
608.799	27.99
608.991	28.01
609.183	28.16
609.375	28.06
609.567	28.47
609.759	28.77
609.952	28.7
610.144	28.55
610.336	28.5
610.528	28.58
610.72	28.75
610.912	28.55
611.104	28.6
611.296	28.16
611.488	28.26
611.68	27.8
611.872	27.52
612.064	27.53
612.256	27.55
612.448	27.5
612.64	27.65
612.832	27.52
613.023	27.66
613.215	27.33
613.407	27.85
613.599	27.77
613.791	27.79
613.983	28.04
614.174	28.17
614.366	28.22
614.558	28.21
614.75	28.04
614.941	28.12
615.133	28.23
615.325	28.34
615.516	28.27
615.708	28.54
615.9	28.56
616.091	28.55
616.283	28.75
616.475	28.73
616.666	28.7
616.858	28.69
617.049	28.52
617.241	28.76
617.432	28.75
617.624	28.49
617.815	28.37
618.007	28.39
618.198	28.23
618.39	28.29
618.581	28.18
618.773	28.2
618.964	28.09
619.155	28.35
619.347	28.14
619.538	28.38
619.729	28.81
619.921	28.78
620.112	28.65
620.303	28.57
620.494	28.19
620.686	28.25
620.877	28.27
621.068	28.56
621.259	28.48
621.451	27.99
621.642	27.81
621.833	27.72
622.024	27.87
622.215	27.8
622.406	28.09
622.597	28.14
622.788	28.05
622.98	28.03
623.171	28.27
623.362	28.29
623.553	28.86
623.744	28.98
623.935	28.92
624.126	28.49
624.317	28.41
624.508	28.19
624.698	28
624.889	28.45
625.08	28.53
625.271	28.22
625.462	28.22
625.653	27.77
625.844	27.81
626.034	27.73
626.225	28.34
626.416	28.49
626.607	28.45
626.798	28.38
626.988	28.04
627.179	27.79
627.37	27.59
627.56	27.48
627.751	27.9
627.942	27.74
628.132	27.7
628.323	27.45
628.514	27.54
628.704	27.73
628.895	28.11
629.085	28.34
629.276	28.82
629.466	29.01
629.657	29.31
629.847	29.36
630.038	29.41
630.228	29.42
630.419	29.65
630.609	29.48
630.8	29.34
630.99	29.16
631.181	28.95
631.371	28.93
631.561	28.95
631.752	28.95
631.942	28.6
632.132	28.48
632.323	28.7
632.513	28.45
632.703	28.61
632.893	28.95
633.084	29.16
633.274	29.34
633.464	28.92
633.654	28.97
633.844	28.88
634.034	29.21
634.225	29.09
634.415	28.88
634.605	28.89
634.795	28.76
634.985	28.56
635.175	28.66
635.365	28.77
635.555	28.69
635.745	28.85
635.935	28.6
636.125	28.22
636.315	28.61
636.505	28.8
636.695	29.04
636.885	29.16
637.075	28.85
637.265	28.77
637.455	28.7
637.644	28.98
637.834	28.66
638.024	28.95
638.214	29.07
638.404	28.37
638.593	28.07
638.783	28.05
638.973	27.85
639.163	28.25
639.352	28.09
639.542	27.88
639.732	27.99
639.921	27.84
640.111	27.84
640.301	27.98
640.49	28.31
640.68	28.54
640.87	28.09
641.059	28.04
641.249	27.64
641.438	27.66
641.628	27.76
641.817	27.22
642.007	27.71
642.196	27.45
642.386	27.65
642.575	28.24
642.764	27.94
642.954	28.12
643.143	28.46
643.333	28.56
643.522	28.48
643.711	28.43
643.901	28.99
644.09	29.1
644.279	29.17
644.469	28.86
644.658	28.68
644.847	28.88
645.036	28.73
645.226	28.9
645.415	29.22
645.604	29.19
645.793	29.31
645.982	29.01
646.171	28.59
646.361	28.94
646.55	28.95
646.739	28.71
646.928	28.9
647.117	28.64
647.306	28.43
647.495	27.92
647.684	27.93
647.873	27.72
648.062	27.64
648.251	27.89
648.44	27.54
648.629	27.46
648.818	27.85
649.007	27.92
649.196	28.85
649.384	29.06
649.573	29.44
649.762	29.09
649.951	29.36
650.14	29.84
650.328	29.73
650.517	29.94
650.706	30.08
650.895	29.91
651.083	29.99
651.272	29.78
651.461	29.74
651.65	29.94
651.838	30.31
652.027	30.06
652.216	29.91
652.404	29.93
652.593	30.04
652.781	29.94
652.97	30.27
653.158	30.4
653.347	29.99
653.535	29.58
653.724	29.37
653.912	29.48
654.101	29.57
654.289	29.38
654.478	29.18
654.666	29.14
654.855	29.34
655.043	28.55
655.231	28.52
655.42	29.02
655.608	29.39
655.796	29.47
655.985	29.62
656.173	29.67
656.361	29.43
656.55	29.57
656.738	29.09
656.926	28.87
657.114	29.2
657.302	28.81
657.491	28.42
657.679	28.39
657.867	28.27
658.055	27.85
658.243	28.19
658.431	28.5
658.619	28.16
658.807	28.51
658.996	28.38
659.184	28.34
659.372	28.4
659.56	28.64
659.748	28.42
659.936	28.29
660.124	28.41
660.311	28.12
660.499	28.37
660.687	28.6
660.875	28.63
661.063	28.66
661.251	28.87
661.439	29.16
661.627	29.09
661.814	29.26
662.002	29.52
662.19	30.02
662.378	30.1
662.565	29.97
662.753	29.92
662.941	29.99
663.129	30.59
663.316	30.62
663.504	29.98
663.692	30.05
663.879	29.82
664.067	29.83
664.254	29.52
664.442	29.4
664.63	29.08
664.817	29.25
665.005	28.9
665.192	28.62
665.38	28.28
665.567	28.26
665.755	27.76
665.942	28.04
666.13	27.95
666.317	28.01
666.504	27.63
666.692	27.74
666.879	28.07
667.067	28.35
667.254	28.19
667.441	28.8
667.629	29.14
667.816	29.3
668.003	29.32
668.19	29.13
668.378	28.74
668.565	29.46
668.752	29.52
668.939	29.13
669.127	29.02
669.314	29.29
669.501	28.69
669.688	28.8
669.875	28.87
670.062	28.88
670.249	29
670.436	29.19
670.623	28.6
670.81	28.42
670.997	28.71
671.184	28.17
671.371	27.68
671.558	27.73
671.745	27.75
671.932	27.96
672.119	28.24
672.306	28.16
672.493	27.96
672.68	28.7
672.867	29.16
673.054	28.95
673.24	29.54
673.427	29.91
673.614	30.09
673.801	29.31
673.988	29.05
674.174	28.83
674.361	29.04
674.548	29.41
674.734	29.05
674.921	28.86
675.108	29.1
675.294	29.24
675.481	29.45
675.668	29.43
675.854	29.98
676.041	29.89
676.227	30.04
676.414	30.2
676.601	30.39
676.787	30.29
676.974	30.18
677.16	30.33
677.347	30.21
677.533	30.31
677.719	30.38
677.906	30.55
678.092	30.39
678.279	30.17
678.465	30.28
678.651	30.07
678.838	30.08
679.024	29.87
679.21	29.42
679.397	29.57
679.583	29.05
679.769	28.9
679.955	28.94
680.142	29.23
680.328	29.16
680.514	28.82
680.7	28.83
680.886	29.3
681.073	29.33
681.259	29.4
681.445	29.2
681.631	29.49
681.817	29.81
682.003	29.73
682.189	29.51
682.375	29.92
682.561	29.89
682.747	30.11
682.933	29.72
683.119	29.93
683.305	29.8
683.491	29.75
683.677	29.79
683.863	29.53
684.049	29.72
684.235	30.42
684.42	29.75
684.606	29.68
684.792	29.17
684.978	28.83
685.164	28.69
685.349	28.75
685.535	29.01
685.721	28.99
685.907	28.78
686.092	28.69
686.278	27.95
686.464	28.35
686.649	28.84
686.835	29.03
687.021	29.46
687.206	29.54
687.392	29.73
687.577	29.46
687.763	29.57
687.948	29.6
688.134	29.31
688.319	29.63
688.505	29.57
688.69	29.53
688.876	29.64
689.061	29.45
689.247	29.53
689.432	28.85
689.618	28.91
689.803	28.39
689.988	28.69
690.174	28.54
690.359	28.35
690.544	28.17
690.73	27.86
690.915	27.99
691.1	28.16
691.285	27.95
691.471	28.42
691.656	28.81
691.841	28.8
692.026	28.69
692.211	28.95
692.396	28.52
692.582	28.89
692.767	29.28
692.952	28.85
693.137	28.73
693.322	29
693.507	29.08
693.692	28.76
693.877	28.7
694.062	28.89
694.247	29.47
694.432	29.73
694.617	29.59
694.802	28.77
694.987	28.9
695.172	28.47
695.357	28.18
695.541	28.46
695.726	28.81
695.911	29.05
696.096	28.78
696.281	28.54
696.466	28.91
696.65	28.38
696.835	28.47
697.02	28.95
697.204	29.65
697.389	30.01
697.574	30.2
697.759	30.18
697.943	29.98
698.128	30.02
698.312	29.85
698.497	29.45
698.682	29.44
698.866	30.15
699.051	30
699.235	29.89
699.42	29.7
699.604	29.62
699.789	29.33
699.973	29.4
700.158	29.43
700.342	29.37
700.527	29.46
700.711	30.01
700.895	29.27
701.08	29.01
701.264	28.92
701.448	28.91
701.633	28.33
701.817	28.54
702.001	29.15
702.186	28.76
702.37	28.94
702.554	29.64
702.738	29.82
702.923	30.22
703.107	29.95
703.291	29.03
703.475	29.51
703.659	29.79
703.843	29.61
704.027	28.97
704.212	29.46
704.396	29.03
704.58	29.31
704.764	28.71
704.948	27.84
705.132	28.23
705.316	28.32
705.5	27.9
705.684	28.32
705.868	27.66
706.052	27.7
706.235	27.34
706.419	27.52
706.603	27.6
706.787	28.04
706.971	29.28
707.155	28.79
707.339	29.35
707.522	29.12
707.706	28.9
707.89	29.76
708.074	30.36
708.257	30.85
708.441	31.29
708.625	30.71
708.808	30.79
708.992	30.69
709.176	30.72
709.359	30.94
709.543	31.02
709.727	30.93
709.91	31.05
710.094	30.63
710.277	30.44
710.461	30.16
710.644	30.37
710.828	30.02
711.011	30.2
711.195	31.09
711.378	30.87
711.562	30.89
711.745	30.85
711.928	30.8
712.112	30.21
712.295	30.15
712.478	29.79
712.662	29.45
712.845	29.14
713.028	28.33
713.212	27.48
713.395	27.49
713.578	28.07
713.761	28.42
713.945	28.32
714.128	28.79
714.311	28.29
714.494	28.45
714.677	28.78
714.86	29.31
715.043	29.93
715.227	30.73
715.41	30.83
715.593	30.63
715.776	30.11
715.959	30.39
716.142	30.5
716.325	30.77
716.508	30.98
716.691	30.81
716.874	29.98
717.057	29.71
717.239	29.19
717.422	28.9
717.605	28.66
717.788	29.33
717.971	29.11
718.154	29.18
718.337	29.41
718.519	29.23
718.702	29.17
718.885	30.46
719.068	30.71
719.25	31.03
719.433	31.8
719.616	32.07
719.798	31.72
719.981	31.24
720.164	31.73
720.346	31.29
720.529	31.94
720.712	31.68
720.894	30.96
721.077	30.37
721.259	30.03
721.442	29.47
721.624	29.54
721.807	28.73
721.989	29.21
722.172	28.01
722.354	28.73
722.537	28.92
722.719	28.9
722.901	28.66
723.084	28.79
723.266	29.06
723.448	28.36
723.631	28.02
723.813	28.89
723.995	28.47
724.178	28.95
724.36	28.69
724.542	28.47
724.724	28.96
724.907	29.33
725.089	29.99
725.271	30.41
725.453	31.78
725.635	30.76
725.817	30.21
725.999	29.59
726.181	30.05
726.364	30.25
726.546	29.57
726.728	29.38
726.91	29.22
727.092	28.15
727.274	27.66
727.456	27.05
727.638	28.21
727.819	28.69
728.001	28.71
728.183	28.39
728.365	28.7
728.547	29.42
728.729	29.72
728.911	29.69
729.093	29.83
729.274	29.55
729.456	29.38
729.638	28.61
729.82	29.11
730.001	29.73
730.183	29.64
730.365	28.78
730.546	28.63
730.728	28.86
730.91	29.17
731.091	29.67
731.273	30.47
731.455	31.22
731.636	31.56
731.818	30.89
731.999	30.51
732.181	30.12
732.362	31.77
732.544	31.69
732.725	30.82
732.907	30.5
733.088	30.93
733.27	29.83
733.451	29.59
733.633	30.41
733.814	30.68
733.995	31.29
734.177	32.2
734.358	31.86
734.539	31.53
734.721	32.09
734.902	32.32
735.083	30.82
735.264	31.43
735.446	31.54
735.627	31.55
735.808	30.71
735.989	29.95
736.17	28.54
736.351	27.74
736.533	28.84
736.714	28.04
736.895	26.83
737.076	28.69
737.257	29.35
737.438	29.07
737.619	27.97
737.8	28.75
737.981	29.45
738.162	29.51
738.343	30.28
738.524	29.89
738.705	30.19
738.886	30.62
739.067	29.09
739.247	27.88
739.428	28.67
739.609	29.12
739.79	29.39
739.971	27.97
740.151	27.94
740.332	27.57
740.513	26.72
740.694	28.28
740.874	29.26
741.055	30.43
741.236	30.37
741.417	29.61
741.597	28.35
741.778	29.08
741.958	30.79
742.139	31.61
742.32	31.31
742.5	30.59
742.681	29.64
742.861	29.75
743.042	29.96
743.222	30.87
743.403	31.3
743.583	33.59
743.764	32.75
743.944	33.25
744.124	33.48
744.305	32.92
744.485	34.73
744.666	33.76
744.846	32.67
745.026	31.72
745.207	31.49
745.387	29.99
745.567	28.69
745.747	29.71
745.928	29.13
746.108	29.17
746.288	29.91
746.468	28.81
746.648	28.97
746.829	29.94
747.009	29.79
747.189	29.66
747.369	31.74
747.549	31.81
747.729	30.59
747.909	29.39
748.089	29.87
748.269	29.8
748.449	29.07
748.629	29.25
748.809	28.93
748.989	29.52
749.169	29.09
749.349	27.26
749.529	27.38
749.709	25.83
749.889	27.82
750.068	25.93
750.248	27.49
750.428	28.95
750.608	28.58
750.788	28.71
750.967	27.19
751.147	28.43
751.327	30.05
751.507	29.24
751.686	30.35
751.866	29.88
752.046	32.18
752.225	29.77
752.405	29.9
752.585	30.02
752.764	29.68
752.944	29.38
753.123	30
753.303	28.77
753.482	29.05
753.662	29.64
753.841	27.73
754.021	27.01
754.2	28.74
754.38	28.32
754.559	28.39
754.739	28.63
754.918	30.43
755.097	30.39
755.277	30.9
755.456	30.97
755.635	30.46
755.815	31.8
755.994	30.32
756.173	28.69
756.352	29.03
756.532	28.21
756.711	29.18
756.89	28.69
757.069	28.51
757.248	28.96
757.427	29.67
757.607	29.88
757.786	30
757.965	29.92
758.144	30.14
758.323	29.09
758.502	29.5
758.681	29.17
758.86	28.99
759.039	27.84
759.218	27.34
759.397	27.32
759.576	26.65
759.755	26.09
759.934	27.37
760.113	27.07
760.291	27.56
760.47	27.63
760.649	27.46
760.828	28.12
761.007	27.77
761.186	28.19
761.364	27.3
761.543	28.28
761.722	29.21
761.901	29.93
762.079	30.71
762.258	31.32
762.437	32.25
762.615	30.67
762.794	30.13
762.972	30.43
763.151	29.62
763.33	29.37
763.508	30.11
763.687	29.16
763.865	28.37
764.044	28.31
764.222	27.61
764.401	28.16
764.579	28.53
764.758	28.23
764.936	28.04
765.114	28.56
765.293	29.47
765.471	28.17
765.65	29.19
765.828	29.38
766.006	29.83
766.184	30.51
766.363	28.48
766.541	29.26
766.719	29.35
766.898	29.61
767.076	29.02
767.254	29.09
767.432	29.25
767.61	29.7
767.788	29.28
767.967	28.53
768.145	29.07
768.323	29.39
768.501	31.01
768.679	30.79
768.857	28.94
769.035	29.58
769.213	28.68
769.391	28.72
769.569	26.75
769.747	27.43
769.925	26.05
770.103	25.13
770.281	25.74
770.459	23.75
770.636	24.13
770.814	25.73
770.992	25.82
771.17	25.83
771.348	25.03
771.525	25.62
771.703	25.81
771.881	28.28
772.059	28.7
772.236	28.59
772.414	27.89
772.592	29.29
772.769	32.44
772.947	30.65
773.125	30.66
773.302	30.69
773.48	30.45
773.657	30.4
773.835	29.46
774.013	28.54
774.19	28.53
774.368	29.82
774.545	29.52
774.723	27.13
774.9	28.34
775.077	29.85
775.255	31.24
775.432	31.81
775.61	32.34
775.787	32.25
775.964	33.8
776.142	33.97
776.319	32.89
776.496	31.86
776.674	30.32
776.851	30.23
777.028	28.82
777.205	28.4
777.382	27.26
777.56	28.23
777.737	30.79
777.914	29.12
778.091	29.81
778.268	31.86
778.445	32.25
778.622	33.09
778.8	34.44
778.977	36.19
779.154	36.87
779.331	38.37
779.508	37.32
779.685	35.11
779.862	34.68
780.038	33.25
780.215	33.36
780.392	32.9
780.569	34.39
780.746	33.76
780.923	30.48
781.1	29.21
781.277	27.99
781.453	29.38
781.63	31.07
781.807	31.95
781.984	34.18
782.16	33.03
782.337	33.37
782.514	32.62
782.691	31.49
782.867	33.71
783.044	33.44
783.221	35.85
783.397	34.37
783.574	33.57
783.75	33.88
783.927	33.15
784.103	33.01
784.28	34.89
784.456	32.73
784.633	31.72
784.809	31.35
784.986	33.24
785.162	30.34
785.339	31.29
785.515	32.45
785.692	31.46
785.868	31.83
786.044	33.03
786.221	30.73
786.397	33.85
786.573	34.9
786.749	33.68
786.926	32.8
787.102	33.62
787.278	32.42
787.454	29.87
787.631	30.58
787.807	30.61
787.983	28.95
788.159	29.76
788.335	29.4
788.511	30.54
788.687	29.75
788.863	28.94
789.039	27.44
789.216	25.52
789.392	25.72
789.568	26.59
789.744	25.51
789.919	24.76
790.095	24.08
790.271	21.78
790.447	20.3
790.623	21.78
790.799	25.03
790.975	29.02
791.151	29.63
791.327	27.65
791.502	26.67
791.678	28.06
791.854	27.2
792.03	28.08
792.205	29.25
792.381	29.95
792.557	30.65
792.733	27.88
792.908	25.52
793.084	28.03
793.259	30.36
793.435	32.96
793.611	30.94
793.786	33.76
793.962	30.29
794.137	31.28
794.313	30.94
794.488	28.77
794.664	28.83
794.839	28.83
795.015	26.71
795.19	26.08
795.366	22.02
795.541	24.39
795.716	25.31
795.892	27.23
796.067	26.49
796.242	28.13
796.418	26.78
796.593	25.82
796.768	24.92
796.944	24.34
797.119	26.1
797.294	28.66
797.469	27.87
797.644	25.23
797.82	26.15
797.995	28.04
798.17	26.12
798.345	29.62
798.52	32.51
798.695	37.62
798.87	37.67
799.045	35.82
799.22	32.94
799.395	32.04
799.57	32.4
799.745	32.85
799.92	29.38
800.095	28.73
800.27	25.68
800.445	23.82
800.62	17.45
800.795	16.42
800.97	18.98
801.145	15.85
801.319	16.86
801.494	16.18
801.669	16.81
801.844	16.18
802.018	14.7
802.193	16.94
802.368	19.05
802.543	19.46
802.717	20.53
802.892	20.64
803.067	27.34
803.241	27.11
803.416	27.08
803.59	25.8
803.765	24.92
803.94	29.49
804.114	28.89
804.289	26.81
804.463	26.57
804.638	28.62
804.812	25.76
804.986	25.1
805.161	23.19
805.335	25.37
805.51	23.56
805.684	26.3
805.858	22.84
806.033	25.46
806.207	28.77
806.381	29.95
806.556	28.87
806.73	29.54
806.904	28.08
807.078	29.47
807.253	29.8
807.427	31.06
807.601	32.63
807.775	36.17
807.949	32.26
808.123	28.03
808.298	27.82
808.472	29.79
808.646	29.66
808.82	31.28
808.994	30.49
809.168	31.19
809.342	34.5
809.516	33.41
809.69	32.4
809.864	36.68
810.038	38.63
810.212	38.26
810.385	37.54
810.559	40.03
810.733	39.32
810.907	42.33
811.081	37.47
811.255	34.31
811.428	35.44
811.602	35.08
811.776	35.89
811.95	30.8
812.123	34.87
812.297	34.94
812.471	34.51
812.644	34.63
812.818	34.3
812.992	37.15
813.165	37.31
813.339	32.02
813.512	32.08
813.686	30.61
813.86	33.04
814.033	30.23
814.207	27.75
814.38	31.35
814.554	29.17
814.727	26.75
814.9	23.12
815.074	27.3
815.247	26.78
815.421	25.01
815.594	23.2
815.767	22.87
815.941	20.66
816.114	26.15
816.287	18.33
816.46	17.49
816.634	20.81
816.807	21.9
816.98	21.33
817.153	25.41
817.327	25.71
817.5	27.67
817.673	30.74
817.846	32.47
818.019	30.72
818.192	33.5
818.365	35.27
818.538	34.66
818.711	38.99
818.884	38.41
819.057	40.58
819.23	38.63
819.403	34.01
819.576	31.75
819.749	35.44
819.922	31.67
820.095	29.44
820.268	26.7
820.441	28.02
820.614	27.67
820.786	26.51
820.959	23.08
821.132	25.93
821.305	27.31
821.477	27.59
821.65	28.46
821.823	30.62
821.996	31.68
822.168	32.74
822.341	31.48
822.514	30.44
822.686	30.73
822.859	31.96
823.031	31.15
823.204	31.26
823.376	31.36
823.549	30.1
823.722	28.7
823.894	27.87
824.067	27.94
824.239	28.4
824.411	28.91
824.584	28.13
824.756	27.12
824.929	26.77
825.101	27.11
825.273	27.71
825.446	28.17
825.618	28.75
825.79	28.82
825.963	27.9
826.135	28.57
826.307	28.68
826.479	28.79
826.652	29.44
826.824	30.13
826.996	29.52
827.168	29.18
827.34	28.73
827.512	29.75
827.684	29.89
827.856	29.3
828.029	29.84
828.201	29.69
828.373	30.15
828.545	31.06
828.717	32.2
828.889	29.8
829.061	29.55
829.232	29.48
829.404	26.07
829.576	26.28
829.748	28.27
829.92	26.07
830.092	26.9
830.264	25.85
830.436	24.55
830.607	25.66
830.779	28.77
830.951	28.98
831.123	31.72
831.294	36.46
831.466	37
831.638	33.34
831.809	33.48
831.981	33.32
832.153	33.96
832.324	29.82
832.496	28.38
832.667	29.54
832.839	26.23
833.011	24.82
833.182	23.24
833.354	24.26
833.525	26.4
833.697	27.53
833.868	27.33
834.039	29.04
834.211	29.84
834.382	28.43
834.554	28.26
834.725	28.59
834.896	27.53
835.068	29.83
835.239	29.17
835.41	29.56
835.581	28.12
835.753	26.41
835.924	21.85
836.095	23.33
836.266	25.25
836.438	27.58
836.609	29.79
836.78	30.07
836.951	27.71
837.122	26.08
837.293	27.48
837.464	30.56
837.635	30.72
837.806	30.81
837.977	30.95
838.148	25.75
838.319	20.49
838.49	18.92
838.661	17.07
838.832	15.65
839.003	18.12
839.174	10.42
839.345	6
839.516	-0.6
839.687	4.36
839.857	0.99
840.028	2.84
840.199	4.38
840.37	12.86
840.54	16.29
840.711	20.68
840.882	13.21
841.053	20.95
841.223	22.16
841.394	28.22
841.564	31.21
841.735	31.82
841.906	37.61
842.076	36.24
842.247	28.67
842.417	34.71
842.588	29.18
842.758	38.02
842.929	33.11
843.099	36.12
843.27	41.15
843.44	42.88
843.611	41.11
843.781	35.96
843.951	39.11
844.122	38.4
844.292	25.66
844.462	29.73
844.633	30.38
844.803	36.34
844.973	25.08
845.144	21.51
845.314	16.79
845.484	22.72
845.654	26.2
845.824	17.63
845.995	27.3
846.165	25.95
846.335	35.38
846.505	29.23
846.675	17.6
846.845	26.69
847.015	24.36
847.185	31.87
847.355	31.69
847.525	26.21
847.695	37.17
847.865	30.67
848.035	38.27
848.205	26.9
848.375	33.46
848.545	48
848.715	41.96
848.884	40.34
849.054	48.35
849.224	50.74
849.394	55
849.564	52.95
849.733	54.43
849.903	65.91
850.073	41.99
850.243	52.48
850.412	45.54
850.582	43.99
850.752	41.01
850.921	47.01
851.091	29.39
851.26	28.96
851.43	25.05
851.599	19.76
851.769	21.55
851.939	20.7
852.108	16.47
852.278	5.46
852.447	19.79
852.616	11.73
852.786	-3.12
852.955	5.83
853.125	19.75
853.294	39.86
853.463	42.29
853.633	36.99
853.802	50.38
853.971	39.78
854.141	75.76
854.31	77.94
854.479	87.33
854.648	89.31
854.818	82.93
854.987	67.58
855.156	76.11
855.325	84.7
855.494	85.91
855.663	90.05
855.832	104.66
856.001	89.54
856.171	78.42
856.34	76.79
856.509	72.76
856.678	89.24
856.847	95.81
857.016	79.1
857.185	70.89
857.353	75.32
857.522	81.08
857.691	78.59
857.86	73.38
858.029	69.01
858.198	46.73
858.367	64.16
858.535	75.2
858.704	72.2
858.873	73.24
859.042	49.21
859.21	69.75
859.379	74.23
859.548	70.08
859.717	57.08
859.885	63.17
860.054	88
860.222	76.84
860.391	58.82
860.56	49.79
860.728	56.98
860.897	61.83
861.065	55.68
861.234	43.35
861.402	39.3
861.571	45.35
861.739	34.32
861.908	27.2
862.076	6.08
862.244	3.27
862.413	-2.15
862.581	4.14
862.749	-7.62
862.918	-16.21
863.086	-10.21
863.254	-12.46
863.423	-27.16
863.591	-0.24
863.759	2.6
863.927	3.43
864.096	9.75
864.264	24.29
864.432	9.49
864.6	36.98
864.768	56.73
864.936	97.19
865.104	117.27
865.272	112.06
865.44	101.56
865.608	76.14
865.776	130.51
865.944	108.24
866.112	78.93
866.28	71.91
866.448	70.67
866.616	42.71
866.784	21.08
866.952	3.61
867.12	10.58
867.288	11.37
867.455	27.66
867.623	-6.25
867.791	14.32
867.959	27.93
868.127	35.67
868.294	44.23
868.462	52.12
868.63	44.95
868.797	63.53
868.965	43.93
869.133	58.23
869.3	27.25
869.468	31.17
869.636	25.32
869.803	17.7
869.971	28.71
870.138	25.93
870.306	27.95
870.473	32.46
870.641	29.86
870.808	44.94
870.975	37.19
871.143	40.02
871.31	37.83
871.478	46.48
871.645	45.72
871.812	43.88
871.98	38.53
872.147	44.18
872.314	39.5
872.482	39.71
872.649	21.89
872.816	15.31
872.983	29.77
873.15	46.91
873.318	41.11
873.485	46.43
873.652	26.01
873.819	29.89
873.986	28.15
874.153	35.55
874.32	32.73
874.487	52.76
874.654	69.34
874.821	53.83
874.988	47.27
875.155	43.15
875.322	51.37
875.489	56.93
875.656	58.89
875.823	64.08
875.99	57.8
876.157	53.17
876.324	37.67
876.49	21.63
876.657	35.3
876.824	40.06
876.991	44.53
877.157	35.04
877.324	34.99
877.491	31.27
877.658	13.15
877.824	23.86
877.991	36.78
878.157	48.22
878.324	55.06
878.491	61.57
878.657	51.33
878.824	48.77
878.99	60.96
879.157	35.98
879.323	56.7
879.49	69.31
879.656	66.83
879.823	28.87
879.989	2.64
880.156	36.52
880.322	4.05
880.488	51.11
880.655	32.53
880.821	12.93
880.987	47.2
881.154	38.15
881.32	38.7
881.486	44.66
881.652	47.8
881.819	38.96
881.985	33.94
882.151	37.1
882.317	26.49
882.483	27.53
882.649	27.94
882.816	26.13
882.982	27.32
883.148	25.4
883.314	24.79
883.48	26.27
883.646	27.55
883.812	26.98
883.978	24.27
884.144	26.69
884.31	27.85
884.476	27.56
884.642	27.56
884.807	26.3
884.973	28.75
885.139	30.13
885.305	30.55
885.471	33.7
885.637	33.09
885.802	33.78
885.968	34.95
886.134	36.51
886.3	35.97
886.465	34.53
886.631	37.72
886.797	33.54
886.962	35.06
887.128	29.56
887.293	19.81
887.459	21.33
887.625	24.15
887.79	28.84
887.956	24.12
888.121	29.04
888.287	32.48
888.452	30.55
888.618	37.1
888.783	28.48
