Data from 2938096_Reflection_3.txt Node
Date: Sat Jul 11 19:01:11 EDT 2015
User: robert
Spectrometer: USB4E03001
Autoset integration time: false
Trigger mode: 4
Integration Time (sec): 1.000000E-1
Scans to average: 10
Electric dark correction enabled: true
Nonlinearity correction enabled: false
Boxcar width: 5
Stray light correction enabled: false
XAxis mode: Wavelengths
Stop averaging: false
Number of Pixels in Spectrum: 3648
>>>>>Begin Spectral Data<<<<<
177.566	315.73
177.785	352.56
178.005	464.08
178.225	196.87
178.445	121.78
178.665	72.85
178.885	58.61
179.105	140.35
179.324	159.34
179.544	152.18
179.764	72.32
179.984	180.32
180.204	84.78
180.423	19.22
180.643	33.44
180.863	49.42
181.083	31.85
181.302	41.49
181.522	-57.2
181.742	-24.9
181.961	6.75
182.181	25.33
182.401	262.96
182.621	37.61
182.84	17.35
183.06	211
183.279	57.57
183.499	153.39
183.719	101.75
183.938	115.4
184.158	99.91
184.377	95.34
184.597	116.97
184.816	164.43
185.036	114.01
185.256	98.43
185.475	92.79
185.695	108.77
185.914	83.16
186.134	21.53
186.353	-93.82
186.572	-23264.29
186.792	-59.58
187.011	-7.09
187.231	34.53
187.45	73.67
187.67	88.41
187.889	85.7
188.108	127.9
188.328	116.06
188.547	119.61
188.766	113.3
188.986	95.56
189.205	93.1
189.424	75.31
189.644	75.15
189.863	80.25
190.082	76.15
190.302	20.17
190.521	16.86
190.74	-39.73
190.959	-10.43
191.178	-252.56
191.398	-146.07
191.617	-35.96
191.836	-18.76
192.055	-18.91
192.274	-2.31
192.494	16.73
192.713	-1.17
192.932	-3.13
193.151	-28.72
193.37	-157.43
193.589	-86.09
193.808	-184.16
194.027	-95.07
194.246	-55.72
194.465	-196.89
194.685	1165.22
194.904	6688.61
195.123	1384.13
195.342	-2076.82
195.561	1395.63
195.78	-8.42
195.999	233.21
196.218	15
196.436	-18.66
196.655	0.76
196.874	94.93
197.093	80.6
197.312	137.27
197.531	148.66
197.75	-367.44
197.969	475.22
198.188	210.73
198.407	-363.28
198.625	-381.6
198.844	-32.81
199.063	-33.98
199.282	-92.03
199.501	-52.2
199.719	2.57
199.938	45.6
200.157	24.07
200.376	21.75
200.594	29.63
200.813	35.41
201.032	147.98
201.251	-5.17
201.469	-97.54
201.688	-149.14
201.907	-166.45
202.125	-163.83
202.344	-173.75
202.563	-215.52
202.781	-304.27
203	-135.05
203.218	-104.94
203.437	-351.72
203.656	-727.86
203.874	1477.55
204.093	376.88
204.311	406.31
204.53	464.77
204.748	423.16
204.967	1176.11
205.185	-920.06
205.404	544.77
205.622	285.02
205.841	545.64
206.059	315.19
206.278	388.86
206.496	-2431.75
206.715	703.46
206.933	421.03
207.151	216.98
207.37	190.65
207.588	244.32
207.806	403.49
208.025	-82.51
208.243	-169.68
208.461	-4.12
208.68	0.38
208.898	-1188.54
209.116	23.57
209.335	243.23
209.553	1.28
209.771	38.18
209.989	30.07
210.208	52.99
210.426	38.08
210.644	36.24
210.862	-30.55
211.081	189.16
211.299	704.6
211.517	87.24
211.735	120.85
211.953	50.62
212.171	100.67
212.39	73.25
212.608	135.11
212.826	108.44
213.044	105.28
213.262	90.4
213.48	141.92
213.698	171.56
213.916	172.71
214.134	87.29
214.352	51.05
214.57	30.58
214.788	26.15
215.006	43.75
215.224	1.71
215.442	-39.29
215.66	-39.15
215.878	-84.38
216.096	-197.13
216.314	-50
216.532	53.26
216.75	52.01
216.968	82.04
217.185	96.35
217.403	-22.65
217.621	-72.93
217.839	-34.95
218.057	5.21
218.275	-2.44
218.492	3.33
218.71	-21.86
218.928	-56.78
219.146	-87.53
219.363	-122.92
219.581	-104.17
219.799	-23.31
220.017	29.1
220.234	85.24
220.452	115.52
220.67	132.3
220.887	71.38
221.105	81.08
221.323	72.79
221.54	78.26
221.758	83.55
221.976	77.77
222.193	54.93
222.411	53.99
222.629	17.92
222.846	16.24
223.064	36.69
223.281	53.84
223.499	51.69
223.716	33.71
223.934	25.95
224.151	8.94
224.369	3.86
224.586	12.76
224.804	16.53
225.021	34.07
225.239	21.45
225.456	3.02
225.674	2.79
225.891	5.82
226.108	20.88
226.326	21.82
226.543	26.75
226.76	26.6
226.978	17.39
227.195	18.2
227.413	3.15
227.63	5.59
227.847	2.03
228.064	-1.53
228.282	-2.85
228.499	-0.23
228.716	0.19
228.934	-0.95
229.151	-1.91
229.368	-1.7
229.585	-2.33
229.802	-0.57
230.02	-1.3
230.237	-1.5
230.454	2.95
230.671	4.92
230.888	-0.22
231.105	-0.39
231.323	1.36
231.54	0.88
231.757	-1.15
231.974	0.33
232.191	5.46
232.408	9.55
232.625	9.6
232.842	3.33
233.059	2.61
233.276	5.63
233.493	10.85
233.71	16.59
233.927	18.82
234.144	19.31
234.361	11.67
234.578	12.97
234.795	2.95
235.012	12.09
235.229	18.57
235.446	12.65
235.663	7.05
235.879	-2.56
236.096	-11.53
236.313	-11.5
236.53	-8.97
236.747	-6.66
236.964	-11.17
237.181	-9.05
237.397	-17.91
237.614	-23
237.831	-12.99
238.048	-4.72
238.264	-2.91
238.481	-4.92
238.698	-10.09
238.915	-8.7
239.131	-4.34
239.348	-5.03
239.565	-5.66
239.781	-4.44
239.998	-2.26
240.215	-4.78
240.431	-5.34
240.648	1.33
240.865	4.57
241.081	6.16
241.298	6.86
241.514	7.88
241.731	7.8
241.947	9.11
242.164	9.25
242.38	7.4
242.597	8.05
242.814	8.73
243.03	6.32
243.246	6.03
243.463	7.34
243.679	7.96
243.896	8.01
244.112	7.77
244.329	9.07
244.545	8.04
244.762	9.31
244.978	8.14
245.194	9.12
245.411	9.32
245.627	7.76
245.843	6.42
246.06	5.64
246.276	4.28
246.492	4.97
246.709	4.28
246.925	4.83
247.141	4.22
247.357	4.85
247.574	4.47
247.79	3.56
248.006	3.76
248.222	4.17
248.439	4.16
248.655	3.72
248.871	4.01
249.087	3
249.303	2.58
249.519	3.7
249.736	2.75
249.952	4.19
250.168	5.99
250.384	4.66
250.6	1.45
250.816	0.09
251.032	0.51
251.248	-2.51
251.464	-1.64
251.68	-0.66
251.896	-2.2
252.112	-2.99
252.328	-7.14
252.544	-6.98
252.76	-5.03
252.976	-2.83
253.192	-2.56
253.408	-2.05
253.624	0.92
253.84	-1.15
254.056	1.67
254.272	4
254.487	5.93
254.703	7.87
254.919	7.56
255.135	8.4
255.351	6.36
255.567	9.43
255.782	10.27
255.998	8.97
256.214	12.49
256.43	8.73
256.646	5.18
256.861	7.6
257.077	9.61
257.293	8.07
257.508	6.56
257.724	7.7
257.94	4.74
258.155	2.3
258.371	2.4
258.587	1.16
258.802	2.57
259.018	3.44
259.234	2.46
259.449	2.07
259.665	2.51
259.88	3.34
260.096	3.31
260.312	3.53
260.527	4.46
260.743	3.84
260.958	4.07
261.174	3.88
261.389	3.26
261.605	3.31
261.82	3.25
262.036	2.59
262.251	1.68
262.466	1.5
262.682	0.69
262.897	-0.71
263.113	-0.23
263.328	-0.41
263.543	-1
263.759	0.92
263.974	1.33
264.189	0.97
264.405	2.07
264.62	0.1
264.835	0.04
265.051	-0.2
265.266	-0.37
265.481	-1.13
265.696	0.69
265.912	1.74
266.127	1.03
266.342	1.32
266.557	2.18
266.773	1.79
266.988	1.7
267.203	1.63
267.418	1.75
267.633	1.69
267.848	2.07
268.064	1.83
268.279	0.47
268.494	-1.16
268.709	-3.33
268.924	-5.63
269.139	-5.81
269.354	-4.42
269.569	-3.57
269.784	-2.24
269.999	-0.53
270.214	-1.38
270.429	-0.34
270.644	1.82
270.859	2.26
271.074	3.55
271.289	4.92
271.504	5.69
271.719	6.22
271.934	5.91
272.149	5.4
272.363	4.7
272.578	5.65
272.793	5.05
273.008	3.17
273.223	4.33
273.438	4.41
273.653	5.14
273.867	4.37
274.082	4.44
274.297	4.37
274.512	4.84
274.726	5.51
274.941	6.11
275.156	4.9
275.371	5.01
275.585	4.53
275.8	5.52
276.015	5.19
276.229	5.17
276.444	5.09
276.659	4.37
276.873	3.89
277.088	5.22
277.302	3.87
277.517	4.28
277.732	3.86
277.946	2.83
278.161	1.77
278.375	-1.28
278.59	1.82
278.804	1.12
279.019	3.35
279.233	4.13
279.448	1.47
279.662	3.63
279.877	3.3
280.091	3.73
280.306	6.98
280.52	6.67
280.735	8.62
280.949	7.51
281.163	6.43
281.378	4.77
281.592	3.16
281.806	2.75
282.021	2.04
282.235	1.98
282.449	2.85
282.664	0.39
282.878	1.55
283.092	1.85
283.307	1.69
283.521	2.29
283.735	2.62
283.949	3.37
284.164	4.53
284.378	4.28
284.592	4.27
284.806	3.06
285.02	3.63
285.234	3.45
285.449	3.65
285.663	3.72
285.877	4.55
286.091	4.49
286.305	6.49
286.519	6.14
286.733	6.69
286.947	7.06
287.161	8.35
287.375	8.75
287.589	8.09
287.803	8.98
288.017	9.02
288.231	8.41
288.445	8.2
288.659	5.76
288.873	5.94
289.087	4.92
289.301	5.25
289.515	4.01
289.729	1.73
289.943	2.57
290.157	1.25
290.371	1.41
290.584	0.43
290.798	1.42
291.012	1.4
291.226	2.24
291.44	3.68
291.654	3.5
291.867	4.43
292.081	5.11
292.295	5.36
292.509	6.48
292.722	5.28
292.936	6.18
293.15	4.14
293.364	4.31
293.577	3.15
293.791	2.28
294.005	2.54
294.218	2.94
294.432	5.66
294.645	4.59
294.859	2.35
295.073	3.48
295.286	3.35
295.5	3.87
295.713	5.03
295.927	5.14
296.14	4.17
296.354	4.62
296.568	4.19
296.781	1.85
296.994	3.85
297.208	4.27
297.421	4.38
297.635	4.57
297.848	4.26
298.062	4.29
298.275	5.13
298.489	5.48
298.702	3.9
298.915	3.96
299.129	4.77
299.342	2.49
299.555	3.09
299.769	3.29
299.982	4.34
300.195	4.55
300.409	2.98
300.622	2.7
300.835	2.72
301.048	4.67
301.262	5.03
301.475	6.49
301.688	6.94
301.901	7.89
302.115	8.23
302.328	7.01
302.541	7.73
302.754	9.57
302.967	8.21
303.18	8.21
303.393	9.47
303.607	9.79
303.82	8.56
304.033	8.96
304.246	7.62
304.459	7.38
304.672	7.63
304.885	8.99
305.098	6.71
305.311	8.25
305.524	8.26
305.737	6.41
305.95	5.96
306.163	5.27
306.376	5.69
306.589	6.5
306.802	6.17
307.015	4.94
307.228	2.44
307.44	4.7
307.653	3.76
307.866	4.19
308.079	4.85
308.292	7.02
308.505	7.5
308.718	6.14
308.93	4.57
309.143	4.27
309.356	6.08
309.569	7.56
309.781	8.3
309.994	7.1
310.207	8.29
310.42	7.74
310.632	6.02
310.845	6.34
311.058	6.27
311.27	7.19
311.483	7.38
311.696	6.56
311.908	6.63
312.121	4.58
312.333	6.29
312.546	5.21
312.759	6.05
312.971	5.58
313.184	7.02
313.396	7.66
313.609	8.3
313.821	8.2
314.034	9.22
314.246	8.84
314.459	10.96
314.671	11.01
314.884	10.09
315.096	10.59
315.309	10.11
315.521	9.41
315.733	9.93
315.946	9.52
316.158	9.38
316.371	9
316.583	9.66
316.795	9.14
317.008	8.95
317.22	9.83
317.432	8.91
317.644	9.95
317.857	10.41
318.069	10.08
318.281	10.56
318.494	10.04
318.706	10.02
318.918	9.8
319.13	9.96
319.342	10.26
319.555	9.9
319.767	11
319.979	12.58
320.191	11.83
320.403	11.23
320.615	10.91
320.827	11.21
321.039	12.11
321.252	10.78
321.464	10.05
321.676	8.98
321.888	9.43
322.1	8.68
322.312	6.69
322.524	7.17
322.736	7.88
322.948	5.85
323.16	6.81
323.372	6.81
323.584	6.36
323.796	7.66
324.007	8.41
324.219	8.15
324.431	6.68
324.643	7.34
324.855	6.81
325.067	6.25
325.279	7.87
325.491	7.9
325.702	7.25
325.914	9.06
326.126	7.48
326.338	6.52
326.55	7.12
326.761	8.13
326.973	8.58
327.185	8.54
327.396	9.31
327.608	10.23
327.82	10.96
328.032	10.17
328.243	10.97
328.455	11.93
328.666	11.89
328.878	11.77
329.09	11.73
329.301	11.54
329.513	12.65
329.725	14.19
329.936	14.19
330.148	13.86
330.359	15.53
330.571	15.26
330.782	14.2
330.994	15.11
331.205	14.86
331.417	13.58
331.628	14.66
331.84	15.19
332.051	12.96
332.262	12.12
332.474	11.38
332.685	11.08
332.897	9.43
333.108	10.94
333.319	11.7
333.531	11.69
333.742	13.89
333.953	13.07
334.165	12.57
334.376	14.13
334.587	13.81
334.799	14.05
335.01	15.11
335.221	16.08
335.432	16.62
335.644	16.28
335.855	15.44
336.066	14.79
336.277	14.57
336.488	14.11
336.7	13.55
336.911	15.08
337.122	15.73
337.333	15.78
337.544	15.7
337.755	16.14
337.966	16.01
338.177	17.78
338.388	18.92
338.599	19.19
338.811	18.74
339.022	19
339.233	18.52
339.444	16.93
339.655	15.25
339.866	15.52
340.076	13.43
340.287	13.48
340.498	13.64
340.709	12.73
340.92	12.54
341.131	14.22
341.342	14.22
341.553	15.01
341.764	16.15
341.975	15.68
342.185	14.77
342.396	15.85
342.607	15.6
342.818	15.18
343.029	15.96
343.239	16.48
343.45	15.1
343.661	14.01
343.872	13.67
344.082	13.41
344.293	15.05
344.504	16.05
344.714	15.29
344.925	15.51
345.136	16.32
345.346	15.62
345.557	15.65
345.768	16.13
345.978	16.87
346.189	15.28
346.399	15.85
346.61	16.16
346.821	15.47
347.031	15.94
347.242	15.47
347.452	14.63
347.663	13.8
347.873	14.07
348.084	14.54
348.294	14.24
348.504	14.73
348.715	13.81
348.925	13.04
349.136	14.71
349.346	14.24
349.557	15.32
349.767	14.85
349.977	15.44
350.188	14.95
350.398	14.14
350.608	15.7
350.819	16.48
351.029	17.74
351.239	18.35
351.449	17.93
351.66	18.37
351.87	19.56
352.08	19.79
352.29	20.37
352.501	20.44
352.711	21.84
352.921	21.75
353.131	21.63
353.341	20.97
353.552	20.74
353.762	20.78
353.972	21.22
354.182	19.89
354.392	19.84
354.602	19.09
354.812	20.42
355.022	20.28
355.232	19.5
355.442	19.12
355.652	17.99
355.862	17.41
356.072	17.12
356.282	16.82
356.492	16.59
356.702	16.36
356.912	16.39
357.122	15
357.332	14.47
357.542	14.75
357.752	15.11
357.962	16.23
358.171	15.83
358.381	15.89
358.591	16.09
358.801	16.37
359.011	17.1
359.221	16.92
359.43	17.44
359.64	16.7
359.85	16.88
360.06	17.22
360.269	17.23
360.479	18.2
360.689	18.13
360.899	18.27
361.108	17.63
361.318	16.71
361.528	16.56
361.737	16.35
361.947	17.07
362.156	17.02
362.366	17.14
362.576	16.95
362.785	16.46
362.995	16.76
363.204	16.69
363.414	16.41
363.623	16.79
363.833	17.36
364.042	16.81
364.252	16.47
364.461	15.97
364.671	14.84
364.88	15.54
365.09	15.84
365.299	15.97
365.509	15.77
365.718	16.98
365.927	17.02
366.137	17.39
366.346	17.6
366.555	17.88
366.765	17.71
366.974	18.32
367.183	17.39
367.393	17.26
367.602	16.92
367.811	16.75
368.021	16.22
368.23	16.69
368.439	16.39
368.648	16.82
368.857	16.28
369.067	16.63
369.276	17.09
369.485	17.19
369.694	17.16
369.903	16.35
370.112	16.88
370.321	16.68
370.531	16.11
370.74	16.33
370.949	16.75
371.158	16.75
371.367	16.6
371.576	16.02
371.785	15.41
371.994	14.77
372.203	14.88
372.412	14.21
372.621	14.13
372.83	13.87
373.039	13.96
373.248	13.54
373.457	13.62
373.666	13.76
373.874	13.88
374.083	15.24
374.292	15.89
374.501	16.02
374.71	16.52
374.919	16.64
375.128	16.45
375.336	16.86
375.545	16.94
375.754	17.49
375.963	17.22
376.171	16.81
376.38	16.21
376.589	16.64
376.798	17.49
377.006	16.69
377.215	17.02
377.424	17.63
377.632	17.17
377.841	17.21
378.05	16.87
378.258	16.91
378.467	17.46
378.675	17.47
378.884	17.52
379.093	16.72
379.301	17.16
379.51	17.06
379.718	16.6
379.927	16.37
380.135	16.03
380.344	16.36
380.552	16.83
380.761	16.39
380.969	16.18
381.177	15.64
381.386	16.03
381.594	15.93
381.803	16.03
382.011	16.57
382.219	17.12
382.428	17.39
382.636	16.43
382.845	15.95
383.053	16.49
383.261	16.96
383.469	16.92
383.678	16.61
383.886	16.8
384.094	16.86
384.302	17.4
384.511	16.5
384.719	16.83
384.927	17.49
385.135	17.17
385.343	16.56
385.552	15.96
385.76	15.81
385.968	15.75
386.176	15.47
386.384	15.53
386.592	14.8
386.8	14.9
387.008	14.46
387.216	13.97
387.424	14.28
387.633	15.18
387.841	15.34
388.049	15.45
388.257	15.57
388.465	16.05
388.672	15.58
388.88	15.52
389.088	15.88
389.296	15.74
389.504	16.02
389.712	16.35
389.92	15.41
390.128	15.42
390.336	15.39
390.544	15.58
390.751	15.04
390.959	15.25
391.167	15.28
391.375	15.44
391.583	15.57
391.79	15.79
391.998	15.64
392.206	16.03
392.414	16.31
392.621	16.55
392.829	16.34
393.037	16.83
393.244	16.81
393.452	17.13
393.66	17.1
393.867	17.26
394.075	16.97
394.283	16.88
394.49	17.02
394.698	17.19
394.905	16.86
395.113	16.96
395.32	16.91
395.528	16.88
395.735	16.53
395.943	16.37
396.15	16.09
396.358	16.62
396.565	16.74
396.773	16.32
396.98	16.09
397.188	16.32
397.395	16.44
397.602	16.58
397.81	17.02
398.017	17.27
398.225	17.27
398.432	17.13
398.639	16.79
398.847	16.91
399.054	17.34
399.261	17.4
399.468	17.42
399.676	17.54
399.883	17.32
400.09	17.19
400.297	17.38
400.505	17.19
400.712	17.42
400.919	17.79
401.126	17.48
401.333	17.31
401.54	17.23
401.748	17.28
401.955	17.08
402.162	17.29
402.369	17.4
402.576	17.47
402.783	17.73
402.99	18.13
403.197	17.77
403.404	18.05
403.611	18.07
403.818	18.07
404.025	18.25
404.232	18.58
404.439	18.51
404.646	18.77
404.853	18.85
405.06	18.96
405.267	18.94
405.474	18.86
405.681	18.86
405.887	18.9
406.094	19
406.301	18.83
406.508	18.73
406.715	18.7
406.922	18.42
407.128	18.43
407.335	18.53
407.542	18.54
407.749	18.73
407.955	18.67
408.162	18.9
408.369	18.93
408.575	19.01
408.782	18.92
408.989	19.22
409.195	19.06
409.402	18.9
409.609	18.89
409.815	18.62
410.022	18.52
410.228	18.64
410.435	18.54
410.642	18.66
410.848	18.71
411.055	18.97
411.261	18.74
411.468	18.64
411.674	18.66
411.881	18.61
412.087	18.75
412.294	18.71
412.5	18.67
412.706	18.65
412.913	18.47
413.119	18.28
413.326	17.93
413.532	17.92
413.738	18.11
413.945	18.04
414.151	18.02
414.357	17.98
414.564	18.08
414.77	17.88
414.976	17.85
415.182	17.94
415.389	18.14
415.595	18.36
415.801	18.12
416.007	18.2
416.214	18.1
416.42	18.15
416.626	18.14
416.832	18.28
417.038	18.66
417.244	18.71
417.45	18.81
417.657	18.69
417.863	18.63
418.069	18.96
418.275	18.81
418.481	18.71
418.687	18.64
418.893	18.79
419.099	18.79
419.305	18.74
419.511	18.72
419.717	18.67
419.923	18.56
420.129	18.6
420.335	18.57
420.541	18.69
420.746	18.84
420.952	18.82
421.158	18.85
421.364	18.74
421.57	18.72
421.776	18.75
421.982	18.68
422.187	18.82
422.393	18.66
422.599	18.6
422.805	18.53
423.01	18.38
423.216	18.4
423.422	18.3
423.628	18.3
423.833	18.19
424.039	18.09
424.245	18.02
424.45	17.98
424.656	18.17
424.862	18.14
425.067	18.19
425.273	18.37
425.478	18.36
425.684	18.29
425.889	18.36
426.095	18.45
426.301	18.61
426.506	18.75
426.712	18.66
426.917	18.37
427.123	18.46
427.328	18.18
427.533	18.05
427.739	17.96
427.944	17.99
428.15	17.94
428.355	17.75
428.561	17.7
428.766	17.57
428.971	17.51
429.177	17.68
429.382	17.68
429.587	17.84
429.793	17.78
429.998	17.95
430.203	18.01
430.408	17.91
430.614	17.79
430.819	17.71
431.024	17.58
431.229	17.77
431.434	17.76
431.64	17.73
431.845	17.8
432.05	17.59
432.255	17.49
432.46	17.36
432.665	17.45
432.87	17.79
433.076	17.66
433.281	17.88
433.486	17.86
433.691	17.73
433.896	17.75
434.101	17.66
434.306	17.9
434.511	17.8
434.716	17.71
434.921	17.78
435.126	17.55
435.331	17.69
435.535	17.62
435.74	17.54
435.945	17.74
436.15	17.68
436.355	17.71
436.56	17.63
436.765	17.72
436.97	17.8
437.174	17.55
437.379	17.55
437.584	17.49
437.789	17.38
437.993	17.36
438.198	17.37
438.403	17.51
438.608	17.62
438.812	17.63
439.017	17.63
439.222	17.68
439.426	17.79
439.631	17.71
439.836	17.77
440.04	17.79
440.245	17.83
440.45	17.72
440.654	17.56
440.859	17.42
441.063	17.51
441.268	17.48
441.472	17.44
441.677	17.43
441.881	17.52
442.086	17.54
442.29	17.45
442.495	17.38
442.699	17.53
442.904	17.61
443.108	17.5
443.312	17.28
443.517	17.3
443.721	17.29
443.925	17.16
444.13	17.17
444.334	16.95
444.538	17.14
444.743	17.18
444.947	16.95
445.151	17.05
445.356	17.27
445.56	17.29
445.764	17.19
445.968	17.12
446.173	17.19
446.377	17.31
446.581	17.4
446.785	17.25
446.989	17.2
447.193	17.29
447.398	16.99
447.602	16.88
447.806	17
448.01	17.08
448.214	17.07
448.418	17.21
448.622	16.96
448.826	16.87
449.03	16.95
449.234	17.28
449.438	17.09
449.642	17.22
449.846	17.15
450.05	17.24
450.254	17.27
450.458	17.34
450.662	17.28
450.866	17.2
451.069	17.35
451.273	17.36
451.477	16.92
451.681	17.03
451.885	17.16
452.089	17.39
452.292	17.2
452.496	17.17
452.7	17.23
452.904	17.09
453.107	17.3
453.311	17.08
453.515	16.93
453.719	17.03
453.922	16.96
454.126	16.6
454.33	16.43
454.533	16.5
454.737	16.58
454.94	16.74
455.144	16.76
455.348	16.76
455.551	16.89
455.755	17.03
455.958	17.03
456.162	17.12
456.365	17.4
456.569	17.48
456.772	17.28
456.976	17.04
457.179	16.84
457.383	16.67
457.586	16.75
457.79	16.81
457.993	16.68
458.196	16.79
458.4	16.83
458.603	16.8
458.807	16.76
459.01	16.9
459.213	17.08
459.417	17.2
459.62	17.35
459.823	17.27
460.026	17.23
460.23	17.37
460.433	17.37
460.636	17.48
460.839	17.35
461.042	17.21
461.246	17.23
461.449	17.15
461.652	17.09
461.855	17.08
462.058	17
462.261	16.95
462.464	16.96
462.668	16.97
462.871	16.67
463.074	16.89
463.277	16.98
463.48	17.01
463.683	17.1
463.886	16.95
464.089	16.99
464.292	17.18
464.495	17.21
464.698	17.1
464.901	17.1
465.104	17.15
465.306	17.21
465.509	17.35
465.712	17.41
465.915	17.22
466.118	17.39
466.321	17.33
466.524	17.38
466.726	17.35
466.929	17.31
467.132	17.3
467.335	17.48
467.538	17.26
467.74	17.13
467.943	17.06
468.146	17.16
468.348	17.1
468.551	17.03
468.754	16.92
468.956	16.95
469.159	16.9
469.362	16.9
469.564	16.81
469.767	16.97
469.969	17
470.172	16.69
470.375	16.59
470.577	16.8
470.78	17.05
470.982	16.95
471.185	17.12
471.387	17.22
471.59	17.17
471.792	17.26
471.995	17.34
472.197	17.46
472.399	17.65
472.602	17.79
472.804	17.56
473.007	17.48
473.209	17.6
473.411	17.4
473.614	17.41
473.816	17.48
474.018	17.4
474.22	17.06
474.423	17.16
474.625	17.28
474.827	17.21
475.03	17.07
475.232	17.07
475.434	17.2
475.636	17.33
475.838	17.32
476.04	17.2
476.243	17.21
476.445	17.48
476.647	17.2
476.849	17.26
477.051	17.21
477.253	17.36
477.455	17.26
477.657	17.16
477.859	17.26
478.061	17.37
478.263	17.39
478.465	17.46
478.667	17.6
478.869	17.83
479.071	17.81
479.273	17.92
479.475	17.91
479.677	18.06
479.879	18.22
480.081	18.04
480.283	18
480.485	18.02
480.686	17.92
480.888	17.79
481.09	17.69
481.292	17.63
481.494	17.64
481.695	17.65
481.897	17.64
482.099	17.59
482.301	17.67
482.502	17.75
482.704	17.78
482.906	17.81
483.107	17.86
483.309	17.89
483.511	17.92
483.712	17.95
483.914	17.99
484.115	17.97
484.317	17.96
484.519	17.98
484.72	17.95
484.922	17.99
485.123	17.97
485.325	17.9
485.526	17.9
485.728	17.88
485.929	17.89
486.131	17.91
486.332	17.89
486.534	17.92
486.735	17.85
486.936	17.8
487.138	17.73
487.339	17.73
487.541	17.79
487.742	17.82
487.943	17.79
488.144	17.75
488.346	17.7
488.547	17.69
488.748	17.65
488.95	17.72
489.151	17.79
489.352	17.82
489.553	17.83
489.755	17.9
489.956	17.8
490.157	17.8
490.358	17.74
490.559	17.65
490.76	17.74
490.961	17.8
491.163	17.81
491.364	17.81
491.565	17.77
491.766	17.82
491.967	17.7
492.168	17.72
492.369	17.77
492.57	17.82
492.771	17.93
492.972	17.83
493.173	17.75
493.374	17.72
493.575	17.64
493.776	17.63
493.976	17.44
494.177	17.48
494.378	17.59
494.579	17.51
494.78	17.58
494.981	17.56
495.182	17.64
495.382	17.74
495.583	17.56
495.784	17.71
495.985	17.76
496.185	17.89
496.386	17.87
496.587	17.61
496.788	17.56
496.988	17.49
497.189	17.55
497.39	17.52
497.59	17.44
497.791	17.5
497.992	17.43
498.192	17.45
498.393	17.48
498.593	17.46
498.794	17.66
498.994	17.74
499.195	17.7
499.395	17.67
499.596	17.74
499.796	17.72
499.997	17.81
500.197	17.81
500.398	17.73
500.598	17.74
500.799	17.76
500.999	17.8
501.199	17.94
501.4	18.08
501.6	18
501.801	17.81
502.001	17.85
502.201	17.77
502.402	17.7
502.602	17.75
502.802	17.63
503.002	17.71
503.203	17.78
503.403	17.64
503.603	17.52
503.803	17.57
504.003	17.78
504.204	17.81
504.404	17.8
504.604	17.78
504.804	17.72
505.004	17.91
505.204	17.85
505.404	17.74
505.604	17.6
505.804	17.71
506.005	17.56
506.205	17.52
506.405	17.54
506.605	17.6
506.805	17.61
507.005	17.77
507.204	17.57
507.404	17.72
507.604	17.7
507.804	17.96
508.004	17.92
508.204	18
508.404	18.02
508.604	18.06
508.804	18.2
509.003	18.42
509.203	18.47
509.403	18.71
509.603	18.7
509.803	18.78
510.002	18.62
510.202	18.76
510.402	18.79
510.602	18.72
510.801	18.69
511.001	18.53
511.201	18.42
511.4	18.34
511.6	18.27
511.8	18.27
511.999	18.26
512.199	18.32
512.398	18.18
512.598	18.2
512.797	18.35
512.997	18.25
513.197	18.23
513.396	18.15
513.596	18.12
513.795	18.08
513.994	18.07
514.194	18.12
514.393	18.06
514.593	18.17
514.792	18.23
514.992	18.04
515.191	18.24
515.39	18.34
515.59	18.44
515.789	18.47
515.988	18.46
516.188	18.52
516.387	18.33
516.586	18.4
516.786	18.35
516.985	18.39
517.184	18.39
517.383	18.26
517.582	18.33
517.782	18.34
517.981	18.54
518.18	18.65
518.379	18.6
518.578	18.7
518.777	18.65
518.976	18.6
519.176	18.52
519.375	18.62
519.574	18.72
519.773	18.57
519.972	18.54
520.171	18.29
520.37	18.23
520.569	18.31
520.768	18.39
520.967	18.48
521.166	18.64
521.365	18.63
521.564	18.73
521.762	18.65
521.961	18.81
522.16	18.92
522.359	19.01
522.558	18.94
522.757	18.95
522.956	18.78
523.154	18.77
523.353	18.63
523.552	18.67
523.751	18.67
523.949	18.72
524.148	18.7
524.347	18.81
524.546	18.83
524.744	18.99
524.943	18.86
525.142	19.06
525.34	19.07
525.539	19.15
525.737	19.17
525.936	19.1
526.135	19.23
526.333	19.27
526.532	19.16
526.73	19.2
526.929	19.23
527.127	19.27
527.326	19.32
527.524	19.38
527.723	19.4
527.921	19.47
528.12	19.52
528.318	19.49
528.516	19.49
528.715	19.51
528.913	19.56
529.112	19.55
529.31	19.6
529.508	19.49
529.707	19.49
529.905	19.48
530.103	19.44
530.301	19.4
530.5	19.39
530.698	19.45
530.896	19.51
531.094	19.5
531.293	19.49
531.491	19.58
531.689	19.73
531.887	19.67
532.085	19.76
532.283	19.75
532.481	19.8
532.68	19.84
532.878	19.84
533.076	19.76
533.274	19.71
533.472	19.68
533.67	19.62
533.868	19.58
534.066	19.66
534.264	19.56
534.462	19.65
534.66	19.66
534.858	19.59
535.056	19.66
535.253	19.74
535.451	19.82
535.649	19.88
535.847	19.87
536.045	19.93
536.243	19.89
536.441	20.01
536.638	19.98
536.836	20.01
537.034	20.11
537.232	19.99
537.43	19.99
537.627	19.93
537.825	19.94
538.023	19.99
538.22	19.98
538.418	20.06
538.616	19.99
538.813	19.97
539.011	19.97
539.209	20.14
539.406	20.22
539.604	20.38
539.801	20.45
539.999	20.5
540.196	20.67
540.394	20.66
540.591	20.65
540.789	20.68
540.986	20.79
541.184	20.85
541.381	20.81
541.579	20.88
541.776	20.79
541.974	20.88
542.171	20.94
542.368	20.89
542.566	20.92
542.763	20.97
542.96	21.04
543.158	21.03
543.355	21.04
543.552	21.05
543.75	21.06
543.947	21.16
544.144	21.11
544.341	21.12
544.539	21.17
544.736	21.2
544.933	21.28
545.13	21.36
545.327	21.4
545.524	21.43
545.722	21.36
545.919	21.31
546.116	21.4
546.313	21.53
546.51	21.49
546.707	21.48
546.904	21.58
547.101	21.51
547.298	21.5
547.495	21.52
547.692	21.59
547.889	21.64
548.086	21.7
548.283	21.69
548.48	21.45
548.677	21.41
548.874	21.39
549.07	21.05
549.267	21.12
549.464	21.04
549.661	20.86
549.858	20.62
550.055	20.63
550.251	20.76
550.448	20.6
550.645	20.55
550.842	20.61
551.038	20.76
551.235	21.09
551.432	20.92
551.628	21.05
551.825	21.41
552.022	21.56
552.218	21.58
552.415	21.44
552.612	21.5
552.808	21.74
553.005	21.79
553.201	21.68
553.398	21.84
553.594	21.85
553.791	21.94
553.987	21.81
554.184	21.92
554.38	21.91
554.577	21.98
554.773	22.03
554.97	22.07
555.166	22.1
555.362	22.11
555.559	21.96
555.755	22
555.952	21.96
556.148	22.04
556.344	21.78
556.541	22.01
556.737	22.04
556.933	22.25
557.129	22.27
557.326	22.3
557.522	22.39
557.718	22.64
557.914	22.76
558.11	22.79
558.307	22.87
558.503	23.09
558.699	23.18
558.895	23.23
559.091	22.89
559.287	22.94
559.483	22.9
559.679	23.06
559.876	22.87
560.072	22.98
560.268	22.96
560.464	22.76
560.66	23.04
560.856	22.94
561.052	22.95
561.247	23.12
561.443	23.26
561.639	23.36
561.835	23.34
562.031	23.35
562.227	23.54
562.423	23.56
562.619	23.77
562.815	23.6
563.01	23.71
563.206	23.68
563.402	23.85
563.598	23.88
563.793	23.79
563.989	23.88
564.185	24.02
564.381	23.87
564.576	23.98
564.772	24.1
564.968	23.98
565.163	23.96
565.359	24.14
565.555	24.1
565.75	24.18
565.946	24.33
566.141	24.28
566.337	24.24
566.532	24.39
566.728	24.21
566.923	24.24
567.119	24.37
567.314	24.52
567.51	24.61
567.705	24.63
567.901	24.47
568.096	24.56
568.292	24.77
568.487	24.82
568.682	24.72
568.878	24.88
569.073	24.85
569.268	24.8
569.464	24.71
569.659	24.73
569.854	24.74
570.05	24.96
570.245	25.08
570.44	24.81
570.635	24.73
570.831	24.62
571.026	24.56
571.221	24.4
571.416	24.26
571.611	24.38
571.806	24.2
572.002	24.25
572.197	24.13
572.392	24.15
572.587	24.26
572.782	24.35
572.977	24.53
573.172	24.68
573.367	24.97
573.562	25.31
573.757	25.34
573.952	25.42
574.147	25.4
574.342	25.32
574.537	25.16
574.732	25.1
574.927	25.01
575.121	24.9
575.316	24.87
575.511	24.79
575.706	24.75
575.901	24.6
576.096	24.77
576.29	24.86
576.485	24.97
576.68	25.25
576.875	25.25
577.069	25.76
577.264	25.87
577.459	26.12
577.654	26.02
577.848	25.96
578.043	25.96
578.238	25.85
578.432	25.66
578.627	25.77
578.821	25.73
579.016	25.62
579.21	24.93
579.405	25.16
579.6	24.92
579.794	25.09
579.989	25.24
580.183	25.39
580.378	25.06
580.572	25.27
580.766	25.18
580.961	25.1
581.155	25.17
581.35	25.4
581.544	25.27
581.738	25.36
581.933	25.41
582.127	25.14
582.321	24.76
582.516	25
582.71	25.03
582.904	25.01
583.099	24.81
583.293	25.1
583.487	25.16
583.681	24.97
583.875	24.76
584.07	24.63
584.264	24.91
584.458	25.31
584.652	25.45
584.846	25.22
585.04	25.37
585.234	25.45
585.428	25.1
585.623	25.26
585.817	25.16
586.011	25.48
586.205	25.68
586.399	25.56
586.593	25.67
586.787	25.82
586.981	26.21
587.174	26.3
587.368	26.4
587.562	26.5
587.756	26.38
587.95	26.69
588.144	26.65
588.338	26.6
588.532	26.64
588.725	26.45
588.919	26.37
589.113	25.97
589.307	25.82
589.501	25.8
589.694	26.15
589.888	26.2
590.082	26.25
590.275	26.2
590.469	26.14
590.663	26.22
590.856	26.15
591.05	26.24
591.244	26.38
591.437	26.36
591.631	26.26
591.824	26.16
592.018	26.21
592.212	25.98
592.405	25.98
592.599	25.93
592.792	25.7
592.986	25.81
593.179	25.5
593.372	25.51
593.566	25.5
593.759	25.76
593.953	25.47
594.146	25.56
594.339	25.57
594.533	25.5
594.726	25.46
594.92	25.48
595.113	25.43
595.306	25.72
595.499	25.82
595.693	25.78
595.886	25.6
596.079	25.9
596.272	26.11
596.466	26.19
596.659	26.1
596.852	25.99
597.045	26.07
597.238	26.06
597.431	25.88
597.624	25.89
597.818	25.8
598.011	25.89
598.204	25.71
598.397	25.35
598.59	25.15
598.783	25.14
598.976	25.27
599.169	25.3
599.362	25.29
599.555	25.4
599.748	25.67
599.941	26.14
600.134	26.1
600.326	26.11
600.519	26.13
600.712	26.29
600.905	26.43
601.098	26.66
601.291	26.71
601.483	26.99
601.676	27.09
601.869	26.97
602.062	26.62
602.255	26.67
602.447	26.77
602.64	26.77
602.833	26.83
603.025	26.86
603.218	26.7
603.411	26.52
603.603	26.25
603.796	26.11
603.989	25.98
604.181	26.18
604.374	26.1
604.566	25.98
604.759	26.22
604.951	26.42
605.144	26.52
605.336	26.58
605.529	26.69
605.721	26.9
605.914	26.84
606.106	26.77
606.299	26.72
606.491	26.88
606.683	26.92
606.876	26.87
607.068	26.78
607.26	26.66
607.453	26.4
607.645	26.36
607.837	26.2
608.03	26.34
608.222	26.57
608.414	26.49
608.606	26.51
608.799	26.84
608.991	26.72
609.183	26.51
609.375	26.64
609.567	26.76
609.759	26.77
609.952	27.04
610.144	27.27
610.336	27.32
610.528	27.46
610.72	27.44
610.912	27.38
611.104	27.49
611.296	27.69
611.488	27.57
611.68	27.71
611.872	27.85
612.064	27.55
612.256	27.35
612.448	27.31
612.64	27.19
612.832	27.18
613.023	27.09
613.215	26.89
613.407	26.93
613.599	27.07
613.791	27.01
613.983	26.88
614.174	27.24
614.366	27.41
614.558	27.33
614.75	27.48
614.941	27.46
615.133	27.66
615.325	27.68
615.516	27.83
615.708	27.81
615.9	27.92
616.091	27.93
616.283	27.62
616.475	27.42
616.666	27.29
616.858	27.41
617.049	27.11
617.241	27.07
617.432	27.23
617.624	26.72
617.815	26.77
618.007	26.58
618.198	26.62
618.39	26.52
618.581	26.69
618.773	26.94
618.964	26.5
619.155	27.06
619.347	26.66
619.538	26.62
619.729	26.84
619.921	26.75
620.112	27.09
620.303	27.07
620.494	27.27
620.686	27.45
620.877	26.99
621.068	27.26
621.259	26.8
621.451	26.92
621.642	26.64
621.833	26.48
622.024	26.61
622.215	26.35
622.406	26.47
622.597	26.23
622.788	25.93
622.98	26.41
623.171	26.23
623.362	26.35
623.553	26.23
623.744	26.5
623.935	26.93
624.126	26.43
624.317	26.5
624.508	26.58
624.698	26.84
624.889	26.8
625.08	26.87
625.271	26.93
625.462	26.86
625.653	26.85
625.844	26.91
626.034	26.79
626.225	27.13
626.416	27.22
626.607	27.3
626.798	27.51
626.988	27.55
627.179	27.44
627.37	27.58
627.56	27.57
627.751	27.5
627.942	27.43
628.132	27.25
628.323	27.18
628.514	27.08
628.704	26.98
628.895	26.71
629.085	26.71
629.276	26.64
629.466	26.64
629.657	26.71
629.847	26.91
630.038	26.91
630.228	27.22
630.419	27.47
630.609	27.36
630.8	27.08
630.99	27.2
631.181	27.27
631.371	27.1
631.561	26.95
631.752	27.05
631.942	26.83
632.132	26.79
632.323	26.58
632.513	26.53
632.703	26.72
632.893	27.06
633.084	27.19
633.274	26.86
633.464	26.99
633.654	27.1
633.844	26.84
634.034	27.06
634.225	27.15
634.415	27.15
634.605	27.08
634.795	27.22
634.985	27.17
635.175	27.13
635.365	27.37
635.555	27.68
635.745	27.99
635.935	28.38
636.125	28.64
636.315	28.66
636.505	28.52
636.695	28.2
636.885	28.23
637.075	28.09
637.265	27.91
637.455	28.12
637.644	27.75
637.834	27.49
638.024	27.39
638.214	27.04
638.404	27.06
638.593	27.36
638.783	27.28
638.973	27.06
639.163	26.72
639.352	26.72
639.542	26.47
639.732	26.6
639.921	26.44
640.111	26.52
640.301	26.84
640.49	26.63
640.68	26.38
640.87	26.8
641.059	26.72
641.249	27.13
641.438	27.26
641.628	27.2
641.817	27.25
642.007	27.42
642.196	27.54
642.386	27.3
642.575	27.69
642.764	27.85
642.954	28.06
643.143	28.16
643.333	27.73
643.522	27.66
643.711	27.99
643.901	28.37
644.09	28.14
644.279	27.92
644.469	27.97
644.658	28.12
644.847	28.27
645.036	27.99
645.226	28.05
645.415	28.42
645.604	28.05
645.793	27.91
645.982	27.42
646.171	27.44
646.361	27.59
646.55	27.75
646.739	27.49
646.928	27.34
647.117	27.71
647.306	27.48
647.495	27.46
647.684	27.64
647.873	27.83
648.062	27.83
648.251	28.32
648.44	28.1
648.629	28.02
648.818	27.79
649.007	27.93
649.196	27.68
649.384	27.63
649.573	27.56
649.762	27.89
649.951	27.64
650.14	27.52
650.328	27.14
650.517	26.97
650.706	27.1
650.895	27.28
651.083	26.94
651.272	26.35
651.461	26.96
651.65	27.37
651.838	27.19
652.027	27.43
652.216	27.42
652.404	27.35
652.593	28.15
652.781	28.04
652.97	28.07
653.158	27.97
653.347	28.35
653.535	27.73
653.724	27.65
653.912	27.89
654.101	27.38
654.289	27.82
654.478	27.8
654.666	27.1
654.855	27.19
655.043	27.1
655.231	27.04
655.42	27.31
655.608	27.7
655.796	27.58
655.985	27.39
656.173	27.59
656.361	27.29
656.55	27.68
656.738	27.33
656.926	27.66
657.114	27.87
657.302	28.4
657.491	28.49
657.679	28.02
657.867	27.68
658.055	27.45
658.243	27.12
658.431	26.85
658.619	26.45
658.807	26.86
658.996	26.58
659.184	26.7
659.372	26.36
659.56	26.49
659.748	26.64
659.936	27.06
660.124	27.32
660.311	27.7
660.499	27.89
660.687	28.04
660.875	27.97
661.063	27.91
661.251	27.62
661.439	27.98
661.627	27.88
661.814	27.95
662.002	27.66
662.19	27.58
662.378	27.73
662.565	27.69
662.753	28.15
662.941	28.3
663.129	28.19
663.316	28.29
663.504	27.94
663.692	27.79
663.879	27.94
664.067	27.68
664.254	27.45
664.442	27.11
664.63	27.27
664.817	27.06
665.005	27.06
665.192	26.89
665.38	27.07
665.567	27.43
665.755	27.65
665.942	27.56
666.13	28.07
666.317	28.23
666.504	28.62
666.692	28.82
666.879	28.36
667.067	28.56
667.254	28.71
667.441	28.21
667.629	27.81
667.816	27.39
668.003	27.53
668.19	27.62
668.378	27.42
668.565	27.44
668.752	26.94
668.939	27.22
669.127	26.81
669.314	26.97
669.501	27.42
669.688	27.67
669.875	27.69
670.062	27.56
670.249	27.25
670.436	27.56
670.623	27.63
670.81	28.02
670.997	27.58
671.184	27.87
671.371	27.69
671.558	27.4
671.745	27.25
671.932	27.31
672.119	27.14
672.306	27.39
672.493	27.33
672.68	27.13
672.867	26.95
673.054	27.64
673.24	27.95
673.427	28.31
673.614	28.41
673.801	28.84
673.988	29.01
674.174	29.23
674.361	29.06
674.548	28.97
674.734	28.91
674.921	29.1
675.108	28.96
675.294	28.22
675.481	28.18
675.668	28.58
675.854	28.46
676.041	28.18
676.227	28.34
676.414	28.49
676.601	28.57
676.787	28.53
676.974	28.59
677.16	28.62
677.347	29.1
677.533	28.75
677.719	28.02
677.906	28.35
678.092	28.41
678.279	28.32
678.465	28.21
678.651	27.97
678.838	27.78
679.024	27.52
679.21	27.47
679.397	27.34
679.583	27.48
679.769	27.77
679.955	27.16
680.142	27.36
680.328	27.32
680.514	27.18
680.7	27.39
680.886	27.86
681.073	28.23
681.259	28.05
681.445	28.03
681.631	27.78
681.817	27.9
682.003	27.93
682.189	28.01
682.375	27.84
682.561	28.1
682.747	28.05
682.933	28.33
683.119	27.94
683.305	27.79
683.491	27.9
683.677	28.14
683.863	27.86
684.049	27.96
684.235	27.87
684.42	27.38
684.606	27.34
684.792	27.45
684.978	26.68
685.164	26.51
685.349	26.69
685.535	27.08
685.721	27.1
685.907	27.12
686.092	27.19
686.278	27.23
686.464	28.57
686.649	28.71
686.835	28.77
687.021	28.6
687.206	29.07
687.392	28.91
687.577	28.58
687.763	28.26
687.948	28.46
688.134	28.54
688.319	28.32
688.505	27.73
688.69	27
688.876	26.78
689.061	27.28
689.247	26.9
689.432	26.85
689.618	26.96
689.803	27.32
689.988	27.69
690.174	27.55
690.359	27.84
690.544	28.48
690.73	28.95
690.915	29.48
691.1	29.38
691.285	29.44
691.471	29.48
691.656	29.04
691.841	28.75
692.026	28.22
692.211	28.24
692.396	27.69
692.582	26.96
692.767	26.88
692.952	26.58
693.137	25.89
693.322	26.23
693.507	26.33
693.692	26.55
693.877	26.45
694.062	26.6
694.247	26.83
694.432	27.8
694.617	28.16
694.802	28.45
694.987	28.73
695.172	29.3
695.357	29.94
695.541	30.01
695.726	30.31
695.911	30.84
696.096	30.05
696.281	30
696.466	29.15
696.65	29.13
696.835	28.74
697.02	28.16
697.204	27.96
697.389	27.41
697.574	27.82
697.759	27.95
697.943	27.75
698.128	28.24
698.312	27.92
698.497	28.37
698.682	27.59
698.866	28.11
699.051	28.16
699.235	28.24
699.42	28.45
699.604	28.5
699.789	28.23
699.973	28.15
700.158	28.01
700.342	28.51
700.527	28.18
700.711	29.01
700.895	28.74
701.08	29.31
701.264	29.44
701.448	29.1
701.633	28.76
701.817	28.84
702.001	28.92
702.186	29.39
702.37	28.58
702.554	28.68
702.738	28.47
702.923	28.57
703.107	28.25
703.291	28.43
703.475	28.03
703.659	27.32
703.843	27.09
704.027	27.74
704.212	27.3
704.396	27.8
704.58	27.88
704.764	28.31
704.948	28.03
705.132	27.64
705.316	27.78
705.5	28.11
705.684	28.63
705.868	28.79
706.052	28.27
706.235	28.14
706.419	27.82
706.603	27.88
706.787	27.36
706.971	27.68
707.155	26.96
707.339	26.33
707.522	26.67
707.706	27.02
707.89	26.53
708.074	26.39
708.257	26.44
708.441	27.03
708.625	26.69
708.808	26.61
708.992	26.19
709.176	26.9
709.359	27.24
709.543	26.96
709.727	26.78
709.91	27.22
710.094	27.13
710.277	27.76
710.461	27.87
710.644	27.66
710.828	28.54
711.011	28.86
711.195	29.24
711.378	28.61
711.562	28.49
711.745	28.4
711.928	28.52
712.112	29.23
712.295	28.71
712.478	28.27
712.662	29.07
712.845	28.13
713.028	28.34
713.212	28.13
713.395	28.73
713.578	29.61
713.761	29.52
713.945	29.44
714.128	28.97
714.311	29.1
714.494	30
714.677	29.06
714.86	29.89
715.043	29.52
715.227	29.56
715.41	28.97
715.593	28.07
715.776	27.72
715.959	28.43
716.142	28.36
716.325	28.02
716.508	27.47
716.691	28.12
716.874	28.19
717.057	27.92
717.239	28.06
717.422	28.65
717.605	28.49
717.788	29.44
717.971	28.82
718.154	28.76
718.337	29.33
718.519	28.95
718.702	29.11
718.885	28.57
719.068	28.69
719.25	28.74
719.433	28.36
719.616	29.02
719.798	28.12
719.981	28.32
720.164	28.73
720.346	28.67
720.529	29.78
720.712	29.77
720.894	29.07
721.077	29.15
721.259	28.54
721.442	27.9
721.624	28.09
721.807	28.18
721.989	27.69
722.172	27.45
722.354	28.17
722.537	28.16
722.719	27.53
722.901	28.3
723.084	28.23
723.266	28.1
723.448	28.95
723.631	28.91
723.813	28.65
723.995	28.93
724.178	29.48
724.36	28.79
724.542	27.5
724.724	27.67
724.907	26.96
725.089	27.33
725.271	26.78
725.453	26.83
725.635	26.59
725.817	27.39
725.999	27.23
726.181	26.67
726.364	26.12
726.546	26.68
726.728	27.32
726.91	27.99
727.092	28.93
727.274	30.57
727.456	30.81
727.638	30.47
727.819	30.8
728.001	31.26
728.183	31.73
728.365	32.18
728.547	31.63
728.729	31.51
728.911	31.86
729.093	31.09
729.274	30
729.456	30.54
729.638	31.36
729.82	31.13
730.001	29.8
730.183	29.31
730.365	28.93
730.546	29.11
730.728	29.38
730.91	28.41
731.091	28.03
731.273	28.8
731.455	27.79
731.636	26.82
731.818	25.98
731.999	26.48
732.181	26.48
732.362	27.2
732.544	27.18
732.725	26.93
732.907	27.02
733.088	27.14
733.27	25.91
733.451	25.99
733.633	25.92
733.814	26.7
733.995	26.54
734.177	26.84
734.358	25.78
734.539	26.85
734.721	26.48
734.902	26.37
735.083	25.92
735.264	27.21
735.446	27.6
735.627	27.55
735.808	26.78
735.989	27.87
736.17	27.71
736.351	28.35
736.533	27.32
736.714	27.42
736.895	28.88
737.076	29.98
737.257	30.2
737.438	30.46
737.619	31.81
737.8	32.19
737.981	30.82
738.162	30.71
738.343	32.02
738.524	31.49
738.705	31.39
738.886	30.13
739.067	29.52
739.247	28.38
739.428	27.55
739.609	26.63
739.79	26.83
739.971	28.42
740.151	29.02
740.332	27.56
740.513	27.14
740.694	27.87
740.874	27.82
741.055	28.13
741.236	27.45
741.417	27.52
741.597	28.33
741.778	27.44
741.958	26.59
742.139	26.99
742.32	27.04
742.5	28.07
742.681	27.95
742.861	28.06
743.042	28.25
743.222	30.01
743.403	31.18
743.583	29.82
743.764	30.08
743.944	29.91
744.124	30.24
744.305	30.22
744.485	30.2
744.666	28.75
744.846	28.43
745.026	27.2
745.207	25.8
745.387	25.51
745.567	25.96
745.747	25.52
745.928	28.2
746.108	27.11
746.288	26.94
746.468	27.23
746.648	27.82
746.829	28.05
747.009	27.61
747.189	28.11
747.369	27.76
747.549	28.1
747.729	29.1
747.909	27.87
748.089	27.57
748.269	28.59
748.449	27.96
748.629	28.86
748.809	27.22
748.989	27.59
749.169	27.54
749.349	29.05
749.529	28.96
749.709	29.6
749.889	28.84
750.068	28.76
750.248	28.04
750.428	28.48
750.608	29.08
750.788	30.27
750.967	30.63
751.147	32.61
751.327	31.71
751.507	31.51
751.686	30.8
751.866	29.72
752.046	29.17
752.225	28.78
752.405	27.69
752.585	26.4
752.764	26.63
752.944	26.85
753.123	24.69
753.303	24.53
753.482	24.91
753.662	25.18
753.841	25.13
754.021	26.11
754.2	26.37
754.38	26.97
754.559	27.87
754.739	26.52
754.918	27.27
755.097	27.39
755.277	27.2
755.456	27.26
755.635	27.36
755.815	27.7
755.994	26.1
756.173	26.97
756.352	27.12
756.532	26.02
756.711	28.13
756.89	27.72
757.069	26.86
757.248	27.39
757.427	26.12
757.607	27.28
757.786	27.52
757.965	28.83
758.144	29.75
758.323	29.13
758.502	30.64
758.681	30.3
758.86	30.34
759.039	32.43
759.218	31.47
759.397	31.62
759.576	30.69
759.755	31.39
759.934	30.68
760.113	28.95
760.291	29.55
760.47	27.93
760.649	28.06
760.828	29.1
761.007	28.04
761.186	29.01
761.364	30.32
761.543	29.65
761.722	29.6
761.901	30.34
762.079	29.93
762.258	29.29
762.437	30.41
762.615	29.29
762.794	27.52
762.972	27.2
763.151	26.46
763.33	25.77
763.508	26.33
763.687	26.2
763.865	26.67
764.044	26.73
764.222	27.64
764.401	27.03
764.579	27.15
764.758	28.11
764.936	29.44
765.114	30.13
765.293	30.84
765.471	30.36
765.65	30.88
765.828	30.34
766.006	31.04
766.184	30.95
766.363	29.87
766.541	31.35
766.719	30.74
766.898	28.6
767.076	27.84
767.254	26.48
767.432	26.59
767.61	26.1
767.788	26.26
767.967	25.6
768.145	24.8
768.323	26.15
768.501	24.71
768.679	24.19
768.857	24.73
769.035	24.65
769.213	26.41
769.391	26.56
769.569	26.73
769.747	27.67
769.925	28.45
770.103	31.14
770.281	28.58
770.459	29.87
770.636	30.58
770.814	30.77
770.992	30.63
771.17	29.52
771.348	30.32
771.525	28.53
771.703	27.47
771.881	27.41
772.059	26.05
772.236	27.79
772.414	27.8
772.592	28.15
772.769	28.3
772.947	27.82
773.125	27.99
773.302	26.59
773.48	28.87
773.657	29.78
773.835	30.04
774.013	29.33
774.19	30.78
774.368	29.36
774.545	29.46
774.723	29.63
774.9	29.42
775.077	29.39
775.255	29.61
775.432	29.57
775.61	29.01
775.787	25.13
775.964	24.68
776.142	23.41
776.319	24
776.496	25.51
776.674	25.48
776.851	26.86
777.028	28.96
777.205	29.95
777.382	28.51
777.56	27.73
777.737	29.38
777.914	30.28
778.091	30.32
778.268	31.96
778.445	28.77
778.622	28.6
778.8	28.59
778.977	29.12
779.154	30.01
779.331	30.36
779.508	26.41
779.685	28.21
779.862	28.09
780.038	28.92
780.215	27.47
780.392	30.88
780.569	31.66
780.746	31.07
780.923	26.61
781.1	24.51
781.277	22.63
781.453	29.55
781.63	28.77
781.807	30.07
781.984	29.26
782.16	28.83
782.337	26.03
782.514	25.83
782.691	26.59
782.867	29.14
783.044	31.71
783.221	31.52
783.397	26.56
783.574	26.52
783.75	24.98
783.927	27.43
784.103	29.75
784.28	29.91
784.456	30.68
784.633	27.92
784.809	29.44
784.986	27.27
785.162	27.38
785.339	31.34
785.515	31.79
785.692	31.03
785.868	27.61
786.044	25.18
786.221	24.01
786.397	21.37
786.573	23.78
786.749	21.16
786.926	20.04
787.102	22.09
787.278	18.79
787.454	17.79
787.631	17.31
787.807	17.15
787.983	15.78
788.159	16.51
788.335	18.19
788.511	18.69
788.687	20.69
788.863	22.06
789.039	21.38
789.216	21.99
789.392	21.93
789.568	22.22
789.744	25.65
789.919	28.18
790.095	28.97
790.271	28.33
790.447	28.38
790.623	28.27
790.799	30.74
790.975	28.81
791.151	28.39
791.327	28.08
791.502	31.02
791.678	27.32
791.854	26.92
792.03	28.44
792.205	29.34
792.381	29.73
792.557	28.47
792.733	26.44
792.908	28.23
793.084	28.67
793.259	31.69
793.435	28.27
793.611	27.6
793.786	26.7
793.962	23.8
794.137	24.83
794.313	23.62
794.488	21.26
794.664	21.24
794.839	23.57
795.015	21.64
795.19	20.85
795.366	18.93
795.541	21.97
795.716	23.77
795.892	24.5
796.067	24.06
796.242	25.1
796.418	29.6
796.593	29.36
796.768	27.77
796.944	31.22
797.119	31.93
797.294	33.09
797.469	32.07
797.644	31.82
797.82	32.3
797.995	28.77
798.17	27.06
798.345	24.54
798.52	21.91
798.695	20.29
798.87	20.16
799.045	21.04
799.22	23.63
799.395	21.36
799.57	21.1
799.745	17.35
799.92	19.83
800.095	23.55
800.27	22.59
800.445	24.8
800.62	29.82
800.795	29.73
800.97	28.58
801.145	27.18
801.319	26.52
801.494	25.7
801.669	29.38
801.844	30.37
802.018	29.48
802.193	29.78
802.368	28.21
802.543	28.71
802.717	25.9
802.892	24.15
803.067	25.08
803.241	25.82
803.416	26.68
803.59	27.79
803.765	26.29
803.94	27.02
804.114	26.49
804.289	30.61
804.463	25.63
804.638	23.24
804.812	22.56
804.986	23.43
805.161	24.49
805.335	23.8
805.51	24.4
805.684	22.34
805.858	21.91
806.033	23.21
806.207	21.25
806.381	21.35
806.556	25.86
806.73	22.75
806.904	21.27
807.078	23.22
807.253	25.7
807.427	24.95
807.601	25.33
807.775	21.87
807.949	22.4
808.123	19.93
808.298	19.29
808.472	18.44
808.646	27.75
808.82	28.3
808.994	26.44
809.168	22.74
809.342	22.78
809.516	24.82
809.69	28.72
809.864	29.34
810.038	33.08
810.212	33.14
810.385	31.31
810.559	30.34
810.733	34.01
810.907	36.81
811.081	35.59
811.255	35.31
811.428	36.34
811.602	33.61
811.776	33.51
811.95	34.01
812.123	34.79
812.297	32.08
812.471	33.16
812.644	25.07
812.818	24.25
812.992	21.61
813.165	21.1
813.339	20.59
813.512	21.74
813.686	21.82
813.86	19.82
814.033	19.12
814.207	22.6
814.38	15.86
814.554	22.73
814.727	22.96
814.9	25.13
815.074	27.2
815.247	22.52
815.421	21.58
815.594	20.73
815.767	18.45
815.941	24.71
816.114	27.4
816.287	27.7
816.46	24.5
816.634	23.07
816.807	25.41
816.98	24.48
817.153	32.43
817.327	35.99
817.5	39.7
817.673	39.46
817.846	34.16
818.019	33.37
818.192	37.46
818.365	38.87
818.538	43.55
818.711	44.5
818.884	42.35
819.057	38.44
819.23	36.82
819.403	33
819.576	35.1
819.749	33
819.922	33.67
820.095	34.26
820.268	31.03
820.441	28.24
820.614	29.15
820.786	28.68
820.959	30.68
821.132	30.66
821.305	31.05
821.477	30.31
821.65	31.57
821.823	30.85
821.996	28.9
822.168	30.04
822.341	30.14
822.514	29.64
822.686	29.58
822.859	28.99
823.031	28.02
823.204	28.11
823.376	28.22
823.549	27.93
823.722	27.73
823.894	27.94
824.067	27.95
824.239	27.69
824.411	27.86
824.584	27.94
824.756	27.49
824.929	28.52
825.101	28.47
825.273	27.79
825.446	27.61
825.618	27.47
825.79	28.96
825.963	28.36
826.135	26.74
826.307	27.7
826.479	27.09
826.652	26.52
826.824	27.18
826.996	25.6
827.168	25.7
827.34	25.62
827.512	27.04
827.684	26.67
827.856	27.38
828.029	27.84
828.201	26.36
828.373	26.83
828.545	26.81
828.717	25.78
828.889	27.26
829.061	29.08
829.232	29.15
829.404	28.59
829.576	25.73
829.748	23.61
829.92	24.45
830.092	24.33
830.264	22.06
830.436	22.32
830.607	20.03
830.779	18.74
830.951	19.83
831.123	23.01
831.294	20.84
831.466	23.11
831.638	24.54
831.809	24.86
831.981	23.41
832.153	25.76
832.324	24.32
832.496	29.19
832.667	28.38
832.839	25.07
833.011	23.2
833.182	23.72
833.354	21.16
833.525	25.16
833.697	23.6
833.868	22.54
834.039	24.68
834.211	28.81
834.382	26.64
834.554	26.06
834.725	26.61
834.896	24.55
835.068	23.16
835.239	25.61
835.41	22.58
835.581	23.16
835.753	26.44
835.924	22.45
836.095	20.33
836.266	20.62
836.438	20.51
836.609	15.45
836.78	17.92
836.951	20.83
837.122	21.68
837.293	24.61
837.464	28.44
837.635	28.22
837.806	31.47
837.977	34.09
838.148	35.49
838.319	38
838.49	42.26
838.661	38.47
838.832	36.38
839.003	35.41
839.174	33.79
839.345	28.65
839.516	22.67
839.687	24.76
839.857	23.53
840.028	21.49
840.199	23.68
840.37	25.62
840.54	35.4
840.711	36.08
840.882	34.96
841.053	34.31
841.223	30.46
841.394	34.85
841.564	30.42
841.735	31.44
841.906	35.26
842.076	33.77
842.247	30.3
842.417	23.54
842.588	18.05
842.758	19.8
842.929	16.53
843.099	20.23
843.27	16.62
843.44	25.06
843.611	14.55
843.781	6.71
843.951	5.24
844.122	18.87
844.292	22.64
844.462	25.19
844.633	14.43
844.803	12.06
844.973	9.55
845.144	14.25
845.314	13.17
845.484	18.03
845.654	15.26
845.824	2.26
845.995	-1.54
846.165	-6.67
846.335	4.72
846.505	26.06
846.675	18.13
846.845	32.95
847.015	41.68
847.185	42.79
847.355	26.46
847.525	40.48
847.695	72.77
847.865	53.56
848.035	41.97
848.205	31.81
848.375	29.54
848.545	12.45
848.715	14.68
848.884	4.35
849.054	-7.17
849.224	-14.17
849.394	-20.56
849.564	-27.89
849.733	-31.99
849.903	3.53
850.073	-1.93
850.243	15.95
850.412	39.09
850.582	48.75
850.752	48.65
850.921	56.71
851.091	85.05
851.26	83.69
851.43	70.39
851.599	58.7
851.769	32.86
851.939	37.49
852.108	28.55
852.278	16.32
852.447	1.17
852.616	22.62
852.786	6.31
852.955	-19.8
853.125	-20.07
853.294	9.3
853.463	9.92
853.633	38.08
853.802	50.31
853.971	37.02
854.141	30.18
854.31	32.77
854.479	25.69
854.648	35.57
854.818	38.14
854.987	33.78
855.156	36.14
855.325	31.23
855.494	24.08
855.663	26.47
855.832	17.69
856.001	32.54
856.171	29
856.34	28.3
856.509	17.66
856.678	29.9
856.847	30.18
857.016	19.81
857.185	35.61
857.353	42.7
857.522	31.38
857.691	39.6
857.86	22.85
858.029	12.86
858.198	18.03
858.367	13.31
858.535	-20.38
858.704	-1.27
858.873	-7.84
859.042	12.14
859.21	6.69
859.379	15.51
859.548	-0.78
859.717	9.29
859.885	1.54
860.054	6.41
860.222	9.21
860.391	13.73
860.56	7.81
860.728	40.33
860.897	23.36
861.065	11.09
861.234	-12.85
861.402	25.56
861.571	30.08
861.739	39.88
861.908	59.75
862.076	65.73
862.244	77.28
862.413	85.96
862.581	50.46
862.749	31.41
862.918	19.58
863.086	29.04
863.254	6.22
863.423	19.4
863.591	22.85
863.759	-21.05
863.927	-50.99
864.096	-94.24
864.264	-81.93
864.432	-16.04
864.6	3.85
864.768	25.44
864.936	32.58
865.104	46.15
865.272	32.35
865.44	28.16
865.608	22.65
865.776	30.55
865.944	40.9
866.112	42.72
866.28	27.42
866.448	27.46
866.616	24.6
866.784	22.47
866.952	14.81
867.12	22.77
867.288	29.59
867.455	18
867.623	8.26
867.791	24.55
867.959	37.01
868.127	57.42
868.294	40.29
868.462	60.2
868.63	69.2
868.797	63.29
868.965	51.85
869.133	45.01
869.3	65.03
869.468	69.53
869.636	57.29
869.803	60.83
869.971	42.2
870.138	64.4
870.306	65.94
870.473	46.75
870.641	42.62
870.808	52.46
870.975	70.4
871.143	62.62
871.31	66.13
871.478	68.65
871.645	71.6
871.812	81.5
871.98	64.11
872.147	46.83
872.314	53.76
872.482	50.75
872.649	46.49
872.816	32.67
872.983	29.58
873.15	13.14
873.318	18.42
873.485	18.69
873.652	20.47
873.819	33.7
873.986	33.59
874.153	43.64
874.32	40.89
874.487	33.9
874.654	41.53
874.821	45.55
874.988	51.16
875.155	51.08
875.322	39.15
875.489	34.31
875.656	19.1
875.823	8.44
875.99	-22.58
876.157	-1.35
876.324	-8.76
876.49	4.94
876.657	-21.37
876.824	-66.97
876.991	-50.18
877.157	-28.84
877.324	-17.32
877.491	-14.8
877.658	7.34
877.824	2.8
877.991	-0.22
878.157	18.98
878.324	7.24
878.491	25.59
878.657	43.42
878.824	26.11
878.99	27.73
879.157	35.16
879.323	38.37
879.49	50.58
879.656	46.74
879.823	29.63
879.989	39.05
880.156	37.84
880.322	36.82
880.488	38.61
880.655	46.05
880.821	29.63
880.987	18.17
881.154	5.9
881.32	5.27
881.486	15.19
881.652	24.11
881.819	19.37
881.985	23.65
882.151	25.23
882.317	27.38
882.483	28.85
882.649	31.76
882.816	32.6
882.982	34.04
883.148	31.76
883.314	35.41
883.48	37.61
883.646	38.85
883.812	38.55
883.978	40.28
884.144	38.21
884.31	38.44
884.476	36.31
884.642	34.19
884.807	35.46
884.973	34.53
885.139	31.45
885.305	30.84
885.471	32.35
885.637	30.06
885.802	25.97
885.968	24.91
886.134	20.08
886.3	23.07
886.465	25.47
886.631	22.06
886.797	20.04
886.962	17.12
887.128	12.03
887.293	0.78
887.459	10.99
887.625	14.27
887.79	9.86
887.956	15.62
888.121	11.26
888.287	8.3
888.452	10.22
888.618	18.03
888.783	23.77
