Data from 2938048_Reflection_3.txt Node
Date: Sun Jul 12 14:20:53 EDT 2015
User: robert
Spectrometer: USB4E03001
Autoset integration time: false
Trigger mode: 4
Integration Time (sec): 1.000000E-1
Scans to average: 10
Electric dark correction enabled: true
Nonlinearity correction enabled: false
Boxcar width: 5
Stray light correction enabled: false
XAxis mode: Wavelengths
Stop averaging: false
Number of Pixels in Spectrum: 3648
>>>>>Begin Spectral Data<<<<<
177.566	299.05
177.785	310.05
178.005	34.8
178.225	-64.15
178.445	-33.73
178.665	48.05
178.885	4148.15
179.105	-897.4
179.324	298.8
179.544	122.42
179.764	118.12
179.984	227.83
180.204	204.26
180.423	170.23
180.643	188.31
180.863	228.05
181.083	297.27
181.302	217.66
181.522	276.13
181.742	330.37
181.961	281.48
182.181	224.91
182.401	221.44
182.621	398.31
182.84	367.99
183.06	275.06
183.279	349.02
183.499	354.46
183.719	-263.61
183.938	-2069.84
184.158	111.64
184.377	56.75
184.597	84.43
184.816	119.03
185.036	-514.41
185.256	-114.35
185.475	-7.13
185.695	85.67
185.914	92.21
186.134	110.23
186.353	177.45
186.572	435.95
186.792	373.94
187.011	248.16
187.231	277.53
187.45	369.46
187.67	494.62
187.889	1314.29
188.108	439.6
188.328	86.7
188.547	46.39
188.766	55.64
188.986	48.04
189.205	48.03
189.424	83.69
189.644	142.65
189.863	113.5
190.082	112.03
190.302	113.42
190.521	111.36
190.74	345.07
190.959	221.78
191.178	197.23
191.398	255.39
191.617	239.97
191.836	99.72
192.055	116.27
192.274	124.57
192.494	134.11
192.713	188.7
192.932	127.69
193.151	100.03
193.37	124.91
193.589	142.67
193.808	136.34
194.027	127.28
194.246	157.68
194.465	119.81
194.685	125.8
194.904	103.59
195.123	114.86
195.342	1526.4
195.561	800.19
195.78	307.13
195.999	259.6
196.218	216.26
196.436	210.73
196.655	128.6
196.874	94.12
197.093	103.69
197.312	93.37
197.531	90.36
197.75	90.23
197.969	98.34
198.188	115.68
198.407	118.43
198.625	83.27
198.844	89.03
199.063	176.33
199.282	545.28
199.501	645.71
199.719	-110.83
199.938	592.36
200.157	123.18
200.376	17.28
200.594	-367.5
200.813	-405.2
201.032	162.46
201.251	72.49
201.469	88.16
201.688	194.78
201.907	99.07
202.125	49.84
202.344	13.5
202.563	59.49
202.781	73.35
203	100.76
203.218	106.67
203.437	84.25
203.656	66.38
203.874	71.65
204.093	62.2
204.311	88.68
204.53	97.5
204.748	118.52
204.967	195.7
205.185	207.92
205.404	132.25
205.622	124.05
205.841	162
206.059	125.24
206.278	120.23
206.496	168.52
206.715	201.4
206.933	176.79
207.151	202.74
207.37	190.95
207.588	724.33
207.806	1410.82
208.025	540.73
208.243	1039.42
208.461	-266.41
208.68	-269.69
208.898	-431.62
209.116	-182.47
209.335	-137.18
209.553	-66.7
209.771	-340.68
209.989	1022.75
210.208	-207.37
210.426	-182.83
210.644	-137.13
210.862	-2649.32
211.081	1315.3
211.299	305.07
211.517	158.19
211.735	175.57
211.953	144.46
212.171	125.18
212.39	130.78
212.608	118.41
212.826	110.92
213.044	92.73
213.262	99.67
213.48	121.83
213.698	110.77
213.916	142.46
214.134	139.87
214.352	126.25
214.57	129.42
214.788	116.84
215.006	111.19
215.224	153.32
215.442	151.64
215.66	131.05
215.878	222.41
216.096	346.23
216.314	202.49
216.532	142.21
216.75	186.11
216.968	181.93
217.185	194
217.403	114.52
217.621	76.38
217.839	77.56
218.057	118.26
218.275	78.26
218.492	80.03
218.71	71.83
218.928	70.86
219.146	70.6
219.363	86
219.581	74.99
219.799	125.34
220.017	86.14
220.234	93.6
220.452	82.22
220.67	105.75
220.887	112.33
221.105	120.09
221.323	138.5
221.54	109.24
221.758	82.91
221.976	95.95
222.193	85.14
222.411	92.56
222.629	98.75
222.846	87.9
223.064	77.14
223.281	87.77
223.499	93.2
223.716	86.61
223.934	98.35
224.151	95.84
224.369	101.27
224.586	88.58
224.804	75.34
225.021	56.48
225.239	75.26
225.456	67.95
225.674	36.71
225.891	-2.99
226.108	4.69
226.326	-5.18
226.543	1.83
226.76	-2.09
226.978	3.28
227.195	9.49
227.413	9.79
227.63	10.3
227.847	9.78
228.064	11.83
228.282	15.45
228.499	12.82
228.716	13.36
228.934	11.98
229.151	9.07
229.368	7.15
229.585	8.69
229.802	5.88
230.02	2.35
230.237	1.41
230.454	1.25
230.671	1.78
230.888	1.97
231.105	1.89
231.323	1.28
231.54	7.93
231.757	10.9
231.974	18.37
232.191	23.25
232.408	26.64
232.625	38.8
232.842	43.53
233.059	41.54
233.276	42.58
233.493	42.47
233.71	39.02
233.927	38.45
234.144	37.94
234.361	33.36
234.578	41.01
234.795	38.28
235.012	21.92
235.229	15.43
235.446	17.57
235.663	20.54
235.879	30.37
236.096	40.21
236.313	34.56
236.53	33.57
236.747	21.15
236.964	12.22
237.181	10.7
237.397	26.61
237.614	26.04
237.831	27.58
238.048	24.97
238.264	18.86
238.481	13.6
238.698	18.48
238.915	15.58
239.131	27.47
239.348	23.39
239.565	24.33
239.781	18.01
239.998	21.65
240.215	20.44
240.431	22.33
240.648	20.6
240.865	23.65
241.081	25.09
241.298	24.66
241.514	24.51
241.731	25.39
241.947	23.1
242.164	23.33
242.38	21.84
242.597	21.19
242.814	19.92
243.03	18.98
243.246	18.01
243.463	14.71
243.679	16.14
243.896	14.25
244.112	13.06
244.329	11.9
244.545	12.16
244.762	13.15
244.978	12.94
245.194	12.42
245.411	16.57
245.627	14.93
245.843	16.87
246.06	16.69
246.276	15.11
246.492	15.51
246.709	16.77
246.925	16.07
247.141	15.22
247.357	15.31
247.574	13.76
247.79	11.87
248.006	11.18
248.222	10.83
248.439	9.69
248.655	9.62
248.871	8.61
249.087	7.58
249.303	8.72
249.519	8.95
249.736	11.08
249.952	12.15
250.168	15.76
250.384	15.45
250.6	16.58
250.816	17.14
251.032	18.33
251.248	18.96
251.464	19.79
251.68	17.56
251.896	16.29
252.112	12
252.328	14.57
252.544	13.11
252.76	14.27
252.976	13.76
253.192	12.48
253.408	13.04
253.624	12.93
253.84	11.53
254.056	10.54
254.272	13
254.487	14.13
254.703	11.88
254.919	10.12
255.135	9.77
255.351	12.25
255.567	13.97
255.782	13.19
255.998	12.36
256.214	10.72
256.43	9.91
256.646	8.07
256.861	6.84
257.077	2.51
257.293	5.88
257.508	5.91
257.724	1.92
257.94	3
258.155	4.81
258.371	6.16
258.587	6.99
258.802	8.88
259.018	9.73
259.234	11.81
259.449	12.6
259.665	11.13
259.88	11.42
260.096	11.55
260.312	10.21
260.527	9.26
260.743	9.87
260.958	9.78
261.174	7.93
261.389	6.61
261.605	5.43
261.82	5.88
262.036	5.19
262.251	4.75
262.466	2.6
262.682	4.81
262.897	5.58
263.113	3.46
263.328	6.68
263.543	8.42
263.759	9.73
263.974	8.86
264.189	8.56
264.405	11.37
264.62	11.35
264.835	13.44
265.051	11.95
265.266	11.66
265.481	12.54
265.696	10.29
265.912	11.46
266.127	13.35
266.342	11.03
266.557	11.39
266.773	8.87
266.988	9.03
267.203	10.23
267.418	9.67
267.633	9.48
267.848	9.58
268.064	7.62
268.279	7.48
268.494	5.57
268.709	8.77
268.924	8.5
269.139	10.74
269.354	10.38
269.569	9.43
269.784	8.86
269.999	9.27
270.214	8.16
270.429	8.45
270.644	8.31
270.859	9.77
271.074	7.95
271.289	7.27
271.504	5.62
271.719	4.96
271.934	6.08
272.149	7.25
272.363	8.64
272.578	9.32
272.793	9.24
273.008	8.86
273.223	8.27
273.438	8.99
273.653	10.73
273.867	11.83
274.082	14.36
274.297	14.02
274.512	14.41
274.726	11.11
274.941	9.53
275.156	12.55
275.371	13.74
275.585	13.76
275.8	12.71
276.015	12.2
276.229	13.17
276.444	12.12
276.659	10.88
276.873	10.8
277.088	12.4
277.302	15.13
277.517	12.36
277.732	12.6
277.946	11.19
278.161	13.43
278.375	10.23
278.59	7.58
278.804	4.08
279.019	6.04
279.233	6.87
279.448	6.33
279.662	3.89
279.877	4.91
280.091	3.37
280.306	4.09
280.52	1.61
280.735	4.17
280.949	3.97
281.163	8.52
281.378	8.47
281.592	6.98
281.806	7.25
282.021	7.71
282.235	8.9
282.449	8.52
282.664	7.95
282.878	9.6
283.092	9.91
283.307	9.44
283.521	7.49
283.735	7.13
283.949	6.9
284.164	6.62
284.378	6.41
284.592	5.47
284.806	6.74
285.02	7.25
285.234	5.9
285.449	5.36
285.663	5.01
285.877	5.47
286.091	5.27
286.305	5.73
286.519	6.67
286.733	6.93
286.947	6.27
287.161	6.38
287.375	7.72
287.589	8.08
287.803	7.7
288.017	10.16
288.231	9.78
288.445	10.02
288.659	12.17
288.873	11.25
289.087	11.12
289.301	12.1
289.515	11.21
289.729	8.97
289.943	7.01
290.157	7.56
290.371	6.09
290.584	7.27
290.798	6.91
291.012	4.8
291.226	5.53
291.44	4.96
291.654	3.99
291.867	3.43
292.081	6.41
292.295	9.02
292.509	9.27
292.722	11.63
292.936	10.29
293.15	10.36
293.364	11.27
293.577	11.6
293.791	12.41
294.005	14.28
294.218	16.12
294.432	13.3
294.645	13.48
294.859	14.14
295.073	12.6
295.286	12.87
295.5	13.83
295.713	13.55
295.927	12.4
296.14	11.78
296.354	11.04
296.568	10.14
296.781	10.57
296.994	9.85
297.208	9.21
297.421	9.09
297.635	10.4
297.848	8.64
298.062	8.45
298.275	8.95
298.489	8.7
298.702	9.7
298.915	9.88
299.129	10.16
299.342	10.45
299.555	10.52
299.769	10.17
299.982	8.98
300.195	10.58
300.409	9.84
300.622	9.8
300.835	10.58
301.048	9.44
301.262	9.85
301.475	10.98
301.688	13.53
301.901	13.22
302.115	15.14
302.328	14.88
302.541	17.35
302.754	19.08
302.967	19.08
303.18	19.97
303.393	20.53
303.607	19.95
303.82	19.43
304.033	16.46
304.246	15.92
304.459	14.03
304.672	14.45
304.885	9.87
305.098	9.81
305.311	9.58
305.524	8.74
305.737	7.24
305.95	8.11
306.163	8.66
306.376	9.42
306.589	11.27
306.802	11.94
307.015	11.87
307.228	11.55
307.44	9.77
307.653	10.16
307.866	9.12
308.079	11.99
308.292	10.8
308.505	9.94
308.718	10.6
308.93	9.49
309.143	7.69
309.356	7.68
309.569	11.18
309.781	11.61
309.994	11.86
310.207	12.29
310.42	11.02
310.632	12.73
310.845	12.43
311.058	13.02
311.27	14.18
311.483	15.92
311.696	14.76
311.908	13.52
312.121	13.92
312.333	13.38
312.546	14.8
312.759	14.14
312.971	13.23
313.184	13.98
313.396	14.31
313.609	13.42
313.821	13.16
314.034	13.42
314.246	14.94
314.459	13.75
314.671	14.16
314.884	12.58
315.096	14.48
315.309	14.84
315.521	14.01
315.733	11.74
315.946	11.46
316.158	12.65
316.371	13.77
316.583	11.9
316.795	12.68
317.008	12.51
317.22	12.52
317.432	10.79
317.644	10.85
317.857	11.46
318.069	12.82
318.281	14
318.494	14.46
318.706	13.34
318.918	14.91
319.13	14.79
319.342	14.35
319.555	14.32
319.767	13.35
319.979	12.76
320.191	12.76
320.403	12.3
320.615	12.67
320.827	12.84
321.039	15.97
321.252	16.87
321.464	17.56
321.676	20.44
321.888	20.55
322.1	21.23
322.312	22.49
322.524	23.65
322.736	23.47
322.948	22.31
323.16	19.02
323.372	17.01
323.584	16.32
323.796	15.24
324.007	13.33
324.219	13
324.431	14.28
324.643	12.1
324.855	11.21
325.067	10.78
325.279	10.57
325.491	11.38
325.702	12.52
325.914	11.43
326.126	11.52
326.338	11.77
326.55	12.6
326.761	13.07
326.973	14.81
327.185	13.46
327.396	13.74
327.608	14.86
327.82	15.62
328.032	14.17
328.243	14.32
328.455	15.94
328.666	16.06
328.878	15.79
329.09	14.48
329.301	14.69
329.513	15.66
329.725	14.71
329.936	13.75
330.148	14.93
330.359	14.86
330.571	14.93
330.782	12.82
330.994	13.84
331.205	15.12
331.417	14.37
331.628	13.69
331.84	14.12
332.051	17.11
332.262	17.47
332.474	16.99
332.685	17.51
332.897	18.09
333.108	19.59
333.319	19.75
333.531	19.28
333.742	21.42
333.953	22.02
334.165	22.82
334.376	22.41
334.587	22.34
334.799	22.95
335.01	23.06
335.221	22.29
335.432	21.83
335.644	21.05
335.855	19.34
336.066	17.7
336.277	16.83
336.488	17.75
336.7	17.53
336.911	17.64
337.122	17.55
337.333	17.93
337.544	18.85
337.755	18.94
337.966	19.07
338.177	19.71
338.388	19.66
338.599	19.89
338.811	19.19
339.022	18.51
339.233	19.35
339.444	18.54
339.655	17.7
339.866	18.21
340.076	18.8
340.287	18.59
340.498	19.73
340.709	20.63
340.92	21.96
341.131	21.18
341.342	21.7
341.553	20.77
341.764	21.64
341.975	22.89
342.185	21.53
342.396	20.01
342.607	19.84
342.818	20.57
343.029	19
343.239	18.7
343.45	19.41
343.661	20.52
343.872	21.63
344.082	20.42
344.293	19.77
344.504	21.64
344.714	22.46
344.925	22.79
345.136	21.94
345.346	23.08
345.557	23.67
345.768	24.19
345.978	22.86
346.189	22.48
346.399	23.47
346.61	24.19
346.821	22.86
347.031	23.55
347.242	22.11
347.452	21.44
347.663	20.38
347.873	19.64
348.084	18.14
348.294	19.19
348.504	17.93
348.715	17.82
348.925	17.36
349.136	17.89
349.346	17.02
349.557	18.84
349.767	20.53
349.977	22.65
350.188	23.22
350.398	24.4
350.608	25.08
350.819	25.34
351.029	24.55
351.239	24.3
351.449	24.49
351.66	24.78
351.87	23.65
352.08	22.42
352.29	21.47
352.501	20.98
352.711	20.87
352.921	19.79
353.131	20.6
353.341	20.61
353.552	22.52
353.762	23.4
353.972	24.08
354.182	24.64
354.392	24.42
354.602	25.22
354.812	24.67
355.022	25.04
355.232	25.84
355.442	26.49
355.652	27.09
355.862	25.51
356.072	25.94
356.282	25.83
356.492	26.53
356.702	26.57
356.912	24.99
357.122	25.31
357.332	25.22
357.542	24.79
357.752	24.43
357.962	24.39
358.171	24.92
358.381	24.18
358.591	24.29
358.801	24.64
359.011	26.04
359.221	27.8
359.43	27.9
359.64	27.23
359.85	27.31
360.06	27.74
360.269	27.96
360.479	28.1
360.689	27.27
360.899	26.8
361.108	26.59
361.318	26.01
361.528	25.89
361.737	25.72
361.947	25.96
362.156	25.85
362.366	25.56
362.576	25.02
362.785	25.08
362.995	25.78
363.204	26.25
363.414	25.81
363.623	25.98
363.833	25.32
364.042	26.01
364.252	26.11
364.461	25.37
364.671	25.15
364.88	25.9
365.09	25.92
365.299	25.97
365.509	25.5
365.718	25.59
365.927	25.52
366.137	25.3
366.346	24.29
366.555	24.56
366.765	25.62
366.974	26.58
367.183	26.37
367.393	24.84
367.602	24.18
367.811	23.51
368.021	23.17
368.23	22.7
368.439	23.25
368.648	23.1
368.857	22.68
369.067	21.9
369.276	19.98
369.485	20.01
369.694	20.69
369.903	21.65
370.112	23.33
370.321	23.78
370.531	23.71
370.74	23.06
370.949	22.95
371.158	23.06
371.367	23.57
371.576	23.97
371.785	23.88
371.994	23.71
372.203	23.49
372.412	23.39
372.621	23.07
372.83	23
373.039	23.51
373.248	23.35
373.457	23.38
373.666	23.35
373.874	23.13
374.083	22.57
374.292	23.02
374.501	22.58
374.71	21.74
374.919	21.91
375.128	22.43
375.336	22.7
375.545	22.66
375.754	22.25
375.963	22.54
376.171	22.7
376.38	23.62
376.589	23.88
376.798	23.7
377.006	24.12
377.215	24.17
377.424	23.73
377.632	23.81
377.841	24.28
378.05	25.17
378.258	24.14
378.467	24.83
378.675	24.22
378.884	24.56
379.093	25.12
379.301	25.06
379.51	25.07
379.718	25.31
379.927	25.08
380.135	25.11
380.344	24.67
380.552	25.4
380.761	24.71
380.969	24.92
381.177	24.33
381.386	24.17
381.594	23.77
381.803	23.18
382.011	23.21
382.219	22.67
382.428	22.01
382.636	21.04
382.845	21.18
383.053	21.6
383.261	21.56
383.469	21.74
383.678	21.44
383.886	21.51
384.094	22.57
384.302	22.59
384.511	22.84
384.719	23.15
384.927	24.01
385.135	23.95
385.343	23.79
385.552	24.17
385.76	23.78
385.968	24.03
386.176	24.23
386.384	23.56
386.592	23.02
386.8	23.07
387.008	23.15
387.216	22.91
387.424	22.54
387.633	22.45
387.841	21.81
388.049	22.2
388.257	22.1
388.465	21.62
388.672	21.76
388.88	21.9
389.088	21.95
389.296	21.4
389.504	21.28
389.712	21.5
389.92	21.28
390.128	21.37
390.336	21.25
390.544	21.24
390.751	21.68
390.959	21.67
391.167	22.11
391.375	22.15
391.583	22.76
391.79	22.8
391.998	22.81
392.206	23.23
392.414	23.36
392.621	23.48
392.829	23.2
393.037	23.27
393.244	23.19
393.452	22.97
393.66	22.87
393.867	22.56
394.075	22.52
394.283	22.77
394.49	22.98
394.698	22.96
394.905	22.72
395.113	23.13
395.32	23.07
395.528	23.38
395.735	23.32
395.943	23.39
396.15	23.77
396.358	23.84
396.565	23.77
396.773	23.53
396.98	23.48
397.188	23.76
397.395	23.93
397.602	23.72
397.81	23.42
398.017	23.85
398.225	23.98
398.432	23.86
398.639	23.98
398.847	24.09
399.054	24.11
399.261	24.02
399.468	23.83
399.676	23.7
399.883	23.99
400.09	23.71
400.297	23.35
400.505	23.18
400.712	23.33
400.919	23.39
401.126	23.38
401.333	23.64
401.54	24.01
401.748	24.4
401.955	24.34
402.162	24.3
402.369	25.13
402.576	25.53
402.783	25.88
402.99	25.71
403.197	25.59
403.404	25.47
403.611	25.21
403.818	25.11
404.025	24.95
404.232	24.88
404.439	25.03
404.646	24.97
404.853	24.89
405.06	24.8
405.267	25.28
405.474	25.42
405.681	25.46
405.887	25.34
406.094	25.43
406.301	25.52
406.508	25.56
406.715	25.72
406.922	25.56
407.128	25.22
407.335	25.21
407.542	25.16
407.749	25.1
407.955	25.1
408.162	25.55
408.369	25.86
408.575	25.64
408.782	25.55
408.989	25.47
409.195	25.56
409.402	26.02
409.609	26.26
409.815	26.1
410.022	26.26
410.228	26.18
410.435	26.47
410.642	25.97
410.848	26.54
411.055	26.56
411.261	26.39
411.468	26.33
411.674	26.23
411.881	25.94
412.087	25.9
412.294	25.61
412.5	25.8
412.706	25.2
412.913	25.46
413.119	25.01
413.326	25.17
413.532	25.14
413.738	24.89
413.945	24.56
414.151	24.49
414.357	24.45
414.564	24.59
414.77	24.54
414.976	24.49
415.182	24.46
415.389	24.27
415.595	24.17
415.801	24.05
416.007	24.21
416.214	24.34
416.42	24.21
416.626	24.29
416.832	24.31
417.038	24.17
417.244	24.09
417.45	24.05
417.657	24.18
417.863	24.39
418.069	24.44
418.275	24.18
418.481	24.35
418.687	24.32
418.893	24.16
419.099	24.1
419.305	24.11
419.511	24.2
419.717	24.17
419.923	24.12
420.129	24.01
420.335	24.09
420.541	24.28
420.746	24.07
420.952	24.15
421.158	24.09
421.364	24.07
421.57	24.08
421.776	23.94
421.982	23.99
422.187	24.15
422.393	24.16
422.599	24.12
422.805	24.11
423.01	24.37
423.216	24.45
423.422	24.37
423.628	24.49
423.833	24.4
424.039	24.53
424.245	24.5
424.45	24.22
424.656	24.23
424.862	24.19
425.067	24.17
425.273	23.99
425.478	23.93
425.684	24.03
425.889	23.91
426.095	23.99
426.301	24.05
426.506	23.95
426.712	24.05
426.917	23.94
427.123	23.96
427.328	24.07
427.533	24.07
427.739	23.95
427.944	23.84
428.15	24
428.355	24.07
428.561	24.04
428.766	23.88
428.971	24.14
429.177	24.19
429.382	23.86
429.587	23.67
429.793	23.55
429.998	23.73
430.203	24.11
430.408	23.72
430.614	23.55
430.819	23.44
431.024	23.39
431.229	23.06
431.434	23.01
431.64	23.24
431.845	23.26
432.05	23.34
432.255	23.24
432.46	23.04
432.665	23.35
432.87	23.14
433.076	23.2
433.281	23.46
433.486	23.47
433.691	23.56
433.896	23.62
434.101	23.69
434.306	23.73
434.511	23.85
434.716	23.84
434.921	23.77
435.126	24.04
435.331	23.91
435.535	24.01
435.74	23.96
435.945	23.95
436.15	23.78
436.355	23.7
436.56	23.58
436.765	23.41
436.97	23.74
437.174	23.83
437.379	23.78
437.584	23.8
437.789	23.52
437.993	23.62
438.198	23.47
438.403	23.55
438.608	23.57
438.812	23.79
439.017	23.87
439.222	23.65
439.426	23.57
439.631	23.62
439.836	23.7
440.04	23.93
440.245	23.97
440.45	23.96
440.654	23.99
440.859	24.1
441.063	24.04
441.268	24.02
441.472	23.91
441.677	23.89
441.881	23.85
442.086	23.81
442.29	23.53
442.495	23.65
442.699	23.61
442.904	23.51
443.108	23.28
443.312	23.07
443.517	23.09
443.721	23.15
443.925	23.15
444.13	23.13
444.334	23.15
444.538	23.35
444.743	23.13
444.947	23.17
445.151	23.19
445.356	23.17
445.56	23.21
445.764	23.13
445.968	23.12
446.173	23.16
446.377	23.18
446.581	23.17
446.785	23.08
446.989	23.16
447.193	23.14
447.398	23.21
447.602	23.14
447.806	23.2
448.01	23.09
448.214	22.96
448.418	22.89
448.622	22.84
448.826	22.73
449.03	22.68
449.234	22.58
449.438	22.51
449.642	22.55
449.846	22.76
450.05	22.56
450.254	22.54
450.458	22.67
450.662	22.62
450.866	22.57
451.069	22.7
451.273	22.64
451.477	22.68
451.681	22.82
451.885	22.57
452.089	22.55
452.292	22.59
452.496	22.76
452.7	22.86
452.904	22.77
453.107	22.59
453.311	22.42
453.515	22.42
453.719	22.19
453.922	22.21
454.126	22.2
454.33	22.14
454.533	22.05
454.737	21.93
454.94	21.78
455.144	21.87
455.348	22.22
455.551	22.21
455.755	22.27
455.958	22.47
456.162	22.38
456.365	22.49
456.569	22.5
456.772	22.63
456.976	22.64
457.179	22.77
457.383	22.68
457.586	22.46
457.79	22.61
457.993	22.69
458.196	22.69
458.4	22.68
458.603	22.63
458.807	22.66
459.01	22.76
459.213	22.88
459.417	22.84
459.62	22.9
459.823	22.98
460.026	23.01
460.23	22.95
460.433	22.87
460.636	23.03
460.839	23.2
461.042	23.21
461.246	23.21
461.449	23.07
461.652	23.1
461.855	23.06
462.058	23.18
462.261	23.25
462.464	23.38
462.668	23.76
462.871	23.6
463.074	23.32
463.277	23.23
463.48	23.17
463.683	23.23
463.886	23.14
464.089	23.3
464.292	23.11
464.495	23.13
464.698	23.02
464.901	22.91
465.104	22.85
465.306	23.17
465.509	23.19
465.712	23.28
465.915	23.22
466.118	23.27
466.321	23.26
466.524	23.36
466.726	23.44
466.929	23.53
467.132	23.37
467.335	23.49
467.538	23.38
467.74	23.4
467.943	23.29
468.146	23.32
468.348	23.42
468.551	23.19
468.754	23.18
468.956	22.75
469.159	22.8
469.362	22.93
469.564	22.64
469.767	22.49
469.969	22.45
470.172	22.47
470.375	22.46
470.577	22.38
470.78	22.56
470.982	22.49
471.185	22.74
471.387	22.63
471.59	22.64
471.792	22.93
471.995	22.97
472.197	23.18
472.399	23.22
472.602	23.35
472.804	23.29
473.007	23.39
473.209	23.46
473.411	23.54
473.614	23.61
473.816	23.38
474.018	23.4
474.22	23.54
474.423	23.38
474.625	23.33
474.827	23.35
475.03	23.48
475.232	23.39
475.434	23.39
475.636	23.26
475.838	23.21
476.04	23.37
476.243	23.26
476.445	23.38
476.647	23.41
476.849	23.43
477.051	23.47
477.253	23.38
477.455	23.3
477.657	23.3
477.859	23.3
478.061	23.26
478.263	23.28
478.465	23.24
478.667	23.14
478.869	23.1
479.071	23.21
479.273	23.2
479.475	23.26
479.677	23.4
479.879	23.43
480.081	23.53
480.283	23.62
480.485	23.69
480.686	23.79
480.888	23.71
481.09	23.63
481.292	23.48
481.494	23.44
481.695	23.4
481.897	23.37
482.099	23.3
482.301	23.29
482.502	23.16
482.704	23.11
482.906	23.12
483.107	23.18
483.309	23.23
483.511	23.28
483.712	23.29
483.914	23.28
484.115	23.26
484.317	23.3
484.519	23.24
484.72	23.28
484.922	23.27
485.123	23.23
485.325	23.17
485.526	23.13
485.728	23.09
485.929	23.16
486.131	23.11
486.332	23.12
486.534	23.13
486.735	23.16
486.936	23.09
487.138	23.12
487.339	23.11
487.541	23.17
487.742	23.21
487.943	23.25
488.144	23.18
488.346	23.2
488.547	23.28
488.748	23.27
488.95	23.28
489.151	23.35
489.352	23.39
489.553	23.43
489.755	23.35
489.956	23.32
490.157	23.27
490.358	23.24
490.559	23.2
490.76	23.1
490.961	23.05
491.163	23.1
491.364	23.05
491.565	23.03
491.766	23.12
491.967	23.17
492.168	23.16
492.369	23.22
492.57	23.31
492.771	23.42
492.972	23.45
493.173	23.46
493.374	23.51
493.575	23.63
493.776	23.59
493.976	23.58
494.177	23.57
494.378	23.68
494.579	23.57
494.78	23.45
494.981	23.39
495.182	23.29
495.382	23.31
495.583	23.21
495.784	23.23
495.985	23.31
496.185	23.26
496.386	23.14
496.587	23.13
496.788	23.22
496.988	23.19
497.189	23.1
497.39	23.22
497.59	23.18
497.791	23.15
497.992	23.16
498.192	23.08
498.393	23.1
498.593	23.15
498.794	23.1
498.994	23.05
499.195	23.08
499.395	23.25
499.596	23.23
499.796	23.29
499.997	23.42
500.197	23.38
500.398	23.35
500.598	23.17
500.799	23.17
500.999	23.22
501.199	23.36
501.4	23.37
501.6	23.37
501.801	23.41
502.001	23.42
502.201	23.42
502.402	23.44
502.602	23.46
502.802	23.66
503.002	23.68
503.203	23.67
503.403	23.64
503.603	23.67
503.803	23.61
504.003	23.75
504.204	23.78
504.404	23.56
504.604	23.56
504.804	23.52
505.004	23.42
505.204	23.52
505.404	23.7
505.604	23.54
505.804	23.55
506.005	23.63
506.205	23.31
506.405	23.36
506.605	23.48
506.805	23.42
507.005	23.46
507.204	23.56
507.404	23.64
507.604	23.46
507.804	23.51
508.004	23.58
508.204	23.44
508.404	23.58
508.604	23.55
508.804	23.68
509.003	23.74
509.203	23.84
509.403	23.83
509.603	23.76
509.803	23.67
510.002	23.74
510.202	23.62
510.402	23.8
510.602	23.83
510.801	23.91
511.001	23.78
511.201	23.74
511.4	23.91
511.6	24.03
511.8	23.94
511.999	24.26
512.199	24.29
512.398	24.27
512.598	24.17
512.797	24.18
512.997	24.13
513.197	24.18
513.396	24.28
513.596	24.2
513.795	23.98
513.994	24.1
514.194	23.88
514.393	23.88
514.593	23.89
514.792	23.94
514.992	23.88
515.191	23.71
515.39	23.78
515.59	23.69
515.789	23.77
515.988	24
516.188	23.98
516.387	24.06
516.586	23.91
516.786	23.96
516.985	23.9
517.184	23.94
517.383	24.11
517.582	24.15
517.782	24.15
517.981	24.14
518.18	23.99
518.379	23.95
518.578	23.84
518.777	23.98
518.976	24.02
519.176	24.12
519.375	24.14
519.574	24.16
519.773	24.1
519.972	24.13
520.171	23.97
520.37	24.02
520.569	24.12
520.768	24.22
520.967	24.26
521.166	24.3
521.365	24.1
521.564	24.3
521.762	24.12
521.961	24.16
522.16	24.11
522.359	24.3
522.558	24.37
522.757	24.48
522.956	24.47
523.154	24.47
523.353	24.35
523.552	24.34
523.751	24.13
523.949	24.34
524.148	24.4
524.347	24.4
524.546	24.38
524.744	24.31
524.943	24.15
525.142	24.07
525.34	24.03
525.539	24.01
525.737	24.09
525.936	24.02
526.135	23.91
526.333	23.94
526.532	24.06
526.73	24.05
526.929	24.05
527.127	24.11
527.326	24.19
527.524	24.3
527.723	24.3
527.921	24.33
528.12	24.41
528.318	24.47
528.516	24.48
528.715	24.45
528.913	24.46
529.112	24.46
529.31	24.47
529.508	24.47
529.707	24.42
529.905	24.5
530.103	24.55
530.301	24.56
530.5	24.54
530.698	24.52
530.896	24.53
531.094	24.55
531.293	24.63
531.491	24.66
531.689	24.73
531.887	24.75
532.085	24.8
532.283	24.76
532.481	24.76
532.68	24.76
532.878	24.83
533.076	24.88
533.274	24.8
533.472	24.78
533.67	24.77
533.868	24.71
534.066	24.7
534.264	24.57
534.462	24.63
534.66	24.57
534.858	24.61
535.056	24.49
535.253	24.49
535.451	24.53
535.649	24.55
535.847	24.6
536.045	24.67
536.243	24.68
536.441	24.83
536.638	24.78
536.836	24.86
537.034	24.83
537.232	24.98
537.43	24.98
537.627	25.07
537.825	25.1
538.023	25.11
538.22	25.07
538.418	25.07
538.616	25.15
538.813	25.28
539.011	25.29
539.209	25.39
539.406	25.38
539.604	25.38
539.801	25.31
539.999	25.22
540.196	25.2
540.394	25.23
540.591	25.16
540.789	25.07
540.986	24.96
541.184	25.03
541.381	24.98
541.579	24.95
541.776	24.95
541.974	25.01
542.171	25.07
542.368	25.1
542.566	25.19
542.763	25.26
542.96	25.3
543.158	25.44
543.355	25.37
543.552	25.48
543.75	25.56
543.947	25.54
544.144	25.57
544.341	25.6
544.539	25.66
544.736	25.6
544.933	25.64
545.13	25.73
545.327	25.58
545.524	25.7
545.722	25.67
545.919	25.56
546.116	25.62
546.313	25.71
546.51	25.86
546.707	25.95
546.904	26
547.101	26.11
547.298	26.05
547.495	26.21
547.692	26.15
547.889	26.21
548.086	26.39
548.283	26.41
548.48	26.47
548.677	26.56
548.874	26.62
549.07	26.47
549.267	26.41
549.464	26.66
549.661	26.72
549.858	27.1
550.055	27.06
550.251	27.02
550.448	27.16
550.645	27
550.842	26.66
551.038	26.49
551.235	26.66
551.432	26.68
551.628	26.67
551.825	26.57
552.022	26.26
552.218	26.43
552.415	26.43
552.612	26.45
552.808	26.48
553.005	26.48
553.201	26.44
553.398	26.6
553.594	26.57
553.791	26.47
553.987	26.47
554.184	26.65
554.38	26.6
554.577	26.53
554.773	26.35
554.97	26.44
555.166	26.73
555.362	26.72
555.559	26.65
555.755	26.76
555.952	26.77
556.148	26.95
556.344	26.91
556.541	26.96
556.737	26.94
556.933	27.1
557.129	27.27
557.326	27.3
557.522	27.38
557.718	27.44
557.914	27.4
558.11	27.35
558.307	27.25
558.503	27.47
558.699	27.43
558.895	27.69
559.091	27.85
559.287	27.63
559.483	27.5
559.679	27.57
559.876	27.48
560.072	27.67
560.268	27.77
560.464	27.81
560.66	27.55
560.856	27.58
561.052	27.57
561.247	27.45
561.443	27.4
561.639	27.51
561.835	27.6
562.031	27.73
562.227	27.53
562.423	27.64
562.619	27.7
562.815	27.8
563.01	27.79
563.206	27.65
563.402	27.79
563.598	27.99
563.793	27.95
563.989	28.02
564.185	28.02
564.381	28.24
564.576	28.29
564.772	28.25
564.968	28.17
565.163	28.33
565.359	28.52
565.555	28.44
565.75	28.45
565.946	28.51
566.141	28.51
566.337	28.36
566.532	28.27
566.728	28.34
566.923	28.32
567.119	28.52
567.314	28.47
567.51	28.48
567.705	28.68
567.901	28.57
568.096	28.54
568.292	28.48
568.487	28.82
568.682	28.91
568.878	28.75
569.073	28.86
569.268	28.8
569.464	28.87
569.659	28.97
569.854	28.9
570.05	28.86
570.245	28.8
570.44	28.87
570.635	28.69
570.831	28.73
571.026	28.85
571.221	29.14
571.416	29.03
571.611	29.15
571.806	28.91
572.002	28.88
572.197	29.2
572.392	29.29
572.587	29.41
572.782	29.51
572.977	29.52
573.172	29.42
573.367	29.2
573.562	29.44
573.757	29.43
573.952	29.62
574.147	29.59
574.342	29.59
574.537	29.67
574.732	29.54
574.927	29.58
575.121	29.68
575.316	29.64
575.511	29.53
575.706	29.36
575.901	29.25
576.096	29.26
576.29	29.29
576.485	29.05
576.68	28.81
576.875	28.81
577.069	28.54
577.264	28.69
577.459	28.69
577.654	28.84
577.848	28.96
578.043	29
578.238	28.78
578.432	28.74
578.627	28.99
578.821	29.18
579.016	29.29
579.21	29.76
579.405	29.45
579.6	29.57
579.794	29.4
579.989	29.4
580.183	29.48
580.378	29.72
580.572	29.64
580.766	29.3
580.961	29.35
581.155	29.48
581.35	29.05
581.544	28.99
581.738	29.13
581.933	29.35
582.127	29.44
582.321	29.16
582.516	29.23
582.71	29.13
582.904	29.45
583.099	29.45
583.293	29.33
583.487	29.64
583.681	29.56
583.875	29.5
584.07	29.49
584.264	29.41
584.458	29.45
584.652	29.36
584.846	29.53
585.04	29.39
585.234	29.36
585.428	29.36
585.623	29.28
585.817	29.48
586.011	29.62
586.205	29.5
586.399	29.68
586.593	29.74
586.787	29.73
586.981	30.01
587.174	29.87
587.368	29.99
587.562	29.81
587.756	30
587.95	30.15
588.144	30.07
588.338	30.25
588.532	29.95
588.725	30.09
588.919	30.21
589.113	30.1
589.307	30.47
589.501	30.36
589.694	30.61
589.888	30.35
590.082	30.25
590.275	30.33
590.469	30.21
590.663	30.37
590.856	30.31
591.05	30.11
591.244	29.86
591.437	29.48
591.631	29.54
591.824	29.32
592.018	29.26
592.212	29.15
592.405	28.92
592.599	28.88
592.792	28.94
592.986	28.88
593.179	29.1
593.372	29.38
593.566	29.64
593.759	29.66
593.953	29.72
594.146	30.04
594.339	30.19
594.533	30.28
594.726	30.29
594.92	29.99
595.113	30.13
595.306	30.12
595.499	30.08
595.693	30.22
595.886	30.34
596.079	30.33
596.272	30.17
596.466	30.21
596.659	30.2
596.852	30.2
597.045	30.34
597.238	30.45
597.431	30.38
597.624	30.43
597.818	30.22
598.011	30.15
598.204	30.17
598.397	30.29
598.59	30.28
598.783	30.22
598.976	30.29
599.169	30.3
599.362	30.13
599.555	30.36
599.748	30.34
599.941	30.36
600.134	30.31
600.326	30.5
600.519	30.54
600.712	30.52
600.905	30.69
601.098	30.81
601.291	30.92
601.483	30.96
601.676	30.81
601.869	30.71
602.062	30.93
602.255	30.94
602.447	30.93
602.64	30.85
602.833	30.78
603.025	30.45
603.218	30.35
603.411	30.32
603.603	30.34
603.796	30.31
603.989	30.34
604.181	30.29
604.374	30.4
604.566	30.25
604.759	30.21
604.951	30.25
605.144	30.32
605.336	30.53
605.529	30.42
605.721	30.32
605.914	30.28
606.106	30.38
606.299	30.53
606.491	30.58
606.683	30.64
606.876	30.49
607.068	30.43
607.26	30.72
607.453	30.65
607.645	30.52
607.837	30.5
608.03	30.38
608.222	30.44
608.414	30.13
608.606	29.99
608.799	30.13
608.991	30.31
609.183	30.32
609.375	30.34
609.567	29.98
609.759	30.18
609.952	30.56
610.144	30.74
610.336	30.52
610.528	30.5
610.72	30.74
610.912	30.78
611.104	30.71
611.296	30.64
611.488	30.32
611.68	30.64
611.872	30.54
612.064	30.32
612.256	30.55
612.448	30.79
612.64	30.98
612.832	30.57
613.023	30.56
613.215	30.86
613.407	30.78
613.599	31.05
613.791	30.91
613.983	31.35
614.174	31.37
614.366	31.22
614.558	31.18
614.75	31.03
614.941	31.06
615.133	30.73
615.325	30.57
615.516	30.7
615.708	30.73
615.9	30.78
616.091	30.53
616.283	30.47
616.475	30.11
616.666	30.16
616.858	30.32
617.049	30.59
617.241	30.48
617.432	30.66
617.624	30.8
617.815	30.82
618.007	30.56
618.198	30.6
618.39	30.49
618.581	30.92
618.773	31.01
618.964	30.82
619.155	30.67
619.347	30.54
619.538	30.29
619.729	30.47
619.921	30.63
620.112	30.98
620.303	30.8
620.494	31.41
620.686	31.44
620.877	30.85
621.068	30.88
621.259	30.98
621.451	31.33
621.642	31.5
621.833	31.12
622.024	30.99
622.215	30.89
622.406	30.97
622.597	30.44
622.788	30.34
622.98	30.94
623.171	31.04
623.362	30.89
623.553	31
623.744	31
623.935	31.44
624.126	31.24
624.317	30.99
624.508	31.2
624.698	31.01
624.889	31.01
625.08	30.79
625.271	30.57
625.462	30.71
625.653	30.48
625.844	30.28
626.034	29.95
626.225	30.04
626.416	30.2
626.607	29.94
626.798	30.19
626.988	30.14
627.179	30.42
627.37	30.46
627.56	30.34
627.751	30.31
627.942	30.39
628.132	30.4
628.323	30.43
628.514	30.36
628.704	30.59
628.895	30.35
629.085	30.3
629.276	29.99
629.466	30.36
629.657	30.54
629.847	31.02
630.038	30.99
630.228	31.26
630.419	31.35
630.609	31.57
630.8	31.39
630.99	31.83
631.181	31.94
631.371	32.26
631.561	31.96
631.752	32.17
631.942	31.73
632.132	31.42
632.323	31.38
632.513	31.4
632.703	31.38
632.893	31.26
633.084	30.93
633.274	30.92
633.464	31.02
633.654	31.05
633.844	30.41
634.034	30.34
634.225	30.82
634.415	30.53
634.605	30.15
634.795	30.17
634.985	30.33
635.175	30.38
635.365	30.33
635.555	30.1
635.745	29.9
635.935	30.26
636.125	30.21
636.315	30.09
636.505	30.39
636.695	30.81
636.885	31.11
637.075	31.19
637.265	31.04
637.455	30.97
637.644	30.99
637.834	31.31
638.024	31.1
638.214	31.21
638.404	31.35
638.593	31.15
638.783	31.18
638.973	30.96
639.163	30.81
639.352	31.11
639.542	30.98
639.732	30.8
639.921	30.82
640.111	30.83
640.301	30.95
640.49	30.7
640.68	30.53
640.87	30.41
641.059	30.68
641.249	30.34
641.438	29.86
641.628	29.92
641.817	30.25
642.007	30.26
642.196	30.36
642.386	30.48
642.575	30.4
642.764	30.63
642.954	30.77
643.143	30.54
643.333	31.43
643.522	31.48
643.711	31.35
643.901	30.99
644.09	30.66
644.279	30.52
644.469	30.45
644.658	30.42
644.847	30.4
645.036	30.26
645.226	30.23
645.415	30.23
645.604	30.52
645.793	30.73
645.982	31.09
646.171	31.54
646.361	31.79
646.55	31.62
646.739	31.75
646.928	31.95
647.117	31.93
647.306	31.68
647.495	31.58
647.684	31.44
647.873	31.27
648.062	30.51
648.251	30.35
648.44	30.3
648.629	30.55
648.818	30.68
649.007	30.45
649.196	30.53
649.384	30.53
649.573	30.33
649.762	30.52
649.951	31.09
650.14	31.41
650.328	31.68
650.517	31.33
650.706	31.41
650.895	31.46
651.083	31.32
651.272	31.11
651.461	31.52
651.65	31.44
651.838	31.44
652.027	31.21
652.216	31.4
652.404	31.03
652.593	31.42
652.781	31.16
652.97	31.29
653.158	31.59
653.347	31.47
653.535	30.87
653.724	30.79
653.912	30.67
654.101	30.05
654.289	30.03
654.478	30.28
654.666	30.31
654.855	30.7
655.043	30.23
655.231	30.13
655.42	30.83
655.608	30.83
655.796	30.42
655.985	29.93
656.173	30.64
656.361	30.85
656.55	30.88
656.738	30.89
656.926	31.1
657.114	31.26
657.302	31.41
657.491	31.03
657.679	31.41
657.867	31.76
658.055	32.3
658.243	31.9
658.431	31.74
658.619	31.77
658.807	31.8
658.996	31.64
659.184	31.69
659.372	31.45
659.56	31.21
659.748	31.17
659.936	31.2
660.124	31.41
660.311	31.57
660.499	32.04
660.687	31.86
660.875	31.91
661.063	31.46
661.251	31.24
661.439	31.48
661.627	31.74
661.814	31.54
662.002	31.39
662.19	30.64
662.378	30.88
662.565	30.29
662.753	30.18
662.941	30.26
663.129	30.41
663.316	30.65
663.504	30.29
663.692	30.09
663.879	30.27
664.067	30.24
664.254	30.69
664.442	30.73
664.63	30.33
664.817	30.6
665.005	30.29
665.192	30.38
665.38	30.17
665.567	30.39
665.755	30.61
665.942	30.71
666.13	31.27
666.317	31.05
666.504	30.51
666.692	31.28
666.879	31.02
667.067	30.85
667.254	31.01
667.441	31.25
667.629	31.18
667.816	31.36
668.003	31.17
668.19	31.16
668.378	31.19
668.565	31.19
668.752	30.44
668.939	30.32
669.127	29.48
669.314	29.7
669.501	29.84
669.688	30.17
669.875	30.03
670.062	30.12
670.249	30.43
670.436	30.24
670.623	30.5
670.81	30.77
670.997	31.16
671.184	32.01
671.371	31.81
671.558	31.54
671.745	31.33
671.932	31.2
672.119	31.16
672.306	30.57
672.493	30.8
672.68	31.16
672.867	31.4
673.054	31.08
673.24	30.94
673.427	31.32
673.614	31.47
673.801	31.42
673.988	31.38
674.174	31.95
674.361	31.73
674.548	31.68
674.734	31.17
674.921	31.23
675.108	31.22
675.294	31.47
675.481	31.35
675.668	30.82
675.854	30.81
676.041	30.65
676.227	29.49
676.414	29.66
676.601	29.84
676.787	30.59
676.974	30.58
677.16	30.64
677.347	30.7
677.533	30.43
677.719	30.62
677.906	30.41
678.092	30.76
678.279	31.37
678.465	31.44
678.651	31.85
678.838	31.3
679.024	31.08
679.21	31.16
679.397	31.45
679.583	30.92
679.769	31.24
679.955	31.25
680.142	30.87
680.328	30.86
680.514	30.98
680.7	30.78
680.886	30.85
681.073	30.59
681.259	30.58
681.445	30.08
681.631	30.76
681.817	30.67
682.003	30.28
682.189	30.35
682.375	30.19
682.561	30.01
682.747	29.39
682.933	29.67
683.119	30.11
683.305	29.83
683.491	30.01
683.677	29.82
683.863	29.66
684.049	30.35
684.235	30.78
684.42	31.45
684.606	31.58
684.792	31.94
684.978	31.93
685.164	32.2
685.349	32.44
685.535	32.94
685.721	32.95
685.907	32.93
686.092	32.98
686.278	32.89
686.464	31.7
686.649	31.82
686.835	31.83
687.021	31.37
687.206	31.15
687.392	31
687.577	30.9
687.763	30.89
687.948	30.82
688.134	30.22
688.319	30.12
688.505	30.7
688.69	30.24
688.876	30.31
689.061	30.38
689.247	29.98
689.432	30.47
689.618	30
689.803	29.71
689.988	30.33
690.174	30.84
690.359	30.98
690.544	31.09
690.73	31.37
690.915	31.24
691.1	30.9
691.285	31.2
691.471	30.65
691.656	31
691.841	31.28
692.026	30.33
692.211	30.02
692.396	30.13
692.582	30.15
692.767	30.49
692.952	30.72
693.137	31.27
693.322	30.8
693.507	30.92
693.692	30.83
693.877	30.88
694.062	31.58
694.247	31.68
694.432	31.14
694.617	31.09
694.802	30.41
694.987	30.64
695.172	30.19
695.357	30.68
695.541	30.29
695.726	30.04
695.911	29.49
696.096	29.19
696.281	29.2
696.466	29.75
696.65	29.81
696.835	29.84
697.02	29.8
697.204	30.42
697.389	30.78
697.574	31.14
697.759	31.38
697.943	31.79
698.128	31.67
698.312	31.63
698.497	31.45
698.682	31.4
698.866	31.22
699.051	31.25
699.235	30.97
699.42	30.55
699.604	30.65
699.789	30.38
699.973	30.3
700.158	30.48
700.342	30.43
700.527	30.82
700.711	30.61
700.895	30.6
701.08	30.02
701.264	30.16
701.448	30.47
701.633	30.48
701.817	31.19
702.001	31.3
702.186	31.88
702.37	32.09
702.554	31.77
702.738	31.69
702.923	32.32
703.107	32.85
703.291	33.02
703.475	32.74
703.659	33.2
703.843	32.87
704.027	33.26
704.212	32.23
704.396	31.9
704.58	31.57
704.764	32.38
704.948	31.84
705.132	32.18
705.316	31.67
705.5	32.11
705.684	31.63
705.868	31.11
706.052	30.05
706.235	30.1
706.419	30.58
706.603	31.13
706.787	30.23
706.971	31.21
707.155	30.85
707.339	31.01
707.522	30.59
707.706	30.18
707.89	30.07
708.074	31.16
708.257	31.18
708.441	31.09
708.625	30.51
708.808	31.13
708.992	31.11
709.176	31.33
709.359	31.09
709.543	31.19
709.727	30.57
709.91	31.08
710.094	30.14
710.277	30.16
710.461	30.45
710.644	30.73
710.828	30.58
711.011	30.18
711.195	29.68
711.378	29.94
711.562	30.01
711.745	31.05
711.928	31.85
712.112	32.16
712.295	31.93
712.478	31.46
712.662	31.58
712.845	31.41
713.028	31.48
713.212	32.07
713.395	31.91
713.578	31.86
713.761	30.82
713.945	29.7
714.128	29.31
714.311	29.94
714.494	30.24
714.677	29.57
714.86	28.8
715.043	29.14
715.227	28.13
715.41	28.38
715.593	28.07
715.776	28.43
715.959	28.88
716.142	28.81
716.325	28.88
716.508	29.12
716.691	29.47
716.874	30.52
717.057	29.96
717.239	30.87
717.422	30.09
717.605	30.71
717.788	31
717.971	31.85
718.154	32.73
718.337	31.8
718.519	30.85
718.702	30.5
718.885	29.93
719.068	29.65
719.25	30.03
719.433	29.58
719.616	29.21
719.798	29.89
719.981	28.8
720.164	28.6
720.346	28.89
720.529	28.87
720.712	28.86
720.894	28.95
721.077	29.61
721.259	28.77
721.442	29.57
721.624	29.8
721.807	30.12
721.989	29.77
722.172	29.28
722.354	29.98
722.537	30.41
722.719	30.47
722.901	30.19
723.084	29.55
723.266	29.6
723.448	29.55
723.631	28.22
723.813	27.51
723.995	27.08
724.178	27.17
724.36	26.99
724.542	25.88
724.724	26.72
724.907	27.41
725.089	28.11
725.271	27.99
725.453	28.05
725.635	29.36
725.817	29.25
725.999	28.89
726.181	29.22
726.364	29.19
726.546	30.84
726.728	30.02
726.91	30.33
727.092	30.7
727.274	30.01
727.456	30.1
727.638	30.18
727.819	30.68
728.001	31.3
728.183	31.91
728.365	31.96
728.547	31.38
728.729	31.09
728.911	30.44
729.093	30.61
729.274	31.03
729.456	31.24
729.638	31.11
729.82	30.84
730.001	31.03
730.183	30.52
730.365	30.49
730.546	30.05
730.728	30.93
730.91	31.35
731.091	30.62
731.273	31.34
731.455	31.31
731.636	31.02
731.818	31.01
731.999	31.67
732.181	32.49
732.362	31.9
732.544	32.49
732.725	32.6
732.907	31.93
733.088	32.06
733.27	32.43
733.451	32.52
733.633	34.08
733.814	33.9
733.995	34.1
734.177	32.72
734.358	33.59
734.539	34.08
734.721	33.29
734.902	34.04
735.083	34.35
735.264	34.71
735.446	35.22
735.627	34.25
735.808	34.6
735.989	33.56
736.17	33.51
736.351	33.69
736.533	33.04
736.714	33.49
736.895	33.93
737.076	33.35
737.257	30.97
737.438	30.93
737.619	30.04
737.8	31.04
737.981	30.68
738.162	30.77
738.343	30.19
738.524	29.86
738.705	30.23
738.886	28.74
739.067	28.16
739.247	29.85
739.428	29.04
739.609	30.23
739.79	27.8
739.971	28.78
740.151	29.83
740.332	29.8
740.513	29.78
740.694	30.06
740.874	31.47
741.055	32.24
741.236	31.62
741.417	32.37
741.597	30.62
741.778	30.21
741.958	29.41
742.139	29.37
742.32	30.29
742.5	31.63
742.681	32.22
742.861	32.25
743.042	32.23
743.222	32.54
743.403	32.44
743.583	32.85
743.764	34.45
743.944	35.2
744.124	35.2
744.305	33.74
744.485	32.42
744.666	32.16
744.846	31.34
745.026	31.32
745.207	32.13
745.387	32.29
745.567	31.82
745.747	31.44
745.928	31.14
746.108	31.4
746.288	31.45
746.468	31.76
746.648	30.69
746.829	30.64
747.009	31.26
747.189	30.64
747.369	30.54
747.549	32.23
747.729	31.96
747.909	31.05
748.089	29.79
748.269	30.55
748.449	31.23
748.629	32.33
748.809	32.9
748.989	33.15
749.169	33.81
749.349	33.1
749.529	31.92
749.709	32.26
749.889	32.29
750.068	32.8
750.248	34.02
750.428	34.84
750.608	33.6
750.788	33.85
750.967	33.34
751.147	31.71
751.327	32.31
751.507	31.95
751.686	31.91
751.866	32.73
752.046	31.71
752.225	29.53
752.405	28.21
752.585	27.82
752.764	28.53
752.944	28.13
753.123	29.35
753.303	29.06
753.482	29.41
753.662	30.41
753.841	30.14
754.021	31.52
754.2	32.51
754.38	31.86
754.559	32
754.739	31.47
754.918	31.2
755.097	30.71
755.277	30.86
755.456	30.39
755.635	29.77
755.815	30.13
755.994	29.88
756.173	29.71
756.352	30.53
756.532	30.88
756.711	30.25
756.89	30.5
757.069	29.94
757.248	29.51
757.427	29.4
757.607	30.01
757.786	29.31
757.965	27.66
758.144	28.51
758.323	27.93
758.502	27.36
758.681	26.31
758.86	27.03
759.039	27.34
759.218	28.34
759.397	29.7
759.576	28.59
759.755	28.71
759.934	30.57
760.113	30.32
760.291	31.63
760.47	32.69
760.649	32.79
760.828	31.63
761.007	32.8
761.186	32.55
761.364	32.59
761.543	32.87
761.722	32.85
761.901	32.32
762.079	32.96
762.258	31.55
762.437	30.73
762.615	31.33
762.794	31.69
762.972	30.8
763.151	30.87
763.33	31.08
763.508	31.16
763.687	31.07
763.865	30.86
764.044	29.93
764.222	30.31
764.401	29.93
764.579	30.48
764.758	30.03
764.936	30.21
765.114	28.9
765.293	27.92
765.471	27.7
765.65	28.15
765.828	27.49
766.006	26.63
766.184	26.6
766.363	26.87
766.541	26.64
766.719	27.73
766.898	26.97
767.076	28.04
767.254	28.94
767.432	29.5
767.61	29.79
767.788	31.02
767.967	31.74
768.145	31.83
768.323	31.07
768.501	31.38
768.679	31.17
768.857	31.97
769.035	32.1
769.213	33.15
769.391	32.66
769.569	30.73
769.747	31.26
769.925	30.55
770.103	32.04
770.281	32.55
770.459	32.32
770.636	31.98
770.814	30.83
770.992	31.27
771.17	30.17
771.348	29.26
771.525	29.34
771.703	29.82
771.881	31.52
772.059	31.1
772.236	33.78
772.414	32.38
772.592	31.5
772.769	32.58
772.947	32.48
773.125	31.55
773.302	32.5
773.48	33.34
773.657	31.81
773.835	31.82
774.013	30.57
774.19	28.69
774.368	30.28
774.545	31.45
774.723	32.42
774.9	30.79
775.077	30.33
775.255	31.33
775.432	32.78
775.61	33.86
775.787	34.81
775.964	34.72
776.142	34.41
776.319	34.9
776.496	34.1
776.674	36.14
776.851	36.8
777.028	37.93
777.205	37.4
777.382	37.66
777.56	37.28
777.737	34.96
777.914	32.91
778.091	32.33
778.268	30.5
778.445	29.13
778.622	27.89
778.8	28.34
778.977	28.26
779.154	28.9
779.331	26.83
779.508	23.41
779.685	23.52
779.862	25.74
780.038	25.18
780.215	26.48
780.392	28.29
780.569	24.04
780.746	23.28
780.923	22.31
781.1	23.39
781.277	24.45
781.453	26.37
781.63	27.42
781.807	26.96
781.984	32.76
782.16	33.27
782.337	34.25
782.514	38.77
782.691	40.16
782.867	39.47
783.044	36.84
783.221	37.62
783.397	38.24
783.574	35.91
783.75	34.73
783.927	30.87
784.103	30.29
784.28	30.84
784.456	29.88
784.633	30.86
784.809	31.69
784.986	32.84
785.162	31.1
785.339	30.63
785.515	32.62
785.692	34.46
785.868	33.05
786.044	33.05
786.221	30.6
786.397	29.95
786.573	29.71
786.749	29.62
786.926	28.6
787.102	27.52
787.278	27.46
787.454	28.87
787.631	29.83
787.807	30.95
787.983	31.81
788.159	31.07
788.335	31.53
788.511	28.98
788.687	30.14
788.863	32.23
789.039	32.91
789.216	32.84
789.392	32.23
789.568	32.91
789.744	31.74
789.919	28.92
790.095	29.84
790.271	30.92
790.447	31.02
790.623	29.96
790.799	26.28
790.975	27.89
791.151	30.53
791.327	28.48
791.502	26.39
791.678	27.57
791.854	28.42
792.03	29.18
792.205	27.24
792.381	30.58
792.557	30.67
792.733	32.28
792.908	35.72
793.084	34.21
793.259	36.7
793.435	35.77
793.611	34.68
793.786	35.02
793.962	33.27
794.137	33.98
794.313	33.99
794.488	32.46
794.664	34.38
794.839	30.28
795.015	29.8
795.19	27.66
795.366	30.94
795.541	31.29
795.716	31.51
795.892	32.7
796.067	31.63
796.242	31.69
796.418	33.33
796.593	31.48
796.768	30.12
796.944	30.79
797.119	31.56
797.294	28.42
797.469	29.01
797.644	31.31
797.82	34.17
797.995	33.7
798.17	32.27
798.345	32.22
798.52	29.31
798.695	29.47
798.87	31.62
799.045	28.71
799.22	29.57
799.395	30.16
799.57	29.16
799.745	27.93
799.92	27.85
800.095	26.56
800.27	25.67
800.445	29.95
800.62	31.86
800.795	28.34
800.97	36.28
801.145	36.88
801.319	38.18
801.494	36.73
801.669	35.2
801.844	34.59
802.018	34.84
802.193	36.01
802.368	31.52
802.543	30.15
802.717	30.62
802.892	24.51
803.067	23.72
803.241	20.83
803.416	21.51
803.59	22.03
803.765	24.66
803.94	27
804.114	26.12
804.289	30.77
804.463	31.95
804.638	34.22
804.812	35.74
804.986	35.31
805.161	36.74
805.335	36.85
805.51	37.04
805.684	36.38
805.858	34.15
806.033	35.93
806.207	32.22
806.381	29.77
806.556	26.46
806.73	27.2
806.904	30.47
807.078	31.56
807.253	30.66
807.427	32.18
807.601	32.72
807.775	35.92
807.949	35.94
808.123	35.51
808.298	36.03
808.472	36.1
808.646	35.71
808.82	34.99
808.994	29.02
809.168	29.29
809.342	29.3
809.516	26.56
809.69	24.47
809.864	25.35
810.038	31.13
810.212	32.34
810.385	27.82
810.559	26.67
810.733	27.75
810.907	30.53
811.081	29.08
811.255	26.24
811.428	27.15
811.602	22.29
811.776	26.01
811.95	26.28
812.123	26.22
812.297	27.47
812.471	32.52
812.644	28.4
812.818	28.47
812.992	27.84
813.165	31.75
813.339	30.34
813.512	37.13
813.686	31.12
813.86	25.2
814.033	27.13
814.207	31.13
814.38	23.5
814.554	27.97
814.727	29.1
814.9	32.95
815.074	30.98
815.247	37.97
815.421	36.76
815.594	38.5
815.767	43.43
815.941	46.28
816.114	44.77
816.287	48.28
816.46	45.12
816.634	46.29
816.807	48.89
816.98	44.18
817.153	36.97
817.327	36.75
817.5	32.64
817.673	26.75
817.846	26.63
818.019	27.22
818.192	26.98
818.365	30.56
818.538	31.39
818.711	28.23
818.884	32.97
819.057	33.37
819.23	32.19
819.403	33.98
819.576	33.76
819.749	29.8
819.922	30
820.095	28.8
820.268	25.79
820.441	23.25
820.614	25.98
820.786	25.9
820.959	25.68
821.132	25.92
821.305	26.29
821.477	27.17
821.65	27.04
821.823	27.5
821.996	28.49
822.168	29.26
822.341	29.14
822.514	27.53
822.686	27.64
822.859	28.13
823.031	28.07
823.204	28.21
823.376	28.61
823.549	28.6
823.722	28.67
823.894	28.62
824.067	28.59
824.239	29.19
824.411	29.93
824.584	30.44
824.756	30.11
824.929	28.86
825.101	28.91
825.273	28.45
825.446	29.46
825.618	29.19
825.79	29.33
825.963	28.96
826.135	29.7
826.307	29.84
826.479	28.81
826.652	30.21
826.824	31.19
826.996	30.27
827.168	29.69
827.34	29.25
827.512	29.58
827.684	29.6
827.856	31.2
828.029	29.9
828.201	29.37
828.373	29.81
828.545	28.79
828.717	30.77
828.889	30.75
829.061	31.72
829.232	32.36
829.404	30.88
829.576	29.94
829.748	26.38
829.92	29.96
830.092	28.58
830.264	28.37
830.436	29.35
830.607	26.81
830.779	27.59
830.951	30.4
831.123	26.6
831.294	29.11
831.466	29.72
831.638	31.54
831.809	27.41
831.981	26.93
832.153	29.94
832.324	30.13
832.496	33.8
832.667	32.73
832.839	27.72
833.011	31.9
833.182	29.68
833.354	29.18
833.525	29.77
833.697	29.27
833.868	33.08
834.039	31.8
834.211	28.8
834.382	28.7
834.554	27.39
834.725	30.44
834.896	31.19
835.068	31.33
835.239	32.25
835.41	32.35
835.581	31.77
835.753	29.93
835.924	28.44
836.095	29.71
836.266	30.01
836.438	31.31
836.609	28.93
836.78	25.46
836.951	22.53
837.122	17.98
837.293	17.26
837.464	16.35
837.635	16.94
837.806	17.74
837.977	16.41
838.148	17.29
838.319	16.11
838.49	10.72
838.661	14.87
838.832	20.13
839.003	29.89
839.174	27.2
839.345	32.33
839.516	36.38
839.687	38.83
839.857	43.9
840.028	41.96
840.199	48.72
840.37	55.19
840.54	60.32
840.711	60.31
840.882	62.32
841.053	58.05
841.223	58.51
841.394	55.41
841.564	49.34
841.735	49.49
841.906	44.25
842.076	39.97
842.247	40.08
842.417	34.65
842.588	32.4
842.758	25.65
842.929	27.21
843.099	19.39
843.27	15.36
843.44	24.89
843.611	31.16
843.781	38.2
843.951	46.51
844.122	44.26
844.292	51.89
844.462	64.98
844.633	68.97
844.803	68.94
844.973	66.51
845.144	69.4
845.314	66.17
845.484	63.59
845.654	68.32
845.824	67.94
845.995	60.7
846.165	52.77
846.335	39.51
846.505	42.28
846.675	45.83
846.845	58.29
847.015	55.34
847.185	54.33
847.355	54.58
847.525	62.27
847.695	62.85
847.865	60.02
848.035	68.39
848.205	86.15
848.375	93.57
848.545	79.38
848.715	54.18
848.884	71.4
849.054	58.26
849.224	44.47
849.394	25.47
849.564	23.51
849.733	39.96
849.903	35.94
850.073	18.54
850.243	16.71
850.412	31.02
850.582	40.02
850.752	42.09
850.921	41.68
851.091	52.06
851.26	50.97
851.43	47.11
851.599	40.08
851.769	41.6
851.939	64.95
852.108	79.01
852.278	70.56
852.447	61.7
852.616	47.23
852.786	54.37
852.955	61.63
853.125	71.33
853.294	58.37
853.463	72.29
853.633	89.61
853.802	81.83
853.971	53.8
854.141	55.75
854.31	64.55
854.479	63.38
854.648	62.35
854.818	49.04
854.987	45.16
855.156	64.32
855.325	58.92
855.494	54.56
855.663	64.96
855.832	83.56
856.001	81.43
856.171	81.32
856.34	76.12
856.509	53.67
856.678	52.92
856.847	51.55
857.016	58.26
857.185	52.11
857.353	53.08
857.522	31.33
857.691	27.72
857.86	1.51
858.029	-1.96
858.198	16.82
858.367	65.24
858.535	62.7
858.704	53.93
858.873	47.89
859.042	55.98
859.21	47.49
859.379	71.51
859.548	59
859.717	77.73
859.885	59.65
860.054	46.59
860.222	48.41
860.391	59.25
860.56	60.47
860.728	42.55
860.897	40.73
861.065	50.4
861.234	40.66
861.402	62.08
861.571	60.68
861.739	63.69
861.908	67.42
862.076	46.97
862.244	35.82
862.413	55.37
862.581	73.29
862.749	70.44
862.918	76.64
863.086	74.76
863.254	68.79
863.423	60.67
863.591	66.95
863.759	69.91
863.927	72.99
864.096	81.71
864.264	78.67
864.432	74.4
864.6	66.18
864.768	63.13
864.936	85.21
865.104	86.69
865.272	99.58
865.44	185.03
865.608	131.65
865.776	132.03
865.944	109.86
866.112	90.32
866.28	112.49
866.448	112.65
866.616	103.3
866.784	88.5
866.952	91.09
867.12	89.72
867.288	72.02
867.455	72.39
867.623	77.41
867.791	99.67
867.959	96.36
868.127	89.67
868.294	87.65
868.462	100.02
868.63	125.24
868.797	130.78
868.965	130.35
869.133	156.33
869.3	158.97
869.468	188.31
869.636	96.26
869.803	110.59
869.971	92.93
870.138	85.46
870.306	71.22
870.473	40.11
870.641	24.86
870.808	25.11
870.975	36.05
871.143	40.67
871.31	15.12
871.478	9.72
871.645	11.96
871.812	1.7
871.98	21.4
872.147	11.53
872.314	15.04
872.482	35.64
872.649	42.44
872.816	29.31
872.983	40.25
873.15	29.26
873.318	37.86
873.485	31.46
873.652	51.97
873.819	58.84
873.986	92.32
874.153	100.86
874.32	70.82
874.487	55.15
874.654	59.54
874.821	52.25
874.988	108.26
875.155	111.88
875.322	98.64
875.489	80.34
875.656	86.65
875.823	78.2
875.99	66.57
876.157	81.1
876.324	89.71
876.49	77.02
876.657	65
876.824	68.46
876.991	59.1
877.157	42.27
877.324	58.96
877.491	58.83
877.658	35.64
877.824	53.76
877.991	56.83
878.157	52.36
878.324	67.39
878.491	65
878.657	52
878.824	50.89
878.99	60.95
879.157	50.11
879.323	52.09
879.49	56.52
879.656	50.8
879.823	47.45
879.989	54.66
880.156	37.15
880.322	56.62
880.488	60.69
880.655	56.44
880.821	53.72
880.987	58.11
881.154	51.41
881.32	49.52
881.486	46.64
881.652	43.45
881.819	46.56
881.985	45.55
882.151	43.15
882.317	38.68
882.483	42.38
882.649	40.84
882.816	30.88
882.982	29.14
883.148	28.14
883.314	29.67
883.48	30.27
883.646	24.67
883.812	26.43
883.978	26.8
884.144	27.8
884.31	26.81
884.476	27.78
884.642	29.48
884.807	32.3
884.973	35.04
885.139	34.99
885.305	34.75
885.471	37.55
885.637	36.77
885.802	35.55
885.968	36.37
886.134	32.8
886.3	35.41
886.465	37.27
886.631	36.99
886.797	33.1
886.962	32.67
887.128	28.14
887.293	25.58
887.459	23.28
887.625	27.22
887.79	22.66
887.956	35.37
888.121	29.3
888.287	30.33
888.452	23.65
888.618	31.75
888.783	29.22
