Data from 2938071_Reflection_2.txt Node
Date: Sat Jul 11 20:36:52 EDT 2015
User: robert
Spectrometer: USB4E03001
Autoset integration time: false
Trigger mode: 4
Integration Time (sec): 1.000000E-1
Scans to average: 10
Electric dark correction enabled: true
Nonlinearity correction enabled: false
Boxcar width: 5
Stray light correction enabled: false
XAxis mode: Wavelengths
Stop averaging: false
Number of Pixels in Spectrum: 3648
>>>>>Begin Spectral Data<<<<<
177.566	67.7
177.785	74.3
178.005	74.77
178.225	22.17
178.445	-0.49
178.665	52
178.885	-143.13
179.105	107.86
179.324	140.68
179.544	97.91
179.764	3.62
179.984	71.55
180.204	151.03
180.423	345.59
180.643	203.21
180.863	188.3
181.083	106.16
181.302	92.72
181.522	71.75
181.742	76.88
181.961	91.71
182.181	55.09
182.401	59.43
182.621	19.54
182.84	-3.6
183.06	-5.49
183.279	4.15
183.499	19.6
183.719	13.35
183.938	23.78
184.158	35.52
184.377	12.56
184.597	20.73
184.816	38.94
185.036	47.4
185.256	31.44
185.475	36.45
185.695	39.6
185.914	45.07
186.134	51.37
186.353	18.31
186.572	1.98
186.792	11.01
187.011	-1.66
187.231	-51.59
187.45	-168.72
187.67	-124.85
187.889	-221.89
188.108	3147.02
188.328	392.77
188.547	368.3
188.766	1165.91
188.986	1751.84
189.205	-402.68
189.424	-192.38
189.644	-131.07
189.863	-48.53
190.082	-136.06
190.302	9.81
190.521	12.71
190.74	-13.83
190.959	-61.38
191.178	-174.83
191.398	-99.68
191.617	-101.95
191.836	-148.37
192.055	-91.79
192.274	-63.6
192.494	-218
192.713	-148.46
192.932	-6.91
193.151	9.45
193.37	22.84
193.589	21.95
193.808	16.86
194.027	17.91
194.246	23.05
194.465	35.43
194.685	17.19
194.904	28.6
195.123	13.59
195.342	14.36
195.561	-12.22
195.78	-47.13
195.999	-87.62
196.218	-35.28
196.436	225.58
196.655	182.24
196.874	320.15
197.093	216.82
197.312	242.43
197.531	561.85
197.75	1478.33
197.969	-342.35
198.188	-65.27
198.407	-69.59
198.625	-18.29
198.844	18.08
199.063	26.02
199.282	25.58
199.501	22.24
199.719	54.39
199.938	69.19
200.157	97.26
200.376	95.04
200.594	120.34
200.813	103.5
201.032	316.14
201.251	-137.6
201.469	100.17
201.688	73.37
201.907	48.69
202.125	28.84
202.344	57.12
202.563	-28.21
202.781	13.79
203	44
203.218	50.92
203.437	40.55
203.656	45.51
203.874	49.9
204.093	45.98
204.311	179.47
204.53	1313.64
204.748	-2.49
204.967	-228.83
205.185	18.77
205.404	76.83
205.622	77.85
205.841	35.81
206.059	-158.47
206.278	-67.31
206.496	196.89
206.715	145.51
206.933	69.92
207.151	60.3
207.37	45.08
207.588	64.84
207.806	93.14
208.025	90.63
208.243	91.49
208.461	88.04
208.68	120.88
208.898	107.49
209.116	99.48
209.335	90.34
209.553	97.18
209.771	96.23
209.989	92.78
210.208	76.73
210.426	70.89
210.644	64.94
210.862	36.48
211.081	16.98
211.299	22.13
211.517	30.8
211.735	36.13
211.953	30.34
212.171	16.47
212.39	9.52
212.608	22.31
212.826	13.25
213.044	-2.13
213.262	7.93
213.48	-34.42
213.698	-35.38
213.916	-92.11
214.134	-145.36
214.352	-67.3
214.57	-35.66
214.788	0.69
215.006	6.65
215.224	29.77
215.442	92.26
215.66	53.93
215.878	72.08
216.096	95.47
216.314	87.44
216.532	70.37
216.75	58.13
216.968	41.72
217.185	63.69
217.403	44.06
217.621	31.27
217.839	-27.87
218.057	-29.4
218.275	-58.46
218.492	-59.47
218.71	-63.29
218.928	-61.4
219.146	-31.38
219.363	-29.56
219.581	-58.93
219.799	-60.08
220.017	-85.44
220.234	-97.11
220.452	-91.03
220.67	-63.49
220.887	-30.18
221.105	-37.35
221.323	-48.6
221.54	-43.45
221.758	-4.61
221.976	-8.68
222.193	-8.26
222.411	-23.36
222.629	-42.37
222.846	-40.86
223.064	-75.15
223.281	-74.94
223.499	-85.29
223.716	-61.77
223.934	-104.83
224.151	-144.59
224.369	-147.67
224.586	-98.04
224.804	-45.72
225.021	-29.03
225.239	-23.28
225.456	12.68
225.674	6.25
225.891	6.76
226.108	9.67
226.326	9.89
226.543	10.43
226.76	21.45
226.978	16.96
227.195	10.19
227.413	6.08
227.63	11.75
227.847	7.23
228.064	2.93
228.282	2.61
228.499	2.64
228.716	2.13
228.934	0.56
229.151	1.53
229.368	3.67
229.585	5.59
229.802	6.83
230.02	2.85
230.237	1.51
230.454	2.43
230.671	1.62
230.888	3.4
231.105	0.43
231.323	4.73
231.54	6.48
231.757	4.18
231.974	1.64
232.191	7.83
232.408	13.22
232.625	20.72
232.842	19.96
233.059	19.69
233.276	19.17
233.493	24.29
233.71	19.21
233.927	21.54
234.144	22.3
234.361	21
234.578	11.43
234.795	8.91
235.012	0.38
235.229	2.69
235.446	4.32
235.663	2.79
235.879	3.62
236.096	3.11
236.313	0.53
236.53	-4.23
236.747	1.59
236.964	1.65
237.181	4.82
237.397	8.05
237.614	8.23
237.831	13.16
238.048	10.86
238.264	6.69
238.481	8.4
238.698	2.14
238.915	5.51
239.131	6.59
239.348	9.36
239.565	6.35
239.781	8.88
239.998	4.89
240.215	2.58
240.431	3.78
240.648	7.92
240.865	9.88
241.081	13.79
241.298	15.29
241.514	14.32
241.731	13.47
241.947	13.7
242.164	13.61
242.38	14.89
242.597	15.61
242.814	16.79
243.03	18.24
243.246	16.54
243.463	14.72
243.679	13.88
243.896	13.64
244.112	12.66
244.329	13.11
244.545	14.34
244.762	14.2
244.978	12.6
245.194	11.23
245.411	9.22
245.627	10.47
245.843	11.01
246.06	12.38
246.276	10.36
246.492	11.11
246.709	11.08
246.925	9.62
247.141	10.49
247.357	10.11
247.574	10.66
247.79	9.34
248.006	8.99
248.222	9.17
248.439	8.1
248.655	8.41
248.871	7.46
249.087	6.67
249.303	6.58
249.519	5.63
249.736	5.73
249.952	4.98
250.168	8.04
250.384	7.18
250.6	5.17
250.816	6.31
251.032	6.71
251.248	6.06
251.464	5.47
251.68	6.63
251.896	4.29
252.112	4.06
252.328	3.92
252.544	2.27
252.76	3.63
252.976	5.96
253.192	7.37
253.408	6.93
253.624	8.72
253.84	7.94
254.056	5.49
254.272	6.53
254.487	5.34
254.703	4.35
254.919	3.67
255.135	5.42
255.351	2.32
255.567	-1.09
255.782	-0.14
255.998	2
256.214	6.54
256.43	7.1
256.646	8.79
256.861	14.63
257.077	13.01
257.293	12.76
257.508	9.49
257.724	8.43
257.94	8.48
258.155	8.3
258.371	6.53
258.587	7.09
258.802	7.41
259.018	6.69
259.234	5.74
259.449	6.23
259.665	5.95
259.88	6.45
260.096	6.86
260.312	6.34
260.527	6.32
260.743	7
260.958	6.23
261.174	6.09
261.389	6.28
261.605	6.38
261.82	5.87
262.036	5.92
262.251	6.06
262.466	6.6
262.682	5.92
262.897	5.53
263.113	5.08
263.328	5.6
263.543	3.99
263.759	1.52
263.974	-1.55
264.189	-0.36
264.405	-0.51
264.62	-1.54
264.835	-1.92
265.051	-1.29
265.266	0.68
265.481	-2.04
265.696	-2.22
265.912	1
266.127	4.67
266.342	4.63
266.557	4.72
266.773	3.75
266.988	4.13
267.203	2.63
267.418	4.21
267.633	2.82
267.848	3.21
268.064	2.54
268.279	2.6
268.494	0.64
268.709	2.08
268.924	0.01
269.139	0.97
269.354	1.9
269.569	1.98
269.784	2.51
269.999	2.88
270.214	1.98
270.429	0.45
270.644	-0.88
270.859	0.99
271.074	-0.93
271.289	0.55
271.504	1.52
271.719	1.5
271.934	3.14
272.149	2.11
272.363	2.62
272.578	3.89
272.793	5.52
273.008	6.68
273.223	6.51
273.438	7.06
273.653	5.94
273.867	5.47
274.082	4.32
274.297	4.32
274.512	4.49
274.726	4.4
274.941	5.67
275.156	5.17
275.371	4.85
275.585	4.9
275.8	7.09
276.015	7.36
276.229	6.98
276.444	7.35
276.659	7.33
276.873	7.65
277.088	5.82
277.302	3.71
277.517	3.11
277.732	1.44
277.946	1.96
278.161	0.26
278.375	1.95
278.59	1.83
278.804	3.52
279.019	2.48
279.233	0.99
279.448	2.27
279.662	2.14
279.877	2.9
280.091	5.24
280.306	4.68
280.52	7.66
280.735	7.93
280.949	8.24
281.163	7.51
281.378	8.67
281.592	8.83
281.806	9.73
282.021	10.83
282.235	11
282.449	10.12
282.664	9.75
282.878	6.8
283.092	7.28
283.307	8.01
283.521	6.87
283.735	6.89
283.949	6.54
284.164	6.66
284.378	6.78
284.592	6.91
284.806	6.15
285.02	6.8
285.234	6.28
285.449	6.62
285.663	6.01
285.877	7.12
286.091	6.73
286.305	7.61
286.519	8
286.733	6.92
286.947	6.67
287.161	6.9
287.375	5.6
287.589	7.25
287.803	5.13
288.017	6.15
288.231	5.18
288.445	4.48
288.659	4.38
288.873	3.61
289.087	5.38
289.301	6.4
289.515	6.82
289.729	7.18
289.943	6.24
290.157	7.32
290.371	8.07
290.584	8.51
290.798	8.72
291.012	9.56
291.226	9.58
291.44	9.61
291.654	8.52
291.867	9.18
292.081	10.46
292.295	10.82
292.509	10.31
292.722	9.73
292.936	9.58
293.15	11.43
293.364	10.48
293.577	9.33
293.791	8.51
294.005	8.51
294.218	9.24
294.432	8.64
294.645	9.75
294.859	10.51
295.073	9.27
295.286	10.09
295.5	8.86
295.713	8.53
295.927	10.24
296.14	9.8
296.354	9.9
296.568	8.76
296.781	8.18
296.994	8.13
297.208	7.83
297.421	8.51
297.635	8.32
297.848	8.29
298.062	9.03
298.275	8.2
298.489	9.39
298.702	8.63
298.915	8.72
299.129	9.21
299.342	7.91
299.555	8.72
299.769	8.03
299.982	7.34
300.195	6.96
300.409	6.83
300.622	7.27
300.835	7.58
301.048	8.35
301.262	10.16
301.475	10.37
301.688	10.79
301.901	10.53
302.115	10.32
302.328	10.05
302.541	9.1
302.754	9.5
302.967	8.17
303.18	6.91
303.393	7.98
303.607	6.21
303.82	5.37
304.033	5.67
304.246	5.14
304.459	6.08
304.672	7.48
304.885	9.36
305.098	8.93
305.311	10.02
305.524	11.52
305.737	10.62
305.95	10.98
306.163	12.83
306.376	12.45
306.589	12.75
306.802	12.95
307.015	12.68
307.228	11.42
307.44	11.57
307.653	10.68
307.866	10.23
308.079	10.74
308.292	10.2
308.505	8.63
308.718	9.22
308.93	8.34
309.143	6.14
309.356	5.97
309.569	5.88
309.781	5.37
309.994	6.35
310.207	5.88
310.42	6.72
310.632	7.33
310.845	6.92
311.058	6.38
311.27	7.39
311.483	9.21
311.696	10.57
311.908	10.89
312.121	11.04
312.333	11.82
312.546	12.14
312.759	12.32
312.971	11.58
313.184	13.09
313.396	14.31
313.609	14.82
313.821	14.25
314.034	11.88
314.246	11.69
314.459	11.53
314.671	10.75
314.884	10.23
315.096	8.53
315.309	9.17
315.521	9.05
315.733	8.22
315.946	7.27
316.158	7.29
316.371	8.39
316.583	8.99
316.795	7.88
317.008	8.14
317.22	7.9
317.432	7.83
317.644	9.17
317.857	9.11
318.069	7.45
318.281	7.77
318.494	8.14
318.706	9.4
318.918	9.49
319.13	11.27
319.342	10.94
319.555	10.91
319.767	11.61
319.979	10.11
320.191	9.42
320.403	10.02
320.615	9.2
320.827	10.31
321.039	11.01
321.252	11.99
321.464	11.16
321.676	10.48
321.888	10.67
322.1	11.1
322.312	12.34
322.524	13.5
322.736	16.32
322.948	16.47
323.16	16.26
323.372	14.42
323.584	13.25
323.796	12.91
324.007	12.3
324.219	12.5
324.431	13.04
324.643	12.22
324.855	12.05
325.067	10.21
325.279	9.03
325.491	8.49
325.702	8.31
325.914	8.98
326.126	9.33
326.338	11.86
326.55	11.86
326.761	10.16
326.973	10.62
327.185	9.87
327.396	10.14
327.608	11.23
327.82	12.36
328.032	12.64
328.243	12.24
328.455	11.95
328.666	9.33
328.878	10.4
329.09	9.82
329.301	9.05
329.513	7.92
329.725	8.56
329.936	9.44
330.148	7.54
330.359	8.03
330.571	9.01
330.782	9.66
330.994	10.62
331.205	9.83
331.417	11.38
331.628	11.14
331.84	12.81
332.051	12.65
332.262	9.98
332.474	11.44
332.685	11.13
332.897	10.62
333.108	11.82
333.319	11.65
333.531	10.59
333.742	9.98
333.953	10.52
334.165	11.23
334.376	10.79
334.587	13.43
334.799	12.53
335.01	13.06
335.221	12.75
335.432	11.38
335.644	12.04
335.855	12.85
336.066	12.12
336.277	11.05
336.488	10.52
336.7	10.18
336.911	8.68
337.122	10.07
337.333	8.33
337.544	8.74
337.755	8.5
337.966	9.17
338.177	9.19
338.388	10.62
338.599	11.66
338.811	10.22
339.022	10.43
339.233	10.7
339.444	9.55
339.655	11.18
339.866	10.48
340.076	11.27
340.287	10.48
340.498	10.79
340.709	10.7
340.92	10.51
341.131	10.66
341.342	10.84
341.553	11.61
341.764	10.54
341.975	9.53
342.185	8.55
342.396	8.4
342.607	9.23
342.818	9.27
343.029	9.28
343.239	8.65
343.45	10.46
343.661	9.44
343.872	8.06
344.082	9.77
344.293	9.64
344.504	10.2
344.714	8.74
344.925	7.49
345.136	8.6
345.346	9.2
345.557	10.31
345.768	10.1
345.978	10.03
346.189	11.2
346.399	10.53
346.61	11.16
346.821	12.25
347.031	15.18
347.242	15.62
347.452	14.18
347.663	14.22
347.873	13.49
348.084	12.71
348.294	13.56
348.504	11.91
348.715	11.79
348.925	11.37
349.136	10.76
349.346	9.32
349.557	8.8
349.767	8.6
349.977	8.34
350.188	7.72
350.398	8.26
350.608	8.46
350.819	9.08
351.029	9.26
351.239	9.55
351.449	10.29
351.66	9
351.87	9.46
352.08	9.63
352.29	8.23
352.501	10.24
352.711	11.29
352.921	10.52
353.131	10.77
353.341	10.46
353.552	10.05
353.762	9.63
353.972	10.96
354.182	11.35
354.392	10.43
354.602	11.17
354.812	10.73
355.022	10.36
355.232	12.25
355.442	13.25
355.652	13.53
355.862	14.52
356.072	14.07
356.282	13.96
356.492	13.39
356.702	14.78
356.912	15.44
357.122	14.73
357.332	13.37
357.542	12.45
357.752	11.51
357.962	12.15
358.171	11.45
358.381	12.45
358.591	11.91
358.801	12.15
359.011	11.6
359.221	10.73
359.43	10.79
359.64	11.26
359.85	11.2
360.06	11.06
360.269	10.1
360.479	10.17
360.689	9.38
360.899	9.46
361.108	9.04
361.318	9.63
361.528	10.2
361.737	10.13
361.947	11.23
362.156	10.9
362.366	11.44
362.576	11.95
362.785	12.24
362.995	11.95
363.204	12.7
363.414	12.52
363.623	12
363.833	11.38
364.042	11.75
364.252	10.93
364.461	11.29
364.671	11.04
364.88	10.66
365.09	10.81
365.299	11.96
365.509	10.48
365.718	11.21
365.927	11.09
366.137	11.53
366.346	11.37
366.555	11.7
366.765	11.31
366.974	11.17
367.183	11.28
367.393	10.27
367.602	9.58
367.811	10
368.021	9.68
368.23	10.54
368.439	9.91
368.648	9.57
368.857	9.03
369.067	9.6
369.276	8.75
369.485	8.39
369.694	9.22
369.903	9.5
370.112	9.11
370.321	9.17
370.531	8.55
370.74	8.5
370.949	8.72
371.158	8.7
371.367	8.23
371.576	9.41
371.785	10.08
371.994	9.39
372.203	9.28
372.412	10.26
372.621	10.53
372.83	10.16
373.039	10.31
373.248	10.18
373.457	9.11
373.666	8.15
373.874	7.31
374.083	6.34
374.292	6.77
374.501	6.61
374.71	6.2
374.919	5.54
375.128	5.29
375.336	5.48
375.545	5.05
375.754	5.47
375.963	7.12
376.171	6.6
376.38	6.51
376.589	5.82
376.798	6.24
377.006	6.02
377.215	5.92
377.424	5.78
377.632	5.72
377.841	6.29
378.05	7
378.258	6.01
378.467	6.75
378.675	6.84
378.884	6.83
379.093	6.4
379.301	6.29
379.51	6.42
379.718	6.7
379.927	6.39
380.135	5.98
380.344	5.65
380.552	5.69
380.761	6.22
380.969	6.93
381.177	7.55
381.386	7.12
381.594	7.51
381.803	7.63
382.011	8.4
382.219	8.52
382.428	8.79
382.636	8.4
382.845	8.33
383.053	7.4
383.261	6.91
383.469	6.65
383.678	7.24
383.886	7.06
384.094	6.81
384.302	6.47
384.511	6.92
384.719	7
384.927	7.33
385.135	7.82
385.343	8.09
385.552	8.19
385.76	8.31
385.968	7.68
386.176	7.6
386.384	7.7
386.592	7.42
386.8	6.81
387.008	6.55
387.216	6.36
387.424	5.99
387.633	6.03
387.841	6.06
388.049	6.03
388.257	6.02
388.465	6.02
388.672	6.05
388.88	6.01
389.088	6.32
389.296	6.27
389.504	6.19
389.712	5.95
389.92	5.37
390.128	5.07
390.336	4.81
390.544	5
390.751	5.09
390.959	4.93
391.167	4.98
391.375	4.84
391.583	5
391.79	5.29
391.998	5.47
392.206	5.74
392.414	5.83
392.621	6.1
392.829	6.12
393.037	6.08
393.244	6.39
393.452	6.55
393.66	6.46
393.867	6.22
394.075	5.9
394.283	5.68
394.49	6.02
394.698	6.15
394.905	5.88
395.113	5.83
395.32	5.33
395.528	4.96
395.735	4.79
395.943	4.91
396.15	5.52
396.358	5.53
396.565	5.35
396.773	4.77
396.98	4.4
397.188	4.47
397.395	4.51
397.602	4.87
397.81	4.92
398.017	5.01
398.225	5.12
398.432	4.54
398.639	4.62
398.847	4.88
399.054	5.42
399.261	5.88
399.468	5.63
399.676	5.36
399.883	5.5
400.09	5.26
400.297	5.16
400.505	4.75
400.712	4.9
400.919	4.69
401.126	4.68
401.333	4.41
401.54	3.62
401.748	3.7
401.955	3.93
402.162	3.89
402.369	4.39
402.576	4.2
402.783	4.4
402.99	4.04
403.197	3.98
403.404	3.94
403.611	3.76
403.818	4.17
404.025	4.18
404.232	4.16
404.439	4.18
404.646	3.91
404.853	3.75
405.06	3.67
405.267	3.8
405.474	3.93
405.681	4.03
405.887	4.22
406.094	4.16
406.301	4.18
406.508	4.22
406.715	3.98
406.922	3.96
407.128	4.15
407.335	4.24
407.542	4.42
407.749	4.5
407.955	4.39
408.162	4.19
408.369	3.73
408.575	3.83
408.782	3.46
408.989	3.46
409.195	3.45
409.402	3.43
409.609	3.47
409.815	3.32
410.022	3.26
410.228	3.08
410.435	3.02
410.642	3.38
410.848	3.37
411.055	3.53
411.261	3.69
411.468	3.59
411.674	3.79
411.881	3.85
412.087	3.84
412.294	3.89
412.5	4.24
412.706	4.57
412.913	4.55
413.119	4.5
413.326	4.75
413.532	4.38
413.738	4.5
413.945	4.17
414.151	4.07
414.357	4
414.564	4
414.77	3.96
414.976	3.93
415.182	3.68
415.389	3.6
415.595	3.53
415.801	3.94
416.007	4.08
416.214	4.21
416.42	4.12
416.626	4.34
416.832	4.33
417.038	4.3
417.244	4.25
417.45	4.49
417.657	4.55
417.863	4.64
418.069	4.74
418.275	4.61
418.481	4.52
418.687	4.4
418.893	4.28
419.099	4.4
419.305	4.44
419.511	4.46
419.717	4.45
419.923	4.49
420.129	4.28
420.335	4.13
420.541	4.15
420.746	4.27
420.952	4.35
421.158	4.28
421.364	3.99
421.57	3.89
421.776	3.83
421.982	3.79
422.187	3.63
422.393	3.75
422.599	3.7
422.805	3.68
423.01	3.54
423.216	3.6
423.422	3.62
423.628	3.76
423.833	3.96
424.039	3.96
424.245	3.88
424.45	4.06
424.656	4
424.862	4.05
425.067	4.24
425.273	4.28
425.478	4.18
425.684	4.35
425.889	4.37
426.095	4.33
426.301	4.28
426.506	4.39
426.712	4.22
426.917	4.1
427.123	4.08
427.328	3.95
427.533	4
427.739	4
427.944	3.77
428.15	3.66
428.355	3.3
428.561	3.33
428.766	3.28
428.971	3.38
429.177	3.43
429.382	3.35
429.587	3.17
429.793	3.03
429.998	3.08
430.203	3.11
430.408	3.08
430.614	3.34
430.819	3.56
431.024	3.65
431.229	3.44
431.434	3.54
431.64	3.63
431.845	3.66
432.05	3.75
432.255	3.67
432.46	3.56
432.665	3.65
432.87	3.65
433.076	3.45
433.281	3.45
433.486	3.64
433.691	3.65
433.896	3.42
434.101	3.45
434.306	3.52
434.511	3.56
434.716	3.71
434.921	3.82
435.126	3.8
435.331	3.81
435.535	3.83
435.74	3.82
435.945	3.77
436.15	4.06
436.355	4.12
436.56	3.95
436.765	3.92
436.97	4.01
437.174	3.97
437.379	3.97
437.584	3.91
437.789	3.77
437.993	3.73
438.198	3.66
438.403	3.6
438.608	3.5
438.812	3.66
439.017	3.68
439.222	3.58
439.426	3.41
439.631	3.56
439.836	3.63
440.04	3.81
440.245	3.75
440.45	3.82
440.654	3.81
440.859	3.83
441.063	3.81
441.268	3.7
441.472	3.75
441.677	3.67
441.881	3.56
442.086	3.76
442.29	3.48
442.495	3.68
442.699	3.7
442.904	3.77
443.108	3.82
443.312	3.73
443.517	3.79
443.721	3.62
443.925	3.85
444.13	3.8
444.334	3.49
444.538	3.72
444.743	3.65
444.947	3.67
445.151	3.7
445.356	3.66
445.56	3.61
445.764	3.76
445.968	3.87
446.173	3.92
446.377	3.77
446.581	3.96
446.785	3.8
446.989	3.7
447.193	3.53
447.398	3.41
447.602	3.28
447.806	3.36
448.01	3.29
448.214	3.13
448.418	3.05
448.622	3.18
448.826	2.93
449.03	2.99
449.234	3.01
449.438	3.3
449.642	3.19
449.846	3.52
450.05	3.47
450.254	3.43
450.458	3.68
450.662	3.68
450.866	3.54
451.069	3.69
451.273	3.7
451.477	3.72
451.681	3.61
451.885	3.66
452.089	3.4
452.292	3.31
452.496	3.29
452.7	3.12
452.904	3.18
453.107	3.31
453.311	3.37
453.515	3.47
453.719	3.6
453.922	3.66
454.126	3.78
454.33	3.91
454.533	4.07
454.737	4.02
454.94	4.03
455.144	3.91
455.348	3.82
455.551	3.81
455.755	3.71
455.958	3.53
456.162	3.3
456.365	3.17
456.569	3.02
456.772	2.9
456.976	2.93
457.179	2.92
457.383	3.06
457.586	3.19
457.79	3.08
457.993	3.01
458.196	3.05
458.4	3.18
458.603	3.16
458.807	3.15
459.01	3.26
459.213	3.21
459.417	3.24
459.62	3.24
459.823	3.21
460.026	3.24
460.23	3.19
460.433	3.12
460.636	3.03
460.839	3.09
461.042	3.03
461.246	2.94
461.449	3.03
461.652	2.85
461.855	2.82
462.058	2.61
462.261	2.54
462.464	2.6
462.668	2.75
462.871	2.87
463.074	2.87
463.277	2.93
463.48	3.06
463.683	3.04
463.886	3.23
464.089	3.23
464.292	3.23
464.495	3.18
464.698	3.5
464.901	3.32
465.104	3.33
465.306	3.3
465.509	3.36
465.712	3.28
465.915	3.15
466.118	3.06
466.321	3.06
466.524	3.41
466.726	3.38
466.929	3.21
467.132	3.3
467.335	3.27
467.538	3.23
467.74	3.14
467.943	3.19
468.146	3.36
468.348	3.44
468.551	3.47
468.754	3.36
468.956	3.48
469.159	3.54
469.362	3.36
469.564	3.31
469.767	3.5
469.969	3.66
470.172	3.63
470.375	3.62
470.577	3.61
470.78	3.62
470.982	3.54
471.185	3.48
471.387	3.44
471.59	3.51
471.792	3.48
471.995	3.41
472.197	3.4
472.399	3.51
472.602	3.41
472.804	3.54
473.007	3.49
473.209	3.61
473.411	3.59
473.614	3.45
473.816	3.53
474.018	3.48
474.22	3.32
474.423	3.21
474.625	3.17
474.827	3.23
475.03	3.05
475.232	2.82
475.434	2.73
475.636	2.76
475.838	2.93
476.04	2.87
476.243	3.15
476.445	3.1
476.647	3.03
476.849	3.02
477.051	3.05
477.253	3.02
477.455	3.15
477.657	3.23
477.859	3.25
478.061	3.15
478.263	3.13
478.465	2.97
478.667	3.07
478.869	3.18
479.071	3.08
479.273	3
479.475	3.16
479.677	3.2
479.879	3.23
480.081	3.38
480.283	3.45
480.485	3.72
480.686	3.76
480.888	3.84
481.09	3.68
481.292	3.69
481.494	3.72
481.695	3.68
481.897	3.61
482.099	3.52
482.301	3.35
482.502	3.2
482.704	3.14
482.906	3.16
483.107	3.18
483.309	3.24
483.511	3.21
483.712	3.24
483.914	3.27
484.115	3.32
484.317	3.31
484.519	3.35
484.72	3.44
484.922	3.42
485.123	3.4
485.325	3.39
485.526	3.4
485.728	3.42
485.929	3.38
486.131	3.32
486.332	3.32
486.534	3.35
486.735	3.33
486.936	3.26
487.138	3.31
487.339	3.34
487.541	3.25
487.742	3.28
487.943	3.26
488.144	3.22
488.346	3.26
488.547	3.21
488.748	3.13
488.95	3.17
489.151	3.21
489.352	3.18
489.553	3.14
489.755	3.26
489.956	3.27
490.157	3.3
490.358	3.47
490.559	3.41
490.76	3.34
490.961	3.39
491.163	3.37
491.364	3.34
491.565	3.37
491.766	3.34
491.967	3.26
492.168	3.28
492.369	3.32
492.57	3.2
492.771	3.2
492.972	3.28
493.173	3.26
493.374	3.29
493.575	3.34
493.776	3.15
493.976	3.04
494.177	2.98
494.378	2.86
494.579	2.82
494.78	2.91
494.981	3.01
495.182	3.1
495.382	3.24
495.583	3.13
495.784	3.08
495.985	3.23
496.185	3.5
496.386	3.64
496.587	3.64
496.788	3.73
496.988	3.63
497.189	3.51
497.39	3.49
497.59	3.34
497.791	3.38
497.992	3.38
498.192	3.49
498.393	3.45
498.593	3.3
498.794	3.24
498.994	3.21
499.195	3.37
499.395	3.46
499.596	3.5
499.796	3.45
499.997	3.53
500.197	3.6
500.398	3.5
500.598	3.26
500.799	3.47
500.999	3.56
501.199	3.54
501.4	3.41
501.6	3.39
501.801	3.09
502.001	3.28
502.201	3.16
502.402	3.08
502.602	2.99
502.802	3.15
503.002	3.11
503.203	3.14
503.403	3.08
503.603	3.12
503.803	3.08
504.003	3.41
504.204	3.36
504.404	3.41
504.604	3.41
504.804	3.51
505.004	3.49
505.204	3.36
505.404	3.47
505.604	3.47
505.804	3.66
506.005	3.65
506.205	3.46
506.405	3.4
506.605	3.46
506.805	3.61
507.005	3.68
507.204	3.78
507.404	3.96
507.604	3.97
507.804	3.85
508.004	3.72
508.204	3.84
508.404	3.73
508.604	3.72
508.804	3.7
509.003	3.56
509.203	3.46
509.403	3.49
509.603	3.48
509.803	3.47
510.002	3.67
510.202	3.6
510.402	3.64
510.602	3.88
510.801	4.09
511.001	3.98
511.201	4.09
511.4	4.05
511.6	3.92
511.8	4.01
511.999	3.95
512.199	3.94
512.398	3.97
512.598	3.91
512.797	3.92
512.997	3.83
513.197	3.91
513.396	3.99
513.596	4.19
513.795	4.31
513.994	4.21
514.194	4.23
514.393	4.31
514.593	4.31
514.792	4.31
514.992	4.33
515.191	4.22
515.39	4.36
515.59	4.09
515.789	3.89
515.988	3.95
516.188	4.01
516.387	4.14
516.586	4.16
516.786	4.19
516.985	4.17
517.184	4.07
517.383	4.22
517.582	4.11
517.782	4.29
517.981	4.43
518.18	4.46
518.379	4.4
518.578	4.25
518.777	4.06
518.976	4
519.176	4.03
519.375	4.08
519.574	3.97
519.773	3.94
519.972	3.9
520.171	3.77
520.37	3.71
520.569	3.81
520.768	3.96
520.967	4.15
521.166	4.24
521.365	4.26
521.564	4.13
521.762	4.33
521.961	4.48
522.16	4.57
522.359	4.71
522.558	4.65
522.757	4.52
522.956	4.25
523.154	4.26
523.353	4.35
523.552	4.24
523.751	4.31
523.949	4.17
524.148	4.06
524.347	3.91
524.546	3.88
524.744	3.8
524.943	3.92
525.142	3.98
525.34	3.93
525.539	3.87
525.737	3.92
525.936	3.86
526.135	3.85
526.333	3.89
526.532	3.99
526.73	4.01
526.929	4.15
527.127	4.09
527.326	4.16
527.524	4.16
527.723	4.15
527.921	4.19
528.12	4.25
528.318	4.27
528.516	4.27
528.715	4.26
528.913	4.26
529.112	4.27
529.31	4.28
529.508	4.25
529.707	4.24
529.905	4.3
530.103	4.29
530.301	4.39
530.5	4.42
530.698	4.55
530.896	4.51
531.094	4.52
531.293	4.47
531.491	4.52
531.689	4.58
531.887	4.6
532.085	4.61
532.283	4.62
532.481	4.51
532.68	4.51
532.878	4.42
533.076	4.48
533.274	4.53
533.472	4.63
533.67	4.54
533.868	4.58
534.066	4.56
534.264	4.59
534.462	4.59
534.66	4.64
534.858	4.7
535.056	4.73
535.253	4.74
535.451	4.71
535.649	4.73
535.847	4.83
536.045	4.89
536.243	5.05
536.441	5.08
536.638	5.11
536.836	5.09
537.034	5.05
537.232	5.06
537.43	5.06
537.627	5.06
537.825	5.12
538.023	5.16
538.22	5.14
538.418	5.11
538.616	4.97
538.813	5.11
539.011	5.24
539.209	5.29
539.406	5.34
539.604	5.4
539.801	5.43
539.999	5.33
540.196	5.37
540.394	5.45
540.591	5.48
540.789	5.52
540.986	5.41
541.184	5.36
541.381	5.47
541.579	5.49
541.776	5.51
541.974	5.49
542.171	5.58
542.368	5.56
542.566	5.54
542.763	5.5
542.96	5.55
543.158	5.6
543.355	5.76
543.552	5.77
543.75	5.77
543.947	5.85
544.144	5.88
544.341	5.86
544.539	5.95
544.736	6.02
544.933	6.07
545.13	6.08
545.327	6.07
545.524	5.85
545.722	5.73
545.919	5.89
546.116	5.87
546.313	6.01
546.51	5.93
546.707	5.96
546.904	5.86
547.101	5.88
547.298	5.85
547.495	6.01
547.692	6.16
547.889	6.24
548.086	6.01
548.283	6.11
548.48	6.11
548.677	6.17
548.874	6.13
549.07	6.07
549.267	6.21
549.464	6.32
549.661	6.16
549.858	6.18
550.055	6.05
550.251	6.24
550.448	6.14
550.645	6.19
550.842	6.38
551.038	6.63
551.235	6.73
551.432	6.99
551.628	7.02
551.825	7.22
552.022	7.16
552.218	7.52
552.415	7.54
552.612	7.52
552.808	7.49
553.005	7.59
553.201	7.59
553.398	7.74
553.594	7.65
553.791	7.74
553.987	7.81
554.184	7.83
554.38	7.83
554.577	7.98
554.773	8.2
554.97	8.16
555.166	8.11
555.362	8.16
555.559	8.25
555.755	8.29
555.952	8.29
556.148	8.49
556.344	8.74
556.541	8.89
556.737	8.72
556.933	8.81
557.129	9.1
557.326	9.18
557.522	9.37
557.718	9.43
557.914	9.4
558.11	9.53
558.307	9.38
558.503	9.45
558.699	9.37
558.895	9.47
559.091	9.23
559.287	9.23
559.483	9.24
559.679	9.05
559.876	9.25
560.072	9.1
560.268	9.08
560.464	9.36
560.66	9.31
560.856	9.11
561.052	9.08
561.247	9.49
561.443	9.41
561.639	9.43
561.835	9.46
562.031	9.3
562.227	9.51
562.423	9.63
562.619	9.43
562.815	9.4
563.01	9.41
563.206	9.41
563.402	9.19
563.598	9.38
563.793	9.58
563.989	9.8
564.185	9.96
564.381	9.96
564.576	9.78
564.772	9.77
564.968	10.08
565.163	10.27
565.359	10.42
565.555	10.46
565.75	10.39
565.946	10.44
566.141	10.3
566.337	10.49
566.532	10.69
566.728	10.77
566.923	10.73
567.119	10.4
567.314	10.57
567.51	10.61
567.705	10.62
567.901	10.74
568.096	10.71
568.292	10.84
568.487	10.54
568.682	10.54
568.878	10.53
569.073	10.65
569.268	10.93
569.464	10.86
569.659	10.95
569.854	10.9
570.05	10.76
570.245	10.86
570.44	10.95
570.635	11.1
570.831	11.13
571.026	11.15
571.221	11.36
571.416	11.58
571.611	11.65
571.806	11.66
572.002	11.74
572.197	11.95
572.392	11.82
572.587	11.62
572.782	11.57
572.977	11.5
573.172	11.59
573.367	11.53
573.562	11.25
573.757	11.21
573.952	11.13
574.147	11.27
574.342	11.08
574.537	11.26
574.732	11.34
574.927	11.33
575.121	11.41
575.316	11.36
575.511	11.47
575.706	11.68
575.901	11.71
576.096	11.71
576.29	11.55
576.485	11.71
576.68	11.62
576.875	11.65
577.069	11.76
577.264	11.64
577.459	11.84
577.654	11.65
577.848	11.65
578.043	11.53
578.238	11.91
578.432	12.13
578.627	12.3
578.821	12.35
579.016	12.42
579.21	12.27
579.405	12.28
579.6	12.45
579.794	12.32
579.989	12.26
580.183	12.54
580.378	12.22
580.572	12.18
580.766	11.92
580.961	11.99
581.155	12.11
581.35	12.35
581.544	12.45
581.738	12.4
581.933	12.65
582.127	12.89
582.321	12.75
582.516	13.13
582.71	13.07
582.904	13.25
583.099	13.36
583.293	13.23
583.487	13.26
583.681	13.31
583.875	13.34
584.07	13.4
584.264	13.06
584.458	13.11
584.652	12.79
584.846	13.06
585.04	12.76
585.234	12.43
585.428	12.66
585.623	12.84
585.817	12.88
586.011	12.72
586.205	12.87
586.399	13.15
586.593	13.28
586.787	13.45
586.981	13.54
587.174	13.75
587.368	14.15
587.562	14.22
587.756	13.96
587.95	14.24
588.144	14.15
588.338	14.13
588.532	13.83
588.725	13.85
588.919	13.55
589.113	13.38
589.307	13.48
589.501	13.43
589.694	13.2
589.888	13.36
590.082	12.98
590.275	13.2
590.469	13.14
590.663	13.49
590.856	13.35
591.05	13.53
591.244	13.45
591.437	13.47
591.631	13.53
591.824	13.55
592.018	13.35
592.212	13.42
592.405	13.45
592.599	13.35
592.792	13.19
592.986	13.15
593.179	13.27
593.372	13.54
593.566	13.71
593.759	13.68
593.953	13.82
594.146	13.97
594.339	14.12
594.533	14.01
594.726	13.72
594.92	13.7
595.113	13.68
595.306	13.73
595.499	13.72
595.693	13.56
595.886	13.7
596.079	13.83
596.272	13.88
596.466	13.68
596.659	13.68
596.852	13.74
597.045	13.97
597.238	13.9
597.431	14.03
597.624	13.91
597.818	14.05
598.011	13.99
598.204	13.81
598.397	13.89
598.59	14.06
598.783	14.01
598.976	14.15
599.169	13.92
599.362	14
599.555	13.85
599.748	13.82
599.941	13.74
600.134	13.35
600.326	13.56
600.519	13.53
600.712	13.59
600.905	13.75
601.098	14.11
601.291	14.16
601.483	14.29
601.676	14.25
601.869	14.39
602.062	14.18
602.255	14.24
602.447	14.07
602.64	14.31
602.833	14.18
603.025	14.22
603.218	13.94
603.411	13.8
603.603	13.83
603.796	13.88
603.989	13.8
604.181	13.91
604.374	13.96
604.566	14
604.759	13.76
604.951	13.91
605.144	13.87
605.336	14.02
605.529	14.2
605.721	14.19
605.914	14.11
606.106	14.12
606.299	14.16
606.491	14.34
606.683	14.36
606.876	14.23
607.068	14.03
607.26	14.05
607.453	13.67
607.645	13.8
607.837	13.95
608.03	14.05
608.222	13.96
608.414	13.85
608.606	13.75
608.799	13.67
608.991	13.9
609.183	13.79
609.375	13.61
609.567	13.91
609.759	13.73
609.952	13.74
610.144	13.73
610.336	13.76
610.528	13.79
610.72	13.61
610.912	13.75
611.104	13.5
611.296	13.82
611.488	13.8
611.68	13.81
611.872	13.89
612.064	13.65
612.256	13.49
612.448	13.52
612.64	13.41
612.832	13.66
613.023	13.48
613.215	13.55
613.407	13.38
613.599	13.84
613.791	13.98
613.983	14.12
614.174	14.25
614.366	14.28
614.558	13.94
614.75	14.13
614.941	14.26
615.133	14.32
615.325	14.63
615.516	14.68
615.708	14.45
615.9	14.48
616.091	14.42
616.283	14.42
616.475	14.73
616.666	15.01
616.858	15
617.049	14.93
617.241	14.84
617.432	14.45
617.624	14.18
617.815	13.88
618.007	13.73
618.198	13.53
618.39	13.48
618.581	13.47
618.773	13.75
618.964	13.69
619.155	13.49
619.347	13.7
619.538	14.15
619.729	14.42
619.921	14.42
620.112	14.37
620.303	14.35
620.494	14.52
620.686	14.54
620.877	14.38
621.068	14.43
621.259	14.57
621.451	14.66
621.642	14.55
621.833	14.83
622.024	15.02
622.215	15.09
622.406	14.96
622.597	15.2
622.788	15.24
622.98	15.44
623.171	15.6
623.362	15.55
623.553	15.4
623.744	15.3
623.935	14.99
624.126	15.13
624.317	15.01
624.508	15.18
624.698	14.61
624.889	14.42
625.08	14.05
625.271	13.8
625.462	13.73
625.653	13.86
625.844	13.63
626.034	13.66
626.225	13.54
626.416	13.8
626.607	14.02
626.798	14.35
626.988	14.26
627.179	14.43
627.37	14.75
627.56	14.92
627.751	14.67
627.942	14.75
628.132	14.53
628.323	14.64
628.514	14.62
628.704	14.57
628.895	14.51
629.085	14.64
629.276	14.71
629.466	14.7
629.657	14.62
629.847	14.95
630.038	15.16
630.228	15.4
630.419	15.58
630.609	15.46
630.8	15.35
630.99	15.3
631.181	15.24
631.371	15.2
631.561	15.18
631.752	15.14
631.942	14.95
632.132	15.02
632.323	14.94
632.513	15.07
632.703	15.17
632.893	15.24
633.084	15.26
633.274	15.65
633.464	15.69
633.654	15.49
633.844	15.33
634.034	15.15
634.225	15.07
634.415	15.3
634.605	14.91
634.795	14.55
634.985	14.24
635.175	14.32
635.365	13.9
635.555	13.82
635.745	13.91
635.935	14.42
636.125	14.69
636.315	14.51
636.505	14.76
636.695	15.05
636.885	15.37
637.075	15.45
637.265	15.24
637.455	15.13
637.644	15.06
637.834	14.91
638.024	14.51
638.214	14.45
638.404	14.79
638.593	14.38
638.783	14.1
638.973	14.33
639.163	14.33
639.352	14.31
639.542	14.42
639.732	14.72
639.921	15.15
640.111	15.38
640.301	15.73
640.49	15.7
640.68	15.62
640.87	15.57
641.059	15.4
641.249	15.43
641.438	15.59
641.628	15.73
641.817	15.68
642.007	15.33
642.196	15.17
642.386	14.69
642.575	15.07
642.764	15.22
642.954	15.57
643.143	15.16
643.333	15.48
643.522	15.41
643.711	15.37
643.901	15.45
644.09	15.3
644.279	15.24
644.469	15.18
644.658	14.48
644.847	14.31
645.036	14.16
645.226	14.18
645.415	13.89
645.604	13.79
645.793	13.69
645.982	13.58
646.171	14.09
646.361	14.48
646.55	14.68
646.739	14.5
646.928	14.47
647.117	14.87
647.306	14.81
647.495	14.76
647.684	15.01
647.873	15.16
648.062	14.86
648.251	14.51
648.44	13.87
648.629	13.8
648.818	14
649.007	14.51
649.196	14.45
649.384	15.2
649.573	15.47
649.762	15.57
649.951	15.09
650.14	15.65
650.328	15.85
650.517	16.38
650.706	16.08
650.895	15.72
651.083	15.21
651.272	14.94
651.461	14.63
651.65	14.54
651.838	14.49
652.027	14.76
652.216	14.52
652.404	14.43
652.593	14.11
652.781	14.3
652.97	14.89
653.158	14.73
653.347	14.76
653.535	14.67
653.724	14.92
653.912	14.7
654.101	14.71
654.289	14.5
654.478	14.43
654.666	14.22
654.855	14.46
655.043	14.27
655.231	14.39
655.42	14.44
655.608	14.15
655.796	13.83
655.985	13.53
656.173	13.72
656.361	13.8
656.55	13.79
656.738	13.71
656.926	13.52
657.114	13.48
657.302	13.71
657.491	13.99
657.679	14.34
657.867	14.55
658.055	15.21
658.243	15.22
658.431	15.23
658.619	15.23
658.807	15.66
658.996	15.82
659.184	15.92
659.372	15.88
659.56	15.67
659.748	15.79
659.936	15.75
660.124	15.45
660.311	15.45
660.499	15.7
660.687	15.64
660.875	15.77
661.063	15.87
661.251	15.95
661.439	15.91
661.627	15.96
661.814	15.86
662.002	15.91
662.19	16.28
662.378	16.03
662.565	15.94
662.753	15.9
662.941	15.78
663.129	15.64
663.316	16
663.504	16.17
663.692	16.24
663.879	16.04
664.067	16.01
664.254	15.33
664.442	15.7
664.63	15.91
664.817	15.89
665.005	15.6
665.192	15.87
665.38	15.71
665.567	15.92
665.755	14.99
665.942	14.82
666.13	15.39
666.317	15.33
666.504	15.61
666.692	14.92
666.879	15.55
667.067	15.82
667.254	15.55
667.441	15.44
667.629	15.28
667.816	15.88
668.003	16.07
668.19	15.77
668.378	16.13
668.565	15.46
668.752	15.83
668.939	15.33
669.127	14.69
669.314	14.89
669.501	14.76
669.688	14.53
669.875	14.92
670.062	14.92
670.249	14.56
670.436	14.94
670.623	15.44
670.81	15.54
670.997	15.54
671.184	15.57
671.371	15.44
671.558	15.33
671.745	15.01
671.932	14.53
672.119	14.77
672.306	15.2
672.493	14.84
672.68	14.78
672.867	14.8
673.054	14.66
673.24	14.98
673.427	15.31
673.614	15.78
673.801	16.9
673.988	17.56
674.174	17.5
674.361	17.39
674.548	17.42
674.734	17.47
674.921	17.64
675.108	18.02
675.294	18.31
675.481	18.03
675.668	17.94
675.854	17.37
676.041	16.63
676.227	16.72
676.414	16.66
676.601	16.77
676.787	16.5
676.974	16.07
677.16	16.29
677.347	16.07
677.533	15.88
677.719	15.74
677.906	15.79
678.092	16.13
678.279	16.3
678.465	16.4
678.651	16.01
678.838	16.48
679.024	16.75
679.21	16.57
679.397	17.3
679.583	17.15
679.769	17.17
679.955	17.1
680.142	16.95
680.328	16.68
680.514	16.55
680.7	16.54
680.886	16.05
681.073	15.91
681.259	15.89
681.445	15.3
681.631	15.43
681.817	15.5
682.003	15.37
682.189	15.85
682.375	16.18
682.561	16.11
682.747	15.91
682.933	16.08
683.119	16.17
683.305	16.66
683.491	17.14
683.677	17.1
683.863	16.92
684.049	17.17
684.235	16.83
684.42	16.4
684.606	16.54
684.792	17.31
684.978	17.32
685.164	17.77
685.349	16.93
685.535	16.66
685.721	16.92
685.907	17.07
686.092	16.39
686.278	16.89
686.464	16.89
686.649	16.83
686.835	16.86
687.021	16.72
687.206	16.04
687.392	16.42
687.577	16.49
687.763	16.54
687.948	16.46
688.134	16.95
688.319	16.53
688.505	16.51
688.69	16.45
688.876	15.8
689.061	16.19
689.247	16.36
689.432	16.83
689.618	16.48
689.803	16.4
689.988	16.54
690.174	16.46
690.359	16.56
690.544	17.05
690.73	16.92
690.915	17.42
691.1	17.42
691.285	17.32
691.471	17.15
691.656	16.85
691.841	16.91
692.026	17.22
692.211	17.56
692.396	16.85
692.582	16.43
692.767	16.47
692.952	16.91
693.137	16.77
693.322	16.85
693.507	16.33
693.692	16.91
693.877	16.9
694.062	16.34
694.247	16.26
694.432	16.53
694.617	16.11
694.802	16.09
694.987	15.42
695.172	15.33
695.357	15.11
695.541	14.86
695.726	14.62
695.911	14.6
696.096	14.7
696.281	15.07
696.466	15.71
696.65	15.74
696.835	16.27
697.02	16.78
697.204	16.92
697.389	17.16
697.574	17.12
697.759	16.88
697.943	16.69
698.128	17.33
698.312	17.12
698.497	17.02
698.682	17
698.866	16.74
699.051	16.79
699.235	16.78
699.42	16.95
699.604	17.22
699.789	17.59
699.973	17.51
700.158	17.06
700.342	16.91
700.527	17.09
700.711	17.5
700.895	17.43
701.08	17.54
701.264	17.34
701.448	17.13
701.633	17.11
701.817	16.89
702.001	17.08
702.186	16.84
702.37	16.54
702.554	15.49
702.738	15.18
702.923	15.04
703.107	14.81
703.291	15.58
703.475	15.3
703.659	15.84
703.843	15.67
704.027	15.36
704.212	15.5
704.396	15.83
704.58	16.7
704.764	17.07
704.948	16.7
705.132	16.49
705.316	15.78
705.5	16.24
705.684	15.48
705.868	15.66
706.052	16.64
706.235	16.45
706.419	16.75
706.603	16.12
706.787	15.55
706.971	16.57
707.155	16.58
707.339	16.98
707.522	17.02
707.706	17.13
707.89	17.66
708.074	17.01
708.257	16.9
708.441	17.23
708.625	16.91
708.808	17.65
708.992	16.97
709.176	16.97
709.359	16.52
709.543	16.4
709.727	16.61
709.91	16.32
710.094	16.02
710.277	16.43
710.461	15.6
710.644	16.7
710.828	16.52
711.011	17.06
711.195	16.72
711.378	17.01
711.562	16.49
711.745	16.5
711.928	16.47
712.112	17.04
712.295	16.79
712.478	16.83
712.662	16.01
712.845	16.74
713.028	16.71
713.212	17.22
713.395	16.72
713.578	17.22
713.761	17.44
713.945	17.21
714.128	17.37
714.311	17.5
714.494	18.64
714.677	19.52
714.86	18.72
715.043	18.77
715.227	18.14
715.41	18.71
715.593	18.88
715.776	18.8
715.959	18.51
716.142	17.92
716.325	17.87
716.508	17.26
716.691	16.03
716.874	15.83
717.057	15.7
717.239	16.31
717.422	16.05
717.605	15.63
717.788	16.36
717.971	17.48
718.154	18.04
718.337	18.28
718.519	18.1
718.702	18.47
718.885	18.9
719.068	18.83
719.25	18.62
719.433	18.41
719.616	18.3
719.798	16.84
719.981	16.08
720.164	16.87
720.346	16.03
720.529	15.04
720.712	15.16
720.894	14.78
721.077	14.12
721.259	13.6
721.442	14.16
721.624	14.99
721.807	15.14
721.989	14.56
722.172	13.06
722.354	13.84
722.537	15.14
722.719	15.23
722.901	15.14
723.084	15
723.266	16.3
723.448	15.92
723.631	14.81
723.813	14.2
723.995	14.43
724.178	13.78
724.36	14.1
724.542	13.78
724.724	13.92
724.907	14.21
725.089	15.49
725.271	14.46
725.453	14.18
725.635	14.11
725.817	15.06
725.999	16.09
726.181	16.18
726.364	16.33
726.546	16.86
726.728	16.69
726.91	17.15
727.092	16.71
727.274	17.15
727.456	16.74
727.638	17.97
727.819	17.66
728.001	18.21
728.183	19.08
728.365	18.76
728.547	18.52
728.729	18.4
728.911	17.1
729.093	18.12
729.274	17.48
729.456	18.71
729.638	18.74
729.82	18.64
730.001	17.46
730.183	17.66
730.365	17.29
730.546	17.92
730.728	19.27
730.91	19.74
731.091	18.6
731.273	18.38
731.455	16.78
731.636	15.79
731.818	16.34
731.999	16.06
732.181	16.07
732.362	16.63
732.544	15.8
732.725	14.37
732.907	14.17
733.088	13.37
733.27	14.86
733.451	15.33
733.633	16.4
733.814	16.57
733.995	16.73
734.177	16.61
734.358	15.67
734.539	14.81
734.721	15.83
734.902	16.6
735.083	17.56
735.264	16.32
735.446	16.13
735.627	15.08
735.808	13.66
735.989	13.86
736.17	12.94
736.351	13.1
736.533	14.3
736.714	12.24
736.895	12.15
737.076	12.23
737.257	12.49
737.438	13.03
737.619	13.93
737.8	14.05
737.981	14.78
738.162	15.93
738.343	15.62
738.524	15.13
738.705	16.28
738.886	16.04
739.067	15.25
739.247	14.6
739.428	14.44
739.609	15.06
739.79	15.05
739.971	14.75
740.151	14.81
740.332	15.16
740.513	15.21
740.694	15.22
740.874	16.26
741.055	15.99
741.236	16.01
741.417	16.04
741.597	14.99
741.778	16.29
741.958	14.78
742.139	14.2
742.32	15.48
742.5	16.64
742.681	18
742.861	16.5
743.042	17.17
743.222	18.17
743.403	17.49
743.583	16.59
743.764	16.3
743.944	16.82
744.124	16.89
744.305	16.03
744.485	15.06
744.666	13.4
744.846	14.21
745.026	14.67
745.207	14.07
745.387	17
745.567	17.37
745.747	16.6
745.928	18.75
746.108	18.99
746.288	17.11
746.468	17.47
746.648	17.29
746.829	16.14
747.009	15.72
747.189	16.82
747.369	14.94
747.549	15.08
747.729	14.52
747.909	12.61
748.089	12.79
748.269	14.99
748.449	13.71
748.629	14.2
748.809	15.44
748.989	15.12
749.169	13.89
749.349	13.91
749.529	13.53
749.709	15.56
749.889	16.25
750.068	16.53
750.248	16.63
750.428	17.16
750.608	16.96
750.788	16.53
750.967	17.52
751.147	17.16
751.327	17.32
751.507	17.28
751.686	16.74
751.866	16.5
752.046	16.01
752.225	15.48
752.405	16.08
752.585	16.56
752.764	16.34
752.944	15.95
753.123	17.8
753.303	17.84
753.482	18.14
753.662	17.72
753.841	17.02
754.021	18.38
754.2	18.4
754.38	19.27
754.559	18.84
754.739	18.53
754.918	18.92
755.097	16.99
755.277	16.05
755.456	16.14
755.635	15.35
755.815	15.99
755.994	14.38
756.173	13.62
756.352	11.35
756.532	10.49
756.711	12.39
756.89	12.91
757.069	13.36
757.248	14.03
757.427	14.41
757.607	15.04
757.786	13.76
757.965	13.44
758.144	14.03
758.323	16.16
758.502	18.2
758.681	17.73
758.86	17.7
759.039	18.01
759.218	18.18
759.397	16.87
759.576	18.01
759.755	18.34
759.934	20.14
760.113	20.31
760.291	19.56
760.47	19.34
760.649	19.12
760.828	17.56
761.007	17.9
761.186	18.05
761.364	20.46
761.543	20.49
761.722	21.54
761.901	21.22
762.079	20.71
762.258	20.42
762.437	20.1
762.615	20.19
762.794	20.16
762.972	19.77
763.151	19.73
763.33	18.91
763.508	18.21
763.687	17.58
763.865	16.72
764.044	17.67
764.222	17.26
764.401	16.32
764.579	15.76
764.758	17.15
764.936	18.43
765.114	19.17
765.293	18.33
765.471	18.57
765.65	18.43
765.828	18.7
766.006	18.29
766.184	19.13
766.363	20.11
766.541	19.13
766.719	18.07
766.898	16.44
767.076	15.36
767.254	17.41
767.432	16.99
767.61	17.92
767.788	17.27
767.967	16.82
768.145	16.16
768.323	13.87
768.501	16.01
768.679	17.53
768.857	17.88
769.035	17.57
769.213	15.84
769.391	16.69
769.569	16.36
769.747	17.02
769.925	15.82
770.103	15.59
770.281	17.36
770.459	15.77
770.636	14.45
770.814	12.87
770.992	13.27
771.17	14.2
771.348	14.4
771.525	15.4
771.703	14.29
771.881	15.75
772.059	15.38
772.236	15.14
772.414	17.07
772.592	16.64
772.769	16.97
772.947	14.41
773.125	12.38
773.302	12.41
773.48	11.39
773.657	11.42
773.835	10.96
774.013	10.39
774.19	11.67
774.368	11.86
774.545	11.01
774.723	11.11
774.9	13.34
775.077	17.22
775.255	17.52
775.432	17.81
775.61	18.13
775.787	18.28
775.964	18.41
776.142	16.67
776.319	17.35
776.496	18.17
776.674	17.79
776.851	17.96
777.028	14.49
777.205	13.93
777.382	11.29
777.56	11.87
777.737	13.53
777.914	12.95
778.091	15.31
778.268	12.01
778.445	10.46
778.622	10.14
778.8	8.88
778.977	9.85
779.154	9.03
779.331	12.49
779.508	12.97
779.685	11.16
779.862	11.76
780.038	11.36
780.215	14.71
780.392	15.46
780.569	14.76
780.746	17.93
780.923	17.74
781.1	16.7
781.277	15.77
781.453	15.45
781.63	14.89
781.807	17.9
781.984	17.19
782.16	12.67
782.337	13.15
782.514	13.42
782.691	12.08
782.867	13.32
783.044	14.8
783.221	15.82
783.397	18.73
783.574	19.58
783.75	20.16
783.927	20.23
784.103	22.55
784.28	22.8
784.456	26.69
784.633	29.28
784.809	26.77
784.986	26.31
785.162	21.88
785.339	16.71
785.515	16.9
785.692	14.49
785.868	15.41
786.044	15.35
786.221	12.42
786.397	10.38
786.573	7.73
786.749	5.62
786.926	5.39
787.102	8.67
787.278	12.38
787.454	12.12
787.631	11.88
787.807	9.75
787.983	10.48
788.159	14.19
788.335	13.44
788.511	14.82
788.687	16.99
788.863	16.18
789.039	16.29
789.216	14.04
789.392	12.06
789.568	12.22
789.744	14.19
789.919	10.53
790.095	9.4
790.271	9.16
790.447	8.86
790.623	9.9
790.799	12.49
790.975	12.48
791.151	11.95
791.327	12.78
791.502	14.16
791.678	15.39
791.854	19.29
792.03	17.26
792.205	15.89
792.381	15.69
792.557	14.32
792.733	14.54
792.908	14.8
793.084	16.42
793.259	20.49
793.435	17.82
793.611	17.56
793.786	16.54
793.962	17.73
794.137	20.33
794.313	20.07
794.488	23.62
794.664	20.91
794.839	21.54
795.015	20.41
795.19	17.25
795.366	17.29
795.541	14.68
795.716	15.58
795.892	14.5
796.067	14.19
796.242	12.32
796.418	12.23
796.593	13.43
796.768	13.73
796.944	16.13
797.119	18.07
797.294	18.38
797.469	20.03
797.644	18.25
797.82	16.96
797.995	17.74
798.17	18.46
798.345	15.8
798.52	15.1
798.695	13.86
798.87	8.55
799.045	8.46
799.22	8.68
799.395	9.36
799.57	12.05
799.745	15.53
799.92	13.7
800.095	14.21
800.27	17.62
800.445	19.43
800.62	18.29
800.795	21.18
800.97	20.73
801.145	23.59
801.319	20.88
801.494	20.43
801.669	22.29
801.844	21.43
802.018	20.13
802.193	17.86
802.368	17.63
802.543	20.85
802.717	21.43
802.892	19.72
803.067	15.05
803.241	17.67
803.416	13.79
803.59	9.61
803.765	9.98
803.94	11.97
804.114	13.08
804.289	12.93
804.463	12.38
804.638	10.37
804.812	8.63
804.986	13.98
805.161	10.55
805.335	12.99
805.51	14.43
805.684	14.86
805.858	14.1
806.033	14.23
806.207	13.96
806.381	13.33
806.556	15.86
806.73	15.39
806.904	15.43
807.078	19.76
807.253	20.22
807.427	18
807.601	23.89
807.775	21.27
807.949	22.88
808.123	20.95
808.298	23.62
808.472	23.85
808.646	27.2
808.82	25.22
808.994	22.09
809.168	23.59
809.342	26.83
809.516	23.26
809.69	26.7
809.864	23.9
810.038	25.66
810.212	20.79
810.385	19.83
810.559	20.13
810.733	21.43
810.907	21.43
811.081	21.78
811.255	16.43
811.428	15.11
811.602	14.26
811.776	11.17
811.95	7.96
812.123	11.44
812.297	10.94
812.471	9.87
812.644	1.92
812.818	2.42
812.992	-4.57
813.165	1.45
813.339	6.67
813.512	6.82
813.686	13
813.86	14.86
814.033	16.59
814.207	12
814.38	10.66
814.554	17.62
814.727	16.86
814.9	20.14
815.074	17.9
815.247	15.13
815.421	11.98
815.594	9.57
815.767	8.59
815.941	9.86
816.114	16.66
816.287	17.39
816.46	15.38
816.634	12.78
816.807	14.91
816.98	13.98
817.153	13.03
817.327	10.84
817.5	12.88
817.673	14.01
817.846	5.98
818.019	2.8
818.192	7.46
818.365	6.01
818.538	10.79
818.711	8.29
818.884	7.09
819.057	8.29
819.23	14.52
819.403	13.81
819.576	13.01
819.749	16.63
819.922	16.6
820.095	14.37
820.268	17.65
820.441	19.51
820.614	19.35
820.786	20.56
820.959	19.52
821.132	18.37
821.305	19.2
821.477	20.95
821.65	20.57
821.823	20.02
821.996	20.97
822.168	21.51
822.341	20.98
822.514	21.61
822.686	21.5
822.859	21.77
823.031	21.68
823.204	21.44
823.376	20.13
823.549	20.48
823.722	21.12
823.894	20.48
824.067	19.43
824.239	19.28
824.411	18.79
824.584	19.49
824.756	19.21
824.929	19.11
825.101	18.84
825.273	19.93
825.446	20.25
825.618	20.57
825.79	20.61
825.963	19.77
826.135	18.87
826.307	20.18
826.479	18.57
826.652	18.88
826.824	19.08
826.996	19.21
827.168	19.63
827.34	19.11
827.512	19.32
827.684	18.4
827.856	19.31
828.029	18.62
828.201	17.55
828.373	18.38
828.545	18.96
828.717	19.48
828.889	19.8
829.061	19.02
829.232	18.68
829.404	17.73
829.576	19.17
829.748	20.59
829.92	23.4
830.092	22.45
830.264	21.88
830.436	18.41
830.607	18.95
830.779	16.13
830.951	19.35
831.123	18.07
831.294	18.39
831.466	16.39
831.638	12.64
831.809	11.25
831.981	11.24
832.153	8.65
832.324	10.88
832.496	10.22
832.667	12.24
832.839	10.36
833.011	12.59
833.182	9.59
833.354	8.81
833.525	11.29
833.697	11.18
833.868	13.19
834.039	14.18
834.211	15.95
834.382	14.5
834.554	14.29
834.725	12.99
834.896	12.34
835.068	13.05
835.239	13.6
835.41	13.21
835.581	13.38
835.753	11.86
835.924	13.42
836.095	12.39
836.266	12.46
836.438	13.2
836.609	13.09
836.78	13.05
836.951	11.98
837.122	13.9
837.293	13.77
837.464	14.43
837.635	16.59
837.806	18.53
837.977	20.3
838.148	19.46
838.319	18.35
838.49	15.65
838.661	12.25
838.832	17.53
839.003	20.35
839.174	17.66
839.345	12.23
839.516	16.84
839.687	13.78
839.857	10.9
840.028	12.22
840.199	16.52
840.37	17.56
840.54	22.23
840.711	22.42
840.882	18.75
841.053	20.21
841.223	21.95
841.394	17.47
841.564	17.78
841.735	18.22
841.906	20.26
842.076	17.4
842.247	20.24
842.417	17.13
842.588	16.13
842.758	11.77
842.929	10.57
843.099	5.8
843.27	0.83
843.44	-0.62
843.611	0.87
843.781	-1.63
843.951	1.39
844.122	-3.05
844.292	2.04
844.462	2.94
844.633	7.74
844.803	13.86
844.973	24.86
845.144	28.08
845.314	31.03
845.484	39.08
845.654	41.53
845.824	36.63
845.995	37.01
846.165	28.46
846.335	33.89
846.505	37.18
846.675	48.32
846.845	49.17
847.015	52.9
847.185	52.88
847.355	47.51
847.525	50.53
847.695	45.52
847.865	40.54
848.035	48.45
848.205	45.73
848.375	44.59
848.545	36.28
848.715	31.16
848.884	29.55
849.054	24.42
849.224	22.8
849.394	17.25
849.564	25.22
849.733	35.83
849.903	42.51
850.073	39.04
850.243	43.26
850.412	47.95
850.582	46.28
850.752	34.17
850.921	40.57
851.091	31.39
851.26	28.51
851.43	23.06
851.599	13.92
851.769	-19.41
851.939	-29.94
852.108	-16.63
852.278	-16.59
852.447	-18.66
852.616	-8.27
852.786	-14.33
852.955	5.39
853.125	15.17
853.294	14.08
853.463	13.23
853.633	21.63
853.802	15.13
853.971	7.04
854.141	17.86
854.31	22.24
854.479	37.55
854.648	36.67
854.818	25.04
854.987	20.93
855.156	27.99
855.325	40.35
855.494	41.81
855.663	37.22
855.832	32.7
856.001	28.12
856.171	21.33
856.34	-8.87
856.509	-30.82
856.678	-32.02
856.847	-42.96
857.016	-96.34
857.185	-228
857.353	-317.74
857.522	-503.54
857.691	-939.85
857.86	-1827.81
858.029	-632.14
858.198	-230.85
858.367	-112.41
858.535	-143.44
858.704	-218.33
858.873	-167.31
859.042	-103.06
859.21	-84.12
859.379	-25.96
859.548	-1.6
859.717	17.65
859.885	13.11
860.054	3.03
860.222	7.56
860.391	16.44
860.56	29.54
860.728	32.96
860.897	41.52
861.065	27.91
861.234	11.61
861.402	14.55
861.571	6.12
861.739	5.6
861.908	2
862.076	22.33
862.244	20.11
862.413	17.33
862.581	24.73
862.749	17.17
862.918	28.73
863.086	36.73
863.254	31.84
863.423	28.45
863.591	33.02
863.759	39.02
863.927	29.37
864.096	37.47
864.264	32.79
864.432	16.15
864.6	20.86
864.768	21.87
864.936	18.03
865.104	18.94
865.272	16.34
865.44	21.12
865.608	-16.49
865.776	-12.64
865.944	-17.29
866.112	-37.68
866.28	-26.25
866.448	-22.21
866.616	-19.87
866.784	-9.12
866.952	-9.04
867.12	-4.6
867.288	-0.69
867.455	-2.05
867.623	-4.03
867.791	-26.06
867.959	-6.89
868.127	7.09
868.294	-18.81
868.462	-26.32
868.63	-31.99
868.797	-29.91
868.965	-28.17
869.133	-41.64
869.3	2.83
869.468	-12.21
869.636	11.19
869.803	-3.09
869.971	-14.9
870.138	-3.4
870.306	-2.74
870.473	4.41
870.641	-6.72
870.808	-27.22
870.975	-15.73
871.143	-25.18
871.31	-1.1
871.478	-4.8
871.645	0.22
871.812	-5.44
871.98	44.18
872.147	64.56
872.314	10.31
872.482	0.61
872.649	26.95
872.816	5.13
872.983	3.52
873.15	3.34
873.318	-5.6
873.485	12.24
873.652	18.72
873.819	-0.01
873.986	-21.35
874.153	14.81
874.32	19.6
874.487	17.9
874.654	11.92
874.821	19.5
874.988	17.46
875.155	34.68
875.322	22.07
875.489	17.37
875.656	6.62
875.823	14.79
875.99	19.41
876.157	29.3
876.324	43.18
876.49	45.59
876.657	38.88
876.824	64.32
876.991	65.59
877.157	72.28
877.324	75.85
877.491	75.94
877.658	81.75
877.824	72.58
877.991	61.87
878.157	42.04
878.324	46.32
878.491	51.24
878.657	30.45
878.824	27.51
878.99	19.07
879.157	15.35
879.323	10.65
879.49	17.04
879.656	10
879.823	14.85
879.989	24.63
880.156	18.94
880.322	20.1
880.488	9.24
880.655	-6.8
880.821	-9.78
880.987	-23
881.154	-9.91
881.32	-10.56
881.486	-16.42
881.652	-14.31
881.819	-6.72
881.985	4.28
882.151	4.69
882.317	14.5
882.483	18.53
882.649	21.86
882.816	20.79
882.982	22.69
883.148	18.58
883.314	22.89
883.48	24.45
883.646	23.27
883.812	23.39
883.978	22.88
884.144	20.43
884.31	20.81
884.476	22.39
884.642	23.19
884.807	21.97
884.973	24.54
885.139	23.15
885.305	24.32
885.471	22.24
885.637	20.18
885.802	22.07
885.968	21.5
886.134	17.06
886.3	7.62
886.465	9.77
886.631	-1.62
886.797	-5.01
886.962	-4.18
887.128	-9.84
887.293	-10.39
887.459	-12.52
887.625	-27.15
887.79	-29.76
887.956	-31.45
888.121	-26.37
888.287	-44.39
888.452	-9.88
888.618	-23.65
888.783	-40.29
