Data from 2938092_Reflection_3.txt Node
Date: Sat Jul 11 19:14:39 EDT 2015
User: robert
Spectrometer: USB4E03001
Autoset integration time: false
Trigger mode: 4
Integration Time (sec): 1.000000E-1
Scans to average: 10
Electric dark correction enabled: true
Nonlinearity correction enabled: false
Boxcar width: 5
Stray light correction enabled: false
XAxis mode: Wavelengths
Stop averaging: false
Number of Pixels in Spectrum: 3648
>>>>>Begin Spectral Data<<<<<
177.566	30.09
177.785	4.39
178.005	12.04
178.225	-12.74
178.445	-10.54
178.665	18.11
178.885	79.44
179.105	47.71
179.324	65.12
179.544	42.87
179.764	40.83
179.984	24.9
180.204	-5.09
180.423	43.46
180.643	27.46
180.863	34.3
181.083	61.22
181.302	145.51
181.522	524
181.742	140.79
181.961	113.25
182.181	148.46
182.401	116.02
182.621	127.23
182.84	118.5
183.06	134.35
183.279	137.36
183.499	154.09
183.719	116.21
183.938	86.9
184.158	90.11
184.377	113.4
184.597	112.04
184.816	108.4
185.036	107.07
185.256	100.07
185.475	97.34
185.695	99.36
185.914	82.46
186.134	95.93
186.353	110.17
186.572	101.86
186.792	91.95
187.011	90.91
187.231	107.24
187.45	109.65
187.67	103.26
187.889	95.66
188.108	82.79
188.328	70.16
188.547	72.4
188.766	34.12
188.986	94.86
189.205	91.89
189.424	72.71
189.644	80.89
189.863	101.41
190.082	96.43
190.302	109.23
190.521	126.04
190.74	190.59
190.959	167.49
191.178	184.23
191.398	158.11
191.617	141.5
191.836	116.71
192.055	106.64
192.274	104.57
192.494	107.54
192.713	112.54
192.932	101.17
193.151	94.21
193.37	138.75
193.589	121.03
193.808	153.81
194.027	205.35
194.246	14067.35
194.465	-1233.45
194.685	-190.94
194.904	-645.12
195.123	-615.34
195.342	-201.68
195.561	481.53
195.78	201.52
195.999	204.19
196.218	72.33
196.436	135.48
196.655	77.9
196.874	53.28
197.093	39.01
197.312	16.37
197.531	16.27
197.75	34.08
197.969	-4.88
198.188	-28.17
198.407	-202.06
198.625	-53.91
198.844	-11.52
199.063	-6.43
199.282	46.49
199.501	144.84
199.719	92.35
199.938	80.09
200.157	93.83
200.376	128.93
200.594	127.36
200.813	94.21
201.032	87.96
201.251	82.9
201.469	87.89
201.688	79.2
201.907	77.34
202.125	96.89
202.344	86.74
202.563	80.51
202.781	55.48
203	49.68
203.218	54.66
203.437	57.95
203.656	75.7
203.874	73.31
204.093	59.67
204.311	61.6
204.53	48.82
204.748	115.1
204.967	132.89
205.185	82.43
205.404	72.07
205.622	68.74
205.841	56.54
206.059	35.49
206.278	-4.68
206.496	33.16
206.715	21.9
206.933	22.88
207.151	11.46
207.37	20.42
207.588	40.01
207.806	40.92
208.025	38.72
208.243	46.22
208.461	58.63
208.68	75.96
208.898	64.34
209.116	99.46
209.335	102.02
209.553	150.96
209.771	135.57
209.989	163.21
210.208	227.03
210.426	978.55
210.644	1537.61
210.862	159.87
211.081	189.8
211.299	247.6
211.517	184.16
211.735	174.01
211.953	21.65
212.171	-8.55
212.39	-172.3
212.608	-58.53
212.826	-54.12
213.044	-23.84
213.262	-73.64
213.48	-172.98
213.698	2531.2
213.916	-503.49
214.134	-85.08
214.352	-64.66
214.57	-26.17
214.788	26.23
215.006	3.22
215.224	-3.33
215.442	-8.79
215.66	15.38
215.878	27.97
216.096	36.61
216.314	42.1
216.532	40.59
216.75	40.63
216.968	32.82
217.185	28.96
217.403	42.64
217.621	36.98
217.839	33.73
218.057	32.86
218.275	47.01
218.492	45.96
218.71	44.51
218.928	45.79
219.146	66.36
219.363	50.53
219.581	54.23
219.799	23.58
220.017	19.56
220.234	6.46
220.452	22.41
220.67	-16.72
220.887	-11.28
221.105	-21.18
221.323	-11.77
221.54	-111.05
221.758	-63.88
221.976	-101.87
222.193	-675.75
222.411	-70.21
222.629	-57.48
222.846	-14.4
223.064	-7.95
223.281	5.02
223.499	12.08
223.716	1.97
223.934	56.26
224.151	43.77
224.369	47.17
224.586	55.32
224.804	49.72
225.021	49.99
225.239	48.91
225.456	58.13
225.674	49.48
225.891	43.09
226.108	38.91
226.326	26.08
226.543	24.94
226.76	18.61
226.978	14.18
227.195	28.62
227.413	17.47
227.63	10.52
227.847	3.04
228.064	13.51
228.282	16.98
228.499	19.5
228.716	18.78
228.934	18.94
229.151	19.28
229.368	19.17
229.585	11.74
229.802	12.3
230.02	13.08
230.237	18
230.454	15.24
230.671	11.71
230.888	9.45
231.105	7.67
231.323	6.98
231.54	5.87
231.757	5.58
231.974	11.62
232.191	18.05
232.408	17.43
232.625	9.65
232.842	7.51
233.059	8.22
233.276	9.21
233.493	14.32
233.71	11.16
233.927	12.36
234.144	12.39
234.361	11.04
234.578	3.59
234.795	5.53
235.012	9.79
235.229	8.18
235.446	10.13
235.663	7.17
235.879	8.73
236.096	12.41
236.313	14.77
236.53	14.79
236.747	22.38
236.964	20.3
237.181	23.7
237.397	21.07
237.614	21.12
237.831	24.65
238.048	26.16
238.264	26.21
238.481	21.71
238.698	22.51
238.915	20.72
239.131	20.2
239.348	18.91
239.565	14.6
239.781	9.75
239.998	10.36
240.215	9.2
240.431	6.99
240.648	3.07
240.865	2.24
241.081	2.72
241.298	4.95
241.514	2.45
241.731	4.91
241.947	3.48
242.164	7.27
242.38	7.02
242.597	7.36
242.814	7.74
243.03	6.98
243.246	9.97
243.463	7.88
243.679	7.5
243.896	7.02
244.112	5.49
244.329	7.16
244.545	6.56
244.762	5.87
244.978	4.97
245.194	4.48
245.411	6.22
245.627	6.61
245.843	6.09
246.06	4.92
246.276	5.85
246.492	6.18
246.709	5.78
246.925	5.31
247.141	6.15
247.357	6.32
247.574	6.69
247.79	6.38
248.006	4.98
248.222	5.57
248.439	5
248.655	4.99
248.871	4.3
249.087	5.18
249.303	5.42
249.519	5.45
249.736	3.51
249.952	2.83
250.168	3.13
250.384	4.59
250.6	4
250.816	6.78
251.032	7.73
251.248	8.18
251.464	8.55
251.68	8.23
251.896	8.25
252.112	8.59
252.328	9.68
252.544	9.21
252.76	9.9
252.976	10.88
253.192	11.24
253.408	10.07
253.624	9.63
253.84	6.67
254.056	7.38
254.272	8.59
254.487	11.7
254.703	12.61
254.919	14.77
255.135	12.68
255.351	11.14
255.567	8.22
255.782	7.77
255.998	10.96
256.214	9.88
256.43	10.54
256.646	3.55
256.861	0.3
257.077	-4.74
257.293	-5.18
257.508	-3.58
257.724	-1.92
257.94	-3.19
258.155	-2.59
258.371	-2.22
258.587	0.34
258.802	0.74
259.018	3.37
259.234	4.21
259.449	4.51
259.665	4.76
259.88	4.75
260.096	4.22
260.312	5.27
260.527	5.79
260.743	5.84
260.958	6.04
261.174	6.09
261.389	5.93
261.605	5.82
261.82	6.8
262.036	7.5
262.251	7.73
262.466	7.78
262.682	7.49
262.897	6.99
263.113	6.55
263.328	5.79
263.543	3.79
263.759	3.82
263.974	1.74
264.189	0.53
264.405	-2.09
264.62	-1.15
264.835	-1.73
265.051	-1.05
265.266	-0.95
265.481	-0.19
265.696	1.4
265.912	3.94
266.127	3.83
266.342	5.84
266.557	8.25
266.773	8.03
266.988	7.77
267.203	9.24
267.418	9.34
267.633	9.28
267.848	10.12
268.064	6.98
268.279	7.06
268.494	5.89
268.709	5.95
268.924	4.39
269.139	6.85
269.354	7.02
269.569	7.64
269.784	7.99
269.999	9.37
270.214	11.2
270.429	13.55
270.644	12.85
270.859	14.12
271.074	13.38
271.289	13.4
271.504	11.75
271.719	12
271.934	11.81
272.149	12.13
272.363	10.2
272.578	8.05
272.793	8.26
273.008	8.74
273.223	8.39
273.438	9.28
273.653	8.76
273.867	9.25
274.082	7.26
274.297	5.36
274.512	5.85
274.726	7.89
274.941	7.02
275.156	5.59
275.371	7.74
275.585	7.6
275.8	5.73
276.015	6.81
276.229	6.09
276.444	8.17
276.659	10.09
276.873	9.38
277.088	9.59
277.302	9.14
277.517	9.95
277.732	8.5
277.946	8.98
278.161	11.57
278.375	12.69
278.59	13.38
278.804	12.17
279.019	12.51
279.233	13.96
279.448	11.17
279.662	12.9
279.877	13.24
280.091	9.45
280.306	9.59
280.52	8.31
280.735	5.86
280.949	4.62
281.163	5.15
281.378	4.93
281.592	2.33
281.806	3.41
282.021	3.01
282.235	2.83
282.449	5.69
282.664	5.56
282.878	5.6
283.092	5.28
283.307	6.07
283.521	7.54
283.735	6.93
283.949	8.8
284.164	10.24
284.378	9.86
284.592	9.55
284.806	7.91
285.02	7.48
285.234	7.86
285.449	8.49
285.663	8.27
285.877	7.83
286.091	7.02
286.305	4.99
286.519	5.31
286.733	6.19
286.947	5.73
287.161	6.53
287.375	7.11
287.589	5.41
287.803	5.99
288.017	5.73
288.231	4.9
288.445	7.16
288.659	9.35
288.873	6.37
289.087	6.28
289.301	6.94
289.515	7.16
289.729	7.77
289.943	10.43
290.157	10.25
290.371	10.5
290.584	12.25
290.798	12.27
291.012	11.91
291.226	13.52
291.44	14.31
291.654	13.85
291.867	13.44
292.081	13.31
292.295	10.75
292.509	10.38
292.722	10.27
292.936	8.9
293.15	6.75
293.364	4.54
293.577	4.49
293.791	4.13
294.005	4.57
294.218	3.91
294.432	2.32
294.645	4.69
294.859	7.15
295.073	7.85
295.286	7.39
295.5	7.34
295.713	8.66
295.927	10.69
296.14	9.4
296.354	10.11
296.568	11.88
296.781	11.63
296.994	11.1
297.208	9.93
297.421	10.49
297.635	10.96
297.848	11.85
298.062	11.77
298.275	9.86
298.489	10.72
298.702	10.25
298.915	9.61
299.129	10.24
299.342	9.16
299.555	9.21
299.769	7.83
299.982	7.84
300.195	7.73
300.409	6.6
300.622	6.34
300.835	6.87
301.048	7.65
301.262	7.38
301.475	7.99
301.688	9.59
301.901	7.93
302.115	7.96
302.328	8.45
302.541	9.04
302.754	11.22
302.967	12.54
303.18	12.43
303.393	12.51
303.607	14.15
303.82	13.82
304.033	13.9
304.246	15.44
304.459	15.44
304.672	14.77
304.885	15
305.098	14.27
305.311	14.76
305.524	12.25
305.737	12.14
305.95	10.7
306.163	12.74
306.376	14.71
306.589	13.57
306.802	13.28
307.015	13.28
307.228	13.99
307.44	13.03
307.653	12.89
307.866	14.25
308.079	12.34
308.292	12.67
308.505	11.03
308.718	10.19
308.93	11.48
309.143	11.32
309.356	12.21
309.569	9.44
309.781	11.86
309.994	11.31
310.207	12.43
310.42	13.43
310.632	14.51
310.845	14.76
311.058	14.57
311.27	13.63
311.483	15.13
311.696	13.16
311.908	13.6
312.121	13.12
312.333	13.46
312.546	13.06
312.759	14.35
312.971	13.4
313.184	15.35
313.396	14.34
313.609	15.38
313.821	15.89
314.034	17.67
314.246	20.83
314.459	20.2
314.671	19.4
314.884	17.89
315.096	17.63
315.309	17.13
315.521	13.48
315.733	14.34
315.946	15.5
316.158	13.69
316.371	13.21
316.583	11.63
316.795	10.6
317.008	10.9
317.22	12.43
317.432	11.96
317.644	12.4
317.857	13.81
318.069	14.34
318.281	13.09
318.494	13.01
318.706	12.6
318.918	12.16
319.13	13.39
319.342	12.69
319.555	11.63
319.767	11.9
319.979	12.61
320.191	12.73
320.403	12.13
320.615	10.32
320.827	10.45
321.039	12.1
321.252	12.17
321.464	12.48
321.676	12.88
321.888	13.86
322.1	13.29
322.312	11.65
322.524	12.66
322.736	12.7
322.948	12.34
323.16	12.92
323.372	12.18
323.584	11.52
323.796	9.75
324.007	9.18
324.219	9.03
324.431	9.33
324.643	10.95
324.855	10.11
325.067	10.39
325.279	13.21
325.491	12.6
325.702	13.01
325.914	13.66
326.126	15.36
326.338	16.52
326.55	17.49
326.761	17.81
326.973	17.29
327.185	18.64
327.396	19.3
327.608	18.6
327.82	19.21
328.032	18.27
328.243	19.17
328.455	19.93
328.666	22.81
328.878	22.32
329.09	21.34
329.301	22
329.513	21.41
329.725	21.47
329.936	22.62
330.148	22.82
330.359	24.67
330.571	24.28
330.782	23.32
330.994	20.56
331.205	21.45
331.417	22.69
331.628	22.05
331.84	23.63
332.051	23.83
332.262	23.77
332.474	23.52
332.685	23.72
332.897	25.38
333.108	28.65
333.319	29.68
333.531	30.14
333.742	30.68
333.953	31.38
334.165	31.26
334.376	31.14
334.587	31.67
334.799	32.65
335.01	32.43
335.221	31.24
335.432	29.44
335.644	28.62
335.855	28.07
336.066	27.77
336.277	27.81
336.488	27.88
336.7	29.1
336.911	28.87
337.122	30.13
337.333	31.43
337.544	31.39
337.755	32.21
337.966	32.78
338.177	33.5
338.388	34.85
338.599	36.15
338.811	35.69
339.022	35.41
339.233	35.65
339.444	34.1
339.655	33.49
339.866	35.67
340.076	35.87
340.287	35.16
340.498	34.51
340.709	34.49
340.92	34.82
341.131	35.89
341.342	35.95
341.553	36.37
341.764	37.65
341.975	37.74
342.185	36.08
342.396	35.97
342.607	37.6
342.818	38.19
343.029	37.95
343.239	37.42
343.45	36.66
343.661	37.15
343.872	35.29
344.082	34.59
344.293	34.54
344.504	35.37
344.714	34.51
344.925	33.87
345.136	34.24
345.346	33.2
345.557	32.8
345.768	32.83
345.978	33.03
346.189	34.24
346.399	35.9
346.61	36.24
346.821	36.05
347.031	37.06
347.242	38.35
347.452	37.78
347.663	38.41
347.873	37.92
348.084	38.38
348.294	36.17
348.504	36.24
348.715	35.54
348.925	34.83
349.136	34.99
349.346	35.19
349.557	34.1
349.767	34.91
349.977	34.78
350.188	35.68
350.398	36.02
350.608	37.25
350.819	37.12
351.029	36.4
351.239	37.89
351.449	37.98
351.66	37.2
351.87	36.69
352.08	35.69
352.29	36.13
352.501	35.68
352.711	35.21
352.921	34.98
353.131	35.08
353.341	34.13
353.552	34.29
353.762	33.59
353.972	33.33
354.182	33.15
354.392	33.5
354.602	33
354.812	33.86
355.022	33.37
355.232	35.2
355.442	36.45
355.652	37.33
355.862	37.48
356.072	37.68
356.282	38.15
356.492	38.81
356.702	39.11
356.912	39.81
357.122	39.5
357.332	39.24
357.542	37.42
357.752	36.97
357.962	35.36
358.171	34.34
358.381	34.1
358.591	33.75
358.801	33.78
359.011	33.43
359.221	33.22
359.43	33.09
359.64	33.92
359.85	35.27
360.06	33.97
360.269	35.62
360.479	35.55
360.689	35.8
360.899	36.18
361.108	35.82
361.318	35.99
361.528	35.56
361.737	35.65
361.947	35.54
362.156	35.12
362.366	35.61
362.576	34.92
362.785	34.98
362.995	34.8
363.204	34.81
363.414	34.79
363.623	34.61
363.833	34.45
364.042	33.82
364.252	33.32
364.461	32.52
364.671	32.6
364.88	33.52
365.09	32.72
365.299	33.09
365.509	32.35
365.718	32.5
365.927	32.66
366.137	32.9
366.346	32.86
366.555	33.03
366.765	32.72
366.974	32.57
367.183	32.15
367.393	32.24
367.602	31.48
367.811	31.12
368.021	30.34
368.23	30.28
368.439	29.91
368.648	29.91
368.857	30.09
369.067	30.41
369.276	29.69
369.485	29.92
369.694	30
369.903	30.5
370.112	30.76
370.321	31.38
370.531	31.28
370.74	31.57
370.949	31.36
371.158	31.18
371.367	31.85
371.576	32.96
371.785	32.64
371.994	33.03
372.203	32.81
372.412	33.15
372.621	33.18
372.83	32.58
373.039	32.57
373.248	33.51
373.457	33.36
373.666	32.82
373.874	31.83
374.083	31.61
374.292	31.79
374.501	31.64
374.71	31.13
374.919	31.08
375.128	31.28
375.336	31.1
375.545	30.56
375.754	30.46
375.963	30.14
376.171	29.89
376.38	29.14
376.589	28.21
376.798	27.64
377.006	27.24
377.215	27.04
377.424	27.32
377.632	26.69
377.841	25.99
378.05	25.57
378.258	25.52
378.467	25.31
378.675	25.67
378.884	25.54
379.093	25.81
379.301	26.1
379.51	25.39
379.718	24.39
379.927	24.31
380.135	24.79
380.344	24.33
380.552	24.19
380.761	24.33
380.969	24.46
381.177	24.9
381.386	24.59
381.594	24.55
381.803	25.01
382.011	24.85
382.219	25.15
382.428	24.94
382.636	25.31
382.845	25.19
383.053	25.81
383.261	25.4
383.469	24.98
383.678	24.88
383.886	25.26
384.094	25.06
384.302	25.38
384.511	25.33
384.719	24.94
384.927	24.83
385.135	24.14
385.343	23.57
385.552	23.83
385.76	23.67
385.968	23.69
386.176	22.8
386.384	22.63
386.592	22.37
386.8	22.13
387.008	22.35
387.216	22.05
387.424	22.62
387.633	22.13
387.841	21.98
388.049	22.33
388.257	22.37
388.465	22.62
388.672	22.57
388.88	22.41
389.088	22.44
389.296	21.83
389.504	22.09
389.712	21.99
389.92	22.4
390.128	22.39
390.336	22.16
390.544	22.14
390.751	21.76
390.959	21.66
391.167	21.57
391.375	21.37
391.583	21.59
391.79	21.75
391.998	21.69
392.206	21.56
392.414	21.52
392.621	21.1
392.829	20.83
393.037	21.25
393.244	21.31
393.452	21.7
393.66	21.92
393.867	21.96
394.075	21.72
394.283	21.57
394.49	21.55
394.698	21.44
394.905	21.71
395.113	21.76
395.32	21.42
395.528	21.27
395.735	21.49
395.943	21.43
396.15	21.36
396.358	21.47
396.565	21.5
396.773	21.56
396.98	21.56
397.188	21.38
397.395	21.51
397.602	21.99
397.81	21.92
398.017	21.4
398.225	21.13
398.432	21
398.639	20.93
398.847	21.2
399.054	20.79
399.261	20.65
399.468	20.85
399.676	20.67
399.883	20.48
400.09	20.41
400.297	20.3
400.505	20.5
400.712	20.56
400.919	20.26
401.126	20.27
401.333	20.5
401.54	20.51
401.748	20.54
401.955	20.6
402.162	20.33
402.369	20.62
402.576	20.96
402.783	21.04
402.99	20.9
403.197	20.73
403.404	20.33
403.611	20.55
403.818	20.64
404.025	20.36
404.232	20.5
404.439	20.58
404.646	20.85
404.853	20.89
405.06	20.71
405.267	21.1
405.474	21.24
405.681	21.27
405.887	21.01
406.094	21.09
406.301	21.49
406.508	21.43
406.715	21.2
406.922	20.8
407.128	20.43
407.335	20.47
407.542	20.16
407.749	20.36
407.955	20.58
408.162	20.48
408.369	20.29
408.575	20.11
408.782	20.12
408.989	20.21
409.195	20.16
409.402	20.18
409.609	20.14
409.815	20.18
410.022	20.05
410.228	19.96
410.435	20.21
410.642	20.22
410.848	20.1
411.055	19.84
411.261	19.88
411.468	19.81
411.674	20.15
411.881	20.06
412.087	19.69
412.294	19.65
412.5	19.53
412.706	19.53
412.913	19.78
413.119	19.47
413.326	19.62
413.532	19.89
413.738	19.78
413.945	19.5
414.151	19.85
414.357	20.4
414.564	20.64
414.77	20.58
414.976	20.48
415.182	20.19
415.389	20.44
415.595	20.44
415.801	19.97
416.007	20.01
416.214	20.1
416.42	19.78
416.626	19.6
416.832	19.29
417.038	19.41
417.244	19.36
417.45	19.55
417.657	19.6
417.863	19.49
418.069	19.9
418.275	19.95
418.481	19.87
418.687	19.81
418.893	19.68
419.099	19.87
419.305	19.8
419.511	19.75
419.717	19.67
419.923	19.7
420.129	19.6
420.335	19.44
420.541	19.36
420.746	19.26
420.952	19.37
421.158	19.3
421.364	19.15
421.57	19.13
421.776	19.11
421.982	19.09
422.187	19
422.393	19.11
422.599	19.04
422.805	19.08
423.01	19.19
423.216	19.26
423.422	19.37
423.628	19.46
423.833	19.53
424.039	19.49
424.245	19.41
424.45	19.4
424.656	19.41
424.862	19.39
425.067	19.36
425.273	19.4
425.478	19.29
425.684	19.27
425.889	19.25
426.095	19.21
426.301	19.34
426.506	19.35
426.712	19.47
426.917	19.4
427.123	19.36
427.328	19.38
427.533	19.32
427.739	19.3
427.944	19.32
428.15	19.31
428.355	19.16
428.561	19.21
428.766	19.23
428.971	18.9
429.177	19
429.382	18.97
429.587	18.87
429.793	18.55
429.998	18.5
430.203	18.41
430.408	18.34
430.614	18.26
430.819	18.08
431.024	18.04
431.229	18.37
431.434	18.4
431.64	18.41
431.845	18.64
432.05	18.73
432.255	18.65
432.46	18.89
432.665	18.9
432.87	18.97
433.076	19.02
433.281	19.14
433.486	18.92
433.691	18.91
433.896	19.08
434.101	18.99
434.306	19.04
434.511	19.03
434.716	18.71
434.921	18.83
435.126	18.9
435.331	18.88
435.535	18.73
435.74	19.01
435.945	18.84
436.15	18.72
436.355	18.86
436.56	18.8
436.765	18.72
436.97	18.89
437.174	18.75
437.379	18.61
437.584	18.67
437.789	18.69
437.993	18.35
438.198	18.52
438.403	18.43
438.608	18.32
438.812	18.55
439.017	18.59
439.222	18.62
439.426	18.5
439.631	18.63
439.836	18.78
440.04	18.75
440.245	18.96
440.45	18.97
440.654	19.04
440.859	19.01
441.063	18.92
441.268	19.22
441.472	19.17
441.677	19.43
441.881	19.39
442.086	19.26
442.29	19.43
442.495	19.41
442.699	19.32
442.904	19.27
443.108	19.34
443.312	19.36
443.517	19.19
443.721	19.25
443.925	19.09
444.13	19.05
444.334	19.08
444.538	18.95
444.743	18.87
444.947	18.81
445.151	18.78
445.356	18.72
445.56	18.71
445.764	18.75
445.968	18.69
446.173	18.7
446.377	18.78
446.581	18.67
446.785	18.55
446.989	18.52
447.193	18.56
447.398	18.65
447.602	18.77
447.806	18.62
448.01	18.54
448.214	18.64
448.418	18.66
448.622	18.55
448.826	18.6
449.03	18.82
449.234	18.76
449.438	18.62
449.642	18.65
449.846	18.51
450.05	18.54
450.254	18.51
450.458	18.3
450.662	18.17
450.866	18.15
451.069	17.98
451.273	17.96
451.477	18.05
451.681	18.26
451.885	18.1
452.089	17.96
452.292	18.17
452.496	18.19
452.7	18.26
452.904	18.21
453.107	18.12
453.311	18.13
453.515	17.99
453.719	17.87
453.922	17.69
454.126	17.78
454.33	17.72
454.533	17.51
454.737	17.51
454.94	17.62
455.144	17.61
455.348	17.66
455.551	17.8
455.755	17.89
455.958	17.88
456.162	18.26
456.365	18.47
456.569	18.7
456.772	18.77
456.976	18.58
457.179	18.47
457.383	18.49
457.586	18.65
457.79	18.54
457.993	18.56
458.196	18.49
458.4	18.28
458.603	18.04
458.807	17.96
459.01	18.01
459.213	18.09
459.417	18.18
459.62	18.19
459.823	18.08
460.026	18.08
460.23	18.01
460.433	18.09
460.636	18.09
460.839	18.15
461.042	18.23
461.246	18.21
461.449	18.23
461.652	18.08
461.855	18.22
462.058	18.45
462.261	18.54
462.464	18.64
462.668	18.59
462.871	18.6
463.074	18.65
463.277	18.51
463.48	18.49
463.683	18.62
463.886	18.66
464.089	18.59
464.292	18.51
464.495	18.48
464.698	18.41
464.901	18.53
465.104	18.65
465.306	18.51
465.509	18.61
465.712	18.7
465.915	18.44
466.118	18.54
466.321	18.57
466.524	18.56
466.726	18.64
466.929	18.62
467.132	18.58
467.335	18.51
467.538	18.37
467.74	18.31
467.943	18.32
468.146	18.5
468.348	18.51
468.551	18.35
468.754	18.22
468.956	18.1
469.159	18.18
469.362	18.32
469.564	18.21
469.767	18.56
469.969	18.57
470.172	18.59
470.375	18.58
470.577	18.38
470.78	18.63
470.982	18.9
471.185	18.91
471.387	18.77
471.59	18.7
471.792	18.79
471.995	18.73
472.197	18.93
472.399	18.94
472.602	18.99
472.804	19.08
473.007	18.86
473.209	18.61
473.411	18.54
473.614	18.74
473.816	18.69
474.018	18.75
474.22	18.8
474.423	18.67
474.625	18.59
474.827	18.57
475.03	18.69
475.232	18.74
475.434	18.75
475.636	18.93
475.838	18.84
476.04	18.93
476.243	18.84
476.445	18.82
476.647	18.69
476.849	18.74
477.051	18.64
477.253	18.59
477.455	18.72
477.657	18.78
477.859	18.7
478.061	18.83
478.263	18.62
478.465	18.56
478.667	18.5
478.869	18.69
479.071	18.64
479.273	18.69
479.475	18.78
479.677	18.68
479.879	18.57
480.081	18.7
480.283	18.56
480.485	18.81
480.686	18.79
480.888	18.83
481.09	18.7
481.292	18.77
481.494	18.68
481.695	18.65
481.897	18.55
482.099	18.58
482.301	18.53
482.502	18.51
482.704	18.43
482.906	18.53
483.107	18.54
483.309	18.61
483.511	18.51
483.712	18.57
483.914	18.53
484.115	18.63
484.317	18.64
484.519	18.56
484.72	18.58
484.922	18.64
485.123	18.58
485.325	18.52
485.526	18.48
485.728	18.57
485.929	18.54
486.131	18.56
486.332	18.51
486.534	18.51
486.735	18.61
486.936	18.6
487.138	18.62
487.339	18.62
487.541	18.65
487.742	18.65
487.943	18.62
488.144	18.56
488.346	18.55
488.547	18.57
488.748	18.56
488.95	18.53
489.151	18.48
489.352	18.39
489.553	18.44
489.755	18.46
489.956	18.35
490.157	18.37
490.358	18.46
490.559	18.43
490.76	18.36
490.961	18.33
491.163	18.43
491.364	18.45
491.565	18.42
491.766	18.36
491.967	18.4
492.168	18.51
492.369	18.52
492.57	18.5
492.771	18.56
492.972	18.62
493.173	18.54
493.374	18.53
493.575	18.61
493.776	18.71
493.976	18.79
494.177	18.73
494.378	18.72
494.579	18.55
494.78	18.55
494.981	18.64
495.182	18.7
495.382	18.88
495.583	18.9
495.784	18.82
495.985	18.82
496.185	19.06
496.386	19
496.587	18.97
496.788	19.14
496.988	19.23
497.189	19.23
497.39	19.27
497.59	19.36
497.791	19.29
497.992	19.38
498.192	19.38
498.393	19.28
498.593	19.32
498.794	19.39
498.994	19.35
499.195	19.25
499.395	19.16
499.596	19.05
499.796	18.85
499.997	18.92
500.197	18.93
500.398	18.87
500.598	18.82
500.799	18.79
500.999	18.89
501.199	19.02
501.4	19.13
501.6	19.18
501.801	19.1
502.001	19.31
502.201	19.25
502.402	19.38
502.602	19.58
502.802	19.56
503.002	19.61
503.203	19.43
503.403	19.48
503.603	19.32
503.803	19.46
504.003	19.59
504.204	19.64
504.404	19.62
504.604	19.41
504.804	19.32
505.004	19.26
505.204	19.37
505.404	19.48
505.604	19.29
505.804	19.41
506.005	19.42
506.205	19.47
506.405	19.53
506.605	19.64
506.805	19.77
507.005	19.89
507.204	20.03
507.404	20.07
507.604	20.16
507.804	20.29
508.004	20.3
508.204	20.28
508.404	20.36
508.604	20.35
508.804	20.36
509.003	20.5
509.203	20.53
509.403	20.74
509.603	20.76
509.803	20.79
510.002	20.95
510.202	21.12
510.402	21.21
510.602	21.32
510.801	21.48
511.001	21.65
511.201	21.54
511.4	21.6
511.6	21.47
511.8	21.55
511.999	21.64
512.199	21.63
512.398	21.73
512.598	21.64
512.797	21.61
512.997	21.6
513.197	21.64
513.396	21.83
513.596	21.76
513.795	21.8
513.994	21.89
514.194	21.86
514.393	21.77
514.593	21.89
514.792	22.09
514.992	22.08
515.191	22.06
515.39	22.14
515.59	22.27
515.789	22.51
515.988	22.76
516.188	22.63
516.387	22.67
516.586	22.78
516.786	22.77
516.985	22.64
517.184	22.69
517.383	22.78
517.582	22.79
517.782	22.87
517.981	22.89
518.18	22.74
518.379	22.8
518.578	22.76
518.777	22.95
518.976	23.04
519.176	23.14
519.375	23.15
519.574	23.22
519.773	23.18
519.972	23.13
520.171	23.1
520.37	23.24
520.569	23.36
520.768	23.69
520.967	23.57
521.166	23.53
521.365	23.69
521.564	23.66
521.762	23.74
521.961	23.85
522.16	23.96
522.359	24.09
522.558	24.03
522.757	24.1
522.956	23.96
523.154	24.14
523.353	24.25
523.552	24.16
523.751	24.3
523.949	24.22
524.148	24.37
524.347	24.34
524.546	24.38
524.744	24.46
524.943	24.48
525.142	24.51
525.34	24.53
525.539	24.55
525.737	24.63
525.936	24.79
526.135	24.85
526.333	24.92
526.532	24.9
526.73	24.8
526.929	24.86
527.127	24.94
527.326	24.93
527.524	24.86
527.723	24.9
527.921	24.94
528.12	24.92
528.318	24.93
528.516	24.92
528.715	24.94
528.913	25.07
529.112	25.09
529.31	25.12
529.508	25.22
529.707	25.33
529.905	25.32
530.103	25.38
530.301	25.36
530.5	25.44
530.698	25.41
530.896	25.47
531.094	25.41
531.293	25.47
531.491	25.54
531.689	25.46
531.887	25.54
532.085	25.54
532.283	25.58
532.481	25.64
532.68	25.61
532.878	25.75
533.076	25.8
533.274	25.87
533.472	25.95
533.67	25.96
533.868	26.06
534.066	26.01
534.264	26.07
534.462	26.08
534.66	26.17
534.858	26.29
535.056	26.26
535.253	26.39
535.451	26.46
535.649	26.4
535.847	26.39
536.045	26.45
536.243	26.45
536.441	26.54
536.638	26.61
536.836	26.55
537.034	26.51
537.232	26.5
537.43	26.49
537.627	26.51
537.825	26.58
538.023	26.55
538.22	26.48
538.418	26.62
538.616	26.56
538.813	26.44
539.011	26.49
539.209	26.52
539.406	26.61
539.604	26.64
539.801	26.55
539.999	26.63
540.196	26.63
540.394	26.7
540.591	26.69
540.789	26.72
540.986	26.84
541.184	26.88
541.381	26.91
541.579	26.99
541.776	27.08
541.974	27.18
542.171	27.23
542.368	27.27
542.566	27.33
542.763	27.38
542.96	27.46
543.158	27.53
543.355	27.63
543.552	27.74
543.75	27.79
543.947	27.7
544.144	27.71
544.341	27.77
544.539	27.88
544.736	27.94
544.933	28.01
545.13	28.11
545.327	28.11
545.524	28.11
545.722	28.14
545.919	28.11
546.116	28.17
546.313	28.21
546.51	28.11
546.707	28.03
546.904	28.01
547.101	27.97
547.298	27.82
547.495	27.87
547.692	27.85
547.889	27.82
548.086	27.9
548.283	27.99
548.48	28.04
548.677	28.14
548.874	28.26
549.07	28.24
549.267	28.1
549.464	28.19
549.661	28.06
549.858	28.06
550.055	27.94
550.251	27.85
550.448	27.64
550.645	27.64
550.842	27.59
551.038	27.52
551.235	27.62
551.432	27.71
551.628	27.91
551.825	27.94
552.022	27.88
552.218	27.9
552.415	27.79
552.612	28.03
552.808	28.02
553.005	28.14
553.201	28.29
553.398	28.27
553.594	28.43
553.791	28.42
553.987	28.49
554.184	28.52
554.38	28.64
554.577	28.76
554.773	28.57
554.97	28.47
555.166	28.25
555.362	27.94
555.559	27.69
555.755	27.79
555.952	27.59
556.148	27.6
556.344	27.72
556.541	27.68
556.737	27.77
556.933	27.76
557.129	27.91
557.326	27.93
557.522	28.09
557.718	28.3
557.914	28.12
558.11	28.1
558.307	28.05
558.503	28.27
558.699	28.34
558.895	28.46
559.091	28.5
559.287	28.56
559.483	28.63
559.679	28.66
559.876	28.65
560.072	28.65
560.268	28.65
560.464	28.72
560.66	28.51
560.856	28.41
561.052	28.18
561.247	28.1
561.443	28.06
561.639	28.12
561.835	28.31
562.031	28.5
562.227	28.39
562.423	28.64
562.619	28.5
562.815	28.6
563.01	28.73
563.206	28.7
563.402	28.66
563.598	28.9
563.793	28.75
563.989	28.77
564.185	28.73
564.381	28.77
564.576	28.58
564.772	28.82
564.968	28.7
565.163	28.69
565.359	28.95
565.555	29.17
565.75	28.97
565.946	29.09
566.141	28.9
566.337	29
566.532	29.22
566.728	29.3
566.923	29.18
567.119	29.28
567.314	29.11
567.51	29.01
567.705	29.06
567.901	28.88
568.096	28.88
568.292	28.93
568.487	28.67
568.682	28.64
568.878	28.49
569.073	28.62
569.268	28.67
569.464	28.77
569.659	28.89
569.854	28.77
570.05	28.84
570.245	28.93
570.44	28.93
570.635	28.96
570.831	28.96
571.026	29.04
571.221	29.1
571.416	29.19
571.611	29.08
571.806	29.1
572.002	29.08
572.197	29.42
572.392	29.47
572.587	29.59
572.782	29.75
572.977	29.63
573.172	29.72
573.367	29.64
573.562	29.5
573.757	29.67
573.952	29.57
574.147	29.65
574.342	29.28
574.537	29.17
574.732	29.23
574.927	29.12
575.121	29.32
575.316	29.45
575.511	29.51
575.706	29.63
575.901	29.73
576.096	29.9
576.29	29.98
576.485	30.12
576.68	30.28
576.875	30.11
577.069	30.26
577.264	30.43
577.459	30.31
577.654	30.3
577.848	30.3
578.043	30.47
578.238	30.59
578.432	30.48
578.627	30.51
578.821	30.53
579.016	30.62
579.21	30.49
579.405	30.27
579.6	30.3
579.794	30.25
579.989	30.25
580.183	29.88
580.378	29.68
580.572	29.82
580.766	29.73
580.961	29.57
581.155	29.69
581.35	29.56
581.544	29.35
581.738	29.31
581.933	29.3
582.127	29.43
582.321	29.65
582.516	29.73
582.71	29.76
582.904	30.1
583.099	30.37
583.293	30.4
583.487	30.74
583.681	31.07
583.875	30.98
584.07	31.01
584.264	30.94
584.458	30.95
584.652	30.72
584.846	30.48
585.04	30.35
585.234	30.51
585.428	30.32
585.623	30.28
585.817	30.16
586.011	30.43
586.205	30.23
586.399	29.83
586.593	29.74
586.787	29.93
586.981	30.08
587.174	30.19
587.368	29.82
587.562	29.85
587.756	29.86
587.95	29.86
588.144	29.83
588.338	30.05
588.532	30.28
588.725	30.44
588.919	30.46
589.113	30.44
589.307	30.5
589.501	30.56
589.694	30.61
589.888	30.52
590.082	30.6
590.275	30.62
590.469	30.49
590.663	30.5
590.856	30.61
591.05	30.63
591.244	30.59
591.437	30.36
591.631	30.44
591.824	30.36
592.018	30.46
592.212	30.47
592.405	30.47
592.599	30.6
592.792	30.49
592.986	30.45
593.179	30.54
593.372	30.75
593.566	31.13
593.759	31.01
593.953	31.29
594.146	31.36
594.339	31.57
594.533	31.29
594.726	31.59
594.92	31.68
595.113	31.65
595.306	31.49
595.499	31.49
595.693	31.3
595.886	31.43
596.079	31.4
596.272	31.24
596.466	31.14
596.659	31.29
596.852	31.16
597.045	31.18
597.238	31.01
597.431	31.14
597.624	31.04
597.818	31.11
598.011	31.11
598.204	30.91
598.397	31.08
598.59	31.06
598.783	31.08
598.976	31.08
599.169	31.2
599.362	31.46
599.555	31.31
599.748	31.44
599.941	31.15
600.134	31.25
600.326	31.61
600.519	31.5
600.712	31.41
600.905	31.56
601.098	31.35
601.291	31.37
601.483	31.33
601.676	31.32
601.869	31.31
602.062	31.45
602.255	31.37
602.447	31.28
602.64	31.3
602.833	31.19
603.025	31.12
603.218	31.24
603.411	30.98
603.603	30.87
603.796	31.12
603.989	31.03
604.181	31.12
604.374	31.2
604.566	31.32
604.759	31.35
604.951	31.43
605.144	31.43
605.336	31.6
605.529	31.72
605.721	31.8
605.914	31.54
606.106	31.58
606.299	31.58
606.491	31.36
606.683	31.16
606.876	31.18
607.068	31.26
607.26	31.16
607.453	31
607.645	31.04
607.837	31.23
608.03	31.6
608.222	31.35
608.414	31.34
608.606	31.34
608.799	31.21
608.991	31.37
609.183	31.37
609.375	31.54
609.567	31.71
609.759	31.94
609.952	32.04
610.144	31.99
610.336	32.4
610.528	32.43
610.72	32.74
610.912	32.87
611.104	32.76
611.296	32.81
611.488	32.84
611.68	32.92
611.872	33.1
612.064	33.13
612.256	33.1
612.448	33.42
612.64	33.55
612.832	33.58
613.023	33.76
613.215	33.73
613.407	33.82
613.599	33.79
613.791	33.39
613.983	33.02
614.174	32.58
614.366	32.55
614.558	31.91
614.75	31.84
614.941	31.85
615.133	32.14
615.325	32.33
615.516	32.29
615.708	32.02
615.9	32.12
616.091	31.99
616.283	32.02
616.475	32.03
616.666	32.34
616.858	32.31
617.049	32.07
617.241	31.68
617.432	31.77
617.624	31.68
617.815	32.07
618.007	32.3
618.198	32.66
618.39	32.87
618.581	32.93
618.773	32.8
618.964	32.76
619.155	32.89
619.347	33.09
619.538	33.01
619.729	32.96
619.921	32.7
620.112	33
620.303	32.66
620.494	32.81
620.686	32.69
620.877	32.6
621.068	32.84
621.259	32.58
621.451	32.37
621.642	32.28
621.833	32.15
622.024	32.23
622.215	31.73
622.406	31.82
622.597	31.58
622.788	32
622.98	31.79
623.171	31.49
623.362	31.68
623.553	31.74
623.744	31.6
623.935	31.57
624.126	31.8
624.317	31.6
624.508	31.75
624.698	31.72
624.889	31.41
625.08	31.8
625.271	31.87
625.462	31.83
625.653	31.73
625.844	31.87
626.034	32.03
626.225	31.65
626.416	32.11
626.607	32.18
626.798	32.24
626.988	32.19
627.179	32.14
627.37	32.17
627.56	32.02
627.751	31.84
627.942	32.1
628.132	32.28
628.323	32.59
628.514	32.27
628.704	32.17
628.895	32.12
629.085	32.24
629.276	31.96
629.466	32.27
629.657	32.54
629.847	32.79
630.038	32.61
630.228	32.4
630.419	32.34
630.609	32.33
630.8	32.27
630.99	32.19
631.181	32.13
631.371	32.41
631.561	32.33
631.752	32.13
631.942	32.2
632.132	31.78
632.323	31.8
632.513	31.52
632.703	31.46
632.893	31.26
633.084	31.34
633.274	31.37
633.464	31.35
633.654	31.12
633.844	31.1
634.034	31.01
634.225	31.16
634.415	31.13
634.605	31.38
634.795	31.57
634.985	31.59
635.175	31.79
635.365	31.91
635.555	31.64
635.745	31.5
635.935	31.77
636.125	31.76
636.315	31.56
636.505	31.91
636.695	31.82
636.885	31.77
637.075	31.95
637.265	31.75
637.455	31.75
637.644	31.69
637.834	31.9
638.024	31.65
638.214	31.77
638.404	32.41
638.593	32.01
638.783	32.43
638.973	32.41
639.163	32.38
639.352	32.6
639.542	32.25
639.732	32.94
639.921	32.83
640.111	33.01
640.301	32.89
640.49	32.76
640.68	32.76
640.87	32.68
641.059	33.05
641.249	33.16
641.438	32.72
641.628	32.94
641.817	32.45
642.007	32.86
642.196	32.9
642.386	32.96
642.575	32.83
642.764	32.87
642.954	32.53
643.143	32.15
643.333	32.17
643.522	32.51
643.711	32.38
643.901	32.54
644.09	32.47
644.279	32.27
644.469	32.43
644.658	32.46
644.847	32.87
645.036	32.93
645.226	33.3
645.415	33
645.604	32.8
645.793	32.73
645.982	33.11
646.171	32.62
646.361	32.7
646.55	32.5
646.739	32.36
646.928	31.77
647.117	31.73
647.306	31.67
647.495	31.96
647.684	32.13
647.873	32.27
648.062	31.6
648.251	31.9
648.44	32.06
648.629	32.5
648.818	32.66
649.007	32.5
649.196	32.74
649.384	32.55
649.573	32.56
649.762	32.9
649.951	33.2
650.14	33.02
650.328	33.05
650.517	32.71
650.706	32.39
650.895	32.56
651.083	33.17
651.272	33.15
651.461	33.26
651.65	33.27
651.838	32.6
652.027	32.24
652.216	32.92
652.404	32.76
652.593	33.04
652.781	33.41
652.97	33.3
653.158	33.16
653.347	32.79
653.535	33.07
653.724	33.14
653.912	33.46
654.101	33.95
654.289	33.39
654.478	33.17
654.666	33
654.855	32.83
655.043	32.65
655.231	32.38
655.42	32.63
655.608	32.31
655.796	32.33
655.985	32.61
656.173	32.27
656.361	32.68
656.55	33.12
656.738	33.21
656.926	32.99
657.114	33.1
657.302	33.2
657.491	33.43
657.679	33.22
657.867	33.1
658.055	32.84
658.243	32.99
658.431	32.88
658.619	32.47
658.807	32.48
658.996	32.59
659.184	32.75
659.372	32.91
659.56	32.99
659.748	32.86
659.936	32.8
660.124	33.13
660.311	32.85
660.499	32.87
660.687	33.48
660.875	33.28
661.063	33.45
661.251	33.1
661.439	33.22
661.627	32.78
661.814	33.03
662.002	33.19
662.19	32.67
662.378	32.9
662.565	32.5
662.753	32.11
662.941	32.27
663.129	31.96
663.316	31.99
663.504	31.76
663.692	32.07
663.879	32.08
664.067	32.61
664.254	32.99
664.442	33.2
664.63	33.64
664.817	33.85
665.005	33.8
665.192	33.6
665.38	33.9
665.567	33.82
665.755	34.17
665.942	34.38
666.13	33.76
666.317	33.86
666.504	33.9
666.692	33.59
666.879	33.25
667.067	33.29
667.254	33.31
667.441	33.19
667.629	33.23
667.816	32.62
668.003	32.71
668.19	32.66
668.378	32.36
668.565	31.79
668.752	32.41
668.939	32.6
669.127	32.62
669.314	32.74
669.501	32.63
669.688	32.84
669.875	33.21
670.062	33.03
670.249	33.31
670.436	33.41
670.623	33.62
670.81	33.31
670.997	33.31
671.184	33.33
671.371	33.91
671.558	33.84
671.745	33.6
671.932	33.41
672.119	33.83
672.306	33.63
672.493	33.37
672.68	33.51
672.867	33.41
673.054	33.19
673.24	33.62
673.427	33.27
673.614	33.34
673.801	33.81
673.988	33.88
674.174	33.32
674.361	33.38
674.548	33.72
674.734	33.73
674.921	34.08
675.108	34.24
675.294	33.55
675.481	33.24
675.668	33.73
675.854	33.72
676.041	33.75
676.227	33.67
676.414	33.43
676.601	33.85
676.787	33.85
676.974	33.19
677.16	33.19
677.347	33.21
677.533	33.39
677.719	32.9
677.906	33.22
678.092	33.1
678.279	33.27
678.465	33.74
678.651	33.18
678.838	33.67
679.024	34.09
679.21	34.27
679.397	34.69
679.583	34.72
679.769	34.9
679.955	34.15
680.142	34.36
680.328	34.46
680.514	33.85
680.7	34.19
680.886	33.91
681.073	33.48
681.259	33.26
681.445	33.07
681.631	33.14
681.817	33.24
682.003	33.75
682.189	33.47
682.375	33.67
682.561	34.02
682.747	33.88
682.933	33.43
683.119	33.75
683.305	34.14
683.491	34.95
683.677	34.76
683.863	34.1
684.049	34.19
684.235	34.12
684.42	33.88
684.606	33.89
684.792	33.59
684.978	33.81
685.164	34.21
685.349	33.84
685.535	33.15
685.721	33.15
685.907	33.54
686.092	33.16
686.278	33.63
686.464	33.19
686.649	33
686.835	33.48
687.021	33.16
687.206	32.74
687.392	32.62
687.577	32.44
687.763	32.56
687.948	32.52
688.134	32.9
688.319	33.12
688.505	33.15
688.69	33.19
688.876	33.15
689.061	33.92
689.247	34.12
689.432	34.08
689.618	34.66
689.803	34.75
689.988	34.92
690.174	34.68
690.359	34.36
690.544	34.71
690.73	34.87
690.915	34.9
691.1	34.61
691.285	34.38
691.471	34.53
691.656	34.07
691.841	34.16
692.026	34.19
692.211	33.59
692.396	33.39
692.582	33.34
692.767	33.01
692.952	32.65
693.137	32.82
693.322	32.98
693.507	33.44
693.692	33.3
693.877	32.76
694.062	33.14
694.247	34
694.432	33.46
694.617	32.8
694.802	32.8
694.987	32.53
695.172	32.37
695.357	32.35
695.541	32.35
695.726	32.78
695.911	33.46
696.096	33.28
696.281	32.98
696.466	33.57
696.65	34.32
696.835	34.4
697.02	34.79
697.204	35.02
697.389	35.23
697.574	34.98
697.759	34.76
697.943	34.3
698.128	33.93
698.312	33.67
698.497	33.55
698.682	33.45
698.866	33.75
699.051	33.63
699.235	33.03
699.42	32.87
699.604	32.81
699.789	32.62
699.973	32.7
700.158	32.77
700.342	32.88
700.527	32.47
700.711	32.25
700.895	32.13
701.08	31.85
701.264	32.4
701.448	33.05
701.633	33.07
701.817	32.99
702.001	33.56
702.186	33.61
702.37	33.85
702.554	34.46
702.738	34.85
702.923	34.37
703.107	35.12
703.291	35.17
703.475	34.36
703.659	34.12
703.843	34.52
704.027	33.75
704.212	33.82
704.396	34.05
704.58	34.08
704.764	33.59
704.948	33.79
705.132	33.14
705.316	33.29
705.5	32.93
705.684	33.55
705.868	33.64
706.052	33.68
706.235	33.59
706.419	33.14
706.603	33.34
706.787	33.73
706.971	34.25
707.155	34.42
707.339	34.15
707.522	34.35
707.706	33.44
707.89	33.33
708.074	33.84
708.257	34.02
708.441	34.44
708.625	33.55
708.808	33.97
708.992	34.18
709.176	34.53
709.359	34.57
709.543	34.57
709.727	35.15
709.91	35.14
710.094	35.03
710.277	34.88
710.461	34.87
710.644	35.09
710.828	34.92
711.011	34.89
711.195	34.56
711.378	34.49
711.562	35.28
711.745	35.23
711.928	35.06
712.112	34.37
712.295	34.88
712.478	35.42
712.662	36.04
712.845	36.11
713.028	36.14
713.212	36.46
713.395	36.8
713.578	36.35
713.761	36.13
713.945	37.17
714.128	37.48
714.311	36.5
714.494	35.57
714.677	35.46
714.86	35.35
715.043	34.96
715.227	33.91
715.41	33.47
715.593	33.57
715.776	33.15
715.959	31.83
716.142	32.35
716.325	32.96
716.508	32.79
716.691	32.43
716.874	32.54
717.057	32.05
717.239	32.36
717.422	32.17
717.605	31.32
717.788	32.31
717.971	32.69
718.154	32.78
718.337	32.94
718.519	32.89
718.702	32.97
718.885	32.24
719.068	32.66
719.25	33.04
719.433	33.86
719.616	34.5
719.798	35.05
719.981	35.85
720.164	34.83
720.346	34.21
720.529	36
720.712	36.38
720.894	36.9
721.077	36.87
721.259	37.96
721.442	36.58
721.624	36.37
721.807	35.64
721.989	34.91
722.172	34.86
722.354	35.77
722.537	34.13
722.719	33.57
722.901	34.24
723.084	34.8
723.266	33.37
723.448	34.03
723.631	34.65
723.813	34.85
723.995	34.94
724.178	34.86
724.36	34.86
724.542	34.93
724.724	35.06
724.907	34.04
725.089	33.67
725.271	34.79
725.453	35.17
725.635	35
725.817	34.9
725.999	34.34
726.181	35.34
726.364	36.08
726.546	36
726.728	35.96
726.91	36.37
727.092	36.19
727.274	35.81
727.456	35.32
727.638	35.07
727.819	34.16
728.001	35.08
728.183	34.99
728.365	34.44
728.547	34.33
728.729	34.42
728.911	34.68
729.093	34.46
729.274	33.48
729.456	33.47
729.638	33.84
729.82	35.25
730.001	34.61
730.183	34.12
730.365	33.85
730.546	33.87
730.728	34.67
730.91	33.65
731.091	33.71
731.273	34.41
731.455	35.9
731.636	36.11
731.818	36.01
731.999	36.67
732.181	36.19
732.362	36.24
732.544	35.61
732.725	34.85
732.907	35.41
733.088	36.52
733.27	37.33
733.451	36.49
733.633	36.78
733.814	36.1
733.995	35.07
734.177	36.1
734.358	35.19
734.539	35.97
734.721	37.19
734.902	37.89
735.083	37.42
735.264	37.53
735.446	37.24
735.627	35.83
735.808	35.79
735.989	35.32
736.17	35.86
736.351	37.79
736.533	38.14
736.714	36.41
736.895	36.24
737.076	36.2
737.257	35.75
737.438	35.37
737.619	36.22
737.8	36.82
737.981	39.44
738.162	39.38
738.343	37.44
738.524	38.16
738.705	39.8
738.886	39.17
739.067	38.78
739.247	37.95
739.428	38.7
739.609	38.13
739.79	37.19
739.971	35.93
740.151	34.83
740.332	34.8
740.513	34.18
740.694	32.19
740.874	33.15
741.055	32.66
741.236	33.78
741.417	32.66
741.597	32.4
741.778	32.84
741.958	33.41
742.139	34.13
742.32	34.52
742.5	35.18
742.681	34.48
742.861	32.68
743.042	32.34
743.222	31.48
743.403	31.66
743.583	32.59
743.764	32.54
743.944	31.68
744.124	31.71
744.305	32.75
744.485	30.71
744.666	32.25
744.846	32.75
745.026	32.96
745.207	33.38
745.387	33.52
745.567	33.27
745.747	32.38
745.928	31.57
746.108	30.38
746.288	28.27
746.468	28.96
746.648	28.55
746.829	28.7
747.009	29.65
747.189	28.71
747.369	28.84
747.549	29.83
747.729	30.88
747.909	32.69
748.089	33.65
748.269	35.67
748.449	35.81
748.629	37.19
748.809	36.43
748.989	36.12
749.169	35.25
749.349	34.98
749.529	33.5
749.709	33.52
749.889	32.65
750.068	32.14
750.248	31.51
750.428	31.31
750.608	30.71
750.788	32.49
750.967	32.2
751.147	33.68
751.327	35.38
751.507	35.66
751.686	36.03
751.866	35.65
752.046	36.07
752.225	36.04
752.405	36.55
752.585	35.59
752.764	35.05
752.944	35.75
753.123	37.08
753.303	36.08
753.482	35.84
753.662	36.24
753.841	37.23
754.021	37.23
754.2	38.52
754.38	38.72
754.559	39.86
754.739	39.94
754.918	39.91
755.097	38.81
755.277	38.26
755.456	38.65
755.635	38.32
755.815	37.2
755.994	36.92
756.173	35.39
756.352	35.25
756.532	34.28
756.711	33.28
756.89	32.32
757.069	32.24
757.248	32.72
757.427	31.77
757.607	31.18
757.786	32.43
757.965	31.85
758.144	32.09
758.323	32.9
758.502	33.32
758.681	34.09
758.86	34.85
759.039	34.68
759.218	34.38
759.397	34.45
759.576	34.07
759.755	33.76
759.934	34.05
760.113	34.8
760.291	33.77
760.47	34.82
760.649	35.19
760.828	34.72
761.007	34.25
761.186	35.34
761.364	36.06
761.543	35.96
761.722	35.97
761.901	35.62
762.079	35.2
762.258	34.94
762.437	33.28
762.615	33.09
762.794	32.59
762.972	33.14
763.151	32.82
763.33	32.94
763.508	34.03
763.687	34.42
763.865	35.07
764.044	36.2
764.222	36.26
764.401	38
764.579	38.7
764.758	38.98
764.936	39.28
765.114	40
765.293	40.42
765.471	40.28
765.65	40.15
765.828	40.75
766.006	39.2
766.184	38.7
766.363	37.59
766.541	36.16
766.719	37.15
766.898	37.1
767.076	36.25
767.254	36.1
767.432	36.24
767.61	35.91
767.788	34.46
767.967	34.74
768.145	35.39
768.323	34.13
768.501	34.38
768.679	34.08
768.857	34.24
769.035	34.45
769.213	34.34
769.391	33.41
769.569	32.48
769.747	32.27
769.925	31.7
770.103	32.06
770.281	33.71
770.459	34.67
770.636	34.44
770.814	33.6
770.992	33.79
771.17	31.97
771.348	32.32
771.525	33.24
771.703	34.5
771.881	34.38
772.059	33.04
772.236	32.29
772.414	31.49
772.592	32.85
772.769	32.83
772.947	31.41
773.125	33.42
773.302	34.46
773.48	34.15
773.657	34.02
773.835	33.79
774.013	35.74
774.19	36.77
774.368	37.45
774.545	34.74
774.723	36.27
774.9	37.02
775.077	36
775.255	35.03
775.432	34.54
775.61	34.07
775.787	34.85
775.964	34.41
776.142	33.33
776.319	34.69
776.496	35.93
776.674	34.79
776.851	36.45
777.028	37.45
777.205	37.71
777.382	38.64
777.56	37.86
777.737	38.85
777.914	38.39
778.091	39.04
778.268	36.89
778.445	35.92
778.622	36.17
778.8	33.01
778.977	31.21
779.154	29.64
779.331	29.01
779.508	31.95
779.685	32.78
779.862	33.78
780.038	34.96
780.215	35.62
780.392	34.62
780.569	34.08
780.746	33.97
780.923	35.46
781.1	35.54
781.277	35.98
781.453	34.58
781.63	30.3
781.807	28.94
781.984	29.13
782.16	29.73
782.337	32.54
782.514	32.2
782.691	35.23
782.867	37.22
783.044	38.5
783.221	41.58
783.397	40.84
783.574	42.67
783.75	40.85
783.927	39.85
784.103	38.62
784.28	36.87
784.456	37.72
784.633	35.42
784.809	34.38
784.986	33.18
785.162	30.32
785.339	31.44
785.515	34.98
785.692	38.23
785.868	38.02
786.044	37.72
786.221	38.35
786.397	38.54
786.573	42.27
786.749	42.31
786.926	42.65
787.102	41.82
787.278	41.12
787.454	38.73
787.631	38.76
787.807	39.19
787.983	41.17
788.159	40.96
788.335	38.42
788.511	36.59
788.687	35.59
788.863	34.8
789.039	35.31
789.216	33.79
789.392	33.6
789.568	33.56
789.744	33.52
789.919	32.18
790.095	32.53
790.271	34.57
790.447	34.36
790.623	35.11
790.799	36
790.975	35.81
791.151	36.89
791.327	35.09
791.502	34.08
791.678	34.5
791.854	32.4
792.03	33.37
792.205	32.11
792.381	31.19
792.557	28.83
792.733	27.08
792.908	27.75
793.084	28.96
793.259	33.62
793.435	35.38
793.611	34.96
793.786	36.87
793.962	37.5
794.137	38.96
794.313	38.64
794.488	38.57
794.664	39.72
794.839	36.01
795.015	33.58
795.19	28.29
795.366	27.46
795.541	25.8
795.716	26.49
795.892	24.63
796.067	25.82
796.242	25.84
796.418	26.71
796.593	25.72
796.768	29.23
796.944	30.73
797.119	34.17
797.294	34.65
797.469	35.91
797.644	31.69
797.82	32.45
797.995	31.3
798.17	32.28
798.345	32.95
798.52	34.23
798.695	33.63
798.87	33.93
799.045	31.24
799.22	31.95
799.395	31.46
799.57	37.23
799.745	35.45
799.92	36.74
800.095	35.61
800.27	35.98
800.445	34.72
800.62	38.07
800.795	36.87
800.97	40.81
801.145	38.82
801.319	34.35
801.494	30.48
801.669	33.22
801.844	32.2
802.018	35
802.193	36.15
802.368	35.02
802.543	29.51
802.717	33.62
802.892	30.75
803.067	29.74
803.241	34.46
803.416	37.4
803.59	37.8
803.765	40.08
803.94	38.31
804.114	38.07
804.289	40.7
804.463	40.84
804.638	40.15
804.812	41.47
804.986	39.16
805.161	40.98
805.335	41.24
805.51	39.7
805.684	37.45
805.858	36.36
806.033	31.21
806.207	32.87
806.381	34.72
806.556	34.81
806.73	32.17
806.904	35.61
807.078	35.27
807.253	33.29
807.427	34.89
807.601	36.45
807.775	37.41
807.949	42.52
808.123	40.72
808.298	36.89
808.472	40.24
808.646	43.97
808.82	43.93
808.994	41.63
809.168	39.26
809.342	38.8
809.516	35.53
809.69	38.4
809.864	38.49
810.038	36.64
810.212	41.1
810.385	37.65
810.559	38
810.733	38.61
810.907	37.19
811.081	39.29
811.255	37.56
811.428	43.81
811.602	42.68
811.776	42.87
811.95	41.96
812.123	40.98
812.297	41.95
812.471	38.08
812.644	37.38
812.818	43.6
812.992	45.54
813.165	46.44
813.339	43.33
813.512	43.12
813.686	40.75
813.86	44.5
814.033	39.79
814.207	41.34
814.38	44.78
814.554	43.99
814.727	44.03
814.9	44.58
815.074	48.72
815.247	49.8
815.421	49.94
815.594	49.75
815.767	49.57
815.941	52.64
816.114	48.91
816.287	47.15
816.46	46.32
816.634	41.57
816.807	39.65
816.98	38.3
817.153	40.29
817.327	37.72
817.5	33.63
817.673	30.42
817.846	29.45
818.019	26.88
818.192	29.48
818.365	32.09
818.538	34.06
818.711	36.06
818.884	35.08
819.057	27.55
819.23	26.71
819.403	30.86
819.576	34.55
819.749	36.89
819.922	37.8
820.095	36.04
820.268	37.77
820.441	37.35
820.614	35.42
820.786	35.69
820.959	37.44
821.132	37.2
821.305	38.1
821.477	37.18
821.65	36.96
821.823	36.12
821.996	36.69
822.168	35.25
822.341	35.31
822.514	35.6
822.686	34.28
822.859	34.22
823.031	34.84
823.204	33.93
823.376	33.8
823.549	33.34
823.722	33.96
823.894	33.43
824.067	33.28
824.239	32.89
824.411	32.24
824.584	33.73
824.756	34.21
824.929	33.83
825.101	34.05
825.273	35.35
825.446	34.26
825.618	33.12
825.79	33.08
825.963	33.28
826.135	32.87
826.307	33.5
826.479	32.69
826.652	33.09
826.824	32.97
826.996	32.96
827.168	32.04
827.34	32.85
827.512	33.94
827.684	34.29
827.856	35.39
828.029	36.27
828.201	35.96
828.373	36.58
828.545	35.88
828.717	36.68
828.889	37.25
829.061	37.31
829.232	37.33
829.404	37.14
829.576	36.81
829.748	37.65
829.92	38.31
830.092	39.12
830.264	38.91
830.436	39.99
830.607	36.63
830.779	37.4
830.951	35.07
831.123	36.12
831.294	34.31
831.466	35.53
831.638	32.87
831.809	29.41
831.981	28.11
832.153	27.96
832.324	26.13
832.496	29.69
832.667	27.7
832.839	31.09
833.011	32.72
833.182	34.36
833.354	35.09
833.525	37.43
833.697	38.64
833.868	39.28
834.039	39.42
834.211	37.8
834.382	35.27
834.554	37.25
834.725	38.67
834.896	35.64
835.068	36.38
835.239	34.02
835.41	30.7
835.581	30.16
835.753	30.01
835.924	28.77
836.095	31.2
836.266	32.85
836.438	31.09
836.609	25.2
836.78	25.49
836.951	25.04
837.122	22.92
837.293	20.41
837.464	22.46
837.635	25.04
837.806	28.16
837.977	24.21
838.148	23.65
838.319	24.35
838.49	30.13
838.661	33.74
838.832	34.06
839.003	41.08
839.174	48.09
839.345	49.8
839.516	45.88
839.687	49.17
839.857	48.91
840.028	50.08
840.199	48.66
840.37	45.86
840.54	44.22
840.711	44
840.882	39.49
841.053	35.81
841.223	36.9
841.394	41.01
841.564	39.83
841.735	46.58
841.906	49.06
842.076	50.39
842.247	57.38
842.417	60.32
842.588	60.71
842.758	68.26
842.929	78.58
843.099	79.7
843.27	80.76
843.44	78.91
843.611	81.35
843.781	80.59
843.951	80.19
844.122	75.73
844.292	75.45
844.462	74.14
844.633	70.4
844.803	69.83
844.973	65.38
845.144	69.44
845.314	69.7
845.484	64.19
845.654	64.14
845.824	63.6
845.995	57.27
846.165	60.71
846.335	65.97
846.505	66.59
846.675	65.72
846.845	66.61
847.015	45.55
847.185	41.99
847.355	41.03
847.525	43.81
847.695	41.94
847.865	47.78
848.035	40.56
848.205	38.82
848.375	37.4
848.545	31.67
848.715	36.91
848.884	41.44
849.054	40.08
849.224	44.87
849.394	37.89
849.564	34.5
849.733	30.08
849.903	33.7
850.073	28.39
850.243	29.98
850.412	38.91
850.582	39.41
850.752	39.48
850.921	45.57
851.091	58.72
851.26	66.21
851.43	68.43
851.599	69.12
851.769	64.87
851.939	73.44
852.108	70.94
852.278	65.26
852.447	62.38
852.616	86.47
852.786	70.46
852.955	51.34
853.125	46.77
853.294	58.58
853.463	52.11
853.633	66.37
853.802	67.49
853.971	73.28
854.141	73.7
854.31	75.83
854.479	72.03
854.648	81.31
854.818	85.12
854.987	92.06
855.156	86
855.325	92.93
855.494	91.4
855.663	74.23
855.832	74.06
856.001	77.47
856.171	74.62
856.34	53.11
856.509	60.03
856.678	55.94
856.847	60.61
857.016	83.16
857.185	91.3
857.353	84.59
857.522	101.36
857.691	78.7
857.86	65.11
858.029	77.36
858.198	90.58
858.367	76.36
858.535	72.1
858.704	66.03
858.873	51.4
859.042	59.53
859.21	54.21
859.379	61.46
859.548	58.27
859.717	56.12
859.885	52.93
860.054	52.28
860.222	39.22
860.391	38.74
860.56	43.21
860.728	53.35
860.897	45.4
861.065	38.54
861.234	11.44
861.402	26.65
861.571	39.43
861.739	38.5
861.908	44.78
862.076	44.68
862.244	35.39
862.413	32.01
862.581	32.12
862.749	33.75
862.918	31.39
863.086	41.75
863.254	36.22
863.423	30.46
863.591	36.73
863.759	30.94
863.927	35.31
864.096	32.91
864.264	35.91
864.432	33.73
864.6	37.23
864.768	45.41
864.936	50.08
865.104	47.38
865.272	52.45
865.44	38.77
865.608	46.09
865.776	60.27
865.944	76.7
866.112	60.49
866.28	54.28
866.448	48.85
866.616	50.93
866.784	44.11
866.952	40.95
867.12	32.27
867.288	34.2
867.455	27.66
867.623	23.16
867.791	29
867.959	34.89
868.127	30.48
868.294	34.66
868.462	43.51
868.63	43.03
868.797	40.54
868.965	44.42
869.133	51.19
869.3	55.26
869.468	66.39
869.636	58.1
869.803	57.4
869.971	80.43
870.138	76.33
870.306	73.97
870.473	74.31
870.641	85.55
870.808	81.56
870.975	89.22
871.143	87.86
871.31	77.74
871.478	77.95
871.645	78.31
871.812	65.34
871.98	65.97
872.147	59.38
872.314	61.79
872.482	54.53
872.649	71.08
872.816	57.13
872.983	62.93
873.15	62.63
873.318	69.72
873.485	63.1
873.652	79.06
873.819	69.3
873.986	71.98
874.153	66.67
874.32	69.65
874.487	54.71
874.654	56.12
874.821	44.62
874.988	47.88
875.155	47.96
875.322	47.96
875.489	48.19
875.656	61.48
875.823	55.4
875.99	64.27
876.157	67.61
876.324	68.22
876.49	75.38
876.657	76.77
876.824	65
876.991	66.62
877.157	60.6
877.324	56.11
877.491	39.99
877.658	49.51
877.824	43.92
877.991	39.38
878.157	40.51
878.324	50.59
878.491	55.22
878.657	61.01
878.824	49.09
878.99	61.98
879.157	61.45
879.323	59.26
879.49	56.26
879.656	70.71
879.823	83.84
879.989	85.83
880.156	73.1
880.322	86.46
880.488	77.87
880.655	83.33
880.821	78.9
880.987	68.22
881.154	63.89
881.32	66.48
881.486	54.6
881.652	39.45
881.819	31.53
881.985	32.55
882.151	28.92
882.317	29.72
882.483	32.48
882.649	32.81
882.816	35.65
882.982	37.25
883.148	34.71
883.314	33.71
883.48	37.61
883.646	38.8
883.812	37
883.978	39.24
884.144	38.59
884.31	38.35
884.476	36.71
884.642	37.2
884.807	38.36
884.973	37.79
885.139	37.97
885.305	37.42
885.471	34.43
885.637	36.57
885.802	33.32
885.968	34.08
886.134	34.63
886.3	40.9
886.465	33.31
886.631	30.27
886.797	27.97
886.962	31.5
887.128	31.61
887.293	30.18
887.459	34.45
887.625	31.74
887.79	33.77
887.956	35.66
888.121	26.71
888.287	39.35
888.452	43.62
888.618	55.01
888.783	54.58
