Data from 2938089_Reflection_3.txt Node
Date: Sat Jul 11 19:23:46 EDT 2015
User: robert
Spectrometer: USB4E03001
Autoset integration time: false
Trigger mode: 4
Integration Time (sec): 1.000000E-1
Scans to average: 10
Electric dark correction enabled: true
Nonlinearity correction enabled: false
Boxcar width: 5
Stray light correction enabled: false
XAxis mode: Wavelengths
Stop averaging: false
Number of Pixels in Spectrum: 3648
>>>>>Begin Spectral Data<<<<<
177.566	60.44
177.785	52.78
178.005	50.91
178.225	68.26
178.445	57.7
178.665	40.97
178.885	9.77
179.105	53.47
179.324	85.62
179.544	54.74
179.764	71.36
179.984	68
180.204	65.39
180.423	82.91
180.643	94.54
180.863	106.86
181.083	182.23
181.302	238.18
181.522	559.86
181.742	102.37
181.961	93.7
182.181	118.67
182.401	105.66
182.621	95.54
182.84	49.76
183.06	96.71
183.279	82.2
183.499	51.24
183.719	86.28
183.938	87.19
184.158	92.05
184.377	121.92
184.597	120.37
184.816	109.97
185.036	106.58
185.256	127.5
185.475	105.95
185.695	110.59
185.914	110.11
186.134	102.69
186.353	101.1
186.572	96.21
186.792	100.47
187.011	101.89
187.231	142.11
187.45	183.64
187.67	178.18
187.889	160.78
188.108	129.65
188.328	104.82
188.547	107.47
188.766	151.6
188.986	445.75
189.205	199.62
189.424	171.82
189.644	141.58
189.863	119.92
190.082	115.26
190.302	118.76
190.521	108.16
190.74	102.87
190.959	68.94
191.178	50.09
191.398	11.52
191.617	28.98
191.836	49.84
192.055	61.06
192.274	69.08
192.494	93.4
192.713	102.54
192.932	134.31
193.151	197.77
193.37	240.37
193.589	179.54
193.808	194.14
194.027	269.82
194.246	11042.86
194.465	-1092.35
194.685	-196.2
194.904	-503.98
195.123	-502.69
195.342	-101.82
195.561	356.49
195.78	247.35
195.999	236.6
196.218	139.52
196.436	128.84
196.655	121.17
196.874	89.28
197.093	72.79
197.312	68.54
197.531	58.07
197.75	75.83
197.969	99.03
198.188	125.27
198.407	458.82
198.625	488.32
198.844	189.37
199.063	196.81
199.282	133.4
199.501	206.77
199.719	103.56
199.938	100.83
200.157	91.37
200.376	75.44
200.594	64.58
200.813	53.25
201.032	61.8
201.251	57.42
201.469	58.89
201.688	60.51
201.907	68.96
202.125	85.9
202.344	85.93
202.563	70.42
202.781	60.6
203	71.55
203.218	66.25
203.437	73.15
203.656	75.12
203.874	76.83
204.093	66.14
204.311	51.81
204.53	54
204.748	65.2
204.967	108.1
205.185	116.1
205.404	82.42
205.622	95.83
205.841	75.42
206.059	90.38
206.278	73.2
206.496	100.75
206.715	73.03
206.933	73.21
207.151	66.81
207.37	73.33
207.588	75.83
207.806	76.2
208.025	75.8
208.243	85.65
208.461	101.85
208.68	115.97
208.898	97.72
209.116	127.45
209.335	109.65
209.553	133.06
209.771	127.99
209.989	131.92
210.208	202.24
210.426	718.14
210.644	1044.78
210.862	99.49
211.081	92.33
211.299	151.78
211.517	131.98
211.735	159.26
211.953	140.92
212.171	72.48
212.39	91.02
212.608	144.08
212.826	111.34
213.044	169.68
213.262	126.96
213.48	198.13
213.698	-1301.2
213.916	356.01
214.134	208.03
214.352	140.05
214.57	130.34
214.788	95
215.006	104.98
215.224	120.61
215.442	101.9
215.66	103.63
215.878	87.27
216.096	59.38
216.314	69.04
216.532	76.34
216.75	85.25
216.968	105.15
217.185	105.92
217.403	103.37
217.621	100.19
217.839	96.48
218.057	83.52
218.275	85.86
218.492	112.76
218.71	105.75
218.928	86.27
219.146	95.35
219.363	64.53
219.581	43.43
219.799	15.24
220.017	7.52
220.234	25.7
220.452	67.7
220.67	63.79
220.887	65.65
221.105	65.18
221.323	111.45
221.54	68.58
221.758	122.36
221.976	185.82
222.193	713.36
222.411	144.67
222.629	121.91
222.846	76.74
223.064	93.31
223.281	47.13
223.499	32.79
223.716	5.35
223.934	26.57
224.151	18.09
224.369	29.44
224.586	45.65
224.804	49.34
225.021	44.05
225.239	45.2
225.456	29
225.674	30.36
225.891	40.7
226.108	44.24
226.326	49.64
226.543	47.24
226.76	37.76
226.978	14.18
227.195	16.88
227.413	13.49
227.63	12.25
227.847	7.58
228.064	14.88
228.282	14.72
228.499	18.3
228.716	17.16
228.934	19.69
229.151	19.77
229.368	20.14
229.585	15.06
229.802	14.39
230.02	14.56
230.237	18.86
230.454	17.02
230.671	14.01
230.888	13.04
231.105	10.94
231.323	11.23
231.54	7.65
231.757	10.35
231.974	14.4
232.191	17.46
232.408	14.15
232.625	9.55
232.842	5.41
233.059	6.45
233.276	7.53
233.493	16.84
233.71	13.69
233.927	17.85
234.144	18.14
234.361	15.85
234.578	11.2
234.795	17.57
235.012	20.3
235.229	25.71
235.446	26.51
235.663	22.46
235.879	15.08
236.096	15.08
236.313	14.88
236.53	13.22
236.747	17.25
236.964	18.12
237.181	22.44
237.397	23.36
237.614	20.02
237.831	25.89
238.048	26.9
238.264	27.5
238.481	20.65
238.698	21.87
238.915	25.32
239.131	22.92
239.348	25.3
239.565	19.84
239.781	15.51
239.998	15.17
240.215	8.4
240.431	4.44
240.648	3.05
240.865	1.77
241.081	1.21
241.298	0.59
241.514	0.54
241.731	-1.27
241.947	-1.29
242.164	0.46
242.38	-0.14
242.597	1.27
242.814	2.28
243.03	3.53
243.246	7.68
243.463	6.87
243.679	6.66
243.896	5.77
244.112	6.35
244.329	7.6
244.545	7.83
244.762	8.08
244.978	5.74
245.194	7.23
245.411	6.88
245.627	6.87
245.843	5.75
246.06	4.75
246.276	5.94
246.492	4.47
246.709	4.32
246.925	4.9
247.141	5.17
247.357	6.37
247.574	5.39
247.79	4.22
248.006	3.06
248.222	4.34
248.439	3.84
248.655	2.97
248.871	3.43
249.087	2.5
249.303	2.12
249.519	2.56
249.736	-0.51
249.952	-0.6
250.168	-1.12
250.384	1.36
250.6	-0.14
250.816	2.49
251.032	3.6
251.248	2.87
251.464	6.79
251.68	4.96
251.896	5.34
252.112	7.68
252.328	8.1
252.544	9.42
252.76	7.54
252.976	8.36
253.192	7.12
253.408	6.06
253.624	5.48
253.84	1.63
254.056	2.31
254.272	2.41
254.487	5.72
254.703	8.34
254.919	9.66
255.135	7.73
255.351	6.68
255.567	8.05
255.782	9.31
255.998	11.19
256.214	10.84
256.43	10.05
256.646	6.34
256.861	1.72
257.077	-2.7
257.293	-4.46
257.508	-1.69
257.724	-1.46
257.94	-3.29
258.155	-1.77
258.371	-0.73
258.587	-1.02
258.802	-0.1
259.018	0.99
259.234	0.48
259.449	1.16
259.665	2.42
259.88	2.53
260.096	1.8
260.312	2.68
260.527	2.58
260.743	3.13
260.958	3.67
261.174	3.88
261.389	4.32
261.605	5.49
261.82	6.94
262.036	6.72
262.251	7.28
262.466	7.82
262.682	8.05
262.897	7.48
263.113	7.08
263.328	7.96
263.543	7.1
263.759	6.96
263.974	8.21
264.189	5.34
264.405	5.32
264.62	4.58
264.835	3.17
265.051	1.2
265.266	4.04
265.481	3.59
265.696	4.31
265.912	5.54
266.127	4.68
266.342	4.8
266.557	6.23
266.773	4.89
266.988	5.63
267.203	7.42
267.418	8.19
267.633	6.88
267.848	7.72
268.064	6.05
268.279	5.59
268.494	5
268.709	4.07
268.924	3.41
269.139	5.54
269.354	6.15
269.569	7.25
269.784	8.98
269.999	11.33
270.214	11.69
270.429	13.23
270.644	13.63
270.859	14.74
271.074	14.51
271.289	13.6
271.504	13.04
271.719	12.22
271.934	11.8
272.149	11.2
272.363	9.95
272.578	8.91
272.793	7.8
273.008	8.35
273.223	9.35
273.438	8.41
273.653	7.62
273.867	6.64
274.082	5.24
274.297	3.6
274.512	3.62
274.726	2.47
274.941	3.2
275.156	4.07
275.371	3.78
275.585	-0.01
275.8	-0.47
276.015	0.38
276.229	1.25
276.444	3.89
276.659	5.9
276.873	6.4
277.088	7.09
277.302	6.31
277.517	6.73
277.732	7.13
277.946	10.24
278.161	12.32
278.375	13.41
278.59	14.85
278.804	13.59
279.019	12.41
279.233	13.36
279.448	12.27
279.662	13.2
279.877	13.11
280.091	11.04
280.306	9.5
280.52	8.87
280.735	8.66
280.949	6.57
281.163	5.34
281.378	6.79
281.592	4.11
281.806	4.47
282.021	3.7
282.235	3.03
282.449	2.94
282.664	2.34
282.878	2.41
283.092	2.38
283.307	2.94
283.521	3.62
283.735	2.93
283.949	4.68
284.164	5.8
284.378	6.45
284.592	5.6
284.806	6.28
285.02	7.16
285.234	7.37
285.449	7.53
285.663	6.69
285.877	7.27
286.091	6.79
286.305	5.59
286.519	5.3
286.733	5.5
286.947	5.87
287.161	7.31
287.375	8.35
287.589	8.63
287.803	9.55
288.017	10.74
288.231	10.87
288.445	11.01
288.659	11.69
288.873	11.07
289.087	10.74
289.301	10.21
289.515	9.11
289.729	8.81
289.943	8.17
290.157	7.48
290.371	6.89
290.584	7.15
290.798	7.2
291.012	6.15
291.226	6.96
291.44	5.8
291.654	7.24
291.867	6.28
292.081	6.7
292.295	6.21
292.509	6.42
292.722	6.89
292.936	6.93
293.15	4.63
293.364	4.89
293.577	3.89
293.791	3.89
294.005	4.14
294.218	4.8
294.432	3.56
294.645	5.57
294.859	5.63
295.073	5.93
295.286	5.56
295.5	7.12
295.713	7.29
295.927	8.4
296.14	9.15
296.354	8.66
296.568	9.04
296.781	7.74
296.994	5.78
297.208	5.81
297.421	5.54
297.635	6.55
297.848	7.26
298.062	7.18
298.275	6.68
298.489	7.9
298.702	8.19
298.915	7.49
299.129	8.69
299.342	10.15
299.555	9.72
299.769	10.31
299.982	9.79
300.195	8.59
300.409	7.65
300.622	7.14
300.835	6.09
301.048	5.25
301.262	5.21
301.475	5.84
301.688	5.34
301.901	5.52
302.115	4.61
302.328	4.3
302.541	7.2
302.754	11.05
302.967	12.71
303.18	12.97
303.393	12.91
303.607	15.23
303.82	14.76
304.033	15.4
304.246	15.37
304.459	14.93
304.672	14.71
304.885	13.42
305.098	10.2
305.311	9.24
305.524	9.36
305.737	10.69
305.95	9.13
306.163	9.9
306.376	10.39
306.589	9.85
306.802	10.85
307.015	10.87
307.228	12.08
307.44	12.85
307.653	11.92
307.866	10.73
308.079	11.32
308.292	11.99
308.505	11.06
308.718	10.45
308.93	12.52
309.143	12.12
309.356	12.25
309.569	9.27
309.781	10.5
309.994	10.98
310.207	11.73
310.42	10.54
310.632	10.46
310.845	10.53
311.058	10
311.27	8.84
311.483	9.45
311.696	9.09
311.908	9.07
312.121	9.27
312.333	8.8
312.546	9.81
312.759	10.89
312.971	10.24
313.184	11.37
313.396	11.88
313.609	12.43
313.821	12.72
314.034	12.82
314.246	15.12
314.459	14.81
314.671	15.02
314.884	12.57
315.096	12.22
315.309	12.21
315.521	10.97
315.733	10.75
315.946	10.78
316.158	10.41
316.371	11.16
316.583	9.48
316.795	8.58
317.008	9.01
317.22	10.93
317.432	9.61
317.644	11.35
317.857	11.38
318.069	11.29
318.281	11.51
318.494	10.92
318.706	10.25
318.918	10.81
319.13	12.28
319.342	12.22
319.555	10.83
319.767	12.65
319.979	11.72
320.191	11.82
320.403	11.85
320.615	9.53
320.827	10.25
321.039	10.6
321.252	10.01
321.464	8.53
321.676	9.85
321.888	11.08
322.1	8.12
322.312	7.64
322.524	7.48
322.736	9.37
322.948	9.62
323.16	10.06
323.372	10.57
323.584	10.23
323.796	11.24
324.007	10.48
324.219	8.92
324.431	8.98
324.643	9.36
324.855	9.08
325.067	8.27
325.279	9.98
325.491	9.74
325.702	10.49
325.914	12.73
326.126	12.25
326.338	12.54
326.55	13.15
326.761	15.92
326.973	16.39
327.185	18.44
327.396	18.34
327.608	17.88
327.82	19.3
328.032	18.66
328.243	18.18
328.455	18.76
328.666	19.39
328.878	19.66
329.09	17.26
329.301	16.91
329.513	13.93
329.725	14.84
329.936	15.09
330.148	13.87
330.359	14.06
330.571	13.04
330.782	12.35
330.994	13.16
331.205	14.05
331.417	16.65
331.628	15.92
331.84	19.18
332.051	19.57
332.262	19.83
332.474	20.59
332.685	20.92
332.897	22.95
333.108	24.72
333.319	24.86
333.531	27.7
333.742	27.53
333.953	28.7
334.165	28.97
334.376	28.42
334.587	27.91
334.799	27.9
335.01	27.63
335.221	27.42
335.432	26.29
335.644	24.93
335.855	22.25
336.066	21.39
336.277	21.76
336.488	21.45
336.7	23
336.911	24.47
337.122	24.76
337.333	25.35
337.544	24.89
337.755	25.77
337.966	26.67
338.177	28.17
338.388	28.65
338.599	27.88
338.811	26.83
339.022	25.04
339.233	23.91
339.444	22.95
339.655	23.3
339.866	24.1
340.076	24.86
340.287	24.83
340.498	23.29
340.709	22.82
340.92	24.22
341.131	25.01
341.342	26.33
341.553	27.69
341.764	28.91
341.975	28.63
342.185	28.36
342.396	27.5
342.607	27.89
342.818	29.86
343.029	30.51
343.239	30.21
343.45	30.89
343.661	31.66
343.872	30.12
344.082	29.86
344.293	30.45
344.504	30.99
344.714	30.34
344.925	31.41
345.136	30.1
345.346	30.13
345.557	30.36
345.768	29.6
345.978	28.18
346.189	29.9
346.399	30.85
346.61	30.06
346.821	30.77
347.031	32.19
347.242	32.29
347.452	32.62
347.663	33.29
347.873	33.28
348.084	33.93
348.294	34.18
348.504	32.15
348.715	30.93
348.925	31.88
349.136	31.55
349.346	31.13
349.557	29.12
349.767	29.68
349.977	29.59
350.188	29.48
350.398	30.67
350.608	31.61
350.819	32.21
351.029	32.15
351.239	32.49
351.449	31.82
351.66	32.17
351.87	32.09
352.08	30.85
352.29	30.32
352.501	30.12
352.711	29.15
352.921	28.92
353.131	29.34
353.341	29.48
353.552	28.19
353.762	27.55
353.972	27.08
354.182	27.42
354.392	28.12
354.602	28.69
354.812	30.79
355.022	30.18
355.232	30.55
355.442	30.56
355.652	31.01
355.862	31.93
356.072	32.52
356.282	33.08
356.492	33.23
356.702	34.04
356.912	34.6
357.122	33.79
357.332	33.76
357.542	33.17
357.752	33.6
357.962	32.95
358.171	32.88
358.381	32.71
358.591	32.15
358.801	33.06
359.011	32.77
359.221	32.13
359.43	31.96
359.64	32.79
359.85	33.68
360.06	33.2
360.269	33.78
360.479	33.81
360.689	34.31
360.899	34.24
361.108	33.64
361.318	32.87
361.528	32.83
361.737	32.57
361.947	32
362.156	31.45
362.366	31.35
362.576	30.82
362.785	30.67
362.995	30.77
363.204	30.82
363.414	30.3
363.623	30.24
363.833	30.25
364.042	30.06
364.252	30.13
364.461	29.51
364.671	29.85
364.88	30.44
365.09	30.04
365.299	29.18
365.509	28.62
365.718	29.11
365.927	29.55
366.137	29.78
366.346	30.89
366.555	30.94
366.765	31.23
366.974	30.74
367.183	30.61
367.393	30.91
367.602	30.97
367.811	31.36
368.021	31.31
368.23	31.45
368.439	30.95
368.648	29.82
368.857	29.94
369.067	29.88
369.276	30.59
369.485	30.5
369.694	30.3
369.903	30.19
370.112	30.19
370.321	30.24
370.531	30.58
370.74	30.59
370.949	30.6
371.158	30.39
371.367	30.96
371.576	30.9
371.785	30.7
371.994	30.76
372.203	30.8
372.412	30.56
372.621	30.09
372.83	29.52
373.039	29.32
373.248	29.17
373.457	29.34
373.666	28.82
373.874	28.14
374.083	28.54
374.292	27.97
374.501	28.18
374.71	28.02
374.919	29.12
375.128	28.65
375.336	28.65
375.545	28.74
375.754	28.62
375.963	28.4
376.171	28.76
376.38	28.3
376.589	28.48
376.798	28.4
377.006	27.9
377.215	27.37
377.424	27.55
377.632	27.75
377.841	28.16
378.05	28.2
378.258	28.75
378.467	28.53
378.675	28.33
378.884	28.41
379.093	28.1
379.301	28.97
379.51	28.87
379.718	29.06
379.927	28.55
380.135	27.63
380.344	27.13
380.552	25.86
380.761	25.85
380.969	26.38
381.177	26.26
381.386	26.24
381.594	26.14
381.803	26.36
382.011	25.74
382.219	26.08
382.428	26.48
382.636	26.81
382.845	27.29
383.053	27.49
383.261	26.66
383.469	26.69
383.678	27.28
383.886	27.53
384.094	27.57
384.302	27.9
384.511	28.02
384.719	27.87
384.927	27.52
385.135	27.53
385.343	27.41
385.552	27.98
385.76	28
385.968	27.38
386.176	27
386.384	27.01
386.592	27.32
386.8	26.77
387.008	26.67
387.216	26.5
387.424	26.87
387.633	26.77
387.841	26.49
388.049	26.94
388.257	27.3
388.465	27.32
388.672	27.18
388.88	27.08
389.088	27.68
389.296	27.64
389.504	27.97
389.712	27.88
389.92	28
390.128	28.16
390.336	28.04
390.544	28.23
390.751	27.76
390.959	27.64
391.167	27.46
391.375	26.98
391.583	27.37
391.79	27.64
391.998	27.63
392.206	27.8
392.414	28.15
392.621	27.91
392.829	27.57
393.037	28.02
393.244	27.9
393.452	28.21
393.66	28.8
393.867	28.69
394.075	28.82
394.283	28.71
394.49	28.57
394.698	28.23
394.905	28.23
395.113	28.32
395.32	28.15
395.528	28.36
395.735	28.27
395.943	28.02
396.15	27.89
396.358	27.61
396.565	27.82
396.773	27.82
396.98	27.99
397.188	28.07
397.395	28.4
397.602	28.93
397.81	28.89
398.017	28.97
398.225	29
398.432	28.97
398.639	29.08
398.847	28.75
399.054	28.94
399.261	28.88
399.468	29.1
399.676	28.72
399.883	28.49
400.09	28.68
400.297	28.53
400.505	28.59
400.712	28.82
400.919	28.8
401.126	29.69
401.333	29.6
401.54	29.63
401.748	29.6
401.955	29.91
402.162	29.85
402.369	29.87
402.576	30.37
402.783	30.58
402.99	30.36
403.197	30.39
403.404	29.99
403.611	30.24
403.818	30.18
404.025	30.3
404.232	30.64
404.439	30.62
404.646	30.71
404.853	30.4
405.06	30.5
405.267	30.77
405.474	30.98
405.681	30.98
405.887	30.87
406.094	31.06
406.301	31.2
406.508	31.14
406.715	31.39
406.922	31.44
407.128	31.59
407.335	31.44
407.542	31.58
407.749	31.58
407.955	31.53
408.162	31.43
408.369	31.4
408.575	31.15
408.782	31.02
408.989	30.99
409.195	30.8
409.402	30.73
409.609	30.68
409.815	30.27
410.022	30.06
410.228	30.17
410.435	30.23
410.642	30.31
410.848	30.33
411.055	30.13
411.261	30.26
411.468	30.16
411.674	30.11
411.881	30.1
412.087	30.13
412.294	30.06
412.5	30.07
412.706	30.15
412.913	30.59
413.119	30.37
413.326	30.53
413.532	30.37
413.738	30.16
413.945	30.11
414.151	30.51
414.357	30.73
414.564	30.89
414.77	31.01
414.976	31.09
415.182	30.55
415.389	30.53
415.595	30.39
415.801	30.05
416.007	30.19
416.214	30.29
416.42	29.91
416.626	29.76
416.832	29.51
417.038	29.2
417.244	28.93
417.45	29.17
417.657	29.34
417.863	29.36
418.069	29.67
418.275	29.76
418.481	29.64
418.687	29.57
418.893	29.42
419.099	29.67
419.305	29.59
419.511	29.64
419.717	29.64
419.923	29.63
420.129	29.64
420.335	29.69
420.541	29.63
420.746	29.67
420.952	29.62
421.158	29.57
421.364	29.53
421.57	29.62
421.776	29.58
421.982	29.39
422.187	29.18
422.393	28.98
422.599	28.82
422.805	28.73
423.01	28.69
423.216	28.81
423.422	28.96
423.628	28.85
423.833	28.87
424.039	28.87
424.245	28.88
424.45	28.94
424.656	29.09
424.862	28.99
425.067	29.04
425.273	28.94
425.478	28.82
425.684	28.76
425.889	28.75
426.095	28.66
426.301	28.74
426.506	28.68
426.712	28.66
426.917	28.59
427.123	28.76
427.328	28.82
427.533	29
427.739	28.86
427.944	28.91
428.15	29
428.355	28.93
428.561	28.81
428.766	28.72
428.971	28.79
429.177	28.84
429.382	28.68
429.587	28.69
429.793	28.61
429.998	28.83
430.203	28.8
430.408	28.83
430.614	28.9
430.819	29.02
431.024	28.93
431.229	28.98
431.434	29.04
431.64	28.94
431.845	28.94
432.05	28.87
432.255	28.91
432.46	28.88
432.665	28.76
432.87	28.89
433.076	28.92
433.281	29.08
433.486	28.97
433.691	28.94
433.896	29.18
434.101	29.3
434.306	29.45
434.511	29.42
434.716	29.29
434.921	29.27
435.126	29.14
435.331	29.01
435.535	29.03
435.74	29.14
435.945	28.96
436.15	28.75
436.355	28.58
436.56	28.46
436.765	28.38
436.97	28.67
437.174	28.65
437.379	28.71
437.584	28.78
437.789	28.65
437.993	28.63
438.198	28.67
438.403	28.64
438.608	28.68
438.812	28.75
439.017	28.66
439.222	28.63
439.426	28.58
439.631	28.55
439.836	28.53
440.04	28.57
440.245	28.58
440.45	28.72
440.654	28.79
440.859	28.69
441.063	28.63
441.268	28.78
441.472	28.71
441.677	28.86
441.881	28.97
442.086	28.88
442.29	28.87
442.495	28.77
442.699	28.65
442.904	28.69
443.108	28.87
443.312	28.74
443.517	28.66
443.721	28.64
443.925	28.46
444.13	28.35
444.334	28.37
444.538	28.36
444.743	28.39
444.947	28.43
445.151	28.41
445.356	28.23
445.56	28.37
445.764	28.54
445.968	28.58
446.173	28.65
446.377	28.57
446.581	28.52
446.785	28.49
446.989	28.45
447.193	28.41
447.398	28.46
447.602	28.62
447.806	28.58
448.01	28.52
448.214	28.48
448.418	28.57
448.622	28.65
448.826	28.64
449.03	28.59
449.234	28.7
449.438	28.83
449.642	28.65
449.846	28.38
450.05	28.27
450.254	28.12
450.458	28.05
450.662	27.79
450.866	27.63
451.069	27.7
451.273	27.78
451.477	27.46
451.681	27.28
451.885	27.13
452.089	27.22
452.292	27.37
452.496	27.32
452.7	27.44
452.904	27.37
453.107	27.65
453.311	27.42
453.515	27.26
453.719	27.39
453.922	27.42
454.126	27.52
454.33	27.45
454.533	27.23
454.737	27.14
454.94	27.03
455.144	26.99
455.348	26.88
455.551	27.27
455.755	27.41
455.958	27.57
456.162	27.82
456.365	27.86
456.569	28.06
456.772	28.11
456.976	28.16
457.179	28.1
457.383	28.22
457.586	28.23
457.79	28.12
457.993	28.33
458.196	28.19
458.4	27.99
458.603	28.21
458.807	28.03
459.01	28.04
459.213	28.02
459.417	28.07
459.62	28.13
459.823	28.08
460.026	28
460.23	27.91
460.433	27.87
460.636	27.81
460.839	27.69
461.042	27.74
461.246	27.74
461.449	27.9
461.652	27.92
461.855	27.95
462.058	28.13
462.261	28.36
462.464	28.48
462.668	28.6
462.871	28.66
463.074	28.65
463.277	28.71
463.48	28.76
463.683	28.72
463.886	28.78
464.089	28.84
464.292	28.67
464.495	28.59
464.698	28.56
464.901	28.75
465.104	28.95
465.306	29.07
465.509	29.18
465.712	29.25
465.915	29.16
466.118	29.09
466.321	29.07
466.524	29
466.726	28.95
466.929	29.04
467.132	28.99
467.335	28.79
467.538	28.68
467.74	28.71
467.943	28.83
468.146	28.8
468.348	28.82
468.551	28.74
468.754	28.87
468.956	28.9
469.159	28.93
469.362	28.95
469.564	29.08
469.767	29.27
469.969	29.3
470.172	29.23
470.375	29.34
470.577	29.27
470.78	29.38
470.982	29.43
471.185	29.39
471.387	29.13
471.59	29.06
471.792	29.06
471.995	28.88
472.197	28.91
472.399	28.82
472.602	28.77
472.804	28.81
473.007	28.59
473.209	28.46
473.411	28.5
473.614	28.65
473.816	28.72
474.018	28.82
474.22	28.99
474.423	29.14
474.625	29.27
474.827	29.55
475.03	29.7
475.232	29.8
475.434	29.75
475.636	29.8
475.838	29.74
476.04	29.75
476.243	29.68
476.445	29.71
476.647	29.25
476.849	29.19
477.051	28.89
477.253	28.78
477.455	28.89
477.657	28.91
477.859	28.83
478.061	28.78
478.263	28.63
478.465	28.66
478.667	28.53
478.869	28.82
479.071	28.85
479.273	28.96
479.475	28.96
479.677	29.01
479.879	29.1
480.081	29.11
480.283	29.15
480.485	29.27
480.686	29.18
480.888	29.22
481.09	29.01
481.292	28.93
481.494	28.96
481.695	28.88
481.897	28.69
482.099	28.64
482.301	28.74
482.502	28.75
482.704	28.7
482.906	28.75
483.107	28.75
483.309	28.72
483.511	28.72
483.712	28.72
483.914	28.71
484.115	28.81
484.317	28.81
484.519	28.7
484.72	28.77
484.922	28.82
485.123	28.72
485.325	28.71
485.526	28.73
485.728	28.79
485.929	28.78
486.131	28.86
486.332	28.79
486.534	28.81
486.735	28.84
486.936	28.79
487.138	28.74
487.339	28.82
487.541	28.77
487.742	28.8
487.943	28.76
488.144	28.7
488.346	28.7
488.547	28.79
488.748	28.83
488.95	28.88
489.151	28.75
489.352	28.76
489.553	28.75
489.755	28.82
489.956	28.78
490.157	28.75
490.358	28.89
490.559	28.89
490.76	28.77
490.961	28.72
491.163	28.69
491.364	28.79
491.565	28.79
491.766	28.78
491.967	28.76
492.168	28.87
492.369	28.91
492.57	28.88
492.771	28.88
492.972	28.89
493.173	28.84
493.374	28.98
493.575	28.95
493.776	29.09
493.976	29.09
494.177	29.19
494.378	29.13
494.579	29.13
494.78	29
494.981	29.17
495.182	29.24
495.382	29.16
495.583	29.01
495.784	29.23
495.985	29.25
496.185	29.55
496.386	29.38
496.587	29.42
496.788	29.38
496.988	29.46
497.189	29.27
497.39	29.19
497.59	29.33
497.791	29.45
497.992	29.3
498.192	29.27
498.393	29.07
498.593	29.19
498.794	29.18
498.994	29.24
499.195	29.23
499.395	29.33
499.596	29.48
499.796	29.57
499.997	29.55
500.197	29.65
500.398	29.61
500.598	29.44
500.799	29.51
500.999	29.66
501.199	29.7
501.4	29.82
501.6	29.74
501.801	29.72
502.001	29.63
502.201	29.51
502.402	29.51
502.602	29.61
502.802	29.88
503.002	29.86
503.203	29.76
503.403	29.84
503.603	29.84
503.803	30.05
504.003	29.98
504.204	30.08
504.404	30.2
504.604	30.1
504.804	30.01
505.004	30.01
505.204	30.06
505.404	30.04
505.604	30
505.804	29.89
506.005	29.8
506.205	30
506.405	29.95
506.605	29.91
506.805	29.93
507.005	29.86
507.204	29.77
507.404	29.72
507.604	29.71
507.804	29.73
508.004	29.74
508.204	29.86
508.404	29.67
508.604	29.67
508.804	29.66
509.003	29.81
509.203	29.99
509.403	30.11
509.603	30.2
509.803	30.33
510.002	30.32
510.202	30.4
510.402	30.47
510.602	30.66
510.801	30.71
511.001	30.86
511.201	30.76
511.4	30.76
511.6	30.85
511.8	30.84
511.999	31
512.199	30.99
512.398	31.02
512.598	30.92
512.797	30.95
512.997	31.15
513.197	31.19
513.396	31.36
513.596	31.34
513.795	31.27
513.994	31.29
514.194	31.12
514.393	31.12
514.593	31.27
514.792	31.3
514.992	31.22
515.191	31.2
515.39	31.04
515.59	31.1
515.789	31.21
515.988	31.26
516.188	31.24
516.387	31.16
516.586	31.36
516.786	31.47
516.985	31.58
517.184	31.59
517.383	31.57
517.582	31.71
517.782	31.82
517.981	31.85
518.18	31.9
518.379	32.03
518.578	32.21
518.777	32.18
518.976	32.08
519.176	31.99
519.375	32.14
519.574	32.13
519.773	32.1
519.972	32.02
520.171	31.98
520.37	32
520.569	31.97
520.768	32.04
520.967	32.08
521.166	32.1
521.365	32.24
521.564	32.09
521.762	32.12
521.961	32.23
522.16	32.27
522.359	32.38
522.558	32.28
522.757	32.45
522.956	32.47
523.154	32.54
523.353	32.58
523.552	32.6
523.751	32.73
523.949	32.83
524.148	32.89
524.347	33
524.546	33.04
524.744	33.13
524.943	33.01
525.142	33.01
525.34	33.11
525.539	33.17
525.737	33.15
525.936	33.34
526.135	33.33
526.333	33.32
526.532	33.21
526.73	33.23
526.929	33.31
527.127	33.46
527.326	33.43
527.524	33.38
527.723	33.45
527.921	33.53
528.12	33.41
528.318	33.5
528.516	33.51
528.715	33.53
528.913	33.56
529.112	33.54
529.31	33.49
529.508	33.55
529.707	33.6
529.905	33.62
530.103	33.59
530.301	33.66
530.5	33.67
530.698	33.74
530.896	33.82
531.094	33.81
531.293	33.79
531.491	33.77
531.689	33.67
531.887	33.71
532.085	33.62
532.283	33.67
532.481	33.68
532.68	33.62
532.878	33.63
533.076	33.66
533.274	33.75
533.472	33.88
533.67	33.95
533.868	34.01
534.066	33.94
534.264	34.05
534.462	34.13
534.66	34.18
534.858	34.22
535.056	34.32
535.253	34.34
535.451	34.32
535.649	34.38
535.847	34.46
536.045	34.49
536.243	34.51
536.441	34.48
536.638	34.42
536.836	34.43
537.034	34.44
537.232	34.43
537.43	34.59
537.627	34.64
537.825	34.6
538.023	34.65
538.22	34.82
538.418	34.94
538.616	34.99
538.813	35.17
539.011	35.23
539.209	35.26
539.406	35.14
539.604	35.07
539.801	35
539.999	35.04
540.196	34.91
540.394	34.88
540.591	34.85
540.789	34.92
540.986	34.82
541.184	34.82
541.381	34.83
541.579	34.98
541.776	35.02
541.974	34.99
542.171	35.01
542.368	35.08
542.566	35.14
542.763	35.25
542.96	35.2
543.158	35.36
543.355	35.47
543.552	35.59
543.75	35.57
543.947	35.48
544.144	35.62
544.341	35.62
544.539	35.73
544.736	35.8
544.933	35.92
545.13	36.09
545.327	35.99
545.524	36
545.722	36.07
545.919	36.14
546.116	36.17
546.313	36.29
546.51	36.3
546.707	36.24
546.904	36.11
547.101	35.92
547.298	35.78
547.495	35.77
547.692	35.83
547.889	35.67
548.086	35.7
548.283	35.65
548.48	35.56
548.677	35.64
548.874	35.58
549.07	35.58
549.267	35.59
549.464	35.56
549.661	35.63
549.858	35.47
550.055	35.46
550.251	35.18
550.448	35.36
550.645	35.34
550.842	35.29
551.038	35.49
551.235	35.66
551.432	35.73
551.628	35.88
551.825	35.85
552.022	35.89
552.218	35.92
552.415	36.01
552.612	36
552.808	35.93
553.005	35.91
553.201	35.81
553.398	35.75
553.594	35.69
553.791	35.66
553.987	35.63
554.184	35.54
554.38	35.67
554.577	35.68
554.773	35.61
554.97	35.35
555.166	35.48
555.362	35.28
555.559	35.12
555.755	35.14
555.952	35.03
556.148	35.15
556.344	35.23
556.541	35.02
556.737	34.91
556.933	34.97
557.129	35.37
557.326	35.31
557.522	35.49
557.718	35.46
557.914	35.41
558.11	35.43
558.307	35.29
558.503	35.25
558.699	35.39
558.895	35.54
559.091	35.55
559.287	35.47
559.483	35.4
559.679	35.46
559.876	35.55
560.072	35.49
560.268	35.6
560.464	35.74
560.66	35.82
560.856	35.83
561.052	35.74
561.247	35.76
561.443	35.77
561.639	35.77
561.835	35.82
562.031	35.98
562.227	36.09
562.423	36.24
562.619	36.18
562.815	36.31
563.01	36.27
563.206	36.09
563.402	35.98
563.598	36.06
563.793	36.17
563.989	35.94
564.185	35.84
564.381	35.85
564.576	35.41
564.772	35.45
564.968	35.26
565.163	35.18
565.359	35.43
565.555	35.76
565.75	35.77
565.946	35.61
566.141	35.67
566.337	35.71
566.532	35.61
566.728	35.8
566.923	35.7
567.119	35.78
567.314	35.87
567.51	35.9
567.705	35.76
567.901	35.57
568.096	35.53
568.292	35.58
568.487	35.43
568.682	35.66
568.878	35.56
569.073	35.55
569.268	35.58
569.464	35.62
569.659	35.65
569.854	35.53
570.05	35.73
570.245	35.86
570.44	35.91
570.635	35.99
570.831	35.79
571.026	35.69
571.221	35.69
571.416	35.54
571.611	35.35
571.806	35.3
572.002	35.26
572.197	35.34
572.392	35.3
572.587	35.38
572.782	35.41
572.977	35.43
573.172	35.76
573.367	35.68
573.562	35.78
573.757	35.94
573.952	36
574.147	36.1
574.342	35.83
574.537	35.8
574.732	35.61
574.927	35.75
575.121	35.82
575.316	35.9
575.511	35.99
575.706	35.85
575.901	35.94
576.096	35.91
576.29	35.93
576.485	35.96
576.68	36.16
576.875	36.23
577.069	36.1
577.264	36.16
577.459	35.97
577.654	36.08
577.848	36.27
578.043	36.16
578.238	36.37
578.432	36.46
578.627	36.67
578.821	36.47
579.016	36.28
579.21	36.38
579.405	36.2
579.6	36.29
579.794	36.12
579.989	36.09
580.183	36.29
580.378	36
580.572	35.89
580.766	35.46
580.961	35.6
581.155	35.61
581.35	35.58
581.544	35.89
581.738	35.81
581.933	35.93
582.127	36.06
582.321	35.77
582.516	35.79
582.71	35.82
582.904	36.13
583.099	36.35
583.293	36.81
583.487	36.84
583.681	36.36
583.875	36.16
584.07	36.07
584.264	36.07
584.458	36.49
584.652	36.54
584.846	36.38
585.04	36.31
585.234	36.2
585.428	36.02
585.623	35.81
585.817	36.2
586.011	36.37
586.205	36.47
586.399	36.26
586.593	35.99
586.787	36
586.981	36.31
587.174	36.58
587.368	36.42
587.562	36.39
587.756	36.47
587.95	36.33
588.144	36.5
588.338	36.59
588.532	36.61
588.725	36.55
588.919	36.47
589.113	36.19
589.307	35.99
589.501	36.26
589.694	36.14
589.888	36.05
590.082	36.11
590.275	36.1
590.469	36.04
590.663	36.12
590.856	36.35
591.05	36.27
591.244	36.37
591.437	36.36
591.631	36.19
591.824	36.58
592.018	36.86
592.212	36.81
592.405	36.94
592.599	36.87
592.792	36.84
592.986	36.39
593.179	36.52
593.372	36.63
593.566	36.73
593.759	36.56
593.953	36.4
594.146	36.21
594.339	36.41
594.533	36.25
594.726	36.43
594.92	36.42
595.113	36.65
595.306	36.59
595.499	36.78
595.693	36.72
595.886	36.86
596.079	36.77
596.272	36.9
596.466	36.83
596.659	36.65
596.852	36.67
597.045	36.68
597.238	36.79
597.431	36.93
597.624	36.69
597.818	36.86
598.011	36.98
598.204	36.82
598.397	36.58
598.59	36.61
598.783	36.87
598.976	36.64
599.169	36.5
599.362	36.36
599.555	36.17
599.748	36.18
599.941	35.85
600.134	35.75
600.326	36.05
600.519	36.32
600.712	36.21
600.905	36.1
601.098	36.11
601.291	36.56
601.483	36.62
601.676	36.68
601.869	36.66
602.062	36.91
602.255	36.85
602.447	36.83
602.64	36.81
602.833	36.89
603.025	36.98
603.218	37.11
603.411	36.89
603.603	36.96
603.796	36.9
603.989	36.97
604.181	37.01
604.374	37.08
604.566	37.18
604.759	37.28
604.951	37.19
605.144	37.06
605.336	37.21
605.529	37.05
605.721	36.92
605.914	36.96
606.106	37.15
606.299	37.39
606.491	37.08
606.683	37.07
606.876	36.98
607.068	37.01
607.26	37.14
607.453	36.94
607.645	37.08
607.837	37.57
608.03	37.67
608.222	37.5
608.414	36.99
608.606	37.13
608.799	36.99
608.991	37.03
609.183	37.28
609.375	37.39
609.567	37.42
609.759	37.75
609.952	37.75
610.144	37.91
610.336	38.22
610.528	38.58
610.72	38.97
610.912	39.32
611.104	39.39
611.296	39.43
611.488	39.41
611.68	39.93
611.872	39.88
612.064	39.86
612.256	39.88
612.448	40.03
612.64	39.92
612.832	39.75
613.023	39.42
613.215	39.4
613.407	39.32
613.599	39.35
613.791	38.82
613.983	38.51
614.174	38.41
614.366	38.09
614.558	37.5
614.75	37.5
614.941	37.63
615.133	37.79
615.325	37.55
615.516	37.71
615.708	37.62
615.9	37.65
616.091	37.83
616.283	37.42
616.475	37.63
616.666	37.75
616.858	37.93
617.049	37.64
617.241	37.31
617.432	37.49
617.624	37.16
617.815	37.19
618.007	37.2
618.198	37.03
618.39	37.06
618.581	36.9
618.773	36.49
618.964	36.14
619.155	36.62
619.347	36.92
619.538	37.05
619.729	37.1
619.921	36.92
620.112	37.01
620.303	37.18
620.494	37.43
620.686	37.49
620.877	37.64
621.068	37.85
621.259	37.54
621.451	37.3
621.642	37.08
621.833	36.75
622.024	36.98
622.215	36.84
622.406	36.81
622.597	36.7
622.788	36.87
622.98	36.8
623.171	36.56
623.362	36.43
623.553	36.78
623.744	36.69
623.935	36.86
624.126	37.2
624.317	37.14
624.508	37.18
624.698	37.03
624.889	36.64
625.08	37.08
625.271	36.96
625.462	36.85
625.653	36.82
625.844	36.85
626.034	36.88
626.225	36.23
626.416	36.14
626.607	36.16
626.798	36.12
626.988	36.22
627.179	36.36
627.37	36.54
627.56	36.59
627.751	36.37
627.942	36.79
628.132	37.25
628.323	37.58
628.514	37.7
628.704	37.53
628.895	37.91
629.085	38.02
629.276	37.6
629.466	37.87
629.657	38.17
629.847	38.33
630.038	37.95
630.228	37.69
630.419	37.7
630.609	37.87
630.8	37.92
630.99	37.72
631.181	37.78
631.371	37.9
631.561	37.63
631.752	37.27
631.942	37.2
632.132	36.9
632.323	36.86
632.513	36.74
632.703	36.22
632.893	36.38
633.084	36.35
633.274	36.53
633.464	36.38
633.654	36.42
633.844	36.6
634.034	36.67
634.225	36.92
634.415	36.75
634.605	36.81
634.795	37.22
634.985	37.01
635.175	36.98
635.365	37.01
635.555	37.06
635.745	37.16
635.935	37.01
636.125	36.65
636.315	36.56
636.505	36.71
636.695	36.72
636.885	36.62
637.075	36.79
637.265	37.06
637.455	37.13
637.644	37.12
637.834	36.66
638.024	36.49
638.214	36.85
638.404	36.84
638.593	36.63
638.783	36.45
638.973	36.45
639.163	36.57
639.352	36.11
639.542	35.73
639.732	35.95
639.921	36.43
640.111	36.74
640.301	36.57
640.49	36.96
640.68	36.88
640.87	37.31
641.059	37.6
641.249	37.76
641.438	38.02
641.628	38.02
641.817	37.48
642.007	37.53
642.196	37.45
642.386	37.58
642.575	37.34
642.764	37.72
642.954	37.76
643.143	37.5
643.333	37.32
643.522	37.15
643.711	36.96
643.901	37.31
644.09	37.46
644.279	37.34
644.469	37.47
644.658	37.66
644.847	37.6
645.036	37.21
645.226	37.17
645.415	37.13
645.604	37.14
645.793	37.42
645.982	37.56
646.171	37.11
646.361	37.23
646.55	37.18
646.739	36.99
646.928	36.9
647.117	36.86
647.306	36.79
647.495	36.59
647.684	36.61
647.873	36.46
648.062	36.26
648.251	36.56
648.44	36.7
648.629	36.79
648.818	37.09
649.007	36.64
649.196	36.89
649.384	36.88
649.573	37.42
649.762	37.77
649.951	37.68
650.14	37.92
650.328	37.7
650.517	37.43
650.706	37.6
650.895	37.36
651.083	37.7
651.272	37.53
651.461	37.94
651.65	37.5
651.838	37.01
652.027	37.23
652.216	37.49
652.404	37.81
652.593	37.99
652.781	37.64
652.97	37.49
653.158	37.63
653.347	37.38
653.535	37.39
653.724	37.51
653.912	37.64
654.101	37.81
654.289	37.46
654.478	37.15
654.666	37.13
654.855	36.94
655.043	37.01
655.231	36.88
655.42	37.32
655.608	36.72
655.796	36.78
655.985	37.29
656.173	37
656.361	36.81
656.55	36.74
656.738	36.58
656.926	36.78
657.114	36.82
657.302	36.61
657.491	36.48
657.679	36.65
657.867	36.73
658.055	36.16
658.243	36.61
658.431	36.72
658.619	36.57
658.807	36.67
658.996	36.58
659.184	36.81
659.372	36.93
659.56	37.1
659.748	37.18
659.936	36.74
660.124	37.36
660.311	36.97
660.499	36.82
660.687	37.14
660.875	36.89
661.063	37.45
661.251	37.47
661.439	37.69
661.627	37.95
661.814	37.82
662.002	38.12
662.19	37.48
662.378	37.83
662.565	37.85
662.753	37.78
662.941	37.97
663.129	37.51
663.316	37.11
663.504	36.67
663.692	36.3
663.879	36.41
664.067	36.72
664.254	37.02
664.442	36.7
664.63	36.79
664.817	36.83
665.005	37.03
665.192	36.99
665.38	37.23
665.567	37.64
665.755	37.91
665.942	38.01
666.13	37.88
666.317	38.1
666.504	38.17
666.692	38.27
666.879	38.23
667.067	38.58
667.254	38.27
667.441	38.37
667.629	38.08
667.816	38.2
668.003	38.29
668.19	37.91
668.378	37.81
668.565	37.67
668.752	38.12
668.939	38.35
669.127	38.02
669.314	38.28
669.501	38.1
669.688	38.41
669.875	38.42
670.062	38.13
670.249	38.35
670.436	38.27
670.623	38.67
670.81	38.16
670.997	38
671.184	37.94
671.371	38.42
671.558	37.9
671.745	38
671.932	37.47
672.119	37.59
672.306	38.1
672.493	38.26
672.68	37.89
672.867	37.47
673.054	37.35
673.24	37.64
673.427	37.05
673.614	37.54
673.801	37.68
673.988	37.89
674.174	38.05
674.361	37.51
674.548	37.78
674.734	37.71
674.921	38.16
675.108	37.92
675.294	37.47
675.481	37.37
675.668	37.32
675.854	37.1
676.041	36.98
676.227	36.68
676.414	35.97
676.601	35.57
676.787	35.65
676.974	35.62
677.16	35.47
677.347	35.6
677.533	35.83
677.719	35.65
677.906	35.56
678.092	35.78
678.279	35.96
678.465	36.57
678.651	36.52
678.838	36.57
679.024	36.14
679.21	36.42
679.397	36.42
679.583	36.29
679.769	35.94
679.955	35.97
680.142	35.9
680.328	35.65
680.514	35.61
680.7	35.29
680.886	35.03
681.073	35.53
681.259	35.42
681.445	35.7
681.631	35.68
681.817	36.01
682.003	36.3
682.189	36.32
682.375	36.5
682.561	36.55
682.747	36.86
682.933	37.02
683.119	36.84
683.305	36.95
683.491	36.88
683.677	37.14
683.863	37.47
684.049	37.76
684.235	37.17
684.42	37.1
684.606	37.1
684.792	36.83
684.978	36.93
685.164	37.05
685.349	36.35
685.535	36.11
685.721	35.86
685.907	35.74
686.092	34.96
686.278	35.4
686.464	35.48
686.649	35.33
686.835	35.94
687.021	35.72
687.206	35.63
687.392	36.8
687.577	36.38
687.763	36.54
687.948	36.72
688.134	36.74
688.319	37.2
688.505	37.37
688.69	37.76
688.876	37.26
689.061	37.95
689.247	38.03
689.432	37.71
689.618	38.3
689.803	38.92
689.988	38.59
690.174	38.95
690.359	37.85
690.544	37.68
690.73	37.32
690.915	37.78
691.1	37.31
691.285	37.44
691.471	37.43
691.656	36.99
691.841	36.25
692.026	36.5
692.211	35.58
692.396	36.41
692.582	36.16
692.767	36.42
692.952	35.88
693.137	35.85
693.322	35.48
693.507	35.65
693.692	36.13
693.877	35.91
694.062	36.07
694.247	36.81
694.432	36.65
694.617	37.06
694.802	36.87
694.987	37.09
695.172	36.97
695.357	37.06
695.541	36.89
695.726	36.63
695.911	36.94
696.096	36.69
696.281	36.41
696.466	36.69
696.65	37.08
696.835	37.27
697.02	36.94
697.204	37.65
697.389	37.91
697.574	37.55
697.759	37.78
697.943	37.89
698.128	37.9
698.312	37.66
698.497	37.22
698.682	36.87
698.866	36.8
699.051	36.91
699.235	36.19
699.42	36.14
699.604	35.87
699.789	35.72
699.973	35.58
700.158	35.69
700.342	35.74
700.527	35.75
700.711	35.53
700.895	35.58
701.08	35.39
701.264	35.39
701.448	35.56
701.633	36.41
701.817	36.23
702.001	36.63
702.186	36.24
702.37	36.25
702.554	36.82
702.738	37.46
702.923	37.26
703.107	38.13
703.291	39.06
703.475	39.13
703.659	38.55
703.843	38.83
704.027	38.16
704.212	38.75
704.396	39.59
704.58	39.19
704.764	38.8
704.948	38.34
705.132	37.91
705.316	37.14
705.5	36.71
705.684	36.67
705.868	36.11
706.052	35.64
706.235	35.58
706.419	35.2
706.603	35.49
706.787	35.32
706.971	36.58
707.155	36.28
707.339	36.33
707.522	36.04
707.706	36.36
707.89	36.96
708.074	38.03
708.257	37.31
708.441	37.4
708.625	37.87
708.808	38.21
708.992	37.76
709.176	38.39
709.359	38.75
709.543	39
709.727	39.13
709.91	38.72
710.094	38.21
710.277	38.41
710.461	38.33
710.644	38.11
710.828	38.08
711.011	38.04
711.195	37.65
711.378	37.83
711.562	38.82
711.745	38.41
711.928	38.52
712.112	38.44
712.295	38.3
712.478	37.81
712.662	37.59
712.845	37.49
713.028	36.89
713.212	37.28
713.395	37.32
713.578	36.12
713.761	36.24
713.945	36.37
714.128	37.01
714.311	37.45
714.494	37.46
714.677	37.68
714.86	38.09
715.043	38.11
715.227	37.4
715.41	37.03
715.593	37.56
715.776	37.31
715.959	37.11
716.142	36.9
716.325	37.04
716.508	36.91
716.691	36.39
716.874	35.73
717.057	35.84
717.239	36.06
717.422	35.97
717.605	36.7
717.788	37.22
717.971	37.97
718.154	38.31
718.337	38.27
718.519	38.89
718.702	39.25
718.885	39.61
719.068	39.31
719.25	39.44
719.433	39.52
719.616	38.25
719.798	38.66
719.981	38.65
720.164	37.29
720.346	36.97
720.529	37.95
720.712	37.8
720.894	36.42
721.077	37.41
721.259	37.86
721.442	37.19
721.624	36.46
721.807	35.91
721.989	35.08
722.172	36.11
722.354	35.79
722.537	34.38
722.719	33.72
722.901	35.6
723.084	35.12
723.266	34.99
723.448	35.79
723.631	36.08
723.813	36.77
723.995	37.19
724.178	36.66
724.36	37.24
724.542	36.63
724.724	37.19
724.907	36.76
725.089	37.15
725.271	37.32
725.453	37.79
725.635	38.72
725.817	38.32
725.999	37.72
726.181	37.79
726.364	38.01
726.546	39.42
726.728	38.87
726.91	38.91
727.092	39.26
727.274	38.65
727.456	37.99
727.638	37.8
727.819	37.07
728.001	37.08
728.183	37.33
728.365	37.47
728.547	36.79
728.729	36.75
728.911	36.72
729.093	36.45
729.274	36.89
729.456	36.93
729.638	37.56
729.82	38.99
730.001	39.76
730.183	39.7
730.365	40.02
730.546	39.44
730.728	40.05
730.91	39.24
731.091	39.28
731.273	38.64
731.455	38.97
731.636	38.05
731.818	36.68
731.999	36.31
732.181	35.7
732.362	34.85
732.544	35.63
732.725	35.58
732.907	37.25
733.088	37.34
733.27	38.26
733.451	38.4
733.633	38.67
733.814	38.47
733.995	38.51
734.177	38.4
734.358	38.57
734.539	38.89
734.721	39.73
734.902	38.45
735.083	37.98
735.264	37.71
735.446	37.18
735.627	36.13
735.808	37.4
735.989	37.1
736.17	38.55
736.351	39.68
736.533	39.64
736.714	38.05
736.895	38.62
737.076	39.46
737.257	39.06
737.438	38.51
737.619	39.9
737.8	39.51
737.981	40.3
738.162	40.17
738.343	38.2
738.524	38.91
738.705	40.86
738.886	40.19
739.067	38.57
739.247	38.96
739.428	39.49
739.609	38.63
739.79	37.84
739.971	37.39
740.151	35.96
740.332	36.54
740.513	35.69
740.694	33.41
740.874	34.04
741.055	34.34
741.236	33.41
741.417	32.57
741.597	31.89
741.778	31.43
741.958	31.03
742.139	33.14
742.32	32.44
742.5	32.35
742.681	33.28
742.861	32.6
743.042	32.49
743.222	32.43
743.403	33.67
743.583	33.5
743.764	33.93
743.944	34.75
744.124	33.79
744.305	34.82
744.485	34.07
744.666	33.96
744.846	34.51
745.026	35.64
745.207	36.75
745.387	35.84
745.567	36.46
745.747	36.75
745.928	35.51
746.108	35.02
746.288	34.8
746.468	35.57
746.648	35.83
746.829	35.85
747.009	35.14
747.189	34.23
747.369	34.58
747.549	34.76
747.729	34.2
747.909	35.39
748.089	35.19
748.269	35.4
748.449	35.18
748.629	35.3
748.809	34.35
748.989	34.86
749.169	35.04
749.349	35.28
749.529	35.92
749.709	36.2
749.889	35.1
750.068	35.16
750.248	35.03
750.428	34.55
750.608	34.2
750.788	35.35
750.967	34.46
751.147	35.43
751.327	36.85
751.507	37.01
751.686	39.41
751.866	39.13
752.046	39.23
752.225	39.48
752.405	40.65
752.585	40.82
752.764	40.01
752.944	41.89
753.123	41.36
753.303	40.59
753.482	40.22
753.662	38.98
753.841	39.02
754.021	38.77
754.2	39.57
754.38	38.51
754.559	39.08
754.739	39.56
754.918	38.12
755.097	38.69
755.277	37.76
755.456	37.58
755.635	37.77
755.815	38.03
755.994	38.34
756.173	37.29
756.352	37.45
756.532	37.62
756.711	36.69
756.89	37.09
757.069	36.86
757.248	38.11
757.427	37.68
757.607	36.95
757.786	37.25
757.965	36.73
758.144	37.01
758.323	38.57
758.502	37.9
758.681	39.41
758.86	40.39
759.039	39.72
759.218	38.81
759.397	37.84
759.576	37.65
759.755	38.64
759.934	38.95
760.113	39.13
760.291	38.73
760.47	39.51
760.649	39.16
760.828	37.4
761.007	37.1
761.186	37.45
761.364	40.51
761.543	40.78
761.722	39.43
761.901	39.85
762.079	39.32
762.258	38.44
762.437	38.09
762.615	37.26
762.794	37.58
762.972	37.22
763.151	37.75
763.33	36.07
763.508	36.08
763.687	37.1
763.865	36.26
764.044	36.33
764.222	36.52
764.401	36.66
764.579	37.35
764.758	37.66
764.936	38.12
765.114	37.13
765.293	37.83
765.471	38.03
765.65	37.56
765.828	38.59
766.006	38.89
766.184	37.96
766.363	37.53
766.541	37.26
766.719	37.37
766.898	37.73
767.076	36.78
767.254	36.58
767.432	35.93
767.61	35.22
767.788	36.32
767.967	36.99
768.145	38.89
768.323	38.2
768.501	38.1
768.679	38.9
768.857	39.48
769.035	41.41
769.213	41.86
769.391	42.98
769.569	42.9
769.747	41.25
769.925	40.43
770.103	39.93
770.281	41.39
770.459	42.48
770.636	40.21
770.814	38.52
770.992	38.63
771.17	37.58
771.348	37.59
771.525	37.99
771.703	38.06
771.881	36.57
772.059	36.58
772.236	35.6
772.414	34.22
772.592	36.24
772.769	37.96
772.947	36.83
773.125	36.59
773.302	34.43
773.48	34.99
773.657	34.34
773.835	37.1
774.013	37.39
774.19	39.33
774.368	39.59
774.545	40.33
774.723	39.74
774.9	40.65
775.077	40.56
775.255	42
775.432	39.78
775.61	41.39
775.787	39.47
775.964	37.55
776.142	35.8
776.319	35.84
776.496	34.61
776.674	36.21
776.851	35.53
777.028	37.43
777.205	36.39
777.382	39.34
777.56	38.25
777.737	37.04
777.914	37.51
778.091	36.25
778.268	37.75
778.445	37.22
778.622	33.72
778.8	33.71
778.977	32.83
779.154	33.02
779.331	31.27
779.508	32.36
779.685	35.23
779.862	36.01
780.038	37.83
780.215	36
780.392	34.9
780.569	36.29
780.746	36.14
780.923	36.14
781.1	36.99
781.277	36.82
781.453	37.15
781.63	35.63
781.807	35.63
781.984	34.51
782.16	33.12
782.337	35.66
782.514	34.92
782.691	36.79
782.867	38.62
783.044	39.45
783.221	41.62
783.397	40.84
783.574	41.63
783.75	38.96
783.927	40.86
784.103	44.62
784.28	44.02
784.456	46.41
784.633	43.32
784.809	43.3
784.986	44.09
785.162	42.47
785.339	40.66
785.515	39.14
785.692	42.17
785.868	41.38
786.044	39.3
786.221	38.73
786.397	38.63
786.573	41.58
786.749	41.47
786.926	39.16
787.102	38.98
787.278	39.27
787.454	39.39
787.631	40.03
787.807	39.27
787.983	39.83
788.159	37.27
788.335	34.8
788.511	34.52
788.687	32.99
788.863	34.52
789.039	35.34
789.216	33.49
789.392	32.52
789.568	30.82
789.744	31.25
789.919	32.19
790.095	35.01
790.271	37.57
790.447	36.51
790.623	37.56
790.799	37
790.975	36.69
791.151	40.26
791.327	42.16
791.502	40.69
791.678	40.27
791.854	39.16
792.03	38.41
792.205	35.33
792.381	34.54
792.557	32.27
792.733	32.64
792.908	30.01
793.084	30.16
793.259	31.17
793.435	35.31
793.611	37
793.786	37.1
793.962	40.01
794.137	40.29
794.313	40.45
794.488	42.77
794.664	42.27
794.839	41.09
795.015	38.78
795.19	37.4
795.366	36.14
795.541	32.97
795.716	33.3
795.892	29.33
796.067	32.29
796.242	34.13
796.418	32.01
796.593	32.74
796.768	37.92
796.944	37.47
797.119	37.66
797.294	39.42
797.469	38.84
797.644	36.52
797.82	39.79
797.995	38.47
798.17	37.57
798.345	38.88
798.52	34.67
798.695	32.92
798.87	35.05
799.045	33.86
799.22	32.25
799.395	34.86
799.57	35.16
799.745	32.13
799.92	32.87
800.095	33.15
800.27	30.4
800.445	33.43
800.62	36.16
800.795	36.13
800.97	37.22
801.145	36.23
801.319	33.17
801.494	34.37
801.669	35.06
801.844	35.22
802.018	35.84
802.193	37.93
802.368	37.34
802.543	33.03
802.717	34.97
802.892	36.28
803.067	36.27
803.241	37.98
803.416	40.75
803.59	38.72
803.765	39.75
803.94	38.84
804.114	39.13
804.289	41.83
804.463	41.43
804.638	41.23
804.812	39.18
804.986	36.71
805.161	36.99
805.335	34.01
805.51	34.96
805.684	32.79
805.858	32.04
806.033	29.8
806.207	30.86
806.381	28.65
806.556	27.29
806.73	29.09
806.904	32.37
807.078	35.13
807.253	38.3
807.427	38.78
807.601	42.95
807.775	42.35
807.949	43.7
808.123	43.29
808.298	47.35
808.472	47.69
808.646	50.23
808.82	48.62
808.994	45.48
809.168	43.29
809.342	45.46
809.516	41.28
809.69	44.47
809.864	43.76
810.038	42.62
810.212	40.75
810.385	38.07
810.559	36.91
810.733	41.94
810.907	43.09
811.081	45.38
811.255	43.61
811.428	48.71
811.602	46.91
811.776	48.04
811.95	53.13
812.123	56.23
812.297	58.68
812.471	57.02
812.644	54
812.818	52.62
812.992	52.7
813.165	54.08
813.339	49.48
813.512	54.47
813.686	54.46
813.86	51.71
814.033	51.45
814.207	53.76
814.38	56.15
814.554	53.29
814.727	52.89
814.9	49.15
815.074	51.65
815.247	52.47
815.421	49.41
815.594	46.58
815.767	45.34
815.941	46.09
816.114	45.01
816.287	45.18
816.46	47.14
816.634	48.41
816.807	50.82
816.98	50.56
817.153	51.25
817.327	48.3
817.5	53.21
817.673	51.26
817.846	48.26
818.019	43.34
818.192	44.18
818.365	42.15
818.538	42.27
818.711	40.2
818.884	35.86
819.057	36.26
819.23	34.38
819.403	34.45
819.576	37.39
819.749	37.27
819.922	40.57
820.095	39.57
820.268	40.63
820.441	39
820.614	37.38
820.786	37.17
820.959	36.91
821.132	38.08
821.305	36.37
821.477	35.17
821.65	36.62
821.823	35.98
821.996	35.83
822.168	34.93
822.341	34.79
822.514	35.54
822.686	34.99
822.859	34.71
823.031	34.87
823.204	35.07
823.376	35.81
823.549	34.27
823.722	34.34
823.894	33.96
824.067	34.43
824.239	34.08
824.411	33.84
824.584	35.05
824.756	34.8
824.929	35.02
825.101	34.81
825.273	33.71
825.446	34.43
825.618	34.13
825.79	34
825.963	34.28
826.135	34.77
826.307	35.41
826.479	34.12
826.652	35.12
826.824	34.45
826.996	35
827.168	34.87
827.34	34.12
827.512	35.04
827.684	35.45
827.856	34.71
828.029	35.12
828.201	34.83
828.373	35.17
828.545	35.17
828.717	36.12
828.889	36.01
829.061	35.35
829.232	37.58
829.404	37.97
829.576	38.85
829.748	41.95
829.92	43.39
830.092	42.96
830.264	43.84
830.436	43.18
830.607	41.29
830.779	41.51
830.951	42.19
831.123	39.97
831.294	38.17
831.466	36.97
831.638	32.67
831.809	31.8
831.981	31.14
832.153	30.79
832.324	28.9
832.496	29.89
832.667	30.8
832.839	34.66
833.011	35.62
833.182	35.72
833.354	36.34
833.525	38.14
833.697	35.83
833.868	36.89
834.039	37.31
834.211	38.4
834.382	38.56
834.554	39.41
834.725	37.9
834.896	38.13
835.068	40.36
835.239	38.98
835.41	39.14
835.581	41.39
835.753	40.46
835.924	39.81
836.095	40.79
836.266	41.8
836.438	41.68
836.609	41.74
836.78	41.16
836.951	39.58
837.122	37.48
837.293	35.72
837.464	36.15
837.635	37.47
837.806	41.79
837.977	42.69
838.148	37.62
838.319	35.07
838.49	37.2
838.661	38.14
838.832	35.27
839.003	41.24
839.174	43.53
839.345	43.66
839.516	47.11
839.687	43.79
839.857	41.06
840.028	44.44
840.199	46.33
840.37	45.31
840.54	46.73
840.711	51.91
840.882	49.88
841.053	45.56
841.223	44.36
841.394	42.43
841.564	43.57
841.735	44.16
841.906	44.06
842.076	46.28
842.247	45.97
842.417	47.04
842.588	43.89
842.758	48.1
842.929	59.35
843.099	67.26
843.27	67.4
843.44	72.55
843.611	78.46
843.781	80.95
843.951	65.68
844.122	62.56
844.292	61.43
844.462	61.13
844.633	53.93
844.803	48.21
844.973	43.72
845.144	45.58
845.314	47.49
845.484	43.63
845.654	41.85
845.824	43.67
845.995	41.17
846.165	40.02
846.335	39.61
846.505	38.34
846.675	42.06
846.845	42.86
847.015	29.04
847.185	17.25
847.355	16.77
847.525	23.04
847.695	30.95
847.865	37.21
848.035	45.2
848.205	37.91
848.375	43.15
848.545	27.98
848.715	34.59
848.884	45.65
849.054	44.04
849.224	58.22
849.394	57.2
849.564	65.15
849.733	55.07
849.903	56.24
850.073	64.46
850.243	53.37
850.412	61.92
850.582	55.87
850.752	48.02
850.921	50.77
851.091	50.96
851.26	57.44
851.43	38.04
851.599	51.97
851.769	50.49
851.939	57.34
852.108	63.81
852.278	63.35
852.447	72.99
852.616	100.58
852.786	93.59
852.955	78.15
853.125	73.27
853.294	109.18
853.463	93.52
853.633	88.3
853.802	74.82
853.971	81.28
854.141	72.69
854.31	56.65
854.479	44.58
854.648	62.45
854.818	69.03
854.987	58.39
855.156	45.32
855.325	57.5
855.494	50.98
855.663	39.99
855.832	37.68
856.001	50.04
856.171	67.49
856.34	77.9
856.509	80.34
856.678	49.97
856.847	57.5
857.016	86.85
857.185	120.6
857.353	128.14
857.522	134.01
857.691	87.3
857.86	80.48
858.029	62.09
858.198	47.61
858.367	32.32
858.535	44.89
858.704	48.85
858.873	36.41
859.042	31.93
859.21	39.97
859.379	41.04
859.548	56.15
859.717	54.05
859.885	70.1
860.054	76.44
860.222	84.58
860.391	78
860.56	78.8
860.728	94.81
860.897	81.9
861.065	69.1
861.234	95
861.402	94.55
861.571	91.65
861.739	93
861.908	100.57
862.076	90.3
862.244	89.85
862.413	90.04
862.581	73.8
862.749	67.89
862.918	65.03
863.086	60.7
863.254	53.69
863.423	66.03
863.591	62.86
863.759	49.96
863.927	42.4
864.096	37.63
864.264	31.89
864.432	26.22
864.6	29.08
864.768	23.32
864.936	24.04
865.104	20.01
865.272	26.31
865.44	14.42
865.608	33.19
865.776	48.92
865.944	40.41
866.112	46.77
866.28	45.79
866.448	45.32
866.616	51.64
866.784	42.31
866.952	46.28
867.12	30.16
867.288	30.62
867.455	25.51
867.623	26.51
867.791	38.52
867.959	37.21
868.127	32.63
868.294	31.57
868.462	32.93
868.63	35.35
868.797	37.29
868.965	41.21
869.133	42.51
869.3	43.95
869.468	46.94
869.636	36.21
869.803	38.67
869.971	45.25
870.138	48.7
870.306	58.68
870.473	58.18
870.641	68.31
870.808	44.91
870.975	55.45
871.143	40.61
871.31	37.4
871.478	41.55
871.645	38.23
871.812	38.32
871.98	37.32
872.147	29.83
872.314	28.66
872.482	28.22
872.649	43.31
872.816	39.74
872.983	48.39
873.15	48.88
873.318	48.14
873.485	48.6
873.652	50.12
873.819	44.37
873.986	45.44
874.153	39.78
874.32	37.71
874.487	34.4
874.654	40.12
874.821	39.58
874.988	41.03
875.155	44.3
875.322	50.47
875.489	53.38
875.656	59.66
875.823	58.43
875.99	69.55
876.157	71.04
876.324	72.48
876.49	75.97
876.657	72.57
876.824	62.5
876.991	64.84
877.157	53.96
877.324	53.22
877.491	57.59
877.658	56.78
877.824	48.34
877.991	48.52
878.157	45.49
878.324	43.67
878.491	46.1
878.657	51.53
878.824	48.25
878.99	52.51
879.157	46.27
879.323	40.33
879.49	49.94
879.656	64.23
879.823	62.14
879.989	74.03
880.156	79.26
880.322	78.39
880.488	69.31
880.655	76.5
880.821	78.66
880.987	89.35
881.154	82.85
881.32	86.39
881.486	73.17
881.652	65.7
881.819	57.09
881.985	52.4
882.151	50.71
882.317	45.68
882.483	41.35
882.649	35.85
882.816	34.92
882.982	35
883.148	30.55
883.314	30.19
883.48	33.35
883.646	34.01
883.812	31.51
883.978	32.96
884.144	35.53
884.31	35.81
884.476	38.85
884.642	40.94
884.807	41.22
884.973	41.95
885.139	39.81
885.305	39.3
885.471	37.41
885.637	41.23
885.802	43.95
885.968	43.02
886.134	46.17
886.3	44.7
886.465	39.79
886.631	40.82
886.797	38.42
886.962	41.83
887.128	47.06
887.293	49.02
887.459	40.33
887.625	39.3
887.79	45.3
887.956	41.2
888.121	45.46
888.287	46.96
888.452	48.48
888.618	51.6
888.783	65.74
