Data from 2938078_Reflection_3.txt Node
Date: Sat Jul 11 20:18:07 EDT 2015
User: robert
Spectrometer: USB4E03001
Autoset integration time: false
Trigger mode: 4
Integration Time (sec): 1.000000E-1
Scans to average: 10
Electric dark correction enabled: true
Nonlinearity correction enabled: false
Boxcar width: 5
Stray light correction enabled: false
XAxis mode: Wavelengths
Stop averaging: false
Number of Pixels in Spectrum: 3648
>>>>>Begin Spectral Data<<<<<
177.566	252.72
177.785	207.39
178.005	305.75
178.225	118.46
178.445	162.41
178.665	154.98
178.885	-68.65
179.105	144.22
179.324	1232.12
179.544	912.24
179.764	-136.44
179.984	2257.76
180.204	-492.42
180.423	-180.31
180.643	-109.72
180.863	-218.72
181.083	-732.48
181.302	-540.91
181.522	81.14
181.742	48.61
181.961	-9.85
182.181	81.54
182.401	114.02
182.621	36.06
182.84	-17.41
183.06	40.72
183.279	4.79
183.499	84.48
183.719	59.29
183.938	11.62
184.158	41.52
184.377	40.2
184.597	61.34
184.816	75.57
185.036	63.46
185.256	34.93
185.475	49.77
185.695	62.61
185.914	21.69
186.134	8.04
186.353	79.07
186.572	64.5
186.792	-22.69
187.011	360.3
187.231	181.46
187.45	229.38
187.67	63.21
187.889	67.7
188.108	174.19
188.328	75.25
188.547	-2371.25
188.766	2167.9
188.986	314.08
189.205	82.15
189.424	17.7
189.644	218.25
189.863	329.51
190.082	-74.6
190.302	-172.03
190.521	320.02
190.74	390.59
190.959	119.87
191.178	134.08
191.398	397.23
191.617	756.08
191.836	-111.63
192.055	-94.54
192.274	580.72
192.494	241.27
192.713	416.56
192.932	1001.5
193.151	646.94
193.37	419.34
193.589	194.78
193.808	153.77
194.027	84.09
194.246	72.96
194.465	68.05
194.685	61.64
194.904	64.64
195.123	59.34
195.342	13.94
195.561	-25.87
195.78	-382.94
195.999	-199.34
196.218	117.29
196.436	86.82
196.655	78.69
196.874	78.8
197.093	55.97
197.312	24.61
197.531	47.88
197.75	29.74
197.969	40.45
198.188	10.25
198.407	67.86
198.625	1259.72
198.844	-351.15
199.063	-315.34
199.282	672.3
199.501	-113.83
199.719	-248.47
199.938	-2820.13
200.157	505.24
200.376	181.98
200.594	114.75
200.813	33.2
201.032	42.07
201.251	29
201.469	16.97
201.688	30.79
201.907	16.97
202.125	7.93
202.344	-27.53
202.563	-76.57
202.781	-25.81
203	-38.36
203.218	-5.53
203.437	-65.16
203.656	-173.03
203.874	819.58
204.093	432.95
204.311	227.73
204.53	203.54
204.748	253.48
204.967	148.58
205.185	210.84
205.404	164.65
205.622	124.6
205.841	54.36
206.059	611.65
206.278	-482.37
206.496	1544.16
206.715	425.27
206.933	230.68
207.151	197.18
207.37	-531.04
207.588	-226.16
207.806	-752.02
208.025	659.89
208.243	442
208.461	128.79
208.68	160.99
208.898	-1072.2
209.116	34.63
209.335	52.4
209.553	64.68
209.771	88.79
209.989	128.8
210.208	197.63
210.426	136.38
210.644	140.25
210.862	173.34
211.081	149.74
211.299	142.48
211.517	171.95
211.735	99.03
211.953	131.97
212.171	136.68
212.39	-60.38
212.608	38.41
212.826	-166.67
213.044	187.55
213.262	-25.31
213.48	-279.18
213.698	361.14
213.916	368.54
214.134	934.23
214.352	-136.61
214.57	265.34
214.788	183.63
215.006	1090.71
215.224	603.26
215.442	232.06
215.66	1283.06
215.878	180.89
216.096	165.24
216.314	83.17
216.532	144.01
216.75	147.77
216.968	273.94
217.185	-10422.22
217.403	508.92
217.621	240.47
217.839	230.73
218.057	173.28
218.275	487.39
218.492	-499.68
218.71	-237.12
218.928	-249.9
219.146	-107.56
219.363	-191.79
219.581	157.27
219.799	17.66
220.017	129.78
220.234	203.09
220.452	326.5
220.67	1488.35
220.887	-400.95
221.105	-193.51
221.323	-390.56
221.54	-232.23
221.758	-173.28
221.976	-202.72
222.193	-437.5
222.411	-148.43
222.629	-103.87
222.846	-97.8
223.064	-61.01
223.281	-30.29
223.499	-24.47
223.716	10.38
223.934	-19.47
224.151	-25.56
224.369	3.29
224.586	7.63
224.804	7.29
225.021	-3.81
225.239	-3.66
225.456	12.54
225.674	-11.94
225.891	16.82
226.108	19.18
226.326	17.67
226.543	11.78
226.76	23.47
226.978	17.94
227.195	24.87
227.413	25.32
227.63	26.14
227.847	21.76
228.064	24.31
228.282	18.15
228.499	13.64
228.716	12.24
228.934	13.52
229.151	10.77
229.368	12.84
229.585	8.86
229.802	6.8
230.02	4.93
230.237	6.35
230.454	4.16
230.671	2.11
230.888	3.66
231.105	1.23
231.323	0.61
231.54	-0.13
231.757	-6.53
231.974	-6.61
232.191	-4.67
232.408	-6.01
232.625	-12.15
232.842	-13.92
233.059	-9.16
233.276	-8.51
233.493	-2.92
233.71	-3.1
233.927	-5.32
234.144	-7.43
234.361	-4.37
234.578	-5.26
234.795	-0.48
235.012	-1.38
235.229	-3.04
235.446	-5.86
235.663	-7.34
235.879	-10.63
236.096	-6.31
236.313	0.88
236.53	4.42
236.747	5.05
236.964	2.18
237.181	-5.89
237.397	0.43
237.614	-5.26
237.831	-1.54
238.048	0.23
238.264	4.12
238.481	1.92
238.698	0.92
238.915	3.32
239.131	4.44
239.348	1.38
239.565	5.07
239.781	1.37
239.998	1.78
240.215	2.82
240.431	4.67
240.648	3.68
240.865	1.72
241.081	1.07
241.298	3.82
241.514	1.99
241.731	4.38
241.947	3.89
242.164	4.39
242.38	5.07
242.597	3.98
242.814	3.63
243.03	3.89
243.246	5.14
243.463	3.51
243.679	2.21
243.896	2.71
244.112	0.92
244.329	0.13
244.545	-0.43
244.762	-3.4
244.978	-1.45
245.194	-4.1
245.411	-5.99
245.627	-6.4
245.843	-4.22
246.06	-4.05
246.276	-4.78
246.492	-3.84
246.709	-3.54
246.925	-3.45
247.141	-2.01
247.357	-2.37
247.574	-1.64
247.79	-0.68
248.006	-0.38
248.222	-0.2
248.439	-0.74
248.655	-0.58
248.871	-0.25
249.087	1.43
249.303	2.98
249.519	3.47
249.736	1.09
249.952	-0
250.168	1.11
250.384	2.23
250.6	0.61
250.816	0.05
251.032	-0.45
251.248	0.28
251.464	0.54
251.68	0.38
251.896	0.63
252.112	3.21
252.328	4.39
252.544	0.54
252.76	-2.93
252.976	-2
253.192	-0.44
253.408	2.04
253.624	1.41
253.84	-1.99
254.056	-4.53
254.272	-5.76
254.487	-3.66
254.703	-7.84
254.919	-4.58
255.135	-2.02
255.351	-3.78
255.567	-4.32
255.782	-3.31
255.998	-4.86
256.214	-4.26
256.43	-2.37
256.646	-1.38
256.861	-3.28
257.077	-1.98
257.293	-3.85
257.508	-5.62
257.724	-1.02
257.94	0.66
258.155	-1.21
258.371	-1.09
258.587	-0.32
258.802	1.46
259.018	0.52
259.234	0.32
259.449	0.95
259.665	1.36
259.88	2.29
260.096	1.91
260.312	1.71
260.527	1.3
260.743	0.89
260.958	0.34
261.174	-0.47
261.389	0.29
261.605	1.64
261.82	1.16
262.036	1.95
262.251	1.3
262.466	1.51
262.682	1.21
262.897	2.95
263.113	3.92
263.328	5.93
263.543	4.67
263.759	4.02
263.974	2.52
264.189	4.93
264.405	2.34
264.62	2.88
264.835	1.36
265.051	0.53
265.266	-0.98
265.481	-1.45
265.696	-0.1
265.912	1.63
266.127	1.34
266.342	0.42
266.557	-3.6
266.773	-1.72
266.988	-0.11
267.203	-1.64
267.418	-1.18
267.633	-0.5
267.848	0.93
268.064	-1.31
268.279	0.13
268.494	1.73
268.709	1.72
268.924	2.49
269.139	2.93
269.354	2.51
269.569	3.19
269.784	3.45
269.999	3.3
270.214	3.24
270.429	5.29
270.644	4.57
270.859	2.8
271.074	2.55
271.289	2.89
271.504	2.41
271.719	1.39
271.934	1.42
272.149	1.39
272.363	2.16
272.578	1.76
272.793	-0.36
273.008	-0.82
273.223	0.8
273.438	0.52
273.653	1.16
273.867	0.54
274.082	0.33
274.297	1.75
274.512	0.13
274.726	-1.71
274.941	-2.02
275.156	-0.86
275.371	-2.09
275.585	-3.49
275.8	-4.19
276.015	-4.64
276.229	-6.09
276.444	-5.26
276.659	-6.9
276.873	-5.68
277.088	-5.64
277.302	-6.64
277.517	-5.87
277.732	-6.17
277.946	-6.33
278.161	-4.52
278.375	-5.97
278.59	-4.14
278.804	-4.04
279.019	-4.39
279.233	-2.42
279.448	-1.72
279.662	0.27
279.877	0.52
280.091	1.42
280.306	0.06
280.52	-0.25
280.735	1.63
280.949	2.13
281.163	2.19
281.378	1.46
281.592	0.07
281.806	-0.6
282.021	-0.07
282.235	-1.89
282.449	-2.08
282.664	-1.35
282.878	-0.83
283.092	-0.85
283.307	-1.23
283.521	-1.93
283.735	-2.35
283.949	-2.75
284.164	-1.82
284.378	-3.29
284.592	-1.63
284.806	-1.96
285.02	-0.42
285.234	-0.78
285.449	-1.3
285.663	0.03
285.877	0.98
286.091	2.26
286.305	3.55
286.519	4.43
286.733	4.44
286.947	4.38
287.161	3.67
287.375	1.95
287.589	2.97
287.803	2.94
288.017	2.34
288.231	2.16
288.445	1.31
288.659	1.08
288.873	0.82
289.087	0.66
289.301	0.79
289.515	0.99
289.729	2.39
289.943	1.05
290.157	2.49
290.371	1.47
290.584	0.33
290.798	0.62
291.012	-0.45
291.226	-0.12
291.44	0.78
291.654	0.67
291.867	2.72
292.081	2.64
292.295	4.77
292.509	2.9
292.722	2.07
292.936	4.55
293.15	6.03
293.364	6.5
293.577	5.72
293.791	5.13
294.005	4.98
294.218	3.2
294.432	3.95
294.645	2.13
294.859	2.98
295.073	4.31
295.286	2.67
295.5	2.04
295.713	2.41
295.927	1.37
296.14	2.09
296.354	2.05
296.568	3.28
296.781	1.92
296.994	2.08
297.208	2.08
297.421	2.29
297.635	2.21
297.848	2.27
298.062	1.64
298.275	2.81
298.489	3.35
298.702	4.39
298.915	3.39
299.129	4.06
299.342	5.04
299.555	5.43
299.769	5.31
299.982	6.33
300.195	5.88
300.409	7.38
300.622	6.25
300.835	5.63
301.048	4.23
301.262	5.95
301.475	7.41
301.688	6.1
301.901	5.31
302.115	3.3
302.328	2.24
302.541	1.54
302.754	1.34
302.967	2.64
303.18	1.92
303.393	2.3
303.607	0.99
303.82	0.19
304.033	1.21
304.246	1.91
304.459	3.99
304.672	3.05
304.885	5.65
305.098	5.91
305.311	5.27
305.524	6.58
305.737	5.82
305.95	5.66
306.163	5.23
306.376	3.76
306.589	4.02
306.802	6.35
307.015	9.82
307.228	8.33
307.44	7.38
307.653	7.24
307.866	5.59
308.079	6
308.292	5.51
308.505	6.63
308.718	7.52
308.93	6.48
309.143	6.95
309.356	3.76
309.569	2.27
309.781	1.5
309.994	1.39
310.207	2.08
310.42	0.68
310.632	1.49
310.845	0.5
311.058	0.55
311.27	2.01
311.483	-0.16
311.696	0.4
311.908	2.75
312.121	3.47
312.333	4.16
312.546	3.67
312.759	4.08
312.971	3.62
313.184	3.92
313.396	3.44
313.609	1.92
313.821	1.43
314.034	1.36
314.246	0.08
314.459	0.57
314.671	0.67
314.884	0.97
315.096	1.66
315.309	2.85
315.521	3.45
315.733	3.32
315.946	5.41
316.158	7.7
316.371	7.86
316.583	7.67
316.795	7.65
317.008	7.32
317.22	6.77
317.432	6.41
317.644	7.68
317.857	6.16
318.069	6.04
318.281	4.29
318.494	2.82
318.706	6.55
318.918	6.46
319.13	6.37
319.342	6.52
319.555	8.05
319.767	9.72
319.979	5.78
320.191	5.2
320.403	3.31
320.615	3.21
320.827	5.55
321.039	2.24
321.252	2.6
321.464	1.72
321.676	0.76
321.888	0.34
322.1	-1.04
322.312	2.33
322.524	3.8
322.736	6.23
322.948	6.13
323.16	5.05
323.372	5.9
323.584	5.42
323.796	5.29
324.007	6.15
324.219	5.4
324.431	5.89
324.643	5.96
324.855	6.74
325.067	6.55
325.279	6.46
325.491	5.58
325.702	5.35
325.914	6.32
326.126	8.73
326.338	8.2
326.55	7.93
326.761	8.9
326.973	9.52
327.185	9.61
327.396	10.9
327.608	11.89
327.82	12.21
328.032	11.83
328.243	13.19
328.455	10.41
328.666	13.82
328.878	15.74
329.09	15.78
329.301	13.84
329.513	12.66
329.725	11.58
329.936	9.93
330.148	11.52
330.359	13.76
330.571	13.88
330.782	14.18
330.994	10.83
331.205	8.53
331.417	8.49
331.628	9.72
331.84	10.07
332.051	8.8
332.262	11
332.474	10.08
332.685	8.99
332.897	6.99
333.108	8.36
333.319	8.59
333.531	10.05
333.742	10.8
333.953	10.67
334.165	11.18
334.376	12.45
334.587	12.05
334.799	12.58
335.01	12.72
335.221	12.81
335.432	13.87
335.644	14.89
335.855	13.71
336.066	13.79
336.277	13.27
336.488	14.56
336.7	14.69
336.911	15.72
337.122	15.8
337.333	16.03
337.544	16.62
337.755	16.33
337.966	17.07
338.177	18.95
338.388	17.55
338.599	17.21
338.811	14.97
339.022	15.99
339.233	14.99
339.444	14.18
339.655	14.32
339.866	13.88
340.076	11.98
340.287	10.54
340.498	9.48
340.709	10.35
340.92	11.25
341.131	13.39
341.342	12.45
341.553	13.24
341.764	13.46
341.975	14.44
342.185	15.26
342.396	16.63
342.607	16.73
342.818	18.67
343.029	19.26
343.239	19.6
343.45	18.23
343.661	17.47
343.872	16.6
344.082	17.26
344.293	16.54
344.504	15.67
344.714	15.67
344.925	16.03
345.136	14.26
345.346	13.9
345.557	13.53
345.768	12.97
345.978	13.35
346.189	12.83
346.399	12.33
346.61	12.2
346.821	11.7
347.031	10.83
347.242	10.8
347.452	11.78
347.663	11.8
347.873	13.16
348.084	13.71
348.294	14.88
348.504	16.25
348.715	16.45
348.925	17.74
349.136	18.83
349.346	19.38
349.557	20
349.767	19.64
349.977	19.22
350.188	18.56
350.398	18.98
350.608	18.74
350.819	19.35
351.029	18.64
351.239	16.32
351.449	15.64
351.66	15.28
351.87	15.44
352.08	15.08
352.29	15.74
352.501	15.27
352.711	15.25
352.921	15.34
353.131	13.99
353.341	13.89
353.552	14.51
353.762	14.59
353.972	14.92
354.182	14.29
354.392	13.56
354.602	14.69
354.812	13.74
355.022	13.18
355.232	11.92
355.442	12.79
355.652	13.14
355.862	13.8
356.072	13.53
356.282	14.76
356.492	13.67
356.702	14.41
356.912	13.66
357.122	15.03
357.332	16.12
357.542	16.94
357.752	16.4
357.962	17.28
358.171	17.43
358.381	18.09
358.591	18.27
358.801	19.85
359.011	20.57
359.221	19.96
359.43	19.72
359.64	19.48
359.85	20.01
360.06	20.68
360.269	20.41
360.479	20.49
360.689	21.49
360.899	20.73
361.108	20.28
361.318	20.21
361.528	20.92
361.737	21.18
361.947	20.83
362.156	20.46
362.366	19.92
362.576	19.71
362.785	20.22
362.995	19.57
363.204	19.44
363.414	19.36
363.623	18.88
363.833	18.4
364.042	17.51
364.252	17.51
364.461	17.48
364.671	17.8
364.88	17.63
365.09	17.09
365.299	16.7
365.509	17.1
365.718	16.62
365.927	17.14
366.137	17.01
366.346	18.2
366.555	17.72
366.765	18.16
366.974	18.31
367.183	18.55
367.393	17.87
367.602	18.42
367.811	18.64
368.021	19.26
368.23	18.85
368.439	18.69
368.648	18.33
368.857	18.9
369.067	18.74
369.276	18.88
369.485	18.82
369.694	18.74
369.903	17.97
370.112	17.75
370.321	18.36
370.531	18.28
370.74	18.34
370.949	18.64
371.158	19.4
371.367	19.06
371.576	19.24
371.785	19.41
371.994	18.91
372.203	19.39
372.412	19.48
372.621	18.96
372.83	19.3
373.039	19.56
373.248	18.48
373.457	18.09
373.666	18.26
373.874	17.62
374.083	18.12
374.292	19.55
374.501	19.65
374.71	19.14
374.919	19.16
375.128	19.34
375.336	19.71
375.545	20.57
375.754	20.38
375.963	20.16
376.171	20.83
376.38	20.58
376.589	20.13
376.798	19.9
377.006	20.29
377.215	20.15
377.424	20.44
377.632	20.52
377.841	20.77
378.05	21.03
378.258	21.14
378.467	20.36
378.675	20.09
378.884	20.46
379.093	21.16
379.301	21.19
379.51	21.78
379.718	21.24
379.927	21.04
380.135	20.86
380.344	20.6
380.552	21.51
380.761	22.46
380.969	22.8
381.177	22.42
381.386	22.17
381.594	22.27
381.803	22
382.011	22.21
382.219	21.87
382.428	21.65
382.636	22.58
382.845	21.88
383.053	21.41
383.261	20.81
383.469	21.12
383.678	21.11
383.886	21.02
384.094	20.76
384.302	21.43
384.511	21.46
384.719	21.84
384.927	21.36
385.135	21.73
385.343	21.74
385.552	22.6
385.76	22.38
385.968	22.51
386.176	22.86
386.384	23.29
386.592	22.79
386.8	23.4
387.008	23.11
387.216	23.27
387.424	23.12
387.633	23.54
387.841	23.05
388.049	23.47
388.257	23.39
388.465	23.42
388.672	23.4
388.88	23.68
389.088	23.6
389.296	23.47
389.504	23.4
389.712	23.86
389.92	23.76
390.128	24.05
390.336	23.79
390.544	24.07
390.751	24.11
390.959	23.94
391.167	24.22
391.375	24.32
391.583	24.68
391.79	24.76
391.998	24.5
392.206	24.49
392.414	24.64
392.621	24.91
392.829	24.83
393.037	24.95
393.244	25.1
393.452	24.83
393.66	24.81
393.867	24.87
394.075	24.88
394.283	25.07
394.49	25.13
394.698	25.13
394.905	25.52
395.113	25.85
395.32	25.79
395.528	26.19
395.735	26.26
395.943	26.85
396.15	27.23
396.358	27.63
396.565	27.86
396.773	28.37
396.98	28.75
397.188	28.46
397.395	28.48
397.602	28.67
397.81	28.47
398.017	28.77
398.225	28.79
398.432	28.8
398.639	28.52
398.847	28.71
399.054	28.35
399.261	28.41
399.468	28.43
399.676	28.15
399.883	27.91
400.09	27.93
400.297	27.78
400.505	27.85
400.712	27.6
400.919	27.66
401.126	27.59
401.333	28.16
401.54	28.13
401.748	28.58
401.955	28.93
402.162	29.46
402.369	29.96
402.576	30.17
402.783	30.12
402.99	30.4
403.197	30.85
403.404	30.61
403.611	30.41
403.818	30.34
404.025	29.95
404.232	30.25
404.439	30.34
404.646	30.2
404.853	30.18
405.06	30.22
405.267	30.24
405.474	30.23
405.681	30.32
405.887	30.5
406.094	30.61
406.301	31.03
406.508	30.78
406.715	30.66
406.922	30.66
407.128	30.66
407.335	30.64
407.542	30.74
407.749	30.56
407.955	30.46
408.162	30.26
408.369	30.43
408.575	30.53
408.782	30.63
408.989	30.86
409.195	31.09
409.402	31.05
409.609	31.13
409.815	31.17
410.022	31.51
410.228	31.64
410.435	31.83
410.642	31.85
410.848	31.55
411.055	31.8
411.261	31.52
411.468	31.29
411.674	31.58
411.881	31.71
412.087	31.53
412.294	31.36
412.5	31.41
412.706	31.37
412.913	31.11
413.119	31.15
413.326	30.83
413.532	31.13
413.738	31.24
413.945	30.83
414.151	30.54
414.357	30.57
414.564	30.24
414.77	30.24
414.976	30.21
415.182	30.29
415.389	30.19
415.595	30.2
415.801	29.97
416.007	29.99
416.214	30.34
416.42	30.48
416.626	30.45
416.832	30.56
417.038	30.72
417.244	30.77
417.45	30.66
417.657	30.53
417.863	30.35
418.069	30.38
418.275	30.28
418.481	30.14
418.687	30.03
418.893	30.15
419.099	30.34
419.305	30.16
419.511	30.08
419.717	30.06
419.923	30.29
420.129	30.41
420.335	30.3
420.541	30.34
420.746	30.46
420.952	30.45
421.158	30.46
421.364	30.21
421.57	30.26
421.776	30.43
421.982	30.54
422.187	30.55
422.393	30.4
422.599	30.52
422.805	30.45
423.01	30.33
423.216	30.34
423.422	30.25
423.628	30.43
423.833	30.29
424.039	30.29
424.245	30.19
424.45	30.08
424.656	30.29
424.862	30.26
425.067	30.23
425.273	30.21
425.478	30.29
425.684	30.24
425.889	30.09
426.095	30.35
426.301	30.05
426.506	29.98
426.712	30.01
426.917	29.84
427.123	29.63
427.328	29.65
427.533	29.59
427.739	29.25
427.944	29.45
428.15	29.45
428.355	29.22
428.561	29.24
428.766	29.1
428.971	28.99
429.177	29.17
429.382	29.32
429.587	29.44
429.793	29.49
429.998	29.58
430.203	29.27
430.408	29.36
430.614	29.52
430.819	29.66
431.024	29.86
431.229	29.92
431.434	29.98
431.64	29.85
431.845	29.84
432.05	29.79
432.255	29.94
432.46	30.07
432.665	30.04
432.87	29.84
433.076	29.69
433.281	29.68
433.486	29.48
433.691	29.17
433.896	29.14
434.101	29.05
434.306	28.88
434.511	28.71
434.716	28.6
434.921	28.48
435.126	28.35
435.331	28.36
435.535	28.27
435.74	28.44
435.945	28.55
436.15	28.61
436.355	28.7
436.56	28.84
436.765	28.96
436.97	29.12
437.174	29.15
437.379	29.37
437.584	29.53
437.789	29.52
437.993	29.57
438.198	29.55
438.403	29.8
438.608	29.68
438.812	29.87
439.017	29.95
439.222	29.81
439.426	29.78
439.631	29.65
439.836	29.62
440.04	29.71
440.245	29.66
440.45	29.54
440.654	29.36
440.859	29.42
441.063	29.37
441.268	29.39
441.472	29.38
441.677	29.49
441.881	29.52
442.086	29.54
442.29	29.61
442.495	29.67
442.699	29.62
442.904	29.64
443.108	29.45
443.312	29.29
443.517	29.2
443.721	29.34
443.925	29.18
444.13	29.28
444.334	29.19
444.538	29.01
444.743	28.91
444.947	29.21
445.151	29.13
445.356	29.27
445.56	29.13
445.764	29.14
445.968	29.01
446.173	29.04
446.377	29.06
446.581	29.05
446.785	29.05
446.989	28.94
447.193	28.77
447.398	28.78
447.602	28.81
447.806	28.89
448.01	28.75
448.214	28.68
448.418	28.73
448.622	28.54
448.826	28.43
449.03	28.39
449.234	28.4
449.438	28.47
449.642	28.55
449.846	28.44
450.05	28.54
450.254	28.43
450.458	28.41
450.662	28.32
450.866	28.23
451.069	28.39
451.273	28.46
451.477	28.59
451.681	28.69
451.885	28.79
452.089	28.79
452.292	28.61
452.496	28.82
452.7	29
452.904	28.89
453.107	29.06
453.311	28.69
453.515	28.56
453.719	28.54
453.922	28.43
454.126	28.2
454.33	28.03
454.533	28.24
454.737	28.09
454.94	28.1
455.144	28.25
455.348	28.42
455.551	28.82
455.755	28.95
455.958	29
456.162	29.06
456.365	29.1
456.569	29.19
456.772	29.16
456.976	29.06
457.179	28.98
457.383	28.78
457.586	28.58
457.79	28.57
457.993	28.65
458.196	28.69
458.4	28.7
458.603	28.69
458.807	28.85
459.01	28.83
459.213	29.05
459.417	29.02
459.62	29.09
459.823	28.99
460.026	28.84
460.23	28.87
460.433	28.89
460.636	28.96
460.839	28.98
461.042	28.88
461.246	28.97
461.449	28.93
461.652	29.04
461.855	29.01
462.058	29.23
462.261	29.46
462.464	29.43
462.668	29.47
462.871	29.25
463.074	29.23
463.277	29.23
463.48	29.09
463.683	29.1
463.886	29.01
464.089	29.14
464.292	29.08
464.495	28.94
464.698	28.89
464.901	28.98
465.104	29.09
465.306	29.1
465.509	29.28
465.712	29.41
465.915	29.58
466.118	29.65
466.321	29.82
466.524	29.83
466.726	29.91
466.929	30
467.132	29.97
467.335	30.16
467.538	30.09
467.74	30.15
467.943	30.01
468.146	29.96
468.348	30.03
468.551	29.87
468.754	30.01
468.956	30.13
469.159	30.13
469.362	29.88
469.564	29.73
469.767	29.86
469.969	29.7
470.172	29.84
470.375	29.73
470.577	29.54
470.78	29.58
470.982	29.46
471.185	29.31
471.387	29.39
471.59	29.53
471.792	29.62
471.995	29.68
472.197	29.49
472.399	29.45
472.602	29.47
472.804	29.56
473.007	29.65
473.209	29.58
473.411	29.71
473.614	29.48
473.816	29.46
474.018	29.49
474.22	29.58
474.423	29.7
474.625	29.67
474.827	29.75
475.03	29.83
475.232	29.69
475.434	30
475.636	30.04
475.838	30.18
476.04	30.32
476.243	30.35
476.445	30.23
476.647	30.3
476.849	30.47
477.051	30.45
477.253	30.51
477.455	30.64
477.657	30.37
477.859	30.31
478.061	30.4
478.263	30.51
478.465	30.54
478.667	30.43
478.869	30.5
479.071	30.41
479.273	30.5
479.475	30.4
479.677	30.37
479.879	30.45
480.081	30.48
480.283	30.5
480.485	30.32
480.686	30.26
480.888	30.29
481.09	30.2
481.292	30.24
481.494	30.04
481.695	30.06
481.897	30.16
482.099	30.04
482.301	30.06
482.502	29.97
482.704	29.89
482.906	29.75
483.107	29.73
483.309	29.74
483.511	29.7
483.712	29.7
483.914	29.65
484.115	29.62
484.317	29.6
484.519	29.53
484.72	29.55
484.922	29.55
485.123	29.62
485.325	29.64
485.526	29.63
485.728	29.69
485.929	29.66
486.131	29.66
486.332	29.59
486.534	29.67
486.735	29.67
486.936	29.64
487.138	29.66
487.339	29.61
487.541	29.63
487.742	29.69
487.943	29.58
488.144	29.7
488.346	29.75
488.547	29.81
488.748	29.84
488.95	29.85
489.151	29.89
489.352	29.94
489.553	29.93
489.755	29.94
489.956	29.95
490.157	30.03
490.358	29.99
490.559	29.9
490.76	29.87
490.961	29.81
491.163	29.87
491.364	29.83
491.565	29.74
491.766	29.84
491.967	29.8
492.168	29.8
492.369	29.84
492.57	29.82
492.771	29.85
492.972	29.92
493.173	29.93
493.374	29.94
493.575	29.84
493.776	29.95
493.976	29.87
494.177	29.85
494.378	29.76
494.579	29.76
494.78	29.97
494.981	30.03
495.182	30
495.382	30.14
495.583	30.15
495.784	30.28
495.985	30.28
496.185	30.35
496.386	30.41
496.587	30.39
496.788	30.15
496.988	30.01
497.189	29.92
497.39	29.8
497.59	29.71
497.791	29.55
497.992	29.54
498.192	29.41
498.393	29.5
498.593	29.4
498.794	29.49
498.994	29.64
499.195	29.66
499.395	29.77
499.596	29.9
499.796	29.92
499.997	30.07
500.197	30.14
500.398	30.22
500.598	29.95
500.799	30.06
500.999	30.08
501.199	30
501.4	29.9
501.6	29.83
501.801	29.76
502.001	29.74
502.201	29.87
502.402	29.9
502.602	30.07
502.802	30.4
503.002	30.37
503.203	30.28
503.403	30.45
503.603	30.4
503.803	30.31
504.003	30.34
504.204	30.46
504.404	30.2
504.604	30.08
504.804	29.96
505.004	29.77
505.204	29.93
505.404	30.08
505.604	30.09
505.804	30.04
506.005	30.39
506.205	30.35
506.405	30.23
506.605	30.29
506.805	30.44
507.005	30.41
507.204	30.52
507.404	30.45
507.604	30.39
507.804	30.2
508.004	30.43
508.204	30.49
508.404	30.57
508.604	30.62
508.804	30.69
509.003	30.77
509.203	30.85
509.403	30.88
509.603	31.03
509.803	31.11
510.002	31.19
510.202	31.12
510.402	30.87
510.602	30.77
510.801	30.7
511.001	30.71
511.201	30.65
511.4	30.62
511.6	30.67
511.8	30.47
511.999	30.38
512.199	30.4
512.398	30.4
512.598	30.49
512.797	30.54
512.997	30.67
513.197	30.71
513.396	30.81
513.596	30.83
513.795	30.65
513.994	30.75
514.194	30.83
514.393	30.84
514.593	30.78
514.792	30.92
514.992	30.95
515.191	30.92
515.39	31
515.59	30.92
515.789	30.96
515.988	31.02
516.188	30.99
516.387	31.12
516.586	31.22
516.786	31.39
516.985	31.28
517.184	31.31
517.383	31.45
517.582	31.49
517.782	31.45
517.981	31.5
518.18	31.52
518.379	31.45
518.578	31.28
518.777	31.25
518.976	31.2
519.176	31.25
519.375	31.14
519.574	31.04
519.773	30.96
519.972	30.84
520.171	30.81
520.37	30.82
520.569	30.87
520.768	30.95
520.967	30.95
521.166	30.88
521.365	30.81
521.564	30.93
521.762	30.99
521.961	31.01
522.16	31.1
522.359	31.23
522.558	31.22
522.757	31.29
522.956	31.2
523.154	31.28
523.353	31.4
523.552	31.49
523.751	31.63
523.949	31.58
524.148	31.52
524.347	31.55
524.546	31.42
524.744	31.34
524.943	31.28
525.142	31.33
525.34	31.38
525.539	31.42
525.737	31.25
525.936	31.11
526.135	31.2
526.333	31.33
526.532	31.44
526.73	31.45
526.929	31.48
527.127	31.56
527.326	31.57
527.524	31.54
527.723	31.51
527.921	31.6
528.12	31.68
528.318	31.54
528.516	31.54
528.715	31.44
528.913	31.45
529.112	31.5
529.31	31.48
529.508	31.48
529.707	31.46
529.905	31.46
530.103	31.44
530.301	31.43
530.5	31.46
530.698	31.34
530.896	31.43
531.094	31.42
531.293	31.41
531.491	31.35
531.689	31.38
531.887	31.41
532.085	31.44
532.283	31.42
532.481	31.35
532.68	31.41
532.878	31.43
533.076	31.41
533.274	31.4
533.472	31.45
533.67	31.54
533.868	31.47
534.066	31.44
534.264	31.42
534.462	31.42
534.66	31.46
534.858	31.42
535.056	31.48
535.253	31.55
535.451	31.57
535.649	31.43
535.847	31.37
536.045	31.44
536.243	31.42
536.441	31.33
536.638	31.44
536.836	31.4
537.034	31.52
537.232	31.44
537.43	31.46
537.627	31.54
537.825	31.75
538.023	31.81
538.22	31.71
538.418	31.67
538.616	31.74
538.813	31.63
539.011	31.58
539.209	31.52
539.406	31.62
539.604	31.57
539.801	31.37
539.999	31.25
540.196	31.05
540.394	31.02
540.591	30.99
540.789	30.97
540.986	30.92
541.184	31.01
541.381	30.95
541.579	30.82
541.776	30.78
541.974	30.81
542.171	30.74
542.368	30.79
542.566	30.8
542.763	30.78
542.96	30.72
543.158	30.71
543.355	30.54
543.552	30.49
543.75	30.46
543.947	30.25
544.144	30.09
544.341	29.99
544.539	29.84
544.736	29.79
544.933	29.69
545.13	29.69
545.327	29.65
545.524	29.58
545.722	29.5
545.919	29.58
546.116	29.78
546.313	29.96
546.51	29.99
546.707	30.2
546.904	30.28
547.101	30.38
547.298	30.52
547.495	30.62
547.692	30.77
547.889	30.94
548.086	30.88
548.283	30.87
548.48	30.92
548.677	31.01
548.874	31.02
549.07	30.95
549.267	31.02
549.464	31.07
549.661	31.04
549.858	31.14
550.055	31.2
550.251	31.34
550.448	31.33
550.645	31.26
550.842	31.15
551.038	31.11
551.235	31.24
551.432	31.2
551.628	31.08
551.825	31.13
552.022	31.13
552.218	31.15
552.415	31.06
552.612	31.14
552.808	31.31
553.005	31.53
553.201	31.76
553.398	31.74
553.594	31.77
553.791	31.8
553.987	31.78
554.184	31.76
554.38	31.76
554.577	31.87
554.773	31.87
554.97	31.88
555.166	31.92
555.362	31.78
555.559	31.72
555.755	31.79
555.952	31.78
556.148	31.77
556.344	31.86
556.541	31.74
556.737	31.78
556.933	31.73
557.129	31.59
557.326	31.49
557.522	31.3
557.718	31.35
557.914	31.32
558.11	31.39
558.307	31.68
558.503	31.53
558.699	31.73
558.895	31.75
559.091	31.81
559.287	31.66
559.483	31.67
559.679	31.8
559.876	31.92
560.072	32.1
560.268	32.03
560.464	31.83
560.66	31.94
560.856	31.84
561.052	31.88
561.247	31.82
561.443	31.94
561.639	31.91
561.835	32.05
562.031	31.97
562.227	31.76
562.423	31.74
562.619	31.68
562.815	31.8
563.01	32.06
563.206	31.85
563.402	31.89
563.598	31.95
563.793	31.94
563.989	31.92
564.185	31.7
564.381	31.68
564.576	31.54
564.772	31.55
564.968	31.62
565.163	31.57
565.359	31.81
565.555	31.82
565.75	31.65
565.946	31.57
566.141	31.34
566.337	31.52
566.532	31.55
566.728	31.75
566.923	31.76
567.119	31.69
567.314	31.47
567.51	31.32
567.705	31.39
567.901	31.72
568.096	31.71
568.292	31.92
568.487	31.85
568.682	31.8
568.878	31.76
569.073	31.66
569.268	31.66
569.464	31.66
569.659	31.66
569.854	31.55
570.05	31.38
570.245	31.46
570.44	31.51
570.635	31.63
570.831	31.68
571.026	31.56
571.221	31.64
571.416	31.51
571.611	31.49
571.806	31.54
572.002	31.59
572.197	31.66
572.392	31.64
572.587	31.4
572.782	31.32
572.977	31.48
573.172	31.71
573.367	31.75
573.562	31.74
573.757	31.71
573.952	31.74
574.147	31.69
574.342	31.69
574.537	31.59
574.732	31.67
574.927	31.61
575.121	31.5
575.316	31.22
575.511	31.24
575.706	31.15
575.901	31.15
576.096	31.12
576.29	30.92
576.485	30.55
576.68	30.68
576.875	30.62
577.069	30.69
577.264	30.65
577.459	30.69
577.654	30.48
577.848	30.48
578.043	30.61
578.238	30.55
578.432	30.69
578.627	31.06
578.821	31.08
579.016	30.93
579.21	30.82
579.405	30.74
579.6	30.93
579.794	30.95
579.989	31.04
580.183	30.7
580.378	30.63
580.572	30.88
580.766	30.65
580.961	30.5
581.155	30.76
581.35	30.85
581.544	30.73
581.738	30.72
581.933	30.93
582.127	30.92
582.321	31.4
582.516	31.33
582.71	31.05
582.904	31.23
583.099	31.55
583.293	31.57
583.487	31.62
583.681	31.71
583.875	31.4
584.07	31.3
584.264	31.53
584.458	31.33
584.652	31.39
584.846	31.35
585.04	31.06
585.234	30.56
585.428	30.4
585.623	29.95
585.817	30.19
586.011	29.96
586.205	29.74
586.399	29.64
586.593	29.59
586.787	30.01
586.981	30.17
587.174	30.45
587.368	30.65
587.562	30.61
587.756	31.13
587.95	30.83
588.144	31.34
588.338	31.54
588.532	31.33
588.725	31.23
588.919	30.87
589.113	30.57
589.307	30.51
589.501	30.45
589.694	30.76
589.888	30.72
590.082	30.82
590.275	30.55
590.469	30.37
590.663	30.38
590.856	30.4
591.05	30.19
591.244	30.41
591.437	30.58
591.631	30.8
591.824	30.8
592.018	30.65
592.212	30.56
592.405	30.75
592.599	30.72
592.792	30.93
592.986	31.12
593.179	31.33
593.372	31.25
593.566	31.04
593.759	30.91
593.953	30.61
594.146	30.73
594.339	30.7
594.533	30.8
594.726	30.96
594.92	31
595.113	31.03
595.306	31.11
595.499	31.25
595.693	31.13
595.886	31.08
596.079	31.32
596.272	31.3
596.466	31.37
596.659	31.3
596.852	31.39
597.045	31.33
597.238	31.16
597.431	31.19
597.624	31.17
597.818	31.44
598.011	31.59
598.204	31.42
598.397	31.3
598.59	31.4
598.783	31.27
598.976	31.24
599.169	31.1
599.362	30.93
599.555	31.04
599.748	30.72
599.941	30.42
600.134	30.28
600.326	30.43
600.519	30.64
600.712	30.25
600.905	30.32
601.098	30.28
601.291	30.48
601.483	30.85
601.676	30.56
601.869	30.78
602.062	30.82
602.255	30.77
602.447	30.63
602.64	30.72
602.833	31.12
603.025	31.28
603.218	31.05
603.411	31.11
603.603	31.02
603.796	31.15
603.989	31.32
604.181	31.29
604.374	31.36
604.566	31.6
604.759	31.52
604.951	31.32
605.144	31.31
605.336	31.49
605.529	31.29
605.721	31.38
605.914	31.27
606.106	31.17
606.299	31.2
606.491	31.27
606.683	31.07
606.876	30.99
607.068	31.05
607.26	30.84
607.453	30.81
607.645	30.93
607.837	31.05
608.03	30.95
608.222	30.86
608.414	30.84
608.606	30.69
608.799	30.51
608.991	30.39
609.183	30.49
609.375	30.39
609.567	30.18
609.759	29.73
609.952	29.24
610.144	29.06
610.336	28.93
610.528	28.47
610.72	28.38
610.912	28.17
611.104	27.84
611.296	27.58
611.488	27.59
611.68	27.47
611.872	27.64
612.064	27.65
612.256	27.59
612.448	27.41
612.64	27.74
612.832	27.5
613.023	28.03
613.215	28.3
613.407	28.37
613.599	28.45
613.791	28.63
613.983	28.73
614.174	28.79
614.366	29.32
614.558	29.73
614.75	29.9
614.941	30.13
615.133	29.69
615.325	29.63
615.516	29.6
615.708	29.62
615.9	29.97
616.091	30.46
616.283	30.76
616.475	30.56
616.666	30.58
616.858	30.81
617.049	30.78
617.241	30.82
617.432	31
617.624	31.05
617.815	31.1
618.007	30.77
618.198	30.42
618.39	30.38
618.581	30.54
618.773	30.6
618.964	30.25
619.155	30.34
619.347	30.49
619.538	30.65
619.729	31.21
619.921	31.22
620.112	31.62
620.303	31.77
620.494	32.07
620.686	31.88
620.877	31.69
621.068	31.58
621.259	31.63
621.451	31.69
621.642	31.62
621.833	31.38
622.024	31.12
622.215	30.85
622.406	30.63
622.597	30.18
622.788	30.33
622.98	30.5
623.171	30.96
623.362	30.75
623.553	30.67
623.744	30.85
623.935	30.62
624.126	30.75
624.317	30.65
624.508	30.77
624.698	31.11
624.889	31.11
625.08	30.99
625.271	30.78
625.462	30.85
625.653	30.99
625.844	30.76
626.034	30.73
626.225	30.84
626.416	31.15
626.607	31.13
626.798	31.09
626.988	30.91
627.179	31.11
627.37	31.25
627.56	31.54
627.751	31.43
627.942	31.48
628.132	31.51
628.323	31.29
628.514	31.27
628.704	31.36
628.895	31.2
629.085	31.48
629.276	31.29
629.466	31.09
629.657	30.96
629.847	30.87
630.038	30.83
630.228	31.03
630.419	31.36
630.609	31.17
630.8	31.1
630.99	31.37
631.181	31.34
631.371	31.25
631.561	31.6
631.752	31.72
631.942	31.46
632.132	31.33
632.323	31.15
632.513	31.24
632.703	31.14
632.893	30.97
633.084	30.93
633.274	31.1
633.464	31.33
633.654	31.08
633.844	30.92
634.034	31.45
634.225	31.69
634.415	31.85
634.605	31.31
634.795	31.56
634.985	31.67
635.175	31.78
635.365	31.67
635.555	31.62
635.745	31.74
635.935	31.79
636.125	31.65
636.315	31.47
636.505	31.58
636.695	32.03
636.885	32
637.075	32.03
637.265	31.81
637.455	31.76
637.644	31.79
637.834	31.78
638.024	31.87
638.214	32.01
638.404	31.87
638.593	31.81
638.783	31.51
638.973	31.37
639.163	31.08
639.352	30.93
639.542	30.96
639.732	31.2
639.921	30.9
640.111	30.74
640.301	30.58
640.49	31.37
640.68	30.69
640.87	30.85
641.059	31.1
641.249	31.47
641.438	31.63
641.628	31.41
641.817	31.26
642.007	31.53
642.196	31.86
642.386	32.28
642.575	31.77
642.764	32.61
642.954	32.77
643.143	32.29
643.333	32.17
643.522	32.1
643.711	32.21
643.901	32.28
644.09	32
644.279	31.67
644.469	31.31
644.658	31.44
644.847	31.06
645.036	31.34
645.226	31.55
645.415	31.73
645.604	31.8
645.793	31.74
645.982	31.49
646.171	31.45
646.361	31.11
646.55	30.95
646.739	30.97
646.928	30.52
647.117	30.36
647.306	30.8
647.495	30.75
647.684	30.61
647.873	30.35
648.062	30.26
648.251	30.58
648.44	31.04
648.629	31.22
648.818	31.11
649.007	31.37
649.196	31.16
649.384	30.87
649.573	30.7
649.762	30.86
649.951	31.51
650.14	31.54
650.328	31.32
650.517	31.4
650.706	30.98
650.895	31.1
651.083	31.49
651.272	31.43
651.461	31.28
651.65	31.41
651.838	31.48
652.027	31.24
652.216	31.47
652.404	31.78
652.593	31.95
652.781	32.27
652.97	32.06
653.158	31.6
653.347	32.09
653.535	32.34
653.724	32.47
653.912	31.99
654.101	31.87
654.289	31.44
654.478	31.29
654.666	30.71
654.855	30.85
655.043	30.99
655.231	31.31
655.42	30.64
655.608	30.72
655.796	30.18
655.985	30.78
656.173	31.43
656.361	31.77
656.55	31.93
656.738	32.62
656.926	32.56
657.114	32.45
657.302	32.19
657.491	32.06
657.679	31.97
657.867	32.4
658.055	32.07
658.243	31.8
658.431	31.15
658.619	31.2
658.807	30.72
658.996	30.69
659.184	30.65
659.372	30.77
659.56	30.86
659.748	31.15
659.936	31.26
660.124	31.45
660.311	31.27
660.499	31.5
660.687	31.27
660.875	31.57
661.063	31.56
661.251	31.31
661.439	31.74
661.627	32.08
661.814	31.33
662.002	31.27
662.19	31.22
662.378	31
662.565	31.51
662.753	31.57
662.941	31.61
663.129	32.07
663.316	32.66
663.504	31.93
663.692	31.47
663.879	31.91
664.067	31.49
664.254	31.1
664.442	31.55
664.63	31.61
664.817	31.73
665.005	31.82
665.192	31.27
665.38	30.88
665.567	31.71
665.755	32.47
665.942	32.02
666.13	32.42
666.317	32.83
666.504	32.55
666.692	32.19
666.879	32.01
667.067	31.93
667.254	32.14
667.441	32.23
667.629	31.69
667.816	31.37
668.003	31.63
668.19	31.71
668.378	31.44
668.565	31.62
668.752	31.69
668.939	31.98
669.127	31.19
669.314	31.15
669.501	31.64
669.688	31.99
669.875	31.7
670.062	31.59
670.249	31.45
670.436	31.92
670.623	31.95
670.81	31.86
670.997	31.68
671.184	32.39
671.371	32.7
671.558	32.2
671.745	32.03
671.932	31.91
672.119	32
672.306	31.67
672.493	31.58
672.68	31.55
672.867	32.05
673.054	31.57
673.24	31.55
673.427	30.84
673.614	30.91
673.801	30.61
673.988	30.88
674.174	30.88
674.361	31.11
674.548	31.37
674.734	31.4
674.921	31.04
675.108	31.42
675.294	31.3
675.481	31.88
675.668	31.62
675.854	31.4
676.041	31.39
676.227	31.47
676.414	31.4
676.601	31.44
676.787	31.14
676.974	30.93
677.16	31.38
677.347	31.19
677.533	30.83
677.719	30.89
677.906	30.82
678.092	30.87
678.279	31.71
678.465	32.07
678.651	31.3
678.838	31.34
679.024	31.28
679.21	30.91
679.397	31.15
679.583	31.53
679.769	32.06
679.955	32.37
680.142	32.41
680.328	31.65
680.514	31.42
680.7	31.85
680.886	31.72
681.073	31.87
681.259	31.84
681.445	31.59
681.631	31.12
681.817	30.65
682.003	30.65
682.189	31.03
682.375	31.12
682.561	31.2
682.747	31.16
682.933	31.57
683.119	31.69
683.305	32.1
683.491	32.01
683.677	31.82
683.863	32.09
684.049	32.33
684.235	31.91
684.42	31.66
684.606	31.45
684.792	31.74
684.978	31.12
685.164	31.04
685.349	30.61
685.535	31.36
685.721	31.73
685.907	31.86
686.092	31.1
686.278	31.04
686.464	31.13
686.649	31.2
686.835	30.76
687.021	31.3
687.206	31.25
687.392	30.97
687.577	30.41
687.763	30.66
687.948	30.5
688.134	31.07
688.319	31.05
688.505	30.72
688.69	30.65
688.876	30.81
689.061	30.52
689.247	30.87
689.432	31.19
689.618	31.27
689.803	30.91
689.988	30.67
690.174	30.82
690.359	30.45
690.544	30.91
690.73	31.25
690.915	31
691.1	31.35
691.285	31.2
691.471	31.41
691.656	31.32
691.841	31.88
692.026	32.24
692.211	32.33
692.396	32.72
692.582	32.9
692.767	32.45
692.952	31.99
693.137	31.62
693.322	31.29
693.507	30.77
693.692	30.93
693.877	30.44
694.062	30.7
694.247	29.92
694.432	30.07
694.617	29.66
694.802	30.22
694.987	30.83
695.172	30.64
695.357	30.5
695.541	30.64
695.726	30.81
695.911	31.02
696.096	30.68
696.281	31.74
696.466	31.75
696.65	31.98
696.835	31.84
697.02	32.22
697.204	32.48
697.389	32.96
697.574	33.37
697.759	33.15
697.943	33.11
698.128	33.26
698.312	32.97
698.497	32.5
698.682	32.42
698.866	32.35
699.051	32.11
699.235	31.93
699.42	31.72
699.604	31.44
699.789	31.97
699.973	32.22
700.158	31.99
700.342	32.2
700.527	32.61
700.711	32.85
700.895	32.4
701.08	31.95
701.264	32.05
701.448	31.9
701.633	31.99
701.817	31.11
702.001	30.79
702.186	30.59
702.37	29.64
702.554	28.67
702.738	28.28
702.923	29.02
703.107	29.48
703.291	29.87
703.475	29.6
703.659	29.74
703.843	29.79
704.027	29.71
704.212	29.93
704.396	30.01
704.58	31.79
704.764	32.03
704.948	31.89
705.132	31.63
705.316	31.82
705.5	32.38
705.684	32.01
705.868	32.7
706.052	32.51
706.235	33.06
706.419	33.98
706.603	32.66
706.787	32.68
706.971	32.95
707.155	33
707.339	33.24
707.522	33.57
707.706	33.53
707.89	32.95
708.074	33.62
708.257	33
708.441	32.13
708.625	32.82
708.808	32.68
708.992	32.35
709.176	32.28
709.359	31.79
709.543	31.31
709.727	31.71
709.91	31.92
710.094	31.53
710.277	31.6
710.461	31.99
710.644	32.07
710.828	31.08
711.011	30.73
711.195	30.58
711.378	30.62
711.562	30.83
711.745	30.67
711.928	30.31
712.112	30.02
712.295	29.81
712.478	28.92
712.662	29.27
712.845	30.14
713.028	30.19
713.212	31.23
713.395	30.44
713.578	30.92
713.761	30.64
713.945	30.33
714.128	30.45
714.311	30.84
714.494	31.4
714.677	30.72
714.86	30.48
715.043	31.37
715.227	30.38
715.41	31.1
715.593	30.14
715.776	30.01
715.959	31.03
716.142	30.81
716.325	30.24
716.508	30.36
716.691	30.02
716.874	30.19
717.057	29.57
717.239	30.38
717.422	30.14
717.605	30.4
717.788	30.76
717.971	29.7
718.154	29.63
718.337	29.53
718.519	29.68
718.702	30.27
718.885	29.9
719.068	29.6
719.25	29.18
719.433	28.77
719.616	29.21
719.798	29.4
719.981	29.94
720.164	30.57
720.346	30.39
720.529	30.28
720.712	30.58
720.894	31.25
721.077	31.44
721.259	31.79
721.442	32.35
721.624	32.56
721.807	32.99
721.989	33.81
722.172	33.79
722.354	34.76
722.537	34.33
722.719	34.35
722.901	34.35
723.084	34.99
723.266	35.18
723.448	35.18
723.631	34.71
723.813	33.28
723.995	32.39
724.178	33.07
724.36	33.04
724.542	32.51
724.724	32.36
724.907	31.19
725.089	30.72
725.271	29.67
725.453	29.26
725.635	28.81
725.817	29.51
725.999	29.46
726.181	28.95
726.364	28.49
726.546	30.03
726.728	28.34
726.91	28.86
727.092	29.3
727.274	29.07
727.456	29.49
727.638	29.88
727.819	30.18
728.001	30.35
728.183	30.77
728.365	30.8
728.547	29.59
728.729	30.85
728.911	29.97
729.093	29.3
729.274	29.98
729.456	29.85
729.638	30.24
729.82	29.44
730.001	29.45
730.183	28.09
730.365	28.75
730.546	29.57
730.728	29.35
730.91	30.7
731.091	31.42
731.273	30.09
731.455	29.81
731.636	29.24
731.818	29.23
731.999	29.09
732.181	30.09
732.362	29.64
732.544	28.58
732.725	29.04
732.907	28.38
733.088	28.24
733.27	29.16
733.451	29.63
733.633	30.53
733.814	31.34
733.995	32.12
734.177	32.3
734.358	32.33
734.539	33.51
734.721	33.32
734.902	33.62
735.083	32.74
735.264	33.32
735.446	33.36
735.627	32.54
735.808	31.67
735.989	30.37
736.17	29.57
736.351	29.35
736.533	29.63
736.714	29.01
736.895	29.31
737.076	29.71
737.257	29.49
737.438	28.16
737.619	28.11
737.8	28.99
737.981	29.92
738.162	30.07
738.343	30.05
738.524	29.12
738.705	29.19
738.886	27.46
739.067	27.18
739.247	26.61
739.428	28.39
739.609	28.29
739.79	27.71
739.971	27.68
740.151	27.65
740.332	28.75
740.513	28.41
740.694	28.8
740.874	30.76
741.055	30.31
741.236	30.71
741.417	30.14
741.597	29.57
741.778	30.07
741.958	29.67
742.139	29.58
742.32	28.75
742.5	29.3
742.681	29.71
742.861	29.92
743.042	30.41
743.222	30.18
743.403	28
743.583	29.9
743.764	28.92
743.944	29.08
744.124	28.11
744.305	28.6
744.485	29.64
744.666	28.86
744.846	29.54
745.026	27.67
745.207	28.1
745.387	28.24
745.567	26.66
745.747	26.36
745.928	26.71
746.108	26.31
746.288	26.37
746.468	26.03
746.648	27.47
746.829	28
747.009	30.27
747.189	30.08
747.369	31.47
747.549	31.37
747.729	33.66
747.909	33.72
748.089	34.72
748.269	33.91
748.449	32.92
748.629	30.87
748.809	29.84
748.989	29.42
749.169	29.73
749.349	29.54
749.529	29
749.709	27.31
749.889	27.07
750.068	27.88
750.248	27.88
750.428	29.54
750.608	30.89
750.788	31.02
750.967	31.35
751.147	31.93
751.327	31.3
751.507	31.39
751.686	31.5
751.866	31.7
752.046	30.86
752.225	30.91
752.405	29.3
752.585	28.6
752.764	28.7
752.944	28.91
753.123	29.15
753.303	30.56
753.482	30.71
753.662	30.93
753.841	29.07
754.021	30.16
754.2	31.48
754.38	31.99
754.559	32.55
754.739	32.51
754.918	31.09
755.097	29.07
755.277	28.86
755.456	28.48
755.635	28.25
755.815	28.54
755.994	27.94
756.173	26.87
756.352	26.87
756.532	25.3
756.711	24.51
756.89	24.57
757.069	25.74
757.248	24.77
757.427	25.76
757.607	25.67
757.786	27.53
757.965	27.14
758.144	26.79
758.323	26.55
758.502	27.59
758.681	26.64
758.86	28.12
759.039	27.5
759.218	28.15
759.397	27.78
759.576	27.26
759.755	26.29
759.934	27.68
760.113	27.52
760.291	27.95
760.47	28.5
760.649	30.29
760.828	30.52
761.007	32.22
761.186	33.17
761.364	33.75
761.543	34.38
761.722	34.39
761.901	33.03
762.079	33.03
762.258	32.34
762.437	31.48
762.615	30.77
762.794	29.94
762.972	29.17
763.151	28.46
763.33	28.75
763.508	29.11
763.687	29.53
763.865	29.76
764.044	30.29
764.222	30.21
764.401	30.56
764.579	30.87
764.758	30.87
764.936	31.22
765.114	30.74
765.293	30.87
765.471	30.59
765.65	31.03
765.828	30.97
766.006	30.43
766.184	30.43
766.363	30.51
766.541	30.23
766.719	31.29
766.898	31.5
767.076	32.56
767.254	33.09
767.432	32.21
767.61	31.12
767.788	31.19
767.967	30.98
768.145	31.01
768.323	32.23
768.501	31.67
768.679	30.32
768.857	28.56
769.035	28.18
769.213	28.13
769.391	29.63
769.569	29.88
769.747	28.23
769.925	26.48
770.103	26.5
770.281	26.86
770.459	27.64
770.636	28.63
770.814	29.35
770.992	29.95
771.17	28.76
771.348	29.5
771.525	27.22
771.703	28.23
771.881	31.59
772.059	32.28
772.236	28.88
772.414	30.29
772.592	31.92
772.769	32.58
772.947	32.93
773.125	32.49
773.302	30.02
773.48	32.52
773.657	33.44
773.835	31.27
774.013	31.66
774.19	33.41
774.368	32.18
774.545	28.88
774.723	26.73
774.9	26.24
775.077	25
775.255	27.47
775.432	27.22
775.61	26.55
775.787	28.13
775.964	27.47
776.142	26.47
776.319	26.47
776.496	28.02
776.674	28.65
776.851	29.08
777.028	30.76
777.205	31.07
777.382	31.29
777.56	30.71
777.737	29.68
777.914	30.76
778.091	30.11
778.268	28.8
778.445	29.62
778.622	30.61
778.8	29.86
778.977	29.8
779.154	29.29
779.331	28.35
779.508	29.99
779.685	31.01
779.862	28.39
780.038	30.07
780.215	32.62
780.392	33.94
780.569	33.68
780.746	31.41
780.923	29.63
781.1	28.95
781.277	29.3
781.453	27.76
781.63	24.81
781.807	23.06
781.984	22.67
782.16	22.63
782.337	21.38
782.514	21.27
782.691	20.85
782.867	22.68
783.044	21.56
783.221	19.15
783.397	21.31
783.574	23.76
783.75	26.33
783.927	26.39
784.103	25.29
784.28	23.79
784.456	21.15
784.633	25.3
784.809	24.41
784.986	27
785.162	28.78
785.339	27.34
785.515	27.93
785.692	30.46
785.868	28.56
786.044	27.26
786.221	23.79
786.397	25.47
786.573	25.24
786.749	26.51
786.926	24.83
787.102	25.58
787.278	25.17
787.454	26.08
787.631	26.63
787.807	29.12
787.983	27.14
788.159	30.4
788.335	32.11
788.511	31.09
788.687	30.78
788.863	28.53
789.039	29.45
789.216	29.37
789.392	27.32
789.568	23.2
789.744	23.53
789.919	24.44
790.095	25.92
790.271	25.23
790.447	23.66
790.623	23.56
790.799	22.69
790.975	22.63
791.151	22.38
791.327	22.82
791.502	27.39
791.678	27.77
791.854	29.04
792.03	28.21
792.205	28.71
792.381	29.88
792.557	30.13
792.733	33.2
792.908	35.39
793.084	35.65
793.259	36.87
793.435	33.27
793.611	31.96
793.786	28.12
793.962	25.84
794.137	25.77
794.313	26.87
794.488	24.14
794.664	22.76
794.839	18.41
795.015	19.14
795.19	19.07
795.366	20.98
795.541	22.26
795.716	23.72
795.892	26.39
796.067	27
796.242	25.11
796.418	27.91
796.593	32.16
796.768	32.05
796.944	32.74
797.119	34.1
797.294	35.07
797.469	35.7
797.644	36.41
797.82	32.74
797.995	31.65
798.17	32.33
798.345	33.47
798.52	34.91
798.695	35.36
798.87	33.64
799.045	31.23
799.22	29.71
799.395	26.63
799.57	29.35
799.745	32.32
799.92	30.22
800.095	28.2
800.27	23.07
800.445	17.77
800.62	16.89
800.795	16.57
800.97	17.94
801.145	14.96
801.319	15.35
801.494	12.83
801.669	12.12
801.844	13.31
802.018	14.89
802.193	20.52
802.368	24.4
802.543	26.7
802.717	26.31
802.892	26.65
803.067	28.44
803.241	29.97
803.416	28.89
803.59	25.18
803.765	24.58
803.94	26.67
804.114	23.31
804.289	17.89
804.463	16.84
804.638	20.13
804.812	22.82
804.986	22.8
805.161	22.28
805.335	20.1
805.51	23.82
805.684	24.79
805.858	25.85
806.033	29.78
806.207	33.02
806.381	33.19
806.556	31.38
806.73	30.08
806.904	33.07
807.078	31.27
807.253	33.29
807.427	32.65
807.601	34.49
807.775	32.57
807.949	31.17
808.123	29.87
808.298	30.18
808.472	29.3
808.646	31.29
808.82	31.01
808.994	33.45
809.168	34.64
809.342	35.26
809.516	37.03
809.69	33.3
809.864	35.23
810.038	32.62
810.212	32.84
810.385	32.27
810.559	30.98
810.733	27.41
810.907	25.69
811.081	24.9
811.255	23.88
811.428	20.89
811.602	27.66
811.776	23.34
811.95	25.96
812.123	24.93
812.297	23.1
812.471	24.71
812.644	28.67
812.818	30.28
812.992	31.75
813.165	31.99
813.339	31.91
813.512	32.01
813.686	31.35
813.86	33.49
814.033	30.27
814.207	38.39
814.38	34.8
814.554	34.74
814.727	34.75
814.9	34.89
815.074	34.17
815.247	32.55
815.421	30.71
815.594	31.2
815.767	30.85
815.941	34.18
816.114	28.57
816.287	28.94
816.46	26.31
816.634	27.05
816.807	26.23
816.98	28.84
817.153	32.14
817.327	29.09
817.5	27.45
817.673	25.85
817.846	22.5
818.019	28.28
818.192	27.76
818.365	29.71
818.538	27.66
818.711	22.59
818.884	20.05
819.057	16.81
819.23	19.12
819.403	17.94
819.576	18.86
819.749	20.58
819.922	18.32
820.095	18.52
820.268	18.89
820.441	15.82
820.614	21.01
820.786	21.28
820.959	23.04
821.132	26.79
821.305	28.63
821.477	28.72
821.65	30.02
821.823	31.62
821.996	31.65
822.168	31.74
822.341	31.74
822.514	32.12
822.686	31.43
822.859	31.75
823.031	31.27
823.204	31.31
823.376	31.57
823.549	31.29
823.722	30.31
823.894	30.24
824.067	29.79
824.239	30.01
824.411	29.49
824.584	29.77
824.756	29.66
824.929	29.15
825.101	29.25
825.273	29.27
825.446	28.35
825.618	27.94
825.79	27.41
825.963	27.94
826.135	30.27
826.307	29.72
826.479	30.63
826.652	30.58
826.824	29.56
826.996	29.57
827.168	29.25
827.34	29.66
827.512	30.02
827.684	30.79
827.856	30.38
828.029	28.39
828.201	28.87
828.373	28.7
828.545	28.73
828.717	29.86
828.889	28.67
829.061	28.74
829.232	28.44
829.404	30.34
829.576	31.33
829.748	30.53
829.92	32.95
830.092	31.11
830.264	29.34
830.436	27.4
830.607	26.41
830.779	28.63
830.951	28.7
831.123	31.82
831.294	26.99
831.466	24.97
831.638	26.15
831.809	22.71
831.981	24.26
832.153	24.35
832.324	27.01
832.496	29.04
832.667	23.22
832.839	22.27
833.011	21.43
833.182	23.89
833.354	21.02
833.525	20.53
833.697	20.7
833.868	22.97
834.039	25.57
834.211	23.8
834.382	24.1
834.554	29.38
834.725	28.87
834.896	24.85
835.068	25.3
835.239	27.45
835.41	26.72
835.581	25.64
835.753	24.93
835.924	23.36
836.095	25.93
836.266	22.81
836.438	19.34
836.609	19.76
836.78	22.6
836.951	22.2
837.122	19.02
837.293	22
837.464	23.84
837.635	21.95
837.806	26.08
837.977	22.56
838.148	18.45
838.319	17.19
838.49	16.88
838.661	16.63
838.832	12.15
839.003	11.94
839.174	13.72
839.345	13.01
839.516	14.27
839.687	5.38
839.857	0.27
840.028	5.71
840.199	9.9
840.37	-0.86
840.54	-1.49
840.711	4.94
840.882	7.82
841.053	5.32
841.223	10.28
841.394	6.88
841.564	8.7
841.735	21.85
841.906	23.46
842.076	21.97
842.247	40.9
842.417	36.77
842.588	33.75
842.758	28.58
842.929	30.92
843.099	26.27
843.27	30.86
843.44	41.85
843.611	35.46
843.781	41.86
843.951	48.45
844.122	43.73
844.292	54.27
844.462	46.61
844.633	49.39
844.803	49.02
844.973	47.81
845.144	47.77
845.314	39.92
845.484	41.62
845.654	38.81
845.824	36.63
845.995	39.38
846.165	41.27
846.335	41.1
846.505	46.23
846.675	43.71
846.845	43.31
847.015	48.74
847.185	45.76
847.355	45.07
847.525	38.94
847.695	35.57
847.865	29.24
848.035	24.92
848.205	16.98
848.375	5.45
848.545	-11.27
848.715	7.19
848.884	9.09
849.054	2.95
849.224	-11.08
849.394	3.14
849.564	-3.44
849.733	-0.01
849.903	8.22
850.073	27.48
850.243	47.64
850.412	66.5
850.582	76.79
850.752	57.84
850.921	62.58
851.091	54.61
851.26	53.21
851.43	35.4
851.599	33.41
851.769	15.7
851.939	-4.32
852.108	-5.98
852.278	0.8
852.447	0.43
852.616	-9.12
852.786	-20.24
852.955	-9.24
853.125	-8.19
853.294	17.99
853.463	15.48
853.633	23.39
853.802	24.73
853.971	31.32
854.141	5.4
854.31	-10.85
854.479	11.8
854.648	24.82
854.818	17.05
854.987	11.38
855.156	24.28
855.325	15.7
855.494	17.74
855.663	40.99
855.832	10.59
856.001	35.65
856.171	26.91
856.34	20.62
856.509	15.16
856.678	15.69
856.847	12.62
857.016	-15.48
857.185	10.05
857.353	-3.38
857.522	-8.61
857.691	-4.86
857.86	-20.67
858.029	21.35
858.198	16.88
858.367	9.01
858.535	16.23
858.704	25.19
858.873	35.2
859.042	25.5
859.21	47.82
859.379	47.86
859.548	69.99
859.717	69.44
859.885	49.01
860.054	60.29
860.222	54.23
860.391	71.83
860.56	79.76
860.728	76.88
860.897	77.12
861.065	64.3
861.234	75.41
861.402	57.54
861.571	59.48
861.739	87.13
861.908	90.17
862.076	100.78
862.244	103.28
862.413	96.39
862.581	124.48
862.749	107.17
862.918	90.83
863.086	48.95
863.254	34.15
863.423	24.77
863.591	15.03
863.759	-42.96
863.927	-14.12
864.096	-4.08
864.264	-53.56
864.432	-54.52
864.6	-54.66
864.768	-33.08
864.936	-5.58
865.104	5.91
865.272	24.44
865.44	-1
865.608	27.17
865.776	37.47
865.944	36.67
866.112	32.18
866.28	40.04
866.448	69.9
866.616	66.57
866.784	52.81
866.952	58.35
867.12	39.36
867.288	50.94
867.455	35.14
867.623	18.93
867.791	14.72
867.959	34.35
868.127	73.99
868.294	15.39
868.462	34.14
868.63	44.77
868.797	10.52
868.965	14.68
869.133	-14.91
869.3	6.93
869.468	-14.22
869.636	-16.84
869.803	0.69
869.971	-33.84
870.138	-6.78
870.306	-29.77
870.473	63.94
870.641	40.84
870.808	64.95
870.975	112.32
871.143	65.58
871.31	60
871.478	31.38
871.645	12.85
871.812	15.96
871.98	8.26
872.147	-9.36
872.314	-25.52
872.482	-13.35
872.649	-64.48
872.816	-97.16
872.983	-102.56
873.15	-74.24
873.318	-28.95
873.485	-17.74
873.652	-33.88
873.819	-9.52
873.986	21.79
874.153	9.89
874.32	40.23
874.487	55.71
874.654	51.23
874.821	61.62
874.988	52.9
875.155	82.76
875.322	116.37
875.489	111.97
875.656	109.47
875.823	80.67
875.99	89.02
876.157	58.9
876.324	39.21
876.49	63.86
876.657	64.94
876.824	72.78
876.991	54.76
877.157	31.71
877.324	46.26
877.491	40.85
877.658	85.58
877.824	62.74
877.991	55.46
878.157	70.34
878.324	27.69
878.491	-45.25
878.657	19.31
878.824	17.14
878.99	24.49
879.157	-2.6
879.323	-11.93
879.49	-21.04
879.656	-16.22
879.823	-22.02
879.989	-5.51
880.156	-16.43
880.322	-30.04
880.488	-36.18
880.655	-31.35
880.821	-37.75
880.987	-10.82
881.154	-6.71
881.32	-8.65
881.486	5.53
881.652	22.46
881.819	18.54
881.985	24.76
882.151	34.32
882.317	31.58
882.483	30
882.649	32.07
882.816	29.39
882.982	28.61
883.148	26.97
883.314	27.36
883.48	28.04
883.646	27.85
883.812	26.99
883.978	27.65
884.144	28.32
884.31	30.61
884.476	29.44
884.642	28.73
884.807	29.14
884.973	31.56
885.139	31.31
885.305	27.05
885.471	26.96
885.637	29.47
885.802	28.44
885.968	27.54
886.134	24.67
886.3	26.49
886.465	28.67
886.631	26.32
886.797	17.28
886.962	17.39
887.128	15.07
887.293	14.4
887.459	14.65
887.625	6.32
887.79	2.93
887.956	3.01
888.121	-15.67
888.287	-38.9
888.452	-29.7
888.618	-1.3
888.783	-6.32
