Data from 2938042_Reflection_2.txt Node
Date: Sun Jul 12 14:35:08 EDT 2015
User: robert
Spectrometer: USB4E03001
Autoset integration time: false
Trigger mode: 4
Integration Time (sec): 1.000000E-1
Scans to average: 10
Electric dark correction enabled: true
Nonlinearity correction enabled: false
Boxcar width: 5
Stray light correction enabled: false
XAxis mode: Wavelengths
Stop averaging: false
Number of Pixels in Spectrum: 3648
>>>>>Begin Spectral Data<<<<<
177.566	205.53
177.785	413.18
178.005	-20406.25
178.225	271.91
178.445	198.81
178.665	111.76
178.885	96.06
179.105	178.45
179.324	360.46
179.544	-1322.78
179.764	2225.55
179.984	-692.4
180.204	-291.91
180.423	-134.71
180.643	-187.42
180.863	-131.15
181.083	-169.79
181.302	-136.81
181.522	-61.17
181.742	-31.81
181.961	-56.74
182.181	-36
182.401	-7.43
182.621	-9.4
182.84	-29.27
183.06	-31.33
183.279	-70.86
183.499	-23.97
183.719	-5.6
183.938	-15.76
184.158	6.12
184.377	26.89
184.597	29.51
184.816	30.46
185.036	20.24
185.256	35.7
185.475	23.61
185.695	32.99
185.914	17.9
186.134	6.56
186.353	10.26
186.572	-2.07
186.792	-37.69
187.011	-45.12
187.231	-20.24
187.45	-10.24
187.67	-25.13
187.889	13.66
188.108	21.06
188.328	0.69
188.547	11.89
188.766	6.33
188.986	-20.36
189.205	12.98
189.424	-75.36
189.644	-147.7
189.863	-46.39
190.082	-9.62
190.302	8.62
190.521	-31.46
190.74	1.57
190.959	-12.32
191.178	-42.66
191.398	-48.54
191.617	-213
191.836	18.37
192.055	51.44
192.274	5
192.494	53.45
192.713	-355.82
192.932	659.85
193.151	8.72
193.37	13222.22
193.589	-23.48
193.808	-23.3
194.027	1.36
194.246	-2.25
194.465	-42.41
194.685	3.67
194.904	-66.91
195.123	-94.51
195.342	-118.65
195.561	848.47
195.78	195.14
195.999	66.28
196.218	42.04
196.436	-311.45
196.655	-240
196.874	1.56
197.093	-73.09
197.312	-2.26
197.531	-17.67
197.75	8.92
197.969	7.66
198.188	32.84
198.407	29.39
198.625	40.73
198.844	49.3
199.063	43.14
199.282	46.14
199.501	59.9
199.719	56.33
199.938	55.21
200.157	39.89
200.376	40.55
200.594	16.48
200.813	12.86
201.032	8.12
201.251	-1.58
201.469	17.46
201.688	22.71
201.907	22.89
202.125	-16.31
202.344	-2.62
202.563	-20.7
202.781	-18.85
203	18.5
203.218	30.17
203.437	23.39
203.656	32.45
203.874	20.67
204.093	-2.46
204.311	-15.65
204.53	23.52
204.748	9.5
204.967	-15.44
205.185	-49.25
205.404	-397.02
205.622	367.39
205.841	440.52
206.059	2385.79
206.278	1255.47
206.496	673.86
206.715	-2744.96
206.933	-500
207.151	-2477.31
207.37	-110.72
207.588	-97.02
207.806	-39.35
208.025	-17.61
208.243	-2.68
208.461	21.76
208.68	15.04
208.898	-19.62
209.116	-4.41
209.335	3.33
209.553	-31.45
209.771	-21.45
209.989	2.09
210.208	4.72
210.426	-8.21
210.644	-24.05
210.862	-92.65
211.081	-258.33
211.299	-220.06
211.517	-1035.48
211.735	-1049.24
211.953	-1396.02
212.171	-1823.11
212.39	277
212.608	251.66
212.826	1151.75
213.044	-332.85
213.262	-131.91
213.48	-120.05
213.698	-137.55
213.916	-33.27
214.134	-43.81
214.352	10.45
214.57	7.3
214.788	9.76
215.006	20.32
215.224	52.9
215.442	44.55
215.66	54.4
215.878	51.12
216.096	33.8
216.314	-9.03
216.532	-22.89
216.75	-19.98
216.968	-17.75
217.185	-27.95
217.403	-21.08
217.621	-40
217.839	-45.29
218.057	-84.65
218.275	-33.72
218.492	-16.83
218.71	6.66
218.928	21.46
219.146	16.81
219.363	5.48
219.581	14.76
219.799	15.28
220.017	20.59
220.234	13.92
220.452	0.69
220.67	-10.32
220.887	-19.17
221.105	-19.82
221.323	-21.15
221.54	-36.83
221.758	-14.43
221.976	-0.89
222.193	-1.9
222.411	-53.77
222.629	-48.14
222.846	-17.28
223.064	29
223.281	51.74
223.499	30.81
223.716	22.95
223.934	38.06
224.151	16.44
224.369	5.91
224.586	16.64
224.804	35.58
225.021	20.56
225.239	18.09
225.456	6.09
225.674	-3.69
225.891	-10.82
226.108	-1.69
226.326	-13.42
226.543	3.75
226.76	5.88
226.978	-0.36
227.195	2.55
227.413	11.53
227.63	15.71
227.847	11.99
228.064	4.27
228.282	9.19
228.499	7.33
228.716	6.65
228.934	7.65
229.151	7.99
229.368	7.41
229.585	7.67
229.802	6.2
230.02	2.34
230.237	3.04
230.454	8.73
230.671	10.65
230.888	8.23
231.105	11.47
231.323	9.05
231.54	10.1
231.757	6.82
231.974	6.87
232.191	6.62
232.408	9.72
232.625	6.4
232.842	2.27
233.059	-1.69
233.276	-2.73
233.493	-6.4
233.71	-7.78
233.927	-9.11
234.144	-4.36
234.361	-3.88
234.578	-2.77
234.795	-2.87
235.012	4.25
235.229	3.5
235.446	1.17
235.663	4.29
235.879	6.33
236.096	6.43
236.313	10.25
236.53	5.36
236.747	9.69
236.964	9.24
237.181	11.29
237.397	2.83
237.614	1.67
237.831	0.93
238.048	-1.55
238.264	-4
238.481	-3.44
238.698	-4.45
238.915	4.86
239.131	5.46
239.348	5.19
239.565	-0.94
239.781	4.06
239.998	7.6
240.215	12.21
240.431	13.24
240.648	15.47
240.865	12.58
241.081	14
241.298	9.58
241.514	9.79
241.731	11.08
241.947	13.14
242.164	13.6
242.38	14.6
242.597	12.92
242.814	12.78
243.03	11.29
243.246	13.22
243.463	10.83
243.679	11.98
243.896	9.46
244.112	9.28
244.329	6.74
244.545	4.85
244.762	0.76
244.978	1.15
245.194	1.01
245.411	4.66
245.627	3.08
245.843	4.86
246.06	3.72
246.276	5.27
246.492	6.49
246.709	7.86
246.925	8.97
247.141	9.96
247.357	9.34
247.574	9.9
247.79	9.71
248.006	9.01
248.222	8.6
248.439	8.87
248.655	9.35
248.871	8.78
249.087	9.31
249.303	7.74
249.519	6.68
249.736	8.37
249.952	7.47
250.168	7.13
250.384	8.8
250.6	8.72
250.816	9.98
251.032	10.82
251.248	8.36
251.464	6.97
251.68	7.19
251.896	7.78
252.112	6.2
252.328	6.17
252.544	5.25
252.76	3.79
252.976	3.19
253.192	0.55
253.408	-1.54
253.624	-2.24
253.84	-3.73
254.056	-2.66
254.272	-5.29
254.487	-6.32
254.703	-3.94
254.919	-2.18
255.135	0.93
255.351	2.45
255.567	6.08
255.782	8.37
255.998	8.95
256.214	9.96
256.43	7.09
256.646	9.06
256.861	9.91
257.077	6.01
257.293	5.13
257.508	3.58
257.724	3.57
257.94	3.98
258.155	1.89
258.371	3.85
258.587	5.86
258.802	8.74
259.018	8.23
259.234	8.91
259.449	9.01
259.665	8.78
259.88	9.98
260.096	10.8
260.312	10.37
260.527	10.42
260.743	10.13
260.958	9.55
261.174	8.45
261.389	9.4
261.605	8.68
261.82	8.35
262.036	7.84
262.251	6.23
262.466	6.33
262.682	6.12
262.897	6.47
263.113	6.11
263.328	5.45
263.543	5.66
263.759	2.93
263.974	3.84
264.189	4.84
264.405	5.54
264.62	6.03
264.835	5.22
265.051	5.69
265.266	7.08
265.481	8.05
265.696	9.88
265.912	8.16
266.127	9.85
266.342	8.07
266.557	6.98
266.773	6.3
266.988	7.09
267.203	5.53
267.418	6.76
267.633	4.67
267.848	4.36
268.064	3.35
268.279	4.31
268.494	3.18
268.709	3.04
268.924	3.68
269.139	4.12
269.354	5.02
269.569	5.38
269.784	3.92
269.999	4.85
270.214	5.26
270.429	6.47
270.644	5.89
270.859	7.03
271.074	5.9
271.289	7.52
271.504	8.13
271.719	6.56
271.934	6.66
272.149	7.03
272.363	6.26
272.578	6.28
272.793	5.33
273.008	6.26
273.223	5.78
273.438	6.48
273.653	5.15
273.867	3.85
274.082	3.33
274.297	3.81
274.512	3.34
274.726	3.77
274.941	3.2
275.156	2.82
275.371	1.81
275.585	2.57
275.8	4.43
276.015	4.09
276.229	5.34
276.444	6.09
276.659	4.25
276.873	5.17
277.088	5.69
277.302	4.76
277.517	3.51
277.732	4.36
277.946	3.2
278.161	1.64
278.375	2.39
278.59	2.06
278.804	2.75
279.019	4.79
279.233	2.98
279.448	2.23
279.662	3.55
279.877	5.59
280.091	5.76
280.306	5.28
280.52	4.19
280.735	3.97
280.949	2.57
281.163	3.47
281.378	1.6
281.592	2.77
281.806	2
282.021	1.81
282.235	1.14
282.449	1.47
282.664	2.09
282.878	3.35
283.092	3.59
283.307	3.82
283.521	2.92
283.735	3.88
283.949	4.55
284.164	6.38
284.378	7.36
284.592	8.02
284.806	7.12
285.02	7.08
285.234	7.26
285.449	6.26
285.663	6.79
285.877	6.89
286.091	8.02
286.305	6.77
286.519	6.26
286.733	4.81
286.947	3.59
287.161	3.26
287.375	3.32
287.589	4.12
287.803	5
288.017	5.09
288.231	4.05
288.445	2.39
288.659	2.72
288.873	2.13
289.087	1.77
289.301	1.93
289.515	2.73
289.729	3.51
289.943	3.06
290.157	2.69
290.371	3.67
290.584	3.94
290.798	4.61
291.012	4.54
291.226	5.13
291.44	6.54
291.654	6.58
291.867	5.39
292.081	5.12
292.295	4.3
292.509	6.28
292.722	4.82
292.936	4.62
293.15	3.9
293.364	5.03
293.577	5.56
293.791	4.91
294.005	5.78
294.218	7.28
294.432	5.52
294.645	5.95
294.859	5.04
295.073	5.65
295.286	7.37
295.5	7.61
295.713	7.95
295.927	7.81
296.14	8.22
296.354	7.97
296.568	8.87
296.781	10.39
296.994	10.45
297.208	9.59
297.421	9.63
297.635	8.99
297.848	7.81
298.062	7.38
298.275	8.05
298.489	8.32
298.702	8.45
298.915	6.8
299.129	5.9
299.342	6.18
299.555	8.02
299.769	7.45
299.982	8.09
300.195	10.02
300.409	9.91
300.622	8.47
300.835	8.88
301.048	7.73
301.262	8.44
301.475	8.14
301.688	6.87
301.901	5.71
302.115	6.88
302.328	5.06
302.541	5.17
302.754	3.87
302.967	4.5
303.18	3.86
303.393	6.65
303.607	4.99
303.82	4.43
304.033	6.31
304.246	6.94
304.459	6.77
304.672	7.42
304.885	6.69
305.098	7.19
305.311	8.07
305.524	7.89
305.737	5.24
305.95	6.4
306.163	7.72
306.376	8.03
306.589	7.21
306.802	6.43
307.015	5.68
307.228	7.29
307.44	7.25
307.653	7.33
307.866	7.99
308.079	8.56
308.292	8.96
308.505	8.82
308.718	7.54
308.93	7.8
309.143	7.21
309.356	8.61
309.569	7.42
309.781	8.44
309.994	7.8
310.207	7.75
310.42	8.28
310.632	8.43
310.845	9.84
311.058	9.83
311.27	9.75
311.483	10.37
311.696	11.05
311.908	11.9
312.121	11.91
312.333	12.37
312.546	11.39
312.759	11.77
312.971	11.41
313.184	9.39
313.396	9.31
313.609	8.71
313.821	9.14
314.034	7.73
314.246	5.98
314.459	6.38
314.671	5.56
314.884	7.04
315.096	6.59
315.309	7.45
315.521	6.29
315.733	6.39
315.946	5.99
316.158	6.18
316.371	6.06
316.583	6.71
316.795	6.92
317.008	7.17
317.22	6.08
317.432	5.62
317.644	6.81
317.857	8.77
318.069	9.29
318.281	9.92
318.494	9.86
318.706	9.73
318.918	10.7
319.13	8.97
319.342	8.69
319.555	9.31
319.767	10.56
319.979	9.1
320.191	9.07
320.403	9.21
320.615	8.72
320.827	8.75
321.039	8.81
321.252	7.72
321.464	8.26
321.676	8.3
321.888	6.49
322.1	5.52
322.312	5.52
322.524	4.67
322.736	5.05
322.948	6.93
323.16	7.64
323.372	8.73
323.584	8.37
323.796	9.32
324.007	8.02
324.219	9.87
324.431	9.46
324.643	9.88
324.855	10.43
325.067	10.12
325.279	9.77
325.491	9.71
325.702	9.2
325.914	9.97
326.126	8.73
326.338	8.72
326.55	6.99
326.761	7.39
326.973	6.4
327.185	6.89
327.396	6.95
327.608	5.76
327.82	5.18
328.032	5.73
328.243	5.23
328.455	4.93
328.666	6.42
328.878	7.95
329.09	7.59
329.301	8.53
329.513	7.89
329.725	8.69
329.936	9.83
330.148	8.26
330.359	6.64
330.571	7.26
330.782	8.45
330.994	9.57
331.205	8.59
331.417	10.26
331.628	8.04
331.84	7.91
332.051	7.28
332.262	4.99
332.474	6.89
332.685	8.11
332.897	8.6
333.108	9.28
333.319	7.54
333.531	7.96
333.742	7.16
333.953	8.27
334.165	9.06
334.376	8.31
334.587	10.06
334.799	10.61
335.01	10.66
335.221	9.21
335.432	9.52
335.644	10.41
335.855	10.38
336.066	10.8
336.277	10.62
336.488	10.41
336.7	10.76
336.911	11.52
337.122	10.67
337.333	10.56
337.544	11.73
337.755	10.45
337.966	10.55
338.177	11.52
338.388	10.38
338.599	11.97
338.811	11.81
339.022	11.92
339.233	11.37
339.444	11.24
339.655	10.62
339.866	10.76
340.076	10.79
340.287	10.06
340.498	9.14
340.709	9.6
340.92	9.7
341.131	9.53
341.342	9.54
341.553	8.13
341.764	8.13
341.975	7.95
342.185	7.79
342.396	7.42
342.607	9
342.818	10.14
343.029	10.63
343.239	9.25
343.45	9.93
343.661	9.32
343.872	10.26
344.082	11.7
344.293	11.72
344.504	12.05
344.714	13.63
344.925	12.36
345.136	11.83
345.346	12.35
345.557	13.03
345.768	11.95
345.978	11.36
346.189	12.12
346.399	10.83
346.61	12
346.821	12.67
347.031	11.75
347.242	11.91
347.452	12.27
347.663	11.95
347.873	12.34
348.084	13.15
348.294	14.02
348.504	13.5
348.715	13.44
348.925	12.84
349.136	11.88
349.346	11.14
349.557	11.95
349.767	10.86
349.977	10.28
350.188	10.71
350.398	11.66
350.608	11.86
350.819	11.82
351.029	12.8
351.239	13.19
351.449	12.83
351.66	12.92
351.87	11.89
352.08	12.2
352.29	13.38
352.501	13.05
352.711	14.13
352.921	14.02
353.131	13.76
353.341	14.85
353.552	13.98
353.762	13.57
353.972	13.64
354.182	14.56
354.392	13.51
354.602	12.78
354.812	12.59
355.022	10.89
355.232	11.15
355.442	12.31
355.652	10.31
355.862	10.04
356.072	9.94
356.282	10.02
356.492	9.73
356.702	11.47
356.912	10.87
357.122	11.26
357.332	11.28
357.542	11.59
357.752	11.05
357.962	10.71
358.171	10.45
358.381	11.32
358.591	11.93
358.801	11.89
359.011	10.66
359.221	10.96
359.43	10.2
359.64	9.29
359.85	8.89
360.06	8.84
360.269	9.88
360.479	10.54
360.689	10.55
360.899	10.34
361.108	9.49
361.318	10.71
361.528	10.65
361.737	10.57
361.947	10.52
362.156	10.31
362.366	10.09
362.576	9.72
362.785	9.3
362.995	8.08
363.204	7.58
363.414	8.4
363.623	7.4
363.833	7.39
364.042	7.02
364.252	8
364.461	8.55
364.671	8.38
364.88	8.59
365.09	8.75
365.299	9.58
365.509	10.36
365.718	10.38
365.927	11.32
366.137	11.36
366.346	11.9
366.555	11.54
366.765	10.76
366.974	11.87
367.183	11.01
367.393	11.21
367.602	10.91
367.811	10.6
368.021	10.51
368.23	8.8
368.439	9.12
368.648	8.49
368.857	8.27
369.067	8.81
369.276	7.23
369.485	7.6
369.694	7.75
369.903	8.56
370.112	8.61
370.321	7.86
370.531	8.59
370.74	7.86
370.949	8.39
371.158	8.82
371.367	9.16
371.576	9.47
371.785	9.39
371.994	9.71
372.203	9.37
372.412	8.37
372.621	8.95
372.83	8.79
373.039	9.58
373.248	9.79
373.457	9.38
373.666	9.29
373.874	8.85
374.083	8.81
374.292	8.43
374.501	8.68
374.71	10.09
374.919	9.76
375.128	9.32
375.336	9.05
375.545	9.32
375.754	8.98
375.963	7.84
376.171	7.98
376.38	7.63
376.589	6.54
376.798	6.49
377.006	6
377.215	6.19
377.424	6.21
377.632	5.77
377.841	5.98
378.05	6.25
378.258	7.33
378.467	7.28
378.675	7.77
378.884	9.27
379.093	8.83
379.301	8.73
379.51	8.8
379.718	9.03
379.927	9.08
380.135	8.28
380.344	8.8
380.552	8.31
380.761	8.95
380.969	9.11
381.177	8.26
381.386	8.36
381.594	8.41
381.803	8.17
382.011	8.24
382.219	8.57
382.428	8.38
382.636	7.73
382.845	7.75
383.053	7.57
383.261	7.75
383.469	7.97
383.678	8.19
383.886	7.85
384.094	8.13
384.302	8.2
384.511	7.61
384.719	7.92
384.927	8.31
385.135	8.13
385.343	8.16
385.552	7.69
385.76	7.52
385.968	7.17
386.176	7.31
386.384	6.9
386.592	6.81
386.8	7.18
387.008	7.29
387.216	6.66
387.424	6.73
387.633	6.1
387.841	6.35
388.049	6.52
388.257	6.49
388.465	6.73
388.672	6.91
388.88	7.15
389.088	7.1
389.296	6.75
389.504	7.04
389.712	7.13
389.92	7.15
390.128	7.17
390.336	6.87
390.544	6.69
390.751	6.53
390.959	6.26
391.167	6.36
391.375	6.22
391.583	5.84
391.79	5.82
391.998	5.47
392.206	5.57
392.414	5.61
392.621	5.88
392.829	6.31
393.037	6.25
393.244	6.21
393.452	5.52
393.66	5.33
393.867	5.72
394.075	5.46
394.283	5.91
394.49	6.08
394.698	5.89
394.905	5.71
395.113	5.61
395.32	5.48
395.528	5.75
395.735	5.99
395.943	6.27
396.15	5.88
396.358	5.71
396.565	5.45
396.773	5.48
396.98	5.59
397.188	5.34
397.395	5.37
397.602	5.65
397.81	5.61
398.017	5.46
398.225	5.67
398.432	6.35
398.639	6.71
398.847	6.89
399.054	6.72
399.261	6.36
399.468	6.73
399.676	6.46
399.883	6.43
400.09	6.03
400.297	6.38
400.505	6.09
400.712	5.75
400.919	5.77
401.126	5.34
401.333	5.3
401.54	5.35
401.748	5.25
401.955	5.18
402.162	5.17
402.369	5.44
402.576	5.43
402.783	5.08
402.99	5.07
403.197	5
403.404	5.15
403.611	5.46
403.818	5.64
404.025	5.6
404.232	5.92
404.439	5.72
404.646	5.68
404.853	5.68
405.06	5.97
405.267	5.92
405.474	6.01
405.681	6.25
405.887	5.68
406.094	5.61
406.301	5.42
406.508	5.12
406.715	4.9
406.922	5.08
407.128	5.05
407.335	4.86
407.542	4.91
407.749	4.72
407.955	4.5
408.162	5.04
408.369	5.09
408.575	5.3
408.782	5.3
408.989	5.31
409.195	5.15
409.402	5.09
409.609	5.54
409.815	5.27
410.022	5.7
410.228	5.64
410.435	5.36
410.642	5.01
410.848	5.26
411.055	5.43
411.261	5.59
411.468	5.93
411.674	5.74
411.881	5.44
412.087	5.58
412.294	5.23
412.5	5.1
412.706	5.06
412.913	5.22
413.119	5.25
413.326	5.06
413.532	5.02
413.738	4.65
413.945	4.66
414.151	4.87
414.357	5.17
414.564	5.33
414.77	5.91
414.976	5.96
415.182	6.37
415.389	6.16
415.595	6.22
415.801	6.23
416.007	6.39
416.214	6.48
416.42	6.07
416.626	5.8
416.832	5.71
417.038	5.3
417.244	5.38
417.45	5.21
417.657	5.21
417.863	5.38
418.069	5.48
418.275	5.22
418.481	5.33
418.687	5.51
418.893	5.71
419.099	5.71
419.305	5.83
419.511	5.65
419.717	5.55
419.923	5.4
420.129	5.26
420.335	5.18
420.541	5.28
420.746	5.18
420.952	5.12
421.158	5.08
421.364	5.02
421.57	4.97
421.776	5.18
421.982	5.2
422.187	5.34
422.393	5.34
422.599	5.38
422.805	5.31
423.01	5.21
423.216	5.24
423.422	5.18
423.628	5.3
423.833	5.34
424.039	5.3
424.245	5.3
424.45	5.33
424.656	5.28
424.862	5.34
425.067	5.53
425.273	5.62
425.478	5.65
425.684	5.68
425.889	5.59
426.095	5.52
426.301	5.53
426.506	5.36
426.712	5.26
426.917	5.44
427.123	5.34
427.328	5.14
427.533	5.14
427.739	5.21
427.944	5.3
428.15	5.27
428.355	5.21
428.561	4.92
428.766	5.18
428.971	5.14
429.177	4.95
429.382	4.84
429.587	4.85
429.793	5.01
429.998	5.09
430.203	4.99
430.408	5.09
430.614	5.08
430.819	5.22
431.024	5.16
431.229	5.16
431.434	5.05
431.64	5.18
431.845	5.43
432.05	5.24
432.255	4.95
432.46	4.78
432.665	4.68
432.87	4.74
433.076	4.8
433.281	4.76
433.486	4.91
433.691	5.05
433.896	4.97
434.101	4.85
434.306	4.96
434.511	5.09
434.716	5.14
434.921	5.11
435.126	5.15
435.331	5.3
435.535	5.5
435.74	5.47
435.945	5.4
436.15	5.46
436.355	5.39
436.56	5.35
436.765	5.27
436.97	5.42
437.174	5.35
437.379	5.39
437.584	5.2
437.789	4.98
437.993	4.9
438.198	4.86
438.403	4.73
438.608	4.59
438.812	4.43
439.017	4.47
439.222	4.24
439.426	4.19
439.631	4.25
439.836	4.17
440.04	4.19
440.245	4.16
440.45	4.2
440.654	4.36
440.859	4.31
441.063	4.25
441.268	4.3
441.472	4.41
441.677	4.44
441.881	4.33
442.086	4.28
442.29	4.36
442.495	4.31
442.699	4.35
442.904	4.22
443.108	4.36
443.312	4.7
443.517	4.57
443.721	4.56
443.925	4.72
444.13	4.68
444.334	4.86
444.538	4.92
444.743	4.99
444.947	4.96
445.151	4.93
445.356	4.93
445.56	4.87
445.764	4.76
445.968	4.72
446.173	4.73
446.377	4.82
446.581	4.76
446.785	4.72
446.989	4.7
447.193	4.81
447.398	4.95
447.602	4.93
447.806	4.95
448.01	5.08
448.214	5.07
448.418	4.93
448.622	4.78
448.826	4.83
449.03	4.84
449.234	4.87
449.438	4.66
449.642	4.5
449.846	4.39
450.05	4.13
450.254	4.15
450.458	4.34
450.662	4.36
450.866	4.49
451.069	4.27
451.273	4.21
451.477	4.24
451.681	4.24
451.885	4.52
452.089	4.63
452.292	4.71
452.496	4.8
452.7	4.86
452.904	5.07
453.107	5.04
453.311	5.29
453.515	5.2
453.719	5.16
453.922	5.3
454.126	5.16
454.33	5.19
454.533	5.13
454.737	4.9
454.94	4.77
455.144	4.67
455.348	4.6
455.551	4.56
455.755	4.58
455.958	4.52
456.162	4.52
456.365	4.45
456.569	4.47
456.772	4.56
456.976	4.68
457.179	4.56
457.383	4.53
457.586	4.65
457.79	4.69
457.993	4.62
458.196	4.55
458.4	4.55
458.603	4.62
458.807	4.64
459.01	4.52
459.213	4.5
459.417	4.58
459.62	4.58
459.823	4.62
460.026	4.45
460.23	4.58
460.433	4.59
460.636	4.54
460.839	4.52
461.042	4.51
461.246	4.56
461.449	4.58
461.652	4.64
461.855	4.76
462.058	4.71
462.261	4.84
462.464	4.88
462.668	4.93
462.871	4.86
463.074	4.76
463.277	4.81
463.48	4.77
463.683	4.81
463.886	4.47
464.089	4.26
464.292	4.21
464.495	4.26
464.698	4.18
464.901	4.24
465.104	4.36
465.306	4.26
465.509	4.14
465.712	4.14
465.915	4.25
466.118	4.41
466.321	4.62
466.524	4.65
466.726	4.63
466.929	4.54
467.132	4.41
467.335	4.45
467.538	4.57
467.74	4.68
467.943	4.8
468.146	4.6
468.348	4.7
468.551	4.48
468.754	4.34
468.956	4.27
469.159	4.39
469.362	4.38
469.564	4.24
469.767	4.46
469.969	4.39
470.172	4.1
470.375	4.08
470.577	4.08
470.78	4.22
470.982	4.22
471.185	4.16
471.387	4.05
471.59	4.05
471.792	4.18
471.995	4.02
472.197	3.94
472.399	4.35
472.602	4.24
472.804	4.07
473.007	4.06
473.209	4.06
473.411	4.04
473.614	4.24
473.816	4.22
474.018	4.16
474.22	4.11
474.423	4.24
474.625	4.17
474.827	4.38
475.03	4.52
475.232	4.3
475.434	4.39
475.636	4.6
475.838	4.27
476.04	4.17
476.243	4.22
476.445	4.1
476.647	3.96
476.849	3.94
477.051	3.9
477.253	3.9
477.455	4.1
477.657	4.16
477.859	4.11
478.061	4.2
478.263	4.35
478.465	4.32
478.667	4.33
478.869	4.36
479.071	4.25
479.273	4.28
479.475	4.23
479.677	4.18
479.879	4.15
480.081	4.11
480.283	4.27
480.485	4.35
480.686	4.33
480.888	4.48
481.09	4.53
481.292	4.52
481.494	4.49
481.695	4.39
481.897	4.36
482.099	4.39
482.301	4.43
482.502	4.38
482.704	4.32
482.906	4.46
483.107	4.45
483.309	4.46
483.511	4.5
483.712	4.5
483.914	4.57
484.115	4.59
484.317	4.63
484.519	4.66
484.72	4.69
484.922	4.74
485.123	4.65
485.325	4.69
485.526	4.68
485.728	4.64
485.929	4.64
486.131	4.66
486.332	4.63
486.534	4.52
486.735	4.48
486.936	4.43
487.138	4.39
487.339	4.4
487.541	4.35
487.742	4.38
487.943	4.36
488.144	4.37
488.346	4.35
488.547	4.34
488.748	4.37
488.95	4.33
489.151	4.32
489.352	4.32
489.553	4.3
489.755	4.33
489.956	4.33
490.157	4.34
490.358	4.36
490.559	4.41
490.76	4.43
490.961	4.46
491.163	4.49
491.364	4.47
491.565	4.49
491.766	4.53
491.967	4.54
492.168	4.53
492.369	4.55
492.57	4.56
492.771	4.54
492.972	4.58
493.173	4.57
493.374	4.52
493.575	4.62
493.776	4.62
493.976	4.56
494.177	4.56
494.378	4.58
494.579	4.77
494.78	4.68
494.981	4.76
495.182	4.77
495.382	4.81
495.583	4.91
495.784	4.86
495.985	4.91
496.185	5.05
496.386	5.08
496.587	5.03
496.788	4.89
496.988	5.04
497.189	4.87
497.39	4.93
497.59	4.82
497.791	4.91
497.992	4.94
498.192	4.9
498.393	4.66
498.593	4.64
498.794	4.73
498.994	4.83
499.195	4.77
499.395	4.88
499.596	4.68
499.796	4.65
499.997	4.49
500.197	4.49
500.398	4.48
500.598	4.58
500.799	4.49
500.999	4.32
501.199	4.21
501.4	4.3
501.6	4.32
501.801	4.53
502.001	4.51
502.201	4.52
502.402	4.36
502.602	4.33
502.802	4.31
503.002	4.22
503.203	4.3
503.403	4.43
503.603	4.32
503.803	4.32
504.003	4.19
504.204	4.35
504.404	4.45
504.604	4.52
504.804	4.57
505.004	4.71
505.204	4.82
505.404	4.85
505.604	4.68
505.804	4.67
506.005	4.51
506.205	4.57
506.405	4.73
506.605	4.67
506.805	4.85
507.005	4.78
507.204	4.71
507.404	4.75
507.604	4.83
507.804	4.95
508.004	4.91
508.204	5.01
508.404	5.1
508.604	4.94
508.804	4.92
509.003	4.82
509.203	4.95
509.403	4.88
509.603	4.77
509.803	4.77
510.002	4.65
510.202	4.63
510.402	4.61
510.602	4.5
510.801	4.67
511.001	4.64
511.201	4.56
511.4	4.43
511.6	4.65
511.8	4.72
511.999	4.64
512.199	4.8
512.398	4.82
512.598	4.84
512.797	4.84
512.997	4.79
513.197	4.9
513.396	5.06
513.596	5.16
513.795	5.04
513.994	5.17
514.194	4.98
514.393	4.99
514.593	5.09
514.792	5.09
514.992	5.15
515.191	5.15
515.39	5.16
515.59	5.18
515.789	5.02
515.988	5.02
516.188	4.86
516.387	5.13
516.586	5.06
516.786	5.12
516.985	5.2
517.184	5.08
517.383	4.97
517.582	4.97
517.782	4.89
517.981	5.01
518.18	5
518.379	5.02
518.578	5.01
518.777	5.03
518.976	5.05
519.176	4.97
519.375	4.99
519.574	5.07
519.773	4.96
519.972	4.97
520.171	5.06
520.37	5.11
520.569	5.17
520.768	5.17
520.967	5.34
521.166	5.23
521.365	5.07
521.564	5.19
521.762	5.24
521.961	5.16
522.16	5.19
522.359	5.19
522.558	5.17
522.757	5.13
522.956	5.03
523.154	4.96
523.353	5.04
523.552	5.3
523.751	5.34
523.949	5.2
524.148	5.37
524.347	5.24
524.546	5.26
524.744	5.4
524.943	5.39
525.142	5.4
525.34	5.25
525.539	5.2
525.737	5.16
525.936	5.18
526.135	5.24
526.333	5.3
526.532	5.39
526.73	5.28
526.929	5.12
527.127	5.15
527.326	5.15
527.524	5.28
527.723	5.31
527.921	5.3
528.12	5.26
528.318	5.23
528.516	5.25
528.715	5.28
528.913	5.34
529.112	5.4
529.31	5.42
529.508	5.51
529.707	5.44
529.905	5.43
530.103	5.45
530.301	5.49
530.5	5.54
530.698	5.55
530.896	5.53
531.094	5.57
531.293	5.6
531.491	5.59
531.689	5.58
531.887	5.61
532.085	5.67
532.283	5.82
532.481	5.74
532.68	5.82
532.878	5.81
533.076	5.79
533.274	5.79
533.472	5.8
533.67	5.77
533.868	5.76
534.066	5.85
534.264	5.91
534.462	5.78
534.66	5.86
534.858	5.79
535.056	5.66
535.253	5.67
535.451	5.67
535.649	5.76
535.847	5.9
536.045	5.88
536.243	5.92
536.441	5.84
536.638	6.01
536.836	6.07
537.034	6.12
537.232	6.33
537.43	6.33
537.627	6.33
537.825	6.19
538.023	6.14
538.22	6.18
538.418	6.08
538.616	6.23
538.813	6.05
539.011	6.11
539.209	6.15
539.406	6.21
539.604	6.39
539.801	6.46
539.999	6.59
540.196	6.61
540.394	6.58
540.591	6.66
540.789	6.58
540.986	6.71
541.184	6.72
541.381	6.73
541.579	6.74
541.776	6.81
541.974	6.83
542.171	6.88
542.368	6.84
542.566	6.91
542.763	6.86
542.96	6.89
543.158	6.94
543.355	6.88
543.552	6.84
543.75	6.85
543.947	6.86
544.144	6.86
544.341	6.77
544.539	6.94
544.736	7.02
544.933	7.16
545.13	7.38
545.327	7.26
545.524	7.34
545.722	7.47
545.919	7.52
546.116	7.46
546.313	7.59
546.51	7.77
546.707	7.75
546.904	7.69
547.101	7.74
547.298	7.68
547.495	7.76
547.692	7.88
547.889	7.9
548.086	7.89
548.283	8.12
548.48	8.12
548.677	8.26
548.874	8.29
549.07	8.4
549.267	8.44
549.464	8.37
549.661	8.61
549.858	8.55
550.055	8.56
550.251	8.8
550.448	8.67
550.645	8.57
550.842	8.51
551.038	8.68
551.235	8.88
551.432	8.9
551.628	9.16
551.825	9.11
552.022	9.14
552.218	9.23
552.415	9.18
552.612	9.12
552.808	9.34
553.005	9.27
553.201	9.4
553.398	9.26
553.594	9.31
553.791	9.4
553.987	9.37
554.184	9.51
554.38	9.38
554.577	9.44
554.773	9.52
554.97	9.47
555.166	9.65
555.362	9.56
555.559	9.83
555.755	9.92
555.952	9.92
556.148	10.14
556.344	10.49
556.541	10.8
556.737	10.89
556.933	10.97
557.129	11.14
557.326	11.07
557.522	11.05
557.718	11.04
557.914	11.21
558.11	11.36
558.307	11.42
558.503	11.57
558.699	11.69
558.895	11.86
559.091	11.97
559.287	12.02
559.483	11.95
559.679	12.26
559.876	12.43
560.072	12.46
560.268	12.42
560.464	12.4
560.66	12.18
560.856	12.04
561.052	12.09
561.247	12.04
561.443	12.23
561.639	12.54
561.835	12.54
562.031	12.65
562.227	12.6
562.423	12.52
562.619	12.53
562.815	12.6
563.01	12.84
563.206	12.82
563.402	13.09
563.598	13.12
563.793	13.17
563.989	13.36
564.185	13.12
564.381	13.27
564.576	13.38
564.772	13.59
564.968	13.6
565.163	13.62
565.359	13.92
565.555	13.83
565.75	13.84
565.946	13.82
566.141	13.81
566.337	14
566.532	14.02
566.728	14.19
566.923	14.27
567.119	14.48
567.314	14.67
567.51	14.48
567.705	14.68
567.901	14.64
568.096	14.65
568.292	14.66
568.487	14.82
568.682	14.98
568.878	15.05
569.073	15.04
569.268	15.07
569.464	15.07
569.659	14.96
569.854	14.96
570.05	15.03
570.245	15.21
570.44	15.23
570.635	15.42
570.831	15.24
571.026	15.43
571.221	15.56
571.416	15.6
571.611	15.59
571.806	15.78
572.002	15.87
572.197	16.08
572.392	16.17
572.587	16.29
572.782	16.3
572.977	16.48
573.172	16.41
573.367	16.38
573.562	16.51
573.757	16.79
573.952	16.87
574.147	17.02
574.342	17.02
574.537	17.03
574.732	16.94
574.927	16.76
575.121	16.92
575.316	16.92
575.511	16.92
575.706	16.81
575.901	16.52
576.096	16.63
576.29	16.65
576.485	16.62
576.68	16.87
576.875	17.12
577.069	17.25
577.264	17.19
577.459	17.22
577.654	17.43
577.848	17.53
578.043	17.59
578.238	17.56
578.432	17.36
578.627	17.53
578.821	17.47
579.016	17.48
579.21	17.72
579.405	17.53
579.6	17.47
579.794	17.25
579.989	17.24
580.183	17.51
580.378	17.51
580.572	17.89
580.766	17.86
580.961	17.72
581.155	17.52
581.35	17.28
581.544	17.8
581.738	17.93
581.933	18.19
582.127	18.1
582.321	18.16
582.516	18.55
582.71	18.38
582.904	18.16
583.099	18.29
583.293	18.32
583.487	18.38
583.681	17.98
583.875	18.17
584.07	18.13
584.264	18.14
584.458	17.98
584.652	17.66
584.846	17.64
585.04	17.76
585.234	17.68
585.428	17.77
585.623	17.77
585.817	18.28
586.011	18.22
586.205	18.1
586.399	18.24
586.593	18.58
586.787	18.52
586.981	18.21
587.174	18.25
587.368	18.27
587.562	18.47
587.756	18.73
587.95	18.54
588.144	18.84
588.338	19.21
588.532	19.26
588.725	19.13
588.919	18.99
589.113	19.55
589.307	19.89
589.501	20.11
589.694	19.98
589.888	19.63
590.082	19.96
590.275	19.91
590.469	19.8
590.663	19.91
590.856	19.77
591.05	20.14
591.244	20.22
591.437	20.3
591.631	20.22
591.824	20.34
592.018	20.63
592.212	20.04
592.405	19.87
592.599	19.84
592.792	19.89
592.986	20.28
593.179	20.21
593.372	19.92
593.566	19.77
593.759	19.77
593.953	19.6
594.146	19.61
594.339	19.92
594.533	20.1
594.726	20.25
594.92	19.88
595.113	19.69
595.306	19.77
595.499	19.74
595.693	19.8
595.886	19.81
596.079	19.91
596.272	19.91
596.466	19.94
596.659	19.85
596.852	19.9
597.045	20.24
597.238	20.19
597.431	20.09
597.624	20.34
597.818	20.2
598.011	20.25
598.204	20.15
598.397	20.21
598.59	20.23
598.783	20.1
598.976	19.95
599.169	19.9
599.362	20.09
599.555	20.31
599.748	20.15
599.941	20.32
600.134	20.38
600.326	20.75
600.519	20.79
600.712	20.54
600.905	20.82
601.098	20.66
601.291	20.63
601.483	20.54
601.676	20.52
601.869	20.59
602.062	20.47
602.255	20.59
602.447	20.33
602.64	20.33
602.833	20.55
603.025	20.7
603.218	20.82
603.411	20.77
603.603	20.47
603.796	20.52
603.989	20.5
604.181	20.58
604.374	20.57
604.566	20.69
604.759	20.68
604.951	20.68
605.144	20.46
605.336	20.4
605.529	20.42
605.721	20.82
605.914	20.79
606.106	20.99
606.299	20.93
606.491	21.1
606.683	21.13
606.876	21.13
607.068	21.18
607.26	21.1
607.453	21.24
607.645	21.13
607.837	20.88
608.03	20.7
608.222	20.19
608.414	20.4
608.606	20.14
608.799	20.32
608.991	20.3
609.183	20.3
609.375	20.65
609.567	20.57
609.759	20.88
609.952	20.95
610.144	21.06
610.336	21.55
610.528	21.44
610.72	21.62
610.912	21.67
611.104	21.76
611.296	21.73
611.488	21.54
611.68	21.63
611.872	21.48
612.064	21.49
612.256	21.52
612.448	21.33
612.64	21.45
612.832	21.21
613.023	20.85
613.215	20.68
613.407	20.63
613.599	20.92
613.791	20.7
613.983	20.47
614.174	20.59
614.366	20.28
614.558	20.46
614.75	20.49
614.941	20.49
615.133	20.65
615.325	20.82
615.516	20.82
615.708	20.34
615.9	20.47
616.091	20.92
616.283	21.04
616.475	21.37
616.666	21.36
616.858	21
617.049	21.09
617.241	20.88
617.432	21.24
617.624	21.42
617.815	21.58
618.007	21.59
618.198	21.39
618.39	21.22
618.581	20.53
618.773	20.49
618.964	20.51
619.155	20.49
619.347	20.57
619.538	19.86
619.729	19.6
619.921	19.84
620.112	19.69
620.303	19.4
620.494	19.23
620.686	19.88
620.877	19.52
621.068	19.87
621.259	19.71
621.451	19.87
621.642	20.16
621.833	20.15
622.024	19.84
622.215	20.06
622.406	20.34
622.597	20.44
622.788	20.4
622.98	20.73
623.171	20.74
623.362	20.69
623.553	20.44
623.744	20.22
623.935	20.15
624.126	20.19
624.317	20.14
624.508	20.2
624.698	20.08
624.889	20.12
625.08	20.17
625.271	20.23
625.462	20.38
625.653	20.66
625.844	21.1
626.034	21.31
626.225	21.41
626.416	21.52
626.607	21.36
626.798	21.82
626.988	21.81
627.179	21.76
627.37	21.57
627.56	21.74
627.751	21.49
627.942	21.36
628.132	21.42
628.323	21.52
628.514	21.24
628.704	21.41
628.895	21.09
629.085	21.28
629.276	21.35
629.466	21.42
629.657	21.2
629.847	21.54
630.038	21.54
630.228	21.34
630.419	21.43
630.609	21.57
630.8	21.45
630.99	21.45
631.181	21.45
631.371	21.3
631.561	21.29
631.752	21.49
631.942	21.21
632.132	21.45
632.323	21.77
632.513	21.62
632.703	21.82
632.893	21.98
633.084	21.82
633.274	21.62
633.464	21.32
633.654	21.3
633.844	21.23
634.034	21.63
634.225	21.58
634.415	21.47
634.605	21.43
634.795	21.29
634.985	21.13
635.175	21.23
635.365	21.24
635.555	21.62
635.745	21.65
635.935	21.33
636.125	20.87
636.315	20.81
636.505	21.08
636.695	21.25
636.885	21.59
637.075	21.82
637.265	21.67
637.455	21.87
637.644	21.8
637.834	21.75
638.024	22
638.214	22.12
638.404	22.05
638.593	21.9
638.783	21.76
638.973	21.72
639.163	21.33
639.352	21.43
639.542	21.41
639.732	21.82
639.921	21.79
640.111	21.89
640.301	21.98
640.49	21.82
640.68	21.59
640.87	21.58
641.059	21.21
641.249	21.85
641.438	22.23
641.628	22.13
641.817	22.16
642.007	22.3
642.196	22.09
642.386	22.34
642.575	22.46
642.764	22.38
642.954	22.22
643.143	22.53
643.333	22.23
643.522	22.28
643.711	22.36
643.901	22.21
644.09	22.19
644.279	22.71
644.469	22.28
644.658	22.3
644.847	22.61
645.036	22.38
645.226	22.34
645.415	22
645.604	21.82
645.793	21.76
645.982	21.37
646.171	21.15
646.361	21.06
646.55	21.06
646.739	20.81
646.928	20.67
647.117	21.3
647.306	21.19
647.495	21.51
647.684	21.46
647.873	21.1
648.062	21.53
648.251	21.62
648.44	21.13
648.629	21.53
648.818	21.93
649.007	21.95
649.196	21.67
649.384	21.54
649.573	21.56
649.762	21.79
649.951	21.98
650.14	21.73
650.328	22.08
650.517	21.97
650.706	22.08
650.895	21.91
651.083	21.97
651.272	21.92
651.461	22.47
651.65	22.49
651.838	21.86
652.027	21.66
652.216	22.1
652.404	21.67
652.593	22.27
652.781	21.96
652.97	22
653.158	21.77
653.347	21.82
653.535	21.06
653.724	21.05
653.912	21.59
654.101	22.07
654.289	21.25
654.478	21.83
654.666	21.32
654.855	21.07
655.043	21.03
655.231	21.2
655.42	20.96
655.608	21.03
655.796	20.63
655.985	20.4
656.173	20.42
656.361	20.51
656.55	20.34
656.738	20.49
656.926	20.71
657.114	20.8
657.302	20.57
657.491	20.69
657.679	20.9
657.867	21.35
658.055	21.31
658.243	21.06
658.431	21.21
658.619	21.15
658.807	21.43
658.996	21.73
659.184	21.7
659.372	21.78
659.56	21.86
659.748	22.12
659.936	22.46
660.124	22.62
660.311	22.72
660.499	22.84
660.687	22.85
660.875	22.54
661.063	22.51
661.251	22.6
661.439	22.83
661.627	22.55
661.814	22.52
662.002	22.14
662.19	22.45
662.378	22.56
662.565	22.59
662.753	22.51
662.941	22.57
663.129	22.07
663.316	22.07
663.504	21.89
663.692	22.06
663.879	22.1
664.067	21.7
664.254	21
664.442	20.92
664.63	20.72
664.817	20.91
665.005	21.5
665.192	21.58
665.38	21.53
665.567	21.71
665.755	22.31
665.942	21.79
666.13	22.28
666.317	21.76
666.504	21.96
666.692	22.29
666.879	21.97
667.067	21.5
667.254	21.52
667.441	21.4
667.629	21.09
667.816	20.53
668.003	20.39
668.19	20.22
668.378	21.2
668.565	21.37
668.752	20.91
668.939	21.06
669.127	21.42
669.314	21.43
669.501	21.75
669.688	21.99
669.875	22.53
670.062	22.7
670.249	22.63
670.436	22.22
670.623	22.06
670.81	22.28
670.997	22.45
671.184	22.31
671.371	22.44
671.558	21.93
671.745	22.08
671.932	22.03
672.119	22.23
672.306	22.32
672.493	22.51
672.68	22.25
672.867	22.35
673.054	21.81
673.24	21.58
673.427	21.63
673.614	22.03
673.801	21.97
673.988	21.83
674.174	22.03
674.361	21.87
674.548	21.9
674.734	22.35
674.921	22.25
675.108	22.61
675.294	22.57
675.481	22.55
675.668	22.58
675.854	22.06
676.041	21.92
676.227	21.82
676.414	21.54
676.601	21.54
676.787	21.48
676.974	21.13
677.16	21.29
677.347	21.46
677.533	21.38
677.719	21.45
677.906	21.64
678.092	22.03
678.279	21.89
678.465	22.78
678.651	22.75
678.838	22.63
679.024	22.79
679.21	22.6
679.397	22.68
679.583	23.07
679.769	22.74
679.955	22.63
680.142	22.06
680.328	22.16
680.514	21.37
680.7	21.48
680.886	21.6
681.073	21.8
681.259	22.05
681.445	22.13
681.631	21.4
681.817	21.61
682.003	22.12
682.189	22.47
682.375	22.38
682.561	23.11
682.747	23
682.933	22.73
683.119	22.85
683.305	22.66
683.491	22.47
683.677	23.01
683.863	23.22
684.049	22.86
684.235	23.35
684.42	23.51
684.606	22.75
684.792	22.17
684.978	21.89
685.164	21.83
685.349	21.71
685.535	21.33
685.721	21.61
685.907	21.06
686.092	21.15
686.278	20.44
686.464	20.3
686.649	20.76
686.835	21.56
687.021	21.6
687.206	21.27
687.392	21.53
687.577	21.99
687.763	22.06
687.948	22.08
688.134	22.22
688.319	22.15
688.505	22.47
688.69	22.43
688.876	22.09
689.061	22.36
689.247	22.6
689.432	22.65
689.618	22.26
689.803	22.09
689.988	22.55
690.174	22.14
690.359	22.33
690.544	22.32
690.73	22.42
690.915	23.22
691.1	23.07
691.285	23.39
691.471	23.15
691.656	23.05
691.841	22.93
692.026	22.88
692.211	23.69
692.396	23.61
692.582	23.28
692.767	23.1
692.952	22.61
693.137	22.44
693.322	22.61
693.507	22.71
693.692	23.07
693.877	22.95
694.062	23.1
694.247	22.79
694.432	22.74
694.617	22.77
694.802	22.95
694.987	22.73
695.172	23.4
695.357	22.79
695.541	22.68
695.726	22.26
695.911	22.31
696.096	21.89
696.281	21.55
696.466	21.37
696.65	21.58
696.835	21.78
697.02	22.05
697.204	21.8
697.389	22.2
697.574	22.53
697.759	22.91
697.943	22.7
698.128	22.84
698.312	22.8
698.497	23.26
698.682	23.64
698.866	23.6
699.051	23.45
699.235	23.78
699.42	23.67
699.604	23.42
699.789	23.45
699.973	23.69
700.158	23.84
700.342	23.84
700.527	23.83
700.711	23.24
700.895	23.08
701.08	22.73
701.264	21.94
701.448	22.18
701.633	21.83
701.817	21.92
702.001	21.75
702.186	21.38
702.37	21.61
702.554	20.95
702.738	20.65
702.923	20.76
703.107	21.54
703.291	22.42
703.475	21.69
703.659	22.23
703.843	22.26
704.027	21.73
704.212	21.88
704.396	21.39
704.58	22
704.764	22.57
704.948	22.45
705.132	21.85
705.316	21.76
705.5	21.78
705.684	21.79
705.868	21.46
706.052	21.85
706.235	22.6
706.419	23
706.603	22.56
706.787	22.42
706.971	21.93
707.155	21.73
707.339	21.39
707.522	21.1
707.706	20.62
707.89	20.24
708.074	20.9
708.257	20.11
708.441	20.26
708.625	20.44
708.808	19.93
708.992	20.18
709.176	21.02
709.359	21.12
709.543	21.5
709.727	21.77
709.91	22.38
710.094	22.18
710.277	21.96
710.461	22.16
710.644	21.73
710.828	22.48
711.011	22.99
711.195	23.22
711.378	23.34
711.562	23.24
711.745	23.25
711.928	23.71
712.112	24
712.295	24.36
712.478	24.11
712.662	25.31
712.845	24.84
713.028	24.69
713.212	23.8
713.395	23.59
713.578	23.36
713.761	23.77
713.945	22.46
714.128	21.89
714.311	21.95
714.494	22.23
714.677	21.38
714.86	21.3
715.043	21.43
715.227	21.38
715.41	21.16
715.593	21.86
715.776	22.01
715.959	22.63
716.142	22.49
716.325	22.46
716.508	22.23
716.691	21.83
716.874	21.76
717.057	21.7
717.239	22.29
717.422	21.93
717.605	21.53
717.788	21.13
717.971	22.48
718.154	22.37
718.337	22.48
718.519	22.34
718.702	22.65
718.885	22.86
719.068	22.95
719.25	23.64
719.433	24.52
719.616	24.73
719.798	25.07
719.981	24.68
720.164	24.61
720.346	24.4
720.529	23.66
720.712	23.86
720.894	24.7
721.077	23.84
721.259	23.39
721.442	22.87
721.624	22.32
721.807	22.48
721.989	21.89
722.172	22.27
722.354	21.14
722.537	21.35
722.719	21.37
722.901	20.51
723.084	20.25
723.266	19.85
723.448	20.15
723.631	20.69
723.813	20.53
723.995	19.2
724.178	18.93
724.36	19.71
724.542	20.72
724.724	20.86
724.907	20.35
725.089	20.68
725.271	21.16
725.453	21.8
725.635	22.26
725.817	20.98
725.999	21.41
726.181	22.14
726.364	22.21
726.546	21.97
726.728	21.61
726.91	22.2
727.092	22.94
727.274	23.12
727.456	21.81
727.638	21.37
727.819	22.3
728.001	21.9
728.183	21.75
728.365	21.16
728.547	21.34
728.729	21.83
728.911	22.24
729.093	21.98
729.274	22.09
729.456	22.74
729.638	22.67
729.82	22.86
730.001	23.13
730.183	23.08
730.365	24.49
730.546	24.54
730.728	24.98
730.91	24.19
731.091	23.72
731.273	22.98
731.455	23.4
731.636	24
731.818	23.22
731.999	23.55
732.181	23.06
732.362	22.21
732.544	21.76
732.725	21.7
732.907	21.72
733.088	21.98
733.27	22.3
733.451	22.07
733.633	21.29
733.814	21.04
733.995	20.68
734.177	20.74
734.358	19.86
734.539	19.99
734.721	18.49
734.902	17.43
735.083	17.53
735.264	16.76
735.446	16.46
735.627	16.38
735.808	16.78
735.989	17.68
736.17	17.35
736.351	18.34
736.533	18.98
736.714	20.43
736.895	21.63
737.076	22.12
737.257	22.93
737.438	24.24
737.619	25.05
737.8	25.16
737.981	25.94
738.162	26.77
738.343	26.73
738.524	26.66
738.705	26.15
738.886	26.92
739.067	26.46
739.247	25.95
739.428	24.51
739.609	23.75
739.79	24.76
739.971	23.46
740.151	23.63
740.332	23.79
740.513	23.67
740.694	24.19
740.874	24.1
741.055	25.46
741.236	25.67
741.417	27.5
741.597	28.07
741.778	28.37
741.958	27.22
742.139	26.94
742.32	26.91
742.5	26.84
742.681	26.17
742.861	25.83
743.042	24.15
743.222	24.58
743.403	22.78
743.583	22.99
743.764	22.04
743.944	23.07
744.124	23.04
744.305	24.72
744.485	24.31
744.666	25.18
744.846	25.47
745.026	26.44
745.207	26.72
745.387	26.14
745.567	25.83
745.747	25.95
745.928	26.99
746.108	26.05
746.288	25.17
746.468	26.85
746.648	26.59
746.829	26.41
747.009	25.25
747.189	24.81
747.369	27.5
747.549	26.64
747.729	26.88
747.909	26.38
748.089	26.53
748.269	26.42
748.449	23.98
748.629	23.17
748.809	23.08
748.989	23.17
749.169	22.81
749.349	20.91
749.529	21.89
749.709	20.04
749.889	19.24
750.068	20.23
750.248	20.99
750.428	22.39
750.608	22.13
750.788	22.7
750.967	23.05
751.147	23.8
751.327	24.17
751.507	22.65
751.686	24.52
751.866	23.96
752.046	24.83
752.225	22.95
752.405	22.53
752.585	21.72
752.764	21.25
752.944	21.68
753.123	21.67
753.303	21.06
753.482	22.2
753.662	22.24
753.841	23.9
754.021	22.58
754.2	22.84
754.38	23.25
754.559	24.62
754.739	23.65
754.918	23.42
755.097	23.45
755.277	24.56
755.456	24.01
755.635	23.17
755.815	21.94
755.994	21.53
756.173	22.17
756.352	21.23
756.532	21.88
756.711	22.65
756.89	22.81
757.069	22.75
757.248	21.93
757.427	21.25
757.607	20.83
757.786	20.34
757.965	20.89
758.144	20.32
758.323	20.49
758.502	20.03
758.681	20.57
758.86	21.01
759.039	19.9
759.218	19.61
759.397	20.27
759.576	19.36
759.755	20.4
759.934	20.53
760.113	21.56
760.291	21.4
760.47	23.37
760.649	22.16
760.828	21.34
761.007	23.21
761.186	23.33
761.364	24.97
761.543	25.95
761.722	26.86
761.901	26.34
762.079	25.85
762.258	24.81
762.437	23.71
762.615	22.92
762.794	22.83
762.972	22.27
763.151	21.94
763.33	20.24
763.508	20.42
763.687	19.12
763.865	19.01
764.044	18.75
764.222	19.53
764.401	18.47
764.579	19.46
764.758	19.98
764.936	19.47
765.114	19.85
765.293	20.8
765.471	20.62
765.65	21.47
765.828	21.87
766.006	22.13
766.184	21.09
766.363	20.66
766.541	20.75
766.719	20.36
766.898	20.21
767.076	19.84
767.254	19.75
767.432	20.59
767.61	19.63
767.788	18.91
767.967	18.11
768.145	20.03
768.323	20.65
768.501	20.32
768.679	19.44
768.857	19.91
769.035	19.66
769.213	21.08
769.391	19.97
769.569	19.03
769.747	18.58
769.925	19.12
770.103	19.41
770.281	20.25
770.459	21.61
770.636	22.45
770.814	22.46
770.992	24.19
771.17	21.12
771.348	21.9
771.525	23.85
771.703	25.13
771.881	25.11
772.059	23.94
772.236	23.37
772.414	23.22
772.592	24.68
772.769	25.96
772.947	25.51
773.125	27.06
773.302	25.71
773.48	24.36
773.657	23.98
773.835	23.36
774.013	24.01
774.19	24.78
774.368	25.74
774.545	24.82
774.723	22.3
774.9	20.13
775.077	20.49
775.255	22.49
775.432	24.97
775.61	27.23
775.787	30.33
775.964	27.87
776.142	26.89
776.319	24.18
776.496	20.98
776.674	21.53
776.851	23.66
777.028	23.88
777.205	23.02
777.382	20.29
777.56	19.8
777.737	18.77
777.914	20.19
778.091	19.95
778.268	21.26
778.445	23.01
778.622	21.01
778.8	23.17
778.977	21.91
779.154	18.55
779.331	19.37
779.508	15.88
779.685	15.52
779.862	16.96
780.038	17.94
780.215	18.21
780.392	20.39
780.569	22.21
780.746	21.7
780.923	23.28
781.1	26.5
781.277	27.5
781.453	29.99
781.63	30.1
781.807	29.48
781.984	29.61
782.16	30.74
782.337	30.03
782.514	31.63
782.691	28.47
782.867	27.56
783.044	26.84
783.221	25.01
783.397	24.34
783.574	25.17
783.75	23.95
783.927	25.46
784.103	22.96
784.28	21.92
784.456	21.92
784.633	22.9
784.809	22.48
784.986	21.71
785.162	23.69
785.339	24.09
785.515	22.45
785.692	22.36
785.868	22.12
786.044	23.41
786.221	22.51
786.397	20.65
786.573	23.53
786.749	20.77
786.926	23.76
787.102	25.51
787.278	25.41
787.454	25.09
787.631	27.49
787.807	26.55
787.983	24.25
788.159	26.54
788.335	26.83
788.511	24.81
788.687	25.78
788.863	24.53
789.039	21.77
789.216	21.31
789.392	19.46
789.568	18.95
789.744	18.36
789.919	18.64
790.095	16.34
790.271	14.85
790.447	13.4
790.623	13.05
790.799	12.84
790.975	15.42
791.151	15.7
791.327	15.27
791.502	12.74
791.678	12
791.854	12.56
792.03	10.52
792.205	13.03
792.381	12.07
792.557	12.42
792.733	12.3
792.908	9.5
793.084	10.47
793.259	11.6
793.435	13.7
793.611	16.62
793.786	16.93
793.962	19.14
794.137	16.52
794.313	18.99
794.488	21.63
794.664	23.28
794.839	23.73
795.015	24.84
795.19	23.66
795.366	22.54
795.541	19.68
795.716	17.85
795.892	17.13
796.067	20.64
796.242	20.73
796.418	18.39
796.593	16.46
796.768	17.83
796.944	15.89
797.119	22.1
797.294	22.74
797.469	26.93
797.644	28.63
797.82	32.05
797.995	29.34
798.17	29.92
798.345	32.61
798.52	31.33
798.695	30.22
798.87	29.34
799.045	22.94
799.22	22.36
799.395	21.91
799.57	23.76
799.745	20.47
799.92	20.01
800.095	19.44
800.27	17.29
800.445	19.17
800.62	21.84
800.795	22.09
800.97	24.29
801.145	25.06
801.319	23.64
801.494	19.41
801.669	18.38
801.844	21.98
802.018	19.73
802.193	17.96
802.368	18.18
802.543	15.32
802.717	11.78
802.892	14.5
803.067	12.81
803.241	10.58
803.416	16.95
803.59	20.82
803.765	17.89
803.94	19.82
804.114	24.69
804.289	22.72
804.463	22.98
804.638	26.81
804.812	24.45
804.986	29.18
805.161	26.79
805.335	25.43
805.51	23.93
805.684	25.6
805.858	26.41
806.033	22.65
806.207	27.47
806.381	28.37
806.556	28.53
806.73	28.49
806.904	27.08
807.078	27.6
807.253	25.31
807.427	27.04
807.601	26.65
807.775	20.14
807.949	20.85
808.123	16.49
808.298	11.23
808.472	5.65
808.646	5.25
808.82	3.5
808.994	5.21
809.168	8.08
809.342	6.69
809.516	9.99
809.69	12.44
809.864	15.61
810.038	14.11
810.212	16.82
810.385	22.33
810.559	20.99
810.733	21.49
810.907	23.49
811.081	22.21
811.255	24.06
811.428	19.33
811.602	20.02
811.776	16.7
811.95	21.02
812.123	22.83
812.297	20.48
812.471	21.62
812.644	21.97
812.818	19.28
812.992	19.15
813.165	13.42
813.339	14.86
813.512	14.67
813.686	15.1
813.86	11.57
814.033	10.43
814.207	13.47
814.38	11.46
814.554	11.26
814.727	13.01
814.9	13.85
815.074	17.68
815.247	18.8
815.421	16.26
815.594	17.31
815.767	13.07
815.941	17.07
816.114	18.27
816.287	24.32
816.46	21.32
816.634	19.4
816.807	15.79
816.98	14.5
817.153	14.25
817.327	15.91
817.5	20.38
817.673	24.03
817.846	19.47
818.019	12.44
818.192	8.97
818.365	12.45
818.538	13.6
818.711	17.52
818.884	18.14
819.057	10.42
819.23	13.43
819.403	10.65
819.576	11.12
819.749	16.43
819.922	19.04
820.095	18.89
820.268	16.89
820.441	16.02
820.614	17.56
820.786	17.19
820.959	21.95
821.132	22.09
821.305	22.53
821.477	21.81
821.65	20.9
821.823	21.18
821.996	20.71
822.168	21.65
822.341	22.23
822.514	22.32
822.686	22.61
822.859	23.42
823.031	23.29
823.204	22.82
823.376	23.53
823.549	23.67
823.722	24.14
823.894	24.91
824.067	24.71
824.239	24.35
824.411	23.39
824.584	22.79
824.756	21.24
824.929	20.73
825.101	20.47
825.273	20.05
825.446	19.74
825.618	20.52
825.79	20.27
825.963	21.1
826.135	20.53
826.307	21.02
826.479	21.28
826.652	21.18
826.824	22.03
826.996	21.79
827.168	23.01
827.34	22.5
827.512	20.46
827.684	19.75
827.856	17.94
828.029	19.2
828.201	19.55
828.373	21.26
828.545	21.39
828.717	21.25
828.889	21.8
829.061	19.88
829.232	19.46
829.404	20.47
829.576	19.86
829.748	21.34
829.92	19.58
830.092	17.99
830.264	16.02
830.436	14.39
830.607	12.09
830.779	10.35
830.951	9.21
831.123	13.35
831.294	11.45
831.466	14.55
831.638	15.98
831.809	20.62
831.981	20.87
832.153	19.17
832.324	21.83
832.496	25.11
832.667	25.77
832.839	24.98
833.011	22.36
833.182	25.6
833.354	22.88
833.525	19.43
833.697	16.62
833.868	18.92
834.039	17.88
834.211	15.17
834.382	15.77
834.554	17.87
834.725	15.84
834.896	14.61
835.068	15.05
835.239	15.89
835.41	16.73
835.581	16.49
835.753	16.21
835.924	18.14
836.095	20.14
836.266	17.84
836.438	17.1
836.609	20.86
836.78	19.72
836.951	15.66
837.122	13.72
837.293	13.75
837.464	11
837.635	10.31
837.806	8.61
837.977	9.08
838.148	9.79
838.319	9.7
838.49	7.55
838.661	14.04
838.832	18.75
839.003	20.89
839.174	21.95
839.345	27.33
839.516	25.07
839.687	23.88
839.857	21.62
840.028	21.21
840.199	21.05
840.37	16.23
840.54	11.28
840.711	11.22
840.882	10.91
841.053	14.45
841.223	7.56
841.394	9.64
841.564	16.09
841.735	18.99
841.906	21.25
842.076	22.08
842.247	31.03
842.417	38.26
842.588	35.5
842.758	36.92
842.929	31.82
843.099	38.43
843.27	33.52
843.44	33.28
843.611	29.34
843.781	32.64
843.951	27.11
844.122	17.05
844.292	9.71
844.462	12.37
844.633	15.61
844.803	8.93
844.973	7.03
845.144	6.74
845.314	3.64
845.484	4.52
845.654	-2.17
845.824	-3.38
845.995	-0.73
846.165	1.19
846.335	3.18
846.505	0.25
846.675	16.97
846.845	10.28
847.015	25.34
847.185	29.86
847.355	22.57
847.525	25.46
847.695	25.12
847.865	29.1
848.035	20.68
848.205	13.57
848.375	19.01
848.545	10.15
848.715	23.34
848.884	9.9
849.054	14.01
849.224	18.79
849.394	22.1
849.564	21.19
849.733	21.38
849.903	31.43
850.073	32.66
850.243	39.52
850.412	35.46
850.582	26.8
850.752	29.08
850.921	31.19
851.091	28.84
851.26	27.98
851.43	17.98
851.599	7.62
851.769	4.14
851.939	7.31
852.108	3.65
852.278	0.71
852.447	-1.66
852.616	4.52
852.786	7.91
852.955	12.5
853.125	7.96
853.294	16.2
853.463	19.06
853.633	17.15
853.802	4.21
853.971	-16.29
854.141	-9.99
854.31	14.67
854.479	17.35
854.648	-0.33
854.818	12.43
854.987	8.48
855.156	16.17
855.325	27.25
855.494	25.07
855.663	37.32
855.832	37.46
856.001	41.17
856.171	33.46
856.34	36.65
856.509	38.35
856.678	33.06
856.847	33.49
857.016	32.34
857.185	28.65
857.353	33.45
857.522	33.83
857.691	39.11
857.86	20.93
858.029	13.21
858.198	8.19
858.367	10.6
858.535	18.01
858.704	22.69
858.873	15.89
859.042	15.95
859.21	-0.31
859.379	-14.72
859.548	9.7
859.717	23.47
859.885	31.88
860.054	28.47
860.222	24.24
860.391	18.33
860.56	10.3
860.728	22.05
860.897	8.55
861.065	12.54
861.234	19.31
861.402	5.87
861.571	-6.04
861.739	-6.69
861.908	-12.34
862.076	4.76
862.244	-0.93
862.413	-12.93
862.581	-35.26
862.749	-1.26
862.918	7.36
863.086	6.26
863.254	5
863.423	11.27
863.591	-1.73
863.759	-5.89
863.927	-10.68
864.096	-13.29
864.264	-6.76
864.432	-5.07
864.6	-16.7
864.768	-17.53
864.936	-32.33
865.104	-42.37
865.272	-34.84
865.44	-5.75
865.608	8.72
865.776	8.77
865.944	21.35
866.112	13.65
866.28	18.96
866.448	28.71
866.616	29.54
866.784	36.63
866.952	38.11
867.12	33.75
867.288	21.26
867.455	23.82
867.623	25.85
867.791	27.06
867.959	25.13
868.127	25.23
868.294	14.54
868.462	14.17
868.63	9.18
868.797	-6.11
868.965	-24.81
869.133	-4.14
869.3	-20.21
869.468	-12.95
869.636	-4.96
869.803	22.17
869.971	12.03
870.138	30.25
870.306	41.79
870.473	31.93
870.641	28.35
870.808	31.77
870.975	24.68
871.143	26.72
871.31	21.8
871.478	7.19
871.645	4.29
871.812	12.21
871.98	10.25
872.147	-6.35
872.314	-2.91
872.482	6.79
872.649	14.5
872.816	14.48
872.983	15.98
873.15	3.04
873.318	18.93
873.485	21.45
873.652	20.07
873.819	3.62
873.986	8.43
874.153	-4.89
874.32	8.8
874.487	18.96
874.654	10.37
874.821	14.16
874.988	14.66
875.155	27.09
875.322	29.54
875.489	22.43
875.656	40.5
875.823	32.3
875.99	27.73
876.157	5.58
876.324	1.42
876.49	13.88
876.657	11.07
876.824	15.63
876.991	0.63
877.157	-1.53
877.324	6.52
877.491	-4.47
877.658	-3.15
877.824	12.53
877.991	10
878.157	17.44
878.324	13.92
878.491	18.47
878.657	18.67
878.824	17.43
878.99	19.64
879.157	16.83
879.323	12.71
879.49	21.18
879.656	23.77
879.823	28.59
879.989	10.5
880.156	18.55
880.322	13.05
880.488	5.72
880.655	2.72
880.821	1.63
880.987	-3.85
881.154	-20.16
881.32	-14.25
881.486	-18.65
881.652	-6.09
881.819	-3.15
881.985	-8.34
882.151	-7.01
882.317	-1.27
882.483	2.25
882.649	2.77
882.816	4.91
882.982	11.43
883.148	9.13
883.314	11.04
883.48	8.05
883.646	11.25
883.812	15.03
883.978	13.43
884.144	16.39
884.31	17.62
884.476	17.89
884.642	17.71
884.807	14.89
884.973	17.61
885.139	18.39
885.305	21.32
885.471	20.87
885.637	18.04
885.802	20.16
885.968	14.92
886.134	16.03
886.3	15.93
886.465	12.64
886.631	15.2
886.797	18.13
886.962	16.08
887.128	14.77
887.293	8.34
887.459	10.63
887.625	20.39
887.79	22.59
887.956	14.95
888.121	18.12
888.287	28.2
888.452	32.37
888.618	15.83
888.783	13.88
