Data from 2938026_Reflection_1.txt Node
Date: Sun Jul 12 15:15:04 EDT 2015
User: robert
Spectrometer: USB4E03001
Autoset integration time: false
Trigger mode: 4
Integration Time (sec): 1.000000E-1
Scans to average: 10
Electric dark correction enabled: true
Nonlinearity correction enabled: false
Boxcar width: 5
Stray light correction enabled: false
XAxis mode: Wavelengths
Stop averaging: false
Number of Pixels in Spectrum: 3648
>>>>>Begin Spectral Data<<<<<
177.566	60.16
177.785	244.28
178.005	161.06
178.225	79.91
178.445	249.56
178.665	131.62
178.885	370.36
179.105	12.96
179.324	166.38
179.544	179.98
179.764	910.62
179.984	-745.28
180.204	-1471.9
180.423	2022.27
180.643	168.63
180.863	199.69
181.083	218.76
181.302	200.94
181.522	169.51
181.742	126.97
181.961	196.45
182.181	78.97
182.401	99.4
182.621	62.64
182.84	56.07
183.06	277.62
183.279	153.09
183.499	188.32
183.719	488.95
183.938	-428.08
184.158	600.85
184.377	136.77
184.597	163.28
184.816	152.76
185.036	225.95
185.256	269.08
185.475	161.42
185.695	343.03
185.914	225.18
186.134	126.57
186.353	67.42
186.572	54.94
186.792	45.73
187.011	85.12
187.231	84.12
187.45	85.47
187.67	56.08
187.889	48.49
188.108	89.35
188.328	29.9
188.547	188.96
188.766	425.82
188.986	2663.69
189.205	327.59
189.424	130.95
189.644	129.87
189.863	66.85
190.082	60.35
190.302	74.57
190.521	193.79
190.74	102.6
190.959	133.24
191.178	168.88
191.398	155.17
191.617	262.15
191.836	532.92
192.055	184.03
192.274	246.2
192.494	149.34
192.713	152.83
192.932	68.57
193.151	30.35
193.37	22.55
193.589	-39.6
193.808	21.29
194.027	15.02
194.246	39.97
194.465	58.65
194.685	52.71
194.904	64.97
195.123	56.9
195.342	99.31
195.561	104.7
195.78	235.68
195.999	285.94
196.218	315.06
196.436	-316.44
196.655	-67.99
196.874	-28.48
197.093	-33.77
197.312	7.97
197.531	21.14
197.75	46.63
197.969	51.62
198.188	144.89
198.407	207.19
198.625	123.71
198.844	179.63
199.063	420.21
199.282	4172.88
199.501	627.53
199.719	166.65
199.938	359.61
200.157	177.09
200.376	12.19
200.594	-192.82
200.813	104.39
201.032	52.72
201.251	27.36
201.469	61.8
201.688	60.76
201.907	31.47
202.125	42.51
202.344	76.99
202.563	68.16
202.781	32.19
203	86.19
203.218	104.51
203.437	132.48
203.656	2149.28
203.874	331.29
204.093	566.08
204.311	179.84
204.53	162.84
204.748	169.97
204.967	187.54
205.185	179.3
205.404	232.99
205.622	159.74
205.841	304.59
206.059	241.5
206.278	238.11
206.496	384.56
206.715	280.18
206.933	212.4
207.151	146.96
207.37	118.19
207.588	126.6
207.806	112.48
208.025	94.6
208.243	14.39
208.461	-35.21
208.68	65.71
208.898	67.29
209.116	-194.69
209.335	169.94
209.553	61.88
209.771	60.98
209.989	48.9
210.208	24.61
210.426	-158.51
210.644	-133.03
210.862	-557.55
211.081	395.12
211.299	-276.7
211.517	-172.36
211.735	-327.66
211.953	-370.4
212.171	620.19
212.39	-1374.72
212.608	-324.98
212.826	-51.64
213.044	-36.98
213.262	-118.76
213.48	948.14
213.698	157.91
213.916	101.64
214.134	99.82
214.352	604.71
214.57	149.87
214.788	71.9
215.006	86.98
215.224	75.85
215.442	75.79
215.66	82.41
215.878	98.31
216.096	183.37
216.314	676.43
216.532	187.11
216.75	118.4
216.968	121.63
217.185	87.51
217.403	69.08
217.621	77.43
217.839	62.17
218.057	60.51
218.275	64.34
218.492	76.21
218.71	90.44
218.928	103.26
219.146	92.8
219.363	145.52
219.581	242.91
219.799	-6614.29
220.017	449.11
220.234	490.18
220.452	378.22
220.67	369.3
220.887	193.71
221.105	144.68
221.323	110.72
221.54	112.37
221.758	68.61
221.976	57.69
222.193	49.16
222.411	40.82
222.629	22.71
222.846	51.07
223.064	59.72
223.281	50.05
223.499	35.53
223.716	40.4
223.934	18.06
224.151	10.75
224.369	29.64
224.586	24.87
224.804	-1.43
225.021	30.12
225.239	23.95
225.456	16.56
225.674	18.05
225.891	36.32
226.108	26.12
226.326	26.02
226.543	19.26
226.76	21.62
226.978	17.51
227.195	25.62
227.413	15.94
227.63	9.15
227.847	6.31
228.064	10.04
228.282	11.13
228.499	14.1
228.716	16.05
228.934	20.6
229.151	20.41
229.368	22.85
229.585	20.97
229.802	22.55
230.02	21.71
230.237	25.68
230.454	25.27
230.671	23.2
230.888	25.85
231.105	23.29
231.323	16.81
231.54	10.2
231.757	7.14
231.974	6.61
232.191	5.64
232.408	7.43
232.625	4.37
232.842	8.37
233.059	5.63
233.276	-2.59
233.493	-0.44
233.71	7.88
233.927	8.6
234.144	12.73
234.361	14.95
234.578	15.79
234.795	17.45
235.012	18.38
235.229	12.26
235.446	18.25
235.663	21.7
235.879	18.02
236.096	16.2
236.313	25.25
236.53	22.19
236.747	23.19
236.964	25.73
237.181	25.31
237.397	27.6
237.614	29
237.831	26.23
238.048	30.42
238.264	34.51
238.481	32.63
238.698	28.32
238.915	24.81
239.131	18.87
239.348	15
239.565	19.28
239.781	16.75
239.998	19.78
240.215	15.61
240.431	13.9
240.648	11.79
240.865	8.39
241.081	10.63
241.298	13.02
241.514	15.71
241.731	16.72
241.947	15.33
242.164	13.18
242.38	10.31
242.597	14.58
242.814	15.27
243.03	16.68
243.246	16.82
243.463	14.99
243.679	13.79
243.896	13.62
244.112	14.61
244.329	14.67
244.545	15.57
244.762	17.72
244.978	12.61
245.194	11.87
245.411	9.96
245.627	12.76
245.843	13.82
246.06	13.97
246.276	15.11
246.492	14.84
246.709	13.23
246.925	13.26
247.141	14.68
247.357	15.88
247.574	15.49
247.79	16.61
248.006	16.7
248.222	17.39
248.439	17.51
248.655	17.7
248.871	17.91
249.087	20.16
249.303	21.35
249.519	20.55
249.736	20.77
249.952	19.88
250.168	19.58
250.384	22.52
250.6	24.08
250.816	24.36
251.032	23.83
251.248	23.09
251.464	20.93
251.68	21.82
251.896	21.54
252.112	22.52
252.328	24.13
252.544	22.59
252.76	19.05
252.976	17
253.192	14.2
253.408	14.19
253.624	13.07
253.84	13.36
254.056	8.75
254.272	7.2
254.487	5.37
254.703	4.13
254.919	3.92
255.135	3.26
255.351	3.19
255.567	5.52
255.782	9.83
255.998	9.95
256.214	9.35
256.43	11.33
256.646	14.37
256.861	14.32
257.077	15.61
257.293	14.2
257.508	12.78
257.724	13.07
257.94	15.46
258.155	13.6
258.371	14.78
258.587	14.94
258.802	14.56
259.018	12.75
259.234	13.08
259.449	12.4
259.665	12.88
259.88	13.65
260.096	13.39
260.312	12.52
260.527	11.93
260.743	11.45
260.958	11.36
261.174	10.67
261.389	10.74
261.605	9.76
261.82	10.93
262.036	10.46
262.251	10.15
262.466	9.71
262.682	9.51
262.897	10.63
263.113	8.85
263.328	9.8
263.543	9.87
263.759	10.44
263.974	7.75
264.189	3.94
264.405	4.93
264.62	6.15
264.835	8.38
265.051	11.68
265.266	11.2
265.481	14.58
265.696	12.93
265.912	12.72
266.127	12.86
266.342	14.88
266.557	14.24
266.773	13.68
266.988	12.11
267.203	10.3
267.418	8.23
267.633	8.14
267.848	5.76
268.064	7.52
268.279	10.7
268.494	10.66
268.709	11.26
268.924	14.71
269.139	13.25
269.354	13.48
269.569	13.15
269.784	12.89
269.999	11.7
270.214	12.79
270.429	11.57
270.644	8.14
270.859	6.79
271.074	7.75
271.289	6.16
271.504	6.67
271.719	6.15
271.934	6.56
272.149	7.16
272.363	7.28
272.578	8.19
272.793	7.91
273.008	10.41
273.223	10.94
273.438	9.89
273.653	9.65
273.867	11.39
274.082	13.33
274.297	14.46
274.512	13.62
274.726	14.43
274.941	13.9
275.156	13.18
275.371	12.43
275.585	12.5
275.8	12.36
276.015	12.25
276.229	11.69
276.444	10.97
276.659	9.4
276.873	10.97
277.088	10.36
277.302	9.97
277.517	9.33
277.732	8.16
277.946	8.29
278.161	9.72
278.375	9.5
278.59	8.39
278.804	8.37
279.019	8.76
279.233	8.02
279.448	6.29
279.662	5.58
279.877	7.95
280.091	8.19
280.306	8.07
280.52	7.07
280.735	7.61
280.949	10.08
281.163	9.1
281.378	9.55
281.592	10.11
281.806	13.72
282.021	12.04
282.235	10.8
282.449	11.65
282.664	11.25
282.878	11.99
283.092	11.8
283.307	11.78
283.521	12
283.735	11.6
283.949	11.61
284.164	9.6
284.378	11.07
284.592	12.99
284.806	12.36
285.02	12.98
285.234	12.89
285.449	12.57
285.663	10.63
285.877	10.45
286.091	10.73
286.305	10.72
286.519	9.3
286.733	10.07
286.947	9.25
287.161	8.24
287.375	7.65
287.589	7.57
287.803	7.42
288.017	6.94
288.231	7.01
288.445	7.5
288.659	7.3
288.873	9.87
289.087	8.72
289.301	9.58
289.515	10.57
289.729	10.83
289.943	11.5
290.157	11.08
290.371	12.97
290.584	13.56
290.798	12.38
291.012	13.03
291.226	11.65
291.44	12.62
291.654	12.37
291.867	12.2
292.081	10.9
292.295	9.7
292.509	11.05
292.722	11.9
292.936	11.93
293.15	10.77
293.364	11.87
293.577	13.63
293.791	13.26
294.005	12.44
294.218	12.76
294.432	13.61
294.645	14.8
294.859	14.87
295.073	13.87
295.286	12.96
295.5	14.79
295.713	13.75
295.927	13.23
296.14	13.24
296.354	12.46
296.568	13.37
296.781	12.49
296.994	12.59
297.208	12.38
297.421	12.91
297.635	14.03
297.848	14.35
298.062	14.09
298.275	14.11
298.489	15.28
298.702	16.36
298.915	15.17
299.129	16.93
299.342	15.04
299.555	16.38
299.769	16.22
299.982	15.97
300.195	15.04
300.409	14.28
300.622	14.97
300.835	14.56
301.048	14.95
301.262	14.61
301.475	14.7
301.688	16.96
301.901	16.58
302.115	14.85
302.328	14
302.541	15.37
302.754	16.64
302.967	15.63
303.18	14.76
303.393	14.53
303.607	15.54
303.82	15.86
304.033	13.46
304.246	12.76
304.459	15.64
304.672	15.49
304.885	16.46
305.098	15.9
305.311	17.33
305.524	17.47
305.737	14.94
305.95	14.29
306.163	14.35
306.376	15.24
306.589	15.94
306.802	13.55
307.015	15.92
307.228	13.53
307.44	14.06
307.653	13.64
307.866	14.34
308.079	16.75
308.292	17.49
308.505	17.18
308.718	15.78
308.93	13.75
309.143	15.11
309.356	13.03
309.569	14.42
309.781	13.74
309.994	14.33
310.207	13.6
310.42	13.45
310.632	13.19
310.845	13.98
311.058	16.07
311.27	17.07
311.483	16.94
311.696	17.7
311.908	18.62
312.121	18.76
312.333	17.93
312.546	18.64
312.759	18.14
312.971	17.39
313.184	15.43
313.396	14.13
313.609	14.26
313.821	12.89
314.034	12.36
314.246	10.05
314.459	11
314.671	12.83
314.884	12.78
315.096	12.78
315.309	13.34
315.521	14.32
315.733	16.14
315.946	16.65
316.158	19.22
316.371	20.46
316.583	21.51
316.795	21.32
317.008	19.99
317.22	17.76
317.432	17.44
317.644	16.53
317.857	17.4
318.069	15.38
318.281	14.29
318.494	12.77
318.706	13.29
318.918	12.42
319.13	11.99
319.342	10.14
319.555	13.22
319.767	14.19
319.979	16.08
320.191	15.28
320.403	17.15
320.615	16.52
320.827	16.59
321.039	15.05
321.252	16.56
321.464	15.97
321.676	15.97
321.888	14.47
322.1	15.22
322.312	15.46
322.524	16.01
322.736	14.42
322.948	15.18
323.16	14.37
323.372	14.48
323.584	12.34
323.796	14.03
324.007	15.83
324.219	16.91
324.431	15.85
324.643	15.55
324.855	15.81
325.067	16.38
325.279	16.75
325.491	17.66
325.702	16.19
325.914	15.57
326.126	15.35
326.338	15.28
326.55	14.86
326.761	16.04
326.973	14.94
327.185	14.96
327.396	15.07
327.608	13.05
327.82	11.74
328.032	11.97
328.243	13.38
328.455	9.55
328.666	7.91
328.878	8.05
329.09	5.49
329.301	7.55
329.513	6
329.725	6.71
329.936	8.98
330.148	8.92
330.359	8.48
330.571	8.32
330.782	12.65
330.994	13.51
331.205	13.07
331.417	15.31
331.628	14.94
331.84	14.64
332.051	13.33
332.262	12.51
332.474	12.41
332.685	16.26
332.897	16.19
333.108	15.33
333.319	15.07
333.531	14.45
333.742	13.1
333.953	13.39
334.165	15.43
334.376	16.16
334.587	14.24
334.799	14.56
335.01	13.26
335.221	13.9
335.432	13.17
335.644	13.15
335.855	13.17
336.066	14.03
336.277	13.13
336.488	13.1
336.7	10.47
336.911	12.93
337.122	14.19
337.333	12.59
337.544	12.89
337.755	14.26
337.966	14.47
338.177	15.49
338.388	15.78
338.599	15.48
338.811	15.26
339.022	18.28
339.233	17.39
339.444	14.41
339.655	14.98
339.866	15.34
340.076	14.42
340.287	13.93
340.498	14.38
340.709	14.89
340.92	16.05
341.131	14.3
341.342	14.89
341.553	16.23
341.764	18.55
341.975	19.18
342.185	19.56
342.396	19.79
342.607	19.53
342.818	19.66
343.029	19.34
343.239	19.65
343.45	21.27
343.661	19.49
343.872	19.29
344.082	19.47
344.293	19.04
344.504	18.59
344.714	18.2
344.925	19.06
345.136	18.56
345.346	18.33
345.557	16.83
345.768	17.37
345.978	17.5
346.189	17.69
346.399	17.56
346.61	18.23
346.821	17.65
347.031	17.49
347.242	16.67
347.452	17.83
347.663	17.58
347.873	18.64
348.084	17.33
348.294	18.1
348.504	18.93
348.715	19.19
348.925	17.46
349.136	17.38
349.346	18
349.557	18.48
349.767	16.02
349.977	15.73
350.188	15.6
350.398	15.56
350.608	15.52
350.819	14.61
351.029	13.62
351.239	14.46
351.449	14.38
351.66	14.33
351.87	13.58
352.08	13.37
352.29	13.5
352.501	13.81
352.711	14.32
352.921	14.65
353.131	15.94
353.341	16.19
353.552	16.54
353.762	15.88
353.972	16.04
354.182	17.32
354.392	19.3
354.602	19.35
354.812	18.7
355.022	17.67
355.232	16.64
355.442	15.53
355.652	15.5
355.862	13.63
356.072	15.17
356.282	14.71
356.492	13.37
356.702	12.79
356.912	13.47
357.122	13.56
357.332	14.1
357.542	14.15
357.752	13.38
357.962	12.97
358.171	13.6
358.381	12.67
358.591	12.54
358.801	12.95
359.011	12.07
359.221	11.27
359.43	10.04
359.64	9.45
359.85	8.73
360.06	8.58
360.269	7.91
360.479	8.97
360.689	8.25
360.899	8.39
361.108	9.09
361.318	9.57
361.528	10.29
361.737	11.27
361.947	11.3
362.156	12.26
362.366	12.95
362.576	13.45
362.785	12.57
362.995	12.99
363.204	12.92
363.414	12.02
363.623	11.82
363.833	10.27
364.042	10.35
364.252	12.35
364.461	11.73
364.671	11.31
364.88	11.95
365.09	12.33
365.299	13.36
365.509	12.69
365.718	12.77
365.927	12.08
366.137	13.77
366.346	13.74
366.555	11.7
366.765	11.96
366.974	11.46
367.183	11.34
367.393	11.14
367.602	10.1
367.811	11.5
368.021	11.35
368.23	11.82
368.439	11.26
368.648	11.23
368.857	11.49
369.067	11.36
369.276	11.7
369.485	11.3
369.694	12.42
369.903	12.67
370.112	11.82
370.321	12.7
370.531	12.76
370.74	12.41
370.949	13.21
371.158	13.19
371.367	13.03
371.576	13.21
371.785	13.86
371.994	13.05
372.203	12.07
372.412	12.29
372.621	12.19
372.83	12.4
373.039	11.67
373.248	11.13
373.457	10.97
373.666	11.91
373.874	11.05
374.083	9.99
374.292	9.72
374.501	10.52
374.71	10.02
374.919	9.83
375.128	9.87
375.336	11.16
375.545	10.82
375.754	10.48
375.963	9.96
376.171	10.81
376.38	11.76
376.589	12.1
376.798	11.79
377.006	11.68
377.215	11.55
377.424	10.69
377.632	10.63
377.841	10.77
378.05	11.34
378.258	11.78
378.467	11.62
378.675	11.5
378.884	11.25
379.093	11.2
379.301	11.73
379.51	11.72
379.718	11.88
379.927	11.39
380.135	11.21
380.344	11.23
380.552	9.72
380.761	9.38
380.969	9.18
381.177	9.47
381.386	8.81
381.594	8.79
381.803	8.87
382.011	9.12
382.219	8.07
382.428	8.7
382.636	8.31
382.845	8.59
383.053	8.96
383.261	8.86
383.469	9.11
383.678	10.02
383.886	9.31
384.094	9.42
384.302	9.29
384.511	9.78
384.719	8.96
384.927	8.91
385.135	9.55
385.343	8.74
385.552	7.81
385.76	7.2
385.968	7.28
386.176	7.52
386.384	6.95
386.592	6.83
386.8	6.95
387.008	7.48
387.216	7.52
387.424	6.77
387.633	7.08
387.841	7.93
388.049	8.01
388.257	7.93
388.465	8.13
388.672	8.28
388.88	8.87
389.088	8.96
389.296	8.61
389.504	8.32
389.712	8.34
389.92	8.1
390.128	7.76
390.336	7.82
390.544	7.34
390.751	7.41
390.959	7.39
391.167	6.93
391.375	6.78
391.583	6.47
391.79	6.53
391.998	6.78
392.206	6.94
392.414	6.69
392.621	6.43
392.829	6.79
393.037	6.57
393.244	6.77
393.452	6.69
393.66	6.64
393.867	6.49
394.075	6.58
394.283	6.21
394.49	5.86
394.698	6.1
394.905	6.17
395.113	5.86
395.32	5.71
395.528	5.48
395.735	5.31
395.943	5.93
396.15	6.3
396.358	5.99
396.565	6.14
396.773	6.65
396.98	6.96
397.188	6.95
397.395	6.66
397.602	6.58
397.81	6.64
398.017	6.75
398.225	6.39
398.432	6.43
398.639	6.24
398.847	6.43
399.054	6.28
399.261	5.8
399.468	5.99
399.676	6.42
399.883	5.78
400.09	5.61
400.297	5.56
400.505	5.13
400.712	4.97
400.919	5.58
401.126	5.54
401.333	5.21
401.54	4.81
401.748	4.56
401.955	4.51
402.162	4.71
402.369	4.69
402.576	4.64
402.783	4.74
402.99	4.57
403.197	4.61
403.404	4.94
403.611	5.2
403.818	5.95
404.025	5.96
404.232	5.93
404.439	6.23
404.646	6.3
404.853	6.24
405.06	6.39
405.267	6.64
405.474	6.58
405.681	6.31
405.887	6.31
406.094	6
406.301	5.83
406.508	5.91
406.715	5.97
406.922	5.41
407.128	5.46
407.335	5.09
407.542	4.84
407.749	4.83
407.955	4.91
408.162	5.2
408.369	5.3
408.575	5.42
408.782	5.33
408.989	5.36
409.195	6.07
409.402	6.15
409.609	6.22
409.815	6.14
410.022	5.94
410.228	5.53
410.435	5.38
410.642	5.05
410.848	5.07
411.055	4.9
411.261	5.1
411.468	4.67
411.674	4.86
411.881	5.17
412.087	5.44
412.294	5.03
412.5	5.41
412.706	5.39
412.913	5.21
413.119	5.17
413.326	5.24
413.532	4.86
413.738	5.03
413.945	4.9
414.151	4.81
414.357	4.53
414.564	4.82
414.77	4.66
414.976	4.45
415.182	4.76
415.389	5.07
415.595	5.03
415.801	5.22
416.007	5.38
416.214	5.4
416.42	5.24
416.626	5.28
416.832	5.43
417.038	5.3
417.244	5.69
417.45	5.73
417.657	5.6
417.863	5.87
418.069	5.79
418.275	5.68
418.481	5.56
418.687	5.49
418.893	5.45
419.099	5.44
419.305	5.65
419.511	5.31
419.717	5.34
419.923	5.18
420.129	4.93
420.335	4.88
420.541	5.04
420.746	5.1
420.952	5.19
421.158	5.25
421.364	5.21
421.57	5
421.776	5.16
421.982	5.11
422.187	5.29
422.393	5.35
422.599	5.27
422.805	5.13
423.01	5.19
423.216	5.24
423.422	5.21
423.628	5.11
423.833	5.09
424.039	5.15
424.245	5.17
424.45	4.99
424.656	4.96
424.862	5.16
425.067	5.02
425.273	4.93
425.478	4.77
425.684	4.74
425.889	4.86
426.095	4.91
426.301	4.83
426.506	4.67
426.712	4.65
426.917	4.55
427.123	4.5
427.328	4.67
427.533	4.81
427.739	5
427.944	5.15
428.15	5.33
428.355	5.33
428.561	5.09
428.766	4.91
428.971	4.85
429.177	4.91
429.382	4.95
429.587	4.78
429.793	4.4
429.998	4.19
430.203	4.02
430.408	3.72
430.614	3.8
430.819	3.98
431.024	4.13
431.229	4.33
431.434	4.41
431.64	4.25
431.845	4.22
432.05	4.31
432.255	4.4
432.46	4.5
432.665	4.59
432.87	4.37
433.076	4.36
433.281	4.42
433.486	4.16
433.691	4.28
433.896	4.28
434.101	4.26
434.306	4.31
434.511	4.15
434.716	4.27
434.921	4.1
435.126	4.25
435.331	4.13
435.535	4.27
435.74	4.27
435.945	4.07
436.15	4.27
436.355	4.13
436.56	4.16
436.765	4.46
436.97	4.34
437.174	4.19
437.379	4.07
437.584	4.12
437.789	4.01
437.993	4.11
438.198	4.05
438.403	3.81
438.608	4
438.812	4.07
439.017	3.88
439.222	3.89
439.426	4.25
439.631	4.36
439.836	4.36
440.04	4.43
440.245	4.39
440.45	4.39
440.654	4.38
440.859	4.6
441.063	4.53
441.268	4.57
441.472	4.52
441.677	4.34
441.881	4.39
442.086	4.48
442.29	4.46
442.495	4.75
442.699	4.83
442.904	4.96
443.108	4.85
443.312	4.84
443.517	4.77
443.721	4.72
443.925	4.9
444.13	4.87
444.334	4.84
444.538	4.82
444.743	4.62
444.947	4.7
445.151	4.69
445.356	4.46
445.56	4.45
445.764	4.44
445.968	4.44
446.173	4.35
446.377	4.34
446.581	4.15
446.785	4.09
446.989	4.05
447.193	3.89
447.398	3.89
447.602	4.1
447.806	4.12
448.01	4.18
448.214	4.15
448.418	4.05
448.622	4.1
448.826	4.43
449.03	4.43
449.234	4.47
449.438	4.61
449.642	4.65
449.846	4.58
450.05	4.56
450.254	4.34
450.458	4.25
450.662	4.39
450.866	4.51
451.069	4.25
451.273	4.46
451.477	4.47
451.681	4.51
451.885	4.41
452.089	4.37
452.292	4.36
452.496	4.67
452.7	4.83
452.904	4.85
453.107	4.49
453.311	4.43
453.515	4.23
453.719	4.21
453.922	4.04
454.126	3.95
454.33	3.8
454.533	3.84
454.737	3.68
454.94	3.46
455.144	3.42
455.348	3.43
455.551	3.55
455.755	3.64
455.958	3.46
456.162	3.75
456.365	3.63
456.569	3.58
456.772	3.4
456.976	3.38
457.179	3.88
457.383	3.84
457.586	4.04
457.79	4.06
457.993	4.17
458.196	4.39
458.4	4.24
458.603	4.36
458.807	4.47
459.01	4.38
459.213	4.4
459.417	4.15
459.62	4.06
459.823	3.94
460.026	3.87
460.23	3.7
460.433	3.59
460.636	3.78
460.839	3.8
461.042	3.76
461.246	3.94
461.449	4.05
461.652	3.97
461.855	4.16
462.058	4.33
462.261	4.41
462.464	4.47
462.668	4.59
462.871	4.27
463.074	4.28
463.277	4.35
463.48	4.42
463.683	4.27
463.886	4.32
464.089	3.88
464.292	3.94
464.495	3.97
464.698	4.04
464.901	3.95
465.104	3.95
465.306	4.04
465.509	4.1
465.712	4.07
465.915	4.12
466.118	4.19
466.321	4.6
466.524	4.39
466.726	4.42
466.929	4.54
467.132	4.42
467.335	4.47
467.538	4.42
467.74	4.42
467.943	4.32
468.146	4.25
468.348	4.28
468.551	4.34
468.754	4.48
468.956	4.34
469.159	4.34
469.362	4.43
469.564	4.43
469.767	4.37
469.969	4.26
470.172	4.26
470.375	4.39
470.577	4.32
470.78	4.24
470.982	4.24
471.185	4.28
471.387	4.13
471.59	4.2
471.792	4.2
471.995	4.12
472.197	4.27
472.399	4.37
472.602	4.29
472.804	4.31
473.007	4.41
473.209	4.43
473.411	4.55
473.614	4.48
473.816	4.42
474.018	4.39
474.22	4.53
474.423	4.47
474.625	4.39
474.827	4.15
475.03	4.22
475.232	4.13
475.434	3.88
475.636	3.77
475.838	3.78
476.04	3.87
476.243	3.99
476.445	3.92
476.647	3.78
476.849	3.95
477.051	4.23
477.253	4.02
477.455	3.92
477.657	3.95
477.859	3.92
478.061	3.85
478.263	3.79
478.465	3.66
478.667	3.82
478.869	4.09
479.071	3.92
479.273	3.73
479.475	3.84
479.677	4.02
479.879	4.03
480.081	4
480.283	4.13
480.485	3.95
480.686	4.03
480.888	3.73
481.09	3.51
481.292	3.5
481.494	3.7
481.695	3.71
481.897	3.67
482.099	3.76
482.301	3.92
482.502	3.83
482.704	3.88
482.906	3.91
483.107	3.99
483.309	3.98
483.511	3.99
483.712	3.94
483.914	3.93
484.115	3.93
484.317	3.93
484.519	3.85
484.72	3.87
484.922	3.93
485.123	3.95
485.325	3.99
485.526	4.05
485.728	4.06
485.929	3.99
486.131	4.01
486.332	4.01
486.534	4.03
486.735	4.02
486.936	4.05
487.138	3.91
487.339	3.8
487.541	3.81
487.742	3.82
487.943	3.89
488.144	3.96
488.346	3.92
488.547	3.94
488.748	3.89
488.95	4
489.151	3.98
489.352	4.05
489.553	4.22
489.755	4.21
489.956	4.11
490.157	4.03
490.358	4.18
490.559	4.32
490.76	4.23
490.961	4.25
491.163	4.13
491.364	4.15
491.565	4.21
491.766	4.17
491.967	4.18
492.168	4.27
492.369	4.27
492.57	4.15
492.771	4.22
492.972	4.29
493.173	4.35
493.374	4.39
493.575	4.45
493.776	4.41
493.976	4.27
494.177	4.18
494.378	4.16
494.579	4.47
494.78	4.58
494.981	4.34
495.182	4.42
495.382	4.38
495.583	4.43
495.784	4.31
495.985	4.39
496.185	4.41
496.386	4.49
496.587	4.34
496.788	4.13
496.988	4.15
497.189	4.19
497.39	4.09
497.59	4.06
497.791	4.02
497.992	4.18
498.192	4.17
498.393	4.39
498.593	4.55
498.794	4.82
498.994	4.8
499.195	4.73
499.395	4.75
499.596	4.82
499.796	4.86
499.997	4.86
500.197	4.78
500.398	4.77
500.598	4.63
500.799	4.45
500.999	4.25
501.199	4.49
501.4	4.44
501.6	4.4
501.801	4.3
502.001	4.25
502.201	4.11
502.402	4.01
502.602	4.11
502.802	3.99
503.002	3.84
503.203	3.85
503.403	3.62
503.603	3.71
503.803	3.86
504.003	3.96
504.204	4.05
504.404	4.12
504.604	4.2
504.804	4.25
505.004	4.27
505.204	4.28
505.404	4.21
505.604	4.15
505.804	4.13
506.005	3.97
506.205	3.87
506.405	3.75
506.605	4.03
506.805	3.91
507.005	3.92
507.204	4.01
507.404	4.2
507.604	4.44
507.804	4.41
508.004	4.38
508.204	4.54
508.404	4.65
508.604	4.66
508.804	4.57
509.003	4.69
509.203	4.68
509.403	4.68
509.603	4.69
509.803	4.64
510.002	4.69
510.202	4.64
510.402	4.51
510.602	4.45
510.801	4.61
511.001	4.62
511.201	4.74
511.4	4.64
511.6	4.7
511.8	4.58
511.999	4.66
512.199	4.63
512.398	4.61
512.598	4.67
512.797	4.66
512.997	4.62
513.197	4.69
513.396	4.66
513.596	4.78
513.795	4.49
513.994	4.52
514.194	4.33
514.393	4.32
514.593	4.41
514.792	4.4
514.992	4.62
515.191	4.55
515.39	4.53
515.59	4.47
515.789	4.26
515.988	4.45
516.188	4.47
516.387	4.48
516.586	4.73
516.786	4.77
516.985	4.84
517.184	4.59
517.383	4.69
517.582	4.68
517.782	4.73
517.981	4.85
518.18	4.96
518.379	5
518.578	5.04
518.777	4.89
518.976	4.88
519.176	4.84
519.375	4.86
519.574	4.99
519.773	4.94
519.972	4.93
520.171	5.04
520.37	5.11
520.569	5.06
520.768	5.22
520.967	5.21
521.166	5.16
521.365	5.17
521.564	5.29
521.762	5.07
521.961	4.96
522.16	4.96
522.359	4.84
522.558	4.65
522.757	4.71
522.956	4.43
523.154	4.47
523.353	4.66
523.552	4.6
523.751	4.51
523.949	4.57
524.148	4.8
524.347	4.85
524.546	4.85
524.744	4.95
524.943	4.95
525.142	5.08
525.34	5.14
525.539	5.08
525.737	5.17
525.936	5.26
526.135	5.36
526.333	5.35
526.532	5.33
526.73	5.46
526.929	5.45
527.127	5.33
527.326	5.4
527.524	5.38
527.723	5.31
527.921	5.3
528.12	5.28
528.318	5.19
528.516	5.23
528.715	5.28
528.913	5.28
529.112	5.3
529.31	5.43
529.508	5.39
529.707	5.38
529.905	5.44
530.103	5.49
530.301	5.49
530.5	5.51
530.698	5.45
530.896	5.44
531.094	5.41
531.293	5.38
531.491	5.38
531.689	5.36
531.887	5.37
532.085	5.43
532.283	5.47
532.481	5.48
532.68	5.43
532.878	5.51
533.076	5.49
533.274	5.55
533.472	5.61
533.67	5.59
533.868	5.6
534.066	5.63
534.264	5.68
534.462	5.61
534.66	5.75
534.858	5.84
535.056	5.8
535.253	5.88
535.451	5.88
535.649	5.81
535.847	5.78
536.045	5.94
536.243	5.98
536.441	5.86
536.638	5.91
536.836	5.91
537.034	6.05
537.232	6.13
537.43	6.02
537.627	6.06
537.825	6.23
538.023	6.34
538.22	6.35
538.418	6.4
538.616	6.43
538.813	6.38
539.011	6.36
539.209	6.38
539.406	6.33
539.604	6.53
539.801	6.57
539.999	6.53
540.196	6.48
540.394	6.37
540.591	6.45
540.789	6.61
540.986	6.69
541.184	6.65
541.381	6.68
541.579	6.72
541.776	6.65
541.974	6.63
542.171	6.71
542.368	6.83
542.566	6.88
542.763	6.9
542.96	6.8
543.158	6.81
543.355	6.99
543.552	6.96
543.75	6.95
543.947	7.05
544.144	7.12
544.341	7.16
544.539	7.09
544.736	7.3
544.933	7.26
545.13	7.54
545.327	7.48
545.524	7.41
545.722	7.43
545.919	7.64
546.116	7.73
546.313	7.76
546.51	7.81
546.707	7.83
546.904	7.83
547.101	7.9
547.298	7.78
547.495	7.91
547.692	7.95
547.889	8.15
548.086	8.14
548.283	8.13
548.48	8.1
548.677	8.15
548.874	8.27
549.07	8.21
549.267	8.28
549.464	8.41
549.661	8.53
549.858	8.54
550.055	8.45
550.251	8.39
550.448	8.66
550.645	8.7
550.842	8.66
551.038	8.83
551.235	8.77
551.432	8.79
551.628	8.86
551.825	8.93
552.022	9.08
552.218	9.04
552.415	9.15
552.612	9.05
552.808	8.91
553.005	9.09
553.201	9.16
553.398	9.32
553.594	9.56
553.791	9.69
553.987	9.73
554.184	9.82
554.38	9.98
554.577	10.13
554.773	10.21
554.97	10.64
555.166	10.46
555.362	10.31
555.559	10.48
555.755	10.31
555.952	10.38
556.148	10.31
556.344	10.36
556.541	10.46
556.737	10.22
556.933	10.36
557.129	10.12
557.326	10.44
557.522	10.64
557.718	10.67
557.914	10.9
558.11	10.82
558.307	10.91
558.503	10.8
558.699	10.67
558.895	10.82
559.091	10.9
559.287	11.16
559.483	10.98
559.679	11.12
559.876	11.09
560.072	11.32
560.268	11.5
560.464	11.81
560.66	11.94
560.856	12.23
561.052	12.48
561.247	12.3
561.443	12.27
561.639	12.38
561.835	12.16
562.031	12.32
562.227	12.16
562.423	11.93
562.619	11.95
562.815	12.09
563.01	11.83
563.206	11.84
563.402	11.96
563.598	12.01
563.793	11.89
563.989	12.13
564.185	12.24
564.381	12.28
564.576	12.52
564.772	12.38
564.968	12.45
565.163	12.61
565.359	12.63
565.555	12.58
565.75	12.76
565.946	12.86
566.141	12.95
566.337	12.94
566.532	13.14
566.728	13.18
566.923	13.14
567.119	13.17
567.314	13.32
567.51	13.2
567.705	13.43
567.901	13.5
568.096	13.78
568.292	13.61
568.487	13.69
568.682	13.49
568.878	13.63
569.073	13.93
569.268	14
569.464	14.24
569.659	14.48
569.854	14.54
570.05	14.65
570.245	14.69
570.44	14.76
570.635	14.72
570.831	14.94
571.026	14.94
571.221	15.13
571.416	15.18
571.611	15.06
571.806	15.18
572.002	15.19
572.197	15.08
572.392	14.98
572.587	15.2
572.782	15.23
572.977	15.32
573.172	15.33
573.367	15.19
573.562	15.04
573.757	15.13
573.952	15
574.147	14.78
574.342	14.95
574.537	15.06
574.732	15.05
574.927	15.14
575.121	15.02
575.316	15
575.511	15.02
575.706	15.1
575.901	15.03
576.096	15.01
576.29	15.41
576.485	15.46
576.68	15.37
576.875	15.39
577.069	15.37
577.264	15.28
577.459	15.31
577.654	15.37
577.848	15.46
578.043	15.4
578.238	15.71
578.432	15.48
578.627	15.39
578.821	15.6
579.016	15.89
579.21	15.97
579.405	16.05
579.6	16.1
579.794	16.09
579.989	16.14
580.183	16.41
580.378	16.52
580.572	16.82
580.766	16.69
580.961	16.58
581.155	16.37
581.35	16.49
581.544	16.61
581.738	16.67
581.933	16.73
582.127	16.78
582.321	16.64
582.516	16.66
582.71	16.52
582.904	16.82
583.099	16.96
583.293	16.88
583.487	16.82
583.681	16.83
583.875	16.76
584.07	16.92
584.264	16.83
584.458	16.73
584.652	16.69
584.846	16.62
585.04	16.69
585.234	16.81
585.428	16.88
585.623	16.83
585.817	17.03
586.011	17.01
586.205	16.85
586.399	16.88
586.593	17.4
586.787	17.3
586.981	17.28
587.174	17.19
587.368	17.3
587.562	17.32
587.756	17.39
587.95	17.2
588.144	17.36
588.338	17.36
588.532	17.24
588.725	16.94
588.919	16.62
589.113	16.78
589.307	16.6
589.501	16.27
589.694	16.19
589.888	16.48
590.082	16.52
590.275	16.33
590.469	16.09
590.663	16.34
590.856	16.1
591.05	16.33
591.244	16.04
591.437	16.3
591.631	16.45
591.824	16.47
592.018	16.2
592.212	16.42
592.405	16.59
592.599	16.88
592.792	16.76
592.986	17.13
593.179	17.22
593.372	17.58
593.566	17.68
593.759	17.83
593.953	17.99
594.146	18.1
594.339	18.02
594.533	18
594.726	17.95
594.92	18.19
595.113	18.13
595.306	17.94
595.499	17.84
595.693	17.45
595.886	17.24
596.079	17.17
596.272	17.12
596.466	17.26
596.659	17.32
596.852	17.33
597.045	17.19
597.238	17.3
597.431	17.3
597.624	17.44
597.818	17.56
598.011	17.42
598.204	17.55
598.397	17.39
598.59	16.95
598.783	16.88
598.976	16.78
599.169	16.66
599.362	16.66
599.555	16.8
599.748	16.67
599.941	16.99
600.134	17.31
600.326	17.12
600.519	17.58
600.712	18.11
600.905	18.37
601.098	18.39
601.291	18.64
601.483	18.37
601.676	18.41
601.869	18.52
602.062	18.18
602.255	17.98
602.447	17.92
602.64	17.85
602.833	17.5
603.025	17.35
603.218	17.52
603.411	17.4
603.603	17.66
603.796	17.62
603.989	17.62
604.181	17.68
604.374	17.88
604.566	18.18
604.759	18.18
604.951	18.3
605.144	18.26
605.336	18.45
605.529	18.62
605.721	18.44
605.914	18.39
606.106	18.24
606.299	18.29
606.491	18.25
606.683	18.06
606.876	18.01
607.068	18.14
607.26	18.11
607.453	18.03
607.645	17.87
607.837	18.04
608.03	18.28
608.222	18.33
608.414	18.32
608.606	18.22
608.799	18.42
608.991	18.33
609.183	18.19
609.375	18.33
609.567	18.17
609.759	18
609.952	18.05
610.144	17.69
610.336	17.88
610.528	17.82
610.72	17.73
610.912	17.63
611.104	17.76
611.296	17.73
611.488	17.6
611.68	17.44
611.872	17.51
612.064	17.44
612.256	17.7
612.448	17.33
612.64	17.28
612.832	17.53
613.023	17.3
613.215	17.21
613.407	17.27
613.599	17.26
613.791	17.09
613.983	17.32
614.174	17.46
614.366	17.65
614.558	17.97
614.75	17.96
614.941	17.62
615.133	17.69
615.325	17.52
615.516	17.75
615.708	18.1
615.9	18.67
616.091	18.58
616.283	18.27
616.475	18.13
616.666	17.69
616.858	17.85
617.049	17.89
617.241	18.12
617.432	17.84
617.624	17.62
617.815	17.33
618.007	17.28
618.198	17.03
618.39	17.04
618.581	16.86
618.773	17.18
618.964	17.35
619.155	17.51
619.347	16.89
619.538	17.26
619.729	17.4
619.921	17.64
620.112	17.79
620.303	18.13
620.494	18.1
620.686	18.43
620.877	18.51
621.068	18.26
621.259	18.17
621.451	18.59
621.642	18.44
621.833	18.62
622.024	18.61
622.215	18.07
622.406	18.11
622.597	18.58
622.788	18.48
622.98	18.58
623.171	18.99
623.362	18.99
623.553	18.93
623.744	19.02
623.935	19.07
624.126	18.91
624.317	19.13
624.508	19.11
624.698	18.72
624.889	18.81
625.08	18.96
625.271	18.67
625.462	18.8
625.653	18.6
625.844	18.92
626.034	18.56
626.225	18.4
626.416	18.51
626.607	18.45
626.798	18.44
626.988	18.5
627.179	18.09
627.37	18.04
627.56	17.94
627.751	18.44
627.942	18.02
628.132	17.98
628.323	18.09
628.514	18.14
628.704	18.14
628.895	18.4
629.085	18.25
629.276	18.56
629.466	18.78
629.657	19.06
629.847	19.02
630.038	19.48
630.228	19.61
630.419	19.65
630.609	19.62
630.8	19.7
630.99	19.44
631.181	19.57
631.371	19.23
631.561	19.03
631.752	18.84
631.942	18.4
632.132	18.17
632.323	18.05
632.513	18.08
632.703	18.02
632.893	17.65
633.084	17.73
633.274	17.23
633.464	17.53
633.654	17.66
633.844	17.67
634.034	17.97
634.225	18.23
634.415	18.33
634.605	18.19
634.795	18.2
634.985	18.5
635.175	18.48
635.365	18.77
635.555	18.9
635.745	18.77
635.935	18.82
636.125	18.77
636.315	18.23
636.505	18.48
636.695	18.59
636.885	18.19
637.075	18.14
637.265	18.47
637.455	18.44
637.644	18.18
637.834	18.14
638.024	17.97
638.214	17.91
638.404	18.26
638.593	18
638.783	17.82
638.973	18.43
639.163	18.38
639.352	18.05
639.542	17.86
639.732	17.82
639.921	17.78
640.111	18.11
640.301	17.71
640.49	17.87
640.68	18.16
640.87	18.51
641.059	18.21
641.249	18.15
641.438	18.42
641.628	18.57
641.817	18.7
642.007	18.99
642.196	18.69
642.386	19.18
642.575	19.3
642.764	18.97
642.954	18.73
643.143	18.71
643.333	19.28
643.522	19.04
643.711	18.98
643.901	19.23
644.09	19.2
644.279	19.54
644.469	19.18
644.658	18.83
644.847	18.67
645.036	18.58
645.226	18.5
645.415	18.11
645.604	17.85
645.793	18.43
645.982	18.36
646.171	18.01
646.361	17.85
646.55	18.13
646.739	18.02
646.928	18.26
647.117	18.46
647.306	18.92
647.495	19.03
647.684	18.96
647.873	18.93
648.062	18.86
648.251	19.03
648.44	18.2
648.629	17.92
648.818	17.8
649.007	17.8
649.196	17.94
649.384	17.85
649.573	17.95
649.762	18.42
649.951	18.57
650.14	18.7
650.328	18.59
650.517	19.37
650.706	19.79
650.895	19.87
651.083	19.53
651.272	19.54
651.461	19.5
651.65	19.25
651.838	18.74
652.027	18.06
652.216	17.38
652.404	17.23
652.593	17.48
652.781	17.57
652.97	17.54
653.158	17.72
653.347	17.6
653.535	17.76
653.724	18.04
653.912	18.28
654.101	18.73
654.289	19.33
654.478	19.71
654.666	19.39
654.855	18.92
655.043	18.81
655.231	18.82
655.42	18.7
655.608	18.83
655.796	18.38
655.985	18.6
656.173	18.53
656.361	18.28
656.55	18.09
656.738	18.42
656.926	18.56
657.114	19.24
657.302	19.1
657.491	19.4
657.679	19.35
657.867	19.72
658.055	19.56
658.243	19.68
658.431	19.7
658.619	19.77
658.807	19.42
658.996	19.37
659.184	19.1
659.372	19.25
659.56	19.58
659.748	19.18
659.936	18.82
660.124	19.03
660.311	18.82
660.499	18.91
660.687	19.11
660.875	19.19
661.063	19.53
661.251	19.8
661.439	19.95
661.627	19.56
661.814	19.4
662.002	19.9
662.19	19.92
662.378	19.92
662.565	20.06
662.753	20.09
662.941	20.08
663.129	20.24
663.316	19.75
663.504	19.89
663.692	19.99
663.879	20.54
664.067	20.68
664.254	20.19
664.442	20
664.63	19.96
664.817	19.75
665.005	19.92
665.192	19.47
665.38	19.91
665.567	19.92
665.755	20.13
665.942	19.6
666.13	19.66
666.317	19.58
666.504	20.06
666.692	20.08
666.879	19.53
667.067	18.78
667.254	18.72
667.441	18.57
667.629	18.99
667.816	18.7
668.003	19.53
668.19	19.11
668.378	19.54
668.565	19.61
668.752	19.62
668.939	20.01
669.127	20.55
669.314	20.92
669.501	20.35
669.688	19.8
669.875	19.21
670.062	18.96
670.249	19.25
670.436	19.17
670.623	18.83
670.81	18.14
670.997	17.9
671.184	18.3
671.371	18.47
671.558	18.67
671.745	18.56
671.932	19.04
672.119	18.17
672.306	18.1
672.493	17.3
672.68	16.95
672.867	17.65
673.054	18.14
673.24	17.85
673.427	17.57
673.614	17.89
673.801	17.82
673.988	17.84
674.174	18.73
674.361	18.65
674.548	19.31
674.734	19.66
674.921	20.12
675.108	20.08
675.294	19.91
675.481	19.98
675.668	20.86
675.854	21.48
676.041	21
676.227	20.73
676.414	20.41
676.601	20.75
676.787	20.84
676.974	20.63
677.16	20.08
677.347	20.52
677.533	20.69
677.719	19.82
677.906	19.58
678.092	19.79
678.279	19.64
678.465	20.01
678.651	20.01
678.838	20.18
679.024	19.67
679.21	19.78
679.397	19.53
679.583	18.89
679.769	19.03
679.955	18.61
680.142	18.47
680.328	18.38
680.514	18.47
680.7	18.35
680.886	18.47
681.073	18.53
681.259	18.54
681.445	18.69
681.631	18.89
681.817	18.44
682.003	18.77
682.189	19.19
682.375	19.31
682.561	19.37
682.747	18.93
682.933	18.8
683.119	18.81
683.305	19.05
683.491	19.47
683.677	19.87
683.863	19.82
684.049	19.73
684.235	19.91
684.42	19.37
684.606	19.29
684.792	19.78
684.978	19.38
685.164	19.51
685.349	19.49
685.535	18.94
685.721	18.35
685.907	19.03
686.092	19.25
686.278	18.42
686.464	19.04
686.649	19.12
686.835	18.81
687.021	19.06
687.206	19.27
687.392	19.15
687.577	19.53
687.763	19.56
687.948	19.89
688.134	19.55
688.319	20.04
688.505	20.07
688.69	19.92
688.876	20.58
689.061	20.72
689.247	20.58
689.432	20.32
689.618	20.28
689.803	20.23
689.988	19.78
690.174	19.89
690.359	19.95
690.544	19.64
690.73	18.91
690.915	18.92
691.1	18.65
691.285	18.65
691.471	19.29
691.656	18.8
691.841	18.98
692.026	18.58
692.211	18.16
692.396	17.89
692.582	17.88
692.767	19.32
692.952	18.48
693.137	18.61
693.322	18.17
693.507	18.86
693.692	19.45
693.877	19.5
694.062	19.79
694.247	20.38
694.432	21.31
694.617	22.4
694.802	21
694.987	21.49
695.172	21.43
695.357	22
695.541	21.26
695.726	21.07
695.911	21.19
696.096	21.18
696.281	21.16
696.466	20.32
696.65	19.72
696.835	19.92
697.02	20.34
697.204	20.02
697.389	19.45
697.574	19.54
697.759	19.54
697.943	19.32
698.128	19.61
698.312	19.47
698.497	19.72
698.682	19.64
698.866	19.82
699.051	18.87
699.235	18.9
699.42	19.28
699.604	19.31
699.789	19.42
699.973	19.51
700.158	18.82
700.342	18.54
700.527	17.88
700.711	17.65
700.895	18.01
701.08	18.45
701.264	18.58
701.448	18.51
701.633	18.97
701.817	18.98
702.001	18.9
702.186	19.6
702.37	20.05
702.554	20.87
702.738	21.68
702.923	21.39
703.107	21.67
703.291	21.8
703.475	21.97
703.659	21.03
703.843	20.49
704.027	20.22
704.212	20.86
704.396	20.76
704.58	20.31
704.764	19.59
704.948	19.17
705.132	18.53
705.316	17.8
705.5	17.87
705.684	17.69
705.868	17.42
706.052	18.02
706.235	16.84
706.419	16.33
706.603	17.5
706.787	17.97
706.971	18.45
707.155	19.28
707.339	20.01
707.522	19.54
707.706	20.17
707.89	20.44
708.074	21.35
708.257	21.54
708.441	22.69
708.625	22.04
708.808	21.42
708.992	20.99
709.176	20.88
709.359	21.42
709.543	22
709.727	22.01
709.91	20.97
710.094	20.79
710.277	21.41
710.461	20.64
710.644	21.52
710.828	22.52
711.011	22.85
711.195	22.55
711.378	21.96
711.562	21.51
711.745	21.05
711.928	22.24
712.112	21
712.295	21.07
712.478	21.55
712.662	20.14
712.845	19.53
713.028	18.69
713.212	18.65
713.395	18.84
713.578	19.25
713.761	19.31
713.945	19.04
714.128	19.84
714.311	18.9
714.494	18.99
714.677	19.41
714.86	19.7
715.043	19.92
715.227	20.99
715.41	21.29
715.593	21.04
715.776	20.76
715.959	20.58
716.142	20.21
716.325	20.72
716.508	20.88
716.691	21.22
716.874	21.21
717.057	21.84
717.239	21.16
717.422	20.85
717.605	20.52
717.788	21.21
717.971	21.77
718.154	22.44
718.337	22.98
718.519	22.93
718.702	22.65
718.885	22.42
719.068	22.48
719.25	21.96
719.433	22.61
719.616	22.17
719.798	21.39
719.981	20.87
720.164	19.86
720.346	17.77
720.529	16.8
720.712	15.56
720.894	15.78
721.077	15.4
721.259	15.88
721.442	14.9
721.624	15.64
721.807	16.14
721.989	16.06
722.172	17.09
722.354	18.3
722.537	17.9
722.719	19.42
722.901	18.95
723.084	19.15
723.266	19.67
723.448	19.44
723.631	19.61
723.813	19.98
723.995	19.94
724.178	19.85
724.36	20.49
724.542	21.19
724.724	21.29
724.907	21.98
725.089	22.06
725.271	21.24
725.453	19.7
725.635	18.84
725.817	18.05
725.999	18.18
726.181	17.91
726.364	17.37
726.546	17.53
726.728	17.31
726.91	17.51
727.092	17.08
727.274	17.45
727.456	19.42
727.638	19.46
727.819	19.57
728.001	20.51
728.183	20.59
728.365	20.98
728.547	20.88
728.729	21.64
728.911	20.79
729.093	21.35
729.274	21.28
729.456	20.97
729.638	21.86
729.82	22.96
730.001	23.18
730.183	22.1
730.365	20.85
730.546	20.72
730.728	20.54
730.91	20.67
731.091	20.46
731.273	19.62
731.455	19.78
731.636	20.42
731.818	19.7
731.999	19.78
732.181	20.39
732.362	22.91
732.544	22.68
732.725	22.1
732.907	21.91
733.088	22.5
733.27	23.23
733.451	23.67
733.633	22.49
733.814	22.88
733.995	21.78
734.177	21.1
734.358	19.35
734.539	20.43
734.721	20.82
734.902	20.74
735.083	19.81
735.264	21.11
735.446	20.2
735.627	19.57
735.808	19.01
735.989	18.79
736.17	20.77
736.351	21.72
736.533	21.52
736.714	20.83
736.895	20.54
737.076	19.89
737.257	18.33
737.438	18.37
737.619	20.08
737.8	19.75
737.981	19.43
738.162	18.69
738.343	18.81
738.524	17.63
738.705	19.37
738.886	19.51
739.067	20.26
739.247	19.58
739.428	21.12
739.609	20.54
739.79	21.55
739.971	22.99
740.151	23.41
740.332	22.4
740.513	22.93
740.694	21.84
740.874	22.26
741.055	21.72
741.236	22.82
741.417	21.5
741.597	21.35
741.778	20.56
741.958	18.39
742.139	17.29
742.32	18.54
742.5	18.94
742.681	18.17
742.861	17.57
743.042	18.11
743.222	18.21
743.403	19.06
743.583	19.66
743.764	19.13
743.944	19.6
744.124	19.1
744.305	17.76
744.485	16.99
744.666	17.38
744.846	17.69
745.026	17.39
745.207	16.19
745.387	16.07
745.567	17.07
745.747	18.12
745.928	18.69
746.108	19.61
746.288	18.39
746.468	18.15
746.648	17.63
746.829	19.48
747.009	20.55
747.189	20.42
747.369	21
747.549	19.86
747.729	18.27
747.909	18.49
748.089	18.85
748.269	19.38
748.449	18.85
748.629	19.97
748.809	18.73
748.989	18.86
749.169	18.89
749.349	17.91
749.529	18.77
749.709	19.63
749.889	19.14
750.068	19.64
750.248	21.15
750.428	22.1
750.608	20.79
750.788	21.54
750.967	21.2
751.147	20.57
751.327	19.69
751.507	18
751.686	18.24
751.866	17.62
752.046	17.28
752.225	16.64
752.405	18.89
752.585	18.75
752.764	18.3
752.944	18.05
753.123	19.06
753.303	18.99
753.482	17.83
753.662	17.71
753.841	17.61
754.021	17.47
754.2	18.71
754.38	17.78
754.559	18.77
754.739	18.45
754.918	19.21
755.097	19.65
755.277	19.96
755.456	21.86
755.635	22.26
755.815	23.79
755.994	23.2
756.173	22.27
756.352	21.29
756.532	20.95
756.711	20.06
756.89	19.76
757.069	20.37
757.248	21.06
757.427	20.88
757.607	21.59
757.786	19.96
757.965	19.46
758.144	20.5
758.323	20.62
758.502	21.35
758.681	23.42
758.86	23.46
759.039	22.04
759.218	22.53
759.397	22.84
759.576	24.22
759.755	25.2
759.934	26.56
760.113	26.06
760.291	25.1
760.47	24.31
760.649	23.68
760.828	23.65
761.007	24.08
761.186	25.16
761.364	23.99
761.543	21.98
761.722	22.04
761.901	21.15
762.079	21.44
762.258	22.86
762.437	23.15
762.615	23.64
762.794	22.1
762.972	22.3
763.151	20.29
763.33	20.79
763.508	20.8
763.687	21.06
763.865	21.47
764.044	20.43
764.222	19.64
764.401	20.42
764.579	20.38
764.758	21.12
764.936	21.49
765.114	21.94
765.293	22.17
765.471	22.49
765.65	22.61
765.828	22.26
766.006	23.14
766.184	23.27
766.363	22.86
766.541	21.13
766.719	22.27
766.898	22.2
767.076	23.12
767.254	23.43
767.432	22.26
767.61	22.32
767.788	23.52
767.967	24.62
768.145	24.81
768.323	24.56
768.501	25.64
768.679	24.57
768.857	24.03
769.035	21.19
769.213	22.17
769.391	24.7
769.569	24.49
769.747	24.28
769.925	23.52
770.103	24.24
770.281	24.31
770.459	24.14
770.636	22.91
770.814	23.14
770.992	25.08
771.17	22.79
771.348	19.73
771.525	20.89
771.703	21.29
771.881	19.78
772.059	20.36
772.236	20.4
772.414	20.67
772.592	21.41
772.769	21.21
772.947	20.95
773.125	24.06
773.302	25.33
773.48	23.13
773.657	22.96
773.835	22.03
774.013	19.66
774.19	17.08
774.368	18.5
774.545	20.02
774.723	18.64
774.9	19.23
775.077	17.48
775.255	19.2
775.432	18.58
775.61	18.83
775.787	20.25
775.964	21.24
776.142	21.23
776.319	20.97
776.496	20.81
776.674	22.72
776.851	21.15
777.028	21.73
777.205	21.45
777.382	22.62
777.56	19.4
777.737	19.5
777.914	19.84
778.091	21.8
778.268	19.73
778.445	19.04
778.622	18.38
778.8	21.65
778.977	19.47
779.154	16.39
779.331	17.35
779.508	19.71
779.685	18.54
779.862	17.68
780.038	17.06
780.215	16.95
780.392	16.78
780.569	17.55
780.746	14.54
780.923	15.08
781.1	17.4
781.277	17.36
781.453	14.59
781.63	15.65
781.807	16.81
781.984	16.15
782.16	15.6
782.337	16.04
782.514	16.72
782.691	17.68
782.867	16.57
783.044	16.7
783.221	14.65
783.397	18.4
783.574	18.85
783.75	18.1
783.927	20.65
784.103	21.01
784.28	17.55
784.456	15.21
784.633	14.72
784.809	16.35
784.986	15.89
785.162	15.33
785.339	13.39
785.515	15.17
785.692	15.72
785.868	13.65
786.044	15.38
786.221	19.87
786.397	15.53
786.573	15.9
786.749	16.79
786.926	18.16
787.102	19.97
787.278	19.78
787.454	16.43
787.631	13.69
787.807	12.59
787.983	10.4
788.159	8.23
788.335	12.67
788.511	13.91
788.687	12.17
788.863	9.38
789.039	10.11
789.216	7.91
789.392	11.11
789.568	10.66
789.744	13.64
789.919	14.37
790.095	16.95
790.271	18.39
790.447	18.06
790.623	20.39
790.799	21.78
790.975	22.38
791.151	22.84
791.327	20.54
791.502	23.78
791.678	24.52
791.854	25.44
792.03	19.38
792.205	17.95
792.381	15.95
792.557	13.02
792.733	12.51
792.908	8.86
793.084	17.81
793.259	19.19
793.435	20.91
793.611	19.87
793.786	21.21
793.962	23.95
794.137	23.02
794.313	26.42
794.488	27.79
794.664	29.17
794.839	29.72
795.015	25.05
795.19	23.68
795.366	21.83
795.541	20.58
795.716	19.38
795.892	20.16
796.067	21.23
796.242	19.78
796.418	23.8
796.593	21.66
796.768	19.21
796.944	21.5
797.119	22.79
797.294	25.09
797.469	28.08
797.644	32.23
797.82	29.98
797.995	27.97
798.17	26.6
798.345	22.12
798.52	26.87
798.695	31.08
798.87	23.42
799.045	19.16
799.22	14.84
799.395	15.45
799.57	11.74
799.745	17.04
799.92	20.19
800.095	22.35
800.27	21.82
800.445	19.87
800.62	18.98
800.795	25.21
800.97	26.9
801.145	24.64
801.319	21.8
801.494	19.19
801.669	18.7
801.844	19.33
802.018	16.1
802.193	15.31
802.368	15.89
802.543	14.05
802.717	13.79
802.892	13.38
803.067	16.95
803.241	18
803.416	23.06
803.59	23.09
803.765	17.39
803.94	18.87
804.114	22.07
804.289	18.31
804.463	18.12
804.638	17.63
804.812	18.45
804.986	17.08
805.161	16.64
805.335	14.16
805.51	14.74
805.684	20.74
805.858	23.23
806.033	23
806.207	26.89
806.381	27.85
806.556	27.44
806.73	29.63
806.904	31.44
807.078	31.24
807.253	33.31
807.427	31.52
807.601	32.08
807.775	33.55
807.949	33.65
808.123	31.06
808.298	30.4
808.472	32.39
808.646	30.22
808.82	28.43
808.994	27.21
809.168	22.45
809.342	23.39
809.516	19.83
809.69	19.88
809.864	18.84
810.038	23.31
810.212	26.7
810.385	24.45
810.559	24.49
810.733	25.83
810.907	26.24
811.081	31.57
811.255	30.71
811.428	35.07
811.602	33.06
811.776	32.25
811.95	28.54
812.123	27.06
812.297	24.57
812.471	26.35
812.644	20.76
812.818	21.87
812.992	14.51
813.165	13.87
813.339	10.18
813.512	7.56
813.686	7.54
813.86	8.45
814.033	9.55
814.207	6.68
814.38	5.39
814.554	16.28
814.727	15.21
814.9	20.33
815.074	23.11
815.247	29.41
815.421	35.74
815.594	31.37
815.767	35.47
815.941	35.84
816.114	38.65
816.287	38.37
816.46	35.97
816.634	34.85
816.807	35.35
816.98	28.82
817.153	24.67
817.327	20.93
817.5	29.93
817.673	24.57
817.846	24.85
818.019	24.23
818.192	17.62
818.365	17.5
818.538	18.89
818.711	20.94
818.884	25.04
819.057	23.06
819.23	21.83
819.403	21.82
819.576	23.25
819.749	24.53
819.922	21.3
820.095	28.36
820.268	26.3
820.441	29.45
820.614	25.15
820.786	25.57
820.959	23.47
821.132	24.26
821.305	23.61
821.477	23.14
821.65	20.67
821.823	23.99
821.996	21.69
822.168	20.34
822.341	19.74
822.514	22.03
822.686	21.99
822.859	22.98
823.031	22.13
823.204	21.48
823.376	21.71
823.549	21.53
823.722	20.92
823.894	20.96
824.067	22.07
824.239	21.42
824.411	19.55
824.584	19.86
824.756	19.05
824.929	19.1
825.101	20.3
825.273	20.57
825.446	23.08
825.618	22.4
825.79	22.98
825.963	23.99
826.135	25.66
826.307	25.61
826.479	24.35
826.652	24.15
826.824	25.15
826.996	23.83
827.168	22.14
827.34	19.81
827.512	20.54
827.684	21.08
827.856	21.33
828.029	21.1
828.201	22.1
828.373	22.73
828.545	23.43
828.717	23.26
828.889	22.24
829.061	24.25
829.232	25.48
829.404	25.04
829.576	25.7
829.748	24.25
829.92	23.31
830.092	23.46
830.264	22.28
830.436	23.71
830.607	22.56
830.779	27.47
830.951	24.39
831.123	22.54
831.294	20.48
831.466	21.25
831.638	23.62
831.809	22.26
831.981	19.06
832.153	19.85
832.324	19.65
832.496	19.3
832.667	15.51
832.839	18.38
833.011	23.13
833.182	24.76
833.354	22.19
833.525	17.59
833.697	17.97
833.868	24.08
834.039	23.83
834.211	23.76
834.382	25.15
834.554	25.46
834.725	24.64
834.896	23.04
835.068	23.32
835.239	23
835.41	23.74
835.581	22.64
835.753	18.14
835.924	13.95
836.095	9.13
836.266	12.73
836.438	15.04
836.609	15.29
836.78	16.36
836.951	18.41
837.122	18.15
837.293	18.23
837.464	18.98
837.635	20.19
837.806	25.85
837.977	27.15
838.148	20.57
838.319	14.31
838.49	15.6
838.661	17.19
838.832	13.69
839.003	11.65
839.174	11.21
839.345	13.44
839.516	10.58
839.687	20.46
839.857	26.37
840.028	21.3
840.199	20.25
840.37	18.62
840.54	13.11
840.711	11.52
840.882	13.39
841.053	17.26
841.223	23.49
841.394	22.51
841.564	6.72
841.735	-0.84
841.906	-4.09
842.076	-9.99
842.247	-17.26
842.417	-16.15
842.588	-3.24
842.758	3.66
842.929	10.79
843.099	9.09
843.27	16.08
843.44	15.45
843.611	22.79
843.781	30.36
843.951	29.41
844.122	29.84
844.292	34.14
844.462	32.08
844.633	30.86
844.803	26.04
844.973	22.25
845.144	23.81
845.314	31.01
845.484	28.46
845.654	37.9
845.824	42.67
845.995	49.87
846.165	50.72
846.335	47.76
846.505	53.24
846.675	49.4
846.845	51.16
847.015	49.72
847.185	44.01
847.355	37.92
847.525	22.6
847.695	22.78
847.865	26.66
848.035	30
848.205	39.18
848.375	40.37
848.545	42.48
848.715	52.54
848.884	50.35
849.054	58.35
849.224	66.2
849.394	62.24
849.564	60.43
849.733	52.4
849.903	47.76
850.073	43.05
850.243	38.71
850.412	37.24
850.582	21.65
850.752	4.74
850.921	-14.62
851.091	-1.69
851.26	5.81
851.43	5.63
851.599	7.56
851.769	8.64
851.939	-17.32
852.108	-6.32
852.278	2.13
852.447	27.98
852.616	38.58
852.786	51.06
852.955	43.82
853.125	38.98
853.294	38.66
853.463	36.21
853.633	37.72
853.802	44.31
853.971	40.94
854.141	42.84
854.31	29.86
854.479	29.27
854.648	30.59
854.818	30.43
854.987	23.55
855.156	28.1
855.325	30.68
855.494	24.71
855.663	23.49
855.832	30.07
856.001	20.3
856.171	33.51
856.34	47.06
856.509	34.44
856.678	44.26
856.847	41.39
857.016	37.34
857.185	37.83
857.353	49.46
857.522	53.24
857.691	39.9
857.86	49.55
858.029	46.38
858.198	28.97
858.367	34.13
858.535	30.5
858.704	28.7
858.873	28.65
859.042	22
859.21	20.77
859.379	35.69
859.548	42.84
859.717	41.79
859.885	28.13
860.054	31.56
860.222	32.07
860.391	38.51
860.56	55.49
860.728	60.1
860.897	61.81
861.065	65.36
861.234	57.77
861.402	66.04
861.571	57.96
861.739	81.98
861.908	89.36
862.076	95.56
862.244	104.41
862.413	85.6
862.581	76.52
862.749	61.6
862.918	48.01
863.086	42.29
863.254	46.53
863.423	47.07
863.591	40.48
863.759	49.8
863.927	34.54
864.096	43.74
864.264	48.52
864.432	50.02
864.6	61.15
864.768	64.7
864.936	69.73
865.104	73.63
865.272	72.78
865.44	66.5
865.608	62.46
865.776	66.17
865.944	65.05
866.112	63.97
866.28	56.3
866.448	49.47
866.616	37.48
866.784	38.15
866.952	30.66
867.12	32.68
867.288	25.94
867.455	14.04
867.623	17.99
867.791	23.94
867.959	16.34
868.127	20.4
868.294	23.36
868.462	51.97
868.63	41.32
868.797	64.64
868.965	60.6
869.133	101.87
869.3	103.51
869.468	89.24
869.636	37.04
869.803	39.24
869.971	32.79
870.138	33.63
870.306	28.68
870.473	5.95
870.641	0.46
870.808	-2.65
870.975	-5.79
871.143	-7.27
871.31	13.22
871.478	11.52
871.645	13.64
871.812	27.96
871.98	22.47
872.147	5.31
872.314	43.13
872.482	31.81
872.649	22.43
872.816	26.29
872.983	39.56
873.15	38.13
873.318	36.79
873.485	43.32
873.652	33.97
873.819	39.95
873.986	49.22
874.153	36.98
874.32	40.39
874.487	39.97
874.654	54.51
874.821	29.14
874.988	20.46
875.155	37.89
875.322	32.63
875.489	29.69
875.656	24.81
875.823	23.47
875.99	18.36
876.157	22.34
876.324	22.3
876.49	18.02
876.657	24.62
876.824	23.9
876.991	9.28
877.157	0.4
877.324	19.17
877.491	33.51
877.658	47.14
877.824	58.32
877.991	69.37
878.157	60.96
878.324	54.89
878.491	51.14
878.657	51.62
878.824	54
878.99	56.77
879.157	48.91
879.323	43.71
879.49	36.23
879.656	40.86
879.823	24.67
879.989	25.4
880.156	36.61
880.322	50.41
880.488	53.39
880.655	52.8
880.821	45.88
880.987	37.1
881.154	41.05
881.32	31.42
881.486	31.97
881.652	39.11
881.819	40.26
881.985	38.99
882.151	35.1
882.317	32.35
882.483	33.34
882.649	36.7
882.816	35.79
882.982	37.16
883.148	37.43
883.314	36.95
883.48	33.7
883.646	32.2
883.812	27.42
883.978	23.27
884.144	22.7
884.31	24.45
884.476	22.33
884.642	21.18
884.807	15.8
884.973	16.36
885.139	17.59
885.305	17.41
885.471	18.65
885.637	19.39
885.802	21.05
885.968	20.89
886.134	16.82
886.3	14.37
886.465	16.73
886.631	21.2
886.797	24.43
886.962	25.14
887.128	31.73
887.293	29.1
887.459	39.56
887.625	43.34
887.79	54.52
887.956	59.97
888.121	64.07
888.287	67.71
888.452	69.25
888.618	66.12
888.783	60.28
