Data from 2938119_Reflection_3.txt Node
Date: Sat Jul 11 17:55:35 EDT 2015
User: robert
Spectrometer: USB4E03001
Autoset integration time: false
Trigger mode: 4
Integration Time (sec): 1.000000E-1
Scans to average: 10
Electric dark correction enabled: true
Nonlinearity correction enabled: false
Boxcar width: 5
Stray light correction enabled: false
XAxis mode: Wavelengths
Stop averaging: false
Number of Pixels in Spectrum: 3648
>>>>>Begin Spectral Data<<<<<
177.566	766.67
177.785	-150.49
178.005	3.4
178.225	20.93
178.445	56.48
178.665	147.66
178.885	81.1
179.105	144.12
179.324	99.98
179.544	58.73
179.764	65.94
179.984	38.22
180.204	84.16
180.423	32.4
180.643	-26.87
180.863	136.16
181.083	-143.81
181.302	-23.15
181.522	18.27
181.742	74.29
181.961	50.06
182.181	51.46
182.401	60.06
182.621	-30.89
182.84	7.92
183.06	75.58
183.279	28.06
183.499	55.41
183.719	72.72
183.938	58.04
184.158	66.78
184.377	86.13
184.597	92.25
184.816	110.8
185.036	103.35
185.256	103.65
185.475	128.21
185.695	129.51
185.914	166.64
186.134	137.45
186.353	145.58
186.572	100.84
186.792	123.68
187.011	156.91
187.231	126.86
187.45	118.52
187.67	132.5
187.889	111.35
188.108	153.73
188.328	148.41
188.547	151.9
188.766	155.25
188.986	186.2
189.205	189.66
189.424	162.64
189.644	193.09
189.863	254.69
190.082	1123.77
190.302	320.96
190.521	181.78
190.74	232.48
190.959	-1305.52
191.178	-577
191.398	634.78
191.617	310.75
191.836	332.9
192.055	424.95
192.274	346.83
192.494	256.85
192.713	855.48
192.932	727.92
193.151	-6559.79
193.37	-1104.14
193.589	-307.46
193.808	-1712.7
194.027	-752.47
194.246	512.44
194.465	12261.02
194.685	1247.27
194.904	-2499.64
195.123	603.93
195.342	-967.14
195.561	627.53
195.78	298.83
195.999	237.02
196.218	450.94
196.436	405.43
196.655	394.23
196.874	205.99
197.093	213.94
197.312	160.06
197.531	171.54
197.75	124.16
197.969	127.33
198.188	136.48
198.407	141.57
198.625	134.15
198.844	133.69
199.063	99.35
199.282	148.28
199.501	69.46
199.719	115.03
199.938	91.29
200.157	114.27
200.376	-855.15
200.594	218.4
200.813	136.99
201.032	106.6
201.251	111.44
201.469	150.84
201.688	97.76
201.907	129.08
202.125	111.99
202.344	154.35
202.563	154.33
202.781	133.73
203	104.78
203.218	92.71
203.437	102.98
203.656	79.94
203.874	31.28
204.093	55.96
204.311	66.48
204.53	76.72
204.748	60.44
204.967	49.37
205.185	58.8
205.404	59.36
205.622	78.72
205.841	77.51
206.059	87.75
206.278	107.15
206.496	130.43
206.715	129.22
206.933	154.74
207.151	285.17
207.37	497.19
207.588	644.99
207.806	400.19
208.025	693.24
208.243	484.77
208.461	426.99
208.68	-196.39
208.898	381.77
209.116	203.94
209.335	138.23
209.553	231.8
209.771	165.15
209.989	382.17
210.208	-615.74
210.426	-220.8
210.644	-686.73
210.862	256.84
211.081	238.47
211.299	275.51
211.517	378.07
211.735	430.47
211.953	145.84
212.171	141.63
212.39	139.64
212.608	130.69
212.826	107.51
213.044	96.61
213.262	101.82
213.48	78.05
213.698	66.34
213.916	81.12
214.134	73.79
214.352	99.21
214.57	91.1
214.788	80.53
215.006	74.7
215.224	66.91
215.442	66.34
215.66	63.13
215.878	77
216.096	91.8
216.314	87.92
216.532	90.94
216.75	61.77
216.968	62.95
217.185	89.88
217.403	135.43
217.621	226.24
217.839	179.97
218.057	124.43
218.275	93.93
218.492	74.89
218.71	71.07
218.928	83.96
219.146	166.76
219.363	153.13
219.581	127.43
219.799	189.78
220.017	1293.81
220.234	70.31
220.452	70.25
220.67	32.11
220.887	173.53
221.105	207.93
221.323	123.02
221.54	66.33
221.758	58.65
221.976	58.33
222.193	55.2
222.411	54.43
222.629	48.91
222.846	61.45
223.064	65.49
223.281	61.36
223.499	57.19
223.716	42.34
223.934	44.31
224.151	41.77
224.369	51.97
224.586	50.82
224.804	48.82
225.021	42.21
225.239	35.81
225.456	26.22
225.674	20.48
225.891	30.79
226.108	44.34
226.326	40.16
226.543	34.82
226.76	22.27
226.978	23.11
227.195	20.67
227.413	22.12
227.63	28.89
227.847	32.8
228.064	32.8
228.282	29.13
228.499	29.15
228.716	27.56
228.934	27.46
229.151	29.23
229.368	27.5
229.585	25.62
229.802	26.04
230.02	21.21
230.237	18.98
230.454	16.79
230.671	14.33
230.888	9.33
231.105	8.88
231.323	8.55
231.54	7.07
231.757	8.12
231.974	10.82
232.191	14.77
232.408	14.78
232.625	21.8
232.842	21.38
233.059	22.72
233.276	21.11
233.493	24.89
233.71	27.05
233.927	24.32
234.144	22.93
234.361	22.55
234.578	20.55
234.795	22.72
235.012	14
235.229	15.43
235.446	12.83
235.663	20.74
235.879	14.73
236.096	11.05
236.313	9.57
236.53	10.66
236.747	10.81
236.964	10.64
237.181	12.67
237.397	21.21
237.614	29.66
237.831	25.29
238.048	25.2
238.264	24.43
238.481	20.01
238.698	23.6
238.915	18.89
239.131	14.79
239.348	10.42
239.565	6.18
239.781	3.64
239.998	-3.08
240.215	6.73
240.431	5.21
240.648	8.04
240.865	12.38
241.081	11.1
241.298	13.52
241.514	11.52
241.731	12.62
241.947	13.29
242.164	13.77
242.38	14.57
242.597	13.68
242.814	13.82
243.03	14.56
243.246	14.42
243.463	14.84
243.679	15.12
243.896	18.49
244.112	17.34
244.329	16.35
244.545	14.96
244.762	12.78
244.978	12.87
245.194	12.69
245.411	10.76
245.627	10.37
245.843	10.46
246.06	9.36
246.276	7.73
246.492	8.67
246.709	8.77
246.925	8.83
247.141	8.51
247.357	7.97
247.574	7.74
247.79	7.98
248.006	8
248.222	7.53
248.439	7.31
248.655	7.18
248.871	6.74
249.087	7.92
249.303	9.24
249.519	10.66
249.736	11.01
249.952	11.97
250.168	11.65
250.384	11.16
250.6	10.97
250.816	9.75
251.032	11.54
251.248	14.43
251.464	12.46
251.68	10.99
251.896	11.64
252.112	10.38
252.328	8.37
252.544	9.98
252.76	12.92
252.976	14.23
253.192	15.86
253.408	16.07
253.624	15.67
253.84	16.98
254.056	18.04
254.272	19.07
254.487	19.61
254.703	21.8
254.919	21.32
255.135	17.37
255.351	19.72
255.567	17.85
255.782	18.86
255.998	16.75
256.214	18.56
256.43	20.11
256.646	19.41
256.861	20.34
257.077	16.87
257.293	16.5
257.508	15.22
257.724	11.87
257.94	11.59
258.155	10.07
258.371	9.52
258.587	6.42
258.802	5.41
259.018	4.41
259.234	4.38
259.449	5.3
259.665	4.82
259.88	5.01
260.096	4.6
260.312	4.37
260.527	4.76
260.743	4.86
260.958	5.55
261.174	5.14
261.389	4.7
261.605	5.06
261.82	5.83
262.036	6.18
262.251	6.21
262.466	6.16
262.682	7.59
262.897	6.07
263.113	5.89
263.328	6.2
263.543	6.79
263.759	8.62
263.974	8.09
264.189	4.83
264.405	5.23
264.62	6.49
264.835	7.06
265.051	7.81
265.266	8.51
265.481	8.34
265.696	8.38
265.912	9.75
266.127	8.99
266.342	7.57
266.557	9.79
266.773	8.69
266.988	7.98
267.203	8.45
267.418	8.75
267.633	8.86
267.848	8.4
268.064	8.26
268.279	8.69
268.494	9.22
268.709	10.01
268.924	10.11
269.139	10.64
269.354	10.26
269.569	10.76
269.784	9.35
269.999	9.46
270.214	8.96
270.429	9.1
270.644	7.95
270.859	8.72
271.074	6.98
271.289	5.82
271.504	6.77
271.719	7.45
271.934	6.91
272.149	6.73
272.363	6.91
272.578	7.46
272.793	6.98
273.008	6.86
273.223	5.2
273.438	7.02
273.653	8.75
273.867	7.49
274.082	7.89
274.297	8.24
274.512	9.06
274.726	6.95
274.941	6.11
275.156	7.17
275.371	7.44
275.585	8.15
275.8	8.03
276.015	6.9
276.229	8.15
276.444	7.77
276.659	7.72
276.873	6.55
277.088	8.08
277.302	10.79
277.517	8.98
277.732	8.51
277.946	8.32
278.161	9.27
278.375	9.52
278.59	10.35
278.804	10.93
279.019	9.2
279.233	10.29
279.448	10.49
279.662	8.81
279.877	8.79
280.091	7.48
280.306	7.8
280.52	6.19
280.735	3.64
280.949	1.7
281.163	1.83
281.378	3.53
281.592	4.03
281.806	4.16
282.021	4.56
282.235	5.56
282.449	5.57
282.664	6.87
282.878	8.64
283.092	9.88
283.307	11.78
283.521	9.61
283.735	7.7
283.949	6.97
284.164	6.81
284.378	7.22
284.592	7.38
284.806	8.64
285.02	7.59
285.234	6.46
285.449	6.39
285.663	4.68
285.877	5.07
286.091	7.05
286.305	6.13
286.519	5.39
286.733	3.51
286.947	3.16
287.161	3.57
287.375	4.24
287.589	4.38
287.803	6.18
288.017	7.73
288.231	9.6
288.445	8.34
288.659	8.78
288.873	9.73
289.087	11.19
289.301	10.25
289.515	9.69
289.729	9.96
289.943	10.39
290.157	9.45
290.371	9.84
290.584	8.52
290.798	9.26
291.012	10.28
291.226	11.39
291.44	12.27
291.654	12.19
291.867	12.07
292.081	13.45
292.295	13.15
292.509	12.8
292.722	10.24
292.936	10.97
293.15	10.35
293.364	10.99
293.577	9.73
293.791	8.45
294.005	9
294.218	7.58
294.432	5.14
294.645	5.79
294.859	6.85
295.073	7.37
295.286	8.42
295.5	8.03
295.713	7.34
295.927	7.42
296.14	7.37
296.354	7.63
296.568	8.36
296.781	9.16
296.994	8.72
297.208	7.99
297.421	8.79
297.635	8.54
297.848	9.37
298.062	10.28
298.275	10.16
298.489	11.01
298.702	11.34
298.915	11.27
299.129	12.04
299.342	12.65
299.555	12.8
299.769	13.5
299.982	13.52
300.195	13.65
300.409	13.47
300.622	14.7
300.835	13.67
301.048	13.72
301.262	13.78
301.475	12.76
301.688	12.55
301.901	13.33
302.115	12.31
302.328	12.21
302.541	12.71
302.754	12.72
302.967	13.82
303.18	14.05
303.393	14.63
303.607	16.1
303.82	15.52
304.033	15.25
304.246	15.78
304.459	16.26
304.672	16.05
304.885	14.92
305.098	15.95
305.311	13.24
305.524	14.66
305.737	13.7
305.95	13.36
306.163	12.36
306.376	13.87
306.589	11.47
306.802	10.87
307.015	11.01
307.228	11.55
307.44	9.47
307.653	11.92
307.866	10.99
308.079	12.1
308.292	11.2
308.505	11.65
308.718	10.09
308.93	13
309.143	13.12
309.356	12.15
309.569	11.31
309.781	12.46
309.994	11.99
310.207	12.87
310.42	10.76
310.632	9.71
310.845	9.32
311.058	9.16
311.27	6.17
311.483	7.12
311.696	7.51
311.908	8.64
312.121	7.4
312.333	7.67
312.546	6.31
312.759	8.78
312.971	10.14
313.184	10.53
313.396	10.24
313.609	13.51
313.821	12.77
314.034	13.82
314.246	13.77
314.459	14.3
314.671	13.7
314.884	12.93
315.096	12.38
315.309	11.43
315.521	12.46
315.733	14.1
315.946	12.48
316.158	11.86
316.371	11.02
316.583	10.77
316.795	10.93
317.008	11.41
317.22	13.1
317.432	13.19
317.644	14.67
317.857	15.17
318.069	14.24
318.281	14.82
318.494	17.19
318.706	17.44
318.918	18.79
319.13	18.9
319.342	17.99
319.555	16.78
319.767	18
319.979	16.02
320.191	13.98
320.403	13.54
320.615	14.57
320.827	13.15
321.039	12.44
321.252	11.37
321.464	11.29
321.676	11.33
321.888	11.35
322.1	9.73
322.312	9.92
322.524	11.63
322.736	11.31
322.948	10.92
323.16	11.7
323.372	13.07
323.584	13.6
323.796	14.13
324.007	13.28
324.219	15.04
324.431	15.4
324.643	16.67
324.855	15.35
325.067	16.68
325.279	16.91
325.491	16.21
325.702	15.67
325.914	15.36
326.126	14.96
326.338	16.06
326.55	15.46
326.761	15.99
326.973	16.63
327.185	18.39
327.396	18.64
327.608	17.56
327.82	19.26
328.032	19.94
328.243	20.11
328.455	21.16
328.666	20.98
328.878	19.53
329.09	18.13
329.301	17.12
329.513	15.4
329.725	14.73
329.936	15.9
330.148	15.23
330.359	13.52
330.571	12.44
330.782	11.37
330.994	13.15
331.205	14.62
331.417	16.19
331.628	15.57
331.84	16.81
332.051	17.11
332.262	18.45
332.474	18.64
332.685	20.89
332.897	21.87
333.108	20.97
333.319	19.86
333.531	19.86
333.742	18.88
333.953	19.54
334.165	20.35
334.376	21.12
334.587	19.12
334.799	18.66
335.01	18.21
335.221	18.32
335.432	19.63
335.644	19.23
335.855	19.41
336.066	20.47
336.277	20.82
336.488	20.41
336.7	19.22
336.911	19.82
337.122	19.92
337.333	20.03
337.544	21.31
337.755	20.52
337.966	20.73
338.177	20.9
338.388	20.01
338.599	19.7
338.811	18.48
339.022	18.89
339.233	19.08
339.444	19.05
339.655	18.92
339.866	17.77
340.076	18.36
340.287	17.96
340.498	17.98
340.709	18.7
340.92	19.89
341.131	21.3
341.342	20.92
341.553	20.81
341.764	21.75
341.975	21.39
342.185	21.11
342.396	21.41
342.607	22.3
342.818	22.27
343.029	21.78
343.239	21.76
343.45	21.48
343.661	22.27
343.872	22.02
344.082	21.09
344.293	21.26
344.504	21.21
344.714	20.92
344.925	20.45
345.136	20.18
345.346	21.54
345.557	21.65
345.768	21.55
345.978	22.46
346.189	23.26
346.399	23.5
346.61	23.18
346.821	23.3
347.031	23.12
347.242	23.55
347.452	23.67
347.663	23.08
347.873	23.25
348.084	23.2
348.294	21.18
348.504	21.52
348.715	22.01
348.925	22.39
349.136	22.63
349.346	21.94
349.557	20.54
349.767	22.31
349.977	21.55
350.188	21.29
350.398	21.7
350.608	21.68
350.819	20.3
351.029	19.18
351.239	20.23
351.449	19.19
351.66	19.76
351.87	20.09
352.08	18.78
352.29	19.27
352.501	19.46
352.711	19.89
352.921	20.35
353.131	20.86
353.341	21.33
353.552	20.2
353.762	19.84
353.972	20.98
354.182	21.52
354.392	20.47
354.602	20.44
354.812	20.36
355.022	19.9
355.232	18.89
355.442	19.04
355.652	19.55
355.862	20.49
356.072	21.22
356.282	20.18
356.492	20.97
356.702	21.38
356.912	21.48
357.122	21.58
357.332	22.16
357.542	21.85
357.752	21.81
357.962	21.01
358.171	19.69
358.381	20.7
358.591	20.85
358.801	19.73
359.011	20.47
359.221	20.54
359.43	19.9
359.64	18.85
359.85	18.95
360.06	18.69
360.269	19.69
360.479	20.18
360.689	19.65
360.899	20.31
361.108	20.69
361.318	20.45
361.528	20.12
361.737	20.49
361.947	20.84
362.156	21.62
362.366	22.61
362.576	22.2
362.785	22.6
362.995	22.54
363.204	22.36
363.414	22.63
363.623	23.44
363.833	23.84
364.042	23.71
364.252	23.8
364.461	24.38
364.671	23.39
364.88	23.2
365.09	22.54
365.299	23.12
365.509	23.52
365.718	23.33
365.927	22.1
366.137	22.57
366.346	22.42
366.555	21.81
366.765	20.84
366.974	20.09
367.183	20.5
367.393	20.86
367.602	21.19
367.811	20.34
368.021	20
368.23	20.3
368.439	20.1
368.648	20.88
368.857	21.77
369.067	22.26
369.276	22.24
369.485	21.77
369.694	21.66
369.903	20.23
370.112	20.77
370.321	21.35
370.531	21.79
370.74	22.24
370.949	22.13
371.158	21.83
371.367	21.87
371.576	22.92
371.785	23.19
371.994	23.31
372.203	24.13
372.412	23.33
372.621	23.63
372.83	22.82
373.039	21.87
373.248	20.81
373.457	20.95
373.666	21.1
373.874	20.54
374.083	20.44
374.292	20.65
374.501	19.56
374.71	20.26
374.919	19.98
375.128	20.7
375.336	20.94
375.545	22.44
375.754	22.27
375.963	21.69
376.171	22.55
376.38	22.61
376.589	22.45
376.798	22.76
377.006	22.6
377.215	22.47
377.424	22.43
377.632	22.99
377.841	21.75
378.05	21.54
378.258	22.08
378.467	21.69
378.675	21.66
378.884	21.24
379.093	21.74
379.301	21.87
379.51	22.06
379.718	21.77
379.927	21.52
380.135	21.8
380.344	21.81
380.552	21.58
380.761	21.23
380.969	20.91
381.177	21.02
381.386	21.11
381.594	20.48
381.803	20.1
382.011	20.09
382.219	19.64
382.428	20.15
382.636	19.99
382.845	20.07
383.053	20.64
383.261	21.05
383.469	21.21
383.678	21.12
383.886	21.58
384.094	21.99
384.302	22.31
384.511	22.57
384.719	22.19
384.927	22.36
385.135	22.64
385.343	22.37
385.552	22.5
385.76	22.53
385.968	22.52
386.176	22.7
386.384	22.37
386.592	22.26
386.8	22.43
387.008	22.29
387.216	22.6
387.424	22.14
387.633	21.85
387.841	22.34
388.049	21.99
388.257	22.09
388.465	22.14
388.672	22.16
388.88	22.34
389.088	21.77
389.296	21.76
389.504	21.39
389.712	21.62
389.92	21.59
390.128	20.82
390.336	21.28
390.544	20.8
390.751	20.37
390.959	20.45
391.167	20.2
391.375	20.34
391.583	20.49
391.79	20.54
391.998	20.48
392.206	20.99
392.414	21.35
392.621	21.19
392.829	21.53
393.037	21.83
393.244	21.68
393.452	21.35
393.66	21.77
393.867	21.67
394.075	21.83
394.283	21.97
394.49	21.79
394.698	21.52
394.905	21.6
395.113	21.63
395.32	21.7
395.528	21.97
395.735	22.17
395.943	21.91
396.15	21.78
396.358	22.05
396.565	21.98
396.773	22.2
396.98	22.05
397.188	22.38
397.395	22.13
397.602	22.22
397.81	22.52
398.017	22.81
398.225	23
398.432	23.62
398.639	23.46
398.847	23.96
399.054	23.85
399.261	24.18
399.468	23.74
399.676	23.77
399.883	23.65
400.09	23.46
400.297	23.4
400.505	23.1
400.712	23.03
400.919	23.15
401.126	22.96
401.333	22.76
401.54	22.91
401.748	23.36
401.955	23.25
402.162	23.41
402.369	23.41
402.576	23.5
402.783	23.56
402.99	23.7
403.197	23.71
403.404	23.48
403.611	23.7
403.818	24.02
404.025	23.84
404.232	24.17
404.439	24.17
404.646	24.29
404.853	24.35
405.06	24.63
405.267	24.73
405.474	24.64
405.681	24.83
405.887	24.88
406.094	24.77
406.301	24.92
406.508	25.11
406.715	25.14
406.922	24.94
407.128	24.91
407.335	24.77
407.542	24.57
407.749	24.85
407.955	25.02
408.162	25.13
408.369	25.06
408.575	25.28
408.782	25
408.989	25
409.195	25.03
409.402	25.21
409.609	25.33
409.815	25.39
410.022	25.26
410.228	25.3
410.435	25.1
410.642	24.86
410.848	24.58
411.055	24.98
411.261	25.04
411.468	25.2
411.674	25.17
411.881	25.08
412.087	24.87
412.294	24.69
412.5	24.57
412.706	24.85
412.913	24.87
413.119	24.73
413.326	24.29
413.532	24.07
413.738	23.97
413.945	23.96
414.151	24.05
414.357	23.9
414.564	23.9
414.77	23.83
414.976	23.69
415.182	23.77
415.389	24.03
415.595	24.25
415.801	24.4
416.007	24.39
416.214	24.03
416.42	23.74
416.626	23.98
416.832	24.02
417.038	23.88
417.244	23.75
417.45	23.7
417.657	23.34
417.863	23.34
418.069	23.47
418.275	23.52
418.481	23.5
418.687	23.56
418.893	23.51
419.099	23.42
419.305	23.2
419.511	23.25
419.717	23.12
419.923	23.34
420.129	23.17
420.335	23.09
420.541	23.1
420.746	23.23
420.952	23.37
421.158	23.34
421.364	23.28
421.57	23.5
421.776	23.41
421.982	23.49
422.187	23.36
422.393	23.33
422.599	23.06
422.805	22.92
423.01	22.9
423.216	22.76
423.422	22.8
423.628	22.87
423.833	22.85
424.039	22.99
424.245	23.05
424.45	23.11
424.656	23.13
424.862	23.31
425.067	23.4
425.273	23.34
425.478	23.31
425.684	23.34
425.889	23.24
426.095	23
426.301	22.78
426.506	22.69
426.712	22.72
426.917	22.89
427.123	22.82
427.328	22.86
427.533	23.04
427.739	23.11
427.944	23.03
428.15	23.13
428.355	22.97
428.561	23.06
428.766	23.04
428.971	22.87
429.177	22.73
429.382	22.44
429.587	22.33
429.793	22.2
429.998	22.12
430.203	21.86
430.408	21.86
430.614	22.34
430.819	22.22
431.024	22.37
431.229	22.45
431.434	22.43
431.64	22.61
431.845	22.56
432.05	22.74
432.255	22.61
432.46	22.62
432.665	22.52
432.87	22.51
433.076	22.8
433.281	22.53
433.486	22.47
433.691	22.6
433.896	22.55
434.101	22.6
434.306	22.26
434.511	22.33
434.716	22.35
434.921	22.49
435.126	22.52
435.331	22.41
435.535	22.52
435.74	22.5
435.945	22.27
436.15	22.5
436.355	22.5
436.56	22.74
436.765	22.91
436.97	23.04
437.174	22.84
437.379	22.76
437.584	22.57
437.789	22.8
437.993	22.96
438.198	23.08
438.403	22.78
438.608	22.67
438.812	22.49
439.017	22.33
439.222	22.21
439.426	22.25
439.631	22.15
439.836	22.15
440.04	21.86
440.245	21.91
440.45	21.85
440.654	21.99
440.859	22.04
441.063	21.88
441.268	21.88
441.472	21.87
441.677	21.9
441.881	21.98
442.086	22
442.29	22.08
442.495	21.86
442.699	21.7
442.904	21.58
443.108	21.68
443.312	21.83
443.517	22.05
443.721	22.07
443.925	22.12
444.13	22.13
444.334	22.13
444.538	22.1
444.743	22.11
444.947	22.19
445.151	22.24
445.356	22.09
445.56	22.19
445.764	21.97
445.968	21.98
446.173	21.84
446.377	21.85
446.581	21.87
446.785	21.84
446.989	21.84
447.193	21.89
447.398	21.76
447.602	21.73
447.806	21.71
448.01	21.88
448.214	21.79
448.418	21.9
448.622	21.83
448.826	21.84
449.03	21.83
449.234	21.86
449.438	21.62
449.642	21.91
449.846	21.91
450.05	21.96
450.254	21.79
450.458	21.83
450.662	21.78
450.866	21.69
451.069	21.92
451.273	21.98
451.477	21.89
451.681	21.93
451.885	21.77
452.089	21.59
452.292	21.33
452.496	21.43
452.7	21.6
452.904	21.52
453.107	21.47
453.311	21.17
453.515	21.21
453.719	21.35
453.922	21.58
454.126	21.47
454.33	21.64
454.533	21.83
454.737	21.81
454.94	21.78
455.144	22.04
455.348	22.12
455.551	22.25
455.755	22.14
455.958	22.13
456.162	22.04
456.365	22.1
456.569	21.86
456.772	21.72
456.976	21.78
457.179	21.65
457.383	21.54
457.586	21.46
457.79	21.38
457.993	21.54
458.196	21.38
458.4	21.37
458.603	21.39
458.807	21.47
459.01	21.64
459.213	21.57
459.417	21.63
459.62	21.62
459.823	21.71
460.026	21.65
460.23	21.55
460.433	21.64
460.636	21.72
460.839	21.85
461.042	22.03
461.246	21.92
461.449	21.92
461.652	21.86
461.855	21.71
462.058	21.71
462.261	21.8
462.464	21.7
462.668	21.82
462.871	21.81
463.074	21.73
463.277	21.66
463.48	21.7
463.683	21.58
463.886	21.68
464.089	21.88
464.292	21.89
464.495	21.81
464.698	21.84
464.901	21.88
465.104	21.86
465.306	21.92
465.509	21.8
465.712	21.75
465.915	21.81
466.118	21.75
466.321	21.89
466.524	21.91
466.726	22.09
466.929	22.19
467.132	22.04
467.335	21.94
467.538	21.88
467.74	21.96
467.943	21.98
468.146	22.05
468.348	22.11
468.551	22.02
468.754	22.08
468.956	22.01
469.159	22.01
469.362	22.11
469.564	22.32
469.767	22.31
469.969	22.5
470.172	22.71
470.375	22.87
470.577	22.84
470.78	22.88
470.982	22.6
471.185	22.65
471.387	22.54
471.59	22.42
471.792	22.16
471.995	22.21
472.197	22.1
472.399	22.19
472.602	22.09
472.804	22.05
473.007	21.93
473.209	22.17
473.411	22.19
473.614	22.25
473.816	22.3
474.018	22.42
474.22	22.43
474.423	22.41
474.625	22.39
474.827	22.25
475.03	22.44
475.232	22.56
475.434	22.58
475.636	22.72
475.838	22.7
476.04	22.64
476.243	22.67
476.445	22.66
476.647	22.57
476.849	22.44
477.051	22.45
477.253	22.32
477.455	22.31
477.657	22.28
477.859	22.2
478.061	22.24
478.263	22.44
478.465	22.37
478.667	22.4
478.869	22.31
479.071	22.22
479.273	22.18
479.475	22.1
479.677	22.13
479.879	22.03
480.081	21.98
480.283	21.99
480.485	21.96
480.686	22.07
480.888	22.08
481.09	22.22
481.292	22.24
481.494	22.19
481.695	22.27
481.897	22.25
482.099	22.29
482.301	22.22
482.502	22.14
482.704	22.01
482.906	22.03
483.107	21.96
483.309	21.96
483.511	21.9
483.712	21.94
483.914	21.94
484.115	21.95
484.317	21.94
484.519	21.97
484.72	21.98
484.922	21.97
485.123	21.92
485.325	21.97
485.526	21.97
485.728	22.03
485.929	22.02
486.131	21.95
486.332	21.83
486.534	21.82
486.735	21.79
486.936	21.88
487.138	21.92
487.339	21.92
487.541	21.92
487.742	21.85
487.943	21.82
488.144	21.81
488.346	21.87
488.547	21.93
488.748	22
488.95	21.95
489.151	21.87
489.352	21.86
489.553	21.74
489.755	21.66
489.956	21.77
490.157	21.82
490.358	21.82
490.559	21.82
490.76	21.78
490.961	21.73
491.163	21.74
491.364	21.74
491.565	21.79
491.766	21.88
491.967	21.96
492.168	21.89
492.369	21.87
492.57	21.92
492.771	21.89
492.972	21.97
493.173	21.95
493.374	22.04
493.575	22.09
493.776	22.1
493.976	22.25
494.177	22.25
494.378	22.22
494.579	22.27
494.78	22.3
494.981	22.28
495.182	22.18
495.382	22.22
495.583	22.37
495.784	22.37
495.985	22.21
496.185	22.12
496.386	22.17
496.587	22.35
496.788	22.27
496.988	22.32
497.189	22.35
497.39	22.37
497.59	22.39
497.791	22.2
497.992	22.2
498.192	22.4
498.393	22.46
498.593	22.37
498.794	22.48
498.994	22.63
499.195	22.53
499.395	22.61
499.596	22.61
499.796	22.5
499.997	22.58
500.197	22.61
500.398	22.49
500.598	22.37
500.799	22.56
500.999	22.3
501.199	22.08
501.4	22.23
501.6	22.14
501.801	22.23
502.001	22.23
502.201	22.23
502.402	22.09
502.602	22.28
502.802	22.21
503.002	22.16
503.203	22.22
503.403	22.32
503.603	22.22
503.803	22.53
504.003	22.41
504.204	22.51
504.404	22.58
504.604	22.7
504.804	22.64
505.004	22.72
505.204	22.75
505.404	22.7
505.604	22.71
505.804	22.7
506.005	22.74
506.205	22.92
506.405	23.05
506.605	23.04
506.805	23.08
507.005	23.16
507.204	23.27
507.404	23.24
507.604	23.45
507.804	23.5
508.004	23.62
508.204	23.43
508.404	23.35
508.604	23.23
508.804	23.17
509.003	23.18
509.203	23.02
509.403	22.84
509.603	22.84
509.803	22.76
510.002	22.91
510.202	23.02
510.402	23.02
510.602	23.08
510.801	23.16
511.001	23.27
511.201	23.1
511.4	23.3
511.6	23.51
511.8	23.58
511.999	23.58
512.199	23.4
512.398	23.31
512.598	23.33
512.797	23.36
512.997	23.34
513.197	23.43
513.396	23.6
513.596	23.56
513.795	23.53
513.994	23.45
514.194	23.42
514.393	23.53
514.593	23.49
514.792	23.56
514.992	23.45
515.191	23.53
515.39	23.43
515.59	23.46
515.789	23.45
515.988	23.54
516.188	23.61
516.387	23.6
516.586	23.57
516.786	23.63
516.985	23.63
517.184	23.67
517.383	23.83
517.582	23.81
517.782	23.81
517.981	23.87
518.18	23.85
518.379	23.84
518.578	23.91
518.777	24.02
518.976	24.05
519.176	24.06
519.375	24.07
519.574	23.85
519.773	23.83
519.972	23.91
520.171	23.84
520.37	23.86
520.569	23.99
520.768	24.14
520.967	24.25
521.166	24.38
521.365	24.46
521.564	24.66
521.762	24.92
521.961	25.11
522.16	25.12
522.359	25.11
522.558	25.05
522.757	25.03
522.956	24.94
523.154	24.84
523.353	24.77
523.552	24.74
523.751	24.6
523.949	24.5
524.148	24.36
524.347	24.35
524.546	24.38
524.744	24.36
524.943	24.41
525.142	24.36
525.34	24.36
525.539	24.35
525.737	24.34
525.936	24.47
526.135	24.37
526.333	24.43
526.532	24.55
526.73	24.5
526.929	24.57
527.127	24.57
527.326	24.62
527.524	24.58
527.723	24.55
527.921	24.52
528.12	24.47
528.318	24.52
528.516	24.51
528.715	24.49
528.913	24.55
529.112	24.54
529.31	24.52
529.508	24.49
529.707	24.47
529.905	24.46
530.103	24.47
530.301	24.48
530.5	24.57
530.698	24.61
530.896	24.64
531.094	24.77
531.293	24.73
531.491	24.78
531.689	24.92
531.887	24.91
532.085	25.02
532.283	25.08
532.481	25.1
532.68	25.07
532.878	25
533.076	24.9
533.274	24.81
533.472	24.89
533.67	24.87
533.868	24.82
534.066	24.91
534.264	24.89
534.462	24.89
534.66	24.95
534.858	24.94
535.056	25.03
535.253	25.06
535.451	25.04
535.649	25.01
535.847	24.92
536.045	24.92
536.243	24.88
536.441	24.9
536.638	25.02
536.836	24.9
537.034	24.93
537.232	24.93
537.43	24.91
537.627	25.03
537.825	25.05
538.023	25.23
538.22	25.41
538.418	25.49
538.616	25.61
538.813	25.53
539.011	25.71
539.209	25.67
539.406	25.73
539.604	25.85
539.801	25.78
539.999	25.91
540.196	25.78
540.394	25.69
540.591	25.71
540.789	25.62
540.986	25.76
541.184	25.73
541.381	25.84
541.579	25.83
541.776	25.74
541.974	25.77
542.171	25.72
542.368	25.8
542.566	25.84
542.763	25.81
542.96	25.83
543.158	25.68
543.355	25.65
543.552	25.7
543.75	25.68
543.947	25.81
544.144	25.97
544.341	25.93
544.539	26.03
544.736	25.99
544.933	26.11
545.13	26.19
545.327	26.38
545.524	26.42
545.722	26.31
545.919	26.46
546.116	26.57
546.313	26.63
546.51	26.74
546.707	26.76
546.904	26.79
547.101	26.88
547.298	26.84
547.495	26.89
547.692	27
547.889	27.02
548.086	27.06
548.283	27.05
548.48	26.8
548.677	26.79
548.874	26.73
549.07	26.81
549.267	26.68
549.464	26.85
549.661	26.58
549.858	26.49
550.055	26.49
550.251	26.4
550.448	26.45
550.645	26.59
550.842	26.67
551.038	26.51
551.235	26.7
551.432	26.8
551.628	26.95
551.825	27.12
552.022	27.17
552.218	27.31
552.415	27.39
552.612	27.3
552.808	27.23
553.005	27.2
553.201	27.27
553.398	27.18
553.594	27.1
553.791	27.07
553.987	27.22
554.184	27.4
554.38	27.26
554.577	27.19
554.773	27.37
554.97	27.33
555.166	27.45
555.362	27.5
555.559	27.33
555.755	27.48
555.952	27.34
556.148	27.07
556.344	27.08
556.541	27.41
556.737	27.66
556.933	27.75
557.129	27.98
557.326	28
557.522	27.97
557.718	28.29
557.914	28.33
558.11	28.32
558.307	28.51
558.503	28.56
558.699	28.42
558.895	28.38
559.091	28.31
559.287	28.4
559.483	28.38
559.679	28.39
559.876	28.44
560.072	28.47
560.268	28.48
560.464	28.4
560.66	28.19
560.856	28.09
561.052	28.17
561.247	28.17
561.443	28.14
561.639	28.14
561.835	28.19
562.031	27.97
562.227	28.04
562.423	28.08
562.619	28.38
562.815	28.57
563.01	28.57
563.206	28.49
563.402	28.67
563.598	28.6
563.793	28.55
563.989	28.67
564.185	28.78
564.381	28.65
564.576	28.68
564.772	28.36
564.968	28.2
565.163	28.3
565.359	28.27
565.555	28.19
565.75	28.34
565.946	28.51
566.141	28.48
566.337	28.35
566.532	28.29
566.728	28.32
566.923	28.36
567.119	28.43
567.314	28.41
567.51	28.38
567.705	28.09
567.901	28
568.096	28.05
568.292	28.06
568.487	28.18
568.682	28.15
568.878	28.02
569.073	28.15
569.268	28.3
569.464	28.23
569.659	28.44
569.854	28.67
570.05	28.76
570.245	28.67
570.44	28.75
570.635	28.64
570.831	28.7
571.026	29.03
571.221	28.92
571.416	28.68
571.611	28.67
571.806	28.64
572.002	28.7
572.197	28.55
572.392	28.65
572.587	28.6
572.782	28.72
572.977	28.8
573.172	28.7
573.367	28.84
573.562	29.04
573.757	29.2
573.952	29.12
574.147	29.21
574.342	29.47
574.537	29.43
574.732	29.54
574.927	29.56
575.121	29.6
575.316	29.54
575.511	29.57
575.706	29.54
575.901	29.4
576.096	29.46
576.29	29.13
576.485	28.79
576.68	28.88
576.875	28.86
577.069	28.69
577.264	28.72
577.459	28.82
577.654	28.8
577.848	28.99
578.043	29.15
578.238	28.91
578.432	29.15
578.627	29.38
578.821	29.27
579.016	29.24
579.21	29.36
579.405	29.35
579.6	29.14
579.794	29.2
579.989	28.97
580.183	29.21
580.378	29.38
580.572	29.53
580.766	29.72
580.961	29.72
581.155	29.91
581.35	30.22
581.544	30.17
581.738	30.24
581.933	30.13
582.127	30.25
582.321	29.92
582.516	30.17
582.71	30.27
582.904	30.35
583.099	30.28
583.293	30.11
583.487	30.09
583.681	30.31
583.875	30.4
584.07	30.46
584.264	30.51
584.458	30.57
584.652	30.38
584.846	30.05
585.04	29.62
585.234	29.52
585.428	29.59
585.623	29.43
585.817	29.46
586.011	29.59
586.205	29.61
586.399	29.44
586.593	29.58
586.787	29.69
586.981	30.02
587.174	30.27
587.368	30.4
587.562	30.32
587.756	30.29
587.95	30.06
588.144	29.91
588.338	29.96
588.532	29.96
588.725	30
588.919	30.07
589.113	29.96
589.307	29.92
589.501	29.94
589.694	30.03
589.888	30.17
590.082	30.16
590.275	30.16
590.469	30.01
590.663	30.15
590.856	30.1
591.05	29.96
591.244	30.17
591.437	30.49
591.631	30.64
591.824	30.72
592.018	30.75
592.212	31.02
592.405	31.04
592.599	31.04
592.792	31.05
592.986	30.9
593.179	30.99
593.372	30.86
593.566	30.87
593.759	30.73
593.953	30.92
594.146	30.92
594.339	30.8
594.533	30.79
594.726	31.09
594.92	30.99
595.113	30.94
595.306	30.81
595.499	30.87
595.693	30.64
595.886	30.82
596.079	30.65
596.272	30.56
596.466	30.54
596.659	30.68
596.852	30.58
597.045	30.77
597.238	30.95
597.431	30.87
597.624	30.71
597.818	30.72
598.011	30.78
598.204	30.46
598.397	30.46
598.59	30.51
598.783	30.46
598.976	30.4
599.169	30.47
599.362	30.38
599.555	30.62
599.748	30.99
599.941	30.84
600.134	30.73
600.326	31.18
600.519	31.32
600.712	31.09
600.905	31.3
601.098	31.35
601.291	31.15
601.483	31.15
601.676	31.27
601.869	31.15
602.062	31.11
602.255	31.1
602.447	31.01
602.64	30.85
602.833	30.98
603.025	30.88
603.218	30.84
603.411	30.84
603.603	30.95
603.796	30.75
603.989	30.68
604.181	30.63
604.374	30.73
604.566	30.84
604.759	31.04
604.951	31.15
605.144	31.1
605.336	30.99
605.529	30.82
605.721	30.79
605.914	30.91
606.106	30.98
606.299	31.12
606.491	30.96
606.683	30.75
606.876	30.72
607.068	30.55
607.26	30.63
607.453	30.61
607.645	30.93
607.837	30.68
608.03	30.74
608.222	30.84
608.414	31.01
608.606	31.14
608.799	31.33
608.991	31.46
609.183	31.46
609.375	31.61
609.567	31.79
609.759	31.94
609.952	32.31
610.144	32.24
610.336	32.07
610.528	32.09
610.72	31.89
610.912	31.75
611.104	31.57
611.296	31.63
611.488	31.75
611.68	31.7
611.872	31.66
612.064	31.4
612.256	31.45
612.448	31.55
612.64	31.33
612.832	31.59
613.023	31.61
613.215	31.83
613.407	32
613.599	31.74
613.791	31.56
613.983	31.15
614.174	31.42
614.366	31.66
614.558	31.43
614.75	31.46
614.941	31.65
615.133	31.67
615.325	31.61
615.516	31.56
615.708	31.51
615.9	32.19
616.091	32.45
616.283	32.18
616.475	31.96
616.666	32.38
616.858	32.58
617.049	32.26
617.241	32.69
617.432	32.43
617.624	32.53
617.815	32.4
618.007	31.81
618.198	31.88
618.39	31.86
618.581	31.88
618.773	31.56
618.964	31.46
619.155	31.43
619.347	31.15
619.538	31.3
619.729	31.2
619.921	31.46
620.112	31.51
620.303	31.21
620.494	31.12
620.686	31.14
620.877	31.11
621.068	31.36
621.259	31.67
621.451	31.4
621.642	31.34
621.833	31.45
622.024	31.25
622.215	31.34
622.406	31.42
622.597	31.56
622.788	31.47
622.98	31.83
623.171	31.83
623.362	31.79
623.553	32.07
623.744	32.22
623.935	32.08
624.126	32.03
624.317	31.99
624.508	31.94
624.698	32.07
624.889	32.03
625.08	31.53
625.271	31.34
625.462	31.29
625.653	31.14
625.844	30.75
626.034	30.79
626.225	30.78
626.416	30.7
626.607	30.71
626.798	30.66
626.988	30.8
627.179	31.07
627.37	30.98
627.56	30.9
627.751	30.93
627.942	31.09
628.132	31.15
628.323	31.08
628.514	31.27
628.704	31.42
628.895	31.41
629.085	31.38
629.276	31.15
629.466	31.18
629.657	31.09
629.847	31.21
630.038	31.31
630.228	31.29
630.419	31.54
630.609	31.18
630.8	30.95
630.99	30.87
631.181	30.79
631.371	31.18
631.561	31.33
631.752	31.27
631.942	31.28
632.132	31.29
632.323	31.14
632.513	30.98
632.703	31.18
632.893	31.45
633.084	31.58
633.274	31.37
633.464	31.26
633.654	31.35
633.844	31.56
634.034	31.34
634.225	31.4
634.415	31.22
634.605	31.22
634.795	31.29
634.985	31.31
635.175	31.22
635.365	31.24
635.555	31
635.745	30.63
635.935	30.79
636.125	30.49
636.315	30.24
636.505	29.87
636.695	29.89
636.885	29.99
637.075	30.01
637.265	30.41
637.455	30.68
637.644	30.8
637.834	30.87
638.024	30.4
638.214	31.05
638.404	31.26
638.593	32.12
638.783	32.32
638.973	32.25
639.163	32.09
639.352	31.55
639.542	31.56
639.732	31.68
639.921	31.76
640.111	32.11
640.301	31.44
640.49	31.37
640.68	31.39
640.87	31.13
641.059	31.01
641.249	31.09
641.438	31.77
641.628	31.72
641.817	31.92
642.007	32.35
642.196	32
642.386	32.75
642.575	33.25
642.764	33.14
642.954	32.99
643.143	33.07
643.333	33.22
643.522	33.27
643.711	33.26
643.901	32.78
644.09	32.61
644.279	33.02
644.469	32.24
644.658	31.85
644.847	31.6
645.036	31.88
645.226	32.13
645.415	32.24
645.604	31.73
645.793	31.8
645.982	32.03
646.171	31.6
646.361	31.7
646.55	32.31
646.739	31.98
646.928	31.76
647.117	31.69
647.306	31.68
647.495	31.64
647.684	31.9
647.873	31.81
648.062	32.12
648.251	32.78
648.44	32.37
648.629	32.17
648.818	32.56
649.007	32.95
649.196	33.18
649.384	33.37
649.573	33.55
649.762	33.53
649.951	33.48
650.14	33.36
650.328	33.03
650.517	32.77
650.706	33.02
650.895	32.84
651.083	32.77
651.272	32.79
651.461	32.59
651.65	32.08
651.838	31.75
652.027	31.86
652.216	31.68
652.404	31.6
652.593	31.99
652.781	31.63
652.97	31.53
653.158	31.58
653.347	31.36
653.535	31.68
653.724	31.56
653.912	31.75
654.101	31.69
654.289	31.67
654.478	32.05
654.666	32.16
654.855	32.66
655.043	32.77
655.231	32.49
655.42	32.18
655.608	31.51
655.796	32.24
655.985	32.28
656.173	31.91
656.361	32.16
656.55	31.76
656.738	31.88
656.926	32
657.114	31.73
657.302	31.69
657.491	32
657.679	31.98
657.867	31.44
658.055	31.36
658.243	31.98
658.431	31.86
658.619	31.56
658.807	31.37
658.996	31.1
659.184	31.34
659.372	31.33
659.56	31.36
659.748	31.6
659.936	31.9
660.124	31.84
660.311	31.71
660.499	31.6
660.687	32.09
660.875	31.96
661.063	32.13
661.251	31.91
661.439	32.33
661.627	32.16
661.814	32.31
662.002	32.24
662.19	32.6
662.378	32.6
662.565	32.77
662.753	32.57
662.941	32.59
663.129	32.86
663.316	33.32
663.504	33.32
663.692	33.7
663.879	33.2
664.067	33.18
664.254	32.94
664.442	33.43
664.63	33.36
664.817	33.33
665.005	33.6
665.192	33.02
665.38	33.03
665.567	32.84
665.755	33.01
665.942	33.16
666.13	33.33
666.317	33.31
666.504	32.5
666.692	32.57
666.879	32.46
667.067	32.47
667.254	32.76
667.441	32.16
667.629	32.54
667.816	32.1
668.003	32.48
668.19	32.3
668.378	32.01
668.565	32.39
668.752	32.52
668.939	32.27
669.127	32.23
669.314	32.13
669.501	32.51
669.688	32.42
669.875	33.16
670.062	33.32
670.249	33.07
670.436	33.16
670.623	32.92
670.81	32.77
670.997	33.38
671.184	33.39
671.371	33.57
671.558	33.28
671.745	33.26
671.932	32.48
672.119	31.68
672.306	31.97
672.493	32.06
672.68	32.23
672.867	32.32
673.054	32.42
673.24	32
673.427	32.07
673.614	32.53
673.801	32.83
673.988	32.83
674.174	33.37
674.361	33.03
674.548	33.07
674.734	32.73
674.921	32.19
675.108	31.78
675.294	32.2
675.481	32.11
675.668	32.4
675.854	31.88
676.041	31.82
676.227	31.7
676.414	31.56
676.601	31.59
676.787	32
676.974	32.45
677.16	32.83
677.347	32.72
677.533	32.51
677.719	31.83
677.906	32
678.092	32
678.279	32.26
678.465	32.76
678.651	32.48
678.838	32.27
679.024	31.98
679.21	31.83
679.397	31.9
679.583	31.54
679.769	31.6
679.955	31.37
680.142	31.46
680.328	31.2
680.514	31.21
680.7	31.57
680.886	31.67
681.073	31.98
681.259	31.75
681.445	31.33
681.631	31.39
681.817	31.2
682.003	31.37
682.189	31.71
682.375	31.93
682.561	32.02
682.747	31.93
682.933	31.41
683.119	31.44
683.305	31.67
683.491	32.15
683.677	33.13
683.863	33.24
684.049	33.3
684.235	33.22
684.42	32.84
684.606	32.35
684.792	31.98
684.978	32.37
685.164	32.6
685.349	32.57
685.535	32.62
685.721	31.63
685.907	31.94
686.092	32.08
686.278	31.84
686.464	32.1
686.649	32.53
686.835	32.77
687.021	33.14
687.206	32.93
687.392	33.03
687.577	32.95
687.763	32.8
687.948	32.84
688.134	32.62
688.319	32.33
688.505	32.59
688.69	32.38
688.876	32.81
689.061	32.53
689.247	32.25
689.432	32.35
689.618	32.63
689.803	33.06
689.988	33.5
690.174	33.65
690.359	33.93
690.544	33.34
690.73	33.39
690.915	33.37
691.1	33.4
691.285	33.76
691.471	33.72
691.656	33.75
691.841	33.88
692.026	33.62
692.211	33.3
692.396	33.6
692.582	33.74
692.767	33.55
692.952	32.91
693.137	33.16
693.322	32.87
693.507	32.7
693.692	31.64
693.877	30.97
694.062	31.23
694.247	30.94
694.432	30.3
694.617	30.46
694.802	30.58
694.987	31.04
695.172	31
695.357	31.21
695.541	30.84
695.726	31.95
695.911	32.74
696.096	32.49
696.281	32.96
696.466	32.96
696.65	33
696.835	33.02
697.02	33.22
697.204	33.2
697.389	32.83
697.574	33.21
697.759	33.21
697.943	32.81
698.128	32.8
698.312	32.88
698.497	33.36
698.682	33.56
698.866	33.6
699.051	32.98
699.235	32.7
699.42	32.76
699.604	33.04
699.789	32.72
699.973	32.89
700.158	32.8
700.342	32.74
700.527	32.75
700.711	32.26
700.895	31.7
701.08	32.3
701.264	32.2
701.448	32.44
701.633	32.21
701.817	32.5
702.001	32.32
702.186	32.17
702.37	31.82
702.554	31.82
702.738	31.87
702.923	33.15
703.107	32.75
703.291	32.9
703.475	32.82
703.659	32.26
703.843	31.21
704.027	31.63
704.212	31.18
704.396	31.38
704.58	30.79
704.764	31.01
704.948	30.09
705.132	30.06
705.316	30.65
705.5	30.87
705.684	31.59
705.868	32.45
706.052	32.4
706.235	33.66
706.419	33.69
706.603	34.03
706.787	34.06
706.971	34.44
707.155	34.56
707.339	34.32
707.522	34.31
707.706	33.3
707.89	33.04
708.074	33.42
708.257	32.65
708.441	32.76
708.625	31.98
708.808	32.12
708.992	33.19
709.176	33.26
709.359	32.66
709.543	31.98
709.727	32.43
709.91	32.37
710.094	32.48
710.277	32.7
710.461	32.3
710.644	33.53
710.828	33.47
711.011	32.27
711.195	32.5
711.378	32.67
711.562	33.42
711.745	34.02
711.928	33.75
712.112	33.47
712.295	33.55
712.478	33.31
712.662	32.56
712.845	32.29
713.028	32.5
713.212	31.76
713.395	33.07
713.578	32.71
713.761	31.96
713.945	33.05
714.128	32.78
714.311	32.55
714.494	33.85
714.677	33.61
714.86	34.36
715.043	34.19
715.227	35.32
715.41	33.9
715.593	34.41
715.776	34.68
715.959	34.27
716.142	34.31
716.325	34.06
716.508	33.05
716.691	33.08
716.874	32.1
717.057	32.1
717.239	31.53
717.422	31.34
717.605	31.42
717.788	31.14
717.971	31.27
718.154	31.33
718.337	31.58
718.519	32.4
718.702	32.97
718.885	33.72
719.068	33.43
719.25	33.87
719.433	34.62
719.616	34.26
719.798	34.08
719.981	33.82
720.164	33.81
720.346	34.69
720.529	34.79
720.712	34.6
720.894	34.04
721.077	34.38
721.259	33.48
721.442	32.97
721.624	32.38
721.807	32.36
721.989	32.36
722.172	32.06
722.354	31.65
722.537	30.87
722.719	30.8
722.901	31.07
723.084	31.19
723.266	31.37
723.448	32.09
723.631	33.42
723.813	34.59
723.995	33.86
724.178	34.13
724.36	34.12
724.542	34.55
724.724	34.08
724.907	33.62
725.089	34.14
725.271	34.87
725.453	34.32
725.635	33.72
725.817	32.92
725.999	34.42
726.181	34.57
726.364	33.82
726.546	33.34
726.728	33.69
726.91	33.95
727.092	33.87
727.274	33.66
727.456	34.38
727.638	34.11
727.819	34.24
728.001	33.08
728.183	32.07
728.365	32.65
728.547	33.08
728.729	34.25
728.911	34.9
729.093	34.42
729.274	34.08
729.456	33.78
729.638	33.33
729.82	33.47
730.001	33.85
730.183	35.13
730.365	35.97
730.546	35.76
730.728	34.16
730.91	33.73
731.091	33.31
731.273	34.14
731.455	34.07
731.636	34.85
731.818	35.65
731.999	35.47
732.181	35.44
732.362	34.17
732.544	34.49
732.725	34.72
732.907	34.58
733.088	35.86
733.27	35.41
733.451	35.05
733.633	34.36
733.814	33.22
733.995	33.71
734.177	34.25
734.358	35.53
734.539	35.22
734.721	35.32
734.902	35.31
735.083	34.66
735.264	34.47
735.446	35.06
735.627	35.22
735.808	36.62
735.989	36.04
736.17	34.01
736.351	33.23
736.533	34.25
736.714	34.5
736.895	35.11
737.076	35.03
737.257	34.96
737.438	35.07
737.619	35.24
737.8	33.88
737.981	34.45
738.162	35.58
738.343	34.66
738.524	33.32
738.705	33.68
738.886	32.9
739.067	32.44
739.247	31.98
739.428	31
739.609	30.75
739.79	29.84
739.971	28.78
740.151	28.16
740.332	28.99
740.513	29.09
740.694	28.02
740.874	28.23
741.055	28.57
741.236	29.36
741.417	30.84
741.597	30.04
741.778	31.88
741.958	32.87
742.139	34.23
742.32	34.05
742.5	34.71
742.681	35.82
742.861	36.93
743.042	36.97
743.222	35.2
743.403	33.77
743.583	35.63
743.764	33.71
743.944	32.57
744.124	32.13
744.305	30.62
744.485	30.52
744.666	30.72
744.846	31.07
745.026	31.9
745.207	33.09
745.387	33.73
745.567	32.51
745.747	34.13
745.928	34.03
746.108	33.96
746.288	35.55
746.468	36.05
746.648	36.71
746.829	35.85
747.009	34.65
747.189	35.47
747.369	35.88
747.549	36.92
747.729	36.33
747.909	37.1
748.089	36.05
748.269	35.8
748.449	34.49
748.629	34.43
748.809	33.4
748.989	33.37
749.169	32.57
749.349	33.47
749.529	34.18
749.709	34.83
749.889	34.01
750.068	34.02
750.248	35.02
750.428	34.88
750.608	33.23
750.788	34.71
750.967	34.88
751.147	34.71
751.327	33.94
751.507	33.08
751.686	32.8
751.866	34.18
752.046	35.02
752.225	35.1
752.405	34.96
752.585	35.25
752.764	32.43
752.944	32.17
753.123	32.67
753.303	32.58
753.482	32.12
753.662	32.61
753.841	32.52
754.021	31.93
754.2	31.27
754.38	32.75
754.559	34.06
754.739	35.87
754.918	35.55
755.097	34.93
755.277	34.73
755.456	35.31
755.635	35.18
755.815	35.05
755.994	34.25
756.173	33.73
756.352	31.85
756.532	31.17
756.711	30.54
756.89	31.96
757.069	32.84
757.248	32.05
757.427	32.71
757.607	33.31
757.786	32.46
757.965	32.83
758.144	33.22
758.323	34.26
758.502	34.4
758.681	35.94
758.86	35.38
759.039	35.61
759.218	35.82
759.397	33.86
759.576	32
759.755	31.81
759.934	33.03
760.113	33.02
760.291	32.84
760.47	32.78
760.649	33.49
760.828	33.03
761.007	33.06
761.186	33.79
761.364	34.19
761.543	34.08
761.722	33.96
761.901	33.4
762.079	33.21
762.258	33.12
762.437	32.25
762.615	31.26
762.794	32.26
762.972	32.39
763.151	31.96
763.33	32.87
763.508	32.65
763.687	33.2
763.865	32.97
764.044	33.15
764.222	33.55
764.401	33.91
764.579	33.98
764.758	33.31
764.936	32.97
765.114	33.64
765.293	31.97
765.471	31.93
765.65	31.29
765.828	31.06
766.006	30.76
766.184	30.11
766.363	30.41
766.541	30.34
766.719	29.71
766.898	29.56
767.076	28.76
767.254	30.23
767.432	31.26
767.61	31.98
767.788	33.19
767.967	32.88
768.145	33.45
768.323	33.02
768.501	33.3
768.679	34.87
768.857	36.26
769.035	36.36
769.213	37.24
769.391	38.03
769.569	37.84
769.747	36.7
769.925	36.84
770.103	36.05
770.281	36.87
770.459	36.83
770.636	35.55
770.814	35.48
770.992	36.11
771.17	35.36
771.348	33.35
771.525	32.53
771.703	33.67
771.881	33.69
772.059	35.26
772.236	34.99
772.414	34.02
772.592	33.22
772.769	33.41
772.947	32.33
773.125	31.41
773.302	33.65
773.48	35.44
773.657	33.77
773.835	35.77
774.013	34.45
774.19	34.88
774.368	35.63
774.545	37.72
774.723	35.91
774.9	39.08
775.077	39.79
775.255	39.77
775.432	39.36
775.61	41.21
775.787	41.12
775.964	41.93
776.142	41.32
776.319	41.2
776.496	40.63
776.674	39.29
776.851	35.64
777.028	36.07
777.205	35.97
777.382	37.52
777.56	37.67
777.737	37.41
777.914	37.54
778.091	37.14
778.268	36.8
778.445	37.23
778.622	37.33
778.8	35.94
778.977	35.7
779.154	35.94
779.331	34.41
779.508	32.74
779.685	31.48
779.862	32.18
780.038	33.03
780.215	32.74
780.392	34.27
780.569	34.42
780.746	37.04
780.923	36.16
781.1	36.47
781.277	38.41
781.453	41.39
781.63	41.05
781.807	39.51
781.984	39.62
782.16	40.25
782.337	37.11
782.514	39.62
782.691	39.71
782.867	40.7
783.044	41.27
783.221	41.55
783.397	38.29
783.574	40.21
783.75	41.45
783.927	38.54
784.103	40.46
784.28	40.59
784.456	38.82
784.633	39.68
784.809	40.22
784.986	37.33
785.162	34.93
785.339	34.37
785.515	30.14
785.692	29.85
785.868	30.49
786.044	26.2
786.221	27.02
786.397	28.56
786.573	26.72
786.749	25.69
786.926	24.76
787.102	24.56
787.278	24.81
787.454	30.09
787.631	29.85
787.807	31.7
787.983	32.76
788.159	33.85
788.335	30.26
788.511	30.62
788.687	31.96
788.863	31.76
789.039	32.06
789.216	34.38
789.392	31.96
789.568	32.62
789.744	31.76
789.919	32.85
790.095	29.59
790.271	31.15
790.447	32.4
790.623	30.99
790.799	32.14
790.975	32.74
791.151	32.15
791.327	33.39
791.502	32.71
791.678	34.28
791.854	34.98
792.03	37.66
792.205	40.37
792.381	38.23
792.557	39.49
792.733	41.01
792.908	39.21
793.084	40.43
793.259	37.69
793.435	37.79
793.611	35.97
793.786	35.37
793.962	34.88
794.137	33
794.313	33.94
794.488	33.41
794.664	32.61
794.839	35.6
795.015	35.61
795.19	35.72
795.366	36.36
795.541	36.27
795.716	36.68
795.892	37.4
796.067	38.54
796.242	38.58
796.418	37.76
796.593	37.5
796.768	37.46
796.944	36.19
797.119	40.43
797.294	37.5
797.469	39.49
797.644	37.72
797.82	36.32
797.995	34.57
798.17	35.41
798.345	34.54
798.52	35.16
798.695	34.89
798.87	34.69
799.045	30.87
799.22	36.05
799.395	34.4
799.57	34.45
799.745	33.79
799.92	34.93
800.095	34.76
800.27	34.83
800.445	34.1
800.62	32.26
800.795	29.12
800.97	32.54
801.145	30.15
801.319	31.28
801.494	36.3
801.669	37.49
801.844	41.67
802.018	41.4
802.193	43.75
802.368	42.8
802.543	44.52
802.717	48.39
802.892	45.33
803.067	45.06
803.241	46.34
803.416	40.75
803.59	37.81
803.765	33.73
803.94	30.21
804.114	28.93
804.289	34.17
804.463	32.59
804.638	33.39
804.812	31.72
804.986	28.09
805.161	25.8
805.335	25.26
805.51	30.33
805.684	27.84
805.858	32.38
806.033	31.25
806.207	27.1
806.381	28.49
806.556	27.43
806.73	25.63
806.904	29.96
807.078	29.33
807.253	32.43
807.427	29.17
807.601	31.44
807.775	29.08
807.949	31.98
808.123	34.68
808.298	35.86
808.472	36.68
808.646	42.04
808.82	38
808.994	38.59
809.168	39.69
809.342	39.68
809.516	39.79
809.69	41.19
809.864	41.27
810.038	37.8
810.212	36.09
810.385	34.45
810.559	33.68
810.733	33.22
810.907	33.13
811.081	30.64
811.255	36.44
811.428	38.21
811.602	37.61
811.776	39.59
811.95	44.09
812.123	44.16
812.297	46.39
812.471	45.44
812.644	48.55
812.818	54.72
812.992	53.63
813.165	46.87
813.339	44.01
813.512	42.27
813.686	41.24
813.86	37.61
814.033	37.88
814.207	41.41
814.38	41.05
814.554	41.68
814.727	36.22
814.9	36.39
815.074	37.66
815.247	38.91
815.421	38.98
815.594	35.4
815.767	33.86
815.941	36.09
816.114	33
816.287	33.32
816.46	32.61
816.634	33.21
816.807	30.68
816.98	33.2
817.153	33.81
817.327	33.42
817.5	38.15
817.673	42.97
817.846	39.84
818.019	37.89
818.192	36.4
818.365	33.09
818.538	34.6
818.711	38.37
818.884	34.91
819.057	30.76
819.23	32.27
819.403	29.95
819.576	29.08
819.749	30.22
819.922	32.23
820.095	35.07
820.268	37.42
820.441	36.41
820.614	35.46
820.786	34.88
820.959	37.04
821.132	36.44
821.305	35.4
821.477	35.74
821.65	34.91
821.823	33.93
821.996	33.05
822.168	32.79
822.341	33.16
822.514	32.33
822.686	32.68
822.859	31.98
823.031	32.36
823.204	32.13
823.376	31.51
823.549	31.39
823.722	30.9
823.894	31.3
824.067	31.33
824.239	30.95
824.411	32.3
824.584	32.16
824.756	32.06
824.929	31.66
825.101	32.62
825.273	32.55
825.446	32.85
825.618	34.63
825.79	33.54
825.963	33.73
826.135	32.52
826.307	32.31
826.479	32.69
826.652	32.73
826.824	31.5
826.996	31.79
827.168	32.68
827.34	32.55
827.512	31.28
827.684	32.32
827.856	32.28
828.029	33.45
828.201	32
828.373	30.1
828.545	30.12
828.717	30.8
828.889	31.46
829.061	29.5
829.232	29.2
829.404	28.83
829.576	28.91
829.748	28.95
829.92	29.94
830.092	31.23
830.264	33.65
830.436	37.43
830.607	40.66
830.779	38.41
830.951	41.43
831.123	40.37
831.294	40.72
831.466	41.34
831.638	41.83
831.809	38.8
831.981	35.74
832.153	38.52
832.324	33.08
832.496	34.27
832.667	33.73
832.839	34.64
833.011	37.08
833.182	36.44
833.354	31.28
833.525	28.47
833.697	31
833.868	33.15
834.039	33.04
834.211	34.36
834.382	31.48
834.554	32.75
834.725	32.23
834.896	30.93
835.068	33.04
835.239	33.43
835.41	35.59
835.581	35.17
835.753	35.68
835.924	34.8
836.095	34.1
836.266	32.78
836.438	30.09
836.609	27.56
836.78	30.11
836.951	30.04
837.122	33.27
837.293	33.15
837.464	31.36
837.635	32.27
837.806	32.37
837.977	33.78
838.148	37.66
838.319	40.27
838.49	40.95
838.661	39.23
838.832	36.34
839.003	35.41
839.174	36.05
839.345	33.58
839.516	30.74
839.687	32.71
839.857	32.82
840.028	31.67
840.199	32.13
840.37	36.71
840.54	36.94
840.711	33.84
840.882	36.09
841.053	37.45
841.223	44.77
841.394	45.62
841.564	41.25
841.735	44.59
841.906	45.9
842.076	46.43
842.247	40.92
842.417	39.65
842.588	43.33
842.758	43.93
842.929	38.41
843.099	35.87
843.27	34.8
843.44	41.12
843.611	36.77
843.781	30.39
843.951	32.77
844.122	42.79
844.292	43.76
844.462	40.1
844.633	35.1
844.803	40.2
844.973	41.43
845.144	44.48
845.314	31.33
845.484	37.58
845.654	38.79
845.824	37.47
845.995	25.88
846.165	26.57
846.335	25.83
846.505	29.47
846.675	39.94
846.845	33.44
847.015	33.3
847.185	52.88
847.355	49.05
847.525	54.48
847.695	49.13
847.865	58.95
848.035	52.48
848.205	57.2
848.375	62.61
848.545	49.45
848.715	63.43
848.884	63.12
849.054	65.72
849.224	65.56
849.394	89.35
849.564	78.42
849.733	75.94
849.903	86.87
850.073	80.16
850.243	67.59
850.412	89.71
850.582	101.52
850.752	95.39
850.921	93.71
851.091	89.57
851.26	60.9
851.43	67.6
851.599	64.79
851.769	76.61
851.939	83.24
852.108	72.86
852.278	67.02
852.447	44.18
852.616	51.06
852.786	50.21
852.955	54.69
853.125	61.26
853.294	70.79
853.463	79.78
853.633	71.54
853.802	78.17
853.971	85.33
854.141	71.57
854.31	79.86
854.479	91.28
854.648	90.78
854.818	82.05
854.987	80.99
855.156	76.07
855.325	68
855.494	64.28
855.663	56.91
855.832	60.78
856.001	67.58
856.171	69.51
856.34	63.16
856.509	64.77
856.678	65.62
856.847	58.14
857.016	51.6
857.185	48.68
857.353	53.94
857.522	55.21
857.691	56.62
857.86	55.93
858.029	45.83
858.198	29.75
858.367	25.45
858.535	28.68
858.704	29.87
858.873	53.23
859.042	49.1
859.21	42.2
859.379	39.71
859.548	36.15
859.717	42.06
859.885	39.71
860.054	48.17
860.222	50.9
860.391	42.33
860.56	46.02
860.728	25.22
860.897	37.26
861.065	53.39
861.234	64.45
861.402	48.07
861.571	44.92
861.739	36.82
861.908	45.62
862.076	50.89
862.244	46.76
862.413	39.38
862.581	50.73
862.749	45.73
862.918	29.34
863.086	18.64
863.254	29.91
863.423	22.87
863.591	37.67
863.759	36.72
863.927	32.26
864.096	32.53
864.264	40.51
864.432	32.97
864.6	32.45
864.768	35.73
864.936	51.83
865.104	64.68
865.272	65.85
865.44	84.89
865.608	64.65
865.776	57.91
865.944	72.31
866.112	69.06
866.28	79.98
866.448	73.51
866.616	99.85
866.784	100.84
866.952	61.18
867.12	43.52
867.288	17.19
867.455	22.9
867.623	41.42
867.791	30.25
867.959	32.46
868.127	29.82
868.294	32.67
868.462	28.31
868.63	21.57
868.797	40.22
868.965	50.98
869.133	61.96
869.3	60.62
869.468	65.33
869.636	68.16
869.803	72.57
869.971	70.22
870.138	94.32
870.306	84.77
870.473	83.35
870.641	62.81
870.808	62.6
870.975	60.11
871.143	61.29
871.31	50.97
871.478	44.74
871.645	50.79
871.812	60.48
871.98	53.93
872.147	47.25
872.314	47.84
872.482	41.53
872.649	34.97
872.816	38.5
872.983	32.77
873.15	26.6
873.318	35.4
873.485	30.76
873.652	29.78
873.819	22.41
873.986	23.26
874.153	25.15
874.32	32.8
874.487	34.27
874.654	19.97
874.821	24.57
874.988	31.39
875.155	21.35
875.322	-8.29
875.489	-6.49
875.656	-2.63
875.823	-21.81
875.99	-20.99
876.157	-23.93
876.324	-5.71
876.49	-13.57
876.657	-11.56
876.824	-25.2
876.991	-15.34
877.157	2.63
877.324	2.01
877.491	18.25
877.658	31.08
877.824	32.95
877.991	32.53
878.157	30.58
878.324	44.19
878.491	47.49
878.657	64.2
878.824	78.1
878.99	84.32
879.157	85.21
879.323	71.23
879.49	78.64
879.656	80.27
879.823	76.55
879.989	82.7
880.156	85.74
880.322	71.69
880.488	58.62
880.655	59.89
880.821	59.55
880.987	62.56
881.154	55.7
881.32	52.73
881.486	50.37
881.652	50.39
881.819	39.96
881.985	39.25
882.151	38.3
882.317	41.62
882.483	39.18
882.649	37.06
882.816	36.03
882.982	37.27
883.148	38.83
883.314	38.98
883.48	38.14
883.646	38.9
883.812	41.65
883.978	44.76
884.144	44.31
884.31	43.96
884.476	43.87
884.642	45.25
884.807	46.25
884.973	42.91
885.139	44
885.305	44.56
885.471	45.4
885.637	41.13
885.802	39.34
885.968	36.6
886.134	39.8
886.3	40.76
886.465	37.89
886.631	39.93
886.797	43.51
886.962	44.76
887.128	46.79
887.293	48.63
887.459	44.67
887.625	47.25
887.79	50.7
887.956	48.5
888.121	49.86
888.287	52.18
888.452	47.52
888.618	48.61
888.783	49.27
