Data from 2938076_Reflection_2.txt Node
Date: Sat Jul 11 20:24:10 EDT 2015
User: robert
Spectrometer: USB4E03001
Autoset integration time: false
Trigger mode: 4
Integration Time (sec): 1.000000E-1
Scans to average: 10
Electric dark correction enabled: true
Nonlinearity correction enabled: false
Boxcar width: 5
Stray light correction enabled: false
XAxis mode: Wavelengths
Stop averaging: false
Number of Pixels in Spectrum: 3648
>>>>>Begin Spectral Data<<<<<
177.566	-8.28
177.785	2.48
178.005	-60.61
178.225	-42.86
178.445	-17.63
178.665	-115.65
178.885	-64.71
179.105	-99.58
179.324	-129.05
179.544	545.35
179.764	97.39
179.984	87.21
180.204	63.18
180.423	108.15
180.643	161.04
180.863	485.98
181.083	258.15
181.302	140.16
181.522	132.37
181.742	83.71
181.961	104.03
182.181	70.31
182.401	121.69
182.621	137.35
182.84	103.49
183.06	144.59
183.279	1236.96
183.499	279.9
183.719	-195.25
183.938	-223.02
184.158	-121.12
184.377	-322.46
184.597	-116.66
184.816	-146.16
185.036	-173.77
185.256	-143.66
185.475	-97.73
185.695	-584.32
185.914	-276.28
186.134	7035.63
186.353	-1629.17
186.572	-355.45
186.792	-64.52
187.011	-206.52
187.231	-42
187.45	0.53
187.67	-257.51
187.889	148.31
188.108	191.55
188.328	83.09
188.547	254.7
188.766	71.08
188.986	104.2
189.205	96.87
189.424	61.51
189.644	-1303.48
189.863	162.24
190.082	320.03
190.302	-3966.42
190.521	-322
190.74	-280.14
190.959	-484.88
191.178	-264.03
191.398	-133.69
191.617	-296.17
191.836	-617.33
192.055	3.06
192.274	1056.64
192.494	-43.27
192.713	-8.47
192.932	-70.57
193.151	-21.46
193.37	-45.21
193.589	-51.41
193.808	-42.05
194.027	-33.96
194.246	23.67
194.465	-4.15
194.685	-27.2
194.904	53.3
195.123	145.27
195.342	125.62
195.561	6048.57
195.78	-175.38
195.999	-216.52
196.218	-147.27
196.436	-225.88
196.655	-95.36
196.874	-178.97
197.093	-54.31
197.312	43.86
197.531	44.07
197.75	161.46
197.969	61.24
198.188	-212.64
198.407	23.96
198.625	-75.82
198.844	-74.77
199.063	-55.37
199.282	-58.59
199.501	-1062.71
199.719	3862.36
199.938	-162.75
200.157	-113.75
200.376	-34.93
200.594	-220.31
200.813	-145.09
201.032	7318.18
201.251	60.99
201.469	54.08
201.688	83.31
201.907	131.11
202.125	67.36
202.344	47.46
202.563	82.64
202.781	104.03
203	134.86
203.218	104.34
203.437	119.46
203.656	169.17
203.874	236.21
204.093	445.39
204.311	177.14
204.53	309.19
204.748	-669.69
204.967	4824.14
205.185	-529.52
205.404	-222.13
205.622	-31.25
205.841	-11.9
206.059	127.06
206.278	-32.73
206.496	213.7
206.715	-4500
206.933	1.94
207.151	-816.67
207.37	167.29
207.588	119.48
207.806	184.13
208.025	-14747.06
208.243	218.49
208.461	176.8
208.68	104.78
208.898	111.79
209.116	104.73
209.335	81.07
209.553	83.85
209.771	82.09
209.989	98.25
210.208	73.01
210.426	79.79
210.644	74.97
210.862	83.12
211.081	105.51
211.299	94.25
211.517	97.54
211.735	68.01
211.953	48.91
212.171	53.6
212.39	29.64
212.608	55.05
212.826	57.06
213.044	60.18
213.262	120
213.48	107.42
213.698	82.12
213.916	75.47
214.134	71.05
214.352	81.5
214.57	103.54
214.788	180.06
215.006	137.72
215.224	137.38
215.442	181.88
215.66	201.51
215.878	166.68
216.096	178.14
216.314	-4157.89
216.532	393.32
216.75	438.43
216.968	201.11
217.185	156.03
217.403	167.34
217.621	97.55
217.839	67.6
218.057	35.89
218.275	42.05
218.492	96.58
218.71	88.16
218.928	122.46
219.146	119.68
219.363	257.36
219.581	134.9
219.799	71.56
220.017	92.21
220.234	107.53
220.452	115.14
220.67	118.22
220.887	63.34
221.105	59.47
221.323	56.28
221.54	35.3
221.758	42.5
221.976	59.83
222.193	79.94
222.411	76.87
222.629	62.83
222.846	65.69
223.064	54.19
223.281	68.83
223.499	96.97
223.716	147.76
223.934	138.58
224.151	119.43
224.369	82.58
224.586	85.6
224.804	81.54
225.021	105.77
225.239	118.24
225.456	113.89
225.674	107.99
225.891	96.43
226.108	78.75
226.326	86.7
226.543	79.38
226.76	85.87
226.978	68.62
227.195	60.57
227.413	45.8
227.63	43.82
227.847	35.05
228.064	29.36
228.282	29.54
228.499	26.64
228.716	23.4
228.934	25.33
229.151	21.54
229.368	18.57
229.585	20.9
229.802	20.99
230.02	19.57
230.237	21.68
230.454	18.35
230.671	17.39
230.888	19.86
231.105	19.89
231.323	14.8
231.54	13.85
231.757	14.04
231.974	15.82
232.191	19.69
232.408	27.05
232.625	37.91
232.842	44.56
233.059	48.54
233.276	46.23
233.493	47.83
233.71	54.16
233.927	53.44
234.144	59.09
234.361	55.62
234.578	50.38
234.795	41.94
235.012	25.76
235.229	22.92
235.446	18.57
235.663	18.83
235.879	14.39
236.096	12.38
236.313	12.94
236.53	9.15
236.747	7.81
236.964	8.88
237.181	10.78
237.397	7.42
237.614	13.81
237.831	10.92
238.048	14.81
238.264	19.19
238.481	12.41
238.698	11.81
238.915	7.78
239.131	9.95
239.348	12.82
239.565	13.85
239.781	24.75
239.998	21.86
240.215	27.44
240.431	25.95
240.648	26.36
240.865	29.22
241.081	30.75
241.298	29.23
241.514	28.55
241.731	25.04
241.947	26.05
242.164	22.86
242.38	20.56
242.597	18.43
242.814	15.67
243.03	13.96
243.246	12.65
243.463	11.98
243.679	14.52
243.896	13.08
244.112	15.47
244.329	15.83
244.545	18.59
244.762	22.85
244.978	23.4
245.194	25.74
245.411	25.41
245.627	23.4
245.843	20.92
246.06	18.39
246.276	18.53
246.492	17.43
246.709	16.35
246.925	14.55
247.141	12.44
247.357	12.82
247.574	12.07
247.79	12.64
248.006	13.66
248.222	14.18
248.439	14.2
248.655	14.11
248.871	13.96
249.087	12.96
249.303	12.96
249.519	14.76
249.736	14.67
249.952	16.82
250.168	16.01
250.384	16.89
250.6	16.03
250.816	14.87
251.032	12.26
251.248	12.29
251.464	13.87
251.68	15.28
251.896	14.1
252.112	13.38
252.328	12.55
252.544	12.13
252.76	11.36
252.976	9.45
253.192	8.41
253.408	9.7
253.624	9.35
253.84	9.16
254.056	9.95
254.272	10.54
254.487	11.56
254.703	9.92
254.919	12.57
255.135	11.71
255.351	15.05
255.567	20.7
255.782	21.65
255.998	20.41
256.214	20.7
256.43	20.51
256.646	22.19
256.861	21.63
257.077	24.12
257.293	23.16
257.508	21.76
257.724	20.69
257.94	17.14
258.155	16.79
258.371	16.62
258.587	15.12
258.802	13.72
259.018	12.3
259.234	12.09
259.449	10.87
259.665	9.48
259.88	10.18
260.096	10.41
260.312	10.77
260.527	10.84
260.743	10.89
260.958	11.17
261.174	11.34
261.389	10.79
261.605	11.45
261.82	11.86
262.036	13.93
262.251	14.55
262.466	14.95
262.682	15.51
262.897	14.82
263.113	17.16
263.328	15.27
263.543	14.24
263.759	17.08
263.974	17.52
264.189	16.83
264.405	16.44
264.62	16.01
264.835	16.16
265.051	14.24
265.266	16.07
265.481	14.45
265.696	17.23
265.912	16.3
266.127	13.79
266.342	12.52
266.557	12.76
266.773	13.24
266.988	13.08
267.203	13.08
267.418	12.14
267.633	11.39
267.848	11.78
268.064	11.33
268.279	12.48
268.494	13.99
268.709	13.24
268.924	13.91
269.139	14.4
269.354	14.26
269.569	14.52
269.784	16.92
269.999	15.51
270.214	13.38
270.429	13.31
270.644	13.8
270.859	12.88
271.074	13.07
271.289	12.51
271.504	11.19
271.719	11.79
271.934	11.35
272.149	10.5
272.363	11.89
272.578	13.41
272.793	13.23
273.008	12.6
273.223	12.55
273.438	11.97
273.653	12.1
273.867	12.2
274.082	11.28
274.297	11.4
274.512	12.29
274.726	11.66
274.941	11.87
275.156	11.26
275.371	10.72
275.585	10.33
275.8	11.43
276.015	10.14
276.229	10.23
276.444	9.42
276.659	9.7
276.873	8.72
277.088	9.81
277.302	9.79
277.517	11.13
277.732	11.01
277.946	12.8
278.161	12.94
278.375	13.76
278.59	12.71
278.804	12.98
279.019	12.9
279.233	13.71
279.448	11.75
279.662	11.64
279.877	11.06
280.091	13.39
280.306	12.12
280.52	12.03
280.735	12.42
280.949	13.34
281.163	13.25
281.378	13.25
281.592	13.36
281.806	14.72
282.021	15.25
282.235	13.54
282.449	11.27
282.664	11.71
282.878	10.93
283.092	11.55
283.307	11.35
283.521	11.96
283.735	10.71
283.949	9.97
284.164	8.96
284.378	8.38
284.592	9.29
284.806	10.15
285.02	9.89
285.234	10.87
285.449	10.05
285.663	9.51
285.877	10.74
286.091	11.62
286.305	12.93
286.519	13.59
286.733	13.81
286.947	13.58
287.161	13.95
287.375	13.82
287.589	14.01
287.803	14.46
288.017	14.94
288.231	13.19
288.445	14.6
288.659	14.95
288.873	13.09
289.087	12.83
289.301	12.95
289.515	12.9
289.729	13.19
289.943	12.74
290.157	12.69
290.371	13.55
290.584	13.83
290.798	13.42
291.012	11.24
291.226	13.21
291.44	13.65
291.654	14.27
291.867	14.52
292.081	14.55
292.295	15.55
292.509	15.09
292.722	12.67
292.936	14.37
293.15	15.28
293.364	16.55
293.577	16.02
293.791	15.41
294.005	14.72
294.218	13.97
294.432	14.07
294.645	13.12
294.859	15.14
295.073	16.71
295.286	16.34
295.5	14.07
295.713	15.63
295.927	14.27
296.14	14.34
296.354	14.1
296.568	15.4
296.781	15.82
296.994	16.34
297.208	16.05
297.421	16.68
297.635	15.5
297.848	15.31
298.062	13.65
298.275	15.46
298.489	16.32
298.702	16.36
298.915	15.64
299.129	16.48
299.342	16.75
299.555	16.16
299.769	15.4
299.982	16.23
300.195	18.33
300.409	16.72
300.622	16.1
300.835	14.83
301.048	16.58
301.262	16.67
301.475	15.56
301.688	15.51
301.901	15.26
302.115	13.56
302.328	13.15
302.541	12.02
302.754	15.42
302.967	15.4
303.18	16.1
303.393	14.95
303.607	14.57
303.82	14.25
304.033	14.01
304.246	13.64
304.459	15.19
304.672	16
304.885	15.91
305.098	16.57
305.311	15.14
305.524	16.14
305.737	15.6
305.95	16.38
306.163	16.5
306.376	16.73
306.589	16.51
306.802	16.03
307.015	16.98
307.228	16.77
307.44	15.95
307.653	18.68
307.866	16.98
308.079	18.97
308.292	19.2
308.505	20.38
308.718	19.79
308.93	21.17
309.143	22.65
309.356	21.67
309.569	22.37
309.781	21.21
309.994	20.49
310.207	20
310.42	20.23
310.632	19.33
310.845	17.36
311.058	17.24
311.27	17.3
311.483	16.93
311.696	17.91
311.908	17.93
312.121	18.88
312.333	18.43
312.546	18.44
312.759	15.95
312.971	16.27
313.184	18.32
313.396	18.6
313.609	17.25
313.821	17.62
314.034	16.64
314.246	16.7
314.459	17.45
314.671	17.91
314.884	19.31
315.096	21.82
315.309	23.03
315.521	23.51
315.733	24.05
315.946	25.76
316.158	25.45
316.371	25.99
316.583	26.43
316.795	26.13
317.008	27.68
317.22	26.2
317.432	26.51
317.644	25.43
317.857	23.65
318.069	22.46
318.281	22.27
318.494	22.81
318.706	22.3
318.918	22.49
319.13	20.66
319.342	18.86
319.555	19.92
319.767	18.22
319.979	18.32
320.191	17.98
320.403	18.13
320.615	16.46
320.827	14.75
321.039	14.99
321.252	14.13
321.464	15.16
321.676	15.89
321.888	16.9
322.1	18.33
322.312	18.85
322.524	20.82
322.736	21.19
322.948	22.81
323.16	22.42
323.372	21.66
323.584	21.92
323.796	23.99
324.007	22.33
324.219	20.69
324.431	18.74
324.643	17.71
324.855	16.95
325.067	16.87
325.279	15.96
325.491	17.5
325.702	16.21
325.914	16.1
326.126	13.34
326.338	14.24
326.55	15.45
326.761	16.71
326.973	17.52
327.185	17.72
327.396	17.49
327.608	17.46
327.82	17.53
328.032	20.02
328.243	20.3
328.455	21.14
328.666	23.3
328.878	22.75
329.09	22.11
329.301	21.33
329.513	21.05
329.725	22.01
329.936	21.72
330.148	21.33
330.359	19.69
330.571	20.1
330.782	20.54
330.994	19.27
331.205	18.14
331.417	17.96
331.628	19.13
331.84	19.08
332.051	18.64
332.262	18.62
332.474	19.07
332.685	19.6
332.897	19.87
333.108	18.4
333.319	17.93
333.531	18.83
333.742	20.07
333.953	20.06
334.165	19.49
334.376	19.31
334.587	20.24
334.799	19.54
335.01	19.41
335.221	19.14
335.432	20.62
335.644	21.61
335.855	21.16
336.066	20.42
336.277	20.75
336.488	20.63
336.7	21.15
336.911	20.75
337.122	21.16
337.333	21.61
337.544	21.31
337.755	20.12
337.966	18.07
338.177	18.31
338.388	19.33
338.599	18.6
338.811	20.12
339.022	19.4
339.233	18.83
339.444	19.03
339.655	17.91
339.866	17.45
340.076	18.73
340.287	18.96
340.498	18.7
340.709	18.72
340.92	19.69
341.131	17.9
341.342	18.08
341.553	19.19
341.764	18.23
341.975	19.21
342.185	19.26
342.396	19.5
342.607	20.04
342.818	20.21
343.029	18.76
343.239	16.94
343.45	17.57
343.661	17.35
343.872	16.42
344.082	16.44
344.293	15.61
344.504	16.11
344.714	15.63
344.925	15.7
345.136	16.48
345.346	17.71
345.557	18.35
345.768	17.49
345.978	17.12
346.189	17.49
346.399	18.45
346.61	19.19
346.821	18.82
347.031	17.16
347.242	17.26
347.452	17.69
347.663	16.34
347.873	16
348.084	17.54
348.294	17.79
348.504	17.43
348.715	16.9
348.925	16.6
349.136	16.8
349.346	18.89
349.557	18.17
349.767	16.33
349.977	17.24
350.188	16.95
350.398	16.66
350.608	17.52
350.819	17.64
351.029	18.31
351.239	18.85
351.449	18.7
351.66	17.46
351.87	18.1
352.08	19.26
352.29	18.65
352.501	19.87
352.711	19.5
352.921	18.71
353.131	18.34
353.341	18.17
353.552	17.15
353.762	16.62
353.972	17.41
354.182	18.01
354.392	17.46
354.602	17.83
354.812	16.82
355.022	16.96
355.232	18.06
355.442	18.97
355.652	17.78
355.862	18.52
356.072	18.37
356.282	18.19
356.492	18.42
356.702	18.27
356.912	18.05
357.122	17.73
357.332	17.68
357.542	17.38
357.752	16.61
357.962	17.26
358.171	16.71
358.381	16.87
358.591	17.16
358.801	16.62
359.011	17.01
359.221	17.71
359.43	18.16
359.64	19.02
359.85	18.59
360.06	18.03
360.269	17.54
360.479	17.56
360.689	17.75
360.899	16.81
361.108	17.16
361.318	17.16
361.528	16.82
361.737	16.46
361.947	15.91
362.156	15.24
362.366	15.46
362.576	15.34
362.785	15.98
362.995	15.47
363.204	15.97
363.414	16.05
363.623	15.69
363.833	15.75
364.042	16.59
364.252	15.75
364.461	17.1
364.671	17.29
364.88	17.66
365.09	16.73
365.299	16.29
365.509	16.22
365.718	15.42
365.927	15.52
366.137	15.08
366.346	14.32
366.555	14.51
366.765	13.94
366.974	13.37
367.183	13.27
367.393	13.67
367.602	14.34
367.811	14.46
368.021	14.55
368.23	14.73
368.439	15.06
368.648	14.78
368.857	14.84
369.067	14.53
369.276	15.26
369.485	15.2
369.694	15.53
369.903	15.58
370.112	14.93
370.321	14.08
370.531	12.72
370.74	12.81
370.949	13.88
371.158	14.19
371.367	14.19
371.576	13.86
371.785	13.79
371.994	12.63
372.203	13.14
372.412	13.23
372.621	14.13
372.83	14.75
373.039	14.8
373.248	13.97
373.457	13.48
373.666	13.65
373.874	13.68
374.083	13.16
374.292	13.34
374.501	12.43
374.71	12.11
374.919	11.38
375.128	11.89
375.336	11.3
375.545	11.14
375.754	11
375.963	11.05
376.171	10.91
376.38	11.22
376.589	11.33
376.798	11.38
377.006	11.73
377.215	11.93
377.424	11.54
377.632	11.59
377.841	11.61
378.05	11.43
378.258	11.11
378.467	10.78
378.675	10.19
378.884	10.45
379.093	9.81
379.301	9.81
379.51	9.64
379.718	9.25
379.927	9.59
380.135	9.74
380.344	9.94
380.552	9.88
380.761	10.54
380.969	11.2
381.177	11.19
381.386	11.58
381.594	11.24
381.803	11.03
382.011	10.8
382.219	10.51
382.428	10.51
382.636	10.35
382.845	10.65
383.053	10.59
383.261	9.92
383.469	9.01
383.678	8.79
383.886	8.87
384.094	9.55
384.302	10.01
384.511	9.89
384.719	9.87
384.927	10.3
385.135	10.05
385.343	9.57
385.552	9.4
385.76	9.72
385.968	10.06
386.176	10.38
386.384	9.94
386.592	9.7
386.8	9.4
387.008	9.47
387.216	9.07
387.424	8.69
387.633	8.72
387.841	8.85
388.049	8.71
388.257	8.76
388.465	8.46
388.672	8.35
388.88	8.5
389.088	9
389.296	8.49
389.504	8.55
389.712	8.59
389.92	8.67
390.128	8.88
390.336	9.23
390.544	9.26
390.751	9.07
390.959	9.21
391.167	9.08
391.375	8.37
391.583	8.65
391.79	8.73
391.998	8.7
392.206	8.43
392.414	8.69
392.621	8.1
392.829	7.88
393.037	7.82
393.244	7.78
393.452	7.82
393.66	8.11
393.867	7.82
394.075	7.46
394.283	7.65
394.49	8.06
394.698	7.63
394.905	7.84
395.113	7.72
395.32	8.15
395.528	7.78
395.735	7.3
395.943	7.17
396.15	7.32
396.358	7.38
396.565	7.24
396.773	6.85
396.98	6.74
397.188	6.94
397.395	6.89
397.602	6.24
397.81	6.8
398.017	7.13
398.225	7.26
398.432	7.11
398.639	7.09
398.847	6.67
399.054	6.74
399.261	7.16
399.468	7.1
399.676	6.95
399.883	6.71
400.09	6.26
400.297	6.22
400.505	6.02
400.712	5.95
400.919	6.09
401.126	6.4
401.333	6.46
401.54	6.18
401.748	5.66
401.955	5.84
402.162	6
402.369	6.13
402.576	6.09
402.783	6.28
402.99	6.31
403.197	6.22
403.404	6.29
403.611	6.32
403.818	6.21
404.025	6.51
404.232	6.51
404.439	6.49
404.646	6.19
404.853	6.19
405.06	5.92
405.267	6.15
405.474	6.06
405.681	5.91
405.887	5.8
406.094	6.01
406.301	6.21
406.508	6.23
406.715	6.5
406.922	6.37
407.128	6.38
407.335	6.61
407.542	6.4
407.749	6.42
407.955	6.58
408.162	6.33
408.369	5.8
408.575	5.8
408.782	5.82
408.989	5.55
409.195	5.59
409.402	5.46
409.609	5.17
409.815	4.99
410.022	5.01
410.228	5.2
410.435	5.37
410.642	5.65
410.848	5.38
411.055	5.34
411.261	5.77
411.468	5.98
411.674	5.89
411.881	5.94
412.087	6.12
412.294	6.19
412.5	5.92
412.706	6.08
412.913	5.98
413.119	5.87
413.326	5.8
413.532	5.55
413.738	5.6
413.945	5.75
414.151	5.88
414.357	5.65
414.564	5.66
414.77	5.73
414.976	5.47
415.182	5.49
415.389	5.68
415.595	5.51
415.801	5.58
416.007	5.45
416.214	5.32
416.42	5.37
416.626	5.48
416.832	5.26
417.038	5.39
417.244	5.49
417.45	5.56
417.657	5.51
417.863	5.85
418.069	5.75
418.275	5.67
418.481	5.82
418.687	5.66
418.893	5.7
419.099	5.75
419.305	5.67
419.511	5.57
419.717	5.57
419.923	5.57
420.129	5.43
420.335	5.4
420.541	5.52
420.746	5.53
420.952	5.5
421.158	5.53
421.364	5.4
421.57	5.27
421.776	5.36
421.982	5.34
422.187	5.41
422.393	5.42
422.599	5.43
422.805	5.49
423.01	5.36
423.216	5.31
423.422	5.31
423.628	5.58
423.833	5.46
424.039	5.41
424.245	5.44
424.45	5.38
424.656	5.37
424.862	5.35
425.067	5.31
425.273	5.51
425.478	5.65
425.684	5.64
425.889	5.51
426.095	5.68
426.301	5.58
426.506	5.46
426.712	5.36
426.917	5.26
427.123	5.28
427.328	5.2
427.533	5.17
427.739	5.27
427.944	5.2
428.15	5.34
428.355	5.22
428.561	5.42
428.766	5.72
428.971	5.99
429.177	6.02
429.382	6.37
429.587	6.5
429.793	6.27
429.998	6.09
430.203	5.98
430.408	5.8
430.614	5.81
430.819	6.03
431.024	5.74
431.229	5.58
431.434	5.69
431.64	5.48
431.845	5.41
432.05	5.49
432.255	5.52
432.46	5.52
432.665	5.45
432.87	5.37
433.076	5.12
433.281	5.35
433.486	5.47
433.691	5.23
433.896	5.12
434.101	5.08
434.306	5.05
434.511	4.93
434.716	4.94
434.921	5.02
435.126	5.24
435.331	5.38
435.535	5.2
435.74	5
435.945	5.1
436.15	5.21
436.355	5.17
436.56	5.21
436.765	5.25
436.97	5.33
437.174	5.2
437.379	5.29
437.584	4.96
437.789	4.92
437.993	4.88
438.198	5.05
438.403	4.83
438.608	4.87
438.812	4.81
439.017	4.92
439.222	4.97
439.426	5.02
439.631	4.97
439.836	5.2
440.04	5.25
440.245	5.43
440.45	5.44
440.654	5.54
440.859	5.54
441.063	5.48
441.268	5.36
441.472	5.26
441.677	5.36
441.881	5.33
442.086	5.29
442.29	5.34
442.495	5.41
442.699	5.29
442.904	5.29
443.108	5.33
443.312	5.54
443.517	5.57
443.721	5.66
443.925	5.53
444.13	5.4
444.334	5.36
444.538	5.42
444.743	5.31
444.947	5.28
445.151	5.27
445.356	5.29
445.56	5.11
445.764	5.2
445.968	5.27
446.173	5.34
446.377	5.44
446.581	5.36
446.785	5.26
446.989	5.25
447.193	5.3
447.398	5.35
447.602	5.25
447.806	5.34
448.01	5.37
448.214	5.21
448.418	5.16
448.622	5.08
448.826	5.24
449.03	5.2
449.234	5.08
449.438	4.97
449.642	4.99
449.846	5.01
450.05	4.97
450.254	4.9
450.458	4.95
450.662	4.84
450.866	4.88
451.069	4.77
451.273	4.71
451.477	4.7
451.681	4.97
451.885	4.76
452.089	4.73
452.292	4.87
452.496	4.9
452.7	4.86
452.904	5.03
453.107	5.08
453.311	5.09
453.515	5.29
453.719	5.38
453.922	5.15
454.126	5.32
454.33	5.3
454.533	5.2
454.737	5.16
454.94	5.35
455.144	5.4
455.348	5.25
455.551	5.31
455.755	4.99
455.958	4.97
456.162	4.93
456.365	4.86
456.569	4.92
456.772	4.75
456.976	4.65
457.179	4.58
457.383	4.45
457.586	4.49
457.79	4.49
457.993	4.7
458.196	4.49
458.4	4.6
458.603	4.66
458.807	4.66
459.01	4.77
459.213	4.82
459.417	4.76
459.62	4.73
459.823	4.85
460.026	4.96
460.23	4.92
460.433	5.17
460.636	5.15
460.839	5.11
461.042	5.19
461.246	5.19
461.449	5.33
461.652	5.41
461.855	5.67
462.058	5.73
462.261	5.57
462.464	5.93
462.668	5.77
462.871	5.81
463.074	5.81
463.277	5.87
463.48	5.83
463.683	5.68
463.886	5.51
464.089	5.49
464.292	5.16
464.495	5.18
464.698	5
464.901	5.01
465.104	5.03
465.306	5.21
465.509	5.08
465.712	5.15
465.915	5.3
466.118	5.4
466.321	5.23
466.524	5.2
466.726	5.26
466.929	5.12
467.132	5.32
467.335	5.37
467.538	5.33
467.74	5.46
467.943	5.39
468.146	5.22
468.348	5.16
468.551	5.12
468.754	5.25
468.956	5.32
469.159	5.14
469.362	4.94
469.564	4.82
469.767	4.54
469.969	4.37
470.172	4.52
470.375	4.58
470.577	4.79
470.78	4.92
470.982	5.03
471.185	4.94
471.387	5.04
471.59	5.07
471.792	5.17
471.995	5.28
472.197	5.31
472.399	5.28
472.602	5.26
472.804	5.13
473.007	4.98
473.209	4.81
473.411	4.91
473.614	5.03
473.816	4.97
474.018	4.93
474.22	5.15
474.423	5.13
474.625	5
474.827	5.02
475.03	4.98
475.232	5.13
475.434	5.32
475.636	5.07
475.838	5.06
476.04	5.08
476.243	5.14
476.445	5.03
476.647	4.98
476.849	5.05
477.051	4.87
477.253	4.91
477.455	4.84
477.657	4.99
477.859	5.06
478.061	5.04
478.263	5.07
478.465	4.99
478.667	5
478.869	5.21
479.071	5.28
479.273	5.37
479.475	5.32
479.677	5.54
479.879	5.26
480.081	5.2
480.283	5.06
480.485	5.16
480.686	4.98
480.888	4.82
481.09	4.62
481.292	4.56
481.494	4.62
481.695	4.68
481.897	4.55
482.099	4.57
482.301	4.6
482.502	4.65
482.704	4.62
482.906	4.74
483.107	4.79
483.309	4.79
483.511	4.77
483.712	4.76
483.914	4.71
484.115	4.7
484.317	4.7
484.519	4.64
484.72	4.66
484.922	4.61
485.123	4.6
485.325	4.6
485.526	4.61
485.728	4.56
485.929	4.61
486.131	4.67
486.332	4.63
486.534	4.68
486.735	4.74
486.936	4.73
487.138	4.76
487.339	4.66
487.541	4.61
487.742	4.68
487.943	4.74
488.144	4.72
488.346	4.61
488.547	4.68
488.748	4.7
488.95	4.72
489.151	4.67
489.352	4.73
489.553	4.84
489.755	4.87
489.956	4.8
490.157	4.84
490.358	4.87
490.559	4.95
490.76	4.86
490.961	4.83
491.163	4.86
491.364	4.89
491.565	4.81
491.766	4.75
491.967	4.78
492.168	4.82
492.369	4.74
492.57	4.76
492.771	4.81
492.972	4.83
493.173	4.76
493.374	4.68
493.575	4.63
493.776	4.6
493.976	4.63
494.177	4.68
494.378	4.69
494.579	4.71
494.78	4.59
494.981	4.47
495.182	4.51
495.382	4.67
495.583	4.86
495.784	4.97
495.985	5.04
496.185	5.16
496.386	5.13
496.587	4.98
496.788	5.09
496.988	5.16
497.189	5.16
497.39	5.19
497.59	5.2
497.791	5.24
497.992	5.29
498.192	5.42
498.393	5.34
498.593	5.33
498.794	5.4
498.994	5.6
499.195	5.57
499.395	5.69
499.596	5.73
499.796	5.75
499.997	5.56
500.197	5.49
500.398	5.44
500.598	5.48
500.799	5.5
500.999	5.46
501.199	5.15
501.4	5.12
501.6	4.83
501.801	4.79
502.001	4.61
502.201	4.64
502.402	4.83
502.602	4.86
502.802	4.84
503.002	4.73
503.203	4.95
503.403	4.92
503.603	4.9
503.803	5.22
504.003	5.17
504.204	5.48
504.404	5.54
504.604	5.43
504.804	5.34
505.004	5.32
505.204	5.45
505.404	5.18
505.604	5.23
505.804	5.15
506.005	5.08
506.205	5.12
506.405	4.85
506.605	4.93
506.805	4.98
507.005	4.93
507.204	5.05
507.404	5.03
507.604	5.1
507.804	5.25
508.004	5.43
508.204	5.38
508.404	5.33
508.604	5.46
508.804	5.37
509.003	5.21
509.203	5.32
509.403	5.27
509.603	5.27
509.803	5.41
510.002	5.39
510.202	5.33
510.402	5.41
510.602	5.44
510.801	5.36
511.001	5.44
511.201	5.54
511.4	5.53
511.6	5.68
511.8	5.57
511.999	5.58
512.199	5.49
512.398	5.55
512.598	5.61
512.797	5.71
512.997	5.84
513.197	5.74
513.396	5.75
513.596	5.68
513.795	5.46
513.994	5.55
514.194	5.48
514.393	5.42
514.593	5.59
514.792	5.52
514.992	5.48
515.191	5.55
515.39	5.73
515.59	5.67
515.789	5.83
515.988	5.99
516.188	6.02
516.387	6.21
516.586	6.33
516.786	6.12
516.985	6.1
517.184	6.22
517.383	6.06
517.582	6.09
517.782	6.17
517.981	6.21
518.18	6.08
518.379	6.22
518.578	6.13
518.777	6.14
518.976	6.19
519.176	6.16
519.375	6.17
519.574	6.33
519.773	6.28
519.972	6.37
520.171	6.34
520.37	6.54
520.569	6.48
520.768	6.53
520.967	6.52
521.166	6.47
521.365	6.49
521.564	6.39
521.762	6.16
521.961	6.12
522.16	6.15
522.359	6.09
522.558	6.04
522.757	6.06
522.956	5.96
523.154	6.08
523.353	6.15
523.552	6.27
523.751	6.28
523.949	6.39
524.148	6.38
524.347	6.27
524.546	6.37
524.744	6.44
524.943	6.43
525.142	6.44
525.34	6.43
525.539	6.41
525.737	6.44
525.936	6.44
526.135	6.45
526.333	6.48
526.532	6.51
526.73	6.51
526.929	6.44
527.127	6.42
527.326	6.38
527.524	6.3
527.723	6.36
527.921	6.32
528.12	6.31
528.318	6.32
528.516	6.33
528.715	6.34
528.913	6.29
529.112	6.3
529.31	6.29
529.508	6.34
529.707	6.34
529.905	6.25
530.103	6.3
530.301	6.35
530.5	6.32
530.698	6.35
530.896	6.34
531.094	6.49
531.293	6.56
531.491	6.59
531.689	6.64
531.887	6.75
532.085	6.89
532.283	6.93
532.481	6.94
532.68	6.99
532.878	6.84
533.076	6.86
533.274	6.77
533.472	6.7
533.67	6.73
533.868	6.63
534.066	6.61
534.264	6.57
534.462	6.57
534.66	6.52
534.858	6.5
535.056	6.71
535.253	6.75
535.451	6.85
535.649	6.93
535.847	6.97
536.045	7.17
536.243	7.23
536.441	7.3
536.638	7.29
536.836	7.38
537.034	7.47
537.232	7.43
537.43	7.58
537.627	7.6
537.825	7.68
538.023	7.67
538.22	7.57
538.418	7.53
538.616	7.5
538.813	7.52
539.011	7.57
539.209	7.66
539.406	7.76
539.604	7.67
539.801	7.62
539.999	7.58
540.196	7.66
540.394	7.77
540.591	7.84
540.789	7.9
540.986	7.93
541.184	8.06
541.381	7.96
541.579	7.95
541.776	7.94
541.974	7.98
542.171	8
542.368	8.05
542.566	8.11
542.763	8.06
542.96	8
543.158	7.95
543.355	7.78
543.552	7.9
543.75	7.91
543.947	7.96
544.144	7.95
544.341	7.97
544.539	7.92
544.736	7.94
544.933	8.12
545.13	8.25
545.327	8.32
545.524	8.46
545.722	8.45
545.919	8.53
546.116	8.56
546.313	8.7
546.51	8.79
546.707	8.88
546.904	8.81
547.101	8.82
547.298	8.74
547.495	8.72
547.692	8.68
547.889	8.76
548.086	8.79
548.283	8.79
548.48	8.67
548.677	8.55
548.874	8.62
549.07	8.8
549.267	8.86
549.464	9.28
549.661	9.59
549.858	9.67
550.055	9.75
550.251	9.85
550.448	10.03
550.645	10.26
550.842	10.36
551.038	10.26
551.235	10.17
551.432	10.25
551.628	10.2
551.825	10.04
552.022	10.12
552.218	10.01
552.415	10.05
552.612	9.91
552.808	9.82
553.005	10.01
553.201	10.19
553.398	10.26
553.594	10.32
553.791	10.18
553.987	10.41
554.184	10.37
554.38	10.39
554.577	10.34
554.773	10.63
554.97	10.83
555.166	10.85
555.362	10.95
555.559	10.87
555.755	10.76
555.952	10.77
556.148	10.78
556.344	10.98
556.541	11.09
556.737	11.11
556.933	11.08
557.129	11.02
557.326	11.27
557.522	11.32
557.718	11.51
557.914	11.68
558.11	11.93
558.307	11.85
558.503	11.99
558.699	12.13
558.895	12.22
559.091	12.32
559.287	12.39
559.483	12.42
559.679	12.31
559.876	12.33
560.072	12.25
560.268	12.22
560.464	12.29
560.66	12.28
560.856	12.28
561.052	12.39
561.247	12.39
561.443	12.47
561.639	12.41
561.835	12.58
562.031	12.81
562.227	13.24
562.423	13.14
562.619	13.16
562.815	13.34
563.01	13.42
563.206	13.36
563.402	13.42
563.598	13.56
563.793	13.65
563.989	13.29
564.185	13.31
564.381	13.17
564.576	13.32
564.772	13.41
564.968	13.29
565.163	13.16
565.359	13.23
565.555	13.19
565.75	13.08
565.946	13.12
566.141	13.38
566.337	13.4
566.532	13.4
566.728	13.5
566.923	13.39
567.119	13.31
567.314	13.5
567.51	13.45
567.705	13.32
567.901	13.34
568.096	13.29
568.292	13.34
568.487	13.33
568.682	13.4
568.878	13.23
569.073	13.39
569.268	13.46
569.464	13.58
569.659	13.83
569.854	14.05
570.05	13.94
570.245	13.91
570.44	13.93
570.635	13.78
570.831	13.83
571.026	14.07
571.221	14.3
571.416	14.36
571.611	14.1
571.806	14.07
572.002	13.99
572.197	14.12
572.392	14.19
572.587	14.3
572.782	14.37
572.977	14.28
573.172	14.28
573.367	14.23
573.562	14.29
573.757	14.59
573.952	14.55
574.147	14.72
574.342	14.7
574.537	14.65
574.732	14.64
574.927	14.71
575.121	14.71
575.316	14.79
575.511	14.77
575.706	14.72
575.901	14.69
576.096	14.89
576.29	14.93
576.485	15.17
576.68	15.16
576.875	15.12
577.069	15.24
577.264	15.39
577.459	15.48
577.654	15.32
577.848	15.4
578.043	15.39
578.238	15.16
578.432	15.25
578.627	15.14
578.821	15.25
579.016	15.37
579.21	15.19
579.405	15.02
579.6	15.01
579.794	15.37
579.989	15.53
580.183	15.89
580.378	16.01
580.572	15.74
580.766	15.46
580.961	15.53
581.155	15.6
581.35	15.85
581.544	15.87
581.738	15.7
581.933	15.56
582.127	15.29
582.321	14.91
582.516	14.77
582.71	14.98
582.904	15.45
583.099	15.56
583.293	15.38
583.487	15.21
583.681	15.16
583.875	15.25
584.07	15.39
584.264	15.71
584.458	15.72
584.652	16.05
584.846	16.12
585.04	15.99
585.234	15.8
585.428	15.96
585.623	16.16
585.817	16.39
586.011	16.46
586.205	16.48
586.399	16.23
586.593	16.05
586.787	15.91
586.981	15.78
587.174	15.77
587.368	15.89
587.562	15.87
587.756	16.05
587.95	16.02
588.144	16.08
588.338	15.96
588.532	15.89
588.725	15.9
588.919	16.05
589.113	16.1
589.307	15.96
589.501	15.89
589.694	15.96
589.888	15.83
590.082	15.72
590.275	15.58
590.469	15.65
590.663	15.86
590.856	16.27
591.05	16.19
591.244	16.42
591.437	16.77
591.631	16.96
591.824	17.03
592.018	16.9
592.212	17.19
592.405	17.07
592.599	17.08
592.792	16.96
592.986	16.8
593.179	16.73
593.372	16.6
593.566	16.32
593.759	16.08
593.953	16.14
594.146	16.35
594.339	16.24
594.533	16.34
594.726	16.06
594.92	16.08
595.113	16.04
595.306	16.09
595.499	16.1
595.693	16.41
595.886	16.49
596.079	16.29
596.272	16.07
596.466	16.12
596.659	16.11
596.852	16.34
597.045	16.4
597.238	16.51
597.431	16.5
597.624	16.61
597.818	16.42
598.011	16.6
598.204	16.9
598.397	16.97
598.59	17.08
598.783	17.19
598.976	17.42
599.169	17.46
599.362	17.15
599.555	17.47
599.748	17.28
599.941	17.28
600.134	17.27
600.326	16.94
600.519	17.31
600.712	16.99
600.905	16.87
601.098	16.58
601.291	16.68
601.483	17.11
601.676	16.99
601.869	17.16
602.062	17.36
602.255	17.33
602.447	17.32
602.64	17.14
602.833	17.35
603.025	17.49
603.218	17.75
603.411	17.67
603.603	17.6
603.796	17.39
603.989	17.29
604.181	17.16
604.374	17.17
604.566	17.2
604.759	17.22
604.951	17.29
605.144	17.29
605.336	17.29
605.529	17.34
605.721	17.37
605.914	17.7
606.106	17.62
606.299	17.82
606.491	18.01
606.683	17.99
606.876	17.76
607.068	17.61
607.26	17.62
607.453	17.45
607.645	17.4
607.837	17.42
608.03	17.07
608.222	17.31
608.414	17.19
608.606	16.86
608.799	16.98
608.991	17.21
609.183	17.33
609.375	17.22
609.567	17.14
609.759	17.09
609.952	16.95
610.144	17.11
610.336	16.79
610.528	16.73
610.72	16.8
610.912	16.79
611.104	16.6
611.296	16.43
611.488	16.49
611.68	16.53
611.872	16.51
612.064	16.61
612.256	16.68
612.448	16.72
612.64	16.53
612.832	16.21
613.023	16.14
613.215	16.07
613.407	16.3
613.599	16.25
613.791	16.38
613.983	16.53
614.174	16.25
614.366	16.06
614.558	16.36
614.75	16.75
614.941	16.96
615.133	17.15
615.325	17.12
615.516	17.1
615.708	17.11
615.9	16.91
616.091	16.93
616.283	17.48
616.475	17.36
616.666	17.52
616.858	17.18
617.049	17.54
617.241	17.53
617.432	17.74
617.624	17.55
617.815	17.92
618.007	17.93
618.198	17.79
618.39	17.49
618.581	17.46
618.773	17.19
618.964	17.39
619.155	17.3
619.347	17.32
619.538	17.32
619.729	17.52
619.921	17.1
620.112	17.23
620.303	17.39
620.494	17.5
620.686	17.82
620.877	17.88
621.068	17.88
621.259	18.02
621.451	17.91
621.642	18.21
621.833	18.07
622.024	18.33
622.215	18.24
622.406	18.23
622.597	18.26
622.788	18.09
622.98	17.94
623.171	17.88
623.362	17.62
623.553	17.68
623.744	17.44
623.935	17.7
624.126	17.72
624.317	17.62
624.508	17.62
624.698	17.47
624.889	17.39
625.08	17.43
625.271	17.76
625.462	17.79
625.653	17.51
625.844	17.71
626.034	17.53
626.225	17.56
626.416	17.55
626.607	17.56
626.798	17.49
626.988	17.71
627.179	18.15
627.37	18.03
627.56	17.96
627.751	18.02
627.942	18.05
628.132	18.26
628.323	18.14
628.514	18.34
628.704	18.46
628.895	18.69
629.085	18.63
629.276	18.25
629.466	18.3
629.657	18.2
629.847	18.47
630.038	18.34
630.228	18.12
630.419	18.27
630.609	18.34
630.8	18.3
630.99	18.34
631.181	18.44
631.371	18.68
631.561	18.7
631.752	19.26
631.942	19.58
632.132	19.62
632.323	19.85
632.513	19.49
632.703	19.56
632.893	19.66
633.084	19.68
633.274	19.56
633.464	19.71
633.654	19.78
633.844	19.73
634.034	19.52
634.225	19.79
634.415	19.76
634.605	20.08
634.795	19.85
634.985	19.65
635.175	19.6
635.365	19.56
635.555	18.92
635.745	18.97
635.935	18.69
636.125	18.39
636.315	18.23
636.505	18.25
636.695	18.41
636.885	18.72
637.075	18.78
637.265	18.63
637.455	18.73
637.644	19.26
637.834	19.51
638.024	19.43
638.214	19.9
638.404	20.15
638.593	19.95
638.783	19.68
638.973	19.47
639.163	19.59
639.352	19.99
639.542	20
639.732	19.67
639.921	18.87
640.111	19.1
640.301	18.79
640.49	18.32
640.68	18.06
640.87	18.06
641.059	17.93
641.249	17.91
641.438	17.59
641.628	17.63
641.817	18.3
642.007	18.7
642.196	18.26
642.386	18.42
642.575	18.55
642.764	18.76
642.954	18.7
643.143	19.15
643.333	18.94
643.522	19.23
643.711	19.38
643.901	18.89
644.09	18.92
644.279	19.26
644.469	19.52
644.658	19.67
644.847	19.33
645.036	19.23
645.226	19.19
645.415	19.76
645.604	19.35
645.793	19.12
645.982	19.14
646.171	18.92
646.361	19.41
646.55	19.16
646.739	18.93
646.928	19.25
647.117	19.74
647.306	19.68
647.495	19.57
647.684	19.74
647.873	19.9
648.062	20.08
648.251	20.23
648.44	19.84
648.629	19.86
648.818	19.97
649.007	20.15
649.196	19.97
649.384	19.56
649.573	19.71
649.762	19.9
649.951	20.11
650.14	20.62
650.328	20.6
650.517	20.72
650.706	20.64
650.895	20.21
651.083	20.21
651.272	19.76
651.461	19.82
651.65	19.31
651.838	19.2
652.027	18.92
652.216	18.61
652.404	18.5
652.593	18.44
652.781	18.52
652.97	19.01
653.158	19.03
653.347	19.56
653.535	19.73
653.724	20.18
653.912	20.05
654.101	20
654.289	19.58
654.478	19.93
654.666	19.67
654.855	19.34
655.043	18.97
655.231	19.35
655.42	19.32
655.608	19.27
655.796	19.13
655.985	19.13
656.173	18.91
656.361	19.28
656.55	18.9
656.738	18.83
656.926	18.8
657.114	19.16
657.302	18.77
657.491	18.84
657.679	18.79
657.867	18.68
658.055	19.1
658.243	19.28
658.431	19.12
658.619	19.49
658.807	19.6
658.996	19.99
659.184	20.07
659.372	19.98
659.56	19.95
659.748	20.03
659.936	20.08
660.124	19.73
660.311	19.78
660.499	19.75
660.687	19.3
660.875	19.05
661.063	18.79
661.251	19.04
661.439	19.1
661.627	18.89
661.814	19.14
662.002	19.09
662.19	19.28
662.378	19.37
662.565	19.79
662.753	20.36
662.941	20.78
663.129	21.02
663.316	20.46
663.504	20.85
663.692	20.9
663.879	20.85
664.067	20.95
664.254	21
664.442	20.95
664.63	20.82
664.817	20.25
665.005	19.93
665.192	20.08
665.38	19.83
665.567	19.91
665.755	20.05
665.942	19.85
666.13	19.6
666.317	19.43
666.504	19.77
666.692	19.53
666.879	20.15
667.067	20.74
667.254	20.61
667.441	21.3
667.629	20.66
667.816	20.97
668.003	20.74
668.19	20.8
668.378	20.44
668.565	19.79
668.752	19.75
668.939	19.87
669.127	19.87
669.314	19.74
669.501	19.44
669.688	19.87
669.875	19.62
670.062	19.53
670.249	19.49
670.436	19.89
670.623	20.04
670.81	20.31
670.997	19.92
671.184	19.62
671.371	19.1
671.558	18.95
671.745	18.66
671.932	18.42
672.119	19.16
672.306	18.97
672.493	18.67
672.68	19.33
672.867	19.17
673.054	19.15
673.24	19.27
673.427	19.98
673.614	20.36
673.801	20.71
673.988	21.05
674.174	20.52
674.361	20.84
674.548	21.36
674.734	20.7
674.921	20.41
675.108	20.86
675.294	20.59
675.481	20.4
675.668	20.47
675.854	20.17
676.041	20.15
676.227	20.31
676.414	20.61
676.601	20.68
676.787	21.43
676.974	21.33
677.16	20.93
677.347	21.46
677.533	21.45
677.719	20.82
677.906	21
678.092	20.67
678.279	20.81
678.465	20.5
678.651	20.6
678.838	20.19
679.024	20.6
679.21	20.74
679.397	20.82
679.583	20.87
679.769	21.16
679.955	20.95
680.142	21.46
680.328	21.3
680.514	21.3
680.7	20.77
680.886	20.34
681.073	20.66
681.259	20.37
681.445	19.85
681.631	19.86
681.817	19.74
682.003	20.03
682.189	19.95
682.375	20.03
682.561	19.96
682.747	20.08
682.933	20.77
683.119	19.7
683.305	19.77
683.491	20.36
683.677	20.28
683.863	20.66
684.049	20.93
684.235	20.13
684.42	20.01
684.606	20.08
684.792	19.91
684.978	20.13
685.164	20.58
685.349	20.54
685.535	20.51
685.721	20.74
685.907	20.33
686.092	20.01
686.278	20.19
686.464	19.46
686.649	19.47
686.835	19.65
687.021	18.86
687.206	18.78
687.392	18.99
687.577	19.21
687.763	19.58
687.948	19.53
688.134	19.73
688.319	20.25
688.505	21
688.69	21.36
688.876	21.7
689.061	21.82
689.247	22.1
689.432	21.57
689.618	21.09
689.803	20.6
689.988	20.56
690.174	20.28
690.359	20.36
690.544	20.66
690.73	19.92
690.915	19.88
691.1	20.14
691.285	20.65
691.471	20.56
691.656	20.39
691.841	20.64
692.026	21.24
692.211	20.53
692.396	20.14
692.582	19.67
692.767	20.3
692.952	20.13
693.137	19.96
693.322	19.32
693.507	19.83
693.692	19.8
693.877	19.39
694.062	19.14
694.247	19.29
694.432	19.56
694.617	19.69
694.802	19.84
694.987	19.79
695.172	20.11
695.357	20.13
695.541	20.26
695.726	20.64
695.911	20.95
696.096	20.87
696.281	20.89
696.466	20.76
696.65	20.98
696.835	20.59
697.02	20.64
697.204	20.24
697.389	20.15
697.574	20.15
697.759	20.01
697.943	19.63
698.128	19.77
698.312	19.71
698.497	19.55
698.682	20.37
698.866	20.47
699.051	20.44
699.235	20.38
699.42	20.57
699.604	20.73
699.789	20.93
699.973	20.82
700.158	20.76
700.342	21.44
700.527	22
700.711	21.14
700.895	21.45
701.08	21.09
701.264	21.45
701.448	21.4
701.633	21.17
701.817	20.6
702.001	21.54
702.186	21.79
702.37	21.55
702.554	20.97
702.738	20.76
702.923	20.67
703.107	21.28
703.291	20.63
703.475	21.14
703.659	20.95
703.843	22.06
704.027	21.7
704.212	21.42
704.396	21.15
704.58	21.53
704.764	21.79
704.948	21.58
705.132	21.24
705.316	22.1
705.5	21.46
705.684	21.88
705.868	21.86
706.052	21.68
706.235	21.42
706.419	20.98
706.603	21.09
706.787	21.47
706.971	21.31
707.155	21.33
707.339	20.79
707.522	21.22
707.706	21.63
707.89	21.06
708.074	21.51
708.257	21.4
708.441	22.45
708.625	22.5
708.808	22.24
708.992	22.11
709.176	22.54
709.359	22.56
709.543	22.18
709.727	21.11
709.91	20.69
710.094	20.8
710.277	21.13
710.461	20.52
710.644	19.61
710.828	19.39
711.011	19.53
711.195	20.06
711.378	20.32
711.562	20.98
711.745	21.77
711.928	22.2
712.112	21.21
712.295	21.16
712.478	21.41
712.662	22.3
712.845	22.87
713.028	22.51
713.212	21.57
713.395	21.45
713.578	21.49
713.761	21.48
713.945	21.73
714.128	22.61
714.311	22.75
714.494	23.6
714.677	23.72
714.86	23.29
715.043	23.43
715.227	24.22
715.41	24.39
715.593	24.17
715.776	23.89
715.959	23.77
716.142	23.22
716.325	22.61
716.508	21.56
716.691	20.78
716.874	21.09
717.057	21.46
717.239	20.59
717.422	20.89
717.605	20.56
717.788	20.43
717.971	19.91
718.154	20.46
718.337	20.33
718.519	20.88
718.702	20.96
718.885	20.19
719.068	20.48
719.25	20.09
719.433	19.64
719.616	19.82
719.798	20.43
719.981	20.48
720.164	20.22
720.346	21.15
720.529	20.33
720.712	20.97
720.894	21.61
721.077	20.69
721.259	21.75
721.442	21.47
721.624	21.52
721.807	21.77
721.989	21.56
722.172	21.83
722.354	21.17
722.537	22.1
722.719	21.86
722.901	21.92
723.084	22.42
723.266	21.76
723.448	23.17
723.631	23.99
723.813	23.27
723.995	22.73
724.178	22.85
724.36	23.37
724.542	22.92
724.724	22.47
724.907	22.67
725.089	22.63
725.271	23.83
725.453	22.5
725.635	21.72
725.817	21.95
725.999	21.91
726.181	21.38
726.364	20.86
726.546	19.78
726.728	20.4
726.91	20.21
727.092	19.72
727.274	19.07
727.456	19.35
727.638	18.87
727.819	19.09
728.001	20.49
728.183	20.13
728.365	20.76
728.547	22.25
728.729	21.96
728.911	22.16
729.093	22.78
729.274	23.16
729.456	23.3
729.638	22.85
729.82	23.01
730.001	23.06
730.183	23.05
730.365	22.46
730.546	21.44
730.728	21.58
730.91	21.35
731.091	21.02
731.273	20.67
731.455	20.84
731.636	21.21
731.818	20.9
731.999	20.6
732.181	20.99
732.362	22.34
732.544	23.39
732.725	23.7
732.907	23.1
733.088	23.29
733.27	23.61
733.451	24.11
733.633	25
733.814	24.82
733.995	25.03
734.177	25.21
734.358	24.76
734.539	23.75
734.721	23.39
734.902	24.27
735.083	24.95
735.264	25.98
735.446	26.11
735.627	26.34
735.808	27.57
735.989	27
736.17	26.81
736.351	26.78
736.533	27.83
736.714	27.5
736.895	27.54
737.076	27.1
737.257	25.68
737.438	24.81
737.619	24.63
737.8	23.58
737.981	23.38
738.162	24.25
738.343	24.42
738.524	24.28
738.705	24.96
738.886	24.05
739.067	23.05
739.247	22.43
739.428	21.43
739.609	20.19
739.79	20.02
739.971	20.94
740.151	20.35
740.332	20.6
740.513	20.98
740.694	20.44
740.874	21.25
741.055	22.67
741.236	23.03
741.417	24.38
741.597	24.57
741.778	25.12
741.958	24.68
742.139	24.21
742.32	22.91
742.5	21.62
742.681	21.78
742.861	21.56
743.042	20.98
743.222	21.62
743.403	22
743.583	23.28
743.764	23.16
743.944	22.79
744.124	22.64
744.305	23.5
744.485	23.04
744.666	23.69
744.846	23.66
745.026	24.28
745.207	24.29
745.387	23.81
745.567	24.19
745.747	24.67
745.928	25.6
746.108	26.27
746.288	25.85
746.468	26.66
746.648	26.88
746.829	27.54
747.009	27.35
747.189	26.57
747.369	25.78
747.549	24.99
747.729	24.15
747.909	23.83
748.089	23.24
748.269	24.67
748.449	24.63
748.629	23.51
748.809	23.09
748.989	22.28
749.169	22.84
749.349	23.49
749.529	22.9
749.709	22.55
749.889	21.36
750.068	22.25
750.248	21.72
750.428	23.24
750.608	22.97
750.788	23.22
750.967	24.41
751.147	24.09
751.327	24.46
751.507	23.8
751.686	24.11
751.866	24.26
752.046	23.84
752.225	22.65
752.405	21.27
752.585	22.93
752.764	23.36
752.944	21.33
753.123	21.79
753.303	21.73
753.482	22.29
753.662	22.67
753.841	23.02
754.021	23.49
754.2	24.67
754.38	24.3
754.559	22.51
754.739	20.98
754.918	22.17
755.097	22.65
755.277	21.53
755.456	22.37
755.635	22.26
755.815	22.37
755.994	21.64
756.173	21.02
756.352	20.69
756.532	20.36
756.711	21.18
756.89	20.75
757.069	20.22
757.248	21.45
757.427	22.52
757.607	23.56
757.786	24.4
757.965	24.83
758.144	24.51
758.323	25.78
758.502	26.72
758.681	26.83
758.86	27.51
759.039	26.25
759.218	26.19
759.397	24.85
759.576	24.18
759.755	24.57
759.934	24.74
760.113	24.29
760.291	23.26
760.47	24.03
760.649	23.15
760.828	23.59
761.007	25
761.186	24.48
761.364	24.24
761.543	24.5
761.722	23.84
761.901	23.29
762.079	24.11
762.258	24.43
762.437	24.63
762.615	25
762.794	24.19
762.972	23.76
763.151	24.26
763.33	23.93
763.508	23.74
763.687	23.26
763.865	23.98
764.044	24.17
764.222	24.17
764.401	23.79
764.579	23.05
764.758	23.15
764.936	23.3
765.114	23.56
765.293	23.67
765.471	22.01
765.65	22.49
765.828	22.04
766.006	22.24
766.184	22.16
766.363	21.45
766.541	22.72
766.719	23.54
766.898	24.25
767.076	22.95
767.254	24.34
767.432	26.94
767.61	26.94
767.788	26.61
767.967	25.55
768.145	27.04
768.323	27.29
768.501	27.29
768.679	26.38
768.857	25.92
769.035	26.28
769.213	25.69
769.391	24.56
769.569	23.46
769.747	22.56
769.925	22.55
770.103	22
770.281	23.44
770.459	21.68
770.636	22.42
770.814	20.64
770.992	22.2
771.17	21.81
771.348	22.47
771.525	23.94
771.703	25.17
771.881	25.99
772.059	25.33
772.236	26.17
772.414	28.37
772.592	28.62
772.769	30.45
772.947	30.26
773.125	31.05
773.302	32.94
773.48	33.95
773.657	33.54
773.835	33.92
774.013	34.42
774.19	33.61
774.368	33.83
774.545	31.88
774.723	33.18
774.9	32
775.077	31.69
775.255	30.02
775.432	28.05
775.61	27.69
775.787	26.35
775.964	25.24
776.142	24.95
776.319	25.02
776.496	24.85
776.674	22.76
776.851	24.5
777.028	22.42
777.205	20.81
777.382	21.23
777.56	20.94
777.737	24.44
777.914	25.36
778.091	22.5
778.268	21.8
778.445	22.82
778.622	23.94
778.8	23.25
778.977	25.32
779.154	27.32
779.331	29.14
779.508	30.58
779.685	26.61
779.862	25.72
780.038	28.72
780.215	28.1
780.392	28.89
780.569	29.39
780.746	28.35
780.923	28.59
781.1	27.83
781.277	26.89
781.453	26.48
781.63	27.02
781.807	28.26
781.984	27.67
782.16	28.56
782.337	29.4
782.514	26.54
782.691	27.05
782.867	28.34
783.044	29.15
783.221	28.87
783.397	31.12
783.574	36.02
783.75	36.87
783.927	38.87
784.103	39.58
784.28	38.52
784.456	40.9
784.633	41.15
784.809	39.24
784.986	39.62
785.162	40.84
785.339	39.54
785.515	34.79
785.692	34.64
785.868	34.09
786.044	32.31
786.221	33.65
786.397	31.08
786.573	29.71
786.749	27.05
786.926	26.53
787.102	25.6
787.278	23.8
787.454	23.81
787.631	20.69
787.807	20.69
787.983	21.3
788.159	17.31
788.335	19.14
788.511	17.62
788.687	20.36
788.863	23.39
789.039	23.79
789.216	25.03
789.392	24.11
789.568	26.12
789.744	26.06
789.919	24.42
790.095	26.54
790.271	26.63
790.447	29.07
790.623	28.52
790.799	25
790.975	23.47
791.151	25.27
791.327	27.88
791.502	26.82
791.678	24.99
791.854	28.1
792.03	28.58
792.205	31.14
792.381	34.72
792.557	34.12
792.733	31.65
792.908	29.42
793.084	30.65
793.259	29.19
793.435	30.29
793.611	29.82
793.786	30.51
793.962	30.35
794.137	27.44
794.313	24.12
794.488	25.46
794.664	26.46
794.839	30.56
795.015	27.29
795.19	28.59
795.366	27.23
795.541	28.62
795.716	28.05
795.892	29.14
796.067	28.19
796.242	25.5
796.418	23.95
796.593	25.07
796.768	23.85
796.944	23.57
797.119	23.09
797.294	22.07
797.469	21.32
797.644	20.32
797.82	18.78
797.995	20.39
798.17	21.55
798.345	22.7
798.52	21.81
798.695	20.88
798.87	20.14
799.045	20.07
799.22	22.97
799.395	24.63
799.57	24.55
799.745	25.38
799.92	27.24
800.095	29.33
800.27	29.12
800.445	30.92
800.62	30.74
800.795	32.04
800.97	29.94
801.145	30.91
801.319	29.66
801.494	32.15
801.669	32.41
801.844	30.79
802.018	27.87
802.193	29.77
802.368	26.59
802.543	27.17
802.717	26.14
802.892	29.34
803.067	27.68
803.241	26.51
803.416	23.6
803.59	24.14
803.765	22.37
803.94	25.51
804.114	26.32
804.289	29.15
804.463	28.85
804.638	29.35
804.812	25.49
804.986	23.9
805.161	22.94
805.335	26.4
805.51	25.56
805.684	24.99
805.858	24.17
806.033	21.25
806.207	23.76
806.381	27.12
806.556	25.4
806.73	27.22
806.904	26.91
807.078	26.53
807.253	25.52
807.427	23.81
807.601	26.25
807.775	26.03
807.949	26.58
808.123	22.11
808.298	21.36
808.472	22.48
808.646	23.25
808.82	23.63
808.994	27.64
809.168	27.17
809.342	28.67
809.516	26.97
809.69	27.09
809.864	25.83
810.038	26.58
810.212	25.12
810.385	25.31
810.559	26.61
810.733	25.73
810.907	22.43
811.081	20.78
811.255	20.18
811.428	21.88
811.602	22.19
811.776	22.11
811.95	23.91
812.123	24.9
812.297	26.88
812.471	25.67
812.644	31.1
812.818	34.16
812.992	35.79
813.165	35.41
813.339	36.69
813.512	32.18
813.686	32.5
813.86	32.28
814.033	33.51
814.207	30.65
814.38	31.43
814.554	29.03
814.727	25.13
814.9	28.14
815.074	32.61
815.247	30.01
815.421	30.32
815.594	32.56
815.767	33.75
815.941	29.51
816.114	29.78
816.287	30.75
816.46	30.25
816.634	30.66
816.807	27.84
816.98	21.99
817.153	23.99
817.327	33.42
817.5	35.94
817.673	34.41
817.846	35.79
818.019	36.4
818.192	32.99
818.365	31.32
818.538	29.07
818.711	31.71
818.884	28.87
819.057	27.13
819.23	21.79
819.403	22.58
819.576	24.3
819.749	25.75
819.922	28.82
820.095	31.1
820.268	32.15
820.441	34.18
820.614	30.33
820.786	34.01
820.959	33.63
821.132	32.56
821.305	28.87
821.477	28.87
821.65	27.33
821.823	26.05
821.996	24.96
822.168	23.55
822.341	22.92
822.514	23.7
822.686	23.08
822.859	23.1
823.031	22.87
823.204	23.8
823.376	23.26
823.549	23.89
823.722	23.67
823.894	24.06
824.067	25.45
824.239	25.9
824.411	26.18
824.584	27.01
824.756	27.19
824.929	27.93
825.101	27.64
825.273	28.11
825.446	27.31
825.618	28.28
825.79	28.91
825.963	29.16
826.135	28.98
826.307	28.65
826.479	28.5
826.652	28.43
826.824	29.31
826.996	27.51
827.168	26.81
827.34	27.05
827.512	26.93
827.684	25.61
827.856	23.91
828.029	24.46
828.201	22.52
828.373	22.52
828.545	22.95
828.717	21.6
828.889	22.25
829.061	23.79
829.232	23.55
829.404	23.29
829.576	24.97
829.748	27.23
829.92	26.46
830.092	29.84
830.264	31.64
830.436	32.08
830.607	33.66
830.779	35.34
830.951	33
831.123	33.54
831.294	32.29
831.466	30.84
831.638	31.18
831.809	31.73
831.981	30.93
832.153	25.21
832.324	23.89
832.496	22.9
832.667	25.53
832.839	23.47
833.011	24.62
833.182	27.48
833.354	26.91
833.525	25.14
833.697	25.53
833.868	24.55
834.039	27.73
834.211	27.67
834.382	27.45
834.554	26.62
834.725	29.65
834.896	29.58
835.068	29.78
835.239	32.4
835.41	31.58
835.581	32.67
835.753	34.42
835.924	32.97
836.095	32.33
836.266	33.32
836.438	36.75
836.609	38.45
836.78	39.49
836.951	38.23
837.122	35.33
837.293	36.72
837.464	35.67
837.635	37.42
837.806	35.65
837.977	38.59
838.148	38.68
838.319	40.66
838.49	38.86
838.661	39.18
838.832	38.5
839.003	38.18
839.174	44.85
839.345	42.14
839.516	38.38
839.687	43.94
839.857	42.84
840.028	47.32
840.199	43.49
840.37	37.68
840.54	33.57
840.711	34.92
840.882	35.47
841.053	34.16
841.223	36.43
841.394	36.69
841.564	34.05
841.735	34.13
841.906	33.83
842.076	32.81
842.247	40.19
842.417	40.42
842.588	45.52
842.758	51.93
842.929	51.32
843.099	51.6
843.27	47.87
843.44	54.4
843.611	55.07
843.781	52.17
843.951	52.96
844.122	52
844.292	48.44
844.462	47.54
844.633	45.14
844.803	30.15
844.973	37.55
845.144	55.62
845.314	55.25
845.484	52.17
845.654	49.43
845.824	54.57
845.995	47.82
846.165	62.33
846.335	58.13
846.505	57.54
846.675	67.67
846.845	74.22
847.015	51.37
847.185	43.2
847.355	52.5
847.525	44.75
847.695	36.91
847.865	35.02
848.035	33.14
848.205	29.2
848.375	26.97
848.545	32.49
848.715	20.99
848.884	19.36
849.054	25.38
849.224	14.99
849.394	28.87
849.564	29.89
849.733	27.23
849.903	16.83
850.073	4.87
850.243	17.14
850.412	-4.25
850.582	-6.92
850.752	2.34
850.921	-11.67
851.091	1.71
851.26	-5.41
851.43	5.08
851.599	13.98
851.769	44.63
851.939	65.48
852.108	71.84
852.278	87.41
852.447	91.18
852.616	83.01
852.786	89.4
852.955	85.43
853.125	81.8
853.294	70.53
853.463	69.87
853.633	50.09
853.802	45.04
853.971	37.99
854.141	31.67
854.31	34.49
854.479	38.59
854.648	40.94
854.818	37.27
854.987	44.62
855.156	56.44
855.325	62.12
855.494	66.82
855.663	65.52
855.832	61.08
856.001	63.28
856.171	63.41
856.34	61.37
856.509	50.5
856.678	55.26
856.847	57.11
857.016	52.44
857.185	50.42
857.353	41.37
857.522	44.17
857.691	51.72
857.86	43.89
858.029	38.1
858.198	69.49
858.367	80.56
858.535	86.02
858.704	79.27
858.873	75.31
859.042	66.22
859.21	103.99
859.379	75.47
859.548	64.37
859.717	78.41
859.885	90.35
860.054	59.58
860.222	69.15
860.391	57.48
860.56	67.43
860.728	66.79
860.897	77.95
861.065	60.19
861.234	62.78
861.402	62.65
861.571	60.15
861.739	66.92
861.908	67.64
862.076	55.7
862.244	56.87
862.413	45.4
862.581	46.71
862.749	42.58
862.918	46.49
863.086	41.26
863.254	33.22
863.423	29.69
863.591	27.51
863.759	33.81
863.927	34.57
864.096	35.58
864.264	49.26
864.432	42.33
864.6	55.57
864.768	64.81
864.936	81.18
865.104	92.19
865.272	94.45
865.44	100.45
865.608	91.6
865.776	78.65
865.944	97.05
866.112	108.06
866.28	108.54
866.448	87.46
866.616	98.11
866.784	82.21
866.952	83.93
867.12	76.87
867.288	47.27
867.455	33.33
867.623	32.15
867.791	19.46
867.959	18.14
868.127	32.75
868.294	58.75
868.462	50.51
868.63	59.15
868.797	51.94
868.965	75.33
869.133	101.2
869.3	112.99
869.468	151.08
869.636	135.68
869.803	115.82
869.971	117.33
870.138	107.01
870.306	92.82
870.473	80.04
870.641	83.41
870.808	62.81
870.975	74.35
871.143	73.65
871.31	66.53
871.478	80.33
871.645	61.53
871.812	44.8
871.98	37.89
872.147	42.45
872.314	59.54
872.482	67.32
872.649	81.23
872.816	72.93
872.983	69.7
873.15	79.38
873.318	74.31
873.485	107.6
873.652	152.69
873.819	121.5
873.986	115.48
874.153	88.57
874.32	79.52
874.487	81.22
874.654	81.45
874.821	79.68
874.988	56.93
875.155	55.07
875.322	39.75
875.489	40.45
875.656	48.46
875.823	33.05
875.99	18.52
876.157	9.08
876.324	-14.98
876.49	-28.76
876.657	-25.41
876.824	-14.44
876.991	-16.33
877.157	-6.69
877.324	-12.78
877.491	-25
877.658	11.01
877.824	42.65
877.991	47.62
878.157	61.47
878.324	79
878.491	100.35
878.657	82.55
878.824	73.02
878.99	88.78
879.157	75.98
879.323	71.3
879.49	59.47
879.656	52.81
879.823	44.87
879.989	48.14
880.156	55.66
880.322	77.26
880.488	85.53
880.655	88.85
880.821	79.82
880.987	87.18
881.154	74.64
881.32	66.57
881.486	59.4
881.652	59.72
881.819	52.64
881.985	46.56
882.151	36.89
882.317	35.29
882.483	34.31
882.649	29.24
882.816	24.07
882.982	28.38
883.148	28.79
883.314	30.73
883.48	29.76
883.646	28.65
883.812	28.39
883.978	31.27
884.144	33.74
884.31	32.29
884.476	36.76
884.642	38.24
884.807	36.47
884.973	36.83
885.139	35.42
885.305	33.61
885.471	34.09
885.637	33.21
885.802	34.22
885.968	32.03
886.134	29.42
886.3	25.72
886.465	22.61
886.631	22.66
886.797	22.96
886.962	20.54
887.128	29.02
887.293	26.62
887.459	29.44
887.625	29.03
887.79	28.79
887.956	41.54
888.121	44.58
888.287	49.78
888.452	48.89
888.618	49.78
888.783	58.74
