Data from 2938093_Reflection_1.txt Node
Date: Sat Jul 11 19:11:15 EDT 2015
User: robert
Spectrometer: USB4E03001
Autoset integration time: false
Trigger mode: 4
Integration Time (sec): 1.000000E-1
Scans to average: 10
Electric dark correction enabled: true
Nonlinearity correction enabled: false
Boxcar width: 5
Stray light correction enabled: false
XAxis mode: Wavelengths
Stop averaging: false
Number of Pixels in Spectrum: 3648
>>>>>Begin Spectral Data<<<<<
177.566	11.94
177.785	0.66
178.005	-23.04
178.225	19.03
178.445	-40.87
178.665	252.07
178.885	-122.37
179.105	-238.46
179.324	776.07
179.544	-124.06
179.764	-155.61
179.984	-57.67
180.204	-53.9
180.423	-306.54
180.643	394.14
180.863	177.06
181.083	71.67
181.302	41.79
181.522	110.72
181.742	-67.52
181.961	-7.65
182.181	52.88
182.401	-319.1
182.621	152.06
182.84	-197.24
183.06	-203.85
183.279	323.97
183.499	234.56
183.719	145.83
183.938	73.86
184.158	44.64
184.377	44.05
184.597	42.94
184.816	17.15
185.036	23.58
185.256	15.05
185.475	29.48
185.695	35.51
185.914	37.55
186.134	51.23
186.353	70.33
186.572	98.44
186.792	88.97
187.011	82.72
187.231	91.57
187.45	84.33
187.67	107.84
187.889	87.32
188.108	94.51
188.328	75.55
188.547	65.54
188.766	50.59
188.986	56.28
189.205	51.86
189.424	55.87
189.644	49.7
189.863	41.09
190.082	25.29
190.302	34.19
190.521	18.45
190.74	74.45
190.959	50.06
191.178	1996.45
191.398	4521.98
191.617	1358.15
191.836	1095.7
192.055	217.22
192.274	734.51
192.494	465.34
192.713	348.06
192.932	342.25
193.151	376.04
193.37	328.95
193.589	327.45
193.808	412.21
194.027	1960.31
194.246	2673.56
194.465	-9731.73
194.685	400.28
194.904	435.11
195.123	221.45
195.342	406.51
195.561	57.4
195.78	90.76
195.999	88.48
196.218	3.41
196.436	12.8
196.655	18.82
196.874	46.42
197.093	58.85
197.312	55.44
197.531	64.47
197.75	79.41
197.969	97.74
198.188	85.21
198.407	86.62
198.625	72.19
198.844	75.46
199.063	75.88
199.282	93.14
199.501	70.16
199.719	75.19
199.938	89.98
200.157	44.79
200.376	48.86
200.594	35.95
200.813	32.84
201.032	47.6
201.251	32.95
201.469	2.37
201.688	-62.08
201.907	-56.16
202.125	72.27
202.344	43.18
202.563	142.95
202.781	29.48
203	141.86
203.218	-27.98
203.437	-79.49
203.656	-302.48
203.874	-811.19
204.093	-96.49
204.311	-267.51
204.53	7449.23
204.748	-2097.76
204.967	-348.16
205.185	-1009.85
205.404	-624.33
205.622	-48.92
205.841	26.52
206.059	10.02
206.278	31.57
206.496	68.64
206.715	87.42
206.933	88.34
207.151	99.63
207.37	169.89
207.588	128.55
207.806	167.93
208.025	188.95
208.243	-248.72
208.461	405.13
208.68	301.83
208.898	346.78
209.116	352.42
209.335	-489.12
209.553	586.86
209.771	133.4
209.989	283.82
210.208	263.57
210.426	-1597.29
210.644	820.33
210.862	1013.36
211.081	-312.16
211.299	9717.95
211.517	-655.96
211.735	255.53
211.953	103.98
212.171	92.93
212.39	40.63
212.608	40.63
212.826	61.38
213.044	53.22
213.262	55.98
213.48	54.05
213.698	58.4
213.916	72.61
214.134	116.1
214.352	129.71
214.57	175.41
214.788	220.03
215.006	175.77
215.224	193.35
215.442	256.51
215.66	181.13
215.878	223.17
216.096	147.97
216.314	155.94
216.532	96.73
216.75	82.12
216.968	85.39
217.185	70.78
217.403	84.18
217.621	79.02
217.839	106.7
218.057	112.47
218.275	87.6
218.492	80.56
218.71	72.79
218.928	93.13
219.146	116.67
219.363	98
219.581	98.76
219.799	120.04
220.017	115.68
220.234	45.92
220.452	72.86
220.67	112.54
220.887	169.16
221.105	95.55
221.323	71.49
221.54	49.79
221.758	58.66
221.976	62.37
222.193	65.31
222.411	64.08
222.629	74.53
222.846	71.92
223.064	54.98
223.281	64.39
223.499	65.94
223.716	56.62
223.934	65.62
224.151	70.94
224.369	43.07
224.586	41.99
224.804	35.46
225.021	60.1
225.239	48.18
225.456	68.44
225.674	53.97
225.891	52.07
226.108	77.19
226.326	52.33
226.543	20.64
226.76	37.38
226.978	31.48
227.195	39.91
227.413	27.28
227.63	28.31
227.847	21.73
228.064	20.85
228.282	21.63
228.499	19.01
228.716	23.31
228.934	26.87
229.151	23.55
229.368	18.87
229.585	14.88
229.802	16.98
230.02	18.05
230.237	18.2
230.454	16.89
230.671	16.07
230.888	18.81
231.105	14.64
231.323	14.63
231.54	17.32
231.757	27.02
231.974	28.7
232.191	20.6
232.408	22.08
232.625	25.97
232.842	28.25
233.059	28.13
233.276	26.33
233.493	34.24
233.71	33.85
233.927	35.17
234.144	32.74
234.361	34.17
234.578	39.54
234.795	35.62
235.012	33.7
235.229	36.59
235.446	35.71
235.663	30.15
235.879	26.99
236.096	28.4
236.313	25.14
236.53	21.06
236.747	23.38
236.964	24.47
237.181	25.52
237.397	32.33
237.614	28.87
237.831	30.18
238.048	32.73
238.264	38.23
238.481	41.52
238.698	44.14
238.915	43.05
239.131	41.23
239.348	40.76
239.565	38.21
239.781	30.42
239.998	28.4
240.215	25.66
240.431	28.07
240.648	23.21
240.865	18.38
241.081	15.36
241.298	13.52
241.514	13.68
241.731	12.94
241.947	14.83
242.164	15.19
242.38	14.62
242.597	14.97
242.814	13.67
243.03	14.91
243.246	16.31
243.463	16.86
243.679	17.17
243.896	17.54
244.112	19.75
244.329	19.14
244.545	19.56
244.762	21.79
244.978	20.75
245.194	21.55
245.411	19.45
245.627	15.62
245.843	15.26
246.06	15.52
246.276	14.63
246.492	12.49
246.709	11.6
246.925	11.31
247.141	11.38
247.357	12.2
247.574	12.16
247.79	12.53
248.006	12.57
248.222	13
248.439	12.06
248.655	11.87
248.871	12.04
249.087	12.3
249.303	12.01
249.519	11.33
249.736	9.59
249.952	7.4
250.168	5.46
250.384	6.76
250.6	4.24
250.816	5.38
251.032	5.95
251.248	6.13
251.464	8.24
251.68	9.54
251.896	9.38
252.112	11.3
252.328	12.55
252.544	11.55
252.76	11.64
252.976	12.86
253.192	13.61
253.408	11.76
253.624	12.51
253.84	10.52
254.056	10.82
254.272	11.58
254.487	10.69
254.703	12.66
254.919	14.33
255.135	15.43
255.351	15.42
255.567	12
255.782	14.39
255.998	12.39
256.214	12.55
256.43	10.41
256.646	8.92
256.861	11.87
257.077	9.39
257.293	11.48
257.508	12.21
257.724	14.04
257.94	17.09
258.155	16.91
258.371	16.03
258.587	15.84
258.802	16.24
259.018	15.76
259.234	14.48
259.449	14.06
259.665	12.99
259.88	11.33
260.096	10.67
260.312	9.95
260.527	9.74
260.743	10.56
260.958	11.06
261.174	9.88
261.389	9.46
261.605	9.39
261.82	9.58
262.036	9.94
262.251	10.1
262.466	9.33
262.682	9.64
262.897	9.64
263.113	8.17
263.328	6.46
263.543	7.81
263.759	10.22
263.974	10.81
264.189	11.76
264.405	11.99
264.62	14.89
264.835	17.91
265.051	17.58
265.266	17.02
265.481	18
265.696	17.56
265.912	19.89
266.127	16.13
266.342	15.35
266.557	13.4
266.773	12.99
266.988	11.14
267.203	9.58
267.418	9.06
267.633	7.5
267.848	8.03
268.064	6.48
268.279	4.23
268.494	5.55
268.709	5.17
268.924	6.11
269.139	5.03
269.354	6.11
269.569	6.91
269.784	6.42
269.999	9.24
270.214	8.3
270.429	9.56
270.644	9.66
270.859	9.7
271.074	10.91
271.289	10.86
271.504	12.04
271.719	12.08
271.934	12.28
272.149	13.45
272.363	13.52
272.578	13.6
272.793	13.35
273.008	14.79
273.223	13.75
273.438	12.99
273.653	12
273.867	12.87
274.082	12.9
274.297	13.21
274.512	11.69
274.726	10.98
274.941	10.64
275.156	11.26
275.371	8.84
275.585	9.57
275.8	7.53
276.015	9.14
276.229	6.48
276.444	6.89
276.659	6.03
276.873	8.57
277.088	8.88
277.302	10.01
277.517	10.06
277.732	12.23
277.946	14.27
278.161	16.14
278.375	16.03
278.59	19.3
278.804	18.77
279.019	20.61
279.233	20.13
279.448	19.24
279.662	17.53
279.877	17.22
280.091	16.24
280.306	14.64
280.52	15.68
280.735	16.52
280.949	15.95
281.163	16.75
281.378	14.73
281.592	14.54
281.806	15.96
282.021	17.31
282.235	18.1
282.449	18.98
282.664	19.6
282.878	20.08
283.092	18.07
283.307	16.7
283.521	16.13
283.735	16.06
283.949	14.85
284.164	14.29
284.378	13.49
284.592	11.97
284.806	10.96
285.02	10.85
285.234	9.54
285.449	10.32
285.663	9.7
285.877	9.32
286.091	9.89
286.305	10.82
286.519	9.49
286.733	10.57
286.947	11.74
287.161	11.32
287.375	10.12
287.589	11.38
287.803	10.52
288.017	11.75
288.231	13.64
288.445	12.39
288.659	12.9
288.873	13.92
289.087	12.62
289.301	11.92
289.515	12.83
289.729	13.66
289.943	11.01
290.157	11.5
290.371	9.8
290.584	8.76
290.798	9.68
291.012	9.8
291.226	10.11
291.44	9.37
291.654	10.99
291.867	10.2
292.081	11.78
292.295	12.32
292.509	12.07
292.722	13.3
292.936	13.92
293.15	14.97
293.364	11.92
293.577	11.11
293.791	12.54
294.005	11.66
294.218	11.81
294.432	10.15
294.645	11.97
294.859	12.35
295.073	13.62
295.286	11.63
295.5	10.95
295.713	12.74
295.927	13.55
296.14	13.75
296.354	14
296.568	15.02
296.781	15.17
296.994	14.9
297.208	14.76
297.421	14.52
297.635	14.9
297.848	14.03
298.062	13.85
298.275	13.43
298.489	13.26
298.702	12.7
298.915	11.53
299.129	11.54
299.342	11.6
299.555	12.89
299.769	12.31
299.982	12.11
300.195	12.95
300.409	12.92
300.622	10.96
300.835	12.59
301.048	13.31
301.262	12.73
301.475	12.24
301.688	11.18
301.901	8.14
302.115	8.92
302.328	10.52
302.541	9.76
302.754	10.5
302.967	14.33
303.18	12.77
303.393	12.58
303.607	15.83
303.82	16.96
304.033	17.46
304.246	20.51
304.459	18.07
304.672	16.53
304.885	18.65
305.098	19.47
305.311	18.77
305.524	18.38
305.737	17.78
305.95	17.39
306.163	16.71
306.376	16.36
306.589	14.46
306.802	16.06
307.015	16.9
307.228	14.97
307.44	14.02
307.653	12.88
307.866	15.56
308.079	15.21
308.292	13.66
308.505	13.22
308.718	13.79
308.93	13.49
309.143	13.71
309.356	14.8
309.569	15.74
309.781	17.23
309.994	18.07
310.207	16.36
310.42	17.51
310.632	18.65
310.845	19.23
311.058	20.26
311.27	21.51
311.483	20.76
311.696	20.87
311.908	20.58
312.121	19.36
312.333	19.1
312.546	19.74
312.759	20.02
312.971	19.79
313.184	19.75
313.396	18.74
313.609	17.79
313.821	21.11
314.034	20.78
314.246	22.49
314.459	22.51
314.671	23.98
314.884	23.54
315.096	22.6
315.309	21.75
315.521	20.45
315.733	20.02
315.946	20.18
316.158	18.42
316.371	19.38
316.583	17.64
316.795	18.28
317.008	17.12
317.22	18.57
317.432	17
317.644	17.07
317.857	20.37
318.069	21.14
318.281	21.7
318.494	20.06
318.706	19.64
318.918	18.81
319.13	17.93
319.342	18.24
319.555	17.9
319.767	18.83
319.979	18.52
320.191	18.06
320.403	18.83
320.615	17.78
320.827	19.55
321.039	18.21
321.252	18.45
321.464	18.15
321.676	17.82
321.888	18.13
322.1	18.19
322.312	19.81
322.524	18.3
322.736	17.58
322.948	18.35
323.16	16.45
323.372	17.04
323.584	17.56
323.796	17.71
324.007	17.48
324.219	15.53
324.431	17.63
324.643	17.29
324.855	17.43
325.067	17.25
325.279	18.45
325.491	19.47
325.702	17.71
325.914	18.63
326.126	19.53
326.338	18.37
326.55	18.22
326.761	16.82
326.973	15.77
327.185	15.33
327.396	14.86
327.608	12.67
327.82	11.33
328.032	11.46
328.243	9.73
328.455	9.53
328.666	11.49
328.878	12.76
329.09	12.1
329.301	13.44
329.513	14.06
329.725	14.48
329.936	15.46
330.148	18.71
330.359	20.53
330.571	21.53
330.782	21.21
330.994	20.48
331.205	20.24
331.417	20.19
331.628	18.98
331.84	20.06
332.051	20.8
332.262	21.82
332.474	19.94
332.685	19.01
332.897	18.42
333.108	19.47
333.319	19.21
333.531	18.59
333.742	18.91
333.953	19.7
334.165	19.16
334.376	19.09
334.587	17.51
334.799	18.17
335.01	19
335.221	19.37
335.432	18.35
335.644	19.19
335.855	20.25
336.066	20.69
336.277	19.69
336.488	20.39
336.7	20.04
336.911	20.67
337.122	19.11
337.333	19.97
337.544	18.76
337.755	18.62
337.966	17.72
338.177	16.75
338.388	16.09
338.599	17.27
338.811	16.53
339.022	16.12
339.233	16.81
339.444	18.84
339.655	18.27
339.866	17.3
340.076	16.23
340.287	16.96
340.498	17.77
340.709	18.86
340.92	18.06
341.131	17.6
341.342	17.62
341.553	16.92
341.764	16.24
341.975	16.53
342.185	18.15
342.396	19.84
342.607	18.97
342.818	18.46
343.029	18.17
343.239	18.52
343.45	18.93
343.661	18.89
343.872	18.65
344.082	18.86
344.293	17.36
344.504	17.59
344.714	16.4
344.925	16.86
345.136	16.78
345.346	15.58
345.557	14.82
345.768	14.53
345.978	14.65
346.189	14.68
346.399	13.57
346.61	13.92
346.821	13.92
347.031	13.5
347.242	13.32
347.452	13.46
347.663	12.81
347.873	13.75
348.084	13.42
348.294	13.53
348.504	13.55
348.715	15.89
348.925	14.7
349.136	14.67
349.346	15.12
349.557	14.93
349.767	15.94
349.977	16.28
350.188	15.59
350.398	16.41
350.608	16
350.819	16.02
351.029	13.83
351.239	14.89
351.449	14.83
351.66	15.63
351.87	16.56
352.08	15.07
352.29	15.87
352.501	15.12
352.711	15.69
352.921	16.78
353.131	17.21
353.341	16.99
353.552	16.83
353.762	16.94
353.972	16.4
354.182	15.86
354.392	16.74
354.602	16.99
354.812	17.31
355.022	16.41
355.232	15.6
355.442	15.34
355.652	15.16
355.862	14.83
356.072	14.83
356.282	15.47
356.492	16.33
356.702	15.81
356.912	15.17
357.122	15.54
357.332	14.97
357.542	15.78
357.752	15.38
357.962	15.65
358.171	16.22
358.381	15.92
358.591	15.23
358.801	13.98
359.011	13.34
359.221	12.7
359.43	12.7
359.64	12.07
359.85	11.76
360.06	11.76
360.269	11.17
360.479	10.66
360.689	9.76
360.899	9.83
361.108	9.53
361.318	10.31
361.528	11.07
361.737	10.33
361.947	10.51
362.156	10.21
362.366	10.5
362.576	10.79
362.785	10.84
362.995	12.08
363.204	12.17
363.414	12.99
363.623	12.17
363.833	12.36
364.042	12.26
364.252	12.67
364.461	13.2
364.671	12.35
364.88	13.19
365.09	12.6
365.299	12.45
365.509	12.44
365.718	11.63
365.927	11.85
366.137	11.8
366.346	11.98
366.555	12.37
366.765	11.21
366.974	11.27
367.183	10.07
367.393	11.26
367.602	10.83
367.811	11.4
368.021	11.29
368.23	11.84
368.439	11.63
368.648	12.93
368.857	12.88
369.067	12.88
369.276	13.65
369.485	13.66
369.694	13.34
369.903	12.72
370.112	11.68
370.321	12.37
370.531	11.51
370.74	11.42
370.949	10.11
371.158	9.56
371.367	9.15
371.576	9.08
371.785	9.94
371.994	9.89
372.203	10.97
372.412	11.35
372.621	10.81
372.83	11.43
373.039	11.21
373.248	11.9
373.457	11.85
373.666	12.64
373.874	12.41
374.083	12.52
374.292	13.18
374.501	12.91
374.71	12.25
374.919	12.22
375.128	12.79
375.336	13.33
375.545	13.43
375.754	13.6
375.963	13.42
376.171	13.26
376.38	12.37
376.589	11.45
376.798	10.76
377.006	11.23
377.215	11.47
377.424	10.82
377.632	10.32
377.841	10.16
378.05	10.08
378.258	10.02
378.467	10
378.675	10
378.884	10.01
379.093	9.54
379.301	9.37
379.51	9.35
379.718	9.36
379.927	8.72
380.135	8.07
380.344	7.35
380.552	7.07
380.761	6.82
380.969	6.23
381.177	6.21
381.386	7.97
381.594	7.68
381.803	7.66
382.011	7.25
382.219	7.95
382.428	8.26
382.636	8.98
382.845	8.83
383.053	8.48
383.261	8.31
383.469	8.17
383.678	6.8
383.886	6.62
384.094	5.54
384.302	5.94
384.511	5.67
384.719	5.68
384.927	5.61
385.135	5.91
385.343	6.08
385.552	6.3
385.76	6.39
385.968	6.79
386.176	6.58
386.384	7.04
386.592	6.4
386.8	6.33
387.008	6.18
387.216	5.93
387.424	5.64
387.633	5.8
387.841	5.87
388.049	5.94
388.257	5.57
388.465	6.04
388.672	6.06
388.88	6.31
389.088	6.3
389.296	5.94
389.504	6.06
389.712	6.17
389.92	5.95
390.128	6.01
390.336	5.87
390.544	5.88
390.751	5.94
390.959	6.39
391.167	6.15
391.375	6.32
391.583	6.32
391.79	6.38
391.998	6.28
392.206	6.05
392.414	6.07
392.621	6.03
392.829	5.86
393.037	5.71
393.244	5.21
393.452	5.16
393.66	5.13
393.867	5.46
394.075	5.06
394.283	5.13
394.49	5.29
394.698	5.17
394.905	4.92
395.113	5.12
395.32	5.16
395.528	5.19
395.735	5.42
395.943	5.16
396.15	5
396.358	4.92
396.565	4.88
396.773	5.06
396.98	5.35
397.188	5.45
397.395	5.12
397.602	4.99
397.81	5.25
398.017	5.21
398.225	5.17
398.432	5.17
398.639	5.41
398.847	5.68
399.054	5.35
399.261	5.3
399.468	5.4
399.676	5.25
399.883	4.95
400.09	4.61
400.297	4.43
400.505	4.54
400.712	4.53
400.919	4.86
401.126	4.57
401.333	4.53
401.54	4.13
401.748	4.11
401.955	4.31
402.162	4.53
402.369	4.67
402.576	4.53
402.783	4.45
402.99	4.24
403.197	3.92
403.404	3.78
403.611	4.16
403.818	4.56
404.025	4.47
404.232	4.85
404.439	5.07
404.646	4.75
404.853	5.08
405.06	5.12
405.267	4.96
405.474	4.94
405.681	5.11
405.887	4.76
406.094	4.61
406.301	4.87
406.508	4.8
406.715	4.52
406.922	4.54
407.128	4.34
407.335	4.28
407.542	4.67
407.749	5.07
407.955	4.85
408.162	5.15
408.369	5.09
408.575	4.84
408.782	4.55
408.989	4.39
409.195	4.73
409.402	4.71
409.609	4.8
409.815	4.77
410.022	4.27
410.228	4.57
410.435	4.5
410.642	4.67
410.848	4.76
411.055	5.02
411.261	5.28
411.468	5.26
411.674	5.24
411.881	4.85
412.087	4.63
412.294	4.82
412.5	4.7
412.706	4.91
412.913	4.52
413.119	4.69
413.326	4.6
413.532	4.62
413.738	4.57
413.945	4.86
414.151	5.37
414.357	5.51
414.564	5.25
414.77	5.16
414.976	4.98
415.182	4.97
415.389	4.7
415.595	4.69
415.801	4.47
416.007	4.61
416.214	4.51
416.42	4.41
416.626	4.35
416.832	4.68
417.038	4.83
417.244	4.8
417.45	4.81
417.657	4.69
417.863	4.49
418.069	4.49
418.275	4.41
418.481	4.33
418.687	4.4
418.893	4.29
419.099	4.16
419.305	4.13
419.511	3.93
419.717	3.82
419.923	3.78
420.129	3.83
420.335	3.89
420.541	3.79
420.746	3.73
420.952	3.5
421.158	3.45
421.364	3.39
421.57	3.22
421.776	3.19
421.982	3.22
422.187	3.39
422.393	3.46
422.599	3.41
422.805	3.27
423.01	3.28
423.216	3.47
423.422	3.67
423.628	3.62
423.833	3.67
424.039	3.84
424.245	3.93
424.45	3.85
424.656	3.69
424.862	3.67
425.067	3.84
425.273	3.98
425.478	3.88
425.684	3.75
425.889	4.02
426.095	3.95
426.301	3.95
426.506	3.92
426.712	3.81
426.917	4.04
427.123	3.99
427.328	4.1
427.533	4.03
427.739	4.06
427.944	4.24
428.15	3.81
428.355	3.82
428.561	3.7
428.766	3.64
428.971	3.95
429.177	3.89
429.382	3.95
429.587	3.76
429.793	3.63
429.998	3.81
430.203	3.66
430.408	3.63
430.614	3.76
430.819	3.82
431.024	3.97
431.229	3.58
431.434	3.35
431.64	3.47
431.845	3.41
432.05	3.49
432.255	3.36
432.46	3.33
432.665	3.67
432.87	3.73
433.076	3.72
433.281	3.81
433.486	3.83
433.691	3.97
433.896	3.86
434.101	3.92
434.306	3.94
434.511	3.97
434.716	3.88
434.921	3.76
435.126	3.65
435.331	3.5
435.535	3.53
435.74	3.6
435.945	3.64
436.15	3.8
436.355	3.84
436.56	3.59
436.765	3.59
436.97	3.75
437.174	3.86
437.379	3.83
437.584	3.92
437.789	3.7
437.993	3.7
438.198	3.69
438.403	3.56
438.608	3.51
438.812	3.85
439.017	3.64
439.222	3.66
439.426	3.51
439.631	3.52
439.836	3.69
440.04	3.61
440.245	3.61
440.45	3.63
440.654	3.74
440.859	3.95
441.063	3.8
441.268	3.79
441.472	3.79
441.677	3.85
441.881	3.91
442.086	3.88
442.29	4.01
442.495	4.15
442.699	4.16
442.904	4.06
443.108	3.94
443.312	3.87
443.517	4.03
443.721	4
443.925	4.01
444.13	3.9
444.334	3.58
444.538	3.6
444.743	3.44
444.947	3.41
445.151	3.56
445.356	3.45
445.56	3.5
445.764	3.43
445.968	3.52
446.173	3.36
446.377	3.43
446.581	3.55
446.785	3.55
446.989	3.54
447.193	3.54
447.398	3.44
447.602	3.43
447.806	3.44
448.01	3.53
448.214	3.43
448.418	3.55
448.622	3.63
448.826	3.65
449.03	3.57
449.234	3.66
449.438	3.74
449.642	3.69
449.846	3.83
450.05	3.85
450.254	3.82
450.458	3.98
450.662	3.97
450.866	3.84
451.069	3.72
451.273	3.85
451.477	3.82
451.681	3.85
451.885	4.09
452.089	3.96
452.292	4
452.496	4.19
452.7	3.97
452.904	4.04
453.107	4.02
453.311	4.25
453.515	4.15
453.719	4.08
453.922	3.93
454.126	3.69
454.33	3.6
454.533	3.69
454.737	3.55
454.94	3.64
455.144	3.54
455.348	3.61
455.551	3.46
455.755	3.48
455.958	3.56
456.162	3.57
456.365	3.64
456.569	3.71
456.772	3.56
456.976	3.35
457.179	3.14
457.383	3.13
457.586	2.99
457.79	3.02
457.993	2.96
458.196	2.95
458.4	3.01
458.603	3.02
458.807	3.06
459.01	3.04
459.213	3.09
459.417	3.2
459.62	3.2
459.823	3.15
460.026	3.22
460.23	3.24
460.433	3.26
460.636	3.2
460.839	3.15
461.042	3.09
461.246	2.91
461.449	2.94
461.652	2.78
461.855	2.78
462.058	2.8
462.261	2.8
462.464	2.79
462.668	2.77
462.871	2.74
463.074	2.62
463.277	2.74
463.48	2.91
463.683	2.91
463.886	3.21
464.089	3.34
464.292	3.41
464.495	3.56
464.698	3.63
464.901	3.77
465.104	3.86
465.306	4.07
465.509	4.01
465.712	3.98
465.915	4.11
466.118	4.07
466.321	4.14
466.524	4.14
466.726	4.04
466.929	3.78
467.132	3.78
467.335	3.74
467.538	3.61
467.74	3.63
467.943	3.67
468.146	3.51
468.348	3.35
468.551	3.21
468.754	3.17
468.956	3.03
469.159	3.27
469.362	3.13
469.564	3.07
469.767	3.1
469.969	3.22
470.172	3.24
470.375	3.24
470.577	3.2
470.78	3.34
470.982	3.27
471.185	3.23
471.387	3.24
471.59	3.24
471.792	3.25
471.995	3.48
472.197	3.36
472.399	3.41
472.602	3.5
472.804	3.69
473.007	3.65
473.209	3.89
473.411	3.94
473.614	4.01
473.816	3.99
474.018	3.93
474.22	3.87
474.423	3.78
474.625	3.84
474.827	3.84
475.03	3.69
475.232	3.6
475.434	3.64
475.636	3.67
475.838	3.59
476.04	3.68
476.243	3.89
476.445	3.66
476.647	3.55
476.849	3.5
477.051	3.42
477.253	3.64
477.455	3.62
477.657	3.38
477.859	3.2
478.061	3.27
478.263	3.28
478.465	3.26
478.667	3.52
478.869	3.63
479.071	3.52
479.273	3.58
479.475	3.28
479.677	3.25
479.879	3.37
480.081	3.49
480.283	3.38
480.485	3.42
480.686	3.26
480.888	2.86
481.09	2.93
481.292	3.03
481.494	3.01
481.695	3.14
481.897	3.12
482.099	3.04
482.301	2.99
482.502	2.97
482.704	2.94
482.906	2.94
483.107	3.07
483.309	3.02
483.511	3.03
483.712	2.99
483.914	3.03
484.115	3.06
484.317	3.13
484.519	3.18
484.72	3.19
484.922	3.2
485.123	3.21
485.325	3.24
485.526	3.29
485.728	3.31
485.929	3.31
486.131	3.31
486.332	3.33
486.534	3.18
486.735	3.12
486.936	3.09
487.138	3.06
487.339	3.1
487.541	3.05
487.742	3.02
487.943	2.96
488.144	2.99
488.346	2.97
488.547	2.87
488.748	2.92
488.95	2.96
489.151	3.03
489.352	3.02
489.553	3.01
489.755	3.05
489.956	3.03
490.157	3.11
490.358	3.12
490.559	3.12
490.76	3.15
490.961	3.16
491.163	3.14
491.364	3.16
491.565	3.13
491.766	3.03
491.967	3.12
492.168	3.09
492.369	3.11
492.57	3.13
492.771	3.13
492.972	3.16
493.173	3.2
493.374	3.24
493.575	3.22
493.776	3.32
493.976	3.53
494.177	3.45
494.378	3.58
494.579	3.53
494.78	3.48
494.981	3.6
495.182	3.64
495.382	3.74
495.583	3.68
495.784	3.65
495.985	3.62
496.185	3.59
496.386	3.56
496.587	3.57
496.788	3.57
496.988	3.51
497.189	3.35
497.39	3.31
497.59	3.45
497.791	3.48
497.992	3.49
498.192	3.5
498.393	3.46
498.593	3.45
498.794	3.41
498.994	3.39
499.195	3.52
499.395	3.56
499.596	3.49
499.796	3.11
499.997	3.14
500.197	3.1
500.398	2.97
500.598	2.93
500.799	2.8
500.999	2.79
501.199	2.82
501.4	2.97
501.6	2.85
501.801	3
502.001	3.1
502.201	3
502.402	2.92
502.602	3.04
502.802	3.12
503.002	3.32
503.203	3.45
503.403	3.55
503.603	3.42
503.803	3.72
504.003	3.78
504.204	3.98
504.404	4.04
504.604	4.06
504.804	3.99
505.004	3.97
505.204	3.92
505.404	3.97
505.604	3.97
505.804	3.98
506.005	3.72
506.205	3.8
506.405	3.83
506.605	4.02
506.805	4.12
507.005	4.2
507.204	4.3
507.404	4.32
507.604	4.17
507.804	4.12
508.004	4.25
508.204	4.39
508.404	4.24
508.604	4.16
508.804	4.03
509.003	3.99
509.203	4.03
509.403	3.99
509.603	4.1
509.803	4.15
510.002	4.12
510.202	4
510.402	3.97
510.602	3.97
510.801	3.85
511.001	3.94
511.201	3.91
511.4	3.96
511.6	4.02
511.8	3.86
511.999	3.83
512.199	3.85
512.398	3.93
512.598	4
512.797	3.98
512.997	4.14
513.197	4.03
513.396	4.05
513.596	3.86
513.795	3.9
513.994	3.91
514.194	3.98
514.393	3.97
514.593	4.09
514.792	4.06
514.992	4.27
515.191	4.26
515.39	4.29
515.59	4.4
515.789	4.45
515.988	4.48
516.188	4.45
516.387	4.4
516.586	4.37
516.786	4.3
516.985	4.29
517.184	4.29
517.383	4.14
517.582	4.06
517.782	4.03
517.981	4.06
518.18	3.9
518.379	3.98
518.578	3.93
518.777	3.86
518.976	3.73
519.176	3.63
519.375	3.64
519.574	3.78
519.773	3.88
519.972	3.85
520.171	3.89
520.37	3.82
520.569	3.74
520.768	3.78
520.967	3.87
521.166	4.02
521.365	4.17
521.564	3.98
521.762	3.93
521.961	3.91
522.16	3.82
522.359	3.99
522.558	4.09
522.757	4.09
522.956	4.1
523.154	4.23
523.353	4.35
523.552	4.37
523.751	4.42
523.949	4.52
524.148	4.43
524.347	4.48
524.546	4.49
524.744	4.54
524.943	4.65
525.142	4.6
525.34	4.46
525.539	4.31
525.737	4.24
525.936	4.23
526.135	4.11
526.333	4.11
526.532	4.14
526.73	4.06
526.929	4.03
527.127	3.97
527.326	4.01
527.524	4.05
527.723	4.06
527.921	4.09
528.12	4.09
528.318	4.19
528.516	4.26
528.715	4.3
528.913	4.24
529.112	4.22
529.31	4.27
529.508	4.32
529.707	4.3
529.905	4.3
530.103	4.25
530.301	4.31
530.5	4.2
530.698	4.12
530.896	4.03
531.094	4.13
531.293	4.22
531.491	4.2
531.689	4.11
531.887	4.21
532.085	4.23
532.283	4.35
532.481	4.24
532.68	4.38
532.878	4.4
533.076	4.47
533.274	4.39
533.472	4.41
533.67	4.46
533.868	4.55
534.066	4.59
534.264	4.61
534.462	4.73
534.66	4.77
534.858	4.71
535.056	4.84
535.253	4.88
535.451	4.91
535.649	4.89
535.847	4.9
536.045	4.88
536.243	4.85
536.441	4.89
536.638	4.77
536.836	4.81
537.034	4.77
537.232	4.8
537.43	4.81
537.627	4.84
537.825	4.83
538.023	4.89
538.22	4.91
538.418	5.06
538.616	5.15
538.813	5.19
539.011	5.24
539.209	5.42
539.406	5.3
539.604	5.38
539.801	5.48
539.999	5.53
540.196	5.45
540.394	5.5
540.591	5.31
540.789	5.25
540.986	5.21
541.184	5.17
541.381	5.13
541.579	5.17
541.776	5.19
541.974	5.2
542.171	5.19
542.368	5.23
542.566	5.23
542.763	5.32
542.96	5.35
543.158	5.37
543.355	5.4
543.552	5.5
543.75	5.52
543.947	5.47
544.144	5.6
544.341	5.67
544.539	5.71
544.736	5.74
544.933	5.74
545.13	5.76
545.327	5.8
545.524	5.89
545.722	5.76
545.919	5.84
546.116	5.89
546.313	5.75
546.51	5.74
546.707	5.72
546.904	5.78
547.101	5.8
547.298	5.78
547.495	5.82
547.692	5.93
547.889	5.95
548.086	5.98
548.283	6.04
548.48	6.11
548.677	6.15
548.874	6.18
549.07	6.21
549.267	6.23
549.464	6.35
549.661	6.51
549.858	6.49
550.055	6.65
550.251	6.66
550.448	6.69
550.645	6.71
550.842	6.95
551.038	7.06
551.235	7.26
551.432	7.43
551.628	7.43
551.825	7.4
552.022	7.39
552.218	7.34
552.415	7.38
552.612	7.33
552.808	7.42
553.005	7.28
553.201	7.22
553.398	7.02
553.594	7.06
553.791	7.21
553.987	7.29
554.184	7.36
554.38	7.6
554.577	7.61
554.773	7.71
554.97	7.53
555.166	7.6
555.362	7.73
555.559	7.9
555.755	7.85
555.952	8.06
556.148	8.14
556.344	7.97
556.541	7.79
556.737	7.94
556.933	8.07
557.129	8.44
557.326	8.43
557.522	8.49
557.718	8.52
557.914	8.74
558.11	8.57
558.307	8.41
558.503	8.66
558.699	9.02
558.895	9.03
559.091	8.84
559.287	8.77
559.483	9.12
559.679	9.02
559.876	8.91
560.072	8.81
560.268	8.91
560.464	9.14
560.66	9.12
560.856	8.94
561.052	8.98
561.247	9.34
561.443	9.46
561.639	9.12
561.835	9.17
562.031	9.38
562.227	9.33
562.423	9.27
562.619	9.42
562.815	9.55
563.01	9.6
563.206	9.72
563.402	9.69
563.598	9.68
563.793	9.99
563.989	10.08
564.185	10.2
564.381	10.24
564.576	10.25
564.772	10.17
564.968	10.32
565.163	10.5
565.359	10.55
565.555	10.41
565.75	10.31
565.946	10.42
566.141	10.5
566.337	10.33
566.532	10.5
566.728	10.66
566.923	10.68
567.119	10.51
567.314	10.47
567.51	10.52
567.705	10.74
567.901	10.96
568.096	11.06
568.292	11.17
568.487	11.31
568.682	11.16
568.878	11.29
569.073	11.54
569.268	11.73
569.464	11.92
569.659	11.92
569.854	11.74
570.05	11.57
570.245	11.48
570.44	11.35
570.635	11.42
570.831	11.61
571.026	11.69
571.221	11.53
571.416	11.46
571.611	11.24
571.806	11.24
572.002	11.4
572.197	11.56
572.392	11.52
572.587	11.62
572.782	11.65
572.977	11.77
573.172	11.65
573.367	11.71
573.562	11.86
573.757	12
573.952	12.07
574.147	11.99
574.342	11.93
574.537	12.05
574.732	12.05
574.927	12.08
575.121	12.05
575.316	11.86
575.511	11.89
575.706	11.85
575.901	11.85
576.096	11.9
576.29	12.06
576.485	12.14
576.68	12.02
576.875	11.97
577.069	12.08
577.264	12.2
577.459	12.55
577.654	12.76
577.848	12.91
578.043	12.98
578.238	12.93
578.432	13
578.627	13.28
578.821	13.45
579.016	13.73
579.21	13.52
579.405	13.4
579.6	13.27
579.794	13.32
579.989	13.41
580.183	13.89
580.378	14.08
580.572	14.21
580.766	14
580.961	13.92
581.155	13.93
581.35	14.24
581.544	14.28
581.738	14.33
581.933	14.26
582.127	14.13
582.321	13.75
582.516	13.86
582.71	13.85
582.904	13.71
583.099	13.96
583.293	13.92
583.487	13.91
583.681	13.88
583.875	14.03
584.07	14.03
584.264	14.08
584.458	14.01
584.652	13.98
584.846	13.82
585.04	14.03
585.234	14.03
585.428	14.01
585.623	13.99
585.817	14.06
586.011	13.86
586.205	13.81
586.399	13.88
586.593	14.03
586.787	13.79
586.981	13.85
587.174	13.72
587.368	13.63
587.562	13.83
587.756	13.73
587.95	13.8
588.144	13.9
588.338	14.04
588.532	14.16
588.725	13.91
588.919	13.87
589.113	13.94
589.307	13.91
589.501	14.25
589.694	14.28
589.888	14.09
590.082	14
590.275	13.91
590.469	13.92
590.663	13.64
590.856	13.6
591.05	13.86
591.244	13.89
591.437	14.37
591.631	14.13
591.824	14.14
592.018	14.31
592.212	14.61
592.405	14.76
592.599	14.88
592.792	15.09
592.986	15.41
593.179	15.35
593.372	15.35
593.566	15.03
593.759	14.85
593.953	14.91
594.146	14.93
594.339	14.54
594.533	14.46
594.726	14.13
594.92	14.11
595.113	14.22
595.306	14.32
595.499	14.27
595.693	14.46
595.886	14.6
596.079	14.57
596.272	14.52
596.466	14.62
596.659	14.73
596.852	14.57
597.045	14.5
597.238	14.42
597.431	14.31
597.624	14.37
597.818	14.35
598.011	14.35
598.204	14.27
598.397	14.25
598.59	14.35
598.783	14.26
598.976	14.59
599.169	14.81
599.362	14.78
599.555	15.02
599.748	14.74
599.941	14.81
600.134	14.93
600.326	14.84
600.519	15.18
600.712	15.07
600.905	15.14
601.098	15.05
601.291	14.84
601.483	14.84
601.676	14.57
601.869	14.9
602.062	14.58
602.255	14.59
602.447	14.45
602.64	14.29
602.833	14.5
603.025	14.44
603.218	14.63
603.411	14.73
603.603	14.85
603.796	14.85
603.989	14.62
604.181	14.72
604.374	14.61
604.566	14.7
604.759	14.71
604.951	14.61
605.144	14.78
605.336	14.49
605.529	14.44
605.721	14.38
605.914	14.49
606.106	14.71
606.299	14.57
606.491	14.51
606.683	14.63
606.876	14.58
607.068	14.46
607.26	14.35
607.453	14.57
607.645	14.56
607.837	14.6
608.03	14.44
608.222	14.42
608.414	14.41
608.606	14.34
608.799	14.2
608.991	14.2
609.183	14.3
609.375	14.15
609.567	14.29
609.759	14.06
609.952	13.8
610.144	13.83
610.336	13.58
610.528	13.85
610.72	13.94
610.912	13.91
611.104	13.93
611.296	14.01
611.488	13.89
611.68	13.54
611.872	13.67
612.064	13.75
612.256	13.91
612.448	13.95
612.64	13.79
612.832	13.72
613.023	14.02
613.215	13.88
613.407	13.71
613.599	13.89
613.791	14.35
613.983	14.26
614.174	14.34
614.366	14.15
614.558	14.53
614.75	14.49
614.941	14.76
615.133	14.46
615.325	14.81
615.516	14.81
615.708	15.07
615.9	14.82
616.091	15.26
616.283	15.34
616.475	15.44
616.666	15.32
616.858	15.26
617.049	14.97
617.241	15.08
617.432	15.02
617.624	14.98
617.815	14.89
618.007	14.79
618.198	14.53
618.39	14.71
618.581	14.66
618.773	14.68
618.964	14.5
619.155	14.7
619.347	14.85
619.538	14.75
619.729	14.99
619.921	14.93
620.112	15.52
620.303	15.65
620.494	15.62
620.686	15.65
620.877	15.54
621.068	15.78
621.259	15.6
621.451	15.35
621.642	15.25
621.833	15.08
622.024	15.17
622.215	14.92
622.406	14.99
622.597	14.9
622.788	14.89
622.98	15.04
623.171	15.15
623.362	15.39
623.553	15.53
623.744	15.68
623.935	15.81
624.126	15.86
624.317	15.52
624.508	15.34
624.698	15.25
624.889	15.06
625.08	15.14
625.271	15.06
625.462	15.15
625.653	15.27
625.844	15.36
626.034	15.14
626.225	15.06
626.416	15.18
626.607	15.25
626.798	15.16
626.988	15.53
627.179	15.67
627.37	15.53
627.56	15.34
627.751	15
627.942	15.26
628.132	15.42
628.323	15.37
628.514	15.29
628.704	15.17
628.895	15.59
629.085	15.33
629.276	15.03
629.466	15.33
629.657	15.34
629.847	15.64
630.038	15.2
630.228	15.15
630.419	15.22
630.609	15.47
630.8	15.8
630.99	15.45
631.181	15.45
631.371	15.45
631.561	15.52
631.752	15.54
631.942	15.36
632.132	15.31
632.323	15.63
632.513	15.48
632.703	15.5
632.893	15.3
633.084	14.99
633.274	15.18
633.464	15.32
633.654	15.43
633.844	15.54
634.034	15.57
634.225	15.67
634.415	15.4
634.605	15.73
634.795	15.49
634.985	15.48
635.175	16.12
635.365	15.79
635.555	15.56
635.745	15.23
635.935	15.42
636.125	15.49
636.315	15.3
636.505	15.27
636.695	14.87
636.885	15.27
637.075	15.51
637.265	15.23
637.455	15.63
637.644	15.79
637.834	15.96
638.024	15.77
638.214	15.93
638.404	16.33
638.593	16.18
638.783	16.15
638.973	16.11
639.163	16.25
639.352	15.88
639.542	15.46
639.732	15.61
639.921	15.42
640.111	15.3
640.301	15.39
640.49	15.4
640.68	15.83
640.87	16.34
641.059	16.19
641.249	15.85
641.438	16.13
641.628	16.34
641.817	15.99
642.007	16.25
642.196	16.39
642.386	16.15
642.575	16.17
642.764	15.75
642.954	15.74
643.143	15.66
643.333	15.57
643.522	15.66
643.711	15.77
643.901	15.84
644.09	15.84
644.279	15.86
644.469	15.89
644.658	15.59
644.847	16.11
645.036	15.84
645.226	15.33
645.415	15.63
645.604	15.97
645.793	15.82
645.982	15.68
646.171	15.67
646.361	15.81
646.55	16.18
646.739	16.09
646.928	15.71
647.117	15.58
647.306	16.37
647.495	16.03
647.684	15.85
647.873	15.98
648.062	16.44
648.251	16.45
648.44	16.21
648.629	16.1
648.818	16.15
649.007	16.11
649.196	16.22
649.384	15.87
649.573	15.72
649.762	15.62
649.951	15.26
650.14	15.28
650.328	15.51
650.517	15.73
650.706	15.55
650.895	15.66
651.083	15.37
651.272	15.43
651.461	15.23
651.65	15.28
651.838	15.1
652.027	15.7
652.216	15.85
652.404	15.36
652.593	15.21
652.781	15.4
652.97	15.73
653.158	16.06
653.347	16.17
653.535	16.3
653.724	16.91
653.912	17.18
654.101	16.95
654.289	16.33
654.478	16.82
654.666	16.57
654.855	16.22
655.043	16.15
655.231	16.32
655.42	16.27
655.608	16.1
655.796	16.16
655.985	16.33
656.173	16.07
656.361	16.09
656.55	15.58
656.738	15.81
656.926	15.92
657.114	15.73
657.302	15.85
657.491	15.39
657.679	15.67
657.867	15.27
658.055	15.14
658.243	15.16
658.431	15.14
658.619	15.22
658.807	15.39
658.996	15.02
659.184	15.14
659.372	14.95
659.56	15.44
659.748	15.46
659.936	15.82
660.124	15.63
660.311	15.57
660.499	15.79
660.687	15.85
660.875	15.73
661.063	16.08
661.251	15.99
661.439	16.47
661.627	16.65
661.814	17.05
662.002	16.49
662.19	16.4
662.378	16.88
662.565	16.85
662.753	16.89
662.941	16.67
663.129	16.21
663.316	16.52
663.504	16.12
663.692	16.07
663.879	15.49
664.067	16
664.254	16.29
664.442	16.38
664.63	16.67
664.817	16.89
665.005	17.12
665.192	17.84
665.38	17.67
665.567	17.63
665.755	16.95
665.942	16.75
666.13	16.88
666.317	17.29
666.504	16.85
666.692	16.85
666.879	16.73
667.067	16.21
667.254	15.83
667.441	15.72
667.629	15.65
667.816	16.27
668.003	16.63
668.19	15.84
668.378	15.7
668.565	16.32
668.752	15.75
668.939	16.42
669.127	16.92
669.314	17.43
669.501	17.24
669.688	17.22
669.875	16.82
670.062	16.75
670.249	17.25
670.436	16.86
670.623	16.52
670.81	17.04
670.997	16.24
671.184	16.14
671.371	15.97
671.558	16.35
671.745	16.69
671.932	17.15
672.119	17.26
672.306	17.4
672.493	17.73
672.68	17.58
672.867	17.56
673.054	17.33
673.24	17.84
673.427	17.51
673.614	17.2
673.801	17.04
673.988	16.86
674.174	17.14
674.361	17.07
674.548	16.97
674.734	17.05
674.921	17.01
675.108	17.43
675.294	17.03
675.481	17.18
675.668	17.57
675.854	17.55
676.041	17.64
676.227	17.09
676.414	17.29
676.601	17.52
676.787	17.46
676.974	17.34
677.16	17.46
677.347	17.19
677.533	17.31
677.719	17.09
677.906	16.93
678.092	17.14
678.279	17.09
678.465	17.14
678.651	16.74
678.838	16.95
679.024	17.24
679.21	16.97
679.397	17.32
679.583	17.58
679.769	17.9
679.955	18.01
680.142	17.83
680.328	18.41
680.514	18.21
680.7	18.4
680.886	18.08
681.073	17.77
681.259	17.79
681.445	17.38
681.631	17.44
681.817	17.09
682.003	16.82
682.189	16.41
682.375	16.27
682.561	16.39
682.747	16.31
682.933	16.94
683.119	16.82
683.305	16.88
683.491	16.94
683.677	16.82
683.863	16.46
684.049	16.79
684.235	17.1
684.42	16.72
684.606	16.3
684.792	16.64
684.978	16.13
685.164	16.39
685.349	16.61
685.535	17.07
685.721	17.1
685.907	17.69
686.092	17.32
686.278	17.31
686.464	17.44
686.649	17.52
686.835	17.11
687.021	17.2
687.206	17.01
687.392	16.81
687.577	16.73
687.763	16.38
687.948	16.33
688.134	16.66
688.319	16.61
688.505	16.33
688.69	16.44
688.876	16.52
689.061	16.57
689.247	17
689.432	16.7
689.618	16.96
689.803	16.95
689.988	17.35
690.174	17.31
690.359	17.09
690.544	17.32
690.73	17.48
690.915	17.56
691.1	17.11
691.285	16.96
691.471	17.34
691.656	16.8
691.841	16.89
692.026	16.26
692.211	16.16
692.396	16.1
692.582	15.69
692.767	15.28
692.952	15.38
693.137	15.69
693.322	15.42
693.507	16.06
693.692	15.68
693.877	15.71
694.062	16.21
694.247	16.01
694.432	16.18
694.617	16.54
694.802	16.72
694.987	17.05
695.172	16.94
695.357	17.43
695.541	16.7
695.726	16.82
695.911	16.22
696.096	16.22
696.281	16.61
696.466	16.8
696.65	17.1
696.835	17.25
697.02	17.05
697.204	16.96
697.389	16.96
697.574	17.23
697.759	17.47
697.943	17.73
698.128	17.71
698.312	17.81
698.497	17.77
698.682	17.48
698.866	17.3
699.051	17.34
699.235	17.52
699.42	17.6
699.604	17.59
699.789	17.51
699.973	18.02
700.158	17.41
700.342	17.8
700.527	17.63
700.711	17.9
700.895	18.4
701.08	18.06
701.264	17.89
701.448	17.53
701.633	17.21
701.817	17.83
702.001	17.48
702.186	17.96
702.37	17.73
702.554	18.21
702.738	17.62
702.923	17.5
703.107	17.69
703.291	18.03
703.475	18.33
703.659	19.12
703.843	19.02
704.027	19.52
704.212	19.31
704.396	19.3
704.58	19.13
704.764	19.85
704.948	20.01
705.132	19.78
705.316	20.03
705.5	19.86
705.684	18.58
705.868	17.74
706.052	17.7
706.235	17.66
706.419	17.1
706.603	17.12
706.787	16.71
706.971	16.22
707.155	16.15
707.339	16.1
707.522	15.61
707.706	16.4
707.89	17.2
708.074	16.66
708.257	16.48
708.441	16.51
708.625	16.33
708.808	16.78
708.992	16.81
709.176	16.75
709.359	16.79
709.543	17.12
709.727	16.58
709.91	15.97
710.094	15.69
710.277	16.44
710.461	16.97
710.644	17.11
710.828	16.71
711.011	16.64
711.195	17.16
711.378	17.32
711.562	18.01
711.745	18.86
711.928	19.09
712.112	19.02
712.295	18.72
712.478	18.57
712.662	18.76
712.845	19.16
713.028	18.67
713.212	19.24
713.395	18.94
713.578	19.26
713.761	18.79
713.945	19.25
714.128	19.82
714.311	20.19
714.494	19.5
714.677	19.11
714.86	19.29
715.043	20.17
715.227	19.47
715.41	19.6
715.593	18.57
715.776	19.25
715.959	18.11
716.142	17.67
716.325	17.22
716.508	18.22
716.691	18.41
716.874	17.87
717.057	17.47
717.239	17.44
717.422	17.13
717.605	17.42
717.788	16.49
717.971	17.24
718.154	17.96
718.337	18.3
718.519	17.67
718.702	18.1
718.885	18.16
719.068	17.4
719.25	17.74
719.433	19
719.616	19.04
719.798	19.41
719.981	19.69
720.164	19.32
720.346	19.93
720.529	19.47
720.712	18.85
720.894	18.78
721.077	20.46
721.259	20.78
721.442	19.56
721.624	19.28
721.807	19.79
721.989	19.75
722.172	19.2
722.354	18.74
722.537	19.83
722.719	20.95
722.901	21.1
723.084	20.02
723.266	19.07
723.448	18.92
723.631	18.56
723.813	18.53
723.995	17.79
724.178	17.41
724.36	17.42
724.542	17.46
724.724	16.98
724.907	17.01
725.089	16.86
725.271	17.28
725.453	17.62
725.635	18.5
725.817	18.53
725.999	19.8
726.181	20.42
726.364	20.4
726.546	20.68
726.728	21.11
726.91	20.67
727.092	21
727.274	20.17
727.456	21.09
727.638	20.72
727.819	19.12
728.001	18.81
728.183	19.16
728.365	19.16
728.547	18.28
728.729	17.89
728.911	17.85
729.093	18.12
729.274	19.48
729.456	18.39
729.638	18.28
729.82	19.75
730.001	19.45
730.183	18.42
730.365	17.95
730.546	18
730.728	17.77
730.91	18.13
731.091	18.6
731.273	18.38
731.455	18.88
731.636	19.28
731.818	19.07
731.999	18.96
732.181	19.25
732.362	18.75
732.544	18.82
732.725	19.61
732.907	19.45
733.088	19.06
733.27	18.58
733.451	17.69
733.633	17.3
733.814	17.03
733.995	17.49
734.177	18.06
734.358	18.93
734.539	18.74
734.721	17.77
734.902	18.56
735.083	17.95
735.264	18.11
735.446	19.08
735.627	19.89
735.808	19.34
735.989	19.82
736.17	19.82
736.351	19.48
736.533	20.12
736.714	20.84
736.895	19.66
737.076	21.17
737.257	21.32
737.438	20.92
737.619	20.08
737.8	20.64
737.981	19.95
738.162	20.26
738.343	20.32
738.524	20.74
738.705	20.73
738.886	20.97
739.067	19.71
739.247	19.12
739.428	19.15
739.609	19.1
739.79	19.9
739.971	19.96
740.151	20.29
740.332	20.6
740.513	19.1
740.694	18.96
740.874	19.94
741.055	19.31
741.236	19.35
741.417	20.13
741.597	19.84
741.778	19.36
741.958	19.02
742.139	19.06
742.32	17.35
742.5	17.66
742.681	17.38
742.861	16.27
743.042	18.5
743.222	18.88
743.403	18.25
743.583	18.53
743.764	19.01
743.944	19.57
744.124	19.13
744.305	19.73
744.485	21.21
744.666	21.03
744.846	22.42
745.026	21.64
745.207	21.45
745.387	20.67
745.567	20.23
745.747	19.22
745.928	19.91
746.108	18.63
746.288	20.58
746.468	18.54
746.648	16.82
746.829	16.61
747.009	16.43
747.189	16.94
747.369	18.26
747.549	19.62
747.729	19.64
747.909	17.68
748.089	18.93
748.269	18.91
748.449	19.91
748.629	21.88
748.809	20.8
748.989	20.87
749.169	20.96
749.349	21.29
749.529	20.97
749.709	21.46
749.889	21.78
750.068	22
750.248	19.88
750.428	20.15
750.608	19.72
750.788	20.93
750.967	20.8
751.147	20.13
751.327	18.64
751.507	18.52
751.686	18.87
751.866	19.97
752.046	19.79
752.225	20.89
752.405	20.2
752.585	20.77
752.764	21.38
752.944	21.91
753.123	23.04
753.303	23.88
753.482	23.88
753.662	24.19
753.841	24.21
754.021	23.5
754.2	23.76
754.38	24.19
754.559	23.68
754.739	21.9
754.918	21.7
755.097	21.41
755.277	21.6
755.456	21.61
755.635	19.18
755.815	18.08
755.994	18.74
756.173	18.72
756.352	17.19
756.532	17.77
756.711	18.1
756.89	16.98
757.069	16.99
757.248	16.31
757.427	16.29
757.607	18.63
757.786	18.88
757.965	18.57
758.144	19.61
758.323	20.37
758.502	18.16
758.681	18.34
758.86	19.9
759.039	19.81
759.218	19.18
759.397	20.25
759.576	20.13
759.755	20.51
759.934	20.77
760.113	19.42
760.291	19.95
760.47	22.31
760.649	21.23
760.828	21.04
761.007	21.45
761.186	21.71
761.364	20.5
761.543	20.04
761.722	20.57
761.901	21.1
762.079	21.87
762.258	22.72
762.437	22.67
762.615	23.51
762.794	23.4
762.972	22.39
763.151	22.56
763.33	22.42
763.508	22.05
763.687	21.53
763.865	20.43
764.044	19.69
764.222	19.56
764.401	18.74
764.579	19.24
764.758	18.92
764.936	18.86
765.114	19.07
765.293	18.7
765.471	19.43
765.65	19.99
765.828	21.3
766.006	21.28
766.184	21.48
766.363	22.88
766.541	22.35
766.719	23.05
766.898	23.6
767.076	23.21
767.254	24.15
767.432	24.68
767.61	24.5
767.788	23.98
767.967	24.92
768.145	24.11
768.323	23.34
768.501	23.94
768.679	24.04
768.857	24.36
769.035	26.31
769.213	25.31
769.391	24.21
769.569	23.93
769.747	24.07
769.925	24.39
770.103	24.52
770.281	25.42
770.459	26.38
770.636	26.19
770.814	24.98
770.992	22.5
771.17	22.82
771.348	23.42
771.525	25.08
771.703	26.07
771.881	26.59
772.059	26.69
772.236	24.92
772.414	22.97
772.592	22.43
772.769	23.44
772.947	23.61
773.125	23.29
773.302	22.83
773.48	21.4
773.657	19.52
773.835	18.28
774.013	19.57
774.19	21.48
774.368	23.2
774.545	22.27
774.723	23.31
774.9	24.73
775.077	24.81
775.255	24.99
775.432	25.4
775.61	27.23
775.787	25.56
775.964	23.6
776.142	21.73
776.319	19.28
776.496	21.09
776.674	20.09
776.851	19.96
777.028	20.4
777.205	20.61
777.382	22.52
777.56	21.81
777.737	21.85
777.914	22.37
778.091	23.95
778.268	27.65
778.445	26.32
778.622	27.67
778.8	27.48
778.977	28.94
779.154	27.08
779.331	24.01
779.508	25.98
779.685	25
779.862	24.7
780.038	24.15
780.215	20.56
780.392	20.1
780.569	19.51
780.746	19.13
780.923	17.67
781.1	19.76
781.277	22.61
781.453	20.26
781.63	24.37
781.807	26.81
781.984	28.63
782.16	29.94
782.337	31.87
782.514	30.14
782.691	31.11
782.867	32.52
783.044	33.56
783.221	31.71
783.397	32.79
783.574	33.12
783.75	32.41
783.927	29.8
784.103	28.79
784.28	27.73
784.456	30.49
784.633	28.3
784.809	28.53
784.986	27.68
785.162	27.24
785.339	24.88
785.515	24.9
785.692	23.76
785.868	24.7
786.044	26.67
786.221	26
786.397	22.58
786.573	23.15
786.749	23.86
786.926	25.8
787.102	25.57
787.278	28.83
787.454	27.22
787.631	26.71
787.807	26.14
787.983	24.38
788.159	26.11
788.335	26.33
788.511	27.21
788.687	24.91
788.863	23.54
789.039	23.84
789.216	22.08
789.392	21.88
789.568	22.61
789.744	24.29
789.919	23.17
790.095	21.9
790.271	20.56
790.447	18.54
790.623	19.43
790.799	17.47
790.975	18.89
791.151	18.63
791.327	19.85
791.502	20.65
791.678	22.02
791.854	22.61
792.03	22.92
792.205	25.18
792.381	28.78
792.557	26.69
792.733	27.94
792.908	27.73
793.084	26.61
793.259	25.14
793.435	23.93
793.611	19.73
793.786	18.68
793.962	16.41
794.137	17.95
794.313	18.52
794.488	20.39
794.664	18.74
794.839	19.86
795.015	21.92
795.19	23.94
795.366	23.92
795.541	23.65
795.716	24.77
795.892	27.14
796.067	23.05
796.242	21.8
796.418	21.08
796.593	22.41
796.768	19.26
796.944	16.89
797.119	17.32
797.294	16.54
797.469	16.89
797.644	17.34
797.82	16.5
797.995	20.06
798.17	20.26
798.345	21.29
798.52	18.4
798.695	20.14
798.87	23.58
799.045	21.72
799.22	21.39
799.395	22.94
799.57	23.55
799.745	25.05
799.92	22.27
800.095	20.55
800.27	19.23
800.445	23.67
800.62	25.07
800.795	23.4
800.97	23.8
801.145	25.54
801.319	22.42
801.494	22.04
801.669	18.81
801.844	22.12
802.018	24.6
802.193	28.83
802.368	25.36
802.543	22.53
802.717	22.19
802.892	24.79
803.067	26.08
803.241	28.64
803.416	25.85
803.59	27.34
803.765	26.04
803.94	19.19
804.114	12.91
804.289	18.61
804.463	22.12
804.638	23.53
804.812	22.03
804.986	19.83
805.161	21.46
805.335	26.56
805.51	27.75
805.684	28
805.858	29.34
806.033	28.71
806.207	26.82
806.381	23
806.556	24.21
806.73	21.77
806.904	21.3
807.078	18.32
807.253	15.15
807.427	14.17
807.601	11.34
807.775	13.06
807.949	14.15
808.123	15.6
808.298	20.99
808.472	18.7
808.646	16.8
808.82	16.37
808.994	22.34
809.168	24.37
809.342	23.69
809.516	25.78
809.69	28.58
809.864	31.14
810.038	27.52
810.212	25.3
810.385	25.37
810.559	26.24
810.733	27.27
810.907	24.19
811.081	22.41
811.255	27.35
811.428	24.41
811.602	22.16
811.776	20.97
811.95	19.3
812.123	17.25
812.297	14.78
812.471	22.95
812.644	19.42
812.818	18.1
812.992	19.91
813.165	15.4
813.339	18.21
813.512	15.41
813.686	18.98
813.86	22.32
814.033	23.36
814.207	28.66
814.38	18.99
814.554	23.69
814.727	18.84
814.9	16.89
815.074	16.33
815.247	16.71
815.421	20.64
815.594	17.18
815.767	20.83
815.941	23.14
816.114	21.96
816.287	26.07
816.46	23.91
816.634	26.68
816.807	27.16
816.98	27.91
817.153	26.19
817.327	26.32
817.5	23.9
817.673	22.66
817.846	22.84
818.019	20.36
818.192	22.79
818.365	20.24
818.538	25.31
818.711	27.63
818.884	26.87
819.057	26.91
819.23	29.98
819.403	32.34
819.576	30.78
819.749	29.48
819.922	30.14
820.095	26.03
820.268	28.4
820.441	23.8
820.614	22.77
820.786	23.79
820.959	23.56
821.132	20.89
821.305	19.9
821.477	20.45
821.65	20.28
821.823	20.56
821.996	20.13
822.168	20.17
822.341	21.31
822.514	21.18
822.686	20.89
822.859	20.32
823.031	20.83
823.204	20.88
823.376	21.22
823.549	20.95
823.722	20.75
823.894	21.57
824.067	21.55
824.239	20.69
824.411	20.85
824.584	20.83
824.756	22.55
824.929	22.08
825.101	22.76
825.273	22.32
825.446	22.76
825.618	22.12
825.79	23.37
825.963	21.77
826.135	22.9
826.307	22.2
826.479	23.25
826.652	21.37
826.824	21.41
826.996	22.02
827.168	22.23
827.34	21.02
827.512	21.05
827.684	20.2
827.856	21.34
828.029	20.04
828.201	21.5
828.373	20.91
828.545	22.45
828.717	22.73
828.889	20.87
829.061	19.28
829.232	20.87
829.404	23.46
829.576	22.05
829.748	22.71
829.92	24.72
830.092	24.16
830.264	21.4
830.436	20.56
830.607	21.12
830.779	23.21
830.951	25.99
831.123	27.12
831.294	24.66
831.466	24.91
831.638	26.09
831.809	23.64
831.981	26.13
832.153	29.73
832.324	31.26
832.496	31.59
832.667	33.54
832.839	30.66
833.011	30.35
833.182	31.21
833.354	30.23
833.525	31.46
833.697	35.26
833.868	34.07
834.039	33.99
834.211	29.08
834.382	25.82
834.554	24.09
834.725	25.74
834.896	25.08
835.068	23.98
835.239	25.03
835.41	24.63
835.581	22.44
835.753	21.22
835.924	22.58
836.095	26.94
836.266	28.13
836.438	26.1
836.609	27.47
836.78	28.14
836.951	24.38
837.122	24.61
837.293	24.99
837.464	23.09
837.635	23.45
837.806	22.43
837.977	21.57
838.148	23.74
838.319	26.22
838.49	16.7
838.661	14.21
838.832	19.02
839.003	22.38
839.174	21.23
839.345	18.54
839.516	16.26
839.687	16.55
839.857	13.34
840.028	18.3
840.199	21.14
840.37	22.73
840.54	25.65
840.711	26.48
840.882	22.98
841.053	22.25
841.223	25.62
841.394	26.27
841.564	23.68
841.735	27.65
841.906	24.35
842.076	24.29
842.247	28.64
842.417	28.49
842.588	32.69
842.758	27.32
842.929	30.61
843.099	34.13
843.27	36.71
843.44	42.81
843.611	45.44
843.781	42.81
843.951	46.92
844.122	50.67
844.292	48.74
844.462	43.45
844.633	49.85
844.803	50.82
844.973	46.64
845.144	40.32
845.314	36.99
845.484	37.07
845.654	39.92
845.824	36.41
845.995	30.36
846.165	34.84
846.335	38.96
846.505	49.37
846.675	48.44
846.845	44.06
847.015	46.54
847.185	44.45
847.355	33.65
847.525	30.71
847.695	28.95
847.865	38.31
848.035	38.85
848.205	37.15
848.375	25.28
848.545	20.87
848.715	26.43
848.884	24.41
849.054	26.2
849.224	37.13
849.394	43.72
849.564	35.38
849.733	30.03
849.903	19.96
850.073	12.98
850.243	10.47
850.412	23.69
850.582	30.41
850.752	27.88
850.921	24.37
851.091	16.3
851.26	11.69
851.43	23.49
851.599	36.56
851.769	39.35
851.939	50.88
852.108	52.23
852.278	47.18
852.447	35.76
852.616	42.12
852.786	38.49
852.955	48.55
853.125	47.05
853.294	41.42
853.463	24.64
853.633	23.93
853.802	15.64
853.971	22.27
854.141	21.44
854.31	35.6
854.479	48.55
854.648	51.95
854.818	47.9
854.987	56.49
855.156	54.48
855.325	59.55
855.494	68.04
855.663	75.86
855.832	61.78
856.001	48.55
856.171	46.84
856.34	28.23
856.509	34.56
856.678	31.58
856.847	30.09
857.016	36.4
857.185	22.82
857.353	11.66
857.522	9.44
857.691	17.46
857.86	29.02
858.029	30.83
858.198	35.27
858.367	33.47
858.535	38.7
858.704	45.83
858.873	40.68
859.042	45.54
859.21	48.51
859.379	45.3
859.548	51.77
859.717	54.18
859.885	51.26
860.054	59.29
860.222	58.06
860.391	59.36
860.56	50.95
860.728	57.03
860.897	60.46
861.065	61.13
861.234	61.49
861.402	55.73
861.571	56.68
861.739	60.09
861.908	65.15
862.076	61.61
862.244	57.3
862.413	67.75
862.581	63.87
862.749	78.03
862.918	79.44
863.086	78.5
863.254	87.54
863.423	90.23
863.591	88.81
863.759	80.43
863.927	78.75
864.096	75.2
864.264	66.47
864.432	51.54
864.6	48.12
864.768	50.7
864.936	58.6
865.104	48.85
865.272	48.98
865.44	40.64
865.608	40.71
865.776	48.52
865.944	49.86
866.112	47.09
866.28	56.74
866.448	56.95
866.616	49.7
866.784	44.57
866.952	54.38
867.12	47.55
867.288	47.23
867.455	41.74
867.623	34.07
867.791	30.39
867.959	27.75
868.127	25.44
868.294	20.67
868.462	16.39
868.63	13.84
868.797	3.8
868.965	7.87
869.133	14.43
869.3	20.12
869.468	31.74
869.636	42.35
869.803	47.6
869.971	60.2
870.138	64.1
870.306	66.93
870.473	83.1
870.641	74.96
870.808	63.13
870.975	62.66
871.143	60.81
871.31	61.7
871.478	48.04
871.645	51.55
871.812	48.08
871.98	28.97
872.147	35.07
872.314	34.1
872.482	37.89
872.649	53.39
872.816	50.21
872.983	36.98
873.15	24.87
873.318	14.56
873.485	15.32
873.652	4.1
873.819	19.96
873.986	14.27
874.153	-2.11
874.32	-3.14
874.487	-14.21
874.654	-13.41
874.821	-8.43
874.988	-9.41
875.155	0.82
875.322	-18.79
875.489	-15.12
875.656	-18.05
875.823	0.05
875.99	10.63
876.157	19.38
876.324	19.37
876.49	25.81
876.657	38.76
876.824	41.91
876.991	32.84
877.157	46.36
877.324	54.95
877.491	57.74
877.658	64.24
877.824	62.61
877.991	67.02
878.157	73.35
878.324	76.03
878.491	77.07
878.657	91.55
878.824	107.82
878.99	98.62
879.157	102.04
879.323	112.86
879.49	89.69
879.656	83.57
879.823	84.61
879.989	70.74
880.156	68.26
880.322	67.14
880.488	62.97
880.655	54.99
880.821	61.1
880.987	48.18
881.154	36.95
881.32	33.93
881.486	40.82
881.652	36.64
881.819	40.54
881.985	37.85
882.151	33.98
882.317	30.24
882.483	31.56
882.649	29.88
882.816	29.25
882.982	32.68
883.148	31.52
883.314	28.05
883.48	27.51
883.646	26.85
883.812	27.44
883.978	27.98
884.144	27.4
884.31	26.81
884.476	29.75
884.642	27.08
884.807	23.36
884.973	24.55
885.139	28.07
885.305	30.42
885.471	30.23
885.637	31.8
885.802	30.99
885.968	33.27
886.134	29.02
886.3	20.68
886.465	23.19
886.631	26.61
886.797	32.16
886.962	24.85
887.128	17.09
887.293	16.92
887.459	8.93
887.625	2.42
887.79	2.81
887.956	11.31
888.121	16.47
888.287	19.74
888.452	14.74
888.618	0.41
888.783	6.12
