Data from 2938077_Reflection_2.txt Node
Date: Sat Jul 11 20:20:57 EDT 2015
User: robert
Spectrometer: USB4E03001
Autoset integration time: false
Trigger mode: 4
Integration Time (sec): 1.000000E-1
Scans to average: 10
Electric dark correction enabled: true
Nonlinearity correction enabled: false
Boxcar width: 5
Stray light correction enabled: false
XAxis mode: Wavelengths
Stop averaging: false
Number of Pixels in Spectrum: 3648
>>>>>Begin Spectral Data<<<<<
177.566	169.93
177.785	203.86
178.005	2356.6
178.225	-2782.61
178.445	-12.47
178.665	167.34
178.885	30.24
179.105	82.74
179.324	11.73
179.544	11.37
179.764	57.46
179.984	40.65
180.204	13.6
180.423	183.3
180.643	-160.86
180.863	70.52
181.083	1306.4
181.302	-109.39
181.522	-242.36
181.742	1.54
181.961	129.69
182.181	81.68
182.401	70.45
182.621	103.68
182.84	99.01
183.06	100.99
183.279	313.24
183.499	147.03
183.719	153.07
183.938	49.37
184.158	12.07
184.377	-54.76
184.597	61.57
184.816	35.83
185.036	72
185.256	75.88
185.475	65.26
185.695	312.51
185.914	111.15
186.134	2440
186.353	115.73
186.572	-385.05
186.792	-600.63
187.011	-304.56
187.231	5525.2
187.45	540.23
187.67	484.44
187.889	271.41
188.108	362.59
188.328	249.62
188.547	-861.81
188.766	-744.63
188.986	3.58
189.205	-48.22
189.424	-268.72
189.644	-830.49
189.863	-131.68
190.082	-194.06
190.302	-65.58
190.521	79.77
190.74	130.14
190.959	1251.04
191.178	391.21
191.398	365.99
191.617	-2825
191.836	329.83
192.055	454.55
192.274	-528.11
192.494	433.11
192.713	261.79
192.932	156.46
193.151	120.05
193.37	102.16
193.589	109.64
193.808	90.39
194.027	98.82
194.246	75.17
194.465	61.59
194.685	60.89
194.904	74.49
195.123	71.38
195.342	62.4
195.561	69.32
195.78	78.31
195.999	72.57
196.218	74.78
196.436	76.09
196.655	183.34
196.874	577.19
197.093	1896.84
197.312	269.31
197.531	170.41
197.75	136.8
197.969	122.89
198.188	177.91
198.407	-354.8
198.625	-643.6
198.844	-156.67
199.063	334.98
199.282	80.35
199.501	117.1
199.719	145.65
199.938	240.18
200.157	213.58
200.376	348.29
200.594	171.26
200.813	258.07
201.032	222.88
201.251	126.2
201.469	121.3
201.688	53.41
201.907	74.81
202.125	57.81
202.344	38.61
202.563	87.65
202.781	47.44
203	44.9
203.218	-2.39
203.437	66.12
203.656	158.92
203.874	-472.58
204.093	-110.16
204.311	-109.57
204.53	-428.4
204.748	-241.89
204.967	4.44
205.185	1.9
205.404	-18.06
205.622	-51.72
205.841	-30.49
206.059	-201.33
206.278	360
206.496	509.62
206.715	181.1
206.933	-206.81
207.151	982.57
207.37	67.81
207.588	83
207.806	96.03
208.025	74.65
208.243	59.71
208.461	43.55
208.68	10.73
208.898	20.22
209.116	4.84
209.335	-1.32
209.553	7.19
209.771	8.45
209.989	-27.23
210.208	15.83
210.426	19.09
210.644	28.17
210.862	30.65
211.081	49.98
211.299	51.13
211.517	62.43
211.735	63.97
211.953	44.12
212.171	45.78
212.39	50.03
212.608	51.65
212.826	55.34
213.044	48.87
213.262	60.19
213.48	65.19
213.698	45.28
213.916	22.18
214.134	34.7
214.352	49.21
214.57	42.43
214.788	27.35
215.006	26.24
215.224	51.02
215.442	72.42
215.66	46.39
215.878	32.81
216.096	68.93
216.314	93.71
216.532	74.68
216.75	74.03
216.968	85.91
217.185	96.41
217.403	104.63
217.621	57.92
217.839	47.79
218.057	53.99
218.275	38.47
218.492	23.53
218.71	13.38
218.928	21.25
219.146	41.82
219.363	62.07
219.581	46.76
219.799	23.91
220.017	39.9
220.234	32.93
220.452	15.09
220.67	16.46
220.887	20.19
221.105	33.46
221.323	21.27
221.54	-2.17
221.758	-48.55
221.976	-46.37
222.193	-25.71
222.411	-26.42
222.629	-4.22
222.846	4.53
223.064	35.34
223.281	24.38
223.499	11.64
223.716	27.65
223.934	61.37
224.151	80.24
224.369	41.88
224.586	41.03
224.804	44.88
225.021	8.73
225.239	-35.42
225.456	-38.21
225.674	-13.95
225.891	-28.25
226.108	-5.97
226.326	-18.48
226.543	13.56
226.76	24.41
226.978	17.01
227.195	10.88
227.413	16.75
227.63	20.84
227.847	20.77
228.064	21.03
228.282	17.26
228.499	15.3
228.716	13.49
228.934	10.48
229.151	8.17
229.368	6.85
229.585	9.15
229.802	8.18
230.02	10.15
230.237	8.6
230.454	10.74
230.671	13.73
230.888	14.05
231.105	15.38
231.323	10.98
231.54	12.27
231.757	14.3
231.974	11.28
232.191	8.37
232.408	5.99
232.625	11.7
232.842	2.69
233.059	7.93
233.276	3.75
233.493	1.14
233.71	7.04
233.927	9.27
234.144	13.07
234.361	14.8
234.578	23.71
234.795	21.46
235.012	19.72
235.229	17.74
235.446	16.04
235.663	19.51
235.879	22.58
236.096	21.97
236.313	23.07
236.53	17.7
236.747	20.33
236.964	21.1
237.181	21.23
237.397	19.76
237.614	18.24
237.831	20.55
238.048	18.69
238.264	23.26
238.481	19.56
238.698	11.92
238.915	19.25
239.131	20.03
239.348	18.3
239.565	18.97
239.781	18.52
239.998	19.59
240.215	16.48
240.431	11.71
240.648	9.21
240.865	9.06
241.081	11.87
241.298	9.62
241.514	6.22
241.731	3.65
241.947	5.88
242.164	7.99
242.38	9.88
242.597	9.97
242.814	14.16
243.03	16.83
243.246	18.51
243.463	18.14
243.679	19.82
243.896	22.25
244.112	24.7
244.329	23.82
244.545	24.22
244.762	25.16
244.978	27.48
245.194	25.29
245.411	19.56
245.627	16.07
245.843	16.31
246.06	16.04
246.276	13.3
246.492	12.91
246.709	13.36
246.925	12.43
247.141	11.15
247.357	10.68
247.574	10.56
247.79	11.44
248.006	13.15
248.222	12.44
248.439	12.22
248.655	13.47
248.871	13.55
249.087	12.15
249.303	13.31
249.519	13.54
249.736	13.07
249.952	14.99
250.168	15.48
250.384	13.27
250.6	14.23
250.816	13
251.032	10.4
251.248	10.65
251.464	12.86
251.68	11
251.896	10.99
252.112	12.58
252.328	9.35
252.544	6.86
252.76	7.45
252.976	6.68
253.192	6.3
253.408	8.4
253.624	8.74
253.84	7.76
254.056	6.6
254.272	7.36
254.487	5.07
254.703	4.19
254.919	8.38
255.135	9.68
255.351	10.83
255.567	11.7
255.782	8.38
255.998	1.66
256.214	-0.2
256.43	-0
256.646	-1.61
256.861	1.29
257.077	3.31
257.293	1.75
257.508	-0.75
257.724	-1.21
257.94	-1.83
258.155	-0.28
258.371	3.91
258.587	5.8
258.802	8.15
259.018	8.69
259.234	8.02
259.449	7.71
259.665	7.65
259.88	8.64
260.096	9.37
260.312	9.53
260.527	9.88
260.743	10.24
260.958	9.95
261.174	9.18
261.389	9.22
261.605	8.49
261.82	8.06
262.036	9.22
262.251	8.62
262.466	7.54
262.682	7.18
262.897	8.58
263.113	5.45
263.328	5.74
263.543	6.18
263.759	6.84
263.974	8.25
264.189	9.85
264.405	9.71
264.62	10.01
264.835	9.81
265.051	10.69
265.266	9.03
265.481	12.75
265.696	12.24
265.912	12.36
266.127	12.57
266.342	11.65
266.557	9.38
266.773	9.35
266.988	11.09
267.203	10.63
267.418	11.33
267.633	12
267.848	10.97
268.064	10.93
268.279	8.29
268.494	7.27
268.709	7.92
268.924	8.2
269.139	6.65
269.354	4.36
269.569	3.96
269.784	1.81
269.999	-1.86
270.214	-0.61
270.429	0.79
270.644	2.88
270.859	2.95
271.074	1.36
271.289	2.35
271.504	3.62
271.719	4.56
271.934	5.3
272.149	5.93
272.363	8.54
272.578	8.25
272.793	8.25
273.008	8.62
273.223	9.83
273.438	10.77
273.653	10.62
273.867	9.43
274.082	9.1
274.297	9.6
274.512	9.97
274.726	9.31
274.941	9.29
275.156	8.85
275.371	7.02
275.585	5.84
275.8	4.89
276.015	4.96
276.229	6.74
276.444	6.76
276.659	7.57
276.873	5.81
277.088	5.09
277.302	5.34
277.517	5.81
277.732	8.6
277.946	7.52
278.161	9.3
278.375	10.77
278.59	11.71
278.804	11.4
279.019	10.52
279.233	12.82
279.448	12.63
279.662	12.84
279.877	12.3
280.091	11.14
280.306	12.46
280.52	12.38
280.735	12.1
280.949	11.1
281.163	10.61
281.378	10.12
281.592	10.58
281.806	11.12
282.021	9.68
282.235	9.87
282.449	9.47
282.664	9.23
282.878	8.56
283.092	8.02
283.307	8.89
283.521	9.95
283.735	11.53
283.949	10.69
284.164	10.43
284.378	10.16
284.592	10.9
284.806	11.67
285.02	11.3
285.234	11.42
285.449	12.05
285.663	11.23
285.877	9.91
286.091	8.32
286.305	8.61
286.519	9.14
286.733	9.13
286.947	7.47
287.161	7.47
287.375	7.87
287.589	8.25
287.803	7.83
288.017	7.4
288.231	8.13
288.445	9.17
288.659	8.5
288.873	7.58
289.087	7.93
289.301	7.3
289.515	7.01
289.729	6.38
289.943	6.22
290.157	6.09
290.371	7.26
290.584	8.18
290.798	7.89
291.012	6.84
291.226	6.78
291.44	7.92
291.654	8.04
291.867	7.01
292.081	7.39
292.295	6.96
292.509	7.71
292.722	4.88
292.936	4.14
293.15	4.2
293.364	6.41
293.577	8.8
293.791	8.49
294.005	11.18
294.218	12.02
294.432	11.34
294.645	12.38
294.859	12.32
295.073	13.35
295.286	15.11
295.5	15.57
295.713	15.41
295.927	14.15
296.14	14.73
296.354	13.04
296.568	12.53
296.781	13.02
296.994	10.97
297.208	10.2
297.421	10.58
297.635	9.4
297.848	8.86
298.062	8.71
298.275	8.49
298.489	6.66
298.702	7.1
298.915	7.46
299.129	7.14
299.342	8.35
299.555	8.93
299.769	8.23
299.982	6.74
300.195	7
300.409	7.96
300.622	7.69
300.835	8.22
301.048	7.61
301.262	9.99
301.475	10.94
301.688	12.18
301.901	12.94
302.115	12.62
302.328	14.04
302.541	13.72
302.754	12.76
302.967	12.37
303.18	12.9
303.393	13.81
303.607	12.96
303.82	12.13
304.033	11.17
304.246	10.04
304.459	10.7
304.672	10.3
304.885	10.35
305.098	8.29
305.311	7.02
305.524	8.28
305.737	8.55
305.95	8.41
306.163	9.46
306.376	8.81
306.589	9.3
306.802	10.31
307.015	11.68
307.228	11.93
307.44	15.13
307.653	17.93
307.866	17.75
308.079	17.87
308.292	16.4
308.505	16.12
308.718	16.47
308.93	17.24
309.143	17.72
309.356	16.78
309.569	16.55
309.781	16.74
309.994	16.28
310.207	14.83
310.42	14.76
310.632	14.51
310.845	14.58
311.058	14.48
311.27	14.64
311.483	13.12
311.696	13.05
311.908	13.17
312.121	11.83
312.333	10.6
312.546	11.33
312.759	10.49
312.971	10.1
313.184	10.51
313.396	10.79
313.609	8.54
313.821	9.12
314.034	10.04
314.246	9.77
314.459	10.09
314.671	11.38
314.884	10.96
315.096	11.11
315.309	11.46
315.521	9.4
315.733	8.21
315.946	7.56
316.158	8.55
316.371	9.25
316.583	9.04
316.795	8.54
317.008	7.92
317.22	8.63
317.432	8.04
317.644	8.55
317.857	8.52
318.069	9.36
318.281	9.68
318.494	9.61
318.706	9.12
318.918	8.88
319.13	9.11
319.342	9.09
319.555	8.67
319.767	11.26
319.979	10.03
320.191	10.17
320.403	9.28
320.615	11.04
320.827	11.76
321.039	10.86
321.252	12.57
321.464	12.33
321.676	13.34
321.888	10.98
322.1	7.99
322.312	9.58
322.524	11.51
322.736	13.88
322.948	13.37
323.16	11.98
323.372	11.72
323.584	10.49
323.796	10.91
324.007	11.02
324.219	13.21
324.431	14.52
324.643	13.65
324.855	12.57
325.067	12.59
325.279	11.76
325.491	12.44
325.702	12.2
325.914	12.65
326.126	12.98
326.338	10.18
326.55	9.63
326.761	10.36
326.973	11.35
327.185	11.05
327.396	9.39
327.608	10.36
327.82	10.33
328.032	11.72
328.243	11.07
328.455	11.32
328.666	15.07
328.878	15.12
329.09	13.81
329.301	13.71
329.513	14.3
329.725	15.07
329.936	14.68
330.148	14.77
330.359	13.3
330.571	14.27
330.782	14.45
330.994	12.6
331.205	12.18
331.417	11.56
331.628	11.33
331.84	11.37
332.051	10.75
332.262	12.99
332.474	12.48
332.685	13.61
332.897	13.45
333.108	13.18
333.319	14.64
333.531	14.43
333.742	15.49
333.953	16.97
334.165	17.2
334.376	18.02
334.587	16.47
334.799	17.56
335.01	17.1
335.221	16.69
335.432	16.81
335.644	15.85
335.855	16.97
336.066	17.29
336.277	16.58
336.488	16.31
336.7	17
336.911	17.82
337.122	17.05
337.333	15.78
337.544	16.98
337.755	16.79
337.966	16.57
338.177	16.98
338.388	16.45
338.599	16.8
338.811	17.62
339.022	17.56
339.233	17.44
339.444	16.2
339.655	17.81
339.866	15.91
340.076	15.84
340.287	16.55
340.498	15.8
340.709	15.94
340.92	15.51
341.131	13.56
341.342	13.55
341.553	12.97
341.764	12.38
341.975	12.87
342.185	13.19
342.396	12.85
342.607	13.06
342.818	12.51
343.029	11.96
343.239	11.82
343.45	13.02
343.661	11.34
343.872	11.33
344.082	13.05
344.293	12.8
344.504	13.19
344.714	12.48
344.925	12.13
345.136	12.49
345.346	11.96
345.557	11.62
345.768	11.05
345.978	11.72
346.189	11.68
346.399	11.49
346.61	10.75
346.821	11.5
347.031	12.53
347.242	11.79
347.452	13.58
347.663	14.47
347.873	13.59
348.084	13.77
348.294	13.91
348.504	13.77
348.715	13.31
348.925	13.55
349.136	13.26
349.346	13.2
349.557	13.47
349.767	11.19
349.977	11.51
350.188	11.47
350.398	11.66
350.608	11.98
350.819	12.8
351.029	12.81
351.239	13.72
351.449	13.71
351.66	13.5
351.87	14.44
352.08	14.54
352.29	14.38
352.501	15.55
352.711	15.69
352.921	15.31
353.131	13.7
353.341	13.42
353.552	13.01
353.762	13.17
353.972	12.67
354.182	11.89
354.392	11.82
354.602	11.28
354.812	11.67
355.022	11.57
355.232	11.57
355.442	12.55
355.652	13.17
355.862	12.36
356.072	11.44
356.282	12.24
356.492	12.48
356.702	12.61
356.912	12.7
357.122	12.28
357.332	12.7
357.542	13.12
357.752	13.09
357.962	13.13
358.171	13.13
358.381	13.19
358.591	14.37
358.801	14.4
359.011	14.66
359.221	14.99
359.43	14.99
359.64	14.91
359.85	14.56
360.06	13.86
360.269	13.55
360.479	13.81
360.689	14.06
360.899	12.39
361.108	12.59
361.318	12.72
361.528	12.01
361.737	12.34
361.947	12.63
362.156	12.18
362.366	12.48
362.576	12.87
362.785	13.13
362.995	13.16
363.204	13.62
363.414	12.91
363.623	12.78
363.833	13.5
364.042	12.33
364.252	11.73
364.461	12.4
364.671	12.39
364.88	12.12
365.09	11.47
365.299	11.09
365.509	10.99
365.718	11.39
365.927	10.87
366.137	11.09
366.346	11.99
366.555	12.84
366.765	12.51
366.974	12.44
367.183	11.69
367.393	11.15
367.602	11.16
367.811	11.82
368.021	11.24
368.23	11.15
368.439	10.79
368.648	10.35
368.857	9.43
369.067	9.13
369.276	9.15
369.485	10.03
369.694	10.68
369.903	11.55
370.112	10.72
370.321	10.9
370.531	11.79
370.74	11.06
370.949	11.15
371.158	10.77
371.367	10.98
371.576	11.15
371.785	11.67
371.994	11.62
372.203	10.53
372.412	11.24
372.621	11.58
372.83	11.89
373.039	11.83
373.248	11.2
373.457	11.22
373.666	11.15
373.874	11.38
374.083	10.72
374.292	11.03
374.501	10.86
374.71	9.95
374.919	10.1
375.128	9.28
375.336	9.54
375.545	10.08
375.754	10.24
375.963	10.45
376.171	9.82
376.38	10.13
376.589	9.72
376.798	9.99
377.006	10.49
377.215	9.85
377.424	10
377.632	9.88
377.841	10.01
378.05	10.04
378.258	9.89
378.467	9.58
378.675	8.76
378.884	9.01
379.093	9.27
379.301	8.83
379.51	9.21
379.718	9
379.927	9.3
380.135	9.08
380.344	8.48
380.552	8.83
380.761	9.48
380.969	9.46
381.177	9.23
381.386	9.19
381.594	9.02
381.803	8.78
382.011	8.48
382.219	8.68
382.428	9.52
382.636	9.92
382.845	9.25
383.053	8.94
383.261	8.81
383.469	8.77
383.678	8.28
383.886	8.26
384.094	8.66
384.302	8.68
384.511	8.11
384.719	7.47
384.927	7.02
385.135	6.88
385.343	7.07
385.552	6.7
385.76	6.37
385.968	6.92
386.176	6.95
386.384	6.46
386.592	6.98
386.8	6.79
387.008	6.9
387.216	7.23
387.424	7.2
387.633	7.06
387.841	7.44
388.049	7.65
388.257	7.24
388.465	7.17
388.672	7.03
388.88	6.37
389.088	6.57
389.296	6.08
389.504	5.89
389.712	5.93
389.92	5.75
390.128	5.84
390.336	5.72
390.544	5.83
390.751	6.05
390.959	6.13
391.167	5.95
391.375	6.13
391.583	6.55
391.79	6.61
391.998	6.73
392.206	6.98
392.414	7.07
392.621	7.21
392.829	6.8
393.037	6.43
393.244	6.76
393.452	6.92
393.66	6.5
393.867	6.44
394.075	6.22
394.283	6.28
394.49	6.15
394.698	5.92
394.905	5.81
395.113	6.18
395.32	6.19
395.528	5.83
395.735	5.98
395.943	6.52
396.15	6.01
396.358	6.3
396.565	6.41
396.773	6.51
396.98	6.4
397.188	6.25
397.395	6.2
397.602	6.5
397.81	6.68
398.017	6.7
398.225	6.49
398.432	6.85
398.639	6.65
398.847	6.67
399.054	6.19
399.261	6.59
399.468	6.61
399.676	6.09
399.883	6.01
400.09	5.89
400.297	5.7
400.505	5.66
400.712	5.7
400.919	5.85
401.126	5.65
401.333	6.06
401.54	5.51
401.748	5.56
401.955	5.63
402.162	5.62
402.369	5.53
402.576	5.64
402.783	5.86
402.99	5.95
403.197	6
403.404	5.96
403.611	5.84
403.818	6
404.025	5.86
404.232	6.16
404.439	5.85
404.646	6.04
404.853	6.02
405.06	5.82
405.267	5.56
405.474	5.4
405.681	5.39
405.887	5.21
406.094	5.35
406.301	5.5
406.508	5.28
406.715	5.21
406.922	5.11
407.128	5.29
407.335	5.42
407.542	5.54
407.749	5.83
407.955	5.65
408.162	5.81
408.369	5.7
408.575	5.62
408.782	5.59
408.989	5.88
409.195	6.01
409.402	5.77
409.609	5.34
409.815	5.24
410.022	4.99
410.228	5.19
410.435	5.14
410.642	5.14
410.848	5.06
411.055	5.1
411.261	5
411.468	4.69
411.674	4.51
411.881	4.68
412.087	4.74
412.294	4.87
412.5	4.88
412.706	4.75
412.913	4.93
413.119	5.3
413.326	5.36
413.532	5.52
413.738	5.67
413.945	5.65
414.151	5.78
414.357	5.46
414.564	5.39
414.77	5.27
414.976	5.46
415.182	5.37
415.389	5.1
415.595	5.23
415.801	5.11
416.007	4.81
416.214	4.65
416.42	4.62
416.626	4.99
416.832	5.06
417.038	5.06
417.244	4.92
417.45	4.81
417.657	5.05
417.863	5.04
418.069	5.05
418.275	5.25
418.481	5.47
418.687	5.47
418.893	5.55
419.099	5.6
419.305	5.58
419.511	5.7
419.717	5.75
419.923	5.64
420.129	5.58
420.335	5.67
420.541	5.78
420.746	5.76
420.952	5.77
421.158	5.45
421.364	5.41
421.57	5.34
421.776	5.25
421.982	5.28
422.187	5.19
422.393	5.2
422.599	5.13
422.805	5.02
423.01	4.92
423.216	4.95
423.422	5.07
423.628	5.11
423.833	5.21
424.039	5.15
424.245	5.01
424.45	5.14
424.656	5.15
424.862	5.13
425.067	5.02
425.273	5.08
425.478	4.98
425.684	4.92
425.889	4.82
426.095	4.82
426.301	4.91
426.506	4.95
426.712	4.78
426.917	4.74
427.123	4.82
427.328	4.8
427.533	4.81
427.739	4.8
427.944	4.9
428.15	4.8
428.355	4.78
428.561	4.91
428.766	5.12
428.971	5.24
429.177	5.01
429.382	4.66
429.587	4.76
429.793	4.84
429.998	4.87
430.203	4.94
430.408	4.77
430.614	4.68
430.819	4.67
431.024	4.52
431.229	4.24
431.434	4.41
431.64	4.64
431.845	4.9
432.05	4.7
432.255	4.81
432.46	4.7
432.665	4.83
432.87	4.95
433.076	4.91
433.281	4.98
433.486	5.05
433.691	5.16
433.896	5.45
434.101	5.42
434.306	5.56
434.511	5.59
434.716	5.57
434.921	5.65
435.126	5.68
435.331	5.75
435.535	5.77
435.74	6.11
435.945	6.13
436.15	5.97
436.355	5.7
436.56	5.69
436.765	5.64
436.97	5.66
437.174	5.6
437.379	5.53
437.584	5.3
437.789	4.95
437.993	4.72
438.198	4.65
438.403	4.56
438.608	4.52
438.812	4.33
439.017	4.26
439.222	4.15
439.426	4.39
439.631	4.43
439.836	4.63
440.04	4.84
440.245	4.82
440.45	4.77
440.654	4.82
440.859	4.92
441.063	5.02
441.268	5.05
441.472	5.16
441.677	4.99
441.881	4.69
442.086	4.59
442.29	4.74
442.495	4.83
442.699	4.92
442.904	4.73
443.108	4.6
443.312	4.74
443.517	4.74
443.721	4.77
443.925	4.55
444.13	4.92
444.334	4.77
444.538	4.67
444.743	4.71
444.947	4.76
445.151	4.68
445.356	4.73
445.56	4.64
445.764	4.63
445.968	4.65
446.173	4.92
446.377	4.82
446.581	4.94
446.785	4.89
446.989	4.78
447.193	4.73
447.398	4.79
447.602	4.86
447.806	4.92
448.01	4.96
448.214	4.94
448.418	4.88
448.622	4.81
448.826	4.81
449.03	4.88
449.234	4.88
449.438	4.83
449.642	5.02
449.846	4.88
450.05	4.8
450.254	4.83
450.458	4.76
450.662	4.69
450.866	4.7
451.069	4.66
451.273	4.61
451.477	4.75
451.681	4.77
451.885	4.82
452.089	4.87
452.292	4.83
452.496	4.77
452.7	4.79
452.904	4.82
453.107	4.92
453.311	4.89
453.515	4.7
453.719	4.44
453.922	4.48
454.126	4.35
454.33	4.39
454.533	4.39
454.737	4.24
454.94	4.26
455.144	4.29
455.348	4.33
455.551	4.34
455.755	4.36
455.958	4.37
456.162	4.32
456.365	4.33
456.569	4.33
456.772	4.32
456.976	4.36
457.179	4.41
457.383	4.33
457.586	4.17
457.79	3.96
457.993	4.12
458.196	4.16
458.4	4.24
458.603	4.31
458.807	4.3
459.01	4.4
459.213	4.44
459.417	4.4
459.62	4.39
459.823	4.54
460.026	4.7
460.23	4.6
460.433	4.67
460.636	4.63
460.839	4.56
461.042	4.64
461.246	4.56
461.449	4.66
461.652	4.65
461.855	4.71
462.058	4.67
462.261	4.68
462.464	4.82
462.668	4.78
462.871	4.82
463.074	4.85
463.277	4.87
463.48	4.92
463.683	4.81
463.886	4.88
464.089	4.89
464.292	4.89
464.495	4.93
464.698	5.02
464.901	5.09
465.104	5.07
465.306	5.18
465.509	5.21
465.712	5.32
465.915	5.27
466.118	5.18
466.321	5.19
466.524	5.08
466.726	5.06
466.929	5.13
467.132	4.99
467.335	4.99
467.538	4.82
467.74	4.74
467.943	4.69
468.146	4.8
468.348	4.87
468.551	5.08
468.754	5.25
468.956	5.06
469.159	4.82
469.362	4.86
469.564	4.82
469.767	4.98
469.969	4.99
470.172	4.92
470.375	4.81
470.577	4.84
470.78	4.47
470.982	4.19
471.185	4.33
471.387	4.34
471.59	4.66
471.792	4.7
471.995	4.55
472.197	4.66
472.399	4.6
472.602	4.65
472.804	4.69
473.007	4.97
473.209	5.23
473.411	5.38
473.614	5.63
473.816	5.43
474.018	5.37
474.22	5.36
474.423	5.2
474.625	4.96
474.827	5.05
475.03	4.97
475.232	4.89
475.434	4.78
475.636	4.59
475.838	4.43
476.04	4.54
476.243	4.54
476.445	4.59
476.647	4.64
476.849	4.8
477.051	4.67
477.253	4.64
477.455	4.45
477.657	4.6
477.859	4.61
478.061	4.57
478.263	4.29
478.465	4.31
478.667	4.28
478.869	4.28
479.071	4.32
479.273	4.34
479.475	4.36
479.677	4.37
479.879	4.24
480.081	4.25
480.283	4.4
480.485	4.51
480.686	4.44
480.888	4.5
481.09	4.41
481.292	4.61
481.494	4.76
481.695	4.73
481.897	4.83
482.099	4.78
482.301	4.77
482.502	4.69
482.704	4.69
482.906	4.74
483.107	4.73
483.309	4.75
483.511	4.66
483.712	4.63
483.914	4.68
484.115	4.71
484.317	4.72
484.519	4.72
484.72	4.73
484.922	4.74
485.123	4.71
485.325	4.69
485.526	4.73
485.728	4.75
485.929	4.7
486.131	4.66
486.332	4.54
486.534	4.56
486.735	4.56
486.936	4.49
487.138	4.49
487.339	4.55
487.541	4.54
487.742	4.58
487.943	4.6
488.144	4.65
488.346	4.63
488.547	4.71
488.748	4.68
488.95	4.65
489.151	4.73
489.352	4.74
489.553	4.75
489.755	4.71
489.956	4.54
490.157	4.54
490.358	4.54
490.559	4.61
490.76	4.5
490.961	4.48
491.163	4.52
491.364	4.42
491.565	4.35
491.766	4.37
491.967	4.51
492.168	4.58
492.369	4.58
492.57	4.56
492.771	4.44
492.972	4.53
493.173	4.58
493.374	4.59
493.575	4.75
493.776	4.85
493.976	4.84
494.177	4.72
494.378	4.8
494.579	4.86
494.78	4.9
494.981	4.86
495.182	4.68
495.382	4.59
495.583	4.72
495.784	4.62
495.985	4.57
496.185	4.64
496.386	4.69
496.587	4.64
496.788	4.54
496.988	4.51
497.189	4.6
497.39	4.65
497.59	4.63
497.791	4.6
497.992	4.44
498.192	4.48
498.393	4.44
498.593	4.4
498.794	4.43
498.994	4.44
499.195	4.52
499.395	4.65
499.596	4.81
499.796	4.85
499.997	4.69
500.197	4.91
500.398	4.91
500.598	4.93
500.799	4.95
500.999	4.88
501.199	4.96
501.4	4.77
501.6	4.73
501.801	4.67
502.001	4.89
502.201	5.16
502.402	5.03
502.602	5.16
502.802	5.12
503.002	5.31
503.203	5.24
503.403	5.19
503.603	5.46
503.803	5.54
504.003	5.57
504.204	5.39
504.404	5.06
504.604	5.35
504.804	5.1
505.004	5.09
505.204	4.94
505.404	5
505.604	5.15
505.804	5.11
506.005	5.03
506.205	5.03
506.405	5.04
506.605	5.2
506.805	4.91
507.005	5.05
507.204	5.09
507.404	5.1
507.604	5.16
507.804	5.07
508.004	4.91
508.204	4.84
508.404	4.82
508.604	4.84
508.804	4.91
509.003	5
509.203	4.9
509.403	4.94
509.603	4.94
509.803	4.95
510.002	4.87
510.202	4.82
510.402	4.79
510.602	4.9
510.801	4.85
511.001	4.85
511.201	4.88
511.4	4.99
511.6	4.98
511.8	5
511.999	4.99
512.199	5.07
512.398	5.28
512.598	5.35
512.797	5.27
512.997	5.41
513.197	5.43
513.396	5.55
513.596	5.49
513.795	5.52
513.994	5.52
514.194	5.63
514.393	5.53
514.593	5.52
514.792	5.59
514.992	5.53
515.191	5.55
515.39	5.5
515.59	5.43
515.789	5.57
515.988	5.6
516.188	5.48
516.387	5.49
516.586	5.74
516.786	5.6
516.985	5.62
517.184	5.74
517.383	5.59
517.582	5.6
517.782	5.58
517.981	5.55
518.18	5.55
518.379	5.68
518.578	5.63
518.777	5.5
518.976	5.67
519.176	5.55
519.375	5.52
519.574	5.6
519.773	5.6
519.972	5.66
520.171	5.69
520.37	5.62
520.569	5.52
520.768	5.43
520.967	5.49
521.166	5.35
521.365	5.44
521.564	5.47
521.762	5.38
521.961	5.44
522.16	5.36
522.359	5.33
522.558	5.45
522.757	5.4
522.956	5.46
523.154	5.57
523.353	5.58
523.552	5.61
523.751	5.52
523.949	5.55
524.148	5.46
524.347	5.34
524.546	5.41
524.744	5.32
524.943	5.46
525.142	5.51
525.34	5.41
525.539	5.52
525.737	5.57
525.936	5.61
526.135	5.69
526.333	5.72
526.532	5.85
526.73	5.84
526.929	5.83
527.127	5.86
527.326	5.84
527.524	5.83
527.723	5.82
527.921	5.73
528.12	5.83
528.318	5.84
528.516	5.89
528.715	5.91
528.913	5.91
529.112	5.94
529.31	5.94
529.508	6.02
529.707	6.05
529.905	6
530.103	6.05
530.301	5.98
530.5	6.01
530.698	6.01
530.896	5.97
531.094	5.98
531.293	6
531.491	6
531.689	5.9
531.887	5.9
532.085	6.01
532.283	6.11
532.481	6.15
532.68	6.21
532.878	6.18
533.076	6.25
533.274	6.3
533.472	6.29
533.67	6.36
533.868	6.47
534.066	6.54
534.264	6.64
534.462	6.65
534.66	6.67
534.858	6.61
535.056	6.69
535.253	6.73
535.451	6.73
535.649	6.77
535.847	6.76
536.045	6.8
536.243	6.88
536.441	6.83
536.638	6.77
536.836	6.84
537.034	6.87
537.232	6.76
537.43	6.77
537.627	6.73
537.825	6.73
538.023	6.64
538.22	6.56
538.418	6.47
538.616	6.45
538.813	6.57
539.011	6.53
539.209	6.65
539.406	6.82
539.604	6.85
539.801	6.94
539.999	7.05
540.196	7.15
540.394	7.12
540.591	7.11
540.789	7.02
540.986	6.96
541.184	7
541.381	6.92
541.579	6.93
541.776	6.97
541.974	7
542.171	6.99
542.368	7.04
542.566	7.04
542.763	7.06
542.96	7.16
543.158	7.22
543.355	7.22
543.552	7.35
543.75	7.42
543.947	7.51
544.144	7.64
544.341	7.68
544.539	7.6
544.736	7.67
544.933	7.86
545.13	7.92
545.327	8.01
545.524	8.09
545.722	8.09
545.919	8.11
546.116	8.12
546.313	8.04
546.51	8.19
546.707	8.32
546.904	8.32
547.101	8.09
547.298	8.11
547.495	8.07
547.692	8.16
547.889	8.13
548.086	8.03
548.283	7.94
548.48	7.95
548.677	7.91
548.874	7.85
549.07	7.95
549.267	8.38
549.464	8.41
549.661	8.71
549.858	8.71
550.055	8.94
550.251	8.97
550.448	9.25
550.645	9.38
550.842	9.24
551.038	9.17
551.235	9.14
551.432	8.81
551.628	8.93
551.825	8.83
552.022	8.92
552.218	8.74
552.415	9.03
552.612	8.95
552.808	8.86
553.005	9
553.201	9.23
553.398	9.19
553.594	9.24
553.791	9.24
553.987	9.11
554.184	8.99
554.38	9.05
554.577	8.9
554.773	9.03
554.97	9.32
555.166	9.38
555.362	9.29
555.559	9.6
555.755	9.65
555.952	9.62
556.148	9.71
556.344	9.73
556.541	9.95
556.737	10.09
556.933	9.9
557.129	9.8
557.326	9.84
557.522	10.04
557.718	9.85
557.914	10.01
558.11	10.08
558.307	10.22
558.503	10.46
558.699	10.29
558.895	10.2
559.091	10.11
559.287	9.92
559.483	10.02
559.679	10.05
559.876	10.19
560.072	10.28
560.268	10.56
560.464	10.52
560.66	10.34
560.856	10.4
561.052	10.47
561.247	10.63
561.443	10.82
561.639	10.84
561.835	10.93
562.031	10.98
562.227	11.02
562.423	10.76
562.619	10.86
562.815	11.03
563.01	10.91
563.206	10.88
563.402	10.75
563.598	10.85
563.793	10.82
563.989	10.63
564.185	10.51
564.381	10.45
564.576	10.64
564.772	10.63
564.968	10.65
565.163	10.91
565.359	11.04
565.555	11.19
565.75	10.98
565.946	10.9
566.141	11.01
566.337	11.11
566.532	11.05
566.728	10.94
566.923	10.88
567.119	10.83
567.314	10.72
567.51	10.64
567.705	10.58
567.901	10.84
568.096	11.03
568.292	11.16
568.487	10.96
568.682	11.09
568.878	11.15
569.073	11.3
569.268	11.28
569.464	11.5
569.659	11.65
569.854	11.57
570.05	11.64
570.245	11.59
570.44	11.48
570.635	11.58
570.831	11.63
571.026	11.66
571.221	11.46
571.416	11.55
571.611	11.39
571.806	11.53
572.002	11.82
572.197	11.73
572.392	11.76
572.587	11.94
572.782	12.06
572.977	12.06
573.172	12
573.367	12.15
573.562	12.13
573.757	12.11
573.952	12.06
574.147	11.91
574.342	11.91
574.537	11.89
574.732	11.62
574.927	11.79
575.121	11.69
575.316	11.73
575.511	11.88
575.706	11.77
575.901	12.08
576.096	11.84
576.29	11.99
576.485	11.85
576.68	11.77
576.875	11.92
577.069	11.87
577.264	12.05
577.459	12.12
577.654	11.87
577.848	12.03
578.043	11.83
578.238	12.12
578.432	11.96
578.627	12.14
578.821	12.42
579.016	12.4
579.21	12.47
579.405	12.34
579.6	12.41
579.794	12.7
579.989	12.97
580.183	13.11
580.378	13.13
580.572	13.39
580.766	13.37
580.961	12.86
581.155	12.72
581.35	12.72
581.544	12.92
581.738	13.09
581.933	12.92
582.127	12.89
582.321	12.72
582.516	12.67
582.71	12.55
582.904	12.38
583.099	12.69
583.293	12.79
583.487	12.68
583.681	12.4
583.875	12.52
584.07	12.56
584.264	12.44
584.458	12.65
584.652	12.64
584.846	12.53
585.04	12.7
585.234	12.5
585.428	12.5
585.623	12.4
585.817	12.56
586.011	12.14
586.205	12.29
586.399	12.52
586.593	12.5
586.787	12.41
586.981	12.58
587.174	12.81
587.368	12.7
587.562	12.84
587.756	12.82
587.95	13.12
588.144	13.24
588.338	13.15
588.532	12.99
588.725	12.58
588.919	12.84
589.113	12.67
589.307	12.55
589.501	12.88
589.694	12.9
589.888	12.89
590.082	12.46
590.275	12.46
590.469	12.44
590.663	12.27
590.856	12.4
591.05	12.34
591.244	12.48
591.437	12.54
591.631	12.7
591.824	12.71
592.018	12.71
592.212	12.87
592.405	12.96
592.599	13.28
592.792	13.45
592.986	13.34
593.179	13.22
593.372	12.94
593.566	12.86
593.759	12.61
593.953	12.44
594.146	12.77
594.339	12.89
594.533	12.66
594.726	12.58
594.92	12.5
595.113	12.88
595.306	12.84
595.499	13.18
595.693	13.35
595.886	13.32
596.079	13.42
596.272	13.36
596.466	13.13
596.659	13.28
596.852	12.98
597.045	12.91
597.238	12.87
597.431	12.93
597.624	12.86
597.818	12.77
598.011	12.74
598.204	12.66
598.397	12.61
598.59	12.74
598.783	12.74
598.976	12.8
599.169	13.06
599.362	13.05
599.555	13.12
599.748	12.79
599.941	12.74
600.134	13.02
600.326	13.16
600.519	13.09
600.712	13.02
600.905	12.82
601.098	12.85
601.291	12.64
601.483	12.45
601.676	12.24
601.869	12.52
602.062	12.61
602.255	12.55
602.447	12.54
602.64	12.72
602.833	12.77
603.025	12.93
603.218	13.15
603.411	13.29
603.603	13.33
603.796	13.68
603.989	13.68
604.181	13.5
604.374	13.48
604.566	13.39
604.759	13.18
604.951	13.2
605.144	13.22
605.336	13.11
605.529	13.07
605.721	13.2
605.914	12.99
606.106	12.91
606.299	13.03
606.491	12.96
606.683	12.9
606.876	12.99
607.068	13.13
607.26	12.99
607.453	12.85
607.645	13
607.837	13.03
608.03	12.98
608.222	13.07
608.414	13.04
608.606	13.07
608.799	13.1
608.991	13.03
609.183	12.85
609.375	13.15
609.567	13.19
609.759	13.1
609.952	12.92
610.144	13.06
610.336	13
610.528	12.97
610.72	12.91
610.912	12.94
611.104	12.85
611.296	12.94
611.488	12.74
611.68	12.72
611.872	12.73
612.064	13.02
612.256	12.77
612.448	12.99
612.64	13.07
612.832	13.14
613.023	13.2
613.215	13.3
613.407	13.37
613.599	13.14
613.791	13.16
613.983	12.86
614.174	12.69
614.366	12.75
614.558	12.23
614.75	12.14
614.941	12.35
615.133	12.49
615.325	12.46
615.516	12.37
615.708	12.64
615.9	12.62
616.091	12.52
616.283	12.7
616.475	12.72
616.666	12.99
616.858	12.99
617.049	12.62
617.241	12.7
617.432	12.99
617.624	13.01
617.815	13.04
618.007	13.24
618.198	13.61
618.39	13.54
618.581	13.64
618.773	13.84
618.964	13.96
619.155	14.25
619.347	13.89
619.538	13.8
619.729	14.04
619.921	13.87
620.112	13.99
620.303	13.66
620.494	13.59
620.686	13.53
620.877	13.44
621.068	13.26
621.259	13.41
621.451	13.63
621.642	13.63
621.833	13.42
622.024	13.53
622.215	13.09
622.406	13.33
622.597	13.22
622.788	13.07
622.98	13.13
623.171	13.32
623.362	13.23
623.553	13.26
623.744	13.49
623.935	13.4
624.126	13.22
624.317	13.49
624.508	13.6
624.698	13.97
624.889	14.08
625.08	13.88
625.271	13.82
625.462	13.85
625.653	13.88
625.844	13.38
626.034	13.51
626.225	13.63
626.416	13.35
626.607	13.33
626.798	13.16
626.988	13.27
627.179	13.65
627.37	13.72
627.56	13.63
627.751	13.59
627.942	13.92
628.132	13.88
628.323	13.85
628.514	14.05
628.704	13.79
628.895	13.76
629.085	13.65
629.276	13.24
629.466	13.27
629.657	13.27
629.847	13.08
630.038	12.88
630.228	12.81
630.419	12.99
630.609	13.18
630.8	13.4
630.99	13.1
631.181	12.97
631.371	12.97
631.561	12.98
631.752	13.04
631.942	12.96
632.132	12.98
632.323	13.15
632.513	13.09
632.703	12.87
632.893	12.87
633.084	13.27
633.274	13.43
633.464	13.46
633.654	13.33
633.844	13.06
634.034	13.39
634.225	13.42
634.415	12.98
634.605	12.94
634.795	12.96
634.985	12.85
635.175	12.47
635.365	12.85
635.555	13.15
635.745	13.32
635.935	13.45
636.125	13.1
636.315	13.29
636.505	14.05
636.695	13.86
636.885	13.73
637.075	13.9
637.265	14.17
637.455	14.01
637.644	13.76
637.834	13.55
638.024	13.44
638.214	13.8
638.404	13.41
638.593	12.89
638.783	12.88
638.973	13.56
639.163	13.52
639.352	13.46
639.542	13.12
639.732	13.17
639.921	13.15
640.111	13.27
640.301	13.16
640.49	13.29
640.68	13.59
640.87	13.91
641.059	13.42
641.249	12.93
641.438	13.32
641.628	13.63
641.817	13.51
642.007	13.56
642.196	13.74
642.386	13.67
642.575	13.92
642.764	13.76
642.954	13.82
643.143	14.02
643.333	14.31
643.522	14.16
643.711	13.89
643.901	13.95
644.09	13.96
644.279	13.85
644.469	13.71
644.658	13.19
644.847	12.78
645.036	12.36
645.226	12.18
645.415	12.73
645.604	12.44
645.793	12.29
645.982	12.63
646.171	12.59
646.361	12.3
646.55	12.46
646.739	12.77
646.928	13.18
647.117	13.43
647.306	13.25
647.495	13.15
647.684	13.46
647.873	13.68
648.062	13.24
648.251	13.47
648.44	13.66
648.629	13.42
648.818	13.7
649.007	13.62
649.196	13.67
649.384	13.53
649.573	13.43
649.762	13.16
649.951	13.16
650.14	13.71
650.328	13.92
650.517	13.73
650.706	14.52
650.895	14.29
651.083	14.14
651.272	14.09
651.461	14.2
651.65	13.9
651.838	14.06
652.027	14.46
652.216	13.95
652.404	13.66
652.593	13.8
652.781	13.37
652.97	13.31
653.158	13.16
653.347	13.22
653.535	13.16
653.724	13.19
653.912	12.94
654.101	12.57
654.289	12.69
654.478	12.55
654.666	12.5
654.855	12.31
655.043	12.07
655.231	12.46
655.42	12.26
655.608	12.43
655.796	12.43
655.985	12.84
656.173	12.46
656.361	12.26
656.55	12.13
656.738	11.99
656.926	12.13
657.114	12.59
657.302	12.52
657.491	12.58
657.679	12.68
657.867	12.77
658.055	12.49
658.243	12.59
658.431	12.81
658.619	13.07
658.807	13.46
658.996	13.35
659.184	13.27
659.372	13.29
659.56	13.22
659.748	12.98
659.936	12.69
660.124	12.52
660.311	12.68
660.499	12.77
660.687	12.8
660.875	12.36
661.063	12.65
661.251	12.42
661.439	12.46
661.627	13.22
661.814	13.71
662.002	14.34
662.19	14.62
662.378	14.45
662.565	14.31
662.753	13.96
662.941	14.5
663.129	14.21
663.316	14.67
663.504	15.27
663.692	14.21
663.879	13.79
664.067	13.52
664.254	13.5
664.442	13.94
664.63	13.99
664.817	14.28
665.005	13.84
665.192	13.91
665.38	13.72
665.567	13.28
665.755	13.42
665.942	13.75
666.13	13.8
666.317	13.46
666.504	13.69
666.692	13.69
666.879	13.63
667.067	13.56
667.254	13.33
667.441	13.78
667.629	13.86
667.816	14.11
668.003	14.27
668.19	14.44
668.378	14.77
668.565	14.15
668.752	14.17
668.939	14.32
669.127	14.74
669.314	15.06
669.501	14.84
669.688	14.2
669.875	14.07
670.062	13.91
670.249	13.73
670.436	13.48
670.623	13.74
670.81	14
670.997	13.87
671.184	13.67
671.371	13.81
671.558	13.52
671.745	13.94
671.932	14.24
672.119	14.47
672.306	14.65
672.493	15.17
672.68	14.97
672.867	14.24
673.054	14.19
673.24	13.88
673.427	13.89
673.614	14.14
673.801	14.26
673.988	14.02
674.174	13.72
674.361	13.42
674.548	13.43
674.734	13.75
674.921	14.09
675.108	14.27
675.294	14.46
675.481	14.4
675.668	14.25
675.854	14.03
676.041	14.65
676.227	14.71
676.414	15.12
676.601	14.66
676.787	14.4
676.974	14.64
677.16	14.97
677.347	15.13
677.533	15.08
677.719	15.32
677.906	15.7
678.092	15.16
678.279	15.34
678.465	15.12
678.651	15.59
678.838	15.69
679.024	15.4
679.21	15.01
679.397	15.1
679.583	15.19
679.769	14.82
679.955	14.38
680.142	14.48
680.328	14.31
680.514	14.26
680.7	13.79
680.886	13.9
681.073	13.84
681.259	13.63
681.445	13.59
681.631	13.57
681.817	13.78
682.003	14.14
682.189	14.08
682.375	14.06
682.561	13.83
682.747	14.02
682.933	13.68
683.119	13.94
683.305	14
683.491	13.96
683.677	14.12
683.863	13.65
684.049	13.17
684.235	13.16
684.42	13.05
684.606	13.13
684.792	13.1
684.978	13.56
685.164	13.75
685.349	13.72
685.535	13.49
685.721	13.27
685.907	14.11
686.092	13.84
686.278	14.05
686.464	14.38
686.649	14.46
686.835	14.61
687.021	14.32
687.206	13.87
687.392	13.85
687.577	14.09
687.763	13.78
687.948	13.27
688.134	13.84
688.319	13.53
688.505	13.44
688.69	13.64
688.876	13.55
689.061	13.09
689.247	13.37
689.432	13.64
689.618	13.76
689.803	13.82
689.988	13.62
690.174	13.55
690.359	13.76
690.544	13.44
690.73	13.51
690.915	13.5
691.1	13.38
691.285	13.7
691.471	14.32
691.656	14.05
691.841	14
692.026	13.82
692.211	14.36
692.396	14.63
692.582	15.04
692.767	14.37
692.952	14.23
693.137	15.14
693.322	14.91
693.507	14.41
693.692	13.92
693.877	13.62
694.062	14.25
694.247	13.54
694.432	13.12
694.617	12.94
694.802	13.09
694.987	14.15
695.172	14.21
695.357	14.02
695.541	13.99
695.726	14.75
695.911	15.2
696.096	14.91
696.281	15.1
696.466	14.91
696.65	14.63
696.835	14.63
697.02	13.81
697.204	13.05
697.389	12.86
697.574	13.17
697.759	13
697.943	13.18
698.128	13.41
698.312	13.29
698.497	13.57
698.682	13.53
698.866	13.8
699.051	14.04
699.235	14.61
699.42	14.62
699.604	14.45
699.789	14.41
699.973	14.48
700.158	14.31
700.342	14.25
700.527	14.33
700.711	14.66
700.895	14.22
701.08	13.56
701.264	13.11
701.448	13.47
701.633	13.6
701.817	13.25
702.001	12.83
702.186	12.44
702.37	12.53
702.554	12.68
702.738	12.56
702.923	13.15
703.107	13.61
703.291	13.31
703.475	12.9
703.659	12.23
703.843	13.19
704.027	13.41
704.212	13.7
704.396	14.23
704.58	14.21
704.764	13.72
704.948	13.96
705.132	14.11
705.316	14.38
705.5	14.94
705.684	15.61
705.868	15.2
706.052	15.18
706.235	15.1
706.419	14.49
706.603	13.74
706.787	14.35
706.971	14.78
707.155	15.15
707.339	15.65
707.522	15.23
707.706	15.59
707.89	15.58
708.074	15.43
708.257	15.67
708.441	16.07
708.625	16.11
708.808	15.49
708.992	14.8
709.176	14.82
709.359	14.56
709.543	14.9
709.727	14.17
709.91	14.18
710.094	14.29
710.277	14.07
710.461	14.4
710.644	14.14
710.828	14.89
711.011	14.71
711.195	13.85
711.378	13.53
711.562	13.33
711.745	13.31
711.928	13.79
712.112	13.8
712.295	13.99
712.478	14.21
712.662	14.57
712.845	14.44
713.028	14.23
713.212	14.02
713.395	14.47
713.578	14.89
713.761	14.61
713.945	14.68
714.128	14.47
714.311	14.39
714.494	13.78
714.677	13.34
714.86	13.17
715.043	13.81
715.227	14.17
715.41	14.29
715.593	14.09
715.776	14.39
715.959	13.96
716.142	14.08
716.325	14.34
716.508	13.45
716.691	13.8
716.874	14.68
717.057	13.95
717.239	14.81
717.422	14.35
717.605	13.62
717.788	13.31
717.971	13.49
718.154	13.9
718.337	14.19
718.519	15.69
718.702	16.18
718.885	14.78
719.068	14
719.25	13.1
719.433	13.42
719.616	13.77
719.798	14.18
719.981	13.76
720.164	13.1
720.346	12.72
720.529	12.03
720.712	11.64
720.894	12.39
721.077	13.88
721.259	14.4
721.442	14.76
721.624	14.83
721.807	14.66
721.989	14.66
722.172	15.32
722.354	15.41
722.537	15.34
722.719	15.43
722.901	15.99
723.084	15.65
723.266	14.48
723.448	13.96
723.631	13.98
723.813	14.53
723.995	13.7
724.178	12.44
724.36	12.64
724.542	12.88
724.724	13.08
724.907	11.94
725.089	12.52
725.271	12.96
725.453	11.84
725.635	12.82
725.817	11.56
725.999	12.53
726.181	13.84
726.364	13.78
726.546	13.12
726.728	13.19
726.91	14.35
727.092	13.94
727.274	14.73
727.456	15.56
727.638	14.67
727.819	15.12
728.001	15.6
728.183	14.59
728.365	14.69
728.547	14.99
728.729	14.77
728.911	14.19
729.093	14.48
729.274	13.86
729.456	13.59
729.638	14.05
729.82	14.06
730.001	13.49
730.183	12.85
730.365	12.76
730.546	13.25
730.728	12.93
730.91	12.74
731.091	12.65
731.273	13.12
731.455	12.97
731.636	13.28
731.818	13.09
731.999	12.9
732.181	13.62
732.362	14.03
732.544	13.71
732.725	13.35
732.907	13.5
733.088	13.11
733.27	12.83
733.451	13.85
733.633	13.84
733.814	13.94
733.995	14.46
734.177	15.74
734.358	14.67
734.539	14.77
734.721	14.91
734.902	14.56
735.083	15.14
735.264	14.92
735.446	14.31
735.627	13.08
735.808	12.69
735.989	13.06
736.17	11.36
736.351	12.4
736.533	12.51
736.714	13.78
736.895	14.73
737.076	13.56
737.257	13.37
737.438	13.19
737.619	14.67
737.8	14.63
737.981	13.91
738.162	15.39
738.343	15.49
738.524	15.72
738.705	14.85
738.886	13.92
739.067	14.75
739.247	15.01
739.428	14.95
739.609	13.79
739.79	14.58
739.971	14.6
740.151	13.29
740.332	11.65
740.513	10.38
740.694	10.09
740.874	9.78
741.055	9.86
741.236	9.33
741.417	8.52
741.597	7.99
741.778	7.77
741.958	7.58
742.139	7.61
742.32	9.37
742.5	9.75
742.681	10.49
742.861	11.17
743.042	9.79
743.222	11.27
743.403	11.48
743.583	11.18
743.764	11.83
743.944	12.11
744.124	12.89
744.305	13.51
744.485	14.82
744.666	15.93
744.846	15.54
745.026	17.75
745.207	17.12
745.387	17.99
745.567	18.4
745.747	18.27
745.928	18.02
746.108	18.07
746.288	17.18
746.468	15.75
746.648	14.73
746.829	16.03
747.009	16.39
747.189	17.24
747.369	17.62
747.549	17.66
747.729	17.6
747.909	18.21
748.089	18.04
748.269	17.49
748.449	16.55
748.629	15.66
748.809	14.65
748.989	13.3
749.169	13.06
749.349	13.16
749.529	13.86
749.709	12.83
749.889	12.43
750.068	12.73
750.248	13.22
750.428	15.02
750.608	14.4
750.788	13.22
750.967	13.69
751.147	13.85
751.327	12.95
751.507	13.25
751.686	14.69
751.866	13.99
752.046	14.09
752.225	13.93
752.405	13.79
752.585	14.85
752.764	15.43
752.944	14.89
753.123	14.22
753.303	15.22
753.482	15.77
753.662	14.65
753.841	14.83
754.021	15.14
754.2	14.04
754.38	13.91
754.559	13.54
754.739	14.33
754.918	15.04
755.097	14.75
755.277	13.72
755.456	13.38
755.635	13.58
755.815	13.58
755.994	11.05
756.173	11.77
756.352	11.37
756.532	12.36
756.711	12.45
756.89	12.46
757.069	12.38
757.248	12.68
757.427	11.52
757.607	11.64
757.786	11.11
757.965	13.05
758.144	12.75
758.323	13.65
758.502	13.39
758.681	13.69
758.86	13.5
759.039	12.4
759.218	11.51
759.397	11.26
759.576	11.69
759.755	12.53
759.934	12.83
760.113	13.52
760.291	12.51
760.47	12.64
760.649	12.03
760.828	12.45
761.007	14.14
761.186	14.56
761.364	14.37
761.543	14.38
761.722	14.45
761.901	14.91
762.079	14.74
762.258	14.33
762.437	14.34
762.615	15.41
762.794	14.33
762.972	14.5
763.151	14.82
763.33	15.51
763.508	15.5
763.687	16.83
763.865	16.2
764.044	16.06
764.222	16.59
764.401	16.54
764.579	15.98
764.758	16.2
764.936	15.83
765.114	16.59
765.293	16.69
765.471	15.89
765.65	13.65
765.828	13.24
766.006	12.69
766.184	14.03
766.363	14.12
766.541	13.58
766.719	13.81
766.898	14.42
767.076	15.27
767.254	15.2
767.432	15.86
767.61	15.87
767.788	16.65
767.967	17.6
768.145	16.89
768.323	17
768.501	17.51
768.679	17.58
768.857	17.03
769.035	14.62
769.213	14.68
769.391	15.31
769.569	16.85
769.747	16.93
769.925	17.21
770.103	18.28
770.281	17.7
770.459	18.01
770.636	18.46
770.814	18.38
770.992	18.49
771.17	18.61
771.348	17.61
771.525	16.55
771.703	16.7
771.881	17.34
772.059	14.58
772.236	13.54
772.414	13.36
772.592	14.22
772.769	12.66
772.947	14.91
773.125	14.66
773.302	16
773.48	16.97
773.657	17.29
773.835	16.84
774.013	18.05
774.19	18.76
774.368	18.39
774.545	15.6
774.723	19.79
774.9	19.33
775.077	18.68
775.255	18.62
775.432	17.82
775.61	14.63
775.787	14.18
775.964	12.37
776.142	11.83
776.319	11.01
776.496	12.07
776.674	9.12
776.851	7.32
777.028	6.78
777.205	4.49
777.382	5.13
777.56	6.13
777.737	5.34
777.914	5.13
778.091	5.62
778.268	6.79
778.445	6.86
778.622	8.49
778.8	9.92
778.977	10.95
779.154	11.92
779.331	13.5
779.508	13.97
779.685	15.53
779.862	17.74
780.038	16.86
780.215	16.93
780.392	17.53
780.569	17.37
780.746	17.05
780.923	18.46
781.1	14.86
781.277	12.12
781.453	12.86
781.63	12.52
781.807	9.54
781.984	11.33
782.16	9.52
782.337	10.44
782.514	9.93
782.691	10.05
782.867	8.14
783.044	13.68
783.221	15.08
783.397	17.59
783.574	19.12
783.75	21.41
783.927	22.03
784.103	27.19
784.28	27.68
784.456	29.51
784.633	26.58
784.809	26.13
784.986	24.58
785.162	23.85
785.339	22.12
785.515	18.83
785.692	21.88
785.868	20.12
786.044	17.76
786.221	17.69
786.397	16.05
786.573	16.56
786.749	16.91
786.926	18.17
787.102	17.64
787.278	15.57
787.454	18.81
787.631	13.97
787.807	15.23
787.983	13.19
788.159	9.78
788.335	8.53
788.511	10.93
788.687	11.16
788.863	9.1
789.039	10.96
789.216	13.71
789.392	12.49
789.568	10.11
789.744	8.67
789.919	9.57
790.095	8.62
790.271	10.31
790.447	9.79
790.623	9.45
790.799	9.86
790.975	9.6
791.151	7.56
791.327	9.79
791.502	15.12
791.678	17.23
791.854	14.78
792.03	16.73
792.205	15.23
792.381	19.95
792.557	20.87
792.733	23.23
792.908	22.39
793.084	23.6
793.259	21.06
793.435	20.75
793.611	22.25
793.786	25.3
793.962	27.31
794.137	27.13
794.313	22.67
794.488	25.03
794.664	25.37
794.839	23.56
795.015	20.64
795.19	21.33
795.366	20.88
795.541	18.69
795.716	18.51
795.892	15.92
796.067	17.05
796.242	18.98
796.418	15.22
796.593	15.24
796.768	18.02
796.944	20.36
797.119	19.1
797.294	15.43
797.469	14.82
797.644	14.19
797.82	15.13
797.995	13.02
798.17	10.18
798.345	11.83
798.52	8.58
798.695	4.49
798.87	6.01
799.045	5.25
799.22	10.82
799.395	13.13
799.57	14.05
799.745	15.22
799.92	14.15
800.095	14.92
800.27	12.6
800.445	15.62
800.62	19.1
800.795	15.95
800.97	15.76
801.145	14.92
801.319	13.89
801.494	13.24
801.669	10.59
801.844	9.31
802.018	11.59
802.193	13.05
802.368	8.54
802.543	5.52
802.717	8.77
802.892	11.5
803.067	8.59
803.241	7.76
803.416	9.6
803.59	10.7
803.765	14.85
803.94	15.7
804.114	18.93
804.289	20.42
804.463	18.79
804.638	14.66
804.812	14.8
804.986	18.82
805.161	21.07
805.335	14.8
805.51	10.3
805.684	9.45
805.858	12.52
806.033	7.97
806.207	4.93
806.381	8.07
806.556	12.22
806.73	9.72
806.904	10
807.078	4.86
807.253	6.61
807.427	10
807.601	8.02
807.775	3.78
807.949	8.08
808.123	9.61
808.298	7.99
808.472	10.39
808.646	9.66
808.82	6.38
808.994	11.12
809.168	16.4
809.342	14.7
809.516	17.33
809.69	19.71
809.864	16.54
810.038	16.84
810.212	17.22
810.385	12.54
810.559	13.05
810.733	7.7
810.907	1.96
811.081	-4.47
811.255	1.9
811.428	-0.03
811.602	-6.08
811.776	-6.42
811.95	1.18
812.123	0.65
812.297	2.87
812.471	6.05
812.644	12.54
812.818	18.34
812.992	17.93
813.165	17.58
813.339	20.64
813.512	23.22
813.686	24.56
813.86	21.03
814.033	23.21
814.207	22.56
814.38	23.77
814.554	20.55
814.727	19.96
814.9	20.86
815.074	20.56
815.247	13.85
815.421	10.18
815.594	12.37
815.767	11.58
815.941	11.88
816.114	16.81
816.287	14.31
816.46	18.22
816.634	14.76
816.807	14.94
816.98	16.18
817.153	15.3
817.327	16.46
817.5	15.08
817.673	16.04
817.846	16.46
818.019	11.83
818.192	12.33
818.365	8.24
818.538	10.22
818.711	13.04
818.884	8.95
819.057	13.77
819.23	15.03
819.403	18.89
819.576	17.49
819.749	19.81
819.922	18.16
820.095	20.02
820.268	22.36
820.441	22.59
820.614	20.41
820.786	19.44
820.959	19.5
821.132	19.23
821.305	16.33
821.477	16.09
821.65	15.11
821.823	15.49
821.996	14.53
822.168	14.51
822.341	14.19
822.514	14.82
822.686	15.19
822.859	15.36
823.031	15.21
823.204	15.4
823.376	16.66
823.549	16.53
823.722	16.79
823.894	16.77
824.067	15.54
824.239	15.66
824.411	16.25
824.584	16.47
824.756	15.34
824.929	15.1
825.101	14.64
825.273	14.35
825.446	14.1
825.618	13.47
825.79	12.25
825.963	14.94
826.135	15.13
826.307	15.28
826.479	14.92
826.652	15.56
826.824	16.27
826.996	17.27
827.168	16.63
827.34	17.26
827.512	19.04
827.684	20.59
827.856	20.41
828.029	20.57
828.201	18.96
828.373	20.44
828.545	21.92
828.717	22
828.889	21.97
829.061	22.1
829.232	22.26
829.404	20.2
829.576	21.08
829.748	19.17
829.92	18.88
830.092	18.52
830.264	19.94
830.436	18.41
830.607	18.4
830.779	18.51
830.951	17.81
831.123	17.72
831.294	20.03
831.466	20.24
831.638	22.4
831.809	20.83
831.981	21.63
832.153	16.4
832.324	18.88
832.496	18.56
832.667	17.45
832.839	13.63
833.011	13.95
833.182	14.6
833.354	12.03
833.525	12.62
833.697	16.24
833.868	18.44
834.039	19.92
834.211	21.68
834.382	19.42
834.554	18.22
834.725	18.56
834.896	18.17
835.068	16.79
835.239	18.04
835.41	18.16
835.581	18.68
835.753	16.4
835.924	17.15
836.095	13.63
836.266	15.4
836.438	15.47
836.609	16.18
836.78	15.52
836.951	17.99
837.122	19.18
837.293	19.74
837.464	17.33
837.635	17.06
837.806	12.6
837.977	12.54
838.148	10.26
838.319	7.9
838.49	10.73
838.661	9.77
838.832	4.24
839.003	3.6
839.174	-5.41
839.345	-4.29
839.516	1.67
839.687	5.68
839.857	9.74
840.028	12.06
840.199	19.15
840.37	17.8
840.54	20.97
840.711	18.83
840.882	15.28
841.053	20.44
841.223	21.09
841.394	20.95
841.564	19.3
841.735	12.99
841.906	10.65
842.076	2.59
842.247	0.21
842.417	-6.85
842.588	-3.8
842.758	1.5
842.929	2.57
843.099	-12.1
843.27	-16.99
843.44	-20.49
843.611	-20.49
843.781	-24.2
843.951	-21.39
844.122	-21.55
844.292	-8.93
844.462	-4.32
844.633	-7.27
844.803	-1.1
844.973	0.56
845.144	7.34
845.314	16.23
845.484	19.61
845.654	24.88
845.824	33.39
845.995	35.92
846.165	29.85
846.335	23.34
846.505	34.43
846.675	24.82
846.845	37.34
847.015	37.53
847.185	38.61
847.355	45.53
847.525	39.86
847.695	33.34
847.865	37
848.035	38.97
848.205	43.2
848.375	37.26
848.545	38.73
848.715	28.61
848.884	18.07
849.054	10.96
849.224	8.67
849.394	14.36
849.564	20.98
849.733	6.17
849.903	-7.8
850.073	4.83
850.243	4.74
850.412	10.82
850.582	17.32
850.752	13.54
850.921	25.62
851.091	25.22
851.26	38.64
851.43	44.69
851.599	46.83
851.769	66.69
851.939	58.38
852.108	64.54
852.278	56.9
852.447	56.99
852.616	43.77
852.786	26.13
852.955	9.38
853.125	-2.64
853.294	-24.92
853.463	-62.18
853.633	-62.95
853.802	-72.38
853.971	-70.6
854.141	-64.6
854.31	-67.73
854.479	-50.62
854.648	-25.13
854.818	-18.08
854.987	-40.87
855.156	-24.3
855.325	-2.36
855.494	-7.66
855.663	7.48
855.832	10.19
856.001	11.51
856.171	12.21
856.34	20.59
856.509	4.28
856.678	4.98
856.847	11.21
857.016	11.33
857.185	26.13
857.353	29.36
857.522	28.31
857.691	18.41
857.86	20.95
858.029	31.76
858.198	44.43
858.367	60.56
858.535	57.08
858.704	66.19
858.873	70.7
859.042	72.72
859.21	102.11
859.379	69.16
859.548	78.5
859.717	70.86
859.885	69.37
860.054	70.47
860.222	50.66
860.391	46.35
860.56	36.93
860.728	29.3
860.897	24.26
861.065	3.76
861.234	22.11
861.402	14.44
861.571	7.26
861.739	0.52
861.908	-5.85
862.076	-5.7
862.244	3.47
862.413	20.95
862.581	22.71
862.749	12.45
862.918	26.27
863.086	15.24
863.254	18.05
863.423	20.98
863.591	23.91
863.759	8.93
863.927	9.3
864.096	6.54
864.264	-8.28
864.432	-2.28
864.6	15.03
864.768	20.98
864.936	30.53
865.104	43.83
865.272	40.98
865.44	37.64
865.608	38.33
865.776	38.31
865.944	45.37
866.112	36.59
866.28	36.19
866.448	13.69
866.616	-5.14
866.784	-3.61
866.952	-24.57
867.12	-25.31
867.288	-22.76
867.455	3.27
867.623	15.96
867.791	15.26
867.959	26.18
868.127	42.91
868.294	50.22
868.462	30.01
868.63	13.86
868.797	9.7
868.965	4.94
869.133	13.5
869.3	21.26
869.468	-1.81
869.636	9.86
869.803	16.91
869.971	9.4
870.138	7.17
870.306	25.41
870.473	36.5
870.641	37.57
870.808	42.2
870.975	31.12
871.143	18.71
871.31	23.06
871.478	27.91
871.645	17.86
871.812	11.47
871.98	12.64
872.147	10.95
872.314	12.94
872.482	6.06
872.649	0.26
872.816	-4.42
872.983	-0.31
873.15	-15.09
873.318	-32.65
873.485	5.44
873.652	2.9
873.819	8.96
873.986	-9.35
874.153	-38.48
874.32	-64.05
874.487	-58.77
874.654	-14.97
874.821	-17.5
874.988	-9.67
875.155	-21.21
875.322	-39.92
875.489	-62.42
875.656	-68.9
875.823	-66.31
875.99	-30.84
876.157	47.54
876.324	56.71
876.49	54.18
876.657	48.15
876.824	54.35
876.991	47.61
877.157	52.25
877.324	51.65
877.491	51.02
877.658	62.26
877.824	55.43
877.991	37.83
878.157	24.87
878.324	33.66
878.491	30.88
878.657	-0.3
878.824	28.84
878.99	10.17
879.157	36.83
879.323	59.96
879.49	29.06
879.656	46.94
879.823	45.16
879.989	37.59
880.156	27.55
880.322	46.86
880.488	71.9
880.655	51.7
880.821	46.86
880.987	25.12
881.154	10.68
881.32	14.28
881.486	15.95
881.652	16.06
881.819	19.15
881.985	17.28
882.151	12.39
882.317	13.81
882.483	12.28
882.649	7.01
882.816	13.35
882.982	11.3
883.148	15.05
883.314	14.29
883.48	15.77
883.646	15.52
883.812	17.48
883.978	15.95
884.144	14.64
884.31	15.12
884.476	16.54
884.642	12.72
884.807	17.36
884.973	15.41
885.139	15.64
885.305	15.85
885.471	16.9
885.637	16.41
885.802	21.13
885.968	21.82
886.134	23.59
886.3	28.61
886.465	31.11
886.631	24.59
886.797	26.62
886.962	26.05
887.128	17.97
887.293	17.21
887.459	25.03
887.625	17.48
887.79	16.6
887.956	17.87
888.121	13.14
888.287	10.52
888.452	24.48
888.618	20.79
888.783	22.08
