Data from 2938032_Reflection_1.txt Node
Date: Sun Jul 12 14:58:25 EDT 2015
User: robert
Spectrometer: USB4E03001
Autoset integration time: false
Trigger mode: 4
Integration Time (sec): 1.000000E-1
Scans to average: 10
Electric dark correction enabled: true
Nonlinearity correction enabled: false
Boxcar width: 5
Stray light correction enabled: false
XAxis mode: Wavelengths
Stop averaging: false
Number of Pixels in Spectrum: 3648
>>>>>Begin Spectral Data<<<<<
177.566	-112.61
177.785	130.03
178.005	1556.43
178.225	-193.78
178.445	69.12
178.665	40.77
178.885	-9.45
179.105	-22.55
179.324	-37.46
179.544	-1601.51
179.764	275.28
179.984	-672.52
180.204	201.16
180.423	329.41
180.643	600
180.863	16051.43
181.083	430.07
181.302	277.48
181.522	278.72
181.742	504.2
181.961	3433.71
182.181	485.66
182.401	183.12
182.621	132.96
182.84	141.48
183.06	119.39
183.279	107.38
183.499	80.38
183.719	95.54
183.938	89.46
184.158	44.53
184.377	49.46
184.597	26.07
184.816	-3.19
185.036	36.32
185.256	31.8
185.475	50.16
185.695	34.22
185.914	56.87
186.134	50.37
186.353	28.84
186.572	47.96
186.792	23.08
187.011	44.99
187.231	54.44
187.45	71.92
187.67	61.65
187.889	22.35
188.108	99.68
188.328	119.54
188.547	181.95
188.766	340.1
188.986	397.89
189.205	419.67
189.424	1131.91
189.644	566.56
189.863	1648.91
190.082	676.54
190.302	274.56
190.521	319.83
190.74	748.03
190.959	235.65
191.178	130.05
191.398	-57.93
191.617	172.02
191.836	-523.46
192.055	-64.21
192.274	89.48
192.494	19.36
192.713	34.11
192.932	50.26
193.151	50.58
193.37	42.03
193.589	20.01
193.808	30.6
194.027	41.38
194.246	77.13
194.465	51.77
194.685	66.51
194.904	124.89
195.123	120.46
195.342	152.62
195.561	222.87
195.78	190.63
195.999	155.17
196.218	127.1
196.436	186.13
196.655	134.65
196.874	137.74
197.093	150.39
197.312	123.02
197.531	106.92
197.75	13.92
197.969	32.29
198.188	64.56
198.407	50.97
198.625	61.37
198.844	50.81
199.063	58.14
199.282	23.91
199.501	5.08
199.719	10.82
199.938	-17.47
200.157	10.9
200.376	-11.72
200.594	2.46
200.813	11.73
201.032	15.41
201.251	13.91
201.469	-6.44
201.688	32.81
201.907	13.69
202.125	62.24
202.344	56.56
202.563	7.16
202.781	-3.26
203	44.42
203.218	82.95
203.437	-1969.77
203.656	98.8
203.874	103.13
204.093	89.17
204.311	110.03
204.53	25.73
204.748	23.37
204.967	83.92
205.185	118.11
205.404	69.05
205.622	34.2
205.841	39.22
206.059	-110.26
206.278	-102.13
206.496	-106.98
206.715	-87.37
206.933	-19.66
207.151	-9.26
207.37	-38.66
207.588	-17.06
207.806	-2.03
208.025	8.38
208.243	13.34
208.461	23.29
208.68	35.32
208.898	41.19
209.116	46.72
209.335	16.01
209.553	16.1
209.771	18.06
209.989	27.9
210.208	36.84
210.426	35.54
210.644	-5.48
210.862	-9.43
211.081	-9.16
211.299	-35.98
211.517	-50
211.735	24.77
211.953	25.23
212.171	-17.76
212.39	-31.85
212.608	16.99
212.826	-3.44
213.044	-1.83
213.262	-27.35
213.48	-74.8
213.698	-26.57
213.916	-58.79
214.134	-49.16
214.352	-32.41
214.57	-0.14
214.788	-4.97
215.006	-30.71
215.224	-7.14
215.442	15.54
215.66	39.63
215.878	15.96
216.096	34.89
216.314	54.73
216.532	63.23
216.75	40.55
216.968	39.94
217.185	45.39
217.403	57.66
217.621	45.89
217.839	59.91
218.057	65.95
218.275	118.35
218.492	90.93
218.71	112.89
218.928	133.92
219.146	116.1
219.363	151.53
219.581	146.54
219.799	122.56
220.017	145.49
220.234	96.65
220.452	84.46
220.67	58.88
220.887	69.87
221.105	59.28
221.323	54.79
221.54	54.51
221.758	59.72
221.976	64.43
222.193	70.12
222.411	58.28
222.629	83.16
222.846	80
223.064	78.13
223.281	58.81
223.499	50.5
223.716	43.06
223.934	43.89
224.151	36.82
224.369	31.6
224.586	4.75
224.804	1.76
225.021	-22.79
225.239	-12.32
225.456	4.5
225.674	-3.08
225.891	-6.46
226.108	-1.68
226.326	6.81
226.543	-1.79
226.76	2.6
226.978	-4.17
227.195	5.11
227.413	1.22
227.63	4.04
227.847	6.26
228.064	6.44
228.282	8.59
228.499	6.57
228.716	6
228.934	5.49
229.151	5.22
229.368	7.58
229.585	6.57
229.802	10.16
230.02	9.95
230.237	10.33
230.454	12.31
230.671	10.85
230.888	13.98
231.105	14.68
231.323	16.43
231.54	19.13
231.757	21.53
231.974	22.92
232.191	20.32
232.408	19.32
232.625	17.96
232.842	19.72
233.059	28.79
233.276	27.24
233.493	27.07
233.71	27.55
233.927	24.2
234.144	23.08
234.361	20.46
234.578	21.46
234.795	22.46
235.012	19.08
235.229	22.07
235.446	22.36
235.663	21.72
235.879	18.87
236.096	19.16
236.313	20.26
236.53	19.29
236.747	20.09
236.964	13.72
237.181	20.37
237.397	22.59
237.614	17.93
237.831	15.4
238.048	14.91
238.264	15.53
238.481	16.03
238.698	14.33
238.915	11.66
239.131	11.54
239.348	10.99
239.565	4.48
239.781	2.88
239.998	2.83
240.215	3.28
240.431	3.13
240.648	4.26
240.865	1.75
241.081	5.29
241.298	9.18
241.514	9.64
241.731	11.01
241.947	11.16
242.164	12.67
242.38	12.74
242.597	12.92
242.814	13.87
243.03	14.18
243.246	15.44
243.463	14.57
243.679	14.15
243.896	14.2
244.112	14.57
244.329	16.56
244.545	16.91
244.762	17.33
244.978	17.39
245.194	16.44
245.411	14.18
245.627	13.32
245.843	13.53
246.06	14.13
246.276	13.62
246.492	13.21
246.709	11.62
246.925	10.48
247.141	11.16
247.357	10.52
247.574	10.24
247.79	10.9
248.006	12.19
248.222	11.74
248.439	10.35
248.655	9.8
248.871	9.84
249.087	9.54
249.303	10.35
249.519	8.37
249.736	8.32
249.952	8.15
250.168	8.11
250.384	5.47
250.6	4.81
250.816	5.54
251.032	5.4
251.248	5.58
251.464	6.49
251.68	4.83
251.896	5.25
252.112	4.22
252.328	3.63
252.544	1.12
252.76	-0.28
252.976	-0.89
253.192	-1.2
253.408	-1.01
253.624	0.33
253.84	-2.31
254.056	-2.43
254.272	-1.85
254.487	0.33
254.703	1.74
254.919	7.42
255.135	11.15
255.351	12.12
255.567	11.5
255.782	11.21
255.998	8.71
256.214	12.11
256.43	13.44
256.646	11.91
256.861	10.34
257.077	8.98
257.293	5.2
257.508	4.75
257.724	4.61
257.94	4.66
258.155	5.96
258.371	5.15
258.587	5.36
258.802	4.81
259.018	7.8
259.234	8
259.449	7.89
259.665	8.17
259.88	8.24
260.096	8.59
260.312	9.46
260.527	9.71
260.743	10.64
260.958	9.75
261.174	9.85
261.389	8.13
261.605	7.99
261.82	8.74
262.036	9.03
262.251	8.92
262.466	8.41
262.682	7.68
262.897	6.68
263.113	5.48
263.328	6.56
263.543	7.65
263.759	8.6
263.974	8.77
264.189	8.4
264.405	8.68
264.62	8.36
264.835	8.06
265.051	8.01
265.266	10.57
265.481	9.59
265.696	11.56
265.912	10.61
266.127	9.67
266.342	10.02
266.557	9
266.773	7.62
266.988	8
267.203	7.82
267.418	7.12
267.633	4.59
267.848	4.84
268.064	4.39
268.279	3.9
268.494	3.28
268.709	0.77
268.924	2.1
269.139	2.04
269.354	1.66
269.569	1.4
269.784	1.36
269.999	1.82
270.214	2.5
270.429	2.99
270.644	3.69
270.859	5.33
271.074	7.39
271.289	6.06
271.504	6.97
271.719	7.22
271.934	7.71
272.149	7.29
272.363	6.23
272.578	6.19
272.793	6.51
273.008	6.29
273.223	5.46
273.438	5.16
273.653	6.37
273.867	5.1
274.082	4.42
274.297	5.28
274.512	6.84
274.726	8.35
274.941	8.93
275.156	7.99
275.371	7.91
275.585	8.13
275.8	8.66
276.015	6.49
276.229	8.13
276.444	8.48
276.659	7.91
276.873	7.82
277.088	8.08
277.302	7.8
277.517	7.78
277.732	8.23
277.946	8.67
278.161	7.78
278.375	9.78
278.59	7.95
278.804	7.49
279.019	6.61
279.233	5.46
279.448	4.95
279.662	3.96
279.877	4.2
280.091	3.62
280.306	5.16
280.52	4.91
280.735	4.64
280.949	5.39
281.163	6.85
281.378	8.03
281.592	7.83
281.806	8.05
282.021	9.63
282.235	9.19
282.449	10.39
282.664	8.28
282.878	9.4
283.092	9.37
283.307	9.9
283.521	9.76
283.735	8.95
283.949	8.4
284.164	8.61
284.378	7.56
284.592	8.17
284.806	6.18
285.02	7.58
285.234	7.4
285.449	6.85
285.663	7.63
285.877	6.69
286.091	7.55
286.305	8.24
286.519	6.85
286.733	6.87
286.947	6.01
287.161	7.34
287.375	6.69
287.589	5.96
287.803	6.77
288.017	5.83
288.231	4.95
288.445	4.47
288.659	4.03
288.873	5.66
289.087	5
289.301	5.27
289.515	4.6
289.729	5.98
289.943	7.45
290.157	8.04
290.371	8.83
290.584	9.57
290.798	9.18
291.012	9.93
291.226	9.2
291.44	9.93
291.654	10.56
291.867	9.96
292.081	7.79
292.295	7.38
292.509	6.95
292.722	6.31
292.936	7.23
293.15	7.27
293.364	6.51
293.577	7.79
293.791	7.79
294.005	7.78
294.218	8.71
294.432	10.62
294.645	10.22
294.859	9.66
295.073	9.75
295.286	10.43
295.5	10.7
295.713	9.33
295.927	9.09
296.14	8.95
296.354	8.91
296.568	8.05
296.781	8.23
296.994	8.32
297.208	8.26
297.421	8.04
297.635	7.68
297.848	7.31
298.062	9.16
298.275	8.51
298.489	9.58
298.702	10.53
298.915	11.39
299.129	10.43
299.342	10.17
299.555	10.66
299.769	10.89
299.982	10.51
300.195	9.54
300.409	9.1
300.622	10.17
300.835	9.48
301.048	8.96
301.262	9.52
301.475	10.87
301.688	11.98
301.901	11.47
302.115	10.75
302.328	10.26
302.541	12
302.754	11.31
302.967	12.09
303.18	11.9
303.393	10.09
303.607	8.48
303.82	7.9
304.033	6.48
304.246	6.35
304.459	6.69
304.672	7.27
304.885	6.57
305.098	7.16
305.311	6.73
305.524	6.35
305.737	7.44
305.95	9.14
306.163	8.13
306.376	8.63
306.589	10.34
306.802	11.39
307.015	11.15
307.228	11.62
307.44	11.66
307.653	10.9
307.866	10.68
308.079	10.05
308.292	9.52
308.505	10.91
308.718	12.17
308.93	11.99
309.143	11.79
309.356	12.27
309.569	10.97
309.781	9.11
309.994	8.86
310.207	9.79
310.42	11.06
310.632	10.63
310.845	10.44
311.058	9.98
311.27	9.33
311.483	9.21
311.696	10.2
311.908	11.03
312.121	12.32
312.333	12.07
312.546	10.62
312.759	9.88
312.971	10.02
313.184	8.9
313.396	8.46
313.609	7.49
313.821	7.3
314.034	5.43
314.246	6.29
314.459	7.41
314.671	7.13
314.884	7.98
315.096	8.59
315.309	9.03
315.521	9.38
315.733	10.12
315.946	11.44
316.158	12.16
316.371	11.95
316.583	11.24
316.795	10.75
317.008	12.39
317.22	13.04
317.432	11.07
317.644	11.7
317.857	12.01
318.069	11.01
318.281	9.87
318.494	8.47
318.706	7.61
318.918	8.83
319.13	8.53
319.342	7.97
319.555	7.41
319.767	7.62
319.979	6.13
320.191	6.23
320.403	8.27
320.615	8.54
320.827	8.96
321.039	9.97
321.252	8.91
321.464	6.91
321.676	7.32
321.888	6.67
322.1	8.17
322.312	7.98
322.524	8.21
322.736	5.69
322.948	6.18
323.16	7.21
323.372	7.5
323.584	7.56
323.796	8.61
324.007	7.98
324.219	7.39
324.431	6.89
324.643	7.39
324.855	6.86
325.067	7.83
325.279	9.66
325.491	9.4
325.702	8.96
325.914	9.44
326.126	9.12
326.338	10.47
326.55	11.67
326.761	13.08
326.973	14.07
327.185	14.74
327.396	14.57
327.608	12.74
327.82	13.84
328.032	13.56
328.243	13.16
328.455	14.01
328.666	12.83
328.878	12.73
329.09	12.08
329.301	10.42
329.513	11.12
329.725	12.18
329.936	12.59
330.148	10.78
330.359	12.19
330.571	13.43
330.782	13.17
330.994	13.86
331.205	14.12
331.417	14.05
331.628	16.04
331.84	16.01
332.051	14.81
332.262	14.99
332.474	15.59
332.685	15.3
332.897	14.18
333.108	15.34
333.319	15.49
333.531	15.82
333.742	15.46
333.953	14.61
334.165	14.16
334.376	14.43
334.587	14.19
334.799	13.59
335.01	12.78
335.221	13.54
335.432	13.06
335.644	12.65
335.855	12.31
336.066	12.49
336.277	11.95
336.488	12.47
336.7	12.04
336.911	12.01
337.122	12.64
337.333	13.66
337.544	13.4
337.755	13.77
337.966	14.73
338.177	14.79
338.388	15.05
338.599	15.95
338.811	15.87
339.022	16.12
339.233	16.41
339.444	16.36
339.655	15.1
339.866	15.52
340.076	16.19
340.287	15.94
340.498	16.64
340.709	15.62
340.92	14.36
341.131	15.08
341.342	15.43
341.553	15.35
341.764	15.71
341.975	16.45
342.185	15.85
342.396	14.61
342.607	13.61
342.818	12.91
343.029	14.77
343.239	15.68
343.45	14.7
343.661	14.01
343.872	13.21
344.082	12.09
344.293	12.35
344.504	12.48
344.714	12.55
344.925	13.06
345.136	12.47
345.346	12.02
345.557	11.6
345.768	11.08
345.978	11.82
346.189	12.66
346.399	13.28
346.61	13.39
346.821	12.91
347.031	13.35
347.242	11.7
347.452	13.03
347.663	11.08
347.873	11.24
348.084	11.69
348.294	11.35
348.504	10.49
348.715	11.02
348.925	10.64
349.136	11.11
349.346	9.34
349.557	11.44
349.767	11.54
349.977	13.41
350.188	13.76
350.398	14.06
350.608	14.67
350.819	14.92
351.029	14.09
351.239	15.05
351.449	14.75
351.66	16.97
351.87	16.05
352.08	15.39
352.29	14.53
352.501	14.59
352.711	14.12
352.921	13.34
353.131	13.17
353.341	13.86
353.552	12.87
353.762	13.38
353.972	12.71
354.182	13.51
354.392	13.93
354.602	13.96
354.812	12.87
355.022	13.02
355.232	12.98
355.442	13.17
355.652	13.7
355.862	13.46
356.072	13.51
356.282	13.01
356.492	13.34
356.702	12.77
356.912	13.1
357.122	14.14
357.332	14.33
357.542	15.09
357.752	15.12
357.962	14.1
358.171	14.58
358.381	14.35
358.591	15.53
358.801	14.73
359.011	14.59
359.221	15.05
359.43	15.39
359.64	14.67
359.85	14.49
360.06	14.72
360.269	15.24
360.479	15.19
360.689	15.36
360.899	14.45
361.108	14.37
361.318	14.47
361.528	14.03
361.737	13.27
361.947	13.5
362.156	13.24
362.366	13.15
362.576	13.01
362.785	12.68
362.995	12.55
363.204	13.02
363.414	13.33
363.623	13.44
363.833	13.34
364.042	13.79
364.252	13.93
364.461	13.04
364.671	12.68
364.88	12.12
365.09	12.25
365.299	12.19
365.509	11.12
365.718	10.22
365.927	9.28
366.137	8.77
366.346	8.63
366.555	8.79
366.765	8.77
366.974	8.63
367.183	8.91
367.393	8.55
367.602	7.75
367.811	8.45
368.021	8.91
368.23	9.92
368.439	10.31
368.648	10.82
368.857	10.79
369.067	11.25
369.276	11.07
369.485	11
369.694	10.8
369.903	10.81
370.112	10.51
370.321	10.46
370.531	9.87
370.74	9.27
370.949	9.31
371.158	9.88
371.367	10.47
371.576	10.7
371.785	11.17
371.994	11.87
372.203	12.47
372.412	13.06
372.621	13.56
372.83	13.57
373.039	14.13
373.248	13.3
373.457	13.41
373.666	13.54
373.874	13.48
374.083	13.01
374.292	12.57
374.501	12.21
374.71	11.23
374.919	10.82
375.128	11.04
375.336	10.75
375.545	11
375.754	9.54
375.963	9.02
376.171	9.64
376.38	9.41
376.589	10.06
376.798	10.59
377.006	10.76
377.215	10.97
377.424	11.17
377.632	11.72
377.841	11.57
378.05	12.73
378.258	13.22
378.467	13.03
378.675	13.26
378.884	13.02
379.093	12.59
379.301	12.36
379.51	12.25
379.718	12.06
379.927	11.37
380.135	11.62
380.344	10.84
380.552	10.45
380.761	9.94
380.969	9.77
381.177	9.28
381.386	9.23
381.594	9.73
381.803	10.23
382.011	9.89
382.219	10.27
382.428	9.69
382.636	9.56
382.845	9.71
383.053	9.32
383.261	9.4
383.469	9.6
383.678	10.08
383.886	9.85
384.094	9.49
384.302	9.79
384.511	10.01
384.719	10.25
384.927	10.52
385.135	10.12
385.343	10.44
385.552	10.76
385.76	10.77
385.968	10.14
386.176	10.21
386.384	10.2
386.592	10.05
386.8	9.73
387.008	9.65
387.216	9.49
387.424	8.95
387.633	9.1
387.841	8.82
388.049	8.72
388.257	8.79
388.465	8.61
388.672	8.3
388.88	8.62
389.088	8.16
389.296	8.55
389.504	8.66
389.712	9.15
389.92	9.11
390.128	8.89
390.336	8.78
390.544	8.95
390.751	9.03
390.959	9.01
391.167	8.56
391.375	9
391.583	8.95
391.79	8.77
391.998	8.92
392.206	9.17
392.414	9.44
392.621	9.24
392.829	9.3
393.037	9.02
393.244	9.13
393.452	9.37
393.66	9.44
393.867	9.11
394.075	9.12
394.283	9.25
394.49	8.87
394.698	8.73
394.905	8.71
395.113	8.4
395.32	8.52
395.528	8.4
395.735	8.12
395.943	8.17
396.15	8.02
396.358	8.17
396.565	8.19
396.773	8.47
396.98	8.44
397.188	8.71
397.395	8.85
397.602	8.93
397.81	8.8
398.017	9.26
398.225	8.91
398.432	9.25
398.639	8.95
398.847	8.63
399.054	8.32
399.261	8.6
399.468	8.39
399.676	8.29
399.883	8.24
400.09	8.09
400.297	7.97
400.505	7.92
400.712	7.45
400.919	7.71
401.126	7.48
401.333	7.36
401.54	6.67
401.748	6.8
401.955	6.6
402.162	6.35
402.369	6.32
402.576	6.44
402.783	6.7
402.99	7.01
403.197	6.85
403.404	6.85
403.611	6.86
403.818	7.09
404.025	7.24
404.232	7.3
404.439	7.46
404.646	7.61
404.853	7.13
405.06	6.98
405.267	6.77
405.474	6.94
405.681	7.27
405.887	7.39
406.094	7.62
406.301	7.27
406.508	7.57
406.715	7.48
406.922	7.61
407.128	7.77
407.335	7.69
407.542	7.74
407.749	7.36
407.955	7.45
408.162	7.04
408.369	6.64
408.575	6.82
408.782	6.44
408.989	6.56
409.195	6.57
409.402	6.52
409.609	6.5
409.815	6.68
410.022	6.67
410.228	6.42
410.435	6.79
410.642	7.03
410.848	7.19
411.055	7.32
411.261	7.37
411.468	7.07
411.674	7.04
411.881	7.15
412.087	7.28
412.294	7.64
412.5	7.85
412.706	7.96
412.913	7.82
413.119	7.7
413.326	7.77
413.532	7.73
413.738	7.87
413.945	7.96
414.151	8.12
414.357	7.82
414.564	7.84
414.77	7.6
414.976	7.61
415.182	7.54
415.389	7.35
415.595	7.14
415.801	7.02
416.007	7.05
416.214	6.86
416.42	6.63
416.626	6.6
416.832	6.52
417.038	6.42
417.244	6.42
417.45	6.51
417.657	6.58
417.863	6.58
418.069	6.57
418.275	6.42
418.481	6.53
418.687	6.46
418.893	6.61
419.099	6.56
419.305	6.62
419.511	6.63
419.717	6.73
419.923	6.74
420.129	6.72
420.335	6.65
420.541	6.77
420.746	6.82
420.952	6.85
421.158	6.77
421.364	6.77
421.57	6.62
421.776	6.55
421.982	6.52
422.187	6.45
422.393	6.49
422.599	6.64
422.805	6.7
423.01	6.64
423.216	6.67
423.422	6.56
423.628	6.56
423.833	6.58
424.039	6.51
424.245	6.34
424.45	6.28
424.656	6.2
424.862	6.16
425.067	6.06
425.273	6.04
425.478	5.91
425.684	5.95
425.889	5.79
426.095	5.81
426.301	5.9
426.506	5.95
426.712	5.91
426.917	6.03
427.123	6.1
427.328	6.08
427.533	5.98
427.739	6.2
427.944	6.17
428.15	6.18
428.355	6.37
428.561	6.37
428.766	6.29
428.971	6.56
429.177	6.48
429.382	6.1
429.587	6.08
429.793	6.43
429.998	6.52
430.203	6.72
430.408	6.93
430.614	6.94
430.819	6.91
431.024	6.8
431.229	6.72
431.434	6.85
431.64	7.1
431.845	7.16
432.05	6.83
432.255	6.71
432.46	6.65
432.665	6.55
432.87	6.55
433.076	6.47
433.281	6.47
433.486	6.3
433.691	6.24
433.896	6.32
434.101	6.22
434.306	6.48
434.511	6.38
434.716	6.34
434.921	6.39
435.126	6.32
435.331	6.33
435.535	6.48
435.74	6.6
435.945	6.66
436.15	6.48
436.355	6.47
436.56	6.28
436.765	6.47
436.97	6.62
437.174	6.65
437.379	6.66
437.584	6.66
437.789	6.55
437.993	6.65
438.198	6.62
438.403	6.77
438.608	6.7
438.812	6.67
439.017	6.54
439.222	6.54
439.426	6.58
439.631	6.45
439.836	6.5
440.04	6.53
440.245	6.48
440.45	6.49
440.654	6.44
440.859	6.52
441.063	6.62
441.268	6.72
441.472	6.6
441.677	6.64
441.881	6.75
442.086	6.63
442.29	6.7
442.495	6.66
442.699	6.58
442.904	6.58
443.108	6.56
443.312	6.57
443.517	6.44
443.721	6.36
443.925	6.32
444.13	6.35
444.334	6.45
444.538	6.53
444.743	6.48
444.947	6.4
445.151	6.48
445.356	6.5
445.56	6.36
445.764	6.42
445.968	6.42
446.173	6.38
446.377	6.3
446.581	6.31
446.785	6.24
446.989	6.33
447.193	6.41
447.398	6.25
447.602	6.25
447.806	6.39
448.01	6.24
448.214	6.25
448.418	6.27
448.622	6.3
448.826	6.33
449.03	6.37
449.234	6.33
449.438	6.47
449.642	6.53
449.846	6.62
450.05	6.5
450.254	6.56
450.458	6.78
450.662	6.65
450.866	6.6
451.069	6.52
451.273	6.32
451.477	6.39
451.681	6.35
451.885	6.28
452.089	6.05
452.292	6.11
452.496	6.27
452.7	6.11
452.904	6.21
453.107	6.32
453.311	6.46
453.515	6.64
453.719	6.61
453.922	6.53
454.126	6.57
454.33	6.67
454.533	6.68
454.737	6.53
454.94	6.71
455.144	6.75
455.348	6.76
455.551	6.73
455.755	6.59
455.958	6.43
456.162	6.18
456.365	6.12
456.569	6.24
456.772	6.24
456.976	6.31
457.179	6.27
457.383	6.15
457.586	6.02
457.79	5.74
457.993	5.88
458.196	6.02
458.4	6.13
458.603	6.25
458.807	6.1
459.01	6.03
459.213	5.95
459.417	5.87
459.62	5.85
459.823	5.96
460.026	6.15
460.23	6.13
460.433	6.17
460.636	6.23
460.839	6.29
461.042	6.33
461.246	6.42
461.449	6.42
461.652	6.39
461.855	6.44
462.058	6.22
462.261	6.24
462.464	6.23
462.668	6.24
462.871	6.3
463.074	6.16
463.277	6.3
463.48	6.3
463.683	6.38
463.886	6.35
464.089	6.39
464.292	6.53
464.495	6.35
464.698	6.31
464.901	6.24
465.104	6.12
465.306	6.12
465.509	5.92
465.712	5.73
465.915	5.7
466.118	5.82
466.321	5.65
466.524	5.57
466.726	5.67
466.929	5.57
467.132	5.55
467.335	5.54
467.538	5.5
467.74	5.65
467.943	5.89
468.146	5.75
468.348	5.69
468.551	5.79
468.754	5.84
468.956	5.73
469.159	5.74
469.362	5.72
469.564	5.89
469.767	5.87
469.969	6.01
470.172	5.88
470.375	6.03
470.577	6.17
470.78	6.14
470.982	6.23
471.185	6.48
471.387	6.52
471.59	6.41
471.792	6.28
471.995	6.29
472.197	5.97
472.399	5.97
472.602	5.96
472.804	5.75
473.007	5.87
473.209	5.74
473.411	5.62
473.614	5.73
473.816	5.72
474.018	5.96
474.22	5.88
474.423	6.04
474.625	6.12
474.827	6.09
475.03	6.21
475.232	6.2
475.434	6.41
475.636	6.3
475.838	6.22
476.04	6.27
476.243	6.03
476.445	6.15
476.647	6.18
476.849	6.15
477.051	6.11
477.253	6.15
477.455	6.11
477.657	6.04
477.859	6.17
478.061	6.17
478.263	6.28
478.465	6.46
478.667	6.55
478.869	6.47
479.071	6.47
479.273	6.59
479.475	6.42
479.677	6.49
479.879	6.34
480.081	6.41
480.283	6.46
480.485	6.39
480.686	6.21
480.888	6.14
481.09	6.13
481.292	6.04
481.494	6.02
481.695	6.1
481.897	6.06
482.099	6.15
482.301	6.04
482.502	5.98
482.704	5.86
482.906	5.83
483.107	5.82
483.309	5.84
483.511	5.86
483.712	5.88
483.914	5.87
484.115	5.86
484.317	5.89
484.519	5.85
484.72	5.84
484.922	5.96
485.123	5.98
485.325	5.92
485.526	5.89
485.728	5.96
485.929	5.94
486.131	5.93
486.332	5.92
486.534	5.89
486.735	5.94
486.936	5.95
487.138	5.85
487.339	5.9
487.541	5.93
487.742	5.95
487.943	5.88
488.144	5.92
488.346	6
488.547	6.02
488.748	5.99
488.95	5.97
489.151	5.99
489.352	6.06
489.553	5.97
489.755	6.04
489.956	6.07
490.157	6.02
490.358	5.9
490.559	5.76
490.76	5.75
490.961	5.81
491.163	5.86
491.364	5.9
491.565	5.82
491.766	5.91
491.967	5.89
492.168	5.94
492.369	5.95
492.57	5.98
492.771	6.03
492.972	5.96
493.173	5.99
493.374	5.95
493.575	5.94
493.776	5.91
493.976	5.92
494.177	5.9
494.378	5.82
494.579	5.92
494.78	5.93
494.981	6.03
495.182	6.1
495.382	5.99
495.583	6.15
495.784	6.2
495.985	6.27
496.185	6.24
496.386	6.3
496.587	6.19
496.788	6.05
496.988	6.14
497.189	6.16
497.39	6.14
497.59	6.09
497.791	5.87
497.992	5.74
498.192	5.75
498.393	5.8
498.593	5.74
498.794	5.8
498.994	6.04
499.195	6.02
499.395	5.84
499.596	6.06
499.796	5.99
499.997	6.07
500.197	6.12
500.398	6.15
500.598	5.99
500.799	6.01
500.999	5.94
501.199	5.67
501.4	5.62
501.6	5.67
501.801	5.52
502.001	5.88
502.201	6.04
502.402	6.06
502.602	6.15
502.802	6.2
503.002	6.26
503.203	6.23
503.403	6.41
503.603	6.6
503.803	6.6
504.003	6.64
504.204	6.48
504.404	6.35
504.604	6.41
504.804	6.25
505.004	6.16
505.204	6.25
505.404	6.31
505.604	6.2
505.804	6.2
506.005	6.37
506.205	6.34
506.405	6.38
506.605	6.51
506.805	6.44
507.005	6.6
507.204	6.7
507.404	6.63
507.604	6.77
507.804	6.65
508.004	6.63
508.204	6.55
508.404	6.64
508.604	6.59
508.804	6.53
509.003	6.44
509.203	6.28
509.403	6.31
509.603	6.21
509.803	6.2
510.002	6.26
510.202	6.09
510.402	6.12
510.602	6.04
510.801	6.04
511.001	5.86
511.201	5.84
511.4	5.81
511.6	5.8
511.8	5.77
511.999	5.66
512.199	5.79
512.398	5.87
512.598	5.84
512.797	5.84
512.997	5.76
513.197	5.94
513.396	6.02
513.596	6.13
513.795	6.23
513.994	6.29
514.194	6.33
514.393	6.13
514.593	6.02
514.792	6.06
514.992	6.19
515.191	6.15
515.39	6.2
515.59	6.26
515.789	6.32
515.988	6.08
516.188	6.09
516.387	6.23
516.586	6.43
516.786	6.58
516.985	6.54
517.184	6.41
517.383	6.52
517.582	6.53
517.782	6.47
517.981	6.28
518.18	6.36
518.379	6.5
518.578	6.43
518.777	6.38
518.976	6.31
519.176	6.31
519.375	6.32
519.574	6.36
519.773	6.27
519.972	6.37
520.171	6.52
520.37	6.64
520.569	6.61
520.768	6.81
520.967	6.78
521.166	6.66
521.365	6.67
521.564	6.6
521.762	6.65
521.961	6.77
522.16	6.79
522.359	6.84
522.558	6.87
522.757	6.69
522.956	6.51
523.154	6.63
523.353	6.79
523.552	6.67
523.751	6.77
523.949	6.85
524.148	6.89
524.347	6.86
524.546	6.89
524.744	6.83
524.943	6.87
525.142	6.93
525.34	7.02
525.539	6.93
525.737	7.04
525.936	7.04
526.135	7.08
526.333	7.06
526.532	7.02
526.73	6.94
526.929	6.9
527.127	6.94
527.326	6.85
527.524	6.77
527.723	6.84
527.921	6.81
528.12	6.84
528.318	6.74
528.516	6.8
528.715	6.77
528.913	6.83
529.112	6.86
529.31	6.87
529.508	6.97
529.707	6.96
529.905	6.96
530.103	7.02
530.301	7.01
530.5	7.03
530.698	6.98
530.896	7.07
531.094	7.09
531.293	7.11
531.491	7.12
531.689	7.09
531.887	7.1
532.085	7.12
532.283	7.07
532.481	7.13
532.68	7.18
532.878	7.14
533.076	7.19
533.274	7.2
533.472	7.2
533.67	7.23
533.868	7.2
534.066	7.23
534.264	7.22
534.462	7.31
534.66	7.27
534.858	7.21
535.056	7.29
535.253	7.3
535.451	7.35
535.649	7.44
535.847	7.46
536.045	7.45
536.243	7.6
536.441	7.69
536.638	7.66
536.836	7.82
537.034	7.89
537.232	7.9
537.43	7.9
537.627	7.95
537.825	8.01
538.023	8.11
538.22	8.25
538.418	8.23
538.616	8.28
538.813	8.22
539.011	8.08
539.209	8.17
539.406	8.27
539.604	8.34
539.801	8.2
539.999	8.16
540.196	8.13
540.394	8.08
540.591	8.11
540.789	8.1
540.986	8.2
541.184	8.27
541.381	8.22
541.579	8.15
541.776	8.15
541.974	8.2
542.171	8.16
542.368	8.2
542.566	8.26
542.763	8.27
542.96	8.28
543.158	8.29
543.355	8.27
543.552	8.4
543.75	8.5
543.947	8.56
544.144	8.58
544.341	8.77
544.539	8.81
544.736	8.72
544.933	8.82
545.13	8.9
545.327	8.96
545.524	9.26
545.722	9.28
545.919	9.41
546.116	9.47
546.313	9.55
546.51	9.53
546.707	9.51
546.904	9.72
547.101	9.74
547.298	9.74
547.495	9.8
547.692	9.67
547.889	9.71
548.086	9.73
548.283	9.74
548.48	9.85
548.677	9.89
548.874	10.05
549.07	9.93
549.267	9.9
549.464	10.14
549.661	10.2
549.858	10.2
550.055	10.17
550.251	10.07
550.448	10.01
550.645	10.26
550.842	10.11
551.038	10.15
551.235	10.23
551.432	10.31
551.628	10.34
551.825	10.2
552.022	10.27
552.218	10.36
552.415	10.39
552.612	10.49
552.808	10.38
553.005	10.56
553.201	10.73
553.398	10.82
553.594	11
553.791	10.89
553.987	11.12
554.184	11.28
554.38	11.43
554.577	11.56
554.773	11.72
554.97	11.76
555.166	11.89
555.362	11.76
555.559	11.88
555.755	11.93
555.952	11.89
556.148	11.92
556.344	11.85
556.541	11.66
556.737	11.65
556.933	11.63
557.129	11.5
557.326	11.66
557.522	11.85
557.718	12
557.914	11.76
558.11	11.8
558.307	12.1
558.503	12.26
558.699	12.39
558.895	12.72
559.091	12.75
559.287	12.8
559.483	12.73
559.679	12.53
559.876	12.66
560.072	12.87
560.268	13.09
560.464	13.03
560.66	12.94
560.856	13.06
561.052	12.97
561.247	13
561.443	13.22
561.639	13.43
561.835	13.54
562.031	13.36
562.227	13.5
562.423	13.65
562.619	13.76
562.815	14.07
563.01	14.13
563.206	14.36
563.402	14.52
563.598	14.52
563.793	14.33
563.989	14.45
564.185	14.47
564.381	14.38
564.576	14.49
564.772	14.58
564.968	14.48
565.163	14.84
565.359	14.83
565.555	14.86
565.75	14.99
565.946	15.06
566.141	15.12
566.337	15.43
566.532	15.51
566.728	15.51
566.923	15.52
567.119	15.73
567.314	15.68
567.51	15.69
567.705	15.77
567.901	15.77
568.096	16.02
568.292	16.18
568.487	15.97
568.682	16.04
568.878	16.19
569.073	16.05
569.268	15.94
569.464	16.08
569.659	16.13
569.854	15.92
570.05	16.05
570.245	16.04
570.44	15.99
570.635	16.14
570.831	16.36
571.026	16.3
571.221	16.54
571.416	16.51
571.611	16.43
571.806	16.6
572.002	16.97
572.197	17.16
572.392	17.11
572.587	17.33
572.782	17.34
572.977	17.35
573.172	17.67
573.367	17.59
573.562	17.78
573.757	17.76
573.952	17.69
574.147	17.86
574.342	17.78
574.537	17.89
574.732	17.9
574.927	18.01
575.121	18.1
575.316	17.83
575.511	17.81
575.706	18
575.901	18.32
576.096	18.45
576.29	18.27
576.485	18.31
576.68	18.62
576.875	18.65
577.069	18.53
577.264	18.58
577.459	18.77
577.654	18.9
577.848	18.55
578.043	18.37
578.238	18.28
578.432	18.44
578.627	18.49
578.821	18.14
579.016	18.29
579.21	18.57
579.405	18.39
579.6	18.4
579.794	18.69
579.989	18.99
580.183	18.89
580.378	18.98
580.572	19.1
580.766	19.45
580.961	19.73
581.155	19.52
581.35	19.61
581.544	19.88
581.738	20.01
581.933	19.87
582.127	19.92
582.321	20.19
582.516	20.44
582.71	20.28
582.904	19.95
583.099	19.96
583.293	20.03
583.487	20.03
583.681	20.16
583.875	19.96
584.07	20.27
584.264	20.53
584.458	20.49
584.652	20.45
584.846	20.47
585.04	20.45
585.234	20.51
585.428	20.49
585.623	20.73
585.817	20.55
586.011	20.62
586.205	20.35
586.399	20.2
586.593	20.15
586.787	20.18
586.981	20.41
587.174	20.33
587.368	20.35
587.562	20.4
587.756	20.33
587.95	20.34
588.144	20.49
588.338	20.69
588.532	20.82
588.725	21.02
588.919	21.11
589.113	20.89
589.307	21.11
589.501	20.88
589.694	21.03
589.888	20.83
590.082	21.03
590.275	21.02
590.469	21.18
590.663	20.93
590.856	20.62
591.05	20.53
591.244	20.49
591.437	20.53
591.631	20.75
591.824	20.69
592.018	20.96
592.212	21.19
592.405	21.01
592.599	20.89
592.792	21.05
592.986	21.45
593.179	21.59
593.372	21.71
593.566	21.76
593.759	21.91
593.953	21.82
594.146	21.75
594.339	21.5
594.533	21.63
594.726	21.61
594.92	21.57
595.113	21.54
595.306	21.43
595.499	21.62
595.693	21.62
595.886	21.73
596.079	21.84
596.272	21.84
596.466	21.87
596.659	21.92
596.852	21.8
597.045	22.04
597.238	22.12
597.431	22.1
597.624	22.07
597.818	22.06
598.011	21.92
598.204	22.07
598.397	22.19
598.59	22.24
598.783	22.38
598.976	22.68
599.169	22.64
599.362	22.64
599.555	22.66
599.748	22.56
599.941	22.64
600.134	22.63
600.326	22.67
600.519	22.61
600.712	22.38
600.905	22.36
601.098	22.23
601.291	22.06
601.483	22.06
601.676	22.14
601.869	22.35
602.062	22.27
602.255	22.47
602.447	22.45
602.64	22.43
602.833	22.51
603.025	22.3
603.218	22.47
603.411	22.46
603.603	22.45
603.796	22.34
603.989	22.33
604.181	22.57
604.374	22.67
604.566	22.75
604.759	22.91
604.951	23.15
605.144	23.38
605.336	23.29
605.529	23.39
605.721	23.47
605.914	23.59
606.106	23.67
606.299	23.67
606.491	23.32
606.683	23.19
606.876	22.89
607.068	22.66
607.26	22.68
607.453	22.47
607.645	22.39
607.837	22.45
608.03	22.45
608.222	22.23
608.414	22.01
608.606	22.13
608.799	22.04
608.991	22.18
609.183	21.96
609.375	22.02
609.567	22.03
609.759	22.11
609.952	21.82
610.144	21.82
610.336	21.83
610.528	21.68
610.72	21.8
610.912	21.93
611.104	22.02
611.296	22.32
611.488	22.34
611.68	22.64
611.872	22.66
612.064	22.89
612.256	23.06
612.448	23.13
612.64	23.35
612.832	23.27
613.023	23.3
613.215	23.4
613.407	23.31
613.599	23.18
613.791	23.16
613.983	23.13
614.174	23.09
614.366	23.15
614.558	23.1
614.75	23.12
614.941	23
615.133	22.72
615.325	22.59
615.516	22.72
615.708	22.74
615.9	22.88
616.091	23.04
616.283	23.04
616.475	22.78
616.666	22.92
616.858	23.08
617.049	23.15
617.241	23.25
617.432	23.11
617.624	22.93
617.815	22.79
618.007	22.65
618.198	22.62
618.39	22.58
618.581	22.72
618.773	22.48
618.964	22.22
619.155	22.42
619.347	22.5
619.538	22.43
619.729	22.63
619.921	22.54
620.112	22.66
620.303	22.42
620.494	22.68
620.686	22.65
620.877	23
621.068	23.35
621.259	23.43
621.451	23.67
621.642	23.76
621.833	23.66
622.024	23.89
622.215	23.5
622.406	23.62
622.597	23.44
622.788	23.47
622.98	23.63
623.171	23.52
623.362	23.06
623.553	22.81
623.744	22.74
623.935	22.93
624.126	23.01
624.317	23.16
624.508	22.84
624.698	22.84
624.889	22.86
625.08	22.63
625.271	22.69
625.462	23.13
625.653	23.28
625.844	23.52
626.034	23.24
626.225	23.11
626.416	23.4
626.607	23.69
626.798	23.84
626.988	23.72
627.179	23.78
627.37	23.73
627.56	23.53
627.751	23.45
627.942	23.27
628.132	23.54
628.323	23.28
628.514	23.17
628.704	22.91
628.895	22.76
629.085	22.86
629.276	22.77
629.466	22.99
629.657	22.97
629.847	22.91
630.038	22.96
630.228	23
630.419	23.25
630.609	23.12
630.8	23.25
630.99	23.29
631.181	23.37
631.371	23.62
631.561	23.53
631.752	23.53
631.942	23.83
632.132	23.82
632.323	23.93
632.513	23.78
632.703	23.97
632.893	24.23
633.084	24.19
633.274	24.08
633.464	23.74
633.654	23.47
633.844	23.74
634.034	23.38
634.225	23.49
634.415	23.47
634.605	23.75
634.795	23.65
634.985	23.4
635.175	23.27
635.365	23.27
635.555	23.43
635.745	23.73
635.935	23.58
636.125	23.76
636.315	23.64
636.505	23.33
636.695	23.27
636.885	23.14
637.075	23.42
637.265	23.96
637.455	23.99
637.644	23.83
637.834	23.7
638.024	23.56
638.214	23.84
638.404	24.02
638.593	24.06
638.783	24.19
638.973	24.59
639.163	24.29
639.352	23.49
639.542	23.33
639.732	23.51
639.921	23.87
640.111	23.93
640.301	23.79
640.49	24.05
640.68	24.34
640.87	24.37
641.059	23.79
641.249	23.98
641.438	24.17
641.628	24.53
641.817	24.63
642.007	24.34
642.196	24.62
642.386	24.68
642.575	24.18
642.764	23.86
642.954	24.04
643.143	24.52
643.333	24.51
643.522	25.12
643.711	24.76
643.901	24.99
644.09	24.89
644.279	24.99
644.469	25.07
644.658	25.2
644.847	25.08
645.036	24.77
645.226	24.56
645.415	24.41
645.604	23.86
645.793	23.84
645.982	23.9
646.171	23.62
646.361	23.23
646.55	22.62
646.739	22.59
646.928	22.55
647.117	22.59
647.306	22.66
647.495	22.82
647.684	22.83
647.873	22.77
648.062	22.59
648.251	22.46
648.44	23
648.629	23.46
648.818	23.37
649.007	23.69
649.196	23.9
649.384	23.62
649.573	23.63
649.762	23.91
649.951	24.35
650.14	24.22
650.328	24.75
650.517	23.93
650.706	23.7
650.895	23.82
651.083	23.78
651.272	23.75
651.461	23.89
651.65	23.69
651.838	23.97
652.027	23.61
652.216	23.68
652.404	23.42
652.593	23.73
652.781	23.89
652.97	24.15
653.158	24.4
653.347	24.3
653.535	24.3
653.724	24.56
653.912	23.88
654.101	23.97
654.289	24.33
654.478	24.73
654.666	25.04
654.855	25.53
655.043	25.2
655.231	24.63
655.42	24.63
655.608	24.67
655.796	24.87
655.985	25.03
656.173	25.15
656.361	24.86
656.55	24.82
656.738	24.45
656.926	24.29
657.114	24.31
657.302	24.58
657.491	24.4
657.679	24.53
657.867	24.41
658.055	24.4
658.243	24.02
658.431	24.12
658.619	24.2
658.807	24.24
658.996	24.21
659.184	24.22
659.372	24.11
659.56	24.39
659.748	24.4
659.936	24.43
660.124	24.49
660.311	24.9
660.499	24.47
660.687	24.31
660.875	23.88
661.063	23.9
661.251	24.05
661.439	23.86
661.627	23.75
661.814	23.54
662.002	23.65
662.19	23.4
662.378	23.12
662.565	23.37
662.753	23.5
662.941	23.98
663.129	23.62
663.316	23.52
663.504	24.4
663.692	24.08
663.879	24.69
664.067	24.17
664.254	24.22
664.442	24.24
664.63	24.21
664.817	23.84
665.005	23.83
665.192	23.58
665.38	23.61
665.567	23.22
665.755	23.5
665.942	23.13
666.13	22.97
666.317	22.87
666.504	22.72
666.692	22.88
666.879	23.03
667.067	23.35
667.254	23.61
667.441	23.65
667.629	23.67
667.816	24.14
668.003	24.48
668.19	24.91
668.378	25.16
668.565	25.73
668.752	25.43
668.939	25.54
669.127	25.25
669.314	25.16
669.501	25.35
669.688	25.37
669.875	25.2
670.062	24.82
670.249	24.69
670.436	25.31
670.623	24.81
670.81	25.07
670.997	25.07
671.184	25.23
671.371	25.3
671.558	25.31
671.745	25.24
671.932	24.9
672.119	25.11
672.306	25.51
672.493	25.17
672.68	25.14
672.867	24.76
673.054	24.12
673.24	24.28
673.427	24.75
673.614	23.8
673.801	23.6
673.988	23.43
674.174	23.26
674.361	22.89
674.548	22.76
674.734	23.36
674.921	23.74
675.108	24.39
675.294	24.08
675.481	23.84
675.668	24.86
675.854	25
676.041	24.98
676.227	25.04
676.414	24.91
676.601	25.07
676.787	24.49
676.974	24.71
677.16	25.15
677.347	25.49
677.533	25.47
677.719	24.87
677.906	24.97
678.092	25.17
678.279	25.16
678.465	25.48
678.651	25.26
678.838	25.39
679.024	25.45
679.21	24.69
679.397	24.09
679.583	23.88
679.769	24.43
679.955	24.37
680.142	24.24
680.328	24.15
680.514	24.11
680.7	24.15
680.886	24.63
681.073	23.68
681.259	23.68
681.445	24.27
681.631	24.39
681.817	24.26
682.003	24.82
682.189	25.53
682.375	25.64
682.561	25.58
682.747	25.83
682.933	25.15
683.119	25.81
683.305	26.55
683.491	26.6
683.677	26.8
683.863	26.75
684.049	26.59
684.235	25.74
684.42	26.07
684.606	26.2
684.792	25.78
684.978	26.14
685.164	26.03
685.349	25.65
685.535	25.65
685.721	25.54
685.907	25.68
686.092	25.24
686.278	25.78
686.464	25.15
686.649	25.54
686.835	25.72
687.021	25.68
687.206	26.01
687.392	25.85
687.577	25.98
687.763	26.07
687.948	25.39
688.134	25.57
688.319	24.75
688.505	25.01
688.69	24.76
688.876	24.27
689.061	23.88
689.247	24.03
689.432	24.02
689.618	23.29
689.803	22.97
689.988	23.63
690.174	23.63
690.359	24.49
690.544	24.45
690.73	24.43
690.915	24.95
691.1	25.45
691.285	25.33
691.471	25.31
691.656	25.9
691.841	25.88
692.026	25.56
692.211	25.4
692.396	25.27
692.582	25.47
692.767	25.47
692.952	25.53
693.137	25.96
693.322	25.96
693.507	26.14
693.692	25.67
693.877	25.93
694.062	25.94
694.247	25.83
694.432	25.41
694.617	25.25
694.802	25.21
694.987	25.11
695.172	24.83
695.357	25.08
695.541	24.99
695.726	25.15
695.911	25.02
696.096	25.19
696.281	25.63
696.466	25.25
696.65	25.46
696.835	25.25
697.02	25.35
697.204	24.38
697.389	23.72
697.574	23.86
697.759	23.82
697.943	23.34
698.128	23.42
698.312	23.29
698.497	23.94
698.682	23.75
698.866	23.95
699.051	23.96
699.235	24.76
699.42	25.12
699.604	25.03
699.789	25.52
699.973	26.31
700.158	26.17
700.342	25.68
700.527	25.51
700.711	26.04
700.895	25.8
701.08	25.57
701.264	25.39
701.448	24.95
701.633	24.97
701.817	24.39
702.001	23.37
702.186	23.69
702.37	24.38
702.554	24.37
702.738	24.17
702.923	24.3
703.107	24.12
703.291	24.34
703.475	24.81
703.659	24.68
703.843	25.15
704.027	25.63
704.212	25.79
704.396	26.02
704.58	25.96
704.764	25.34
704.948	25.39
705.132	25.91
705.316	25.48
705.5	25.73
705.684	25.32
705.868	25.2
706.052	25.61
706.235	25.7
706.419	25.38
706.603	25.87
706.787	25.96
706.971	25.9
707.155	25.61
707.339	25.87
707.522	25.14
707.706	25.77
707.89	25
708.074	25.21
708.257	24.95
708.441	24.71
708.625	23.98
708.808	24.27
708.992	24.32
709.176	24.54
709.359	24.28
709.543	25.04
709.727	25.06
709.91	25.86
710.094	25.79
710.277	24.84
710.461	25.26
710.644	25.62
710.828	25.74
711.011	25.62
711.195	24.95
711.378	25.7
711.562	25.26
711.745	25.17
711.928	25.07
712.112	24.89
712.295	26.18
712.478	26.04
712.662	25.66
712.845	25
713.028	25.14
713.212	25.88
713.395	24.73
713.578	24.68
713.761	24.8
713.945	24.64
714.128	24.25
714.311	23.35
714.494	23.09
714.677	23.58
714.86	23.63
715.043	23.38
715.227	23.15
715.41	23.82
715.593	24.52
715.776	24.33
715.959	23.3
716.142	23.51
716.325	23.12
716.508	23.28
716.691	23.01
716.874	23.07
717.057	23.41
717.239	23.52
717.422	23.37
717.605	22.96
717.788	23.02
717.971	24.14
718.154	24.88
718.337	26.08
718.519	25.48
718.702	26.41
718.885	26.46
719.068	26.16
719.25	25.89
719.433	25.05
719.616	24.81
719.798	24.66
719.981	24.09
720.164	23.29
720.346	23.41
720.529	24.29
720.712	23.67
720.894	24.21
721.077	24.47
721.259	25.41
721.442	26.9
721.624	26.44
721.807	26.55
721.989	27.27
722.172	28.01
722.354	26.67
722.537	25.87
722.719	24.66
722.901	24.58
723.084	24.53
723.266	24
723.448	23.5
723.631	24.08
723.813	24.01
723.995	23.51
724.178	23.27
724.36	24.68
724.542	25.78
724.724	26.57
724.907	25.85
725.089	26.14
725.271	26.44
725.453	25.96
725.635	25.98
725.817	25.78
725.999	26.95
726.181	27.55
726.364	27.59
726.546	27.03
726.728	27.15
726.91	28.17
727.092	28.81
727.274	29.15
727.456	29.48
727.638	29.62
727.819	30.23
728.001	28.51
728.183	27.69
728.365	27.75
728.547	27.72
728.729	27.46
728.911	26.81
729.093	25.14
729.274	25.35
729.456	25.33
729.638	24.65
729.82	24.46
730.001	25.75
730.183	25.74
730.365	25.02
730.546	24.72
730.728	25.83
730.91	25.61
731.091	26.74
731.273	24.86
731.455	25.48
731.636	25.81
731.818	25.44
731.999	25.5
732.181	25.35
732.362	25.79
732.544	25.59
732.725	23.85
732.907	23.92
733.088	24.46
733.27	25.29
733.451	24.55
733.633	24.82
733.814	24.87
733.995	24.65
734.177	24.33
734.358	23.94
734.539	24.83
734.721	24.36
734.902	24.88
735.083	23.77
735.264	23.57
735.446	24.07
735.627	24.07
735.808	23.4
735.989	23.8
736.17	24.43
736.351	25.03
736.533	25.05
736.714	26.66
736.895	26.18
737.076	26.48
737.257	26.54
737.438	26.92
737.619	27.08
737.8	28.02
737.981	26.97
738.162	26.47
738.343	25.58
738.524	24.95
738.705	24.89
738.886	25.36
739.067	25.73
739.247	26.23
739.428	25.75
739.609	25.26
739.79	24.85
739.971	24.82
740.151	25.37
740.332	26.17
740.513	27.3
740.694	27.67
740.874	28.1
741.055	27.65
741.236	27.41
741.417	27.81
741.597	28.56
741.778	29.2
741.958	31.25
742.139	30.91
742.32	30.38
742.5	29.74
742.681	28.45
742.861	27.53
743.042	27.65
743.222	27.41
743.403	26.26
743.583	26.05
743.764	27.15
743.944	25.36
744.124	23.46
744.305	23.34
744.485	23.31
744.666	24.11
744.846	24.33
745.026	24.09
745.207	23.9
745.387	23.91
745.567	23.57
745.747	22.03
745.928	23.53
746.108	24.92
746.288	24.08
746.468	23.38
746.648	23.75
746.829	23.39
747.009	23.34
747.189	24.32
747.369	24.46
747.549	23.81
747.729	23.5
747.909	22.01
748.089	21.93
748.269	24.01
748.449	23.66
748.629	24.13
748.809	24.38
748.989	25.92
749.169	25.18
749.349	25.81
749.529	27.95
749.709	28.22
749.889	29.28
750.068	31.03
750.248	29.98
750.428	32.11
750.608	32.24
750.788	32.86
750.967	32.71
751.147	33.39
751.327	31.81
751.507	30.01
751.686	31.03
751.866	30.43
752.046	29.03
752.225	28.39
752.405	27.25
752.585	28.42
752.764	28.3
752.944	26.04
753.123	27.45
753.303	29.34
753.482	29.09
753.662	28.96
753.841	28.29
754.021	29.17
754.2	30.52
754.38	31.13
754.559	28.17
754.739	28.18
754.918	28.21
755.097	26.19
755.277	25.21
755.456	24.79
755.635	23.89
755.815	23.63
755.994	24.08
756.173	23.79
756.352	23.66
756.532	24.84
756.711	24.54
756.89	25.63
757.069	26.81
757.248	27.24
757.427	28.09
757.607	30.39
757.786	32.49
757.965	30.85
758.144	30.72
758.323	30.21
758.502	29.38
758.681	29.37
758.86	29.42
759.039	28.82
759.218	30.16
759.397	30.31
759.576	28.55
759.755	27.12
759.934	28.11
760.113	27.44
760.291	27.16
760.47	28.9
760.649	28.12
760.828	28.02
761.007	28.89
761.186	27.45
761.364	27.81
761.543	26.26
761.722	26.23
761.901	26.26
762.079	27.33
762.258	26.24
762.437	25.73
762.615	26.9
762.794	26.96
762.972	25.75
763.151	26
763.33	26.41
763.508	27.37
763.687	27.22
763.865	27.71
764.044	27.42
764.222	28.74
764.401	28.4
764.579	28.65
764.758	28.56
764.936	28.74
765.114	29.99
765.293	28.88
765.471	29.98
765.65	30.6
765.828	30.3
766.006	30.24
766.184	30.01
766.363	30.2
766.541	29.34
766.719	28.97
766.898	28
767.076	25.55
767.254	26.09
767.432	24.78
767.61	23.78
767.788	24.35
767.967	23.54
768.145	23.31
768.323	22.85
768.501	23.83
768.679	23.4
768.857	26.01
769.035	28.31
769.213	28.05
769.391	29.04
769.569	29.78
769.747	27.15
769.925	27.98
770.103	27.34
770.281	28.38
770.459	27.35
770.636	29.64
770.814	29.68
770.992	29.51
771.17	31.02
771.348	29.56
771.525	28.62
771.703	30.72
771.881	30.55
772.059	31.43
772.236	31.21
772.414	31.58
772.592	29.79
772.769	29.32
772.947	27.03
773.125	26.92
773.302	28.03
773.48	30.12
773.657	27.73
773.835	27.36
774.013	26.62
774.19	25.74
774.368	26.4
774.545	27.63
774.723	26.85
774.9	27.61
775.077	24.68
775.255	24.84
775.432	23.88
775.61	24.34
775.787	25.64
775.964	25.19
776.142	25.51
776.319	24.03
776.496	23.31
776.674	23.55
776.851	22.64
777.028	26.17
777.205	24.65
777.382	24.74
777.56	25.7
777.737	24.06
777.914	24.57
778.091	23.65
778.268	26.11
778.445	26.14
778.622	24.37
778.8	25.2
778.977	23.32
779.154	23
779.331	22.29
779.508	22.49
779.685	24.36
779.862	25.56
780.038	26.21
780.215	22.84
780.392	21.28
780.569	22.31
780.746	22.28
780.923	22.55
781.1	24.7
781.277	26.24
781.453	25.89
781.63	25.8
781.807	25.29
781.984	25.99
782.16	27.96
782.337	29.98
782.514	28.66
782.691	27.75
782.867	26.29
783.044	25.57
783.221	23.12
783.397	24.68
783.574	23.17
783.75	23.75
783.927	21.93
784.103	19.84
784.28	19.43
784.456	22.89
784.633	25.52
784.809	26.97
784.986	26.2
785.162	25.94
785.339	24.92
785.515	25.41
785.692	25.86
785.868	27.85
786.044	28.87
786.221	28.67
786.397	25.42
786.573	24.34
786.749	22.38
786.926	24.32
787.102	25.39
787.278	24.95
787.454	24.97
787.631	23.38
787.807	22.48
787.983	22.63
788.159	23.91
788.335	25.16
788.511	25.51
788.687	27.36
788.863	24.09
789.039	25.15
789.216	27.52
789.392	27.07
789.568	29.06
789.744	28.7
789.919	30.87
790.095	31.09
790.271	30.76
790.447	32.33
790.623	31.94
790.799	34.77
790.975	33.09
791.151	31.54
791.327	33
791.502	30.34
791.678	30.78
791.854	29.09
792.03	29.93
792.205	31.68
792.381	27.59
792.557	26.1
792.733	25.77
792.908	28.91
793.084	28.43
793.259	28.9
793.435	31.27
793.611	31.65
793.786	30.85
793.962	29.62
794.137	29.41
794.313	31.12
794.488	31.32
794.664	32.19
794.839	30.16
795.015	30.36
795.19	27.59
795.366	28.84
795.541	27.62
795.716	30.2
795.892	27.63
796.067	26.41
796.242	24.21
796.418	25.07
796.593	24.09
796.768	24.11
796.944	21.27
797.119	22.92
797.294	19.47
797.469	19.87
797.644	17.02
797.82	16.35
797.995	16.93
798.17	20.51
798.345	22.13
798.52	20.9
798.695	20.81
798.87	21.33
799.045	20.85
799.22	22.29
799.395	20.22
799.57	20.25
799.745	23.19
799.92	26.16
800.095	24.24
800.27	23
800.445	24.33
800.62	27.26
800.795	29.95
800.97	28.45
801.145	26.09
801.319	28.9
801.494	30.27
801.669	30.89
801.844	25.93
802.018	22.69
802.193	23.11
802.368	21.48
802.543	17.58
802.717	18.97
802.892	20.98
803.067	20.83
803.241	20.77
803.416	18.22
803.59	17.52
803.765	17.95
803.94	22.4
804.114	21.56
804.289	23.29
804.463	23.04
804.638	21.59
804.812	21.1
804.986	23.28
805.161	26.7
805.335	30.27
805.51	30.76
805.684	34.71
805.858	34.54
806.033	36.1
806.207	33.81
806.381	34.36
806.556	32.74
806.73	34.96
806.904	36.42
807.078	38.71
807.253	37.95
807.427	37.21
807.601	36.04
807.775	36.28
807.949	40.04
808.123	38.89
808.298	38.37
808.472	37.37
808.646	36.13
808.82	33.62
808.994	28.43
809.168	25.09
809.342	23.78
809.516	24.8
809.69	22.05
809.864	22.41
810.038	27.57
810.212	29.1
810.385	34.28
810.559	33.28
810.733	32.46
810.907	32.86
811.081	32.94
811.255	35.01
811.428	31.8
811.602	32.01
811.776	28.5
811.95	23.38
812.123	23.81
812.297	21.91
812.471	24.53
812.644	24.72
812.818	26.43
812.992	27.1
813.165	26.6
813.339	23.99
813.512	24.52
813.686	20.79
813.86	22.31
814.033	18.44
814.207	18.45
814.38	17.61
814.554	18.26
814.727	18.5
814.9	17.14
815.074	15.62
815.247	17.66
815.421	13.15
815.594	14.74
815.767	18.03
815.941	24.63
816.114	27.17
816.287	29.56
816.46	32.67
816.634	30.28
816.807	34.28
816.98	31.5
817.153	33.38
817.327	33.72
817.5	36.38
817.673	34.74
817.846	31.05
818.019	32.14
818.192	28.42
818.365	20.74
818.538	22.01
818.711	25.63
818.884	25.76
819.057	22.42
819.23	23.93
819.403	21.76
819.576	21.68
819.749	23.27
819.922	22.2
820.095	21.67
820.268	27.47
820.441	27.81
820.614	24.87
820.786	26.82
820.959	26.37
821.132	26.25
821.305	25.54
821.477	27.58
821.65	26.41
821.823	26.18
821.996	27.42
822.168	25.62
822.341	26.1
822.514	26.34
822.686	25.67
822.859	26.33
823.031	26.61
823.204	27.93
823.376	27.48
823.549	28.27
823.722	28.48
823.894	28.93
824.067	30.39
824.239	29.61
824.411	30.13
824.584	30.31
824.756	30.81
824.929	30.6
825.101	29.72
825.273	30.08
825.446	29.79
825.618	29.86
825.79	28.27
825.963	27.04
826.135	27.43
826.307	27.65
826.479	28.14
826.652	27.31
826.824	28.85
826.996	28.47
827.168	27.78
827.34	27.18
827.512	27.06
827.684	26.06
827.856	27.55
828.029	26.84
828.201	26.3
828.373	27.89
828.545	28.98
828.717	29.2
828.889	30.62
829.061	30.56
829.232	30.73
829.404	31.4
829.576	33.32
829.748	31.48
829.92	31.81
830.092	31.87
830.264	31.08
830.436	30.21
830.607	31.34
830.779	31.61
830.951	34.04
831.123	31.18
831.294	29.58
831.466	30.13
831.638	29.99
831.809	33.86
831.981	36.24
832.153	35.41
832.324	35.99
832.496	31.11
832.667	24.24
832.839	24.17
833.011	26.2
833.182	22.98
833.354	22.24
833.525	26.56
833.697	26.99
833.868	24.71
834.039	21.71
834.211	20.49
834.382	20.18
834.554	23.06
834.725	22.66
834.896	23.38
835.068	23.92
835.239	22.22
835.41	19.1
835.581	19.38
835.753	19.83
835.924	20.66
836.095	20.34
836.266	22.67
836.438	22.33
836.609	21.92
836.78	21.44
836.951	21.92
837.122	24.1
837.293	24.59
837.464	22.01
837.635	21.58
837.806	23.83
837.977	29.65
838.148	28.48
838.319	32.67
838.49	33.31
838.661	37.33
838.832	38.91
839.003	39.2
839.174	35.96
839.345	36.53
839.516	36.88
839.687	39.74
839.857	37.55
840.028	33.57
840.199	32.64
840.37	35.27
840.54	33.91
840.711	33.88
840.882	35.15
841.053	37.12
841.223	32.48
841.394	30.24
841.564	25.97
841.735	29.39
841.906	41.3
842.076	39.94
842.247	38.17
842.417	33.84
842.588	32.15
842.758	32.2
842.929	34.43
843.099	34.4
843.27	38.69
843.44	39.49
843.611	30.35
843.781	21.45
843.951	21.22
844.122	20.97
844.292	28.07
844.462	32.69
844.633	27.62
844.803	31.51
844.973	42.94
845.144	38.41
845.314	48.39
845.484	50.17
845.654	42.5
845.824	34.75
845.995	39.2
846.165	35.28
846.335	29.84
846.505	41.49
846.675	43.27
846.845	33.01
847.015	36.87
847.185	27.08
847.355	32.99
847.525	38.33
847.695	50.14
847.865	44.48
848.035	53.04
848.205	58.39
848.375	48.68
848.545	39.95
848.715	44.66
848.884	44.25
849.054	42.88
849.224	49.06
849.394	34.36
849.564	25.75
849.733	14.59
849.903	-3.52
850.073	-6.78
850.243	5.08
850.412	17.6
850.582	7.66
850.752	12.58
850.921	23.38
851.091	24.37
851.26	38.82
851.43	30.71
851.599	22.62
851.769	21.65
851.939	30.68
852.108	24.3
852.278	19.09
852.447	28.62
852.616	35.53
852.786	25.11
852.955	16.12
853.125	11.03
853.294	30.15
853.463	48.98
853.633	49.17
853.802	45.21
853.971	38.63
854.141	43.85
854.31	39.38
854.479	45.71
854.648	51.91
854.818	57.9
854.987	59.81
855.156	53.95
855.325	57.58
855.494	75.65
855.663	72.12
855.832	81.79
856.001	75.3
856.171	79.33
856.34	66.82
856.509	67.29
856.678	57.9
856.847	57.9
857.016	45.32
857.185	39.75
857.353	13.26
857.522	4.18
857.691	21.48
857.86	32.38
858.029	19.27
858.198	7.49
858.367	12.62
858.535	23.37
858.704	25.61
858.873	43.84
859.042	43.19
859.21	51.03
859.379	55.69
859.548	38.22
859.717	33.65
859.885	55.27
860.054	59.72
860.222	51.69
860.391	49.37
860.56	54.86
860.728	59.51
860.897	60.21
861.065	56.33
861.234	58.17
861.402	64.24
861.571	64.38
861.739	61.08
861.908	58.77
862.076	64.41
862.244	60.31
862.413	59.36
862.581	56.01
862.749	41.62
862.918	37.15
863.086	39.36
863.254	32.87
863.423	33.8
863.591	30.8
863.759	35.48
863.927	28.81
864.096	21.27
864.264	14.37
864.432	21.42
864.6	24.43
864.768	21.59
864.936	15.48
865.104	20.6
865.272	14.04
865.44	-1.15
865.608	-19.86
865.776	-24.44
865.944	-11.11
866.112	4.38
866.28	4.55
866.448	7.39
866.616	26.93
866.784	55.33
866.952	58.91
867.12	69.75
867.288	76.19
867.455	83.2
867.623	75.39
867.791	75.88
867.959	68.32
868.127	71.79
868.294	93.17
868.462	61.78
868.63	43.9
868.797	36.9
868.965	47.18
869.133	43.86
869.3	46.47
869.468	50.72
869.636	41.33
869.803	30.81
869.971	34.38
870.138	30.49
870.306	44.27
870.473	35.65
870.641	54
870.808	37.72
870.975	51.43
871.143	44.87
871.31	41.81
871.478	46.08
871.645	67.67
871.812	61.51
871.98	38.39
872.147	45.34
872.314	43.4
872.482	37.98
872.649	37.91
872.816	35.72
872.983	44.41
873.15	50.63
873.318	48.98
873.485	48.61
873.652	56.45
873.819	70.36
873.986	67.53
874.153	80.54
874.32	81.4
874.487	108.11
874.654	103.5
874.821	89.69
874.988	95.47
875.155	106.33
875.322	101.26
875.489	98.03
875.656	105.05
875.823	88.88
875.99	87.53
876.157	92.05
876.324	82.22
876.49	61.08
876.657	65.51
876.824	56.25
876.991	46.77
877.157	43.76
877.324	37.36
877.491	30.25
877.658	28.37
877.824	27.15
877.991	10.54
878.157	13.74
878.324	32.73
878.491	31.53
878.657	45.63
878.824	47.73
878.99	39.51
879.157	25.95
879.323	30.12
879.49	27.68
879.656	31.87
879.823	35.11
879.989	36.8
880.156	41.33
880.322	43.65
880.488	29.68
880.655	22.17
880.821	25.09
880.987	33.72
881.154	29.33
881.32	33.98
881.486	32.4
881.652	30.69
881.819	29.7
881.985	24.07
882.151	22.61
882.317	22.35
882.483	26.07
882.649	28.46
882.816	28.46
882.982	30.2
883.148	28.53
883.314	26.62
883.48	28.65
883.646	28.18
883.812	27.22
883.978	26.6
884.144	26.11
884.31	25.31
884.476	22.28
884.642	22.53
884.807	22.88
884.973	23.69
885.139	22.98
885.305	23.6
885.471	20.63
885.637	26.67
885.802	24.69
885.968	24.78
886.134	25.81
886.3	33.79
886.465	33.53
886.631	34.04
886.797	33.92
886.962	38.25
887.128	33.61
887.293	40.77
887.459	38.46
887.625	44.58
887.79	44.83
887.956	39.09
888.121	31.98
888.287	29.75
888.452	26.07
888.618	22.8
888.783	17.11
