Data from 2938059_Reflection_3.txt Node
Date: Sun Jul 12 13:55:02 EDT 2015
User: robert
Spectrometer: USB4E03001
Autoset integration time: false
Trigger mode: 4
Integration Time (sec): 1.000000E-1
Scans to average: 10
Electric dark correction enabled: true
Nonlinearity correction enabled: false
Boxcar width: 5
Stray light correction enabled: false
XAxis mode: Wavelengths
Stop averaging: false
Number of Pixels in Spectrum: 3648
>>>>>Begin Spectral Data<<<<<
177.566	151.18
177.785	163.01
178.005	171.05
178.225	83.97
178.445	61.87
178.665	75.71
178.885	-426.45
179.105	82.53
179.324	16.22
179.544	46.53
179.764	-1356.48
179.984	44.09
180.204	50.42
180.423	280.74
180.643	135.51
180.863	207.84
181.083	-1105.7
181.302	-153.25
181.522	-90.26
181.742	-220.53
181.961	-79.79
182.181	-115.3
182.401	-139.27
182.621	-314.28
182.84	-276.72
183.06	-132.68
183.279	-114.37
183.499	-173.63
183.719	-73.23
183.938	-51.39
184.158	-21.73
184.377	-27.91
184.597	-139.25
184.816	-29.46
185.036	34.34
185.256	53.03
185.475	4.95
185.695	16.82
185.914	12.66
186.134	-37.31
186.353	-43.99
186.572	-38.17
186.792	-19.75
187.011	-33.69
187.231	-14.58
187.45	-60.46
187.67	-23.5
187.889	-2.29
188.108	-21.07
188.328	-4.37
188.547	-12.67
188.766	-33.01
188.986	-72.79
189.205	-92.49
189.424	-46.39
189.644	-94.22
189.863	-67.1
190.082	-72.22
190.302	-99.73
190.521	-81.82
190.74	-87.1
190.959	-159.25
191.178	-80.12
191.398	-14.79
191.617	-49.99
191.836	-63.85
192.055	8044.44
192.274	-264.91
192.494	-59.9
192.713	-30.14
192.932	47.85
193.151	40.53
193.37	-11.4
193.589	-984.46
193.808	576.14
194.027	684.12
194.246	865.07
194.465	-3770.05
194.685	-426.99
194.904	-279.83
195.123	-187.15
195.342	-238.4
195.561	-290.98
195.78	-266.48
195.999	-373.22
196.218	-316.95
196.436	-232.05
196.655	-181.4
196.874	-123.62
197.093	-163.94
197.312	-447.27
197.531	-304.38
197.75	-208.36
197.969	959.81
198.188	-229.32
198.407	-66.23
198.625	-26.34
198.844	-18.76
199.063	-23.52
199.282	-54.18
199.501	-98.1
199.719	-35.07
199.938	-87.13
200.157	-138.09
200.376	-107.26
200.594	-199.96
200.813	-133.58
201.032	-100.47
201.251	-178.1
201.469	-106.28
201.688	-54.31
201.907	-32.47
202.125	-112.23
202.344	-105.88
202.563	16.19
202.781	20.72
203	-12.08
203.218	-73.24
203.437	-1611.33
203.656	-148.35
203.874	-102.25
204.093	-132.93
204.311	-211.09
204.53	-151.74
204.748	-165.44
204.967	-779.33
205.185	-284.9
205.404	-265.56
205.622	-189.05
205.841	-144.83
206.059	-430.34
206.278	-715.12
206.496	-5539.71
206.715	1324.97
206.933	1504.87
207.151	-637.64
207.37	-441.09
207.588	-628.72
207.806	-203.33
208.025	-192.34
208.243	-618.69
208.461	-180.05
208.68	773.1
208.898	-142.51
209.116	-46.39
209.335	-20.07
209.553	-7995.45
209.771	-659.74
209.989	-47.08
210.208	-33.79
210.426	-27.78
210.644	-41.63
210.862	-47.9
211.081	1.01
211.299	-0.21
211.517	-24.13
211.735	-34.2
211.953	-15.75
212.171	-42.04
212.39	-113.38
212.608	-199.38
212.826	-687.28
213.044	-173.63
213.262	-52.42
213.48	-79.26
213.698	-118.19
213.916	-182.8
214.134	-154.53
214.352	-151.59
214.57	-63.71
214.788	-77.37
215.006	-29.08
215.224	-2.95
215.442	-189.47
215.66	533.33
215.878	349.82
216.096	560.53
216.314	933.59
216.532	-170.18
216.75	-648.42
216.968	-2125.65
217.185	-167.63
217.403	-1553.63
217.621	-327.19
217.839	-158.09
218.057	-91.92
218.275	-81.57
218.492	-159.62
218.71	-145.13
218.928	-552.39
219.146	-517.38
219.363	-302.14
219.581	-162.52
219.799	-75.39
220.017	-92.89
220.234	-61.53
220.452	-142.2
220.67	-90.07
220.887	-118.68
221.105	-113.15
221.323	-9.2
221.54	38.97
221.758	45.87
221.976	24.24
222.193	20.74
222.411	29.22
222.629	0.68
222.846	1.13
223.064	-69.61
223.281	-42.74
223.499	-52.44
223.716	-92.7
223.934	-106.4
224.151	-131.84
224.369	-108.66
224.586	-94.49
224.804	-99.48
225.021	-108.91
225.239	-70.46
225.456	-37.48
225.674	-39.03
225.891	-27.59
226.108	-21.85
226.326	-12.61
226.543	-23.72
226.76	-18.99
226.978	-24.22
227.195	-20.68
227.413	-19.52
227.63	-19.99
227.847	-13.59
228.064	-9.89
228.282	-12.19
228.499	-13.78
228.716	-14.04
228.934	-11.27
229.151	-9.07
229.368	-5.23
229.585	-4.28
229.802	-2.75
230.02	-6.77
230.237	-7.69
230.454	-10.18
230.671	-11.92
230.888	-12
231.105	-14.23
231.323	-12.91
231.54	-15.12
231.757	-18.8
231.974	-22.28
232.191	-28.27
232.408	-26.9
232.625	-29.56
232.842	-34.65
233.059	-33.08
233.276	-31.62
233.493	-29.54
233.71	-37.77
233.927	-33.22
234.144	-42.72
234.361	-40.48
234.578	-42.96
234.795	-42.63
235.012	-35.15
235.229	-28.85
235.446	-23.9
235.663	-21.61
235.879	-23.23
236.096	-20.94
236.313	-22.33
236.53	-19.38
236.747	-23.91
236.964	-25.01
237.181	-16.74
237.397	-19.34
237.614	-18.12
237.831	-20.35
238.048	-23.63
238.264	-22.43
238.481	-21.46
238.698	-25.38
238.915	-18.99
239.131	-19.96
239.348	-9.61
239.565	-12.64
239.781	-9.33
239.998	-10.72
240.215	-11.07
240.431	-11
240.648	-9.07
240.865	-6.76
241.081	-2.4
241.298	-3.82
241.514	-1.5
241.731	-2.99
241.947	-1.44
242.164	-1.99
242.38	-1.34
242.597	0.42
242.814	1.24
243.03	-0.73
243.246	-1.6
243.463	-3.08
243.679	-1.96
243.896	-2.36
244.112	-0.09
244.329	-1.48
244.545	-3.73
244.762	-2.46
244.978	-4.37
245.194	-2.41
245.411	1.26
245.627	1.34
245.843	1.64
246.06	0.27
246.276	1.61
246.492	0.31
246.709	0.83
246.925	1.63
247.141	0.6
247.357	0.93
247.574	-0.62
247.79	-0.8
248.006	-0.12
248.222	0.58
248.439	0.73
248.655	0.02
248.871	-1.14
249.087	-2.33
249.303	-1.92
249.519	-2.26
249.736	-1.61
249.952	-0.68
250.168	-1.22
250.384	-2.33
250.6	-2.94
250.816	-2.47
251.032	-3.28
251.248	-0.9
251.464	0.51
251.68	1.18
251.896	1.74
252.112	2.39
252.328	2.48
252.544	0.11
252.76	-2.17
252.976	-3.49
253.192	-4.21
253.408	-2.49
253.624	-4.54
253.84	-5.54
254.056	-6.63
254.272	-7.71
254.487	-10.63
254.703	-10.96
254.919	-10.12
255.135	-5.6
255.351	-6.28
255.567	-8.17
255.782	-7.37
255.998	-5.23
256.214	-6.9
256.43	-5.89
256.646	-4.65
256.861	-5.83
257.077	-6.35
257.293	-5.56
257.508	-5.4
257.724	-4.27
257.94	-0.84
258.155	-1.04
258.371	-2.28
258.587	-0.29
258.802	-0.74
259.018	-0.42
259.234	0.63
259.449	1.64
259.665	2.06
259.88	1.89
260.096	1.88
260.312	1.2
260.527	0.76
260.743	1.1
260.958	0.54
261.174	0.22
261.389	-0.14
261.605	-1.12
261.82	-2.44
262.036	-2.7
262.251	-4.25
262.466	-6.17
262.682	-6.55
262.897	-7.3
263.113	-7.18
263.328	-7.91
263.543	-8.5
263.759	-7.43
263.974	-7.69
264.189	-7.34
264.405	-7.27
264.62	-7.35
264.835	-3.84
265.051	-4.41
265.266	-4.74
265.481	-4.27
265.696	-1.88
265.912	0.32
266.127	-0
266.342	1.16
266.557	2.26
266.773	2.55
266.988	2.09
267.203	-0.8
267.418	0.2
267.633	0.64
267.848	0.9
268.064	0.47
268.279	-0.94
268.494	-1.51
268.709	-2.43
268.924	-3.48
269.139	-4.32
269.354	-2.3
269.569	-1.28
269.784	-1.43
269.999	-0.63
270.214	-1.6
270.429	-0.67
270.644	-0.76
270.859	-1.13
271.074	-0.94
271.289	0.54
271.504	1.9
271.719	2.07
271.934	3.45
272.149	2.81
272.363	1.37
272.578	1.85
272.793	0.4
273.008	1.31
273.223	2.24
273.438	2.79
273.653	1.61
273.867	0.48
274.082	-0.49
274.297	-2.3
274.512	-2.15
274.726	-1.19
274.941	-1.3
275.156	-1.54
275.371	-2.92
275.585	-3.19
275.8	-4.26
276.015	-3.07
276.229	-2.15
276.444	-2.21
276.659	-0.9
276.873	-0.39
277.088	-2.87
277.302	-5.08
277.517	-3.43
277.732	-2.74
277.946	-2.37
278.161	-2.4
278.375	-4.35
278.59	-5.59
278.804	-4.3
279.019	-4.57
279.233	-4.71
279.448	-3.55
279.662	-1.3
279.877	-0.8
280.091	-0.94
280.306	-0.87
280.52	-0.5
280.735	0.83
280.949	1.09
281.163	-0.23
281.378	0.03
281.592	0.56
281.806	1.38
282.021	0.15
282.235	-0.39
282.449	0.37
282.664	1.1
282.878	0.41
283.092	0.11
283.307	-0.26
283.521	-1.05
283.735	-0.65
283.949	-1.7
284.164	-1.55
284.378	0.28
284.592	0.87
284.806	2.1
285.02	0.98
285.234	1.04
285.449	1.09
285.663	1.66
285.877	2.17
286.091	1.57
286.305	1.98
286.519	2.64
286.733	1.64
286.947	1.74
287.161	0.43
287.375	0.92
287.589	1.49
287.803	1.13
288.017	1.18
288.231	1.68
288.445	1.68
288.659	1.6
288.873	0.64
289.087	1.04
289.301	-0.51
289.515	-0.34
289.729	-0.67
289.943	-1.23
290.157	-0.98
290.371	-0.64
290.584	0.66
290.798	1.25
291.012	0.84
291.226	0.38
291.44	0.94
291.654	1.93
291.867	1.13
292.081	0.92
292.295	1.07
292.509	0.62
292.722	0.11
292.936	-1.38
293.15	-1.93
293.364	-1.77
293.577	-0.61
293.791	-0.21
294.005	-0.47
294.218	-0.67
294.432	-0.86
294.645	-0.46
294.859	0.19
295.073	-0.5
295.286	-0.42
295.5	-0.12
295.713	0.48
295.927	-0.22
296.14	0
296.354	-0.05
296.568	0.57
296.781	1.07
296.994	1.18
297.208	1.74
297.421	1.99
297.635	2.1
297.848	2.16
298.062	2.96
298.275	3.64
298.489	2.46
298.702	2.79
298.915	1.98
299.129	1.62
299.342	1.67
299.555	0.81
299.769	0.96
299.982	1.23
300.195	0.8
300.409	-0.15
300.622	-0.72
300.835	-0.18
301.048	0.31
301.262	0.98
301.475	1.51
301.688	2.44
301.901	2.71
302.115	2.5
302.328	3.71
302.541	4.7
302.754	5.65
302.967	6.26
303.18	6.43
303.393	6.08
303.607	6.16
303.82	6.69
304.033	5.51
304.246	5.46
304.459	5.77
304.672	4.16
304.885	3
305.098	2.77
305.311	1.47
305.524	1.43
305.737	0.89
305.95	0.64
306.163	0.22
306.376	2.18
306.589	2.09
306.802	1.67
307.015	2.3
307.228	1.84
307.44	0.6
307.653	1.39
307.866	1.25
308.079	1.7
308.292	2.54
308.505	2.47
308.718	1.27
308.93	0.47
309.143	1.29
309.356	1.64
309.569	2.15
309.781	3.13
309.994	3.86
310.207	4.46
310.42	4.56
310.632	4.4
310.845	4.15
311.058	3.39
311.27	4.88
311.483	5.08
311.696	4.56
311.908	4.7
312.121	3.39
312.333	3.69
312.546	2.35
312.759	1.91
312.971	1.54
313.184	1.59
313.396	1.88
313.609	1.12
313.821	1.86
314.034	1.59
314.246	1.53
314.459	3.45
314.671	2.3
314.884	2.79
315.096	5.1
315.309	4.32
315.521	4.12
315.733	5.37
315.946	5.29
316.158	2.76
316.371	3.45
316.583	3.78
316.795	2.23
317.008	1.85
317.22	2.92
317.432	0.05
317.644	1.67
317.857	0.91
318.069	0.86
318.281	0.73
318.494	1.92
318.706	0.92
318.918	1.53
319.13	3.03
319.342	5.67
319.555	5.27
319.767	6.73
319.979	6.11
320.191	8.31
320.403	8.87
320.615	9.54
320.827	11.39
321.039	11.26
321.252	10.11
321.464	8.79
321.676	6.71
321.888	7.34
322.1	6.57
322.312	5.98
322.524	4.32
322.736	3.62
322.948	2.94
323.16	0.96
323.372	1.41
323.584	2.41
323.796	2.68
324.007	2.54
324.219	2.18
324.431	2.59
324.643	4.18
324.855	4.81
325.067	5.08
325.279	5.12
325.491	5.32
325.702	5.08
325.914	5
326.126	5.75
326.338	6.78
326.55	5.96
326.761	5.99
326.973	5.85
327.185	5.57
327.396	4.99
327.608	5.74
327.82	7.63
328.032	8.96
328.243	9.44
328.455	8.94
328.666	6.46
328.878	7.97
329.09	8.82
329.301	9.52
329.513	9.51
329.725	9.25
329.936	8.52
330.148	6.45
330.359	6.09
330.571	5.74
330.782	5.7
330.994	8.06
331.205	9.1
331.417	8.69
331.628	8.14
331.84	9.65
332.051	8.67
332.262	9.31
332.474	9.73
332.685	11.02
332.897	11.39
333.108	10.78
333.319	10.92
333.531	9.79
333.742	10.12
333.953	9.41
334.165	9.41
334.376	11.91
334.587	11.92
334.799	12.68
335.01	12.4
335.221	11.86
335.432	12.69
335.644	12.08
335.855	12.63
336.066	12.89
336.277	13.6
336.488	13.7
336.7	13.68
336.911	13.18
337.122	13.99
337.333	14.52
337.544	15.49
337.755	16.8
337.966	18.26
338.177	18.06
338.388	17.23
338.599	17.72
338.811	16.98
339.022	16.11
339.233	16.74
339.444	16.83
339.655	16.5
339.866	16.43
340.076	16.18
340.287	15.46
340.498	15.2
340.709	16
340.92	15.92
341.131	15.6
341.342	17.63
341.553	18.15
341.764	17.54
341.975	16.77
342.185	15.9
342.396	15.38
342.607	15.15
342.818	15.99
343.029	15.68
343.239	14.97
343.45	15.48
343.661	13.83
343.872	12.89
344.082	12.42
344.293	12.11
344.504	12.5
344.714	11.92
344.925	12.54
345.136	11.24
345.346	11.57
345.557	11.27
345.768	11.13
345.978	10.54
346.189	11.09
346.399	10.93
346.61	10.91
346.821	10.84
347.031	11.27
347.242	9.86
347.452	10.85
347.663	11.14
347.873	12.62
348.084	11.95
348.294	12.8
348.504	12.98
348.715	13.3
348.925	13.75
349.136	13.31
349.346	13.19
349.557	13.6
349.767	13.22
349.977	12.34
350.188	10.41
350.398	12.47
350.608	11.66
350.819	11.72
351.029	12.41
351.239	12.04
351.449	11.62
351.66	11.43
351.87	11.9
352.08	12.55
352.29	13.33
352.501	15.62
352.711	13.79
352.921	14.53
353.131	14.45
353.341	13.69
353.552	14.14
353.762	15.03
353.972	15.84
354.182	16.42
354.392	15.58
354.602	15.96
354.812	14.84
355.022	15.74
355.232	15.19
355.442	15.7
355.652	16.15
355.862	16.66
356.072	16.24
356.282	15.76
356.492	15.47
356.702	16.66
356.912	15.71
357.122	15.96
357.332	15.92
357.542	16.81
357.752	16.18
357.962	15.41
358.171	15.01
358.381	15.62
358.591	15.27
358.801	15.02
359.011	14.74
359.221	15.04
359.43	15.06
359.64	15.16
359.85	15.2
360.06	15.3
360.269	16.13
360.479	16.54
360.689	16.2
360.899	16.62
361.108	17.44
361.318	17.38
361.528	17.69
361.737	17.68
361.947	17.7
362.156	17.64
362.366	17.31
362.576	16.77
362.785	16.84
362.995	17.09
363.204	16.78
363.414	16.25
363.623	16.09
363.833	16.22
364.042	15.6
364.252	15.55
364.461	15.32
364.671	16.09
364.88	16.26
365.09	16.51
365.299	17.02
365.509	18.17
365.718	17.83
365.927	17.87
366.137	17.49
366.346	19.46
366.555	19.2
366.765	19.4
366.974	19.36
367.183	19.18
367.393	18.7
367.602	18.84
367.811	18
368.021	18.13
368.23	18.28
368.439	18.47
368.648	16.88
368.857	17.1
369.067	17.39
369.276	16.74
369.485	17.22
369.694	17.59
369.903	17.06
370.112	17.02
370.321	17.34
370.531	17.09
370.74	16.6
370.949	16.64
371.158	16.76
371.367	17.07
371.576	17.32
371.785	17.91
371.994	17.95
372.203	17.71
372.412	17.93
372.621	18.3
372.83	18.87
373.039	19
373.248	19.54
373.457	18.78
373.666	18.33
373.874	18.59
374.083	18.2
374.292	17.94
374.501	18.38
374.71	18.87
374.919	18.15
375.128	17.82
375.336	18.02
375.545	17.86
375.754	18.35
375.963	18.06
376.171	17.91
376.38	17.64
376.589	17.16
376.798	17.48
377.006	16.8
377.215	17.23
377.424	17.37
377.632	17.31
377.841	16.81
378.05	17.01
378.258	17.27
378.467	17.1
378.675	16.99
378.884	17.47
379.093	17.37
379.301	17.85
379.51	17.66
379.718	17.33
379.927	17.06
380.135	17.69
380.344	17.88
380.552	18.01
380.761	18.5
380.969	18.82
381.177	19.16
381.386	19.33
381.594	19.19
381.803	18.93
382.011	19.13
382.219	19.57
382.428	19.58
382.636	19.73
382.845	19.67
383.053	19.72
383.261	19.6
383.469	19.13
383.678	19.06
383.886	19.4
384.094	19.8
384.302	19.65
384.511	20.1
384.719	20.37
384.927	20.26
385.135	20.18
385.343	19.72
385.552	19.86
385.76	19.9
385.968	19.72
386.176	19.67
386.384	19.77
386.592	20.13
386.8	19.54
387.008	19.85
387.216	19.88
387.424	19.46
387.633	19.32
387.841	18.91
388.049	19.2
388.257	19.16
388.465	19.83
388.672	19.59
388.88	19.27
389.088	19.71
389.296	19.04
389.504	19.44
389.712	20.02
389.92	20.81
390.128	21.17
390.336	21.11
390.544	21.43
390.751	20.82
390.959	21.25
391.167	21.56
391.375	21.5
391.583	21.38
391.79	21.4
391.998	21.56
392.206	21.41
392.414	21.72
392.621	22.1
392.829	21.82
393.037	21.84
393.244	21.98
393.452	21.86
393.66	21.93
393.867	22.43
394.075	22.38
394.283	22.43
394.49	22.61
394.698	22.81
394.905	22.77
395.113	23
395.32	23.31
395.528	23.28
395.735	23.84
395.943	24.2
396.15	24.09
396.358	24.4
396.565	24.31
396.773	24.56
396.98	24.49
397.188	24.52
397.395	24.8
397.602	25.11
397.81	25.33
398.017	25.23
398.225	25.64
398.432	26.08
398.639	25.74
398.847	26.18
399.054	26.03
399.261	26.13
399.468	26.27
399.676	26.1
399.883	25.69
400.09	25.37
400.297	25.59
400.505	25.2
400.712	24.67
400.919	24.73
401.126	24.86
401.333	25.17
401.54	25.58
401.748	25.56
401.955	25.73
402.162	25.72
402.369	25.91
402.576	25.71
402.783	25.54
402.99	25.89
403.197	25.79
403.404	25.66
403.611	25.53
403.818	25.42
404.025	25.69
404.232	25.75
404.439	26.45
404.646	26.52
404.853	26.54
405.06	26.93
405.267	26.93
405.474	26.98
405.681	27.21
405.887	27.42
406.094	27.22
406.301	27.12
406.508	27.17
406.715	26.75
406.922	26.87
407.128	27.12
407.335	26.84
407.542	27.13
407.749	27.38
407.955	27.01
408.162	26.82
408.369	27.06
408.575	27.06
408.782	27.2
408.989	27.15
409.195	27.16
409.402	26.77
409.609	26.79
409.815	26.74
410.022	26.64
410.228	26.72
410.435	26.69
410.642	26.76
410.848	26.58
411.055	26.48
411.261	26.46
411.468	26.5
411.674	26.64
411.881	26.78
412.087	26.83
412.294	26.87
412.5	26.83
412.706	27.12
412.913	27.18
413.119	27.34
413.326	27.45
413.532	27.23
413.738	27.27
413.945	27.58
414.151	27.34
414.357	27.2
414.564	27.4
414.77	27.45
414.976	27.21
415.182	26.65
415.389	26.68
415.595	26.42
415.801	26.63
416.007	26.43
416.214	26.12
416.42	26.26
416.626	26.35
416.832	26.22
417.038	26.27
417.244	26.25
417.45	26.44
417.657	26.38
417.863	26.41
418.069	26.29
418.275	26.05
418.481	26.29
418.687	26.4
418.893	26.18
419.099	26.24
419.305	25.96
419.511	25.97
419.717	26
419.923	25.89
420.129	25.91
420.335	25.83
420.541	26.24
420.746	26.05
420.952	26.07
421.158	26.08
421.364	26.04
421.57	26.15
421.776	26.04
421.982	25.87
422.187	25.93
422.393	25.97
422.599	26.09
422.805	25.83
423.01	25.81
423.216	25.74
423.422	25.78
423.628	25.74
423.833	25.77
424.039	25.7
424.245	25.77
424.45	25.56
424.656	25.45
424.862	25.43
425.067	25.6
425.273	25.55
425.478	25.4
425.684	25.33
425.889	25.4
426.095	25.42
426.301	25.69
426.506	25.71
426.712	25.91
426.917	26.13
427.123	26.14
427.328	25.9
427.533	25.85
427.739	25.83
427.944	25.75
428.15	25.49
428.355	25.57
428.561	25.37
428.766	25.43
428.971	25.29
429.177	25.13
429.382	24.94
429.587	24.77
429.793	24.66
429.998	24.72
430.203	24.99
430.408	24.93
430.614	24.79
430.819	24.67
431.024	24.57
431.229	24.75
431.434	24.61
431.64	24.77
431.845	24.89
432.05	25.11
432.255	25.09
432.46	24.87
432.665	25.13
432.87	24.86
433.076	24.87
433.281	24.77
433.486	24.57
433.691	24.49
433.896	24.53
434.101	24.57
434.306	24.55
434.511	24.61
434.716	24.83
434.921	24.58
435.126	24.74
435.331	24.99
435.535	25.06
435.74	25.31
435.945	25.37
436.15	25.37
436.355	25.35
436.56	25.39
436.765	25.27
436.97	24.96
437.174	25.13
437.379	25.12
437.584	25
437.789	25.02
437.993	24.84
438.198	24.84
438.403	24.8
438.608	24.74
438.812	24.73
439.017	24.84
439.222	25.01
439.426	24.92
439.631	24.87
439.836	24.94
440.04	24.93
440.245	25.02
440.45	25.05
440.654	25.07
440.859	25.09
441.063	25.1
441.268	25.03
441.472	25.13
441.677	25.09
441.881	25.18
442.086	25.12
442.29	25.07
442.495	24.95
442.699	24.86
442.904	24.77
443.108	24.71
443.312	24.56
443.517	24.56
443.721	24.4
443.925	24.31
444.13	24.23
444.334	24.05
444.538	24.02
444.743	24.01
444.947	24.02
445.151	24.09
445.356	24.06
445.56	24.16
445.764	24.14
445.968	24.02
446.173	24.17
446.377	24.21
446.581	24.38
446.785	24.45
446.989	24.49
447.193	24.63
447.398	24.64
447.602	24.68
447.806	24.66
448.01	24.7
448.214	24.75
448.418	24.59
448.622	24.49
448.826	24.32
449.03	24.2
449.234	24.29
449.438	24.22
449.642	24.12
449.846	24.11
450.05	24.12
450.254	24.1
450.458	24.15
450.662	24.18
450.866	24.42
451.069	24.4
451.273	24.44
451.477	24.19
451.681	23.97
451.885	24
452.089	23.95
452.292	23.94
452.496	23.76
452.7	23.79
452.904	23.83
453.107	23.6
453.311	23.62
453.515	23.68
453.719	23.74
453.922	24.06
454.126	23.9
454.33	23.98
454.533	24.02
454.737	24.2
454.94	24.08
455.144	24.09
455.348	24.01
455.551	24.07
455.755	24.05
455.958	23.97
456.162	23.65
456.365	23.74
456.569	23.69
456.772	23.47
456.976	23.64
457.179	23.57
457.383	23.51
457.586	23.74
457.79	23.7
457.993	23.41
458.196	23.49
458.4	23.61
458.603	23.67
458.807	23.64
459.01	23.68
459.213	23.54
459.417	23.64
459.62	23.62
459.823	23.57
460.026	23.62
460.23	23.85
460.433	24.06
460.636	24.02
460.839	24.07
461.042	24.18
461.246	24.33
461.449	24.34
461.652	24.36
461.855	24.31
462.058	24.34
462.261	24.3
462.464	24.26
462.668	23.95
462.871	23.99
463.074	23.91
463.277	23.79
463.48	23.59
463.683	23.65
463.886	23.68
464.089	23.75
464.292	23.68
464.495	23.78
464.698	23.83
464.901	23.93
465.104	23.99
465.306	24.08
465.509	24.14
465.712	24.3
465.915	24.18
466.118	24.01
466.321	24.24
466.524	24.34
466.726	24.2
466.929	24.31
467.132	24.44
467.335	24.43
467.538	24.31
467.74	24.5
467.943	24.47
468.146	24.48
468.348	24.57
468.551	24.43
468.754	24.5
468.956	24.57
469.159	24.4
469.362	24.24
469.564	24.26
469.767	24.49
469.969	24.32
470.172	24.46
470.375	24.56
470.577	24.43
470.78	24.48
470.982	24.55
471.185	24.88
471.387	25.05
471.59	25.26
471.792	25.31
471.995	25.29
472.197	25.31
472.399	25.22
472.602	25.23
472.804	25.3
473.007	25.36
473.209	25.31
473.411	25.09
473.614	24.94
473.816	24.81
474.018	24.83
474.22	24.82
474.423	24.79
474.625	24.74
474.827	24.88
475.03	24.98
475.232	25.05
475.434	25.05
475.636	24.98
475.838	25.11
476.04	25.08
476.243	24.97
476.445	24.83
476.647	24.83
476.849	24.87
477.051	24.71
477.253	24.76
477.455	24.78
477.657	24.71
477.859	24.65
478.061	24.71
478.263	24.75
478.465	24.84
478.667	24.9
478.869	25.01
479.071	25.01
479.273	25.14
479.475	25.1
479.677	24.98
479.879	25.08
480.081	25.24
480.283	25.09
480.485	25.22
480.686	25.09
480.888	25.13
481.09	25.09
481.292	24.93
481.494	24.9
481.695	25.07
481.897	25.15
482.099	25.13
482.301	25.12
482.502	25.13
482.704	25.12
482.906	25.16
483.107	25.15
483.309	25.06
483.511	25.11
483.712	25.06
483.914	25.01
484.115	24.99
484.317	24.97
484.519	24.96
484.72	24.95
484.922	24.95
485.123	24.97
485.325	24.97
485.526	25
485.728	24.99
485.929	24.97
486.131	25
486.332	25.01
486.534	25.05
486.735	25.08
486.936	25.13
487.138	25.1
487.339	25.05
487.541	25.03
487.742	25.06
487.943	25.1
488.144	25.1
488.346	25.01
488.547	24.94
488.748	24.96
488.95	24.94
489.151	24.95
489.352	24.94
489.553	24.93
489.755	24.95
489.956	24.89
490.157	24.75
490.358	24.82
490.559	24.92
490.76	25.03
490.961	25.01
491.163	25.01
491.364	25
491.565	24.92
491.766	24.96
491.967	25
492.168	24.99
492.369	25.1
492.57	25.04
492.771	25.08
492.972	25.09
493.173	25.17
493.374	25.17
493.575	25.03
493.776	25.11
493.976	25.08
494.177	25.03
494.378	25.11
494.579	25.09
494.78	25.3
494.981	25.22
495.182	25.21
495.382	25.02
495.583	24.87
495.784	24.99
495.985	25.01
496.185	25.13
496.386	25.2
496.587	25.24
496.788	25.31
496.988	25.26
497.189	25.2
497.39	25.06
497.59	25.35
497.791	25.56
497.992	25.64
498.192	25.66
498.393	25.7
498.593	25.66
498.794	25.65
498.994	25.79
499.195	25.91
499.395	26.05
499.596	26.11
499.796	25.88
499.997	25.91
500.197	26.06
500.398	26.1
500.598	25.94
500.799	25.95
500.999	25.88
501.199	25.69
501.4	25.63
501.6	25.61
501.801	25.96
502.001	25.98
502.201	25.74
502.402	25.57
502.602	25.57
502.802	25.62
503.002	25.71
503.203	25.99
503.403	26.02
503.603	25.94
503.803	25.89
504.003	25.74
504.204	25.75
504.404	26.05
504.604	26.03
504.804	26.15
505.004	26.3
505.204	26.24
505.404	26.24
505.604	26.4
505.804	26.5
506.005	26.63
506.205	26.49
506.405	26.52
506.605	26.47
506.805	26.63
507.005	26.62
507.204	26.61
507.404	26.57
507.604	26.61
507.804	26.47
508.004	26.6
508.204	26.63
508.404	26.76
508.604	26.85
508.804	26.76
509.003	26.71
509.203	26.69
509.403	26.59
509.603	26.73
509.803	26.64
510.002	26.74
510.202	26.71
510.402	26.87
510.602	26.93
510.801	27.01
511.001	27.23
511.201	27.26
511.4	27.32
511.6	27.45
511.8	27.44
511.999	27.45
512.199	27.4
512.398	27.28
512.598	27.13
512.797	27.12
512.997	27.07
513.197	27.01
513.396	27.16
513.596	27.19
513.795	27.23
513.994	27.41
514.194	27.42
514.393	27.55
514.593	27.8
514.792	27.92
514.992	27.94
515.191	27.97
515.39	28.1
515.59	28.08
515.789	28.21
515.988	28.27
516.188	28.23
516.387	28.3
516.586	28.35
516.786	28.31
516.985	28.15
517.184	28.24
517.383	28.35
517.582	28.16
517.782	28.2
517.981	28.13
518.18	28.16
518.379	28.09
518.578	28.18
518.777	28.21
518.976	28.23
519.176	28.42
519.375	28.45
519.574	28.58
519.773	28.67
519.972	28.68
520.171	28.79
520.37	28.8
520.569	28.92
520.768	28.88
520.967	29.05
521.166	29
521.365	28.87
521.564	28.98
521.762	28.89
521.961	28.89
522.16	28.98
522.359	28.93
522.558	28.95
522.757	29
522.956	29.12
523.154	28.98
523.353	29.31
523.552	29.45
523.751	29.32
523.949	29.28
524.148	29.22
524.347	29.27
524.546	29.37
524.744	29.48
524.943	29.5
525.142	29.45
525.34	29.55
525.539	29.36
525.737	29.44
525.936	29.41
526.135	29.4
526.333	29.5
526.532	29.31
526.73	29.34
526.929	29.38
527.127	29.4
527.326	29.44
527.524	29.45
527.723	29.49
527.921	29.5
528.12	29.58
528.318	29.62
528.516	29.65
528.715	29.76
528.913	29.73
529.112	29.69
529.31	29.66
529.508	29.68
529.707	29.69
529.905	29.72
530.103	29.74
530.301	29.76
530.5	29.72
530.698	29.79
530.896	29.85
531.094	29.85
531.293	29.95
531.491	30.06
531.689	30.14
531.887	30.1
532.085	30.1
532.283	30.06
532.481	29.96
532.68	30.1
532.878	29.96
533.076	30
533.274	30.09
533.472	30.04
533.67	30.05
533.868	30
534.066	30.04
534.264	30.06
534.462	30.1
534.66	30.18
534.858	30.07
535.056	30.2
535.253	30.15
535.451	30.1
535.649	30.13
535.847	30.12
536.045	30.24
536.243	30.3
536.441	30.27
536.638	30.25
536.836	30.24
537.034	30.44
537.232	30.4
537.43	30.46
537.627	30.52
537.825	30.61
538.023	30.64
538.22	30.69
538.418	30.67
538.616	30.73
538.813	30.77
539.011	30.83
539.209	30.73
539.406	30.75
539.604	30.68
539.801	30.66
539.999	30.55
540.196	30.6
540.394	30.59
540.591	30.63
540.789	30.62
540.986	30.71
541.184	30.68
541.381	30.76
541.579	30.8
541.776	30.79
541.974	30.8
542.171	30.81
542.368	30.79
542.566	30.8
542.763	30.78
542.96	30.92
543.158	30.92
543.355	31.03
543.552	31
543.75	31.07
543.947	31.13
544.144	31.17
544.341	31.23
544.539	31.26
544.736	31.22
544.933	31.29
545.13	31.16
545.327	31.07
545.524	30.94
545.722	31.03
545.919	31
546.116	31.12
546.313	31.12
546.51	31.27
546.707	31.22
546.904	31.31
547.101	31.33
547.298	31.44
547.495	31.46
547.692	31.69
547.889	31.66
548.086	31.67
548.283	31.61
548.48	31.66
548.677	31.54
548.874	31.7
549.07	31.73
549.267	31.8
549.464	31.73
549.661	31.93
549.858	31.79
550.055	31.69
550.251	31.81
550.448	31.89
550.645	32.03
550.842	32.09
551.038	31.93
551.235	31.88
551.432	31.72
551.628	31.78
551.825	31.8
552.022	31.95
552.218	32.06
552.415	32.12
552.612	32.13
552.808	32.04
553.005	32.02
553.201	32.11
553.398	32.11
553.594	32.08
553.791	32.08
553.987	31.99
554.184	31.97
554.38	32.04
554.577	31.96
554.773	31.79
554.97	31.9
555.166	32.13
555.362	32.13
555.559	32.31
555.755	32.67
555.952	32.8
556.148	32.81
556.344	32.74
556.541	32.72
556.737	32.7
556.933	32.96
557.129	33.01
557.326	32.97
557.522	33.02
557.718	33.05
557.914	32.76
558.11	32.81
558.307	32.91
558.503	33
558.699	32.92
558.895	33.01
559.091	33.04
559.287	33.15
559.483	32.96
559.679	32.97
559.876	32.87
560.072	33.07
560.268	32.95
560.464	32.99
560.66	33.14
560.856	33.13
561.052	32.91
561.247	33.14
561.443	33.22
561.639	33.47
561.835	33.5
562.031	33.28
562.227	33.24
562.423	33.31
562.619	33.28
562.815	33.14
563.01	33.3
563.206	33.58
563.402	33.3
563.598	32.95
563.793	32.81
563.989	32.8
564.185	32.85
564.381	32.98
564.576	33.03
564.772	33.18
564.968	33.35
565.163	33.3
565.359	33.21
565.555	33.11
565.75	33.24
565.946	33.37
566.141	33.39
566.337	33.61
566.532	33.44
566.728	33.48
566.923	33.43
567.119	33.18
567.314	33.05
567.51	33.15
567.705	33.43
567.901	33.59
568.096	33.45
568.292	33.67
568.487	33.7
568.682	33.75
568.878	33.68
569.073	33.75
569.268	33.97
569.464	34.1
569.659	34.1
569.854	33.78
570.05	33.55
570.245	33.62
570.44	33.57
570.635	33.58
570.831	33.59
571.026	33.62
571.221	33.46
571.416	33.34
571.611	33.57
571.806	33.65
572.002	33.7
572.197	33.79
572.392	33.8
572.587	33.77
572.782	33.89
572.977	34.05
573.172	33.89
573.367	34.07
573.562	34.17
573.757	33.95
573.952	34.07
574.147	34.15
574.342	34.04
574.537	33.94
574.732	34.02
574.927	33.98
575.121	33.76
575.316	34.06
575.511	34.07
575.706	34.13
575.901	34.11
576.096	34
576.29	34.09
576.485	34.39
576.68	34.5
576.875	34.21
577.069	33.95
577.264	34.2
577.459	33.95
577.654	33.83
577.848	33.75
578.043	34.02
578.238	33.99
578.432	34.01
578.627	33.96
578.821	33.84
579.016	33.98
579.21	34.2
579.405	34.14
579.6	34.32
579.794	34.15
579.989	34.16
580.183	34.2
580.378	34.09
580.572	34.18
580.766	34.15
580.961	34.34
581.155	34.65
581.35	34.78
581.544	34.57
581.738	34.43
581.933	34.68
582.127	34.78
582.321	34.46
582.516	34.79
582.71	34.76
582.904	34.79
583.099	34.9
583.293	34.8
583.487	34.65
583.681	34.82
583.875	34.98
584.07	34.95
584.264	35.01
584.458	34.84
584.652	34.57
584.846	34.6
585.04	34.49
585.234	34.26
585.428	34.17
585.623	34.4
585.817	34.22
586.011	34.14
586.205	34.13
586.399	33.91
586.593	34.35
586.787	34.52
586.981	34.21
587.174	34.1
587.368	34.09
587.562	34.18
587.756	33.97
587.95	33.92
588.144	33.96
588.338	34.15
588.532	34.22
588.725	34.27
588.919	34.06
589.113	34.29
589.307	34.43
589.501	34.48
589.694	34.34
589.888	34.41
590.082	34.77
590.275	34.67
590.469	34.55
590.663	34.21
590.856	34.06
591.05	34.12
591.244	33.94
591.437	33.7
591.631	33.74
591.824	33.76
592.018	33.71
592.212	33.61
592.405	33.51
592.599	33.57
592.792	34.24
592.986	34.17
593.179	34.21
593.372	34.23
593.566	34.56
593.759	34.82
593.953	34.69
594.146	34.68
594.339	34.82
594.533	34.87
594.726	34.79
594.92	34.44
595.113	34.35
595.306	34.04
595.499	34.18
595.693	34.05
595.886	33.8
596.079	33.89
596.272	33.7
596.466	33.58
596.659	33.56
596.852	33.65
597.045	33.75
597.238	33.9
597.431	34.04
597.624	34.03
597.818	34.09
598.011	34.15
598.204	34.32
598.397	34.34
598.59	34.45
598.783	34.62
598.976	34.51
599.169	34.35
599.362	34.37
599.555	34.39
599.748	34.46
599.941	34.52
600.134	34.3
600.326	34.21
600.519	34.61
600.712	34.31
600.905	34.35
601.098	34.37
601.291	34.57
601.483	34.85
601.676	34.93
601.869	34.83
602.062	34.74
602.255	34.74
602.447	34.6
602.64	34.53
602.833	34.69
603.025	34.67
603.218	34.82
603.411	34.96
603.603	34.69
603.796	34.61
603.989	34.55
604.181	34.6
604.374	34.62
604.566	34.51
604.759	34.38
604.951	34.4
605.144	34.58
605.336	34.31
605.529	34.14
605.721	34.22
605.914	34.24
606.106	34.21
606.299	34.15
606.491	34.2
606.683	34.36
606.876	34.52
607.068	34.47
607.26	34.33
607.453	34.69
607.645	34.63
607.837	34.43
608.03	34.51
608.222	34.29
608.414	34.28
608.606	34.33
608.799	34.12
608.991	34.09
609.183	33.95
609.375	33.89
609.567	33.75
609.759	33.85
609.952	33.89
610.144	33.95
610.336	34.19
610.528	34.07
610.72	34.02
610.912	34.46
611.104	34.3
611.296	34.7
611.488	34.71
611.68	34.83
611.872	34.74
612.064	34.8
612.256	34.88
612.448	34.89
612.64	35.01
612.832	35.23
613.023	35.34
613.215	35.68
613.407	35.32
613.599	35.32
613.791	35.24
613.983	35.51
614.174	35.62
614.366	35.47
614.558	35.58
614.75	35.6
614.941	35.41
615.133	35.02
615.325	34.71
615.516	34.94
615.708	34.74
615.9	34.73
616.091	34.57
616.283	34.5
616.475	34.62
616.666	34.67
616.858	34.87
617.049	34.97
617.241	35.13
617.432	35.23
617.624	34.98
617.815	35.32
618.007	35.32
618.198	35.41
618.39	35.36
618.581	35.25
618.773	34.86
618.964	35.1
619.155	34.9
619.347	34.84
619.538	35.22
619.729	35.32
619.921	34.93
620.112	34.87
620.303	34.85
620.494	34.77
620.686	34.93
620.877	35.17
621.068	34.96
621.259	35.07
621.451	35.2
621.642	34.96
621.833	35.07
622.024	35.33
622.215	35.45
622.406	35.32
622.597	35.43
622.788	35.41
622.98	35.36
623.171	35.25
623.362	35.15
623.553	34.81
623.744	34.66
623.935	34.69
624.126	34.39
624.317	34.49
624.508	34.72
624.698	34.51
624.889	34.5
625.08	34.41
625.271	34.51
625.462	34.64
625.653	34.84
625.844	34.66
626.034	34.67
626.225	34.79
626.416	35.1
626.607	34.83
626.798	34.77
626.988	34.51
627.179	34.44
627.37	34.42
627.56	34.2
627.751	34.09
627.942	34.26
628.132	34.11
628.323	34.51
628.514	34.13
628.704	34.38
628.895	34.51
629.085	34.78
629.276	34.84
629.466	34.8
629.657	35.01
629.847	35.15
630.038	35.23
630.228	35.28
630.419	34.74
630.609	34.56
630.8	34.17
630.99	34.22
631.181	34.06
631.371	34.06
631.561	33.86
631.752	34.06
631.942	34.29
632.132	34.45
632.323	34.55
632.513	35.08
632.703	34.95
632.893	34.93
633.084	34.83
633.274	35.02
633.464	35.27
633.654	35.38
633.844	35.19
634.034	34.8
634.225	34.57
634.415	34.59
634.605	34.09
634.795	34.44
634.985	34.74
635.175	35.12
635.365	35.31
635.555	35.12
635.745	35.2
635.935	34.81
636.125	34.76
636.315	34.63
636.505	34.49
636.695	34.59
636.885	34.62
637.075	34.57
637.265	34.45
637.455	34.17
637.644	34.21
637.834	34.13
638.024	34.4
638.214	34.67
638.404	35.15
638.593	35.33
638.783	35.42
638.973	35.39
639.163	35.74
639.352	35.7
639.542	35.45
639.732	35.48
639.921	35.39
640.111	35.71
640.301	35.66
640.49	35.18
640.68	34.84
640.87	34.97
641.059	34.65
641.249	34.49
641.438	34.44
641.628	34.61
641.817	34.3
642.007	34.36
642.196	33.92
642.386	34.07
642.575	34.3
642.764	34.88
642.954	34.57
643.143	34.55
643.333	34.49
643.522	33.99
643.711	33.93
643.901	34.33
644.09	34.03
644.279	34.25
644.469	33.94
644.658	34.17
644.847	33.57
645.036	33.68
645.226	33.86
645.415	33.62
645.604	33.57
645.793	33.12
645.982	33.35
646.171	33.47
646.361	33.57
646.55	33.77
646.739	33.36
646.928	33.39
647.117	33.6
647.306	33.53
647.495	33.34
647.684	33.88
647.873	34.21
648.062	34.04
648.251	34.12
648.44	33.97
648.629	33.34
648.818	33.46
649.007	33.52
649.196	33.24
649.384	33.66
649.573	33.86
649.762	33.63
649.951	33.47
650.14	33.78
650.328	34.01
650.517	34.2
650.706	34.65
650.895	34.68
651.083	34.18
651.272	33.97
651.461	33.87
651.65	34.13
651.838	34.27
652.027	34.66
652.216	34.16
652.404	33.99
652.593	34
652.781	34.04
652.97	33.98
653.158	34.31
653.347	34.87
653.535	34.64
653.724	34.86
653.912	34.94
654.101	34.73
654.289	35.02
654.478	35.11
654.666	34.59
654.855	34.3
655.043	34.61
655.231	34.49
655.42	34.52
655.608	34.58
655.796	33.76
655.985	33.64
656.173	33.84
656.361	33.65
656.55	33.97
656.738	34.35
656.926	34.75
657.114	34.53
657.302	34.61
657.491	34.53
657.679	34.51
657.867	34.8
658.055	34.58
658.243	34.52
658.431	34.44
658.619	34.41
658.807	34.61
658.996	34.42
659.184	34.49
659.372	34.52
659.56	34.35
659.748	34.44
659.936	34.42
660.124	34.62
660.311	34.53
660.499	34.56
660.687	34.09
660.875	34.08
661.063	34.3
661.251	34.06
661.439	34.51
661.627	34.75
661.814	34.74
662.002	34.99
662.19	34.84
662.378	34.74
662.565	35.17
662.753	35.35
662.941	35.05
663.129	34.84
663.316	34.96
663.504	34.8
663.692	34.81
663.879	34.67
664.067	34.38
664.254	34.37
664.442	34.49
664.63	33.98
664.817	34.1
665.005	34.39
665.192	34.17
665.38	33.75
665.567	33.57
665.755	33.56
665.942	33.22
666.13	33.31
666.317	33.85
666.504	34
666.692	34.06
666.879	34.45
667.067	34.21
667.254	34.75
667.441	35.12
667.629	34.99
667.816	35.17
668.003	35.42
668.19	35.29
668.378	35.23
668.565	35.46
668.752	35.78
668.939	35.25
669.127	35.74
669.314	35.66
669.501	36.11
669.688	35.96
669.875	35.74
670.062	35.97
670.249	35.97
670.436	36.04
670.623	35.63
670.81	35.42
670.997	35.25
671.184	34.58
671.371	34.18
671.558	33.25
671.745	33.43
671.932	33.21
672.119	32.93
672.306	32.64
672.493	32.08
672.68	32.59
672.867	32.73
673.054	33.11
673.24	32.98
673.427	33.49
673.614	34.29
673.801	34.31
673.988	34.54
674.174	34.74
674.361	35.39
674.548	35.73
674.734	35.17
674.921	35.01
675.108	34.97
675.294	35.44
675.481	34.88
675.668	34.98
675.854	34.59
676.041	34.45
676.227	34.39
676.414	33.97
676.601	33.79
676.787	34.3
676.974	34.38
677.16	34.33
677.347	34.31
677.533	34.98
677.719	34.53
677.906	34.97
678.092	35.38
678.279	35.28
678.465	35.76
678.651	35.71
678.838	35.26
679.024	34.93
679.21	35.04
679.397	34.68
679.583	34.58
679.769	34.47
679.955	34.57
680.142	34.29
680.328	34.5
680.514	34.19
680.7	34.23
680.886	34.39
681.073	34.48
681.259	34.29
681.445	34.71
681.631	34.3
681.817	34.58
682.003	34.52
682.189	34.52
682.375	34.23
682.561	34.29
682.747	34.33
682.933	34.71
683.119	34.95
683.305	34.91
683.491	34.75
683.677	35.13
683.863	34.45
684.049	34.56
684.235	34.37
684.42	34.84
684.606	35.01
684.792	34.85
684.978	34.27
685.164	34.38
685.349	33.96
685.535	34.02
685.721	33.59
685.907	33.51
686.092	33.16
686.278	33.77
686.464	32.77
686.649	32.56
686.835	32.66
687.021	32.96
687.206	32.66
687.392	32.98
687.577	32.96
687.763	33.31
687.948	33.97
688.134	33.88
688.319	33.3
688.505	33.49
688.69	33.54
688.876	33.92
689.061	33.59
689.247	33.98
689.432	33.66
689.618	33.45
689.803	32.85
689.988	32.78
690.174	32.87
690.359	32.44
690.544	32.85
690.73	32.34
690.915	31.91
691.1	32.11
691.285	31.89
691.471	32.37
691.656	32.4
691.841	32.88
692.026	32.33
692.211	31.98
692.396	32.39
692.582	32.42
692.767	32.48
692.952	31.93
693.137	31.79
693.322	31.2
693.507	31.05
693.692	30.88
693.877	30.74
694.062	31.08
694.247	31.33
694.432	31.88
694.617	31.65
694.802	31.41
694.987	31.57
695.172	31.25
695.357	31.34
695.541	31
695.726	31.39
695.911	31.71
696.096	31.58
696.281	32.15
696.466	31.7
696.65	32.11
696.835	33
697.02	33.1
697.204	33.53
697.389	34.1
697.574	34.22
697.759	34.01
697.943	33.71
698.128	33.95
698.312	33.77
698.497	33.64
698.682	33.83
698.866	33.52
699.051	33.62
699.235	33.71
699.42	33.43
699.604	33.78
699.789	34.01
699.973	34.04
700.158	33.9
700.342	33.59
700.527	33.86
700.711	33.24
700.895	33.13
701.08	33.46
701.264	33.09
701.448	33.21
701.633	33.18
701.817	32.87
702.001	33.19
702.186	33.56
702.37	34.13
702.554	33.76
702.738	34.28
702.923	34.02
703.107	34
703.291	33.97
703.475	33.81
703.659	33.32
703.843	33.4
704.027	33.23
704.212	32.78
704.396	31.7
704.58	31.75
704.764	31.54
704.948	31.64
705.132	31.3
705.316	31.04
705.5	31.22
705.684	30.9
705.868	30.59
706.052	30.7
706.235	30.82
706.419	30.99
706.603	31.6
706.787	31.61
706.971	31.85
707.155	31.61
707.339	32.1
707.522	31.75
707.706	32.06
707.89	33.01
708.074	32.68
708.257	32.56
708.441	33
708.625	32.86
708.808	32.71
708.992	32.32
709.176	32.54
709.359	32.16
709.543	32.33
709.727	31.99
709.91	31.84
710.094	32.35
710.277	32.46
710.461	32.79
710.644	32.12
710.828	31.9
711.011	32.68
711.195	32.4
711.378	32.8
711.562	32.68
711.745	33.13
711.928	32.26
712.112	31.18
712.295	31.22
712.478	31.06
712.662	31.56
712.845	31.33
713.028	30.75
713.212	30.64
713.395	30.4
713.578	30.63
713.761	30.98
713.945	31.33
714.128	31.45
714.311	31.44
714.494	30.63
714.677	30.67
714.86	31.08
715.043	31.45
715.227	32.06
715.41	32.38
715.593	32.79
715.776	32.63
715.959	32.84
716.142	33.37
716.325	33.55
716.508	34.13
716.691	34.11
716.874	34.3
717.057	34.2
717.239	34.3
717.422	33.56
717.605	33.1
717.788	33.27
717.971	33.17
718.154	32.82
718.337	32.57
718.519	33.23
718.702	33.26
718.885	33.58
719.068	33.31
719.25	31.89
719.433	31.74
719.616	31.91
719.798	31.85
719.981	32.06
720.164	31.83
720.346	32.07
720.529	31.91
720.712	31.31
720.894	31.07
721.077	30.61
721.259	31.51
721.442	31.95
721.624	31
721.807	30.72
721.989	30.46
722.172	31.15
722.354	29.65
722.537	28.89
722.719	28.77
722.901	28.67
723.084	29.22
723.266	29.02
723.448	29.81
723.631	30.02
723.813	29.88
723.995	29
724.178	29.04
724.36	30.72
724.542	30.19
724.724	31.11
724.907	31.04
725.089	32.03
725.271	32.33
725.453	31.36
725.635	31.94
725.817	32.85
725.999	33.07
726.181	32.43
726.364	31.69
726.546	32.59
726.728	32.04
726.91	31.64
727.092	31.37
727.274	30.53
727.456	30.95
727.638	30.3
727.819	29
728.001	28.34
728.183	28.59
728.365	28.94
728.547	28.45
728.729	29.01
728.911	29.94
729.093	29.09
729.274	30.23
729.456	30.41
729.638	31.2
729.82	31.8
730.001	32.81
730.183	33.15
730.365	33.23
730.546	33.28
730.728	33.46
730.91	32.61
731.091	33.64
731.273	33.67
731.455	34
731.636	33.63
731.818	32.92
731.999	32.92
732.181	32.91
732.362	32.53
732.544	32.57
732.725	32.6
732.907	32.51
733.088	32.47
733.27	32.86
733.451	32.1
733.633	32.35
733.814	33.33
733.995	33.25
734.177	32.9
734.358	33.86
734.539	34.13
734.721	33.89
734.902	33.43
735.083	33.17
735.264	32.39
735.446	33.4
735.627	32.95
735.808	32.53
735.989	31.3
736.17	32.28
736.351	31.48
736.533	31.92
736.714	31.89
736.895	32.52
737.076	32.38
737.257	32.64
737.438	30.2
737.619	31.39
737.8	31.58
737.981	33.4
738.162	33.33
738.343	32.73
738.524	31.95
738.705	30.9
738.886	30.85
739.067	30.21
739.247	29.63
739.428	30.53
739.609	29.21
739.79	28.33
739.971	28.07
740.151	27.41
740.332	27.41
740.513	27.38
740.694	27.65
740.874	27.08
741.055	27.77
741.236	26.96
741.417	28.01
741.597	27.94
741.778	28.6
741.958	28.76
742.139	29.43
742.32	29.51
742.5	29.11
742.681	29.14
742.861	29.48
743.042	30.84
743.222	32.99
743.403	31.75
743.583	32.56
743.764	32.89
743.944	32.06
744.124	31.22
744.305	31.42
744.485	32.5
744.666	33.47
744.846	34.02
745.026	31.98
745.207	29.95
745.387	30.56
745.567	30.28
745.747	28.87
745.928	30.06
746.108	30.06
746.288	30.16
746.468	29.8
746.648	28.17
746.829	27.33
747.009	28.48
747.189	30.32
747.369	30.59
747.549	30
747.729	31.03
747.909	31.04
748.089	30.73
748.269	30.84
748.449	31.21
748.629	31.02
748.809	32.76
748.989	31.97
749.169	31.23
749.349	31.61
749.529	31.69
749.709	31.02
749.889	31.26
750.068	32.61
750.248	31.56
750.428	31.18
750.608	32.96
750.788	30.69
750.967	31.14
751.147	32.04
751.327	31.15
751.507	31.56
751.686	32.29
751.866	31.13
752.046	30.58
752.225	32.05
752.405	32.79
752.585	33.52
752.764	35.48
752.944	34.88
753.123	34.23
753.303	34.11
753.482	33.13
753.662	32.09
753.841	32.75
754.021	33.2
754.2	32.94
754.38	31.78
754.559	29.26
754.739	29.14
754.918	29.83
755.097	28.72
755.277	28.52
755.456	29.13
755.635	29.89
755.815	29.73
755.994	28.14
756.173	27.66
756.352	27.61
756.532	28.89
756.711	27.67
756.89	28.3
757.069	28.25
757.248	28.31
757.427	28.73
757.607	29.76
757.786	30.15
757.965	29.82
758.144	30.94
758.323	30.29
758.502	29.26
758.681	29.07
758.86	27.46
759.039	28.03
759.218	28.95
759.397	28.72
759.576	27.69
759.755	26.34
759.934	26.07
760.113	25.77
760.291	27.46
760.47	27.82
760.649	27.65
760.828	28.25
761.007	28.52
761.186	28.51
761.364	28.86
761.543	28.41
761.722	28.31
761.901	30.34
762.079	30.41
762.258	30.18
762.437	31.07
762.615	30.68
762.794	30.53
762.972	31.25
763.151	31.39
763.33	31.05
763.508	31.51
763.687	31.99
763.865	32.28
764.044	31.61
764.222	31.47
764.401	31.43
764.579	32.03
764.758	32.31
764.936	31.38
765.114	31.53
765.293	32.09
765.471	31.85
765.65	32.47
765.828	31.71
766.006	32.91
766.184	32.58
766.363	31.52
766.541	31.74
766.719	31.1
766.898	31.74
767.076	31.32
767.254	30.41
767.432	30.29
767.61	28.59
767.788	25.91
767.967	23.46
768.145	23.08
768.323	23.16
768.501	24.12
768.679	23.86
768.857	23.12
769.035	22.56
769.213	21.45
769.391	21.5
769.569	21.42
769.747	25.21
769.925	25.57
770.103	26.64
770.281	26.11
770.459	23.74
770.636	22.84
770.814	21.23
770.992	20.41
771.17	21.06
771.348	21.09
771.525	21.59
771.703	18.95
771.881	19.72
772.059	20.54
772.236	21.94
772.414	23.1
772.592	23.26
772.769	24.75
772.947	24.71
773.125	27.69
773.302	26.18
773.48	24.48
773.657	25.73
773.835	24.78
774.013	24.41
774.19	23.66
774.368	24.46
774.545	25.77
774.723	27.47
774.9	29.97
775.077	28.02
775.255	28.4
775.432	30.69
775.61	31.02
775.787	31.42
775.964	29.43
776.142	30.18
776.319	28.59
776.496	29.09
776.674	26.06
776.851	24.34
777.028	24.65
777.205	26.55
777.382	26.74
777.56	25.65
777.737	25.4
777.914	25.52
778.091	22.25
778.268	24.06
778.445	24.03
778.622	23.92
778.8	24.36
778.977	23
779.154	22.09
779.331	19.91
779.508	20.11
779.685	20.36
779.862	20.72
780.038	21.5
780.215	22.09
780.392	19.98
780.569	21.75
780.746	18.89
780.923	22.57
781.1	24.64
781.277	24.98
781.453	24.34
781.63	23.89
781.807	24.29
781.984	25.86
782.16	21.36
782.337	21.83
782.514	22.73
782.691	27.12
782.867	22.67
783.044	20.56
783.221	18.38
783.397	21.06
783.574	21.04
783.75	20.17
783.927	18.41
784.103	19.79
784.28	20.99
784.456	19.93
784.633	17.12
784.809	16.39
784.986	17.33
785.162	21.34
785.339	21.82
785.515	21.85
785.692	21.16
785.868	23.96
786.044	26.44
786.221	25.01
786.397	22.5
786.573	22.8
786.749	23.83
786.926	23.02
787.102	21.55
787.278	17.1
787.454	16.19
787.631	14.78
787.807	14.27
787.983	13.79
788.159	12.77
788.335	12.51
788.511	13.11
788.687	13.27
788.863	14.36
789.039	15.95
789.216	17.02
789.392	20.13
789.568	23.64
789.744	25.2
789.919	24.78
790.095	26.55
790.271	27.84
790.447	27.2
790.623	29.55
790.799	28.21
790.975	29.59
791.151	30.65
791.327	26.64
791.502	25.13
791.678	19.42
791.854	19.94
792.03	22.47
792.205	23.72
792.381	23.95
792.557	22.64
792.733	23.41
792.908	20.96
793.084	20.65
793.259	22.42
793.435	23.34
793.611	27.1
793.786	23.33
793.962	20.33
794.137	18.45
794.313	18.89
794.488	20.9
794.664	18.81
794.839	18.15
795.015	20.17
795.19	17.64
795.366	17.08
795.541	17.08
795.716	20.86
795.892	22.57
796.067	25.23
796.242	23.89
796.418	20.43
796.593	18.11
796.768	22.79
796.944	22.43
797.119	25.82
797.294	27.77
797.469	27.92
797.644	28.9
797.82	29.2
797.995	28.1
798.17	29.24
798.345	29.13
798.52	30.29
798.695	27.23
798.87	26.02
799.045	22.95
799.22	23.8
799.395	22.9
799.57	24.58
799.745	23
799.92	23.87
800.095	23.4
800.27	24.39
800.445	24.47
800.62	20.88
800.795	19.78
800.97	22.16
801.145	18.98
801.319	18.76
801.494	15.59
801.669	16.96
801.844	15.4
802.018	18.15
802.193	18.16
802.368	19.23
802.543	25
802.717	23.57
802.892	25.8
803.067	23.65
803.241	23.46
803.416	23.26
803.59	21.6
803.765	23.66
803.94	27.65
804.114	28.35
804.289	31.02
804.463	26.59
804.638	28.03
804.812	23.82
804.986	25.3
805.161	27.59
805.335	27.36
805.51	25.91
805.684	23.37
805.858	16.21
806.033	12.87
806.207	9.6
806.381	11.45
806.556	12.16
806.73	13.73
806.904	14.83
807.078	14.62
807.253	12.36
807.427	12.37
807.601	13.32
807.775	10.87
807.949	12.1
808.123	14.37
808.298	14.09
808.472	15.71
808.646	19.77
808.82	21.75
808.994	18.11
809.168	18.99
809.342	19.14
809.516	20.11
809.69	23.52
809.864	22.23
810.038	24.91
810.212	22.14
810.385	20.99
810.559	16.68
810.733	14.95
810.907	14.77
811.081	12.73
811.255	14.54
811.428	12.86
811.602	4.22
811.776	4.78
811.95	-0.38
812.123	2.77
812.297	-0.82
812.471	-0.08
812.644	-2.05
812.818	-1.91
812.992	-2.02
813.165	-4.38
813.339	-6.04
813.512	3.52
813.686	2.86
813.86	7.86
814.033	12.11
814.207	18.84
814.38	21.83
814.554	24.1
814.727	27.02
814.9	30.24
815.074	32.5
815.247	33.56
815.421	29.32
815.594	35.96
815.767	29.07
815.941	24.07
816.114	23.23
816.287	23.72
816.46	22.04
816.634	20.76
816.807	20.82
816.98	20.2
817.153	21.89
817.327	22.19
817.5	13.44
817.673	20.21
817.846	26.34
818.019	21.57
818.192	19.36
818.365	23.01
818.538	19.83
818.711	23.18
818.884	19.21
819.057	18.75
819.23	17.71
819.403	22.05
819.576	19.78
819.749	14.74
819.922	18.05
820.095	17.76
820.268	15.38
820.441	19.94
820.614	16.91
820.786	20.41
820.959	20.73
821.132	23.39
821.305	24.57
821.477	26.02
821.65	27.84
821.823	30.46
821.996	31.18
822.168	31.36
822.341	31.27
822.514	30.88
822.686	31.61
822.859	31.74
823.031	31.13
823.204	30.98
823.376	30.51
823.549	31.01
823.722	30.01
823.894	29.23
824.067	29.37
824.239	28.58
824.411	29.82
824.584	29.66
824.756	29.4
824.929	29.74
825.101	29.89
825.273	29.62
825.446	29.62
825.618	28.99
825.79	30.87
825.963	29.61
826.135	30.98
826.307	30.25
826.479	28.5
826.652	28.02
826.824	28.63
826.996	28.86
827.168	28.65
827.34	26.14
827.512	26.62
827.684	25.17
827.856	27.07
828.029	27.54
828.201	26.64
828.373	26.14
828.545	27.23
828.717	25.73
828.889	24.71
829.061	24.94
829.232	26.27
829.404	26.45
829.576	23.38
829.748	20.96
829.92	18.32
830.092	15.65
830.264	17.46
830.436	16.11
830.607	18.79
830.779	18.42
830.951	20.6
831.123	17.48
831.294	13.75
831.466	17.81
831.638	19.24
831.809	18.08
831.981	15.57
832.153	17.57
832.324	18
832.496	16.54
832.667	18.03
832.839	15.34
833.011	20.49
833.182	21.03
833.354	22.89
833.525	23.59
833.697	21.88
833.868	25.55
834.039	23
834.211	23.51
834.382	23.84
834.554	22.96
834.725	24.16
834.896	22.01
835.068	20.77
835.239	18.32
835.41	15.3
835.581	16.51
835.753	17.3
835.924	15.66
836.095	14.87
836.266	14.02
836.438	13.8
836.609	13.08
836.78	10.85
836.951	11.49
837.122	15.76
837.293	19
837.464	16.98
837.635	11.76
837.806	11.73
837.977	10.95
838.148	9.72
838.319	9.58
838.49	7.98
838.661	14.38
838.832	14.18
839.003	11.77
839.174	8.44
839.345	14.58
839.516	22.4
839.687	23.97
839.857	33.37
840.028	30.71
840.199	29.62
840.37	17.66
840.54	15.8
840.711	14.57
840.882	11.98
841.053	7.75
841.223	9.26
841.394	8.72
841.564	4.86
841.735	0.96
841.906	-1.17
842.076	-13.76
842.247	-5.78
842.417	-11.45
842.588	-5.91
842.758	-7.79
842.929	-3.35
843.099	-7.61
843.27	-0.15
843.44	-0.84
843.611	-13.28
843.781	-20.47
843.951	-7.94
844.122	-5.69
844.292	-1.12
844.462	-9.27
844.633	-11.99
844.803	-10.95
844.973	-10.41
845.144	-16.37
845.314	-7.37
845.484	-8.71
845.654	2.21
845.824	4.81
845.995	1.85
846.165	0.16
846.335	6.69
846.505	12.8
846.675	6.18
846.845	3
847.015	-0.6
847.185	-1.16
847.355	7.37
847.525	-3.81
847.695	2.41
847.865	-13.87
848.035	-16.29
848.205	-1.39
848.375	-1.67
848.545	5.02
848.715	15.48
848.884	12.73
849.054	14.9
849.224	18.69
849.394	23.84
849.564	22.1
849.733	30.13
849.903	28.89
850.073	27.72
850.243	19.92
850.412	21.79
850.582	30.35
850.752	30.84
850.921	27.3
851.091	18.2
851.26	19.6
851.43	8.44
851.599	12.11
851.769	20.84
851.939	2.75
852.108	10.81
852.278	-12.14
852.447	-29.62
852.616	-30.41
852.786	-26.24
852.955	-5.03
853.125	-21.42
853.294	-12.16
853.463	-38.07
853.633	-52.43
853.802	-15.87
853.971	-29.4
854.141	-21.69
854.31	-24.32
854.479	-28.36
854.648	-28.16
854.818	-25.38
854.987	-26.17
855.156	-30.12
855.325	-21.91
855.494	-28.49
855.663	-60.66
855.832	-75.43
856.001	-60.69
856.171	-71.02
856.34	-54.14
856.509	-51.91
856.678	-49.48
856.847	-47.48
857.016	-47.19
857.185	-37.52
857.353	-20.35
857.522	-20.95
857.691	-1.09
857.86	-7.31
858.029	-7.61
858.198	-2.06
858.367	-5.32
858.535	-7.61
858.704	-0.03
858.873	3.75
859.042	5.14
859.21	-7.97
859.379	7.73
859.548	-7.65
859.717	13.19
859.885	3.25
860.054	-11.97
860.222	-46.05
860.391	-114.7
860.56	-94.62
860.728	-70.41
860.897	-176.33
861.065	-245.89
861.234	-99.54
861.402	-115.95
861.571	-124.8
861.739	-77.9
861.908	-74.53
862.076	-79.78
862.244	-47.71
862.413	-55.25
862.581	-59.55
862.749	-49.35
862.918	-50.58
863.086	-82.34
863.254	-45.39
863.423	-79.99
863.591	-122.95
863.759	-100.39
863.927	-94.11
864.096	-104.69
864.264	-82.05
864.432	-96.45
864.6	-162.79
864.768	-119.22
864.936	-60.46
865.104	-73.13
865.272	-17.62
865.44	-7.63
865.608	-4.48
865.776	-0.31
865.944	3.16
866.112	19.61
866.28	19.98
866.448	42.55
866.616	33.56
866.784	29.7
866.952	16.65
867.12	16.29
867.288	16.47
867.455	7.44
867.623	-1.19
867.791	0.23
867.959	2.87
868.127	15.05
868.294	-16.42
868.462	-48.24
868.63	-79.34
868.797	-41.95
868.965	-116.25
869.133	-205.74
869.3	-64.82
869.468	-36.41
869.636	-38.5
869.803	-57.15
869.971	-67.89
870.138	-44.5
870.306	-6.69
870.473	11.08
870.641	-5.24
870.808	-25.97
870.975	-15.58
871.143	-12.32
871.31	-9.11
871.478	-4.98
871.645	-2.94
871.812	-7.06
871.98	0.27
872.147	0.16
872.314	-22.46
872.482	-30.83
872.649	15.51
872.816	-2.5
872.983	-14.59
873.15	-11.01
873.318	-9.96
873.485	-15.8
873.652	0.32
873.819	-1.89
873.986	-15.13
874.153	-10.29
874.32	-15.05
874.487	-24.52
874.654	-11.95
874.821	-15.05
874.988	-17.36
875.155	-5.77
875.322	-7.02
875.489	-29.35
875.656	-26.29
875.823	-13.29
875.99	-14.6
876.157	3.13
876.324	1.93
876.49	-1.96
876.657	0.55
876.824	-5.68
876.991	-23.53
877.157	-30.78
877.324	-27.46
877.491	-25.3
877.658	-45.34
877.824	-57.01
877.991	-71.49
878.157	-68.92
878.324	-73.32
878.491	-100.5
878.657	-74.45
878.824	-36.67
878.99	-15.49
879.157	-42.02
879.323	-113.71
879.49	-76.1
879.656	-39.35
879.823	-27.74
879.989	-22.16
880.156	-14.51
880.322	-14.15
880.488	-14.26
880.655	-19.78
880.821	-16.96
880.987	2.79
881.154	4.29
881.32	3.01
881.486	-1.25
881.652	3.69
881.819	6.24
881.985	4.32
882.151	6.84
882.317	7.16
882.483	11.31
882.649	7.32
882.816	8.15
882.982	8.87
883.148	10.18
883.314	14.49
883.48	14.02
883.646	12.99
883.812	15.53
883.978	16.61
884.144	16.5
884.31	16.49
884.476	18.46
884.642	19.72
884.807	23.96
884.973	24.78
885.139	23.17
885.305	22.67
885.471	21.79
885.637	19.78
885.802	20.89
885.968	27.63
886.134	24.96
886.3	28.09
886.465	26.29
886.631	21.85
886.797	19.34
886.962	17.07
887.128	22.15
887.293	21.54
887.459	19.52
887.625	18.19
887.79	-1.59
887.956	3.26
888.121	-1.98
888.287	-4.17
888.452	-9.39
888.618	-5.27
888.783	-5.8
