Data from 2938039_Reflection_1.txt Node
Date: Sun Jul 12 14:41:34 EDT 2015
User: robert
Spectrometer: USB4E03001
Autoset integration time: false
Trigger mode: 4
Integration Time (sec): 1.000000E-1
Scans to average: 10
Electric dark correction enabled: true
Nonlinearity correction enabled: false
Boxcar width: 5
Stray light correction enabled: false
XAxis mode: Wavelengths
Stop averaging: false
Number of Pixels in Spectrum: 3648
>>>>>Begin Spectral Data<<<<<
177.566	-11.98
177.785	14.98
178.005	1789.33
178.225	194.95
178.445	231.26
178.665	120.62
178.885	151.51
179.105	-1097.67
179.324	693.59
179.544	1629.36
179.764	-1.49
179.984	-156.71
180.204	-147.89
180.423	-979.54
180.643	469.5
180.863	240.95
181.083	134.35
181.302	155.29
181.522	180.35
181.742	118.83
181.961	107.75
182.181	82.93
182.401	55.28
182.621	37.5
182.84	39.46
183.06	41.54
183.279	65.98
183.499	67.88
183.719	60.73
183.938	29.87
184.158	18.58
184.377	45.82
184.597	81.54
184.816	105.63
185.036	128.86
185.256	341.19
185.475	158.02
185.695	62.89
185.914	100.1
186.134	78.61
186.353	107.3
186.572	108.46
186.792	74.7
187.011	58.58
187.231	63.54
187.45	152.45
187.67	116.22
187.889	97.86
188.108	103.73
188.328	102.68
188.547	153.78
188.766	102.9
188.986	122.53
189.205	108.38
189.424	109.14
189.644	163.34
189.863	87.14
190.082	69.34
190.302	63.95
190.521	86.72
190.74	77.34
190.959	56.81
191.178	80.6
191.398	93.4
191.617	89
191.836	136.25
192.055	132.23
192.274	117.58
192.494	134.98
192.713	173.16
192.932	176.47
193.151	127.59
193.37	217.75
193.589	177.55
193.808	159.46
194.027	132.01
194.246	107.65
194.465	91.42
194.685	102.05
194.904	84.15
195.123	107.34
195.342	83.13
195.561	113.33
195.78	101.05
195.999	142.21
196.218	122.73
196.436	132.99
196.655	220.77
196.874	103.46
197.093	77.62
197.312	94.28
197.531	63.87
197.75	99.2
197.969	51.93
198.188	17.71
198.407	1.64
198.625	8.41
198.844	14.17
199.063	17.3
199.282	36.57
199.501	9
199.719	49.9
199.938	76.57
200.157	48.59
200.376	59.32
200.594	76.53
200.813	74.97
201.032	80.91
201.251	123.96
201.469	125.82
201.688	132.4
201.907	139.11
202.125	168.4
202.344	190.79
202.563	134.07
202.781	557.89
203	596.83
203.218	293.61
203.437	141.66
203.656	69.17
203.874	113.82
204.093	135.81
204.311	120.34
204.53	157.19
204.748	239.43
204.967	485.74
205.185	229.14
205.404	200.36
205.622	146.19
205.841	151.08
206.059	183.63
206.278	140.5
206.496	104.31
206.715	141.18
206.933	139.7
207.151	126.43
207.37	116.07
207.588	124.87
207.806	155.18
208.025	161.12
208.243	240.59
208.461	191.15
208.68	176.44
208.898	232.98
209.116	328.7
209.335	394.59
209.553	180.88
209.771	201.18
209.989	280.41
210.208	550
210.426	552.58
210.644	233.71
210.862	554.89
211.081	197.38
211.299	156.78
211.517	149.52
211.735	151.5
211.953	143.53
212.171	130.01
212.39	93.97
212.608	78.53
212.826	123.45
213.044	153.54
213.262	127.94
213.48	133.36
213.698	113.29
213.916	98.34
214.134	104.48
214.352	98.72
214.57	88.76
214.788	77.92
215.006	68.87
215.224	42.79
215.442	33.28
215.66	35.01
215.878	48.01
216.096	45.58
216.314	56.81
216.532	56.57
216.75	58.35
216.968	45.81
217.185	50.77
217.403	47.08
217.621	61.21
217.839	50.96
218.057	56.17
218.275	36.31
218.492	35.04
218.71	9.87
218.928	-8.19
219.146	-4.35
219.363	14.73
219.581	23.7
219.799	58.75
220.017	39.18
220.234	65.84
220.452	57.49
220.67	67.87
220.887	76.13
221.105	77.47
221.323	85.18
221.54	80.87
221.758	75.2
221.976	77.37
222.193	62.49
222.411	63.42
222.629	69.45
222.846	84.97
223.064	64.1
223.281	54.29
223.499	68.66
223.716	72.15
223.934	85.57
224.151	90.61
224.369	105.91
224.586	89.94
224.804	74.96
225.021	34.59
225.239	-4.09
225.456	12.21
225.674	16.37
225.891	8.58
226.108	7.91
226.326	4.58
226.543	2.03
226.76	-5.42
226.978	-10.04
227.195	-0.94
227.413	7.21
227.63	14.3
227.847	20.58
228.064	16.71
228.282	19.63
228.499	20.35
228.716	18.02
228.934	18.97
229.151	18.55
229.368	20.22
229.585	21.58
229.802	18.9
230.02	16.04
230.237	13.01
230.454	13.61
230.671	11.34
230.888	6.43
231.105	6.11
231.323	5.66
231.54	5.56
231.757	5.61
231.974	4.9
232.191	7.8
232.408	11.98
232.625	12.57
232.842	13.52
233.059	9.16
233.276	18.75
233.493	22.67
233.71	21.31
233.927	18.57
234.144	19.46
234.361	18.96
234.578	18.89
234.795	21.48
235.012	21.07
235.229	25.41
235.446	27.1
235.663	22.29
235.879	21.48
236.096	18.76
236.313	15.6
236.53	15.85
236.747	19.04
236.964	18.93
237.181	16.1
237.397	18.54
237.614	15.93
237.831	12.71
238.048	14.3
238.264	15.47
238.481	19.87
238.698	25.74
238.915	31.3
239.131	28.37
239.348	30.06
239.565	30.12
239.781	28.82
239.998	26.5
240.215	28.87
240.431	28.13
240.648	26.59
240.865	21.84
241.081	20.87
241.298	15.34
241.514	16.05
241.731	13.11
241.947	14.76
242.164	13.11
242.38	12.13
242.597	10.03
242.814	11.16
243.03	10.7
243.246	13.19
243.463	13.49
243.679	14.37
243.896	13.97
244.112	15.08
244.329	12.47
244.545	12.59
244.762	11.74
244.978	13.97
245.194	10.2
245.411	11.44
245.627	11.42
245.843	11.37
246.06	11.84
246.276	12.08
246.492	10.68
246.709	12.38
246.925	12.82
247.141	13.46
247.357	13.74
247.574	14.14
247.79	14.05
248.006	13.79
248.222	13.5
248.439	13.48
248.655	13.95
248.871	15.1
249.087	13.87
249.303	12.96
249.519	12.21
249.736	12.26
249.952	13.2
250.168	12.96
250.384	12.36
250.6	12.34
250.816	12.13
251.032	10.65
251.248	11.28
251.464	11.4
251.68	14.4
251.896	16.66
252.112	15.75
252.328	13.94
252.544	13.15
252.76	12.4
252.976	13.5
253.192	13.04
253.408	14.98
253.624	15.64
253.84	15.93
254.056	13.6
254.272	12.09
254.487	11.82
254.703	12.26
254.919	13.93
255.135	17.33
255.351	16.68
255.567	19.41
255.782	14.39
255.998	10.94
256.214	9.37
256.43	11.75
256.646	13.77
256.861	13.86
257.077	15.12
257.293	13.29
257.508	10.3
257.724	9.27
257.94	7.64
258.155	8.93
258.371	8.93
258.587	11.76
258.802	11.93
259.018	11.28
259.234	12.41
259.449	11.92
259.665	12.28
259.88	12.14
260.096	12.26
260.312	11.91
260.527	11.09
260.743	11.13
260.958	10.48
261.174	10.68
261.389	10.46
261.605	9.37
261.82	8.98
262.036	9.42
262.251	8.65
262.466	8.89
262.682	8.47
262.897	7.89
263.113	8.02
263.328	7.03
263.543	5.6
263.759	5.17
263.974	6.16
264.189	7.13
264.405	3.42
264.62	5.42
264.835	5.16
265.051	4.89
265.266	7.37
265.481	10.17
265.696	11.02
265.912	9.51
266.127	9.6
266.342	8.91
266.557	8.34
266.773	9.37
266.988	9.24
267.203	8.63
267.418	9.38
267.633	10.93
267.848	8.54
268.064	8.26
268.279	7.89
268.494	7.19
268.709	8.37
268.924	7.84
269.139	8.88
269.354	8.24
269.569	8.36
269.784	7.75
269.999	6.98
270.214	6.43
270.429	7.64
270.644	9.52
270.859	9.51
271.074	7.83
271.289	7.85
271.504	7.58
271.719	7.86
271.934	8.57
272.149	8.91
272.363	8.27
272.578	8.87
272.793	9.03
273.008	8.74
273.223	9.73
273.438	10.58
273.653	10.01
273.867	10.62
274.082	10.61
274.297	9.87
274.512	8.22
274.726	9.24
274.941	9.8
275.156	8.9
275.371	7.31
275.585	7.64
275.8	7.17
276.015	7.27
276.229	6.69
276.444	7.08
276.659	7.87
276.873	11.48
277.088	9.47
277.302	9.71
277.517	10.21
277.732	10.54
277.946	8.71
278.161	8.82
278.375	10.24
278.59	9.48
278.804	9.66
279.019	7.62
279.233	5.83
279.448	8.01
279.662	7.9
279.877	7.3
280.091	9.73
280.306	10.77
280.52	9.94
280.735	9.5
280.949	11.13
281.163	11.71
281.378	12.16
281.592	12.83
281.806	12.41
282.021	13
282.235	12.67
282.449	12.18
282.664	12.08
282.878	13.81
283.092	13.21
283.307	13.14
283.521	11.68
283.735	13.51
283.949	12.77
284.164	12.36
284.378	10.78
284.592	10.97
284.806	10.01
285.02	10.19
285.234	9.01
285.449	10.72
285.663	9.51
285.877	10.03
286.091	9.32
286.305	8.44
286.519	8.66
286.733	8.34
286.947	8.6
287.161	8.43
287.375	8.16
287.589	8.42
287.803	7.63
288.017	7.88
288.231	8.13
288.445	8.19
288.659	9.44
288.873	9.01
289.087	10.28
289.301	10.09
289.515	11.64
289.729	12.92
289.943	12.72
290.157	13.78
290.371	12.7
290.584	12.82
290.798	11.63
291.012	13.23
291.226	13.86
291.44	13.99
291.654	13.9
291.867	14.27
292.081	11.66
292.295	11.98
292.509	9.74
292.722	12.78
292.936	12.35
293.15	12.56
293.364	10.28
293.577	11.34
293.791	11.16
294.005	12.6
294.218	12.54
294.432	13.71
294.645	14.04
294.859	15.86
295.073	15.09
295.286	15.52
295.5	16.38
295.713	17.64
295.927	15.15
296.14	14.82
296.354	14.78
296.568	13.59
296.781	13.38
296.994	12.28
297.208	11.38
297.421	10.53
297.635	11.25
297.848	11.54
298.062	11.21
298.275	12.34
298.489	11.95
298.702	11.06
298.915	10.85
299.129	11.45
299.342	12.1
299.555	11.03
299.769	11.92
299.982	11.17
300.195	10.72
300.409	10.59
300.622	10.94
300.835	11.84
301.048	11.67
301.262	12.63
301.475	13.11
301.688	14.29
301.901	15.71
302.115	15.44
302.328	14.78
302.541	14.45
302.754	13.05
302.967	12.09
303.18	11.05
303.393	11.62
303.607	11.75
303.82	10.73
304.033	9.43
304.246	7.92
304.459	8.16
304.672	7.85
304.885	8.66
305.098	11.35
305.311	11.4
305.524	11.42
305.737	11.06
305.95	10.23
306.163	11.55
306.376	11.81
306.589	12.85
306.802	11.69
307.015	10.69
307.228	10.41
307.44	8.18
307.653	8.98
307.866	10.31
308.079	9.9
308.292	9.95
308.505	8.67
308.718	7.33
308.93	7.72
309.143	9.57
309.356	11.57
309.569	10.94
309.781	10.39
309.994	11.36
310.207	12.04
310.42	11.75
310.632	11.68
310.845	11.95
311.058	12.05
311.27	13.35
311.483	12.99
311.696	11.68
311.908	12.59
312.121	12.71
312.333	11.36
312.546	10.96
312.759	11.67
312.971	10.55
313.184	11.5
313.396	13.47
313.609	11.34
313.821	11.23
314.034	11.33
314.246	11.25
314.459	12.27
314.671	12.99
314.884	13.28
315.096	13.63
315.309	13.91
315.521	13.68
315.733	13
315.946	13.05
316.158	12.85
316.371	14.53
316.583	13.27
316.795	11.35
317.008	10.51
317.22	9.31
317.432	9.47
317.644	12.21
317.857	9.99
318.069	10.66
318.281	10.82
318.494	9.57
318.706	7.84
318.918	7.35
319.13	10.05
319.342	10.56
319.555	11.75
319.767	11.49
319.979	9.78
320.191	11.94
320.403	10.47
320.615	12.1
320.827	12.18
321.039	12.59
321.252	14.2
321.464	15.74
321.676	15.47
321.888	13.8
322.1	13.21
322.312	12.86
322.524	12.57
322.736	13.47
322.948	12.42
323.16	12.86
323.372	13.01
323.584	12.47
323.796	10.42
324.007	9.75
324.219	10.09
324.431	10.51
324.643	11.47
324.855	10.43
325.067	9.75
325.279	9.25
325.491	9.22
325.702	8.87
325.914	7.95
326.126	7.04
326.338	7.99
326.55	7.17
326.761	7.73
326.973	7.76
327.185	7.76
327.396	7.71
327.608	7.38
327.82	7.68
328.032	7.89
328.243	8.18
328.455	9.49
328.666	7.7
328.878	9.75
329.09	9.16
329.301	9.08
329.513	8.61
329.725	8.9
329.936	8.82
330.148	9.42
330.359	9.46
330.571	9.86
330.782	8.09
330.994	8.23
331.205	7.81
331.417	6.83
331.628	7.52
331.84	7.72
332.051	6.11
332.262	6.36
332.474	5.72
332.685	6.19
332.897	5.58
333.108	5.45
333.319	7.5
333.531	6.37
333.742	8.48
333.953	9.18
334.165	9.99
334.376	11.77
334.587	12.19
334.799	12.33
335.01	11.25
335.221	11.62
335.432	13.19
335.644	13.08
335.855	14.34
336.066	12.45
336.277	10.25
336.488	9.15
336.7	8.78
336.911	8.5
337.122	8.04
337.333	9.21
337.544	9.25
337.755	8.34
337.966	7.48
338.177	6.34
338.388	6.58
338.599	7.52
338.811	8.17
339.022	8.61
339.233	9.62
339.444	10.11
339.655	9.55
339.866	8.83
340.076	8.74
340.287	9.25
340.498	10.24
340.709	11.43
340.92	11.67
341.131	13.1
341.342	13
341.553	11.65
341.764	12.42
341.975	12.84
342.185	12.71
342.396	11.54
342.607	12.23
342.818	11.59
343.029	10.58
343.239	10.6
343.45	8.99
343.661	9.49
343.872	9.34
344.082	7.38
344.293	7.83
344.504	8.04
344.714	8.53
344.925	8.62
345.136	8.31
345.346	9.58
345.557	8.95
345.768	9.58
345.978	8.99
346.189	9.2
346.399	10.07
346.61	9.63
346.821	10.42
347.031	12.37
347.242	11.82
347.452	12.01
347.663	10.44
347.873	11.11
348.084	10.08
348.294	9.69
348.504	9.94
348.715	10.56
348.925	11.28
349.136	11.65
349.346	11.23
349.557	11.03
349.767	12
349.977	12.29
350.188	11.55
350.398	12.58
350.608	13.24
350.819	13.23
351.029	12.96
351.239	12.02
351.449	11.33
351.66	11.45
351.87	10.23
352.08	9.42
352.29	7.93
352.501	7.57
352.711	6.56
352.921	6.39
353.131	5.88
353.341	4.75
353.552	5.35
353.762	6.15
353.972	5.56
354.182	7.06
354.392	6.84
354.602	8.25
354.812	9.25
355.022	10.46
355.232	10.01
355.442	10.05
355.652	10.98
355.862	11.13
356.072	10.92
356.282	10.56
356.492	10.87
356.702	11.65
356.912	11.13
357.122	10.91
357.332	10.72
357.542	10.67
357.752	11.19
357.962	10.07
358.171	8.77
358.381	8.53
358.591	8.1
358.801	7.85
359.011	7.16
359.221	7.42
359.43	7.25
359.64	6.82
359.85	6.8
360.06	6.92
360.269	8.13
360.479	8.35
360.689	7.77
360.899	7.43
361.108	7.08
361.318	7.14
361.528	7.23
361.737	7.17
361.947	7.58
362.156	7.41
362.366	6.99
362.576	7.01
362.785	7.05
362.995	7.5
363.204	8.23
363.414	8.83
363.623	8.23
363.833	8.57
364.042	7.79
364.252	7.72
364.461	7.39
364.671	8.01
364.88	8.06
365.09	7.64
365.299	7.29
365.509	6.71
365.718	6.05
365.927	6.75
366.137	6.61
366.346	7.6
366.555	7.36
366.765	7.99
366.974	7.19
367.183	6.76
367.393	7.23
367.602	7.08
367.811	6.99
368.021	7.42
368.23	7.46
368.439	7.44
368.648	7.04
368.857	6.5
369.067	5.92
369.276	6.14
369.485	5.56
369.694	5.81
369.903	5.99
370.112	6.11
370.321	5.6
370.531	6.42
370.74	6.49
370.949	6.19
371.158	6.37
371.367	6.13
371.576	6.7
371.785	7.27
371.994	6.71
372.203	7.44
372.412	8.2
372.621	8.15
372.83	7.91
373.039	8.2
373.248	8.77
373.457	9.35
373.666	9.65
373.874	9.01
374.083	8.81
374.292	9.79
374.501	9.93
374.71	8.77
374.919	9.34
375.128	8.55
375.336	8.06
375.545	7.66
375.754	7.05
375.963	7.2
376.171	7.26
376.38	6.75
376.589	6.01
376.798	5.28
377.006	6.03
377.215	5.77
377.424	5.68
377.632	5.61
377.841	6.26
378.05	5.94
378.258	6.18
378.467	6.17
378.675	6.59
378.884	7.19
379.093	7.35
379.301	7.35
379.51	6.96
379.718	7.28
379.927	7.6
380.135	6.8
380.344	6.95
380.552	6.96
380.761	7.02
380.969	6.88
381.177	6.6
381.386	5.99
381.594	6.34
381.803	6.57
382.011	6.15
382.219	5.68
382.428	5.65
382.636	6.02
382.845	5.65
383.053	5.7
383.261	6.36
383.469	6.14
383.678	6.2
383.886	5.73
384.094	5.75
384.302	5.98
384.511	5.67
384.719	5.75
384.927	5.67
385.135	5.43
385.343	5.41
385.552	5.17
385.76	4.98
385.968	4.63
386.176	4.77
386.384	4.82
386.592	4.94
386.8	5.45
387.008	5.75
387.216	5.12
387.424	4.65
387.633	4.58
387.841	4.25
388.049	4.69
388.257	5.2
388.465	4.78
388.672	4.8
388.88	4.7
389.088	4.78
389.296	4.78
389.504	5.28
389.712	6.2
389.92	5.95
390.128	5.81
390.336	5.31
390.544	5.29
390.751	5.56
390.959	5.38
391.167	5.04
391.375	4.23
391.583	4.13
391.79	3.67
391.998	3.37
392.206	3.6
392.414	3.54
392.621	3.17
392.829	2.83
393.037	2.72
393.244	2.6
393.452	2.73
393.66	3.47
393.867	2.94
394.075	3.17
394.283	2.97
394.49	2.96
394.698	3.08
394.905	3.62
395.113	3.57
395.32	3.31
395.528	3.52
395.735	3.51
395.943	3.24
396.15	3.84
396.358	3.81
396.565	4.06
396.773	3.82
396.98	3.84
397.188	3.96
397.395	4.31
397.602	4.47
397.81	4.26
398.017	4.05
398.225	3.68
398.432	3.38
398.639	3.74
398.847	3.84
399.054	3.83
399.261	3.46
399.468	3.05
399.676	3.16
399.883	3.41
400.09	3.51
400.297	3.71
400.505	3.86
400.712	3.74
400.919	3.12
401.126	3.03
401.333	2.73
401.54	2.96
401.748	3.13
401.955	3.27
402.162	3.13
402.369	2.99
402.576	2.91
402.783	2.74
402.99	2.72
403.197	3.06
403.404	3.15
403.611	3.36
403.818	3.48
404.025	3.48
404.232	3.16
404.439	3.02
404.646	3.38
404.853	3.43
405.06	3.74
405.267	4.16
405.474	4.24
405.681	4.35
405.887	4.45
406.094	4.42
406.301	4.45
406.508	4.32
406.715	4.24
406.922	3.82
407.128	3.74
407.335	3.83
407.542	3.37
407.749	3.17
407.955	2.63
408.162	2.7
408.369	2.43
408.575	2.2
408.782	2.31
408.989	2.66
409.195	2.56
409.402	2.57
409.609	2.44
409.815	2.57
410.022	2.55
410.228	2.9
410.435	2.77
410.642	2.97
410.848	3.34
411.055	3.37
411.261	2.93
411.468	2.99
411.674	2.96
411.881	3.11
412.087	3.31
412.294	3.23
412.5	3.17
412.706	3.15
412.913	2.86
413.119	3.01
413.326	2.99
413.532	3.16
413.738	3.25
413.945	3.09
414.151	2.88
414.357	2.63
414.564	2.88
414.77	2.82
414.976	2.78
415.182	3.23
415.389	2.65
415.595	2.7
415.801	2.63
416.007	2.41
416.214	2.78
416.42	2.76
416.626	2.75
416.832	2.69
417.038	2.69
417.244	3
417.45	2.9
417.657	3.03
417.863	3.08
418.069	3.03
418.275	3.17
418.481	2.98
418.687	2.93
418.893	2.83
419.099	2.63
419.305	2.58
419.511	2.3
419.717	2.23
419.923	2.3
420.129	2.22
420.335	2.23
420.541	2.28
420.746	2.32
420.952	2.3
421.158	2.48
421.364	2.64
421.57	2.72
421.776	2.84
421.982	2.88
422.187	2.89
422.393	2.84
422.599	2.82
422.805	2.71
423.01	2.67
423.216	2.82
423.422	2.74
423.628	2.6
423.833	2.49
424.039	2.38
424.245	2.38
424.45	2.23
424.656	2.35
424.862	2.44
425.067	2.36
425.273	2.4
425.478	2.39
425.684	2.27
425.889	2.34
426.095	2.37
426.301	2.27
426.506	2.19
426.712	2.26
426.917	2.09
427.123	2.12
427.328	2.18
427.533	2.15
427.739	1.84
427.944	2.12
428.15	2.3
428.355	2.45
428.561	2.61
428.766	2.59
428.971	2.43
429.177	2.36
429.382	2.39
429.587	2.39
429.793	2.47
429.998	2.49
430.203	2.3
430.408	2.03
430.614	1.94
430.819	1.96
431.024	2.25
431.229	2.58
431.434	2.78
431.64	2.54
431.845	2.77
432.05	2.55
432.255	2.82
432.46	2.84
432.665	2.94
432.87	2.89
433.076	2.79
433.281	2.64
433.486	2.39
433.691	2.2
433.896	2.31
434.101	2.18
434.306	2.36
434.511	2.41
434.716	2.34
434.921	2.29
435.126	2.37
435.331	2.39
435.535	2.53
435.74	2.67
435.945	2.7
436.15	2.57
436.355	2.62
436.56	2.48
436.765	2.27
436.97	2.32
437.174	2.34
437.379	2.26
437.584	2.24
437.789	2.02
437.993	1.95
438.198	2.14
438.403	2.23
438.608	1.93
438.812	1.94
439.017	2.23
439.222	2.08
439.426	2.07
439.631	2.07
439.836	2.11
440.04	2.11
440.245	2.15
440.45	2.15
440.654	2.11
440.859	2.33
441.063	2.26
441.268	2.09
441.472	2.21
441.677	2.19
441.881	2.17
442.086	2.05
442.29	2.08
442.495	2.03
442.699	1.82
442.904	1.8
443.108	1.83
443.312	1.9
443.517	1.92
443.721	1.97
443.925	1.94
444.13	1.99
444.334	2.09
444.538	2.22
444.743	2.16
444.947	2.26
445.151	2.28
445.356	2.15
445.56	2.15
445.764	2.18
445.968	2.17
446.173	2.29
446.377	2.32
446.581	2.32
446.785	2.2
446.989	2.18
447.193	2.15
447.398	2.2
447.602	2.29
447.806	2.36
448.01	2.19
448.214	2.16
448.418	2.1
448.622	2.01
448.826	1.99
449.03	1.91
449.234	1.99
449.438	2.31
449.642	2.35
449.846	2.21
450.05	2.19
450.254	2.13
450.458	2.02
450.662	1.8
450.866	1.69
451.069	1.68
451.273	1.73
451.477	1.8
451.681	1.48
451.885	1.35
452.089	1.51
452.292	1.52
452.496	1.75
452.7	1.86
452.904	2
453.107	2.17
453.311	2.47
453.515	2.64
453.719	2.62
453.922	2.77
454.126	2.69
454.33	2.55
454.533	2.54
454.737	2.41
454.94	2.4
455.144	2.39
455.348	2.24
455.551	1.93
455.755	1.97
455.958	1.98
456.162	1.89
456.365	1.93
456.569	2.02
456.772	1.96
456.976	2.03
457.179	2.07
457.383	2.06
457.586	2.14
457.79	2.25
457.993	2.15
458.196	2.05
458.4	2.05
458.603	2.09
458.807	2.11
459.01	2.06
459.213	2.12
459.417	2.09
459.62	2.07
459.823	2.05
460.026	2.04
460.23	2.08
460.433	2.18
460.636	2.16
460.839	2.16
461.042	2.1
461.246	2.07
461.449	2.06
461.652	2.06
461.855	2.03
462.058	2.15
462.261	2.06
462.464	2.1
462.668	1.96
462.871	2
463.074	2.14
463.277	2.31
463.48	2.44
463.683	2.32
463.886	2.18
464.089	2.23
464.292	2.22
464.495	2.31
464.698	2.19
464.901	2.17
465.104	2.13
465.306	2.19
465.509	2.17
465.712	2.09
465.915	2.08
466.118	2.25
466.321	2.25
466.524	2.11
466.726	2.26
466.929	2.19
467.132	2.19
467.335	2.11
467.538	1.98
467.74	1.9
467.943	2.07
468.146	2.16
468.348	2.13
468.551	2.01
468.754	2.19
468.956	2.05
469.159	2.11
469.362	2.15
469.564	2.2
469.767	2.26
469.969	1.97
470.172	1.92
470.375	1.87
470.577	1.85
470.78	2.11
470.982	1.93
471.185	1.9
471.387	1.69
471.59	1.65
471.792	1.76
471.995	1.64
472.197	1.97
472.399	2.02
472.602	2.37
472.804	2.45
473.007	2.42
473.209	2.5
473.411	2.66
473.614	2.85
473.816	2.94
474.018	2.97
474.22	3
474.423	2.85
474.625	2.92
474.827	2.57
475.03	2.55
475.232	2.4
475.434	2.28
475.636	2.09
475.838	2.06
476.04	2.01
476.243	1.76
476.445	1.66
476.647	1.76
476.849	1.71
477.051	1.68
477.253	1.63
477.455	1.74
477.657	1.91
477.859	1.9
478.061	2.01
478.263	2.11
478.465	2.31
478.667	2.24
478.869	2.16
479.071	1.96
479.273	1.88
479.475	1.84
479.677	2.01
479.879	1.98
480.081	1.92
480.283	1.79
480.485	1.77
480.686	1.71
480.888	1.95
481.09	1.96
481.292	2.01
481.494	2.1
481.695	2.07
481.897	1.9
482.099	1.89
482.301	1.89
482.502	1.82
482.704	1.77
482.906	1.73
483.107	1.61
483.309	1.57
483.511	1.57
483.712	1.58
483.914	1.56
484.115	1.54
484.317	1.54
484.519	1.53
484.72	1.55
484.922	1.54
485.123	1.51
485.325	1.54
485.526	1.52
485.728	1.45
485.929	1.45
486.131	1.48
486.332	1.47
486.534	1.45
486.735	1.47
486.936	1.52
487.138	1.54
487.339	1.52
487.541	1.52
487.742	1.6
487.943	1.69
488.144	1.72
488.346	1.66
488.547	1.66
488.748	1.59
488.95	1.59
489.151	1.58
489.352	1.59
489.553	1.67
489.755	1.76
489.956	1.76
490.157	1.72
490.358	1.72
490.559	1.85
490.76	1.91
490.961	1.94
491.163	1.97
491.364	1.99
491.565	1.91
491.766	1.89
491.967	1.87
492.168	1.79
492.369	1.8
492.57	1.77
492.771	1.69
492.972	1.68
493.173	1.74
493.374	1.72
493.575	1.66
493.776	1.73
493.976	1.76
494.177	1.76
494.378	1.89
494.579	1.97
494.78	1.94
494.981	1.95
495.182	2.03
495.382	2.1
495.583	2.05
495.784	2.15
495.985	2.17
496.185	2.14
496.386	2.1
496.587	2.09
496.788	2.02
496.988	1.95
497.189	2.05
497.39	1.99
497.59	1.85
497.791	1.87
497.992	1.99
498.192	1.99
498.393	2.02
498.593	2.13
498.794	2.19
498.994	2.31
499.195	2.33
499.395	2.36
499.596	2.39
499.796	2.49
499.997	2.6
500.197	2.41
500.398	2.44
500.598	2.35
500.799	2.17
500.999	2.06
501.199	1.96
501.4	1.99
501.6	1.9
501.801	1.71
502.001	1.59
502.201	1.42
502.402	1.37
502.602	1.23
502.802	1.35
503.002	1.45
503.203	1.35
503.403	1.47
503.603	1.51
503.803	1.45
504.003	1.68
504.204	1.69
504.404	1.99
504.604	1.96
504.804	2.04
505.004	1.98
505.204	2.15
505.404	2.5
505.604	2.4
505.804	2.27
506.005	2.37
506.205	2.36
506.405	2.38
506.605	2.16
506.805	2.16
507.005	2.13
507.204	2.16
507.404	2.13
507.604	1.92
507.804	1.8
508.004	1.8
508.204	1.78
508.404	1.72
508.604	1.82
508.804	1.83
509.003	1.91
509.203	1.93
509.403	2.08
509.603	1.89
509.803	1.94
510.002	2.12
510.202	2.34
510.402	2.33
510.602	2.3
510.801	2.31
511.001	2.35
511.201	2.29
511.4	2.32
511.6	2.21
511.8	2.22
511.999	2.26
512.199	2.11
512.398	1.96
512.598	2.07
512.797	2.1
512.997	2.22
513.197	2.29
513.396	2.31
513.596	2.36
513.795	2.38
513.994	2.4
514.194	2.31
514.393	2.45
514.593	2.46
514.792	2.22
514.992	2.25
515.191	1.98
515.39	1.87
515.59	1.93
515.789	1.85
515.988	1.79
516.188	1.79
516.387	1.87
516.586	1.78
516.786	1.81
516.985	1.92
517.184	1.87
517.383	2.04
517.582	2.06
517.782	2
517.981	2.05
518.18	2.17
518.379	2.26
518.578	2.26
518.777	2.33
518.976	2.44
519.176	2.41
519.375	2.48
519.574	2.38
519.773	2.34
519.972	2.56
520.171	2.63
520.37	2.45
520.569	2.38
520.768	2.36
520.967	2.3
521.166	2.18
521.365	2.26
521.564	2.16
521.762	2.21
521.961	2.36
522.16	2.19
522.359	2.11
522.558	2.26
522.757	2.18
522.956	2.03
523.154	2.17
523.353	2.27
523.552	2.4
523.751	2.44
523.949	2.53
524.148	2.35
524.347	2.36
524.546	2.39
524.744	2.39
524.943	2.48
525.142	2.65
525.34	2.63
525.539	2.6
525.737	2.55
525.936	2.64
526.135	2.68
526.333	2.78
526.532	2.76
526.73	2.75
526.929	2.75
527.127	2.79
527.326	2.63
527.524	2.64
527.723	2.65
527.921	2.68
528.12	2.59
528.318	2.57
528.516	2.55
528.715	2.52
528.913	2.54
529.112	2.47
529.31	2.45
529.508	2.53
529.707	2.51
529.905	2.5
530.103	2.44
530.301	2.52
530.5	2.54
530.698	2.58
530.896	2.61
531.094	2.57
531.293	2.7
531.491	2.69
531.689	2.82
531.887	2.85
532.085	2.96
532.283	2.95
532.481	2.94
532.68	2.85
532.878	2.83
533.076	2.83
533.274	2.9
533.472	2.99
533.67	2.91
533.868	2.82
534.066	2.81
534.264	2.73
534.462	2.68
534.66	2.77
534.858	2.88
535.056	2.9
535.253	2.87
535.451	2.83
535.649	2.71
535.847	2.83
536.045	2.73
536.243	2.7
536.441	2.76
536.638	2.86
536.836	2.77
537.034	2.71
537.232	2.65
537.43	2.77
537.627	2.62
537.825	2.66
538.023	2.69
538.22	2.84
538.418	2.96
538.616	2.97
538.813	2.97
539.011	3.05
539.209	3.02
539.406	3.21
539.604	3.22
539.801	3.35
539.999	3.4
540.196	3.41
540.394	3.41
540.591	3.43
540.789	3.46
540.986	3.44
541.184	3.41
541.381	3.46
541.579	3.46
541.776	3.45
541.974	3.56
542.171	3.58
542.368	3.59
542.566	3.68
542.763	3.6
542.96	3.56
543.158	3.6
543.355	3.69
543.552	3.75
543.75	3.82
543.947	3.79
544.144	3.85
544.341	3.87
544.539	3.92
544.736	3.92
544.933	4.13
545.13	4.22
545.327	4.32
545.524	4.22
545.722	4.21
545.919	4.19
546.116	4.4
546.313	4.39
546.51	4.41
546.707	4.51
546.904	4.55
547.101	4.56
547.298	4.69
547.495	4.77
547.692	4.9
547.889	4.95
548.086	5.14
548.283	5.17
548.48	5.13
548.677	5.18
548.874	5.1
549.07	5.09
549.267	5.15
549.464	5.1
549.661	5.27
549.858	5.32
550.055	5.33
550.251	5.11
550.448	5.11
550.645	5.05
550.842	4.89
551.038	5.16
551.235	5.02
551.432	4.94
551.628	4.99
551.825	4.85
552.022	4.8
552.218	4.83
552.415	5.03
552.612	5.03
552.808	5.09
553.005	5.27
553.201	5.18
553.398	5.31
553.594	5.38
553.791	5.36
553.987	5.46
554.184	5.5
554.38	5.71
554.577	5.67
554.773	5.89
554.97	6.16
555.166	6.24
555.362	6.42
555.559	6.54
555.755	6.66
555.952	6.79
556.148	6.85
556.344	7.06
556.541	7.14
556.737	7.2
556.933	7.3
557.129	7.45
557.326	7.36
557.522	7.35
557.718	7.31
557.914	7.38
558.11	7.44
558.307	7.4
558.503	7.48
558.699	7.5
558.895	7.69
559.091	7.53
559.287	7.36
559.483	7.67
559.679	7.64
559.876	7.83
560.072	7.96
560.268	7.89
560.464	7.85
560.66	7.59
560.856	7.38
561.052	7.19
561.247	7.53
561.443	7.59
561.639	7.45
561.835	7.84
562.031	7.69
562.227	7.71
562.423	7.93
562.619	8.17
562.815	8.39
563.01	8.53
563.206	8.78
563.402	8.43
563.598	8.45
563.793	8.49
563.989	8.34
564.185	8.63
564.381	8.73
564.576	8.74
564.772	8.83
564.968	9.16
565.163	9.49
565.359	9.6
565.555	10.04
565.75	10.18
565.946	10.41
566.141	10.36
566.337	10.44
566.532	10.42
566.728	10.71
566.923	10.92
567.119	10.83
567.314	10.84
567.51	10.91
567.705	10.86
567.901	10.84
568.096	10.93
568.292	11.28
568.487	11.2
568.682	11.21
568.878	11.11
569.073	11.1
569.268	11.16
569.464	11.05
569.659	11.21
569.854	11.04
570.05	11.28
570.245	11.37
570.44	11.19
570.635	11.32
570.831	11.44
571.026	11.49
571.221	11.55
571.416	11.69
571.611	11.77
571.806	11.66
572.002	11.73
572.197	11.71
572.392	11.66
572.587	11.85
572.782	11.98
572.977	12.27
573.172	12.16
573.367	12.13
573.562	12.14
573.757	12.2
573.952	12.26
574.147	12.44
574.342	12.61
574.537	12.66
574.732	12.57
574.927	12.77
575.121	12.59
575.316	12.77
575.511	12.83
575.706	13
575.901	13.26
576.096	13.21
576.29	13.41
576.485	13.27
576.68	13.28
576.875	13.29
577.069	13.3
577.264	13.48
577.459	13.54
577.654	13.63
577.848	13.48
578.043	13.36
578.238	13.49
578.432	13.35
578.627	13.45
578.821	13.66
579.016	14.04
579.21	13.92
579.405	13.7
579.6	13.81
579.794	13.79
579.989	13.89
580.183	13.8
580.378	13.73
580.572	13.78
580.766	14.06
580.961	14.26
581.155	14.23
581.35	14.21
581.544	14.27
581.738	14.22
581.933	14.26
582.127	14.35
582.321	14.72
582.516	15.04
582.71	15.08
582.904	15.05
583.099	14.81
583.293	14.64
583.487	15
583.681	15.07
583.875	15.08
584.07	15.2
584.264	15.34
584.458	15.28
584.652	15.21
584.846	15.06
585.04	15.07
585.234	15.36
585.428	15.59
585.623	15.46
585.817	15.39
586.011	15.73
586.205	15.58
586.399	15.38
586.593	15.31
586.787	15.36
586.981	15.5
587.174	15.52
587.368	15.53
587.562	15.32
587.756	15.34
587.95	15.63
588.144	15.29
588.338	15.59
588.532	15.81
588.725	15.99
588.919	16.07
589.113	16.17
589.307	16.19
589.501	16.06
589.694	16.24
589.888	16.13
590.082	16.05
590.275	16.31
590.469	16.16
590.663	16.09
590.856	15.98
591.05	16.09
591.244	16.15
591.437	16.1
591.631	16.38
591.824	16.22
592.018	16.36
592.212	16.46
592.405	16.38
592.599	16.31
592.792	16.34
592.986	16.73
593.179	16.69
593.372	16.77
593.566	16.7
593.759	16.63
593.953	16.86
594.146	16.88
594.339	17.01
594.533	17.11
594.726	17.26
594.92	17.08
595.113	16.93
595.306	16.76
595.499	16.82
595.693	17.04
595.886	16.88
596.079	16.71
596.272	16.95
596.466	17.03
596.659	17.26
596.852	17.46
597.045	17.68
597.238	17.61
597.431	17.89
597.624	17.85
597.818	17.95
598.011	18.1
598.204	18.32
598.397	18.3
598.59	18.25
598.783	18.13
598.976	17.92
599.169	17.88
599.362	17.88
599.555	17.83
599.748	17.85
599.941	17.78
600.134	17.94
600.326	17.93
600.519	17.76
600.712	17.79
600.905	17.67
601.098	17.69
601.291	17.61
601.483	17.54
601.676	17.45
601.869	17.29
602.062	17.01
602.255	16.67
602.447	16.92
602.64	17.03
602.833	17.24
603.025	17.31
603.218	17.41
603.411	17.53
603.603	17.59
603.796	17.59
603.989	17.77
604.181	18
604.374	18.19
604.566	17.94
604.759	17.81
604.951	17.72
605.144	17.64
605.336	17.71
605.529	17.73
605.721	17.84
605.914	17.99
606.106	17.91
606.299	17.92
606.491	17.82
606.683	17.85
606.876	18.02
607.068	17.84
607.26	18.12
607.453	18.02
607.645	18.04
607.837	17.91
608.03	17.98
608.222	18.04
608.414	18.26
608.606	18.46
608.799	18.81
608.991	18.75
609.183	18.87
609.375	18.74
609.567	18.68
609.759	18.4
609.952	18.53
610.144	18.3
610.336	18.33
610.528	17.95
610.72	17.99
610.912	17.92
611.104	17.87
611.296	17.77
611.488	17.93
611.68	17.86
611.872	18.21
612.064	18.24
612.256	18.39
612.448	18.38
612.64	18.37
612.832	18.14
613.023	18.06
613.215	18.26
613.407	18.41
613.599	18.26
613.791	18.4
613.983	18.4
614.174	18.4
614.366	18.44
614.558	18.29
614.75	18.59
614.941	18.7
615.133	18.94
615.325	18.66
615.516	18.56
615.708	18.67
615.9	18.52
616.091	18.7
616.283	18.36
616.475	18.22
616.666	18.25
616.858	18.05
617.049	17.99
617.241	17.66
617.432	17.89
617.624	17.88
617.815	17.89
618.007	18.21
618.198	18.13
618.39	18.3
618.581	18.45
618.773	18.64
618.964	18.75
619.155	18.85
619.347	18.83
619.538	18.99
619.729	19.2
619.921	19.22
620.112	19.09
620.303	19.33
620.494	19.47
620.686	19.57
620.877	19.33
621.068	19.59
621.259	19.6
621.451	19.76
621.642	19.85
621.833	19.47
622.024	19.3
622.215	19.31
622.406	19.12
622.597	18.97
622.788	19.07
622.98	19.31
623.171	19.04
623.362	18.87
623.553	18.85
623.744	18.82
623.935	18.96
624.126	19.11
624.317	19.2
624.508	18.89
624.698	19.15
624.889	18.91
625.08	19.01
625.271	19.05
625.462	19.28
625.653	19.24
625.844	18.87
626.034	18.92
626.225	18.82
626.416	18.64
626.607	18.95
626.798	18.9
626.988	18.87
627.179	18.86
627.37	18.89
627.56	18.91
627.751	19.04
627.942	19.25
628.132	19.11
628.323	19.28
628.514	19.51
628.704	19.44
628.895	18.99
629.085	19.24
629.276	19.06
629.466	19.12
629.657	19.17
629.847	18.98
630.038	18.55
630.228	18.85
630.419	18.54
630.609	18.68
630.8	18.68
630.99	19.19
631.181	18.78
631.371	18.93
631.561	18.91
631.752	18.89
631.942	18.83
632.132	19.4
632.323	19.18
632.513	19.44
632.703	19.26
632.893	19.02
633.084	18.87
633.274	19.15
633.464	19.25
633.654	19.07
633.844	18.82
634.034	19
634.225	18.91
634.415	19.19
634.605	18.91
634.795	18.76
634.985	19.29
635.175	19.44
635.365	19.44
635.555	19.19
635.745	19.49
635.935	19.72
636.125	19.62
636.315	19.49
636.505	19.39
636.695	19.63
636.885	19.54
637.075	18.96
637.265	18.92
637.455	19.16
637.644	19.48
637.834	19.6
638.024	19.49
638.214	19.57
638.404	19.16
638.593	19.13
638.783	19.19
638.973	19.15
639.163	19.66
639.352	19.25
639.542	18.75
639.732	18.32
639.921	18.04
640.111	17.78
640.301	17.98
640.49	18.71
640.68	18.8
640.87	18.89
641.059	18.94
641.249	18.49
641.438	18.9
641.628	18.9
641.817	19.45
642.007	19.21
642.196	19.22
642.386	19
642.575	18.56
642.764	18.37
642.954	18.16
643.143	18.32
643.333	18.32
643.522	17.96
643.711	18
643.901	17.59
644.09	18.04
644.279	18.48
644.469	18.53
644.658	18.75
644.847	18.77
645.036	18.67
645.226	19
645.415	19.86
645.604	20.17
645.793	20.39
645.982	20.4
646.171	20.3
646.361	20.39
646.55	20.43
646.739	20.68
646.928	20.87
647.117	21.01
647.306	20.54
647.495	20.06
647.684	20.5
647.873	20.41
648.062	20.37
648.251	20.41
648.44	20.02
648.629	19.98
648.818	19.77
649.007	19.89
649.196	20.09
649.384	20.53
649.573	20.33
649.762	19.69
649.951	19.67
650.14	19.74
650.328	20.2
650.517	20.57
650.706	20.79
650.895	21.07
651.083	21.01
651.272	20.73
651.461	20.22
651.65	20.1
651.838	20.3
652.027	20.47
652.216	21.04
652.404	20.19
652.593	20.34
652.781	20.33
652.97	20.17
653.158	19.87
653.347	19.74
653.535	20.19
653.724	20.69
653.912	20.7
654.101	20.45
654.289	20.32
654.478	20.38
654.666	20.18
654.855	20.13
655.043	19.95
655.231	19.91
655.42	20.36
655.608	19.98
655.796	19.92
655.985	19.63
656.173	19.52
656.361	19.41
656.55	19.99
656.738	20.08
656.926	19.98
657.114	19.85
657.302	20.04
657.491	19.97
657.679	20.15
657.867	19.63
658.055	19.82
658.243	20.29
658.431	20.11
658.619	19.96
658.807	20.02
658.996	20.1
659.184	20.39
659.372	20.63
659.56	20.44
659.748	20.35
659.936	20.49
660.124	20.53
660.311	20.32
660.499	20.35
660.687	20.33
660.875	20.16
661.063	20.3
661.251	20.48
661.439	20.26
661.627	20.54
661.814	21.11
662.002	21.68
662.19	21.52
662.378	21.84
662.565	21.66
662.753	21.55
662.941	21.73
663.129	21.29
663.316	20.6
663.504	20.74
663.692	20.49
663.879	20.29
664.067	20.01
664.254	20.38
664.442	20.06
664.63	20.37
664.817	20.73
665.005	20.42
665.192	20.82
665.38	20.9
665.567	20.66
665.755	20.95
665.942	21
666.13	20.94
666.317	20.59
666.504	20.44
666.692	20.37
666.879	19.71
667.067	19.97
667.254	19.97
667.441	20.26
667.629	20.72
667.816	20.27
668.003	20.38
668.19	20.21
668.378	20.65
668.565	21
668.752	21.17
668.939	21.46
669.127	21.22
669.314	21.02
669.501	21.02
669.688	20.9
669.875	21.11
670.062	20.27
670.249	20.66
670.436	20.82
670.623	20.74
670.81	20.76
670.997	20.98
671.184	20.57
671.371	20.49
671.558	20.14
671.745	20.24
671.932	20.71
672.119	21.5
672.306	20.95
672.493	20.51
672.68	20.53
672.867	20.41
673.054	19.89
673.24	20.34
673.427	20.8
673.614	21.41
673.801	21.59
673.988	21.04
674.174	21.04
674.361	21.15
674.548	21.32
674.734	21.19
674.921	21.37
675.108	21.65
675.294	21.5
675.481	21.1
675.668	20.45
675.854	20.29
676.041	20.61
676.227	19.77
676.414	20.16
676.601	20
676.787	20.3
676.974	20.02
677.16	19.81
677.347	20.38
677.533	20.7
677.719	21.14
677.906	20.88
678.092	20.56
678.279	21.28
678.465	21.1
678.651	21.1
678.838	20.98
679.024	21.02
679.21	21.45
679.397	21.06
679.583	20.66
679.769	20.42
679.955	20.05
680.142	20.1
680.328	19.87
680.514	20.14
680.7	20.6
680.886	20.59
681.073	20.71
681.259	20.8
681.445	21.05
681.631	20.87
681.817	21.16
682.003	21.48
682.189	21.53
682.375	21.59
682.561	21.7
682.747	21.25
682.933	21.34
683.119	21.4
683.305	21.32
683.491	21.22
683.677	21.95
683.863	21.78
684.049	21.57
684.235	21.54
684.42	21.76
684.606	21.15
684.792	21.2
684.978	21.19
685.164	21.4
685.349	21.05
685.535	21.35
685.721	21.14
685.907	21.23
686.092	21.65
686.278	22.02
686.464	21.86
686.649	21.63
686.835	21.59
687.021	21.82
687.206	21.92
687.392	22.18
687.577	22.29
687.763	22.12
687.948	22.39
688.134	22.69
688.319	22.06
688.505	22.44
688.69	22.83
688.876	22.97
689.061	22.48
689.247	22.03
689.432	22.07
689.618	21.54
689.803	21.45
689.988	20.84
690.174	20.23
690.359	21.31
690.544	21.27
690.73	21.54
690.915	21.73
691.1	22.13
691.285	22.59
691.471	22.69
691.656	22.87
691.841	22.77
692.026	23.37
692.211	23.47
692.396	23.25
692.582	23.01
692.767	23.06
692.952	22.94
693.137	22.35
693.322	21.8
693.507	20.99
693.692	20.92
693.877	21.22
694.062	21.24
694.247	21.38
694.432	21.1
694.617	20.81
694.802	20.2
694.987	20.3
695.172	20.75
695.357	20.97
695.541	21.62
695.726	21.77
695.911	22.05
696.096	22.3
696.281	22.74
696.466	22.44
696.65	22.62
696.835	22.39
697.02	22.57
697.204	22.6
697.389	22.88
697.574	22.78
697.759	22.44
697.943	22.43
698.128	22.55
698.312	22.5
698.497	22.67
698.682	22.95
698.866	23.34
699.051	22.77
699.235	22.59
699.42	22.4
699.604	22.23
699.789	22.2
699.973	22.25
700.158	21.61
700.342	21.51
700.527	21.67
700.711	21.13
700.895	20.94
701.08	21.47
701.264	20.98
701.448	21.42
701.633	22.01
701.817	22.35
702.001	22.1
702.186	22.88
702.37	22.54
702.554	22.36
702.738	23.02
702.923	23.36
703.107	23.36
703.291	23.99
703.475	23.1
703.659	22.94
703.843	23.46
704.027	23.13
704.212	23.07
704.396	22.49
704.58	22.49
704.764	22.75
704.948	22.79
705.132	23.03
705.316	23.54
705.5	23.33
705.684	23.31
705.868	22.96
706.052	22.99
706.235	22.8
706.419	23.23
706.603	23.57
706.787	22.68
706.971	22.38
707.155	21.65
707.339	21.5
707.522	21.63
707.706	21.22
707.89	20.77
708.074	21.21
708.257	21.4
708.441	21.95
708.625	20.88
708.808	20.81
708.992	20.78
709.176	21.46
709.359	21.7
709.543	22.02
709.727	21.65
709.91	21.99
710.094	22.18
710.277	21.6
710.461	20.44
710.644	20.59
710.828	20.75
711.011	21.03
711.195	20.22
711.378	19.31
711.562	19.13
711.745	20.2
711.928	20
712.112	20.15
712.295	20.68
712.478	21.18
712.662	20.76
712.845	21.14
713.028	20.79
713.212	20.89
713.395	21.49
713.578	21.73
713.761	21.56
713.945	21.46
714.128	21.45
714.311	20.67
714.494	20.84
714.677	21.65
714.86	22.43
715.043	22.86
715.227	23.66
715.41	23.76
715.593	23.74
715.776	23.61
715.959	23.86
716.142	23.48
716.325	24.07
716.508	24.21
716.691	24.63
716.874	24.09
717.057	24.01
717.239	24.09
717.422	24.04
717.605	24.16
717.788	24.34
717.971	23.95
718.154	24.33
718.337	24.29
718.519	23.67
718.702	23.87
718.885	23.29
719.068	22.91
719.25	23.44
719.433	23.46
719.616	21.9
719.798	22.38
719.981	21.9
720.164	21.19
720.346	20.76
720.529	22.1
720.712	22.51
720.894	22.61
721.077	23.13
721.259	20.73
721.442	21.25
721.624	22.91
721.807	22.27
721.989	23.01
722.172	23.15
722.354	22.93
722.537	22.83
722.719	21.88
722.901	21.32
723.084	20.66
723.266	22.41
723.448	22.1
723.631	22.38
723.813	21.38
723.995	22.17
724.178	23.1
724.36	24.49
724.542	23.37
724.724	24.15
724.907	24.55
725.089	24.95
725.271	24.94
725.453	24.72
725.635	24.48
725.817	24.85
725.999	24.46
726.181	22.92
726.364	22.58
726.546	23.15
726.728	22.48
726.91	21.56
727.092	21.81
727.274	21.25
727.456	21.68
727.638	21.13
727.819	22.22
728.001	22
728.183	22.09
728.365	21.3
728.547	21.29
728.729	20.57
728.911	21.13
729.093	20.58
729.274	20.59
729.456	19.88
729.638	19.15
729.82	18.92
730.001	19.01
730.183	20.12
730.365	19.45
730.546	19.97
730.728	20.19
730.91	20.8
731.091	21.65
731.273	22
731.455	22.46
731.636	23.17
731.818	23.31
731.999	23.36
732.181	22.35
732.362	23.75
732.544	23.26
732.725	23.95
732.907	24.23
733.088	24.57
733.27	24.94
733.451	25.45
733.633	25.26
733.814	25.1
733.995	25.34
734.177	25.62
734.358	25.73
734.539	25.54
734.721	25.99
734.902	25.8
735.083	24.59
735.264	23.82
735.446	23.22
735.627	25.11
735.808	24.8
735.989	24.04
736.17	25.15
736.351	24.79
736.533	24.77
736.714	23.64
736.895	23.55
737.076	24.83
737.257	24.57
737.438	24.04
737.619	22.08
737.8	22.94
737.981	21.86
738.162	21.61
738.343	21.83
738.524	22.35
738.705	21.76
738.886	21.18
739.067	19.74
739.247	21.36
739.428	21.73
739.609	22.79
739.79	22.29
739.971	24.15
740.151	22.88
740.332	22.11
740.513	21.46
740.694	22.8
740.874	23.31
741.055	23.93
741.236	22.96
741.417	23.83
741.597	24.03
741.778	22.88
741.958	22.48
742.139	24.52
742.32	25.68
742.5	27.96
742.681	27.79
742.861	27.58
743.042	27.02
743.222	26.92
743.403	25.06
743.583	24.69
743.764	26.56
743.944	28.38
744.124	26.82
744.305	24.5
744.485	23.85
744.666	23.27
744.846	24.26
745.026	26.21
745.207	25.68
745.387	25.87
745.567	25.78
745.747	24.74
745.928	23.47
746.108	23.68
746.288	25.09
746.468	23.76
746.648	24.03
746.829	22.82
747.009	21.32
747.189	22.43
747.369	23.26
747.549	22.42
747.729	23.36
747.909	21.81
748.089	22.95
748.269	23.03
748.449	23.12
748.629	22.98
748.809	24.27
748.989	24.74
749.169	24.34
749.349	24.03
749.529	25.59
749.709	24.63
749.889	25.18
750.068	24.01
750.248	24.23
750.428	23.1
750.608	23.03
750.788	22.07
750.967	21.39
751.147	20.73
751.327	20.59
751.507	20.03
751.686	19.24
751.866	19.77
752.046	19.64
752.225	20.41
752.405	22.01
752.585	20.2
752.764	19.7
752.944	19.98
753.123	20.14
753.303	20.62
753.482	20.41
753.662	22.08
753.841	22.53
754.021	22.34
754.2	21.77
754.38	21.6
754.559	23.29
754.739	23.85
754.918	25.18
755.097	25.45
755.277	25.42
755.456	24.97
755.635	23.42
755.815	22.78
755.994	24.05
756.173	23.76
756.352	22.99
756.532	22.74
756.711	23.34
756.89	21.97
757.069	21.52
757.248	21.47
757.427	21.51
757.607	23.02
757.786	23.13
757.965	21.41
758.144	21.94
758.323	23.4
758.502	23.52
758.681	21.81
758.86	22.86
759.039	23.67
759.218	22.19
759.397	22.41
759.576	22.4
759.755	23.54
759.934	24.88
760.113	23.29
760.291	22.66
760.47	23.78
760.649	26.37
760.828	25.63
761.007	25.66
761.186	26.84
761.364	26.46
761.543	26.77
761.722	25.53
761.901	25.86
762.079	27.71
762.258	27.28
762.437	27
762.615	25.84
762.794	24.95
762.972	24.02
763.151	23.93
763.33	24.12
763.508	23.29
763.687	23.19
763.865	22.8
764.044	22.96
764.222	23.29
764.401	22.86
764.579	23.17
764.758	24.81
764.936	26.19
765.114	26.12
765.293	26.55
765.471	26.46
765.65	26.89
765.828	27.22
766.006	26.06
766.184	26.75
766.363	26.62
766.541	25.96
766.719	25.7
766.898	24.66
767.076	25.62
767.254	25.02
767.432	24.33
767.61	24.21
767.788	24.15
767.967	24.37
768.145	23.78
768.323	24.74
768.501	25.29
768.679	24.88
768.857	25.25
769.035	24.48
769.213	24.6
769.391	25.88
769.569	26.1
769.747	25.14
769.925	24.95
770.103	24.12
770.281	22.89
770.459	21.72
770.636	21.08
770.814	22.25
770.992	23.48
771.17	24.02
771.348	24.2
771.525	25.04
771.703	26.01
771.881	27.78
772.059	27.62
772.236	27.47
772.414	29.05
772.592	29.85
772.769	29.77
772.947	29.18
773.125	29.66
773.302	28.52
773.48	26.68
773.657	25.34
773.835	22.95
774.013	24.87
774.19	25.91
774.368	25.04
774.545	23.48
774.723	21.39
774.9	20.57
775.077	20.18
775.255	21.88
775.432	24.1
775.61	25.51
775.787	25.7
775.964	25.47
776.142	23.18
776.319	25.05
776.496	24.97
776.674	24.35
776.851	26.15
777.028	26.21
777.205	25.6
777.382	24.59
777.56	23.8
777.737	25.13
777.914	24.42
778.091	28.43
778.268	28.34
778.445	28.56
778.622	29
778.8	27.82
778.977	27.27
779.154	26.69
779.331	26.08
779.508	26.36
779.685	26.64
779.862	26.83
780.038	25.78
780.215	24.92
780.392	24.97
780.569	25.06
780.746	25.72
780.923	27.72
781.1	28.87
781.277	30.33
781.453	32.07
781.63	31.88
781.807	32.71
781.984	30.99
782.16	32.28
782.337	33.27
782.514	34.63
782.691	33.85
782.867	34.15
783.044	34.17
783.221	33.39
783.397	31.67
783.574	32.37
783.75	30.31
783.927	31.15
784.103	28.59
784.28	27.9
784.456	25.94
784.633	25.87
784.809	24.81
784.986	24.45
785.162	24.62
785.339	24.75
785.515	23.92
785.692	24.29
785.868	23.6
786.044	24.39
786.221	23.58
786.397	24.8
786.573	26.06
786.749	25.93
786.926	27.74
787.102	29.66
787.278	31.02
787.454	28.84
787.631	29.01
787.807	26.95
787.983	26.42
788.159	26.01
788.335	26.48
788.511	24.58
788.687	24.33
788.863	23.3
789.039	20.72
789.216	19.57
789.392	21.32
789.568	22.69
789.744	25.36
789.919	24.1
790.095	26.44
790.271	27.23
790.447	28.08
790.623	28.56
790.799	27.98
790.975	29.4
791.151	30.05
791.327	28.12
791.502	26.27
791.678	28.2
791.854	28.08
792.03	28.7
792.205	29.9
792.381	30.81
792.557	31.83
792.733	31.99
792.908	31.23
793.084	32.34
793.259	34.26
793.435	34.4
793.611	31.25
793.786	34.49
793.962	31.14
794.137	27.52
794.313	24.89
794.488	22.26
794.664	22.93
794.839	20.75
795.015	21.15
795.19	21.14
795.366	22.86
795.541	26.39
795.716	25.49
795.892	27.92
796.067	29.34
796.242	32.68
796.418	32.09
796.593	32.37
796.768	35.58
796.944	35.27
797.119	35.34
797.294	33.92
797.469	32.35
797.644	31.27
797.82	29.72
797.995	28.01
798.17	26.21
798.345	27.26
798.52	27.14
798.695	24.39
798.87	23.55
799.045	22.83
799.22	21.43
799.395	16.15
799.57	18.71
799.745	20.43
799.92	20.89
800.095	19.82
800.27	20.09
800.445	18.72
800.62	20.43
800.795	19.9
800.97	17.57
801.145	20.09
801.319	28.77
801.494	26.32
801.669	24.42
801.844	25.49
802.018	27.03
802.193	27.22
802.368	25.62
802.543	26.96
802.717	31.03
802.892	35.06
803.067	34.45
803.241	30.55
803.416	31.37
803.59	32.61
803.765	34.5
803.94	30.83
804.114	31.53
804.289	33.77
804.463	32.65
804.638	25.41
804.812	23.73
804.986	22.01
805.161	23.32
805.335	22.14
805.51	21.61
805.684	20.43
805.858	25.84
806.033	24.83
806.207	26.18
806.381	26.68
806.556	31.06
806.73	31.57
806.904	32.33
807.078	31.99
807.253	28.92
807.427	30.45
807.601	29.89
807.775	29.34
807.949	32.38
808.123	29.36
808.298	26.04
808.472	23.84
808.646	25.5
808.82	25.93
808.994	26.16
809.168	30.7
809.342	32.21
809.516	36.43
809.69	34.81
809.864	36.29
810.038	34.55
810.212	36.34
810.385	38.39
810.559	37.21
810.733	38.39
810.907	38.49
811.081	40.09
811.255	39.02
811.428	35.69
811.602	36.35
811.776	30.64
811.95	33.39
812.123	33.01
812.297	30.87
812.471	30.96
812.644	31.79
812.818	32
812.992	30.67
813.165	29.25
813.339	25.45
813.512	23.79
813.686	27.63
813.86	30.18
814.033	30.84
814.207	34.83
814.38	34.95
814.554	31.54
814.727	28.84
814.9	23.65
815.074	20.7
815.247	24.87
815.421	27.16
815.594	26.91
815.767	21.44
815.941	23.19
816.114	18.73
816.287	16.39
816.46	17.48
816.634	20.59
816.807	24.34
816.98	26.9
817.153	26.97
817.327	26.22
817.5	21.83
817.673	23.48
817.846	23.68
818.019	27.41
818.192	25.04
818.365	26.65
818.538	26.96
818.711	24.02
818.884	22.01
819.057	21.32
819.23	19.55
819.403	25.58
819.576	25.8
819.749	25.87
819.922	24.84
820.095	30.01
820.268	31.12
820.441	31.14
820.614	32.19
820.786	32.49
820.959	32.87
821.132	33.67
821.305	31.04
821.477	30.57
821.65	28.99
821.823	27.33
821.996	26.66
822.168	26.27
822.341	26.21
822.514	26.22
822.686	26.43
822.859	25.76
823.031	25.41
823.204	25.35
823.376	25.35
823.549	25.94
823.722	26.37
823.894	26.6
824.067	26.46
824.239	26.04
824.411	25.58
824.584	25.7
824.756	24.44
824.929	24.64
825.101	24.84
825.273	24.8
825.446	25.57
825.618	26.03
825.79	25.23
825.963	24.47
826.135	23.61
826.307	24.13
826.479	22.99
826.652	25.3
826.824	25.75
826.996	26.04
827.168	27.01
827.34	25.99
827.512	25.58
827.684	26.02
827.856	26.26
828.029	26.36
828.201	26.27
828.373	27.53
828.545	28.33
828.717	26.74
828.889	28.4
829.061	26.84
829.232	26.59
829.404	26.05
829.576	26.05
829.748	26.17
829.92	28.13
830.092	28.68
830.264	28.69
830.436	27.69
830.607	25.92
830.779	21.58
830.951	20.47
831.123	16.95
831.294	19.52
831.466	19.6
831.638	20.21
831.809	21.66
831.981	23.89
832.153	23.24
832.324	23.39
832.496	24.74
832.667	26.66
832.839	28.56
833.011	29.12
833.182	25.55
833.354	26.19
833.525	26.65
833.697	27.42
833.868	26.15
834.039	27.05
834.211	28.07
834.382	29.88
834.554	29.15
834.725	30.1
834.896	33.02
835.068	33.73
835.239	31.24
835.41	32.04
835.581	30.67
835.753	31.3
835.924	32.91
836.095	32.89
836.266	31.61
836.438	33.25
836.609	33.15
836.78	33.92
836.951	34.09
837.122	33
837.293	33.09
837.464	32.19
837.635	32.81
837.806	28.33
837.977	25.1
838.148	30
838.319	26.3
838.49	22.9
838.661	16.16
838.832	19.91
839.003	27.15
839.174	24.96
839.345	26.96
839.516	28.59
839.687	29.84
839.857	33.3
840.028	36.27
840.199	40.11
840.37	39.14
840.54	38.36
840.711	37.72
840.882	32.97
841.053	34.97
841.223	34.9
841.394	30.46
841.564	23.96
841.735	19.9
841.906	13.3
842.076	10.71
842.247	16.04
842.417	21.92
842.588	19.18
842.758	21.56
842.929	23.19
843.099	24.47
843.27	18.48
843.44	29.66
843.611	33.79
843.781	34.21
843.951	33.36
844.122	34.21
844.292	35.58
844.462	35.07
844.633	35.25
844.803	33.43
844.973	32.69
845.144	35.86
845.314	34.22
845.484	36.29
845.654	34.41
845.824	35.76
845.995	35.04
846.165	29.71
846.335	35.2
846.505	44.27
846.675	39.62
846.845	46.06
847.015	55.23
847.185	45.73
847.355	39.71
847.525	43.97
847.695	46.22
847.865	47.31
848.035	51.89
848.205	49.06
848.375	41.75
848.545	44.19
848.715	37.88
848.884	27.89
849.054	31.88
849.224	30.79
849.394	27.26
849.564	38.28
849.733	39.31
849.903	37.01
850.073	40.23
850.243	36.98
850.412	36.98
850.582	34.37
850.752	36.96
850.921	46.67
851.091	54.01
851.26	54.57
851.43	33.76
851.599	27.24
851.769	28.18
851.939	31.68
852.108	35.11
852.278	35.64
852.447	46.39
852.616	59.32
852.786	44.84
852.955	42.37
853.125	43.86
853.294	61.71
853.463	72.7
853.633	76.04
853.802	80.37
853.971	81.42
854.141	65.93
854.31	65.78
854.479	51.61
854.648	53.43
854.818	49.26
854.987	34.54
855.156	33.1
855.325	37.3
855.494	36.48
855.663	30.73
855.832	30.34
856.001	37.68
856.171	36.96
856.34	42.91
856.509	45.35
856.678	47.24
856.847	59.75
857.016	62.01
857.185	65.09
857.353	55.49
857.522	61.92
857.691	59.69
857.86	54.13
858.029	49.55
858.198	54.76
858.367	53.97
858.535	48.02
858.704	43.88
858.873	39.02
859.042	26.67
859.21	35.77
859.379	27.02
859.548	39.67
859.717	41.37
859.885	45.54
860.054	39.7
860.222	40.28
860.391	42.81
860.56	52.89
860.728	53.62
860.897	58.43
861.065	55.23
861.234	60.98
861.402	48.19
861.571	51.91
861.739	52.56
861.908	39.26
862.076	47.62
862.244	61.36
862.413	57.72
862.581	57.56
862.749	51.36
862.918	63.9
863.086	63.9
863.254	65.41
863.423	66.81
863.591	45.07
863.759	58.6
863.927	52.42
864.096	50.73
864.264	33.59
864.432	36.89
864.6	48.94
864.768	38.87
864.936	39.18
865.104	56.46
865.272	42.02
865.44	94.27
865.608	78.32
865.776	89.39
865.944	80.75
866.112	81.57
866.28	87.02
866.448	100.25
866.616	86.8
866.784	87.17
866.952	95.09
867.12	101.65
867.288	83.69
867.455	98.97
867.623	95.19
867.791	100.64
867.959	139.73
868.127	124.67
868.294	98.93
868.462	103.87
868.63	123.95
868.797	111.21
868.965	134.46
869.133	181.64
869.3	170.93
869.468	151.49
869.636	159.6
869.803	133.86
869.971	107.13
870.138	143.63
870.306	180.37
870.473	114.66
870.641	102.92
870.808	84.91
870.975	79.14
871.143	90.27
871.31	78.31
871.478	78.57
871.645	68.4
871.812	71.45
871.98	58.1
872.147	52.86
872.314	51.26
872.482	45.87
872.649	55.15
872.816	40.88
872.983	40.4
873.15	43.64
873.318	34.26
873.485	34.7
873.652	38.46
873.819	37.19
873.986	45.47
874.153	61.63
874.32	68.85
874.487	49.68
874.654	40.93
874.821	24.18
874.988	7.61
875.155	28.06
875.322	30.27
875.489	19.89
875.656	31.24
875.823	14.32
875.99	5.77
876.157	20.03
876.324	27.76
876.49	37.34
876.657	36.46
876.824	51.3
876.991	56.91
877.157	62.02
877.324	65.05
877.491	62.94
877.658	72.2
877.824	71.46
877.991	67.06
878.157	69.23
878.324	81.28
878.491	94.31
878.657	74.95
878.824	75.22
878.99	73.28
879.157	81.64
879.323	82.38
879.49	71.82
879.656	69.52
879.823	63.8
879.989	67.69
880.156	76.51
880.322	73.98
880.488	73.9
880.655	49.8
880.821	39.6
880.987	38.99
881.154	22.6
881.32	21.32
881.486	9.28
881.652	14.25
881.819	15.55
881.985	9.73
882.151	10.68
882.317	16.35
882.483	25.74
882.649	30.63
882.816	28.21
882.982	30.52
883.148	31.41
883.314	34.31
883.48	36.37
883.646	39.01
883.812	38.51
883.978	37.73
884.144	35.57
884.31	33.87
884.476	32.61
884.642	32.48
884.807	33.95
884.973	33.53
885.139	34.52
885.305	34.65
885.471	29.5
885.637	33.23
885.802	35.78
885.968	40.5
886.134	42
886.3	45.03
886.465	48.93
886.631	49.52
886.797	48.65
886.962	48.3
887.128	45.56
887.293	50.08
887.459	43.52
887.625	44.6
887.79	43.63
887.956	52.87
888.121	50.14
888.287	51.31
888.452	51.15
888.618	57.41
888.783	60.6
