Data from 2938048_Reflection_1.txt Node
Date: Sun Jul 12 14:20:27 EDT 2015
User: robert
Spectrometer: USB4E03001
Autoset integration time: false
Trigger mode: 4
Integration Time (sec): 1.000000E-1
Scans to average: 10
Electric dark correction enabled: true
Nonlinearity correction enabled: false
Boxcar width: 5
Stray light correction enabled: false
XAxis mode: Wavelengths
Stop averaging: false
Number of Pixels in Spectrum: 3648
>>>>>Begin Spectral Data<<<<<
177.566	210.79
177.785	-296.83
178.005	12.46
178.225	10.65
178.445	115.75
178.665	452.6
178.885	-712.96
179.105	984.42
179.324	-18.32
179.544	44.57
179.764	78.7
179.984	163.35
180.204	100.09
180.423	106.03
180.643	95.66
180.863	98.12
181.083	81.4
181.302	89
181.522	83.49
181.742	47.23
181.961	64.99
182.181	83.46
182.401	76.22
182.621	143.5
182.84	72.15
183.06	74.33
183.279	-7.62
183.499	-70.17
183.719	390.96
183.938	4944.44
184.158	-204.85
184.377	762.12
184.597	270.17
184.816	424.37
185.036	-2071.85
185.256	-417.46
185.475	-181.28
185.695	-112.75
185.914	-83.92
186.134	-126.7
186.353	-161.21
186.572	-308.12
186.792	-34.64
187.011	15.48
187.231	17.68
187.45	165.27
187.67	206.72
187.889	541.84
188.108	454.01
188.328	215.17
188.547	104.77
188.766	76.69
188.986	104.64
189.205	93.37
189.424	116.1
189.644	121.82
189.863	91.7
190.082	63.07
190.302	64.35
190.521	47.79
190.74	-43.91
190.959	-4.97
191.178	56.46
191.398	-2.19
191.617	-2.88
191.836	27.33
192.055	-5.68
192.274	-54.99
192.494	7.44
192.713	-4.61
192.932	-3.09
193.151	37.9
193.37	27.31
193.589	9.42
193.808	-13.27
194.027	-37.01
194.246	-40.71
194.465	-18.84
194.685	16.42
194.904	-36.46
195.123	-78.82
195.342	-1403.05
195.561	-353.83
195.78	9.45
195.999	23.92
196.218	80.77
196.436	111.19
196.655	71.95
196.874	48.61
197.093	11.7
197.312	19.01
197.531	20.63
197.75	19.49
197.969	4.12
198.188	-11.4
198.407	20.92
198.625	-29.7
198.844	-32.49
199.063	-109.71
199.282	-351.34
199.501	-752.86
199.719	308.58
199.938	-560.73
200.157	770
200.376	-61.2
200.594	-483.4
200.813	-668.79
201.032	245
201.251	284.29
201.469	443.65
201.688	-3830.12
201.907	-746.67
202.125	-261.39
202.344	-663.29
202.563	-111.51
202.781	-88.2
203	-69.76
203.218	-75.91
203.437	-38.07
203.656	-60.4
203.874	-40.14
204.093	-40.43
204.311	-22.93
204.53	-44.22
204.748	-29.59
204.967	-117.43
205.185	-87.44
205.404	-31.18
205.622	-37.48
205.841	-28.35
206.059	35.12
206.278	17.14
206.496	21.96
206.715	43.82
206.933	27.35
207.151	-56.68
207.37	-87.2
207.588	-831.17
207.806	-688.13
208.025	-65.78
208.243	-394.02
208.461	387.58
208.68	384.67
208.898	646.02
209.116	412.62
209.335	309.93
209.553	203.85
209.771	414.25
209.989	-1050
210.208	451.55
210.426	373.1
210.644	304.08
210.862	3434.7
211.081	-2033.88
211.299	-378.54
211.517	-233.74
211.735	-202.67
211.953	-116.23
212.171	-127.17
212.39	-116.38
212.608	-43.04
212.826	-42.26
213.044	-29.76
213.262	-52.04
213.48	-33.75
213.698	-28.2
213.916	-6.51
214.134	5.6
214.352	21.66
214.57	24.18
214.788	12.98
215.006	-66.41
215.224	-68.27
215.442	-87.25
215.66	-43.64
215.878	-182.21
216.096	-364.33
216.314	-118.02
216.532	-94.04
216.75	-194.82
216.968	-122.09
217.185	-149.19
217.403	-42.23
217.621	-28.88
217.839	20.18
218.057	39.58
218.275	45.85
218.492	27.22
218.71	12.52
218.928	-7.97
219.146	20.36
219.363	35.13
219.581	32.27
219.799	28.41
220.017	13.75
220.234	-18.37
220.452	-35.09
220.67	-3.25
220.887	18.99
221.105	8.62
221.323	52.74
221.54	28.36
221.758	12.94
221.976	14.23
222.193	-0.73
222.411	1.01
222.629	-12.05
222.846	-1.83
223.064	-6.57
223.281	-20.33
223.499	-24.11
223.716	-57.31
223.934	-70.9
224.151	-99.52
224.369	-83.8
224.586	-77.86
224.804	-76.81
225.021	-30.61
225.239	-40.99
225.456	-52.23
225.674	-37.34
225.891	-47.13
226.108	-36.38
226.326	-49.11
226.543	-29.97
226.76	-15.32
226.978	-8.03
227.195	-11.11
227.413	-18.35
227.63	-2.42
227.847	3.2
228.064	7.89
228.282	12.84
228.499	14.64
228.716	17.46
228.934	17.2
229.151	16.84
229.368	13.77
229.585	11.4
229.802	11.81
230.02	7.3
230.237	5.57
230.454	2.88
230.671	5.27
230.888	3.61
231.105	1.69
231.323	-3.87
231.54	-3.53
231.757	-2.06
231.974	8.17
232.191	10.23
232.408	14.31
232.625	19.25
232.842	25.16
233.059	14.84
233.276	11.75
233.493	11.6
233.71	19.99
233.927	18.35
234.144	22.93
234.361	24.43
234.578	19.99
234.795	20.82
235.012	13.75
235.229	9.43
235.446	16.37
235.663	20.77
235.879	18.69
236.096	18.32
236.313	6.21
236.53	5.32
236.747	-5.1
236.964	-4
237.181	-13.24
237.397	-8.75
237.614	-0.71
237.831	-7.13
238.048	-5.87
238.264	-2.21
238.481	-3.73
238.698	5.09
238.915	1.56
239.131	8.68
239.348	10.38
239.565	12.62
239.781	9.55
239.998	7.06
240.215	9.73
240.431	8.87
240.648	12.21
240.865	17.92
241.081	17.56
241.298	15.45
241.514	15.19
241.731	13.8
241.947	18.65
242.164	19.26
242.38	16.98
242.597	18.76
242.814	21.9
243.03	20.07
243.246	17.85
243.463	18.66
243.679	21.42
243.896	17.79
244.112	16.47
244.329	9.74
244.545	10.75
244.762	12.41
244.978	8.69
245.194	2.82
245.411	5.6
245.627	8.81
245.843	11.32
246.06	12.05
246.276	11.99
246.492	14.83
246.709	17.15
246.925	15.61
247.141	16.92
247.357	18
247.574	18.15
247.79	17.84
248.006	16.5
248.222	14.54
248.439	14.08
248.655	15.16
248.871	13.73
249.087	12.31
249.303	13.25
249.519	11.19
249.736	11.54
249.952	10.55
250.168	9.66
250.384	7.64
250.6	9.88
250.816	9.52
251.032	8.88
251.248	8.7
251.464	9.22
251.68	9.45
251.896	9.98
252.112	7.53
252.328	8.43
252.544	8.92
252.76	10.75
252.976	9.19
253.192	9.75
253.408	9.55
253.624	10.89
253.84	11.06
254.056	8.99
254.272	10.16
254.487	8.67
254.703	9.58
254.919	6.39
255.135	2.28
255.351	4.05
255.567	1.97
255.782	1.47
255.998	1.87
256.214	1.65
256.43	4.33
256.646	6.07
256.861	10.46
257.077	5.86
257.293	9.99
257.508	8.77
257.724	6.69
257.94	6.86
258.155	8.64
258.371	7.82
258.587	9.77
258.802	9.75
259.018	9.66
259.234	9.93
259.449	10.7
259.665	10.84
259.88	12.65
260.096	13.03
260.312	12.66
260.527	11.51
260.743	12.75
260.958	11.72
261.174	10.79
261.389	9.63
261.605	9.46
261.82	9.73
262.036	7.2
262.251	6.13
262.466	4.12
262.682	5.26
262.897	5.96
263.113	2.99
263.328	4.74
263.543	6.2
263.759	7.53
263.974	6.62
264.189	7.62
264.405	9.03
264.62	8.37
264.835	10.76
265.051	11.1
265.266	11.92
265.481	11.02
265.696	8.68
265.912	8.65
266.127	9.01
266.342	7.37
266.557	8.34
266.773	8.99
266.988	7.61
267.203	8.17
267.418	7.18
267.633	5.39
267.848	7.72
268.064	9.02
268.279	8.7
268.494	7.73
268.709	8.89
268.924	6.4
269.139	7.14
269.354	8.87
269.569	4.59
269.784	3
269.999	5.48
270.214	3.16
270.429	4.05
270.644	3.42
270.859	4.47
271.074	3.62
271.289	5.18
271.504	4.24
271.719	3.74
271.934	7.26
272.149	9.52
272.363	9.05
272.578	9.95
272.793	8.57
273.008	9.64
273.223	9.17
273.438	10.94
273.653	12.37
273.867	12.43
274.082	14.03
274.297	15.44
274.512	14.41
274.726	15.42
274.941	13.64
275.156	14.99
275.371	15.43
275.585	15.65
275.8	12.1
276.015	10.89
276.229	11.6
276.444	10.91
276.659	8.26
276.873	9.61
277.088	10.8
277.302	13.54
277.517	13.24
277.732	11.31
277.946	11.76
278.161	13.49
278.375	11.22
278.59	12.06
278.804	10.36
279.019	11.18
279.233	8.99
279.448	6.11
279.662	4.71
279.877	4.27
280.091	5.83
280.306	3.51
280.52	2.53
280.735	6.81
280.949	6.49
281.163	9.43
281.378	9.45
281.592	10.32
281.806	9.66
282.021	8.37
282.235	7.51
282.449	7.89
282.664	9.75
282.878	12.12
283.092	10.62
283.307	9.8
283.521	8.56
283.735	7.92
283.949	8.91
284.164	9.86
284.378	11.3
284.592	12.02
284.806	12.51
285.02	12.73
285.234	11.96
285.449	10.56
285.663	10.64
285.877	10.19
286.091	11.03
286.305	10.1
286.519	9.51
286.733	9.85
286.947	10.13
287.161	8.36
287.375	6.81
287.589	5.8
287.803	6.31
288.017	8.27
288.231	9.17
288.445	9.01
288.659	10.27
288.873	10.51
289.087	9.88
289.301	9.45
289.515	11.71
289.729	11.72
289.943	12.73
290.157	14.37
290.371	12.19
290.584	12.99
290.798	12.21
291.012	10.62
291.226	10.52
291.44	9.7
291.654	9.76
291.867	7.02
292.081	8.68
292.295	8.48
292.509	4.91
292.722	6.24
292.936	4.61
293.15	4.18
293.364	4.81
293.577	5.11
293.791	7.74
294.005	7.92
294.218	9.99
294.432	9.07
294.645	8
294.859	9.75
295.073	9.76
295.286	11.06
295.5	12.25
295.713	14.67
295.927	14.72
296.14	14.04
296.354	14.8
296.568	14.51
296.781	15.07
296.994	16.27
297.208	16.65
297.421	15.69
297.635	15.34
297.848	14.31
298.062	12.71
298.275	12.87
298.489	12.54
298.702	11.31
298.915	11.52
299.129	11.68
299.342	11.91
299.555	11.43
299.769	13.09
299.982	13.27
300.195	14.54
300.409	12.36
300.622	11.64
300.835	12.42
301.048	13.25
301.262	12.91
301.475	12.28
301.688	11.83
301.901	12.82
302.115	13.41
302.328	12.09
302.541	11.93
302.754	14.86
302.967	14.68
303.18	14.03
303.393	13.36
303.607	11.88
303.82	11.95
304.033	12.18
304.246	11.86
304.459	10.04
304.672	11.77
304.885	10.56
305.098	8.64
305.311	9.73
305.524	7.34
305.737	5.75
305.95	8.42
306.163	9.28
306.376	9.32
306.589	8.87
306.802	8.07
307.015	7.83
307.228	9.22
307.44	10.53
307.653	11.06
307.866	12.17
308.079	15.13
308.292	14.49
308.505	13.71
308.718	13.17
308.93	12.75
309.143	13.52
309.356	12.42
309.569	14.62
309.781	14.22
309.994	13.91
310.207	15.83
310.42	14.88
310.632	15.96
310.845	16.16
311.058	16.25
311.27	17.5
311.483	18.01
311.696	17.88
311.908	16.96
312.121	16.63
312.333	15.77
312.546	14.52
312.759	14.67
312.971	13.44
313.184	13.17
313.396	13.46
313.609	11.3
313.821	11.16
314.034	10.27
314.246	9.89
314.459	10.42
314.671	12.75
314.884	14.06
315.096	14.3
315.309	14.84
315.521	16.81
315.733	16.37
315.946	16.88
316.158	17.51
316.371	18.47
316.583	16.57
316.795	16.7
317.008	16.12
317.22	16.09
317.432	16.99
317.644	16.6
317.857	14.27
318.069	15.41
318.281	16.2
318.494	16.17
318.706	15.21
318.918	15.27
319.13	14.46
319.342	12.67
319.555	12.51
319.767	9.54
319.979	9.01
320.191	8.98
320.403	6.66
320.615	6.18
320.827	4.88
321.039	7.45
321.252	8.87
321.464	9.68
321.676	11.48
321.888	12.71
322.1	15.31
322.312	16.04
322.524	17.88
322.736	18.62
322.948	19.01
323.16	20.06
323.372	18.4
323.584	19.24
323.796	18.29
324.007	17.59
324.219	15.83
324.431	15.93
324.643	14.71
324.855	11.86
325.067	11.66
325.279	9.51
325.491	7.89
325.702	9.06
325.914	9.22
326.126	10.05
326.338	10.37
326.55	10.46
326.761	11.17
326.973	11.81
327.185	13.01
327.396	12.37
327.608	13.46
327.82	13.34
328.032	12.46
328.243	13.21
328.455	13.07
328.666	13.65
328.878	15.14
329.09	14.31
329.301	12.67
329.513	12.67
329.725	14.13
329.936	14.83
330.148	16
330.359	16.27
330.571	14.67
330.782	14.46
330.994	12.5
331.205	12.91
331.417	12.9
331.628	15.85
331.84	17.22
332.051	16.89
332.262	17.07
332.474	19.27
332.685	17.52
332.897	17.56
333.108	18.57
333.319	19.35
333.531	18.29
333.742	17.86
333.953	17.38
334.165	15.52
334.376	17.02
334.587	18
334.799	15.92
335.01	17.15
335.221	17.54
335.432	16.98
335.644	17.48
335.855	17.12
336.066	16.94
336.277	17.15
336.488	18.01
336.7	16.74
336.911	14.66
337.122	14.19
337.333	14.79
337.544	14.7
337.755	14.54
337.966	14.21
338.177	13.07
338.388	13.18
338.599	13.78
338.811	14.48
339.022	15.31
339.233	16.44
339.444	16.74
339.655	17.03
339.866	17.23
340.076	17.6
340.287	17
340.498	18.24
340.709	19.38
340.92	18.99
341.131	18.35
341.342	17.11
341.553	16.77
341.764	16.56
341.975	15.47
342.185	14.86
342.396	14.93
342.607	15.57
342.818	16.51
343.029	15.32
343.239	14.84
343.45	15.98
343.661	15.72
343.872	16.7
344.082	15.57
344.293	16.21
344.504	17.59
344.714	17.65
344.925	18.03
345.136	17.58
345.346	17.48
345.557	17.99
345.768	17.09
345.978	17.51
346.189	17.51
346.399	18.44
346.61	17.94
346.821	15.75
347.031	15.24
347.242	14.61
347.452	13.25
347.663	13.45
347.873	13.65
348.084	13.07
348.294	13.15
348.504	12.73
348.715	12.64
348.925	13.39
349.136	14.04
349.346	14.7
349.557	15.32
349.767	16.47
349.977	17.25
350.188	16.68
350.398	16.42
350.608	16.66
350.819	16.13
351.029	15.34
351.239	14.06
351.449	15.12
351.66	14.14
351.87	12.1
352.08	11.42
352.29	11.62
352.501	11.59
352.711	11.96
352.921	11.39
353.131	11.9
353.341	12.78
353.552	14.75
353.762	14.37
353.972	14.3
354.182	14.74
354.392	16.27
354.602	15.1
354.812	14.41
355.022	15.2
355.232	16.42
355.442	16.69
355.652	17.43
355.862	16.83
356.072	16.09
356.282	16.89
356.492	18.02
356.702	16.29
356.912	16.01
357.122	16.58
357.332	16.26
357.542	16.61
357.752	16.75
357.962	15.95
358.171	15.96
358.381	17.32
358.591	16.94
358.801	17.1
359.011	18.28
359.221	18.3
359.43	18.38
359.64	18.12
359.85	17.51
360.06	17.49
360.269	17.61
360.479	17.77
360.689	16.54
360.899	16.11
361.108	15.92
361.318	15.8
361.528	16.32
361.737	16.12
361.947	16.42
362.156	16.07
362.366	16.27
362.576	16.48
362.785	16.66
362.995	16.93
363.204	17.06
363.414	16.58
363.623	15.72
363.833	15.17
364.042	15.65
364.252	15.48
364.461	15.38
364.671	14.73
364.88	13.78
365.09	13.44
365.299	14.21
365.509	13.72
365.718	14.01
365.927	14.98
366.137	15.2
366.346	13.79
366.555	14.05
366.765	14.4
366.974	14.56
367.183	15.54
367.393	14.38
367.602	12.82
367.811	13.93
368.021	13.27
368.23	12.85
368.439	12.98
368.648	13.55
368.857	12.52
369.067	12.04
369.276	11.56
369.485	11.28
369.694	11.18
369.903	11.12
370.112	11.03
370.321	10.64
370.531	11.37
370.74	11.61
370.949	11.84
371.158	11.89
371.367	11.71
371.576	11.34
371.785	11.36
371.994	12.36
372.203	13.28
372.412	13.72
372.621	14.63
372.83	14.21
373.039	13.76
373.248	13.17
373.457	13.87
373.666	13.92
373.874	13.81
374.083	13.95
374.292	14.35
374.501	13.39
374.71	12.09
374.919	11.85
375.128	11.92
375.336	12.66
375.545	12.94
375.754	12.89
375.963	13.71
376.171	14
376.38	13.67
376.589	13.22
376.798	13.78
377.006	14.45
377.215	14.16
377.424	14.17
377.632	13.54
377.841	13.49
378.05	12.89
378.258	11.55
378.467	11.1
378.675	11.38
378.884	11.27
379.093	11.18
379.301	11.27
379.51	11.3
379.718	10.6
379.927	10.97
380.135	11.25
380.344	11.56
380.552	11.9
380.761	12.23
380.969	12.14
381.177	11.64
381.386	11.2
381.594	10.91
381.803	11.02
382.011	11.41
382.219	10.93
382.428	10.6
382.636	10.37
382.845	10.3
383.053	10.73
383.261	10.62
383.469	10.86
383.678	11.22
383.886	10.74
384.094	11.05
384.302	10.51
384.511	10.3
384.719	10.42
384.927	10.21
385.135	10.48
385.343	10.4
385.552	10.6
385.76	10.42
385.968	10.56
386.176	10.53
386.384	10.08
386.592	10.34
386.8	10.54
387.008	9.96
387.216	10.06
387.424	10.15
387.633	9.47
387.841	8.8
388.049	8.94
388.257	8.38
388.465	8.55
388.672	8.18
388.88	7.87
389.088	8.09
389.296	7.82
389.504	7.69
389.712	7.57
389.92	7.61
390.128	7.98
390.336	7.7
390.544	7.64
390.751	7.55
390.959	7.86
391.167	8
391.375	7.39
391.583	7.86
391.79	7.83
391.998	7.63
392.206	7.78
392.414	7.61
392.621	7.86
392.829	8.29
393.037	8.61
393.244	8.43
393.452	8.46
393.66	8.93
393.867	8.78
394.075	8.99
394.283	9.12
394.49	9.3
394.698	9.18
394.905	8.79
395.113	8.61
395.32	8.25
395.528	8.52
395.735	8.31
395.943	8.07
396.15	8.32
396.358	8.25
396.565	7.92
396.773	7.85
396.98	7.98
397.188	8.07
397.395	7.62
397.602	7.4
397.81	7.1
398.017	7.11
398.225	7.03
398.432	6.71
398.639	6.72
398.847	6.98
399.054	6.63
399.261	6.3
399.468	6.28
399.676	6.52
399.883	6.77
400.09	6.7
400.297	6.64
400.505	6.31
400.712	6.25
400.919	6.3
401.126	6.31
401.333	6.13
401.54	6.53
401.748	6.47
401.955	6.31
402.162	6.06
402.369	6.21
402.576	6.14
402.783	6.78
402.99	6.61
403.197	6.28
403.404	6.07
403.611	6.29
403.818	6.28
404.025	6.25
404.232	6.26
404.439	6.47
404.646	6.49
404.853	6.6
405.06	6.28
405.267	6.52
405.474	6.83
405.681	6.91
405.887	6.96
406.094	6.93
406.301	7.08
406.508	7.21
406.715	7.51
406.922	7.49
407.128	7.75
407.335	7.77
407.542	7.64
407.749	7.48
407.955	7.48
408.162	7.1
408.369	7.17
408.575	7.44
408.782	7.37
408.989	7.2
409.195	6.93
409.402	6.45
409.609	6.6
409.815	7.01
410.022	6.95
410.228	6.75
410.435	7.35
410.642	7.11
410.848	7.17
411.055	7.26
411.261	6.78
411.468	7.08
411.674	7.27
411.881	7.18
412.087	7.01
412.294	7.04
412.5	7.21
412.706	6.93
412.913	6.78
413.119	6.38
413.326	6.46
413.532	6.79
413.738	6.78
413.945	6.66
414.151	6.5
414.357	6.41
414.564	6.33
414.77	6.36
414.976	6.18
415.182	6.28
415.389	6.41
415.595	6.14
415.801	6.11
416.007	6.13
416.214	6.21
416.42	6.09
416.626	6.12
416.832	6.14
417.038	6.15
417.244	6.34
417.45	6.46
417.657	6.3
417.863	6.47
418.069	6.37
418.275	6.3
418.481	6.43
418.687	6.71
418.893	6.69
419.099	6.65
419.305	6.56
419.511	6.46
419.717	6.4
419.923	6.3
420.129	6.13
420.335	6.25
420.541	6.19
420.746	6.04
420.952	5.98
421.158	6.03
421.364	6.02
421.57	6.01
421.776	6.17
421.982	6.11
422.187	6.17
422.393	6.4
422.599	6.36
422.805	6.46
423.01	6.6
423.216	6.48
423.422	6.29
423.628	6.28
423.833	6.33
424.039	6.2
424.245	6.36
424.45	6.43
424.656	6.39
424.862	6.5
425.067	6.31
425.273	6.25
425.478	6.36
425.684	6.57
425.889	6.61
426.095	6.66
426.301	6.66
426.506	6.44
426.712	6.46
426.917	6.3
427.123	6.16
427.328	6.43
427.533	6.26
427.739	6.12
427.944	5.86
428.15	5.81
428.355	5.85
428.561	5.79
428.766	5.7
428.971	5.8
429.177	5.93
429.382	5.82
429.587	5.73
429.793	5.78
429.998	5.81
430.203	6.07
430.408	6.07
430.614	5.73
430.819	5.83
431.024	5.9
431.229	5.66
431.434	5.57
431.64	5.47
431.845	5.4
432.05	5.45
432.255	5.3
432.46	4.96
432.665	5.15
432.87	5.3
433.076	5.31
433.281	5.42
433.486	5.38
433.691	5.45
433.896	5.47
434.101	5.59
434.306	5.6
434.511	5.88
434.716	6.19
434.921	6.1
435.126	6.26
435.331	6.04
435.535	6.23
435.74	6.39
435.945	6.25
436.15	6.17
436.355	6.16
436.56	5.96
436.765	5.91
436.97	6.02
437.174	6.01
437.379	5.99
437.584	6.22
437.789	6
437.993	5.85
438.198	5.94
438.403	6.25
438.608	6.14
438.812	6.25
439.017	6.14
439.222	5.98
439.426	6.06
439.631	5.97
439.836	5.89
440.04	6.04
440.245	6.12
440.45	6.15
440.654	5.98
440.859	6.12
441.063	6.17
441.268	6.25
441.472	6.34
441.677	6.25
441.881	6.16
442.086	6.25
442.29	5.94
442.495	5.87
442.699	5.81
442.904	5.83
443.108	5.79
443.312	5.74
443.517	5.87
443.721	5.67
443.925	5.74
444.13	5.95
444.334	5.86
444.538	6.24
444.743	6.12
444.947	6.16
445.151	6.17
445.356	6.2
445.56	6.15
445.764	5.9
445.968	5.93
446.173	5.96
446.377	5.93
446.581	5.99
446.785	5.89
446.989	6.02
447.193	6.04
447.398	6.12
447.602	5.94
447.806	6.08
448.01	6.16
448.214	6.01
448.418	5.77
448.622	5.69
448.826	5.65
449.03	5.48
449.234	5.31
449.438	5.22
449.642	5.27
449.846	5.32
450.05	5.06
450.254	4.94
450.458	5.11
450.662	5.21
450.866	5.24
451.069	5.25
451.273	5.37
451.477	5.55
451.681	5.59
451.885	5.23
452.089	5.35
452.292	5.42
452.496	5.64
452.7	5.69
452.904	5.73
453.107	5.53
453.311	5.52
453.515	5.48
453.719	5.42
453.922	5.4
454.126	5.54
454.33	5.49
454.533	5.34
454.737	5.11
454.94	5.15
455.144	5.17
455.348	5.31
455.551	5.38
455.755	5.33
455.958	5.28
456.162	5.3
456.365	5.42
456.569	5.28
456.772	5.6
456.976	5.7
457.179	5.59
457.383	5.45
457.586	5.54
457.79	5.47
457.993	5.47
458.196	5.59
458.4	5.6
458.603	5.35
458.807	5.54
459.01	5.63
459.213	5.66
459.417	5.84
459.62	5.97
459.823	5.94
460.026	6.06
460.23	6.08
460.433	6.01
460.636	5.95
460.839	6.12
461.042	6.04
461.246	6.07
461.449	5.95
461.652	5.84
461.855	5.79
462.058	5.75
462.261	5.62
462.464	5.81
462.668	5.99
462.871	6.16
463.074	6.04
463.277	5.96
463.48	5.68
463.683	5.73
463.886	5.58
464.089	5.73
464.292	5.87
464.495	5.97
464.698	5.78
464.901	5.65
465.104	5.7
465.306	5.99
465.509	6.02
465.712	6.19
465.915	6.18
466.118	6.16
466.321	6.12
466.524	5.9
466.726	5.79
466.929	5.7
467.132	5.7
467.335	5.53
467.538	5.28
467.74	5.28
467.943	5.03
468.146	4.95
468.348	5.08
468.551	4.79
468.754	4.75
468.956	4.51
469.159	4.65
469.362	4.82
469.564	4.78
469.767	4.76
469.969	4.72
470.172	5.14
470.375	5.33
470.577	5.36
470.78	5.62
470.982	5.83
471.185	5.98
471.387	5.78
471.59	5.54
471.792	5.64
471.995	5.84
472.197	5.85
472.399	5.6
472.602	5.57
472.804	5.59
473.007	5.43
473.209	5.41
473.411	5.44
473.614	5.7
473.816	5.72
474.018	5.55
474.22	5.48
474.423	5.47
474.625	5.38
474.827	5.36
475.03	5.19
475.232	5.39
475.434	5.41
475.636	5.62
475.838	5.45
476.04	5.52
476.243	5.54
476.445	5.57
476.647	5.75
476.849	5.99
477.051	6.11
477.253	6.15
477.455	5.84
477.657	5.77
477.859	5.51
478.061	5.48
478.263	5.56
478.465	5.64
478.667	5.56
478.869	5.43
479.071	5.24
479.273	5.23
479.475	5.3
479.677	5.57
479.879	5.48
480.081	5.68
480.283	5.77
480.485	5.89
480.686	5.92
480.888	5.96
481.09	5.95
481.292	6.02
481.494	5.83
481.695	5.82
481.897	5.86
482.099	5.8
482.301	5.77
482.502	5.74
482.704	5.65
482.906	5.75
483.107	5.71
483.309	5.73
483.511	5.71
483.712	5.74
483.914	5.68
484.115	5.63
484.317	5.73
484.519	5.69
484.72	5.67
484.922	5.68
485.123	5.58
485.325	5.63
485.526	5.57
485.728	5.58
485.929	5.64
486.131	5.65
486.332	5.7
486.534	5.69
486.735	5.71
486.936	5.75
487.138	5.69
487.339	5.68
487.541	5.64
487.742	5.71
487.943	5.69
488.144	5.66
488.346	5.69
488.547	5.66
488.748	5.6
488.95	5.63
489.151	5.66
489.352	5.7
489.553	5.68
489.755	5.67
489.956	5.63
490.157	5.65
490.358	5.66
490.559	5.67
490.76	5.65
490.961	5.69
491.163	5.64
491.364	5.6
491.565	5.64
491.766	5.72
491.967	5.77
492.168	5.69
492.369	5.69
492.57	5.77
492.771	5.89
492.972	5.88
493.173	5.87
493.374	5.88
493.575	5.98
493.776	5.88
493.976	5.96
494.177	5.93
494.378	6.18
494.579	6.13
494.78	6.03
494.981	5.86
495.182	5.92
495.382	6.02
495.583	6.15
495.784	6.2
495.985	6.28
496.185	6.15
496.386	6.14
496.587	6.08
496.788	6.12
496.988	6.05
497.189	5.82
497.39	5.8
497.59	5.75
497.791	5.69
497.992	5.67
498.192	5.57
498.393	5.67
498.593	5.57
498.794	5.54
498.994	5.43
499.195	5.39
499.395	5.67
499.596	5.66
499.796	5.58
499.997	5.43
500.197	5.29
500.398	5.3
500.598	5.25
500.799	5.23
500.999	5.25
501.199	5.41
501.4	5.6
501.6	5.57
501.801	5.64
502.001	5.63
502.201	5.73
502.402	5.68
502.602	5.73
502.802	5.72
503.002	5.8
503.203	5.67
503.403	5.71
503.603	5.64
503.803	5.58
504.003	5.56
504.204	5.47
504.404	5.39
504.604	5.39
504.804	5.48
505.004	5.44
505.204	5.49
505.404	5.56
505.604	5.36
505.804	5.38
506.005	5.36
506.205	5.47
506.405	5.65
506.605	5.63
506.805	5.69
507.005	5.63
507.204	5.61
507.404	5.67
507.604	5.83
507.804	5.99
508.004	6
508.204	6.04
508.404	5.9
508.604	5.82
508.804	5.96
509.003	6.01
509.203	6.02
509.403	6.06
509.603	6.01
509.803	5.85
510.002	5.94
510.202	5.93
510.402	5.99
510.602	5.93
510.801	6.02
511.001	5.94
511.201	5.94
511.4	5.97
511.6	6.02
511.8	5.9
511.999	6.02
512.199	5.88
512.398	5.72
512.598	5.82
512.797	5.95
512.997	6.05
513.197	6.1
513.396	6.21
513.596	6.23
513.795	6.2
513.994	6.46
514.194	6.47
514.393	6.54
514.593	6.71
514.792	6.73
514.992	6.71
515.191	6.55
515.39	6.62
515.59	6.52
515.789	6.63
515.988	6.72
516.188	6.54
516.387	6.57
516.586	6.44
516.786	6.43
516.985	6.37
517.184	6.46
517.383	6.57
517.582	6.59
517.782	6.64
517.981	6.59
518.18	6.41
518.379	6.42
518.578	6.38
518.777	6.58
518.976	6.68
519.176	6.65
519.375	6.6
519.574	6.54
519.773	6.49
519.972	6.37
520.171	6.38
520.37	6.51
520.569	6.47
520.768	6.46
520.967	6.37
521.166	6.22
521.365	6.14
521.564	6.3
521.762	6.27
521.961	6.46
522.16	6.52
522.359	6.42
522.558	6.44
522.757	6.72
522.956	6.77
523.154	6.64
523.353	6.69
523.552	6.62
523.751	6.47
523.949	6.47
524.148	6.32
524.347	6.42
524.546	6.59
524.744	6.68
524.943	6.51
525.142	6.54
525.34	6.7
525.539	6.64
525.737	6.79
525.936	6.86
526.135	6.93
526.333	7
526.532	7.09
526.73	7.06
526.929	7.1
527.127	7.16
527.326	7.27
527.524	7.26
527.723	7.28
527.921	7.25
528.12	7.23
528.318	7.25
528.516	7.24
528.715	7.24
528.913	7.21
529.112	7.17
529.31	7.14
529.508	7.07
529.707	7.06
529.905	7.12
530.103	7.13
530.301	7.21
530.5	7.28
530.698	7.3
530.896	7.26
531.094	7.29
531.293	7.28
531.491	7.32
531.689	7.41
531.887	7.44
532.085	7.47
532.283	7.55
532.481	7.49
532.68	7.43
532.878	7.52
533.076	7.52
533.274	7.56
533.472	7.62
533.67	7.69
533.868	7.7
534.066	7.74
534.264	7.66
534.462	7.67
534.66	7.73
534.858	7.78
535.056	7.63
535.253	7.71
535.451	7.72
535.649	7.69
535.847	7.67
536.045	7.66
536.243	7.66
536.441	7.76
536.638	7.8
536.836	7.79
537.034	7.85
537.232	8.02
537.43	7.97
537.627	7.99
537.825	8.02
538.023	8.13
538.22	8.09
538.418	8.25
538.616	8.33
538.813	8.45
539.011	8.51
539.209	8.42
539.406	8.46
539.604	8.54
539.801	8.55
539.999	8.6
540.196	8.56
540.394	8.6
540.591	8.53
540.789	8.52
540.986	8.46
541.184	8.58
541.381	8.65
541.579	8.65
541.776	8.62
541.974	8.72
542.171	8.67
542.368	8.76
542.566	8.8
542.763	8.86
542.96	8.94
543.158	8.94
543.355	8.86
543.552	8.87
543.75	8.93
543.947	9.03
544.144	9.01
544.341	9.14
544.539	9.19
544.736	9.18
544.933	9.11
545.13	9.18
545.327	9.23
545.524	9.49
545.722	9.58
545.919	9.53
546.116	9.53
546.313	9.62
546.51	9.72
546.707	9.75
546.904	9.92
547.101	10.05
547.298	10.08
547.495	10.19
547.692	10.01
547.889	10.05
548.086	10.17
548.283	10.24
548.48	10.3
548.677	10.46
548.874	10.42
549.07	10.3
549.267	10.37
549.464	10.42
549.661	10.5
549.858	10.7
550.055	10.77
550.251	10.66
550.448	10.63
550.645	10.55
550.842	10.33
551.038	10.33
551.235	10.57
551.432	10.41
551.628	10.42
551.825	10.44
552.022	10.25
552.218	10.26
552.415	10.53
552.612	10.66
552.808	10.59
553.005	10.59
553.201	10.52
553.398	10.56
553.594	10.83
553.791	10.94
553.987	10.97
554.184	11.38
554.38	11.43
554.577	11.35
554.773	11.25
554.97	11.45
555.166	11.62
555.362	11.93
555.559	11.86
555.755	11.8
555.952	11.6
556.148	11.85
556.344	11.64
556.541	11.61
556.737	11.59
556.933	11.73
557.129	11.86
557.326	11.89
557.522	11.76
557.718	11.94
557.914	12.05
558.11	12.03
558.307	11.83
558.503	12
558.699	12.22
558.895	12.47
559.091	12.53
559.287	12.52
559.483	12.53
559.679	12.61
559.876	12.41
560.072	12.48
560.268	12.69
560.464	12.69
560.66	12.49
560.856	12.37
561.052	12.38
561.247	12.5
561.443	12.53
561.639	12.65
561.835	12.73
562.031	12.9
562.227	12.91
562.423	12.97
562.619	12.95
562.815	13.03
563.01	13.02
563.206	12.91
563.402	12.88
563.598	13.01
563.793	13.18
563.989	13.15
564.185	13.23
564.381	13.28
564.576	13.37
564.772	13.53
564.968	13.58
565.163	13.71
565.359	14.04
565.555	14.1
565.75	14.04
565.946	13.94
566.141	14.12
566.337	14.06
566.532	14.12
566.728	14.08
566.923	14.08
567.119	14.06
567.314	14.06
567.51	13.95
567.705	13.97
567.901	14.05
568.096	14.3
568.292	14.26
568.487	14.47
568.682	14.49
568.878	14.41
569.073	14.48
569.268	14.6
569.464	14.63
569.659	14.79
569.854	14.83
570.05	14.81
570.245	14.68
570.44	14.65
570.635	14.66
570.831	14.9
571.026	15.11
571.221	15.15
571.416	15.22
571.611	15.36
571.806	15.22
572.002	15.31
572.197	15.32
572.392	15.49
572.587	15.56
572.782	15.67
572.977	15.32
573.172	15.27
573.367	15.52
573.562	15.59
573.757	15.61
573.952	15.69
574.147	15.55
574.342	15.8
574.537	15.66
574.732	15.75
574.927	15.67
575.121	15.97
575.316	16.1
575.511	15.83
575.706	15.66
575.901	15.61
576.096	15.64
576.29	15.83
576.485	15.84
576.68	15.78
576.875	15.97
577.069	16.05
577.264	16.06
577.459	16.14
577.654	16.18
577.848	16.41
578.043	16.45
578.238	16.31
578.432	16.26
578.627	16.09
578.821	16.04
579.016	15.84
579.21	15.93
579.405	15.93
579.6	15.81
579.794	15.68
579.989	15.92
580.183	16.17
580.378	16.25
580.572	16.44
580.766	16.32
580.961	16.91
581.155	16.74
581.35	16.52
581.544	16.35
581.738	16.58
581.933	16.82
582.127	16.65
582.321	16.39
582.516	16.44
582.71	16.18
582.904	16.12
583.099	15.62
583.293	15.82
583.487	15.95
583.681	16
583.875	15.77
584.07	15.92
584.264	15.72
584.458	15.82
584.652	15.96
584.846	16.1
585.04	16.33
585.234	16.71
585.428	16.5
585.623	16.6
585.817	16.76
586.011	16.89
586.205	16.72
586.399	16.87
586.593	16.82
586.787	16.91
586.981	16.97
587.174	17.1
587.368	17.37
587.562	17.59
587.756	17.45
587.95	17.47
588.144	17.51
588.338	17.54
588.532	17.48
588.725	17.33
588.919	17.33
589.113	17.41
589.307	17.42
589.501	16.89
589.694	17.2
589.888	17.23
590.082	17.1
590.275	17.08
590.469	17.09
590.663	17.24
590.856	17.47
591.05	17.38
591.244	17.42
591.437	17.33
591.631	17.32
591.824	16.89
592.018	16.81
592.212	16.7
592.405	16.48
592.599	16.45
592.792	16.41
592.986	16.58
593.179	16.49
593.372	16.65
593.566	16.62
593.759	16.43
593.953	16.49
594.146	16.74
594.339	17
594.533	17.26
594.726	17.12
594.92	17.06
595.113	17.1
595.306	17.29
595.499	17.24
595.693	17.53
595.886	18
596.079	18.29
596.272	18.23
596.466	18.24
596.659	18.18
596.852	18.39
597.045	18.52
597.238	18.25
597.431	18.34
597.624	18.25
597.818	18.05
598.011	17.81
598.204	17.55
598.397	17.62
598.59	17.72
598.783	17.82
598.976	17.83
599.169	17.93
599.362	18.08
599.555	17.88
599.748	17.71
599.941	17.62
600.134	17.76
600.326	17.94
600.519	17.81
600.712	17.77
600.905	17.81
601.098	17.81
601.291	17.34
601.483	17.22
601.676	17.15
601.869	17.11
602.062	17.27
602.255	17.3
602.447	17.32
602.64	17.27
602.833	17.24
603.025	17.25
603.218	17.24
603.411	17.56
603.603	17.96
603.796	18.1
603.989	18.26
604.181	18.34
604.374	18.42
604.566	18.4
604.759	18.44
604.951	18.64
605.144	18.53
605.336	18.8
605.529	18.74
605.721	18.46
605.914	18.45
606.106	18.75
606.299	18.84
606.491	18.89
606.683	18.79
606.876	18.96
607.068	18.65
607.26	18.75
607.453	18.55
607.645	18.25
607.837	18.21
608.03	18.03
608.222	18.03
608.414	17.74
608.606	17.72
608.799	17.96
608.991	18.1
609.183	17.94
609.375	18.14
609.567	17.88
609.759	18.25
609.952	18.41
610.144	18.54
610.336	18.25
610.528	18.1
610.72	18.03
610.912	17.9
611.104	17.68
611.296	17.7
611.488	17.28
611.68	17.29
611.872	17.05
612.064	16.94
612.256	17.14
612.448	17.05
612.64	17.46
612.832	17.28
613.023	17.47
613.215	17.45
613.407	17.65
613.599	17.79
613.791	17.85
613.983	18.1
614.174	18.19
614.366	17.97
614.558	17.77
614.75	17.62
614.941	17.66
615.133	17.35
615.325	17.59
615.516	17.66
615.708	17.81
615.9	18.03
616.091	17.93
616.283	17.92
616.475	17.64
616.666	17.94
616.858	17.9
617.049	18.25
617.241	18.47
617.432	18.43
617.624	18.3
617.815	18.27
618.007	18.06
618.198	18.01
618.39	17.93
618.581	18.04
618.773	18.18
618.964	18.2
619.155	17.8
619.347	17.54
619.538	17.35
619.729	17.43
619.921	17.62
620.112	17.96
620.303	18.13
620.494	18.38
620.686	18.52
620.877	18.33
621.068	18.23
621.259	18.47
621.451	18.71
621.642	18.78
621.833	18.97
622.024	18.92
622.215	18.75
622.406	18.61
622.597	18.31
622.788	18.34
622.98	18.57
623.171	18.64
623.362	18.66
623.553	18.68
623.744	18.71
623.935	18.55
624.126	18.01
624.317	17.72
624.508	17.82
624.698	17.76
624.889	17.84
625.08	17.89
625.271	18.05
625.462	18.19
625.653	18.08
625.844	18.09
626.034	17.96
626.225	18.35
626.416	18.4
626.607	18.1
626.798	18.4
626.988	18.49
627.179	18.46
627.37	18.49
627.56	18.18
627.751	18.26
627.942	18.36
628.132	18.5
628.323	18.35
628.514	18.41
628.704	19.19
628.895	18.93
629.085	18.71
629.276	18.62
629.466	18.48
629.657	18.78
629.847	18.68
630.038	18.4
630.228	18.33
630.419	18.77
630.609	18.85
630.8	18.48
630.99	18.51
631.181	18.65
631.371	18.64
631.561	18.53
631.752	18.46
631.942	18.54
632.132	18.67
632.323	18.89
632.513	18.36
632.703	18.36
632.893	18.45
633.084	18.76
633.274	18.6
633.464	18.45
633.654	18.63
633.844	18.55
634.034	18.44
634.225	18.47
634.415	18.56
634.605	18.97
634.795	18.88
634.985	18.54
635.175	18.31
635.365	18.22
635.555	18.36
635.745	18.17
635.935	18.26
636.125	18.28
636.315	18.46
636.505	17.96
636.695	17.49
636.885	17.5
637.075	17.64
637.265	17.54
637.455	17.97
637.644	18.2
637.834	18.53
638.024	18.2
638.214	18.02
638.404	17.87
638.593	17.91
638.783	18.38
638.973	18.52
639.163	18.6
639.352	18.79
639.542	18.72
639.732	18.35
639.921	18.4
640.111	18.68
640.301	19.08
640.49	18.97
640.68	18.57
640.87	18.5
641.059	18.66
641.249	18.46
641.438	18.18
641.628	17.9
641.817	18.39
642.007	18.06
642.196	18.05
642.386	17.71
642.575	17.61
642.764	18.43
642.954	17.9
643.143	17.5
643.333	17.64
643.522	17.75
643.711	17.76
643.901	17.51
644.09	17.37
644.279	17.52
644.469	17.8
644.658	17.87
644.847	18.04
645.036	18.76
645.226	19.02
645.415	19.51
645.604	19.32
645.793	19.45
645.982	19.37
646.171	19.89
646.361	19.6
646.55	19.31
646.739	19.33
646.928	18.93
647.117	18.42
647.306	18.13
647.495	18.08
647.684	18.14
647.873	17.9
648.062	17.46
648.251	17.26
648.44	17.16
648.629	17.2
648.818	17.37
649.007	17.35
649.196	17.64
649.384	17.79
649.573	17.58
649.762	17.64
649.951	17.83
650.14	18.37
650.328	18.26
650.517	18.61
650.706	18.95
650.895	18.97
651.083	18.96
651.272	18.76
651.461	19.05
651.65	18.9
651.838	19.08
652.027	18.89
652.216	18.77
652.404	18.62
652.593	18.51
652.781	18.12
652.97	18.02
653.158	18.17
653.347	18.33
653.535	17.92
653.724	17.77
653.912	17.76
654.101	17.69
654.289	17.72
654.478	17.98
654.666	17.77
654.855	18.22
655.043	18.17
655.231	18.46
655.42	18.88
655.608	18.69
655.796	18.81
655.985	18.57
656.173	19.07
656.361	19.42
656.55	19.52
656.738	20.07
656.926	20.15
657.114	19.9
657.302	19.53
657.491	19.35
657.679	19.65
657.867	19.46
658.055	19.53
658.243	19.3
658.431	19.02
658.619	18.8
658.807	18.63
658.996	18.55
659.184	18.66
659.372	18.82
659.56	18.47
659.748	18.52
659.936	18.65
660.124	18.78
660.311	18.54
660.499	18.99
660.687	19.03
660.875	19.03
661.063	18.66
661.251	19.01
661.439	18.66
661.627	19.07
661.814	18.77
662.002	18.6
662.19	17.91
662.378	18.03
662.565	17.57
662.753	17.4
662.941	17.16
663.129	17.55
663.316	17.53
663.504	17.53
663.692	17.55
663.879	17.81
664.067	17.87
664.254	18.78
664.442	19.35
664.63	18.83
664.817	18.98
665.005	18.92
665.192	19.33
665.38	19.09
665.567	19.49
665.755	19.2
665.942	19.43
666.13	19.18
666.317	19.17
666.504	18.82
666.692	19.18
666.879	18.74
667.067	18.57
667.254	18.29
667.441	18.43
667.629	17.88
667.816	17.79
668.003	17.72
668.19	18.31
668.378	18.51
668.565	18.37
668.752	18.56
668.939	19.07
669.127	19.54
669.314	19.29
669.501	19.55
669.688	19.88
669.875	20.11
670.062	20.05
670.249	19.84
670.436	19.38
670.623	19.25
670.81	19.03
670.997	19.12
671.184	18.48
671.371	18.47
671.558	17.86
671.745	17.96
671.932	17.84
672.119	17.68
672.306	17.72
672.493	17.75
672.68	18.32
672.867	18.63
673.054	18.41
673.24	18.85
673.427	19.22
673.614	19.29
673.801	19.16
673.988	18.94
674.174	19.24
674.361	18.95
674.548	19.09
674.734	18.72
674.921	18.37
675.108	18.39
675.294	18.06
675.481	17.46
675.668	17.52
675.854	17.52
676.041	17.42
676.227	17.28
676.414	17.57
676.601	17.33
676.787	17.72
676.974	17.66
677.16	18.04
677.347	18.19
677.533	19.17
677.719	18.71
677.906	18.87
678.092	18.9
678.279	18.84
678.465	19.04
678.651	19.4
678.838	19.18
679.024	19.34
679.21	18.81
679.397	19.31
679.583	18.41
679.769	18.46
679.955	18.39
680.142	18.42
680.328	18.41
680.514	18.25
680.7	17.99
680.886	18.31
681.073	18.29
681.259	18.78
681.445	18.05
681.631	18.54
681.817	19.07
682.003	18.78
682.189	18.97
682.375	19.3
682.561	19.44
682.747	19.58
682.933	19.58
683.119	19.6
683.305	19.53
683.491	19.68
683.677	20.01
683.863	19.98
684.049	20.44
684.235	20.84
684.42	20.68
684.606	20.64
684.792	20.27
684.978	20.19
685.164	20.25
685.349	19.8
685.535	19.98
685.721	19.32
685.907	19.25
686.092	19.16
686.278	18.81
686.464	18.01
686.649	18.02
686.835	18.09
687.021	17.78
687.206	18.08
687.392	18.51
687.577	18.42
687.763	18.44
687.948	18.58
688.134	18.76
688.319	18.93
688.505	19.39
688.69	18.76
688.876	19.4
689.061	18.82
689.247	18.48
689.432	18.39
689.618	18.13
689.803	18.46
689.988	18.41
690.174	18.34
690.359	18.04
690.544	18.23
690.73	19.03
690.915	18.57
691.1	19.1
691.285	18.77
691.471	19.01
691.656	19.73
691.841	19.23
692.026	18.85
692.211	18.56
692.396	18.39
692.582	18.69
692.767	18.89
692.952	18.8
693.137	18.63
693.322	18.38
693.507	17.89
693.692	17.97
693.877	18.19
694.062	18.49
694.247	18.54
694.432	18.07
694.617	17.76
694.802	17.24
694.987	17.69
695.172	17.66
695.357	17.99
695.541	18.17
695.726	17.65
695.911	17.56
696.096	17.53
696.281	17.46
696.466	18.43
696.65	18.75
696.835	18.87
697.02	18.75
697.204	19.6
697.389	19.93
697.574	20.08
697.759	20.56
697.943	20.71
698.128	20.87
698.312	21.3
698.497	21.05
698.682	21.08
698.866	21.18
699.051	21.28
699.235	21.1
699.42	21.16
699.604	21.07
699.789	20.97
699.973	20.78
700.158	20.65
700.342	20.18
700.527	20.21
700.711	19.86
700.895	19.59
701.08	19.26
701.264	19.26
701.448	19.24
701.633	19.06
701.817	18.81
702.001	19.01
702.186	18.63
702.37	19
702.554	18.99
702.738	19.91
702.923	19.47
703.107	19.47
703.291	18.91
703.475	18.9
703.659	19.12
703.843	19.35
704.027	19.54
704.212	19.81
704.396	19.09
704.58	19.57
704.764	19.02
704.948	19.57
705.132	19.71
705.316	20.54
705.5	20.16
705.684	19.7
705.868	19.42
706.052	19.45
706.235	18.83
706.419	19.12
706.603	18.36
706.787	18.04
706.971	18.55
707.155	18.76
707.339	18.88
707.522	18.85
707.706	18.76
707.89	19.11
708.074	19.01
708.257	19.32
708.441	19.25
708.625	20.31
708.808	20.26
708.992	20.28
709.176	19.46
709.359	18.62
709.543	18.78
709.727	18.95
709.91	18.85
710.094	18.48
710.277	18.81
710.461	18.67
710.644	18.66
710.828	18.8
711.011	18.44
711.195	18.75
711.378	18.89
711.562	19.34
711.745	19.69
711.928	20.41
712.112	20.85
712.295	20.76
712.478	20.64
712.662	19.6
712.845	19.51
713.028	19.31
713.212	19.49
713.395	19.63
713.578	19.72
713.761	19.54
713.945	18.3
714.128	18.27
714.311	17.86
714.494	18.21
714.677	18.52
714.86	18.49
715.043	19.33
715.227	18.52
715.41	18.28
715.593	18.14
715.776	18.09
715.959	19.02
716.142	19.3
716.325	19.59
716.508	19.71
716.691	19.22
716.874	19.56
717.057	18.09
717.239	18.63
717.422	18.6
717.605	18.16
717.788	18.01
717.971	17.84
718.154	17.91
718.337	18.21
718.519	18.81
718.702	19.41
718.885	18.87
719.068	18.4
719.25	20.03
719.433	19.54
719.616	19.3
719.798	19.65
719.981	19.49
720.164	18.05
720.346	18.57
720.529	17.4
720.712	17.51
720.894	17.75
721.077	19.29
721.259	17.94
721.442	17.92
721.624	17.8
721.807	17.4
721.989	16.74
722.172	17.4
722.354	17.15
722.537	17.28
722.719	17.54
722.901	16.93
723.084	16.25
723.266	15.29
723.448	15.24
723.631	15.21
723.813	15.8
723.995	15.72
724.178	16.25
724.36	15.15
724.542	15.15
724.724	14.68
724.907	14.83
725.089	15.8
725.271	17.14
725.453	17.89
725.635	18.12
725.817	17.64
725.999	16.68
726.181	16.4
726.364	17.42
726.546	18.93
726.728	18.39
726.91	18.59
727.092	19.07
727.274	17.98
727.456	17.9
727.638	18.83
727.819	18.91
728.001	20.32
728.183	20.37
728.365	20.3
728.547	18.77
728.729	18.31
728.911	18.59
729.093	18.38
729.274	18.56
729.456	18.2
729.638	18
729.82	17.83
730.001	17.91
730.183	18.21
730.365	17.88
730.546	18.46
730.728	20.23
730.91	20.74
731.091	19.95
731.273	20.5
731.455	21.09
731.636	20.04
731.818	19.7
731.999	19.99
732.181	19.8
732.362	20.3
732.544	19.7
732.725	18.28
732.907	17.45
733.088	17.46
733.27	17.43
733.451	17.51
733.633	18.95
733.814	19.74
733.995	19.83
734.177	18.79
734.358	17.78
734.539	18.55
734.721	18.95
734.902	18.58
735.083	18.85
735.264	20.03
735.446	19.65
735.627	19.24
735.808	19.16
735.989	18.12
736.17	18.63
736.351	18.65
736.533	17.92
736.714	17.76
736.895	18.43
737.076	18.93
737.257	17.06
737.438	17.41
737.619	16.17
737.8	16.26
737.981	16.03
738.162	15.36
738.343	16.36
738.524	15.88
738.705	16.28
738.886	15.75
739.067	15.36
739.247	15.64
739.428	15.34
739.609	16.71
739.79	16.06
739.971	16.37
740.151	17.37
740.332	17.26
740.513	17.12
740.694	17.49
740.874	18.54
741.055	17.95
741.236	18
741.417	17.11
741.597	15.39
741.778	14.67
741.958	15.03
742.139	16.73
742.32	16.19
742.5	18.03
742.681	18.83
742.861	20.08
743.042	20.07
743.222	20.55
743.403	21.75
743.583	22.58
743.764	23.75
743.944	24.09
744.124	22.83
744.305	22.49
744.485	22.5
744.666	20.33
744.846	17.95
745.026	18.52
745.207	18.28
745.387	18.09
745.567	18.13
745.747	18.64
745.928	18.72
746.108	17.7
746.288	19
746.468	18.15
746.648	19.22
746.829	20.05
747.009	20.28
747.189	20.74
747.369	19.4
747.549	18.66
747.729	17.84
747.909	18.06
748.089	19.53
748.269	18.7
748.449	20.59
748.629	20.21
748.809	20.04
748.989	19.57
749.169	20.11
749.349	21.68
749.529	22.08
749.709	22.61
749.889	20.56
750.068	19.33
750.248	20.05
750.428	19.17
750.608	19.9
750.788	20.1
750.967	20.57
751.147	19.07
751.327	18.49
751.507	18.77
751.686	18.21
751.866	19.63
752.046	20.34
752.225	19.07
752.405	17.71
752.585	17.28
752.764	18.74
752.944	17.92
753.123	20.08
753.303	21.07
753.482	21.02
753.662	20.92
753.841	19.98
754.021	20.32
754.2	21.51
754.38	21.35
754.559	20.25
754.739	18.76
754.918	19.01
755.097	17.79
755.277	17.6
755.456	16.98
755.635	18.61
755.815	19.57
755.994	19.94
756.173	20.53
756.352	21.17
756.532	21.51
756.711	21.27
756.89	20.11
757.069	20.03
757.248	19.92
757.427	19.9
757.607	18.59
757.786	17.56
757.965	14.68
758.144	13.26
758.323	12.99
758.502	11.85
758.681	11.23
758.86	11.77
759.039	10.76
759.218	11.5
759.397	11.8
759.576	11.99
759.755	12.13
759.934	13.25
760.113	13.84
760.291	14.84
760.47	16.94
760.649	17.23
760.828	18.41
761.007	20.3
761.186	19.71
761.364	20.24
761.543	20.69
761.722	21.59
761.901	22.61
762.079	22.26
762.258	21.7
762.437	21.72
762.615	21.09
762.794	20.61
762.972	19.46
763.151	18.65
763.33	18.77
763.508	18.73
763.687	18.51
763.865	18.29
764.044	18.59
764.222	18.39
764.401	17.73
764.579	19.25
764.758	19.14
764.936	19.7
765.114	20.23
765.293	19.91
765.471	19.77
765.65	19.56
765.828	18.37
766.006	18.05
766.184	18.34
766.363	18.45
766.541	17.05
766.719	17.63
766.898	17.4
767.076	16.15
767.254	16.28
767.432	16.88
767.61	17.11
767.788	17.76
767.967	17.7
768.145	16.32
768.323	16.23
768.501	18.12
768.679	17.66
768.857	18.16
769.035	17.62
769.213	17.11
769.391	15.96
769.569	15.25
769.747	16.45
769.925	15.43
770.103	17
770.281	16.7
770.459	14.53
770.636	13.22
770.814	12.19
770.992	13.53
771.17	14.16
771.348	13.11
771.525	10.15
771.703	10.18
771.881	10.56
772.059	10.83
772.236	12.9
772.414	13.89
772.592	13.6
772.769	13.77
772.947	14.83
773.125	13.78
773.302	15.01
773.48	17.67
773.657	16.43
773.835	15.34
774.013	13.24
774.19	13.4
774.368	11.84
774.545	14.11
774.723	13.59
774.9	12.39
775.077	11.87
775.255	11.32
775.432	12.15
775.61	13.99
775.787	16.23
775.964	18.37
776.142	15.11
776.319	15.62
776.496	13.8
776.674	15.34
776.851	15.49
777.028	17.58
777.205	17.07
777.382	16.13
777.56	14.85
777.737	13.39
777.914	11.14
778.091	11.44
778.268	12.69
778.445	14
778.622	14.09
778.8	13.62
778.977	12.34
779.154	12.98
779.331	13.32
779.508	12.72
779.685	12.25
779.862	15.12
780.038	16.25
780.215	17
780.392	13.97
780.569	11.91
780.746	13.39
780.923	13.8
781.1	12.39
781.277	13.03
781.453	12.27
781.63	13.11
781.807	11.66
781.984	14.21
782.16	10.16
782.337	11.7
782.514	11.63
782.691	10.51
782.867	9.36
783.044	11.96
783.221	11.64
783.397	15.75
783.574	16.07
783.75	14.76
783.927	10.88
784.103	13.59
784.28	13.34
784.456	14.64
784.633	15.07
784.809	15.16
784.986	17.08
785.162	18.22
785.339	12.95
785.515	13.11
785.692	13.45
785.868	16.71
786.044	16.86
786.221	18.32
786.397	17.56
786.573	19.01
786.749	19.48
786.926	16.48
787.102	13.39
787.278	14.4
787.454	14.74
787.631	17.1
787.807	16.04
787.983	16.44
788.159	14.92
788.335	15.53
788.511	16.37
788.687	18.69
788.863	19.42
789.039	23.5
789.216	25.84
789.392	27.4
789.568	26.25
789.744	24.73
789.919	24.12
790.095	27.25
790.271	28.55
790.447	26.17
790.623	23.34
790.799	22.36
790.975	19.26
791.151	15.85
791.327	12.9
791.502	12.59
791.678	12.16
791.854	11.63
792.03	8.9
792.205	4.98
792.381	4.68
792.557	5.14
792.733	3.09
792.908	7.06
793.084	10.51
793.259	11.51
793.435	12.1
793.611	12.93
793.786	11.99
793.962	12.27
794.137	13.62
794.313	16.34
794.488	17.67
794.664	20.18
794.839	20.87
795.015	19.28
795.19	20.11
795.366	16.6
795.541	15.19
795.716	17.54
795.892	18.85
796.067	18.32
796.242	20.27
796.418	19.74
796.593	18.02
796.768	13.65
796.944	14.67
797.119	11.62
797.294	11.67
797.469	13.62
797.644	15.07
797.82	12.98
797.995	13.66
798.17	8.84
798.345	10.07
798.52	9.02
798.695	9.59
798.87	10.18
799.045	12.43
799.22	15.68
799.395	14.93
799.57	10.36
799.745	11.72
799.92	11.76
800.095	11.08
800.27	10.43
800.445	11.47
800.62	12.37
800.795	10.55
800.97	10.44
801.145	5.97
801.319	6.3
801.494	6.52
801.669	8.21
801.844	9.1
802.018	8.93
802.193	4.46
802.368	1.9
802.543	-3.67
802.717	-1.69
802.892	-1.32
803.067	2.15
803.241	4.47
803.416	9.34
803.59	9.12
803.765	8.16
803.94	9.6
804.114	15.46
804.289	17.27
804.463	22.49
804.638	18.4
804.812	14.47
804.986	14.28
805.161	10.8
805.335	6.84
805.51	2.66
805.684	0.69
805.858	-2.12
806.033	-2.72
806.207	-0.44
806.381	-1.56
806.556	5.03
806.73	10.11
806.904	10.26
807.078	9.87
807.253	9.28
807.427	11.66
807.601	10.1
807.775	13.8
807.949	10.98
808.123	11.5
808.298	9.97
808.472	6.35
808.646	5.97
808.82	6.07
808.994	0.53
809.168	0.43
809.342	0.37
809.516	0.77
809.69	3.43
809.864	7.58
810.038	7.82
810.212	6.31
810.385	6.87
810.559	5.02
810.733	4.38
810.907	5.48
811.081	4.17
811.255	5.31
811.428	8.71
811.602	3.13
811.776	2.22
811.95	-0.02
812.123	1.96
812.297	-4.83
812.471	-1.67
812.644	-1.14
812.818	6.64
812.992	3.07
813.165	2.04
813.339	-3.39
813.512	-2.98
813.686	3.46
813.86	7.01
814.033	10.74
814.207	15.24
814.38	11.96
814.554	10.6
814.727	7.23
814.9	15.86
815.074	13.91
815.247	17.91
815.421	18.4
815.594	11.31
815.767	8.25
815.941	7.64
816.114	9.81
816.287	5.48
816.46	4.26
816.634	7.48
816.807	4.19
816.98	8.62
817.153	5.17
817.327	5.13
817.5	5
817.673	3.98
817.846	3.49
818.019	0.14
818.192	5.29
818.365	9.72
818.538	9.69
818.711	10.48
818.884	5.59
819.057	9
819.23	9.64
819.403	8.19
819.576	9.16
819.749	9.35
819.922	12.3
820.095	13.18
820.268	15.59
820.441	16.42
820.614	15.25
820.786	15.3
820.959	16.35
821.132	15.02
821.305	15.22
821.477	16.54
821.65	16.4
821.823	17.02
821.996	16.62
822.168	17.68
822.341	16.97
822.514	17.62
822.686	18.49
822.859	18.24
823.031	19.31
823.204	20.1
823.376	19.63
823.549	19.62
823.722	19.33
823.894	19.89
824.067	18.44
824.239	18.88
824.411	19.4
824.584	19.33
824.756	19.8
824.929	19.12
825.101	18.85
825.273	18.29
825.446	18.7
825.618	18.02
825.79	19.11
825.963	19.43
826.135	19.73
826.307	17.56
826.479	16.87
826.652	16.84
826.824	16.72
826.996	14.22
827.168	15.4
827.34	15.01
827.512	16.15
827.684	14.73
827.856	15.9
828.029	16.32
828.201	16.95
828.373	17.41
828.545	18.12
828.717	18.52
828.889	21.14
829.061	19.91
829.232	19.54
829.404	18.55
829.576	16.86
829.748	16.01
829.92	15.03
830.092	13.79
830.264	13.38
830.436	9.49
830.607	9.17
830.779	10.04
830.951	10.53
831.123	11.19
831.294	10.65
831.466	14.39
831.638	13.02
831.809	10.31
831.981	14.74
832.153	16.14
832.324	15.64
832.496	13.76
832.667	14.66
832.839	13.88
833.011	13.39
833.182	17.3
833.354	16.21
833.525	15.4
833.697	16.75
833.868	17.91
834.039	16.55
834.211	17.36
834.382	16.76
834.554	15.4
834.725	16.35
834.896	15.94
835.068	14.07
835.239	12.84
835.41	13.06
835.581	12.32
835.753	9.72
835.924	11.78
836.095	12.68
836.266	14.85
836.438	15.27
836.609	15.77
836.78	13.67
836.951	12.04
837.122	11.26
837.293	9.19
837.464	7.71
837.635	10.83
837.806	6.7
837.977	8.56
838.148	10.33
838.319	10.41
838.49	0.42
838.661	8.03
838.832	10.12
839.003	17.36
839.174	14.41
839.345	16.2
839.516	10.88
839.687	10.49
839.857	11.58
840.028	3.29
840.199	8.66
840.37	21.18
840.54	19.56
840.711	20.74
840.882	20.21
841.053	19.51
841.223	18.74
841.394	19.3
841.564	17.18
841.735	13.56
841.906	8.2
842.076	5.54
842.247	1.46
842.417	-5.89
842.588	-10.46
842.758	-14.64
842.929	-12.18
843.099	-9.97
843.27	-14.35
843.44	-3.19
843.611	1.81
843.781	0.16
843.951	-3.48
844.122	-7.49
844.292	7.05
844.462	4.75
844.633	7.05
844.803	5.76
844.973	-3.12
845.144	-6.59
845.314	-10.44
845.484	-11.75
845.654	4.93
845.824	7.15
845.995	4.75
846.165	-7.33
846.335	-10.84
846.505	-3.13
846.675	1.66
846.845	0.11
847.015	-0.85
847.185	-10.52
847.355	-2.75
847.525	4.83
847.695	-0.8
847.865	-11.42
848.035	9.41
848.205	21.31
848.375	10.99
848.545	9.5
848.715	5.29
848.884	17.58
849.054	12.68
849.224	2.34
849.394	3.76
849.564	9.97
849.733	21.2
849.903	13.24
850.073	9.83
850.243	8.34
850.412	6.48
850.582	4.3
850.752	2.36
850.921	4.79
851.091	9.63
851.26	0.15
851.43	-10.52
851.599	-8.55
851.769	-16.81
851.939	-16.86
852.108	-20.52
852.278	-21.19
852.447	-7.78
852.616	-11.88
852.786	-45.61
852.955	-32.34
853.125	-42.76
853.294	-45.83
853.463	-57.49
853.633	-59.66
853.802	-40.12
853.971	-24.57
854.141	-20.56
854.31	-29.49
854.479	-9.32
854.648	25.03
854.818	26.04
854.987	38.23
855.156	50.61
855.325	41.99
855.494	48.1
855.663	47.33
855.832	49.75
856.001	43.57
856.171	38.24
856.34	23.24
856.509	6.93
856.678	-1.81
856.847	-4.9
857.016	-14.14
857.185	-9.12
857.353	-9.61
857.522	-1.01
857.691	-1
857.86	-11.97
858.029	-19.41
858.198	-17.7
858.367	-0.91
858.535	-3.71
858.704	-12.09
858.873	-5.38
859.042	0.17
859.21	-3.92
859.379	-22.08
859.548	-23.03
859.717	-26.38
859.885	-26.01
860.054	-26.15
860.222	-10.28
860.391	6.41
860.56	19.24
860.728	19.31
860.897	29.48
861.065	39.01
861.234	45.6
861.402	39.1
861.571	41.7
861.739	47.93
861.908	38.13
862.076	14.28
862.244	-5.28
862.413	2.39
862.581	10.95
862.749	13.28
862.918	-0.17
863.086	6.07
863.254	0.95
863.423	1.17
863.591	18.89
863.759	15.55
863.927	29.63
864.096	34.91
864.264	34.16
864.432	7.5
864.6	-14.2
864.768	-0.1
864.936	-0.56
865.104	-13.13
865.272	-24.86
865.44	-80.31
865.608	-10.33
865.776	2.26
865.944	-9.02
866.112	-13.69
866.28	11.4
866.448	-17.13
866.616	-8.87
866.784	-3.19
866.952	21.43
867.12	24.61
867.288	12.71
867.455	11.98
867.623	10.93
867.791	6.73
867.959	3.6
868.127	8.31
868.294	33.3
868.462	20.91
868.63	10.72
868.797	-44.59
868.965	-58.46
869.133	-36.2
869.3	-43.69
869.468	-58.64
869.636	-11.75
869.803	-18.77
869.971	-35.62
870.138	-68.73
870.306	-69.95
870.473	-32.8
870.641	-41.87
870.808	-58.44
870.975	-45.03
871.143	-65.58
871.31	-58.55
871.478	-105.65
871.645	-98.68
871.812	-84.88
871.98	-48.78
872.147	-37.19
872.314	-48.72
872.482	-49.02
872.649	-56.88
872.816	-74.24
872.983	-59.87
873.15	-33.36
873.318	-26.47
873.485	-58.53
873.652	-92.36
873.819	-76.49
873.986	-72.43
874.153	-63.13
874.32	-48.37
874.487	-33.85
874.654	-36.93
874.821	-20.86
874.988	-106.15
875.155	-25.69
875.322	16.21
875.489	26.13
875.656	6.07
875.823	30.75
875.99	26.37
876.157	18.33
876.324	20.23
876.49	2.36
876.657	6.87
876.824	37.18
876.991	30.63
877.157	17.51
877.324	27.85
877.491	34.93
877.658	-2.17
877.824	-2.8
877.991	7.74
878.157	17.15
878.324	39.82
878.491	17.9
878.657	-7.84
878.824	-27.16
878.99	-7.57
879.157	-26.46
879.323	-31.44
879.49	-22.92
879.656	-33.13
879.823	-49.18
879.989	-23.96
880.156	-5.47
880.322	16
880.488	13.97
880.655	8.25
880.821	12.69
880.987	21.61
881.154	24.16
881.32	22.43
881.486	22.63
881.652	25.51
881.819	24.38
881.985	21.63
882.151	19.42
882.317	15.85
882.483	21.89
882.649	17.86
882.816	13
882.982	14.43
883.148	13.94
883.314	18.09
883.48	17.4
883.646	12.94
883.812	13.35
883.978	14.1
884.144	18.59
884.31	17.83
884.476	18.47
884.642	20.65
884.807	19.83
884.973	22.84
885.139	20.75
885.305	19.5
885.471	21.72
885.637	24.34
885.802	24.13
885.968	22.39
886.134	21.64
886.3	25.15
886.465	24.33
886.631	24.95
886.797	26.96
886.962	22.22
887.128	22.07
887.293	22.27
887.459	14.65
887.625	19.99
887.79	14.86
887.956	18.26
888.121	7.9
888.287	7.65
888.452	0.71
888.618	-9.29
888.783	5.36
