Data from 2938045_Reflection_1.txt Node
Date: Sun Jul 12 14:28:22 EDT 2015
User: robert
Spectrometer: USB4E03001
Autoset integration time: false
Trigger mode: 4
Integration Time (sec): 1.000000E-1
Scans to average: 10
Electric dark correction enabled: true
Nonlinearity correction enabled: false
Boxcar width: 5
Stray light correction enabled: false
XAxis mode: Wavelengths
Stop averaging: false
Number of Pixels in Spectrum: 3648
>>>>>Begin Spectral Data<<<<<
177.566	147.71
177.785	-173.17
178.005	-10.89
178.225	51.51
178.445	67.03
178.665	60.85
178.885	12.2
179.105	-929.03
179.324	295.01
179.544	87.09
179.764	134.69
179.984	116.73
180.204	32.45
180.423	37.24
180.643	-1.26
180.863	15.23
181.083	-159.89
181.302	30683.33
181.522	-7.58
181.742	44.53
181.961	8.94
182.181	-102.64
182.401	-204.1
182.621	107.18
182.84	7.05
183.06	383.48
183.279	646.87
183.499	644.68
183.719	182.97
183.938	218.61
184.158	162.45
184.377	143.63
184.597	165.04
184.816	129.26
185.036	101.31
185.256	107.93
185.475	226.52
185.695	141.87
185.914	128.04
186.134	161.56
186.353	128.42
186.572	81.57
186.792	120.75
187.011	76.5
187.231	29.75
187.45	-8.32
187.67	-46.7
187.889	-116.08
188.108	-66.77
188.328	-227.94
188.547	-276.81
188.766	-128.48
188.986	-152.64
189.205	4.05
189.424	31.95
189.644	69.4
189.863	99.81
190.082	102.3
190.302	159.4
190.521	180.31
190.74	168.06
190.959	196.53
191.178	193.34
191.398	167.02
191.617	211.65
191.836	305.5
192.055	1199.79
192.274	-134.04
192.494	3.47
192.713	43.61
192.932	114.59
193.151	233.56
193.37	322.19
193.589	263.2
193.808	-498.31
194.027	574.74
194.246	208.04
194.465	160.19
194.685	157
194.904	171.01
195.123	165.49
195.342	132.32
195.561	107.11
195.78	127.42
195.999	116.29
196.218	119.97
196.436	108.66
196.655	16.03
196.874	24.52
197.093	21.69
197.312	63.24
197.531	157.45
197.75	132.14
197.969	1281.08
198.188	193.43
198.407	82.35
198.625	56.74
198.844	148.49
199.063	156.88
199.282	257.14
199.501	187.46
199.719	156.84
199.938	341.89
200.157	354.3
200.376	513.82
200.594	437.24
200.813	398.8
201.032	500.69
201.251	498.25
201.469	417.03
201.688	237.6
201.907	237.26
202.125	291.14
202.344	211.81
202.563	265.8
202.781	347.16
203	227.93
203.218	267.82
203.437	255.52
203.656	179.88
203.874	206.8
204.093	744.03
204.311	929.02
204.53	247.06
204.748	868.3
204.967	146.82
205.185	88.08
205.404	-3428.12
205.622	410.29
205.841	144.62
206.059	140.7
206.278	177.3
206.496	122.37
206.715	201.9
206.933	312.11
207.151	270.49
207.37	815.67
207.588	-1169.41
207.806	949.6
208.025	256.04
208.243	298.1
208.461	209.58
208.68	183.8
208.898	126.77
209.116	120.11
209.335	137.32
209.553	141.33
209.771	117.44
209.989	102.4
210.208	96.65
210.426	64.73
210.644	70.81
210.862	92.27
211.081	80.28
211.299	124.77
211.517	106.98
211.735	108.46
211.953	127.6
212.171	147.95
212.39	283.16
212.608	562.73
212.826	2820
213.044	-971.69
213.262	26527.27
213.48	-5157.21
213.698	464.3
213.916	441.22
214.134	347.61
214.352	202.99
214.57	241.14
214.788	191.71
215.006	129.76
215.224	122.73
215.442	110.23
215.66	124.5
215.878	114.75
216.096	132.98
216.314	151.82
216.532	149.59
216.75	123.97
216.968	114.31
217.185	124
217.403	127.92
217.621	127.66
217.839	102.2
218.057	63.7
218.275	56.48
218.492	49.34
218.71	34.57
218.928	19.89
219.146	18.25
219.363	33.13
219.581	9.32
219.799	13.91
220.017	13.34
220.234	-31.83
220.452	63.81
220.67	49.24
220.887	44.26
221.105	12.54
221.323	30.05
221.54	42.78
221.758	9.35
221.976	3.01
222.193	2.1
222.411	-0.47
222.629	25.81
222.846	-21.8
223.064	-14.89
223.281	14.16
223.499	34.61
223.716	12.44
223.934	-3.45
224.151	23.29
224.369	50.09
224.586	63.83
224.804	72.6
225.021	69.95
225.239	86.28
225.456	83.81
225.674	70.91
225.891	59.43
226.108	71.69
226.326	63.88
226.543	71.74
226.76	65.11
226.978	58.04
227.195	51
227.413	42.88
227.63	37.9
227.847	32.51
228.064	31.37
228.282	28.18
228.499	24.2
228.716	23.55
228.934	18.77
229.151	19.46
229.368	19.59
229.585	17.44
229.802	17.79
230.02	19.1
230.237	15.67
230.454	15.33
230.671	15.62
230.888	13.33
231.105	10.89
231.323	7.58
231.54	6.16
231.757	5.67
231.974	7.02
232.191	8.91
232.408	6.67
232.625	12.17
232.842	14.61
233.059	16.08
233.276	18.43
233.493	24.71
233.71	25.54
233.927	21.3
234.144	23.34
234.361	21.29
234.578	18.94
234.795	21.41
235.012	21.51
235.229	21.05
235.446	23.29
235.663	21.43
235.879	20.36
236.096	25.85
236.313	24.6
236.53	27.92
236.747	30.36
236.964	29.93
237.181	21.07
237.397	22.34
237.614	23.44
237.831	19.38
238.048	19.29
238.264	21.04
238.481	17.69
238.698	22.1
238.915	23.85
239.131	24.55
239.348	22.23
239.565	29.39
239.781	28
239.998	27.11
240.215	26.19
240.431	28.24
240.648	24.9
240.865	24.86
241.081	25.42
241.298	20.17
241.514	18.05
241.731	19.68
241.947	17.22
242.164	17.15
242.38	16.72
242.597	17.2
242.814	16
243.03	15.07
243.246	12.85
243.463	10.63
243.679	11.86
243.896	11.4
244.112	10.16
244.329	9.89
244.545	9.82
244.762	9.74
244.978	10.98
245.194	12.47
245.411	14.53
245.627	16.78
245.843	17.09
246.06	14.21
246.276	14.92
246.492	14.48
246.709	14.73
246.925	14.54
247.141	13.85
247.357	12.94
247.574	12.25
247.79	11.69
248.006	11.84
248.222	11.85
248.439	12.71
248.655	12.62
248.871	13.22
249.087	13.51
249.303	12.46
249.519	13.2
249.736	12.83
249.952	11.79
250.168	12.83
250.384	11.27
250.6	11.26
250.816	11.41
251.032	13.08
251.248	10.73
251.464	9.33
251.68	11.35
251.896	10.92
252.112	11.23
252.328	13.18
252.544	13.37
252.76	15.9
252.976	15.14
253.192	14.96
253.408	13.11
253.624	14.78
253.84	16.05
254.056	14.78
254.272	16.36
254.487	18.73
254.703	19.6
254.919	20.48
255.135	16.89
255.351	17.47
255.567	18.47
255.782	17.59
255.998	15.92
256.214	15.87
256.43	16.16
256.646	15.12
256.861	16.09
257.077	14.66
257.293	12.72
257.508	14.9
257.724	15.47
257.94	14.74
258.155	13.03
258.371	12.86
258.587	12.19
258.802	12.64
259.018	10.79
259.234	9.9
259.449	10.05
259.665	9.78
259.88	9.71
260.096	9.45
260.312	9.56
260.527	10.27
260.743	10.31
260.958	10.33
261.174	9.36
261.389	10.35
261.605	10.16
261.82	10.04
262.036	10.68
262.251	10.42
262.466	10.73
262.682	10.61
262.897	10.98
263.113	10.93
263.328	10.18
263.543	11.02
263.759	11.27
263.974	11.7
264.189	10.53
264.405	8.88
264.62	8.31
264.835	9.83
265.051	9.97
265.266	9.69
265.481	9.69
265.696	10.57
265.912	10.77
266.127	10.83
266.342	9.77
266.557	11.24
266.773	13.35
266.988	12.3
267.203	11.57
267.418	12.45
267.633	13.76
267.848	13.37
268.064	12.84
268.279	12.86
268.494	12.88
268.709	13.88
268.924	12.03
269.139	12.25
269.354	13.33
269.569	13.6
269.784	11.93
269.999	10.23
270.214	10.08
270.429	10.07
270.644	9.76
270.859	8.84
271.074	8.53
271.289	9.23
271.504	8.13
271.719	7.14
271.934	6.08
272.149	6.47
272.363	7.29
272.578	7.59
272.793	7.72
273.008	7.85
273.223	8.13
273.438	8.04
273.653	8.34
273.867	8.27
274.082	9.6
274.297	9.7
274.512	9.42
274.726	9.72
274.941	9.39
275.156	10.18
275.371	10.16
275.585	10.28
275.8	10.55
276.015	10.89
276.229	10.9
276.444	10.68
276.659	10.72
276.873	11.44
277.088	10.09
277.302	11.37
277.517	10.22
277.732	10.08
277.946	11.09
278.161	11.12
278.375	11.49
278.59	11.35
278.804	10.55
279.019	10.53
279.233	10.02
279.448	11.67
279.662	10.63
279.877	10.34
280.091	9.88
280.306	10.05
280.52	8.88
280.735	8.2
280.949	8.31
281.163	8.48
281.378	9.55
281.592	9.96
281.806	9.67
282.021	9.48
282.235	9.7
282.449	10.64
282.664	9.04
282.878	9.67
283.092	10.32
283.307	10.13
283.521	10.04
283.735	10.69
283.949	10.43
284.164	9.84
284.378	10.16
284.592	10.22
284.806	9.57
285.02	10.27
285.234	10.46
285.449	9.94
285.663	10.37
285.877	10.5
286.091	9.45
286.305	9.93
286.519	9.7
286.733	9.73
286.947	10.25
287.161	10.92
287.375	10.04
287.589	9.18
287.803	9.39
288.017	9.4
288.231	9.96
288.445	9.98
288.659	9.65
288.873	10.45
289.087	9.23
289.301	8.75
289.515	9.09
289.729	10.85
289.943	10.99
290.157	10.18
290.371	9.22
290.584	9.15
290.798	9.73
291.012	10.58
291.226	10.11
291.44	11.42
291.654	12.2
291.867	11.45
292.081	10.64
292.295	11.2
292.509	12.22
292.722	14.37
292.936	14.03
293.15	13.22
293.364	11.63
293.577	11.64
293.791	12.58
294.005	11.73
294.218	11.97
294.432	11.48
294.645	11.64
294.859	12.16
295.073	11.06
295.286	10.91
295.5	11.12
295.713	11.1
295.927	10.97
296.14	9.26
296.354	9.75
296.568	9.03
296.781	9.9
296.994	9.94
297.208	9.51
297.421	10.2
297.635	9.92
297.848	9.53
298.062	9.67
298.275	9.43
298.489	10.63
298.702	8.78
298.915	9.7
299.129	8.69
299.342	7.68
299.555	7.68
299.769	7.2
299.982	8.12
300.195	8.55
300.409	8.6
300.622	9.71
300.835	9.33
301.048	11.4
301.262	10.72
301.475	12.14
301.688	12.98
301.901	12.59
302.115	12.77
302.328	12.7
302.541	13.46
302.754	13.52
302.967	13.09
303.18	11.42
303.393	12.3
303.607	12.31
303.82	10.27
304.033	11.26
304.246	11.91
304.459	11.77
304.672	11.43
304.885	10.85
305.098	11.55
305.311	11.64
305.524	12.46
305.737	11.08
305.95	11.99
306.163	12.07
306.376	12.08
306.589	11.32
306.802	10.71
307.015	9.5
307.228	9.33
307.44	8.89
307.653	10.69
307.866	12.74
308.079	13.47
308.292	13.05
308.505	12.48
308.718	12.51
308.93	12.71
309.143	12
309.356	13.08
309.569	12.57
309.781	12.09
309.994	10.56
310.207	9.37
310.42	9.49
310.632	9.45
310.845	10.41
311.058	9.72
311.27	10.08
311.483	11.42
311.696	11.12
311.908	11.31
312.121	10.94
312.333	10.69
312.546	10.83
312.759	10.37
312.971	9.96
313.184	10.77
313.396	10.87
313.609	9.53
313.821	8.04
314.034	7.63
314.246	8.22
314.459	9.73
314.671	9.82
314.884	9.79
315.096	10.47
315.309	10.16
315.521	9.08
315.733	9.18
315.946	10.37
316.158	11.61
316.371	11.52
316.583	11.48
316.795	11.07
317.008	10.14
317.22	10.05
317.432	9.31
317.644	9.08
317.857	9.35
318.069	9.32
318.281	10.79
318.494	10.65
318.706	11.78
318.918	10.33
319.13	10.41
319.342	11.62
319.555	10.88
319.767	10.75
319.979	11.29
320.191	12.49
320.403	12.36
320.615	11.5
320.827	11.3
321.039	11.18
321.252	12.32
321.464	11.77
321.676	11.78
321.888	12.33
322.1	12.95
322.312	12.81
322.524	11.69
322.736	12.1
322.948	10.46
323.16	9.88
323.372	9.27
323.584	8.78
323.796	8.26
324.007	8.1
324.219	7.63
324.431	7.29
324.643	7.36
324.855	9.17
325.067	8.35
325.279	9.86
325.491	9.73
325.702	9.52
325.914	9.97
326.126	10.11
326.338	9.7
326.55	10.42
326.761	9.88
326.973	9.4
327.185	8.72
327.396	10.56
327.608	9.72
327.82	10.72
328.032	11.18
328.243	10.78
328.455	11.09
328.666	11.82
328.878	12.23
329.09	12.73
329.301	14.63
329.513	11.47
329.725	10.27
329.936	9.55
330.148	10.08
330.359	10.86
330.571	11.69
330.782	10.61
330.994	9.43
331.205	8.65
331.417	8.27
331.628	8.42
331.84	10.51
332.051	10.37
332.262	10.85
332.474	9.7
332.685	9.46
332.897	8.6
333.108	9.06
333.319	9.85
333.531	10.58
333.742	11.55
333.953	10.64
334.165	11.23
334.376	10.58
334.587	11.24
334.799	11.41
335.01	11.68
335.221	13.32
335.432	13.67
335.644	13.63
335.855	13.07
336.066	12.04
336.277	11.11
336.488	11.41
336.7	12.41
336.911	12.39
337.122	13.09
337.333	11.39
337.544	10.14
337.755	10.89
337.966	11.15
338.177	11.18
338.388	11.64
338.599	12.71
338.811	11.21
339.022	10.09
339.233	10.17
339.444	8.89
339.655	10.09
339.866	8.55
340.076	6.44
340.287	6.62
340.498	5.38
340.709	4.46
340.92	4.28
341.131	4.91
341.342	5.27
341.553	4.96
341.764	5.32
341.975	4.82
342.185	6.5
342.396	7.2
342.607	7.05
342.818	7.41
343.029	9.21
343.239	9.22
343.45	9.2
343.661	8.82
343.872	8.08
344.082	8
344.293	8.45
344.504	8.75
344.714	7.68
344.925	6.38
345.136	7.36
345.346	6.23
345.557	6.41
345.768	6.59
345.978	7.33
346.189	8.51
346.399	8.99
346.61	9.14
346.821	9.12
347.031	10.41
347.242	12.02
347.452	12.17
347.663	12.51
347.873	13.58
348.084	13.38
348.294	13.78
348.504	13.67
348.715	13.21
348.925	13.19
349.136	12.55
349.346	12.6
349.557	12.05
349.767	11.01
349.977	11.11
350.188	10.08
350.398	10.06
350.608	9.54
350.819	8.53
351.029	8.61
351.239	8.47
351.449	8.6
351.66	8.15
351.87	8.39
352.08	9.19
352.29	8.96
352.501	8.53
352.711	8.06
352.921	8.11
353.131	9
353.341	8.51
353.552	8.29
353.762	8.68
353.972	9.29
354.182	8.99
354.392	9.39
354.602	10.3
354.812	9.99
355.022	9.67
355.232	10.47
355.442	9.62
355.652	10.8
355.862	11.06
356.072	11.3
356.282	11.29
356.492	11.23
356.702	10.63
356.912	8.99
357.122	9.96
357.332	9.94
357.542	8.99
357.752	9.12
357.962	8.6
358.171	8.62
358.381	7.05
358.591	6.99
358.801	6.5
359.011	6.81
359.221	7.82
359.43	7.23
359.64	7.66
359.85	7.38
360.06	7.84
360.269	7.42
360.479	7.21
360.689	7.6
360.899	7.52
361.108	8.06
361.318	7.51
361.528	7.4
361.737	7.66
361.947	7.9
362.156	7.94
362.366	7.82
362.576	8.15
362.785	7.6
362.995	7.58
363.204	7.2
363.414	7.14
363.623	7.85
363.833	8.23
364.042	8.02
364.252	9.02
364.461	8.61
364.671	8.33
364.88	7.78
365.09	8.2
365.299	8.88
365.509	8.96
365.718	8.23
365.927	7.84
366.137	7.37
366.346	7.84
366.555	7.36
366.765	7.57
366.974	8.25
367.183	8.19
367.393	8.71
367.602	8.4
367.811	8.75
368.021	9.36
368.23	9.28
368.439	8.7
368.648	7.83
368.857	7.37
369.067	7.54
369.276	6.69
369.485	7.25
369.694	6.87
369.903	6.6
370.112	6.94
370.321	6.35
370.531	6.34
370.74	6.9
370.949	6.75
371.158	6.14
371.367	6.1
371.576	6.32
371.785	5.07
371.994	4.77
372.203	4.79
372.412	4.73
372.621	4.3
372.83	3.63
373.039	4.28
373.248	4.23
373.457	4.44
373.666	5.07
373.874	4.69
374.083	5.5
374.292	5.19
374.501	4.76
374.71	3.97
374.919	5.05
375.128	5.44
375.336	4.48
375.545	4.81
375.754	5.05
375.963	3.94
376.171	4.33
376.38	4.21
376.589	4.88
376.798	5.82
377.006	6.02
377.215	6.13
377.424	6.37
377.632	7.01
377.841	7.07
378.05	6.68
378.258	6.81
378.467	7.12
378.675	7.02
378.884	6.25
379.093	6.36
379.301	6.43
379.51	6.08
379.718	5.9
379.927	4.99
380.135	4.78
380.344	4.46
380.552	4.84
380.761	4.23
380.969	4.08
381.177	4.66
381.386	4.58
381.594	4.66
381.803	4.64
382.011	5.16
382.219	5.47
382.428	5.69
382.636	5.81
382.845	5.71
383.053	5.75
383.261	5.99
383.469	5.86
383.678	5.49
383.886	5.35
384.094	5.45
384.302	4.44
384.511	4.63
384.719	4.33
384.927	4.42
385.135	4.77
385.343	4.67
385.552	4.98
385.76	4.83
385.968	4.92
386.176	5.04
386.384	4.48
386.592	4.94
386.8	4.48
387.008	4.9
387.216	5.02
387.424	4.77
387.633	5.07
387.841	4.83
388.049	5.05
388.257	4.95
388.465	4.94
388.672	5.23
388.88	5.08
389.088	4.99
389.296	4.76
389.504	5.2
389.712	5.63
389.92	5.63
390.128	5.66
390.336	5.62
390.544	5.27
390.751	5.19
390.959	5.32
391.167	5.14
391.375	5.28
391.583	5.64
391.79	5.13
391.998	4.88
392.206	4.72
392.414	4.47
392.621	4.45
392.829	4.59
393.037	4.45
393.244	4.33
393.452	4.53
393.66	4.43
393.867	4.22
394.075	4.39
394.283	4.22
394.49	4.03
394.698	4.06
394.905	3.87
395.113	4.09
395.32	4.23
395.528	4.23
395.735	4.45
395.943	4.58
396.15	4.44
396.358	4.1
396.565	3.83
396.773	3.93
396.98	4.03
397.188	4.15
397.395	4.35
397.602	4.39
397.81	4.58
398.017	4.28
398.225	4.3
398.432	4.46
398.639	4.3
398.847	4.61
399.054	4.91
399.261	4.83
399.468	4.87
399.676	4.33
399.883	3.91
400.09	3.67
400.297	3.52
400.505	3.92
400.712	3.63
400.919	3.9
401.126	3.86
401.333	3.69
401.54	3.73
401.748	3.53
401.955	3.58
402.162	3.78
402.369	4.01
402.576	4.19
402.783	3.73
402.99	3.37
403.197	3.48
403.404	3.12
403.611	3.07
403.818	3.16
404.025	2.95
404.232	3.04
404.439	3.32
404.646	3.04
404.853	2.78
405.06	3.03
405.267	3.2
405.474	2.91
405.681	3.29
405.887	3.15
406.094	3.15
406.301	3.16
406.508	3.09
406.715	3.01
406.922	3
407.128	3.25
407.335	3.01
407.542	3.23
407.749	3.35
407.955	3.26
408.162	3.37
408.369	3.39
408.575	3.88
408.782	3.78
408.989	3.82
409.195	3.87
409.402	3.63
409.609	3.48
409.815	3.51
410.022	3.94
410.228	3.89
410.435	3.87
410.642	3.94
410.848	4.02
411.055	4.28
411.261	3.88
411.468	4.14
411.674	4.33
411.881	4.25
412.087	3.77
412.294	3.35
412.5	3.19
412.706	3.17
412.913	3.43
413.119	2.99
413.326	2.51
413.532	2.7
413.738	2.26
413.945	2.16
414.151	2.61
414.357	2.9
414.564	2.83
414.77	2.81
414.976	2.72
415.182	2.68
415.389	2.61
415.595	3.11
415.801	3.17
416.007	3.48
416.214	3.51
416.42	3.37
416.626	3.4
416.832	3.5
417.038	3.55
417.244	3.47
417.45	3.2
417.657	3.26
417.863	3.07
418.069	3.06
418.275	2.9
418.481	2.98
418.687	2.93
418.893	3
419.099	3.1
419.305	3.22
419.511	3.34
419.717	3.3
419.923	3.28
420.129	3.23
420.335	3.14
420.541	3.13
420.746	3.14
420.952	3.1
421.158	3.16
421.364	3.06
421.57	2.99
421.776	2.9
421.982	2.86
422.187	2.92
422.393	2.84
422.599	2.89
422.805	2.86
423.01	2.99
423.216	2.97
423.422	2.99
423.628	3.05
423.833	2.97
424.039	2.98
424.245	2.98
424.45	2.96
424.656	3.09
424.862	3.03
425.067	2.98
425.273	2.76
425.478	2.77
425.684	2.51
425.889	2.49
426.095	2.54
426.301	2.55
426.506	2.6
426.712	2.43
426.917	2.28
427.123	2.16
427.328	2.24
427.533	2.14
427.739	2.17
427.944	2.21
428.15	2.34
428.355	1.99
428.561	1.9
428.766	1.79
428.971	2
429.177	2.2
429.382	2.28
429.587	2.29
429.793	2.41
429.998	2.4
430.203	2.59
430.408	2.54
430.614	2.94
430.819	3.1
431.024	3.26
431.229	3.11
431.434	2.89
431.64	2.9
431.845	2.91
432.05	2.87
432.255	2.88
432.46	2.79
432.665	2.6
432.87	2.57
433.076	2.6
433.281	2.53
433.486	2.64
433.691	2.67
433.896	2.73
434.101	2.7
434.306	2.83
434.511	2.73
434.716	2.81
434.921	2.82
435.126	2.75
435.331	2.7
435.535	2.76
435.74	2.57
435.945	2.67
436.15	2.7
436.355	2.88
436.56	2.76
436.765	2.58
436.97	2.51
437.174	2.42
437.379	2.46
437.584	2.37
437.789	2.41
437.993	2.65
438.198	2.7
438.403	2.64
438.608	2.57
438.812	2.57
439.017	2.67
439.222	2.54
439.426	2.57
439.631	2.55
439.836	2.61
440.04	2.52
440.245	2.56
440.45	2.47
440.654	2.44
440.859	2.42
441.063	2.49
441.268	2.56
441.472	2.68
441.677	2.67
441.881	2.69
442.086	2.67
442.29	2.63
442.495	2.48
442.699	2.53
442.904	2.4
443.108	2.34
443.312	2.23
443.517	2.2
443.721	2.07
443.925	2.02
444.13	1.85
444.334	1.72
444.538	1.78
444.743	1.74
444.947	1.73
445.151	1.81
445.356	1.91
445.56	1.94
445.764	1.99
445.968	2.08
446.173	2.15
446.377	2.42
446.581	2.42
446.785	2.28
446.989	2.25
447.193	2.39
447.398	2.42
447.602	2.32
447.806	2.24
448.01	2.29
448.214	2.27
448.418	2.26
448.622	2.23
448.826	2.33
449.03	2.49
449.234	2.78
449.438	2.79
449.642	2.98
449.846	3.1
450.05	3.14
450.254	3.02
450.458	2.95
450.662	3.02
450.866	2.9
451.069	2.88
451.273	2.88
451.477	2.64
451.681	2.64
451.885	2.58
452.089	2.46
452.292	2.51
452.496	2.48
452.7	2.52
452.904	2.63
453.107	2.71
453.311	2.74
453.515	2.61
453.719	2.61
453.922	2.66
454.126	2.56
454.33	2.56
454.533	2.61
454.737	2.76
454.94	2.96
455.144	2.62
455.348	2.52
455.551	2.71
455.755	2.99
455.958	2.96
456.162	2.7
456.365	2.67
456.569	2.67
456.772	2.57
456.976	2.51
457.179	2.27
457.383	2.53
457.586	2.59
457.79	2.41
457.993	2.34
458.196	2.32
458.4	2.42
458.603	2.61
458.807	2.61
459.01	2.61
459.213	2.56
459.417	2.62
459.62	2.5
459.823	2.54
460.026	2.47
460.23	2.33
460.433	2.37
460.636	2.32
460.839	2.12
461.042	2.18
461.246	2.23
461.449	2.26
461.652	2.2
461.855	2.36
462.058	2.32
462.261	2.4
462.464	2.63
462.668	2.62
462.871	2.46
463.074	2.55
463.277	2.46
463.48	2.51
463.683	2.63
463.886	2.58
464.089	2.47
464.292	2.7
464.495	2.78
464.698	2.68
464.901	2.56
465.104	2.79
465.306	2.92
465.509	2.83
465.712	2.67
465.915	2.54
466.118	2.61
466.321	2.51
466.524	2.27
466.726	2.09
466.929	2.05
467.132	2.31
467.335	2.15
467.538	1.91
467.74	1.9
467.943	1.85
468.146	1.95
468.348	2.11
468.551	2.12
468.754	2.01
468.956	2.15
469.159	2.35
469.362	2.41
469.564	2.59
469.767	2.78
469.969	2.78
470.172	2.92
470.375	2.91
470.577	2.87
470.78	2.85
470.982	2.89
471.185	2.76
471.387	2.58
471.59	2.44
471.792	2.29
471.995	2.29
472.197	2.33
472.399	2.49
472.602	2.35
472.804	2.34
473.007	2.51
473.209	2.48
473.411	2.37
473.614	2.42
473.816	2.45
474.018	2.55
474.22	2.52
474.423	2.63
474.625	2.38
474.827	2.48
475.03	2.43
475.232	2.57
475.434	2.65
475.636	2.87
475.838	2.75
476.04	2.67
476.243	2.45
476.445	2.38
476.647	2.13
476.849	2.17
477.051	2.11
477.253	2.16
477.455	2.05
477.657	2.02
477.859	1.91
478.061	2.14
478.263	2.19
478.465	2.29
478.667	2.46
478.869	2.71
479.071	2.64
479.273	2.56
479.475	2.54
479.677	2.41
479.879	2.52
480.081	2.63
480.283	2.57
480.485	2.5
480.686	2.49
480.888	2.53
481.09	2.35
481.292	2.38
481.494	2.4
481.695	2.28
481.897	2.4
482.099	2.37
482.301	2.32
482.502	2.16
482.704	2.25
482.906	2.27
483.107	2.11
483.309	2.14
483.511	2.18
483.712	2.18
483.914	2.17
484.115	2.14
484.317	2.09
484.519	2.03
484.72	2.06
484.922	2.03
485.123	1.99
485.325	2.02
485.526	2.02
485.728	2
485.929	1.96
486.131	1.96
486.332	1.92
486.534	1.87
486.735	1.88
486.936	1.86
487.138	1.8
487.339	1.8
487.541	1.87
487.742	1.84
487.943	1.78
488.144	1.84
488.346	1.89
488.547	1.91
488.748	1.99
488.95	2.03
489.151	2.02
489.352	2.04
489.553	2.06
489.755	2.1
489.956	2.15
490.157	2.21
490.358	2.24
490.559	2.22
490.76	2.23
490.961	2.19
491.163	2.25
491.364	2.31
491.565	2.3
491.766	2.32
491.967	2.25
492.168	2.33
492.369	2.35
492.57	2.3
492.771	2.34
492.972	2.4
493.173	2.36
493.374	2.45
493.575	2.47
493.776	2.56
493.976	2.65
494.177	2.59
494.378	2.47
494.579	2.44
494.78	2.43
494.981	2.27
495.182	2.18
495.382	2.32
495.583	2.12
495.784	2.02
495.985	1.91
496.185	1.76
496.386	1.86
496.587	1.78
496.788	1.81
496.988	1.8
497.189	1.74
497.39	1.79
497.59	1.85
497.791	1.84
497.992	2.07
498.192	2.11
498.393	2.18
498.593	2.06
498.794	2.06
498.994	2.08
499.195	2.17
499.395	2.25
499.596	2.18
499.796	2.15
499.997	2.22
500.197	2.13
500.398	2.13
500.598	2.07
500.799	2.13
500.999	2.2
501.199	2.17
501.4	2.25
501.6	2.43
501.801	2.53
502.001	2.33
502.201	2.34
502.402	2.29
502.602	2.38
502.802	2.44
503.002	2.5
503.203	2.65
503.403	2.78
503.603	2.72
503.803	2.59
504.003	2.53
504.204	2.61
504.404	2.61
504.604	2.68
504.804	2.54
505.004	2.55
505.204	2.49
505.404	2.4
505.604	2.16
505.804	2.06
506.005	2
506.205	1.88
506.405	2
506.605	2.15
506.805	2.1
507.005	2.15
507.204	2.16
507.404	2.25
507.604	2.36
507.804	2.52
508.004	2.65
508.204	2.67
508.404	2.74
508.604	2.71
508.804	2.55
509.003	2.5
509.203	2.41
509.403	2.45
509.603	2.49
509.803	2.38
510.002	2.38
510.202	2.36
510.402	2.36
510.602	2.49
510.801	2.4
511.001	2.32
511.201	2.33
511.4	2.45
511.6	2.5
511.8	2.53
511.999	2.59
512.199	2.53
512.398	2.46
512.598	2.5
512.797	2.41
512.997	2.46
513.197	2.42
513.396	2.42
513.596	2.44
513.795	2.44
513.994	2.43
514.194	2.26
514.393	2.32
514.593	2.39
514.792	2.45
514.992	2.45
515.191	2.38
515.39	2.41
515.59	2.27
515.789	2.19
515.988	2.03
516.188	2.12
516.387	2.27
516.586	2.23
516.786	2.31
516.985	2.48
517.184	2.39
517.383	2.49
517.582	2.6
517.782	2.69
517.981	2.65
518.18	2.7
518.379	2.72
518.578	2.64
518.777	2.65
518.976	2.61
519.176	2.56
519.375	2.69
519.574	2.65
519.773	2.69
519.972	2.73
520.171	2.81
520.37	2.78
520.569	2.65
520.768	2.83
520.967	2.91
521.166	3.07
521.365	2.84
521.564	2.83
521.762	2.93
521.961	2.84
522.16	2.92
522.359	2.98
522.558	3.01
522.757	3.03
522.956	2.8
523.154	2.7
523.353	2.59
523.552	2.77
523.751	2.7
523.949	2.67
524.148	2.61
524.347	2.62
524.546	2.53
524.744	2.5
524.943	2.47
525.142	2.52
525.34	2.54
525.539	2.47
525.737	2.39
525.936	2.48
526.135	2.55
526.333	2.53
526.532	2.45
526.73	2.63
526.929	2.75
527.127	2.74
527.326	2.76
527.524	2.8
527.723	2.75
527.921	2.78
528.12	2.72
528.318	2.71
528.516	2.69
528.715	2.67
528.913	2.61
529.112	2.6
529.31	2.63
529.508	2.59
529.707	2.58
529.905	2.65
530.103	2.63
530.301	2.68
530.5	2.65
530.698	2.67
530.896	2.77
531.094	2.76
531.293	2.66
531.491	2.76
531.689	2.84
531.887	2.77
532.085	2.72
532.283	2.73
532.481	2.68
532.68	2.77
532.878	2.85
533.076	2.81
533.274	2.86
533.472	2.95
533.67	2.92
533.868	2.92
534.066	2.94
534.264	2.94
534.462	3
534.66	3.11
534.858	3.06
535.056	3.11
535.253	3.19
535.451	3.21
535.649	3.27
535.847	3.23
536.045	3.3
536.243	3.37
536.441	3.44
536.638	3.41
536.836	3.41
537.034	3.48
537.232	3.49
537.43	3.47
537.627	3.61
537.825	3.51
538.023	3.62
538.22	3.51
538.418	3.48
538.616	3.48
538.813	3.54
539.011	3.55
539.209	3.46
539.406	3.49
539.604	3.65
539.801	3.57
539.999	3.69
540.196	3.65
540.394	3.82
540.591	3.96
540.789	4.04
540.986	4.01
541.184	4.01
541.381	4.08
541.579	4.1
541.776	4.01
541.974	4.02
542.171	4.01
542.368	4.02
542.566	3.92
542.763	3.87
542.96	3.88
543.158	3.97
543.355	3.96
543.552	3.87
543.75	3.8
543.947	3.91
544.144	3.95
544.341	4
544.539	4.16
544.736	4.21
544.933	4.41
545.13	4.44
545.327	4.43
545.524	4.5
545.722	4.69
545.919	4.86
546.116	4.87
546.313	4.93
546.51	4.99
546.707	4.98
546.904	5.13
547.101	5.05
547.298	4.95
547.495	4.96
547.692	5
547.889	5.16
548.086	5.22
548.283	5.32
548.48	5.15
548.677	5.14
548.874	5.01
549.07	5.09
549.267	5.13
549.464	5.37
549.661	5.46
549.858	5.57
550.055	5.55
550.251	5.5
550.448	5.39
550.645	5.62
550.842	5.75
551.038	5.74
551.235	5.66
551.432	5.72
551.628	5.61
551.825	5.57
552.022	5.69
552.218	5.63
552.415	5.67
552.612	5.78
552.808	5.78
553.005	5.82
553.201	5.93
553.398	6.14
553.594	6.05
553.791	6.33
553.987	6.61
554.184	6.42
554.38	6.45
554.577	6.47
554.773	6.4
554.97	6.52
555.166	6.42
555.362	6.44
555.559	6.58
555.755	6.72
555.952	6.54
556.148	6.32
556.344	6.69
556.541	6.81
556.737	6.94
556.933	7.04
557.129	7.32
557.326	7.31
557.522	7.52
557.718	7.33
557.914	7.35
558.11	7.49
558.307	7.47
558.503	7.07
558.699	7.04
558.895	7.05
559.091	7.26
559.287	7.06
559.483	7.38
559.679	7.34
559.876	7.53
560.072	7.82
560.268	7.89
560.464	8.13
560.66	8.46
560.856	8.41
561.052	8.34
561.247	8.48
561.443	8.56
561.639	8.4
561.835	8.16
562.031	8.13
562.227	8
562.423	7.82
562.619	7.87
562.815	7.85
563.01	8.09
563.206	8.19
563.402	8.1
563.598	8.14
563.793	8.12
563.989	8.48
564.185	8.61
564.381	8.68
564.576	8.96
564.772	9.04
564.968	9.05
565.163	9.05
565.359	9.06
565.555	9.14
565.75	9.13
565.946	9.15
566.141	9.22
566.337	9.13
566.532	9.11
566.728	9.02
566.923	8.91
567.119	9
567.314	8.94
567.51	9.07
567.705	9.03
567.901	9.07
568.096	9.2
568.292	9.27
568.487	9.38
568.682	9.39
568.878	9.66
569.073	9.65
569.268	9.97
569.464	10.16
569.659	10.3
569.854	10.29
570.05	10.51
570.245	10.65
570.44	10.56
570.635	10.51
570.831	10.66
571.026	10.64
571.221	10.77
571.416	10.42
571.611	10.36
571.806	10.2
572.002	10.27
572.197	10.18
572.392	10.24
572.587	10.31
572.782	10.33
572.977	10.36
573.172	10.5
573.367	10.58
573.562	10.68
573.757	10.82
573.952	10.84
574.147	10.89
574.342	10.98
574.537	10.9
574.732	10.79
574.927	10.94
575.121	10.79
575.316	10.86
575.511	10.88
575.706	10.97
575.901	10.79
576.096	10.84
576.29	11.03
576.485	10.89
576.68	11.05
576.875	11.22
577.069	11.35
577.264	11.56
577.459	11.2
577.654	11.06
577.848	10.96
578.043	11.07
578.238	11.21
578.432	11.09
578.627	11.18
578.821	11.2
579.016	11.2
579.21	10.9
579.405	10.92
579.6	11.01
579.794	11.23
579.989	11.56
580.183	11.42
580.378	11.52
580.572	11.69
580.766	11.62
580.961	11.72
581.155	11.83
581.35	11.86
581.544	11.95
581.738	12.09
581.933	12.07
582.127	12.15
582.321	12.56
582.516	12.55
582.71	12.42
582.904	12.52
583.099	12.38
583.293	12.2
583.487	12.38
583.681	12.21
583.875	12.19
584.07	12.34
584.264	12.12
584.458	12.11
584.652	11.98
584.846	12.08
585.04	12.26
585.234	12.16
585.428	12.64
585.623	12.57
585.817	12.81
586.011	12.79
586.205	12.6
586.399	12.52
586.593	12.37
586.787	12.4
586.981	12.26
587.174	12.17
587.368	12.28
587.562	12.12
587.756	12.18
587.95	12.01
588.144	12.12
588.338	12.15
588.532	12.17
588.725	12.46
588.919	12.62
589.113	12.54
589.307	12.73
589.501	12.77
589.694	12.59
589.888	12.69
590.082	12.79
590.275	12.81
590.469	13.03
590.663	13.06
590.856	12.95
591.05	12.69
591.244	12.83
591.437	12.63
591.631	12.4
591.824	12.73
592.018	12.63
592.212	12.55
592.405	12.57
592.599	12.46
592.792	12.51
592.986	12.61
593.179	12.7
593.372	12.57
593.566	12.62
593.759	12.7
593.953	12.47
594.146	12.55
594.339	12.54
594.533	12.39
594.726	12.24
594.92	12.38
595.113	12.24
595.306	12.43
595.499	12.45
595.693	12.4
595.886	12.39
596.079	12.49
596.272	12.39
596.466	12.44
596.659	12.52
596.852	12.59
597.045	12.61
597.238	12.64
597.431	12.47
597.624	12.44
597.818	12.66
598.011	12.79
598.204	12.78
598.397	12.92
598.59	12.87
598.783	12.83
598.976	13.12
599.169	13.05
599.362	13.27
599.555	13.33
599.748	13.28
599.941	13.05
600.134	13.25
600.326	13.17
600.519	13.11
600.712	13.26
600.905	13.49
601.098	13.28
601.291	13.14
601.483	12.7
601.676	12.79
601.869	12.89
602.062	13
602.255	12.83
602.447	12.91
602.64	12.86
602.833	13.05
603.025	12.69
603.218	12.66
603.411	12.83
603.603	13.14
603.796	13.05
603.989	13.02
604.181	12.94
604.374	12.82
604.566	12.72
604.759	12.7
604.951	12.52
605.144	12.72
605.336	12.87
605.529	12.71
605.721	12.43
605.914	12.48
606.106	12.52
606.299	12.6
606.491	12.73
606.683	12.93
606.876	12.95
607.068	13.14
607.26	13.36
607.453	13.05
607.645	13.1
607.837	13.18
608.03	13.36
608.222	13.29
608.414	13.11
608.606	13.23
608.799	13.09
608.991	13.12
609.183	12.94
609.375	12.71
609.567	13.04
609.759	13.33
609.952	13.47
610.144	13.55
610.336	13.57
610.528	13.69
610.72	13.45
610.912	13.45
611.104	13.52
611.296	13.56
611.488	13.43
611.68	13.31
611.872	13.05
612.064	13.18
612.256	13.11
612.448	13.44
612.64	13.38
612.832	13.51
613.023	13.38
613.215	13.26
613.407	13.35
613.599	13.51
613.791	13.44
613.983	13.29
614.174	13.09
614.366	12.83
614.558	12.61
614.75	12.72
614.941	12.38
615.133	12.33
615.325	12.4
615.516	12.5
615.708	12.55
615.9	12.55
616.091	12.67
616.283	12.55
616.475	12.68
616.666	12.85
616.858	12.81
617.049	13.1
617.241	13.39
617.432	13.45
617.624	13.25
617.815	13.23
618.007	13.06
618.198	13.09
618.39	13.6
618.581	13.48
618.773	13.27
618.964	13.24
619.155	13.1
619.347	13.09
619.538	13.1
619.729	13.28
619.921	13.49
620.112	13.56
620.303	13.34
620.494	12.68
620.686	12.91
620.877	12.96
621.068	13.05
621.259	12.96
621.451	13.07
621.642	12.92
621.833	12.84
622.024	12.8
622.215	12.98
622.406	13.19
622.597	13.46
622.788	13.17
622.98	13.28
623.171	13.29
623.362	13.74
623.553	13.86
623.744	13.92
623.935	13.9
624.126	13.98
624.317	13.92
624.508	14
624.698	13.91
624.889	14.01
625.08	13.63
625.271	13.62
625.462	13.47
625.653	13.2
625.844	13.16
626.034	13.11
626.225	12.94
626.416	12.9
626.607	12.78
626.798	12.74
626.988	12.8
627.179	13.12
627.37	13.05
627.56	12.98
627.751	13.03
627.942	12.87
628.132	12.78
628.323	12.61
628.514	12.49
628.704	12.56
628.895	12.83
629.085	12.83
629.276	12.81
629.466	13.08
629.657	13.13
629.847	13.11
630.038	13.37
630.228	13.29
630.419	13.39
630.609	13.28
630.8	13.29
630.99	13.14
631.181	12.98
631.371	12.98
631.561	12.83
631.752	13.05
631.942	13
632.132	13.18
632.323	13.56
632.513	13.97
632.703	14.33
632.893	14.43
633.084	14.51
633.274	14.49
633.464	14.38
633.654	14.03
633.844	13.78
634.034	13.97
634.225	13.9
634.415	13.84
634.605	13.71
634.795	13.63
634.985	13.27
635.175	13.26
635.365	13.32
635.555	13.66
635.745	13.91
635.935	13.87
636.125	13.77
636.315	13.87
636.505	13.7
636.695	13.63
636.885	13.45
637.075	13.89
637.265	13.72
637.455	13.95
637.644	13.43
637.834	13.57
638.024	13.67
638.214	13.84
638.404	13.25
638.593	13.23
638.783	12.97
638.973	13.13
639.163	13.37
639.352	13.26
639.542	13.2
639.732	13.44
639.921	13.14
640.111	13.2
640.301	13.32
640.49	14.01
640.68	14.22
640.87	14.5
641.059	14.53
641.249	14.14
641.438	14.34
641.628	14.26
641.817	14.14
642.007	14.07
642.196	14.1
642.386	13.9
642.575	13.31
642.764	13.03
642.954	13.05
643.143	12.8
643.333	12.55
643.522	13.01
643.711	13.31
643.901	13.37
644.09	13.57
644.279	13.5
644.469	13.32
644.658	13.48
644.847	13.76
645.036	13.49
645.226	13.79
645.415	14.22
645.604	13.48
645.793	12.94
645.982	12.85
646.171	13.19
646.361	13.27
646.55	13.34
646.739	13.85
646.928	13.59
647.117	13.52
647.306	13.39
647.495	13.15
647.684	13.16
647.873	13.23
648.062	13.38
648.251	13
648.44	13.02
648.629	12.94
648.818	12.39
649.007	12.72
649.196	12.81
649.384	12.93
649.573	13.18
649.762	13.04
649.951	13.31
650.14	13.33
650.328	13.38
650.517	12.91
650.706	13.01
650.895	13.18
651.083	13.13
651.272	13.11
651.461	13.15
651.65	12.86
651.838	13.35
652.027	13.22
652.216	12.96
652.404	13.31
652.593	13.84
652.781	13.35
652.97	13.39
653.158	13.23
653.347	13.11
653.535	12.82
653.724	13.05
653.912	13.05
654.101	12.93
654.289	12.78
654.478	12.58
654.666	12.15
654.855	12.7
655.043	13.01
655.231	13.01
655.42	13.11
655.608	13.21
655.796	13.42
655.985	13.03
656.173	13.55
656.361	13.53
656.55	14.03
656.738	14.45
656.926	14.23
657.114	13.76
657.302	13.39
657.491	13.46
657.679	13.28
657.867	12.9
658.055	12.98
658.243	12.58
658.431	12.78
658.619	12.69
658.807	12.93
658.996	12.98
659.184	13.22
659.372	13.2
659.56	13.03
659.748	12.89
659.936	12.96
660.124	13.11
660.311	13.53
660.499	13.92
660.687	13.45
660.875	13.32
661.063	13.29
661.251	13.3
661.439	13.82
661.627	14.25
661.814	14.94
662.002	15.04
662.19	14.91
662.378	14.48
662.565	14.24
662.753	14.64
662.941	14.32
663.129	14.52
663.316	14.4
663.504	14.37
663.692	14.26
663.879	13.84
664.067	13.55
664.254	13.67
664.442	13.45
664.63	13.63
664.817	13.37
665.005	13.46
665.192	13.52
665.38	13.87
665.567	13.18
665.755	12.75
665.942	13.22
666.13	13.23
666.317	13.36
666.504	13.61
666.692	13.35
666.879	13.13
667.067	13.33
667.254	13.41
667.441	13.09
667.629	13.92
667.816	14.38
668.003	14.3
668.19	14.48
668.378	14.23
668.565	14.02
668.752	13.98
668.939	14.07
669.127	13.99
669.314	13.94
669.501	14.06
669.688	13.89
669.875	13.71
670.062	13.56
670.249	13.72
670.436	14.08
670.623	14.52
670.81	14.5
670.997	14.27
671.184	14.33
671.371	14.42
671.558	13.84
671.745	13.75
671.932	13.92
672.119	13.86
672.306	13.66
672.493	12.92
672.68	12.42
672.867	12.37
673.054	12.78
673.24	12.71
673.427	13.09
673.614	13.28
673.801	13.34
673.988	14.01
674.174	13.75
674.361	13.69
674.548	14.08
674.734	14.37
674.921	14.5
675.108	14.55
675.294	14.45
675.481	13.91
675.668	14.28
675.854	14.73
676.041	13.84
676.227	13.92
676.414	13.67
676.601	13.86
676.787	14
676.974	14.73
677.16	15.01
677.347	15.04
677.533	15.58
677.719	15.06
677.906	14.72
678.092	14.92
678.279	14.75
678.465	15.42
678.651	15.32
678.838	15.42
679.024	14.9
679.21	14.43
679.397	14.45
679.583	13.69
679.769	13.75
679.955	13.49
680.142	13.37
680.328	13.36
680.514	12.85
680.7	13.1
680.886	13.09
681.073	12.73
681.259	12.9
681.445	12.83
681.631	12.85
681.817	13.1
682.003	13.54
682.189	13.63
682.375	13.95
682.561	14.35
682.747	14.13
682.933	14.26
683.119	14.47
683.305	14.53
683.491	14.5
683.677	14.45
683.863	14.39
684.049	13.77
684.235	13.56
684.42	13.65
684.606	13.14
684.792	13.39
684.978	12.72
685.164	13.05
685.349	13.02
685.535	13.45
685.721	13.94
685.907	13.65
686.092	14.38
686.278	14.45
686.464	14.51
686.649	14.84
686.835	14.74
687.021	14.51
687.206	14.21
687.392	13.97
687.577	13.3
687.763	12.91
687.948	13.32
688.134	13.17
688.319	13.39
688.505	13.1
688.69	13.17
688.876	13.67
689.061	14.28
689.247	14.56
689.432	14.71
689.618	15.09
689.803	15.78
689.988	15.87
690.174	15.94
690.359	15.69
690.544	15.7
690.73	14.9
690.915	13.85
691.1	13.61
691.285	13.48
691.471	13.36
691.656	13.72
691.841	13.53
692.026	13.86
692.211	13.87
692.396	14.41
692.582	14.79
692.767	15.98
692.952	16.35
693.137	16.39
693.322	16.23
693.507	16.64
693.692	15.95
693.877	15.57
694.062	15.22
694.247	15.09
694.432	15.3
694.617	15.35
694.802	15.23
694.987	15.2
695.172	15.4
695.357	15.24
695.541	15.15
695.726	15.5
695.911	15.32
696.096	15.23
696.281	14.85
696.466	14.16
696.65	13.84
696.835	13.45
697.02	13.52
697.204	13.6
697.389	14.73
697.574	14.15
697.759	14.45
697.943	14.7
698.128	14.79
698.312	15.02
698.497	15.31
698.682	15.25
698.866	15.04
699.051	14.84
699.235	14.6
699.42	13.48
699.604	14.08
699.789	13.65
699.973	13.45
700.158	13.59
700.342	13.43
700.527	13.06
700.711	13.51
700.895	14.23
701.08	14.68
701.264	15.09
701.448	15.79
701.633	15.22
701.817	15.05
702.001	15.52
702.186	15.18
702.37	15.13
702.554	14.81
702.738	14.45
702.923	14.15
703.107	14.12
703.291	14.2
703.475	14.11
703.659	14.51
703.843	14.54
704.027	14.7
704.212	14.92
704.396	14.45
704.58	14.88
704.764	14.62
704.948	14.84
705.132	14.67
705.316	14.12
705.5	13.49
705.684	13.28
705.868	13.28
706.052	13.04
706.235	12.88
706.419	13.42
706.603	13.96
706.787	14.16
706.971	13.75
707.155	13.58
707.339	14.27
707.522	15.43
707.706	15.26
707.89	16.11
708.074	15.52
708.257	14.98
708.441	14.52
708.625	14.23
708.808	14.26
708.992	14.34
709.176	15.17
709.359	14.47
709.543	13.45
709.727	14.67
709.91	14.83
710.094	15.52
710.277	16.56
710.461	17.09
710.644	17.25
710.828	17.15
711.011	17.16
711.195	16.56
711.378	16.91
711.562	17.93
711.745	16.55
711.928	17.13
712.112	16.43
712.295	15.62
712.478	15.6
712.662	15.87
712.845	15.98
713.028	16.22
713.212	16.02
713.395	15.99
713.578	15.57
713.761	16.26
713.945	15.74
714.128	16.33
714.311	16.65
714.494	16.77
714.677	16.64
714.86	17.27
715.043	17.05
715.227	17.02
715.41	17.39
715.593	17.48
715.776	17.51
715.959	16.89
716.142	17.05
716.325	16.78
716.508	16.61
716.691	16.34
716.874	15.38
717.057	15.66
717.239	16.69
717.422	16.61
717.605	16.1
717.788	15.73
717.971	15.69
718.154	15.19
718.337	14.96
718.519	15.25
718.702	15.44
718.885	14.87
719.068	14.91
719.25	13.6
719.433	13.63
719.616	14.77
719.798	14.78
719.981	15.52
720.164	16.51
720.346	17.67
720.529	19.38
720.712	19.64
720.894	20.19
721.077	19.93
721.259	20.51
721.442	20.42
721.624	20.1
721.807	20.35
721.989	20.24
722.172	18.75
722.354	18.16
722.537	16.26
722.719	16.08
722.901	17.31
723.084	17.64
723.266	17.7
723.448	17.54
723.631	16.94
723.813	16.8
723.995	16.38
724.178	17.12
724.36	16.87
724.542	16.59
724.724	15.8
724.907	14.35
725.089	15.39
725.271	15.01
725.453	15.41
725.635	15.8
725.817	16.39
725.999	17.22
726.181	17.53
726.364	17.83
726.546	18.44
726.728	18.75
726.91	19.66
727.092	18.62
727.274	19.11
727.456	18.75
727.638	18.66
727.819	18.58
728.001	17.64
728.183	16.83
728.365	17.16
728.547	17.14
728.729	16.72
728.911	15.89
729.093	15.13
729.274	15.35
729.456	14.92
729.638	15.51
729.82	14.51
730.001	15.18
730.183	15.76
730.365	15.19
730.546	14.53
730.728	14.84
730.91	16.35
731.091	17.31
731.273	16.86
731.455	17.6
731.636	16.85
731.818	16.57
731.999	15.19
732.181	15.06
732.362	15.16
732.544	15.72
732.725	16.45
732.907	15.51
733.088	15.22
733.27	15.96
733.451	15.65
733.633	15.38
733.814	15.6
733.995	16.97
734.177	17.3
734.358	17.27
734.539	16.33
734.721	14.46
734.902	14.28
735.083	14.27
735.264	13.08
735.446	13.04
735.627	13.63
735.808	13.68
735.989	12.84
736.17	12.77
736.351	12.49
736.533	12.95
736.714	14.28
736.895	14.37
737.076	14.01
737.257	14.61
737.438	15.09
737.619	14.3
737.8	14.74
737.981	15.09
738.162	15.06
738.343	16.16
738.524	17.96
738.705	18.27
738.886	17.34
739.067	18.27
739.247	18.47
739.428	17.9
739.609	19.01
739.79	18.48
739.971	19.55
740.151	19.4
740.332	18.01
740.513	15.73
740.694	14.92
740.874	17.32
741.055	16.19
741.236	15.42
741.417	15.16
741.597	14.26
741.778	14.2
741.958	13.92
742.139	13.6
742.32	16.28
742.5	16.66
742.681	16.34
742.861	15.75
743.042	15.95
743.222	17.04
743.403	16.69
743.583	16.77
743.764	18.44
743.944	18.13
744.124	18.24
744.305	15.85
744.485	15.29
744.666	16.82
744.846	16.72
745.026	17.39
745.207	16.59
745.387	16.56
745.567	15.91
745.747	16.06
745.928	15.61
746.108	15.45
746.288	16.67
746.468	17.38
746.648	16.14
746.829	15.87
747.009	14.98
747.189	13.99
747.369	15.63
747.549	16.1
747.729	14.59
747.909	14.62
748.089	15.34
748.269	14.18
748.449	15.35
748.629	16.01
748.809	15.01
748.989	17.21
749.169	16.84
749.349	16.61
749.529	17.19
749.709	17.49
749.889	16.99
750.068	16.39
750.248	15.68
750.428	14.55
750.608	15.19
750.788	15.96
750.967	13.16
751.147	14.28
751.327	12.97
751.507	12.32
751.686	12.51
751.866	12.7
752.046	13.12
752.225	14.72
752.405	15.05
752.585	14.55
752.764	15.29
752.944	16.58
753.123	17.12
753.303	18.26
753.482	19.43
753.662	19.32
753.841	19.11
754.021	19.01
754.2	18.86
754.38	19.05
754.559	19.14
754.739	19.18
754.918	18.79
755.097	18.37
755.277	17.93
755.456	17.45
755.635	17.56
755.815	17.85
755.994	17.9
756.173	17.48
756.352	16.9
756.532	18
756.711	16.89
756.89	17.05
757.069	16.59
757.248	15.79
757.427	14.93
757.607	15.68
757.786	16.62
757.965	16.38
758.144	16.7
758.323	17.7
758.502	16.65
758.681	16.88
758.86	17.09
759.039	17.13
759.218	18.57
759.397	19.51
759.576	19.09
759.755	17.95
759.934	18.16
760.113	17.44
760.291	16.7
760.47	16.89
760.649	16.65
760.828	15.95
761.007	16.06
761.186	15.5
761.364	15.17
761.543	14.91
761.722	16.09
761.901	16.6
762.079	16.97
762.258	17.3
762.437	16.9
762.615	16.6
762.794	16.17
762.972	16.71
763.151	16.44
763.33	15.69
763.508	15.17
763.687	15.27
763.865	14.76
764.044	15.69
764.222	15.98
764.401	15.77
764.579	15.04
764.758	15.87
764.936	15.49
765.114	16.55
765.293	18.05
765.471	19.02
765.65	17.65
765.828	17.6
766.006	17.31
766.184	16.7
766.363	17.35
766.541	18.49
766.719	18.97
766.898	18.61
767.076	17.55
767.254	16.55
767.432	16.03
767.61	17.24
767.788	15.96
767.967	16.19
768.145	16.09
768.323	13.92
768.501	14.02
768.679	14.35
768.857	14.25
769.035	13.94
769.213	14
769.391	14.61
769.569	12.93
769.747	16.3
769.925	15.49
770.103	16.33
770.281	20.65
770.459	21.32
770.636	20.99
770.814	22.78
770.992	24.29
771.17	23.57
771.348	23.01
771.525	24.13
771.703	23.02
771.881	22.4
772.059	21.56
772.236	19.96
772.414	20.93
772.592	19.2
772.769	19.4
772.947	18.4
773.125	19.1
773.302	20.24
773.48	20.1
773.657	20.41
773.835	21.34
774.013	22.88
774.19	23.28
774.368	20.61
774.545	21.32
774.723	21.52
774.9	23.25
775.077	22.46
775.255	21.94
775.432	24.23
775.61	24.11
775.787	22.86
775.964	23.12
776.142	22.44
776.319	24.42
776.496	24.9
776.674	23.37
776.851	20.9
777.028	22.36
777.205	21.53
777.382	20.45
777.56	20.62
777.737	21.23
777.914	18.93
778.091	18.92
778.268	21.47
778.445	22.33
778.622	24.25
778.8	25.45
778.977	24.56
779.154	26.14
779.331	23.27
779.508	24.29
779.685	26.95
779.862	28.55
780.038	27.87
780.215	25.45
780.392	21.63
780.569	20.47
780.746	19.98
780.923	19.88
781.1	18.73
781.277	21.5
781.453	19.35
781.63	16.49
781.807	15.15
781.984	16.72
782.16	16.47
782.337	18.25
782.514	16.07
782.691	14.34
782.867	12.65
783.044	13.19
783.221	11.93
783.397	12.86
783.574	12.55
783.75	13.94
783.927	12.59
784.103	13.3
784.28	15.37
784.456	16.38
784.633	19.11
784.809	19.41
784.986	18.05
785.162	19.51
785.339	18.3
785.515	18.95
785.692	16.78
785.868	17.56
786.044	16.26
786.221	13.74
786.397	16.12
786.573	16.08
786.749	16.74
786.926	19.16
787.102	18.02
787.278	18.16
787.454	17.79
787.631	17.46
787.807	16.82
787.983	17.47
788.159	20.01
788.335	20.31
788.511	18.85
788.687	19.24
788.863	18.37
789.039	17.57
789.216	20.39
789.392	21.77
789.568	23.89
789.744	23.16
789.919	23.23
790.095	20.65
790.271	20.58
790.447	21.04
790.623	21.21
790.799	22.11
790.975	22.51
791.151	19.76
791.327	18.73
791.502	19.04
791.678	22.79
791.854	24.95
792.03	27.82
792.205	24.27
792.381	26.23
792.557	28.61
792.733	26.19
792.908	27.04
793.084	27.69
793.259	27.68
793.435	28
793.611	25.75
793.786	25.04
793.962	22.4
794.137	23.61
794.313	21.5
794.488	20.15
794.664	20.82
794.839	22.76
795.015	23.4
795.19	22.9
795.366	20.83
795.541	22.08
795.716	22.23
795.892	21.63
796.067	23.14
796.242	23.77
796.418	22.21
796.593	21.55
796.768	16.99
796.944	16.25
797.119	17.34
797.294	19.02
797.469	16.93
797.644	16.7
797.82	18.95
797.995	20.67
798.17	21.82
798.345	22.55
798.52	23.08
798.695	26.72
798.87	27.78
799.045	25.1
799.22	20.94
799.395	23.28
799.57	20.63
799.745	21
799.92	17.49
800.095	14.88
800.27	17.8
800.445	18.2
800.62	17.23
800.795	17.42
800.97	17.94
801.145	21.96
801.319	18.28
801.494	21.77
801.669	21.61
801.844	20.87
802.018	24.6
802.193	21.97
802.368	21.13
802.543	21.46
802.717	21.68
802.892	23.78
803.067	23.85
803.241	27.92
803.416	23.54
803.59	19.99
803.765	22.86
803.94	21.36
804.114	18.42
804.289	19.38
804.463	18.6
804.638	16.48
804.812	16.38
804.986	14.52
805.161	12.18
805.335	12.94
805.51	14.62
805.684	13.59
805.858	9.25
806.033	9.72
806.207	9.35
806.381	11.25
806.556	13.72
806.73	11.81
806.904	10.81
807.078	8.68
807.253	7.89
807.427	9.85
807.601	12.96
807.775	16.65
807.949	17.93
808.123	19.58
808.298	21.56
808.472	17.4
808.646	17.57
808.82	18.93
808.994	21.83
809.168	23.85
809.342	23.99
809.516	17.92
809.69	14.44
809.864	14.09
810.038	15.36
810.212	14.65
810.385	17.97
810.559	18.97
810.733	17.73
810.907	22.37
811.081	24.11
811.255	21.8
811.428	26.1
811.602	28.8
811.776	32.35
811.95	34.4
812.123	34.9
812.297	32.97
812.471	33.65
812.644	35.06
812.818	32.02
812.992	29.02
813.165	33.85
813.339	35.33
813.512	35
813.686	31.32
813.86	24.94
814.033	21.64
814.207	25.84
814.38	25.54
814.554	23.66
814.727	21.51
814.9	24.74
815.074	18.61
815.247	15.31
815.421	13.94
815.594	16.26
815.767	20.75
815.941	25.54
816.114	22.25
816.287	22.01
816.46	22.08
816.634	22.38
816.807	21.52
816.98	22.31
817.153	20.04
817.327	21.63
817.5	18.68
817.673	15.53
817.846	14.42
818.019	17.46
818.192	17.8
818.365	20.75
818.538	20.39
818.711	21.4
818.884	24.2
819.057	26.35
819.23	24.93
819.403	28.04
819.576	28.94
819.749	24.92
819.922	22.04
820.095	21.49
820.268	21.6
820.441	20.56
820.614	18.9
820.786	17.12
820.959	16.5
821.132	17.51
821.305	15.26
821.477	16.2
821.65	17.33
821.823	17.98
821.996	18.19
822.168	18.92
822.341	18.57
822.514	19.68
822.686	19.9
822.859	19.92
823.031	19.57
823.204	19.89
823.376	19.03
823.549	19.45
823.722	20.09
823.894	20.14
824.067	18.95
824.239	19.23
824.411	19.22
824.584	19.21
824.756	19.23
824.929	19.77
825.101	19.87
825.273	20.01
825.446	19.73
825.618	18.6
825.79	18.91
825.963	20.24
826.135	21.5
826.307	21.31
826.479	20.36
826.652	21.28
826.824	21.17
826.996	22.71
827.168	23.97
827.34	23.71
827.512	22.64
827.684	20.83
827.856	20.03
828.029	21.39
828.201	20.07
828.373	20.58
828.545	20.19
828.717	19.34
828.889	18.84
829.061	17.7
829.232	18.24
829.404	19.73
829.576	23.5
829.748	22.27
829.92	18.54
830.092	20.36
830.264	20.92
830.436	21.13
830.607	23.41
830.779	22.35
830.951	25.79
831.123	25.56
831.294	26.62
831.466	26.72
831.638	29.37
831.809	29.96
831.981	28.52
832.153	28.93
832.324	27.78
832.496	27.95
832.667	26.42
832.839	23.47
833.011	24.15
833.182	24.08
833.354	22.29
833.525	17.9
833.697	18.44
833.868	18.17
834.039	19.56
834.211	21.31
834.382	20.87
834.554	24.55
834.725	24.01
834.896	24.39
835.068	23.28
835.239	22.72
835.41	25.92
835.581	26.48
835.753	25.9
835.924	25.21
836.095	21.74
836.266	20.31
836.438	16.43
836.609	17.63
836.78	16.49
836.951	16.16
837.122	13.41
837.293	14.88
837.464	15.72
837.635	20.84
837.806	21.86
837.977	23.92
838.148	28.54
838.319	36.86
838.49	40.49
838.661	42.68
838.832	47.32
839.003	53.9
839.174	50.97
839.345	46.75
839.516	42.81
839.687	41.74
839.857	43.42
840.028	38.31
840.199	33.09
840.37	26.56
840.54	26.38
840.711	23.78
840.882	22.75
841.053	20.6
841.223	19.72
841.394	17.25
841.564	15.33
841.735	16.73
841.906	20.85
842.076	22.32
842.247	25.13
842.417	20.85
842.588	22.53
842.758	20.45
842.929	17.22
843.099	19.9
843.27	22.91
843.44	23.74
843.611	26.42
843.781	28.1
843.951	20.14
844.122	24.64
844.292	22.36
844.462	14.05
844.633	18.77
844.803	23.47
844.973	25.23
845.144	25.41
845.314	21.22
845.484	28.22
845.654	19.88
845.824	18.87
845.995	17.85
846.165	32.02
846.335	51.58
846.505	50.19
846.675	61.73
846.845	62.78
847.015	70.1
847.185	74.59
847.355	56.2
847.525	65.74
847.695	73.75
847.865	69.94
848.035	68.24
848.205	59.34
848.375	62.52
848.545	61.58
848.715	62.93
848.884	63.02
849.054	59.52
849.224	69.35
849.394	79.03
849.564	77.6
849.733	74.75
849.903	82.32
850.073	84.56
850.243	92.15
850.412	98.43
850.582	87.07
850.752	69.33
850.921	72.94
851.091	58.74
851.26	45.79
851.43	40.74
851.599	49.36
851.769	33.63
851.939	25.45
852.108	17.26
852.278	-2.4
852.447	-0.38
852.616	9.05
852.786	12.95
852.955	21.54
853.125	15.33
853.294	21.54
853.463	19.08
853.633	28.07
853.802	24.78
853.971	21.68
854.141	37.95
854.31	40.35
854.479	43.2
854.648	38.39
854.818	34.63
854.987	29.89
855.156	45.95
855.325	45.65
855.494	52.11
855.663	57.69
855.832	70.89
856.001	66.7
856.171	77.6
856.34	68.51
856.509	52.04
856.678	66.04
856.847	72.23
857.016	56.28
857.185	51.78
857.353	37.71
857.522	62.21
857.691	48.17
857.86	58.29
858.029	50.97
858.198	49.53
858.367	62.84
858.535	63.94
858.704	54.96
858.873	57.59
859.042	66.44
859.21	73.36
859.379	61.64
859.548	68.13
859.717	52.43
859.885	51.96
860.054	51.88
860.222	55.62
860.391	43.71
860.56	48.64
860.728	51.53
860.897	47.84
861.065	38.19
861.234	38.84
861.402	43.31
861.571	44.83
861.739	38.06
861.908	36.04
862.076	36.54
862.244	50.84
862.413	45.08
862.581	49.03
862.749	58.55
862.918	66.97
863.086	51.96
863.254	50.67
863.423	41.73
863.591	52.75
863.759	46.75
863.927	43.92
864.096	50.19
864.264	54.14
864.432	46.91
864.6	34.07
864.768	33.09
864.936	39.71
865.104	29.35
865.272	40.3
865.44	42.07
865.608	48.6
865.776	54.31
865.944	50.46
866.112	49.13
866.28	55.3
866.448	58.67
866.616	58.86
866.784	56.38
866.952	68.28
867.12	64.17
867.288	57.47
867.455	65.18
867.623	49.07
867.791	47.58
867.959	44.29
868.127	31.76
868.294	32.44
868.462	18.31
868.63	-3.8
868.797	17.01
868.965	52.13
869.133	51.04
869.3	22.54
869.468	35.26
869.636	17.75
869.803	39.72
869.971	34.07
870.138	36.6
870.306	50.57
870.473	85.8
870.641	66.99
870.808	29.46
870.975	37.57
871.143	57.48
871.31	61.87
871.478	42.86
871.645	64.39
871.812	51.27
871.98	37.04
872.147	44.04
872.314	30.16
872.482	36.33
872.649	24.46
872.816	6.38
872.983	12.33
873.15	13.05
873.318	27.07
873.485	20.46
873.652	31.76
873.819	50.19
873.986	43.2
874.153	50.55
874.32	28.28
874.487	48.56
874.654	71.67
874.821	55.75
874.988	68.85
875.155	51.56
875.322	44.8
875.489	46.16
875.656	33.87
875.823	30.71
875.99	29.53
876.157	56.39
876.324	51.51
876.49	34.34
876.657	48.35
876.824	34.93
876.991	41.73
877.157	44.14
877.324	62.57
877.491	56.34
877.658	46.4
877.824	53.9
877.991	46.76
878.157	46.36
878.324	59.52
878.491	52.31
878.657	39.73
878.824	37.2
878.99	43.84
879.157	27.74
879.323	31.13
879.49	51.19
879.656	49.22
879.823	43.32
879.989	38.14
880.156	32.21
880.322	41.87
880.488	56.51
880.655	51.21
880.821	54.38
880.987	52.86
881.154	48.92
881.32	51.03
881.486	50.44
881.652	48.86
881.819	46.33
881.985	42.35
882.151	36.24
882.317	31.06
882.483	32.14
882.649	23.68
882.816	19.85
882.982	20.8
883.148	18.39
883.314	14.94
883.48	14.03
883.646	12.54
883.812	11.67
883.978	12.05
884.144	10.9
884.31	9.59
884.476	10.23
884.642	10.55
884.807	10.73
884.973	9.29
885.139	11.93
885.305	16.24
885.471	14.96
885.637	14.87
885.802	17.33
885.968	22.37
886.134	24.3
886.3	26.76
886.465	29.77
886.631	31.23
886.797	30.45
886.962	32.07
887.128	29.29
887.293	38.14
887.459	42.75
887.625	44.86
887.79	43.27
887.956	40.91
888.121	43.36
888.287	43.64
888.452	39.47
888.618	52.4
888.783	46.28
