Data from 2938077_Reflection_1.txt Node
Date: Sat Jul 11 20:20:48 EDT 2015
User: robert
Spectrometer: USB4E03001
Autoset integration time: false
Trigger mode: 4
Integration Time (sec): 1.000000E-1
Scans to average: 10
Electric dark correction enabled: true
Nonlinearity correction enabled: false
Boxcar width: 5
Stray light correction enabled: false
XAxis mode: Wavelengths
Stop averaging: false
Number of Pixels in Spectrum: 3648
>>>>>Begin Spectral Data<<<<<
177.566	180.69
177.785	180.58
178.005	1154.72
178.225	-832.61
178.445	-6.19
178.665	113.74
178.885	-71.22
179.105	422.12
179.324	399.59
179.544	146.22
179.764	110.15
179.984	104.92
180.204	20.21
180.423	245.49
180.643	-100.99
180.863	-15.12
181.083	204
181.302	129.77
181.522	-148.99
181.742	-22.38
181.961	-26.2
182.181	-35.03
182.401	-1.08
182.621	77.09
182.84	81.71
183.06	63.68
183.279	90.58
183.499	18.35
183.719	14.1
183.938	110.81
184.158	69.47
184.377	175.26
184.597	-693.57
184.816	-246.19
185.036	-36.17
185.256	-14.11
185.475	8.61
185.695	-129.47
185.914	-92.66
186.134	-8834.55
186.353	303.69
186.572	-561.43
186.792	-412.81
187.011	-224.25
187.231	3969.29
187.45	487.93
187.67	366.92
187.889	241.53
188.108	252.7
188.328	213.94
188.547	-588.78
188.766	15.54
188.986	151.42
189.205	-231.95
189.424	-217.48
189.644	-336.69
189.863	-182.63
190.082	-123.94
190.302	-62.18
190.521	8.06
190.74	-470.63
190.959	-1985.42
191.178	-83.92
191.398	19.45
191.617	-300.83
191.836	-81.23
192.055	-420.82
192.274	193.61
192.494	-64.1
192.713	-71.98
192.932	-20.98
193.151	41.58
193.37	47.43
193.589	9.57
193.808	11.89
194.027	-4.75
194.246	11.62
194.465	20.76
194.685	13.44
194.904	13.42
195.123	19.61
195.342	17.1
195.561	-17.84
195.78	-18.77
195.999	37.94
196.218	47.15
196.436	32.25
196.655	63.39
196.874	114.62
197.093	-325.86
197.312	-71.94
197.531	-38.54
197.75	-88.85
197.969	-148.69
198.188	-216.84
198.407	865.17
198.625	2642.8
198.844	355.64
199.063	-1215.26
199.282	-359.86
199.501	-154.63
199.719	-253.28
199.938	-209.88
200.157	-86.12
200.376	-16.17
200.594	-5.45
200.813	-18.13
201.032	40.69
201.251	-20.03
201.469	16.94
201.688	27.69
201.907	54.05
202.125	31.77
202.344	-8.72
202.563	19.71
202.781	41.21
203	27.71
203.218	32.62
203.437	75.73
203.656	362.01
203.874	-852.36
204.093	-137.21
204.311	-182.41
204.53	-925.85
204.748	-411.27
204.967	-115.78
205.185	-123.98
205.404	-288.58
205.622	-141.25
205.841	-128.51
206.059	-110.73
206.278	146.19
206.496	283.96
206.715	207.34
206.933	-149.88
207.151	1048.17
207.37	47.33
207.588	61.44
207.806	57.6
208.025	77.12
208.243	54.51
208.461	55.04
208.68	35.19
208.898	38.92
209.116	20
209.335	3.11
209.553	20.19
209.771	26.97
209.989	-8.33
210.208	11.34
210.426	19.72
210.644	33.51
210.862	58.39
211.081	72.41
211.299	72.13
211.517	76.7
211.735	90.1
211.953	79.59
212.171	67.58
212.39	64.31
212.608	74.57
212.826	83.03
213.044	82.71
213.262	66.21
213.48	49.3
213.698	35.53
213.916	29.96
214.134	18.62
214.352	19.63
214.57	20.87
214.788	41.57
215.006	28.14
215.224	31.74
215.442	58.29
215.66	95.99
215.878	110.74
216.096	124.4
216.314	172.7
216.532	184.17
216.75	196.66
216.968	197.39
217.185	160.78
217.403	172.72
217.621	125.82
217.839	97.67
218.057	71.14
218.275	95.09
218.492	85.49
218.71	69.93
218.928	100.44
219.146	75.17
219.363	76.5
219.581	78.77
219.799	78.33
220.017	95.75
220.234	73.51
220.452	110.97
220.67	68.41
220.887	65.53
221.105	61.52
221.323	56.77
221.54	57.6
221.758	18.24
221.976	7.71
222.193	10.26
222.411	-6.59
222.629	-4.06
222.846	-15.86
223.064	-36.6
223.281	-60.18
223.499	-98.3
223.716	-118.81
223.934	-56.04
224.151	-54.34
224.369	-33.87
224.586	-24.87
224.804	-7.87
225.021	9.65
225.239	9.72
225.456	10.02
225.674	50.96
225.891	42.36
226.108	39.4
226.326	39.13
226.543	37.6
226.76	32.58
226.978	33.9
227.195	31.09
227.413	22.75
227.63	24.68
227.847	26.67
228.064	22.6
228.282	22.07
228.499	19.6
228.716	17.74
228.934	15.79
229.151	13.34
229.368	10.27
229.585	10.73
229.802	11.05
230.02	10.42
230.237	9.33
230.454	8.85
230.671	8.13
230.888	8.34
231.105	8.1
231.323	6
231.54	9.21
231.757	11.82
231.974	7.99
232.191	8.37
232.408	6.62
232.625	8.14
232.842	3.28
233.059	9.44
233.276	12.99
233.493	7.79
233.71	21.64
233.927	25.22
234.144	24.96
234.361	28.47
234.578	27.32
234.795	25.32
235.012	23.27
235.229	21.36
235.446	18.66
235.663	15.05
235.879	16.33
236.096	3.49
236.313	-0.96
236.53	-3.65
236.747	1.98
236.964	4.69
237.181	1.12
237.397	1.71
237.614	8.57
237.831	7.76
238.048	9.47
238.264	10.04
238.481	20.73
238.698	19.9
238.915	21.16
239.131	20.19
239.348	17.9
239.565	19.86
239.781	18.65
239.998	13.5
240.215	12.06
240.431	10.4
240.648	7.63
240.865	6.09
241.081	12.03
241.298	12.77
241.514	10.26
241.731	9.19
241.947	10.39
242.164	12.06
242.38	13.01
242.597	14.41
242.814	14.72
243.03	17.34
243.246	17.19
243.463	14.85
243.679	14.05
243.896	14.38
244.112	16.34
244.329	15.27
244.545	14.73
244.762	16.39
244.978	17.41
245.194	16.96
245.411	13.89
245.627	11.75
245.843	13.62
246.06	14.17
246.276	12.71
246.492	12.58
246.709	12.84
246.925	12.6
247.141	11.48
247.357	10.82
247.574	11.47
247.79	11.67
248.006	13.31
248.222	12.59
248.439	12.79
248.655	14.25
248.871	13.59
249.087	12.74
249.303	13.45
249.519	15.41
249.736	15.81
249.952	15.95
250.168	16.73
250.384	14.61
250.6	15.37
250.816	14.64
251.032	14
251.248	14.61
251.464	15.72
251.68	15.06
251.896	12.73
252.112	14.05
252.328	13.38
252.544	13.71
252.76	13.67
252.976	13.69
253.192	14.02
253.408	14.95
253.624	13.64
253.84	14.66
254.056	13.73
254.272	14.12
254.487	11.4
254.703	7.25
254.919	7.74
255.135	9.31
255.351	6.64
255.567	8.84
255.782	6.47
255.998	3.96
256.214	1.83
256.43	1.18
256.646	2.67
256.861	5.45
257.077	8.71
257.293	7.27
257.508	5.95
257.724	6.72
257.94	5.11
258.155	5.73
258.371	6.77
258.587	7.58
258.802	8.16
259.018	7.81
259.234	7
259.449	7.64
259.665	7.88
259.88	8.07
260.096	8.99
260.312	9.19
260.527	9.44
260.743	10.98
260.958	11.28
261.174	10.66
261.389	10.87
261.605	10.96
261.82	10.26
262.036	10.42
262.251	10.81
262.466	8.91
262.682	8.83
262.897	8.57
263.113	3.87
263.328	2.88
263.543	4.68
263.759	4.22
263.974	3.62
264.189	4.83
264.405	4.56
264.62	6.54
264.835	5.89
265.051	5.88
265.266	4.61
265.481	9.83
265.696	10.05
265.912	12.52
266.127	14.14
266.342	13.28
266.557	11.75
266.773	11.6
266.988	11.13
267.203	12.28
267.418	12.23
267.633	12.24
267.848	10.81
268.064	10.79
268.279	9.09
268.494	8.96
268.709	8.45
268.924	9.49
269.139	9.55
269.354	9.74
269.569	9.39
269.784	8.43
269.999	6.85
270.214	6.93
270.429	8.36
270.644	8.43
270.859	6.36
271.074	8.06
271.289	8.6
271.504	8.2
271.719	8.43
271.934	9.41
272.149	9.96
272.363	11.54
272.578	12.03
272.793	11.06
273.008	11.47
273.223	11.79
273.438	11.93
273.653	12.81
273.867	14.13
274.082	13.66
274.297	12.87
274.512	12.29
274.726	11.41
274.941	9.92
275.156	10.47
275.371	8.02
275.585	8.41
275.8	7.57
276.015	5.08
276.229	3.98
276.444	3.4
276.659	4.22
276.873	4.2
277.088	4.58
277.302	6.4
277.517	4.49
277.732	7.29
277.946	6.72
278.161	6.82
278.375	9.54
278.59	9.83
278.804	9.61
279.019	9.42
279.233	11.21
279.448	10.52
279.662	10.75
279.877	11.93
280.091	9.38
280.306	9.86
280.52	11.83
280.735	10.47
280.949	11.84
281.163	11.89
281.378	12.21
281.592	12.14
281.806	12.17
282.021	11.94
282.235	13.02
282.449	14.57
282.664	14.89
282.878	14.29
283.092	13.8
283.307	13.85
283.521	14.68
283.735	14.33
283.949	14.73
284.164	14.47
284.378	13.61
284.592	13.59
284.806	13.41
285.02	12.21
285.234	11.13
285.449	11.76
285.663	10.53
285.877	10.4
286.091	9.8
286.305	9.15
286.519	10.52
286.733	9.82
286.947	9.2
287.161	8.23
287.375	9.31
287.589	10.46
287.803	10.12
288.017	9.96
288.231	9.85
288.445	10.68
288.659	9.9
288.873	8.04
289.087	9.24
289.301	10.12
289.515	11.2
289.729	11.96
289.943	12.12
290.157	11.81
290.371	12.79
290.584	13.29
290.798	12.89
291.012	13.69
291.226	14.1
291.44	15.54
291.654	14.78
291.867	14.17
292.081	12.89
292.295	12.32
292.509	13.12
292.722	11.16
292.936	9.64
293.15	10.63
293.364	10.01
293.577	11.15
293.791	11.13
294.005	13.07
294.218	13.6
294.432	13.28
294.645	13.31
294.859	13.4
295.073	15.47
295.286	15.91
295.5	15.38
295.713	15.52
295.927	14.98
296.14	13.91
296.354	12.83
296.568	13.31
296.781	14.32
296.994	12.9
297.208	12.64
297.421	11.48
297.635	11.86
297.848	11.75
298.062	11.39
298.275	12.19
298.489	12.14
298.702	12.26
298.915	12.1
299.129	12.23
299.342	14.03
299.555	14.13
299.769	14.34
299.982	14.23
300.195	14.91
300.409	15.32
300.622	13.15
300.835	12.4
301.048	11.86
301.262	11.18
301.475	9.85
301.688	10.29
301.901	9.62
302.115	10.32
302.328	10.46
302.541	10.15
302.754	10.14
302.967	11.2
303.18	11.62
303.393	11.25
303.607	11.75
303.82	12.37
304.033	11.51
304.246	12.24
304.459	12.1
304.672	12.1
304.885	12.4
305.098	11.75
305.311	10.7
305.524	12.05
305.737	13.25
305.95	12.9
306.163	14.37
306.376	14.17
306.589	14.45
306.802	14.3
307.015	14.48
307.228	13.09
307.44	14.86
307.653	16.81
307.866	16.24
308.079	14.47
308.292	14.62
308.505	14.07
308.718	13.42
308.93	13.36
309.143	14.13
309.356	13.97
309.569	15.07
309.781	14.15
309.994	14.25
310.207	14.27
310.42	14.99
310.632	14.72
310.845	14.39
311.058	14.98
311.27	15.62
311.483	15.73
311.696	15.22
311.908	15.09
312.121	15
312.333	13.77
312.546	12.56
312.759	12.53
312.971	11.77
313.184	11.93
313.396	12.29
313.609	11.5
313.821	10.33
314.034	11.19
314.246	11.73
314.459	11.54
314.671	13.52
314.884	14.08
315.096	14.65
315.309	15.66
315.521	16.25
315.733	15.59
315.946	14.16
316.158	14.31
316.371	15.1
316.583	13.25
316.795	13.56
317.008	10.09
317.22	9.71
317.432	9.62
317.644	9.9
317.857	8.3
318.069	8.32
318.281	8.88
318.494	9.79
318.706	9.51
318.918	10.11
319.13	11.58
319.342	13.65
319.555	14.77
319.767	15.97
319.979	14.91
320.191	15.11
320.403	14.51
320.615	15.44
320.827	16.24
321.039	15.14
321.252	15.96
321.464	13.09
321.676	12.51
321.888	13.02
322.1	12.1
322.312	12.38
322.524	12.69
322.736	13.41
322.948	13.42
323.16	12.71
323.372	11.13
323.584	10.47
323.796	12.78
324.007	14.69
324.219	15.07
324.431	15.33
324.643	15.37
324.855	16.12
325.067	17.53
325.279	17.33
325.491	17.66
325.702	19.16
325.914	19.77
326.126	19.07
326.338	16.82
326.55	16.33
326.761	17.16
326.973	17.55
327.185	16.52
327.396	14.15
327.608	15.24
327.82	13.9
328.032	14.24
328.243	13.22
328.455	13.97
328.666	16.21
328.878	15.57
329.09	12.84
329.301	12.71
329.513	12.37
329.725	13.58
329.936	13.8
330.148	14.49
330.359	13.74
330.571	13.62
330.782	11.39
330.994	10.02
331.205	10.23
331.417	10.55
331.628	10.87
331.84	12.81
332.051	13.29
332.262	12.59
332.474	12.8
332.685	13.53
332.897	14.6
333.108	16.75
333.319	16.31
333.531	16.38
333.742	17.43
333.953	19.14
334.165	18.06
334.376	18.38
334.587	18.79
334.799	18.95
335.01	18.11
335.221	18.22
335.432	19
335.644	19.64
335.855	20.81
336.066	21.18
336.277	19.17
336.488	18.5
336.7	18.18
336.911	18.64
337.122	18.63
337.333	18.29
337.544	19.09
337.755	16.52
337.966	16.48
338.177	15.56
338.388	14.07
338.599	15.27
338.811	15.89
339.022	16.95
339.233	16.36
339.444	15.25
339.655	15.79
339.866	14.05
340.076	15.62
340.287	15.5
340.498	16.33
340.709	17
340.92	15.95
341.131	15.17
341.342	14.64
341.553	14.2
341.764	14.09
341.975	15.57
342.185	15.82
342.396	14.78
342.607	15.19
342.818	13.53
343.029	14.16
343.239	14.82
343.45	15.16
343.661	13.8
343.872	13.74
344.082	14.02
344.293	12.03
344.504	12.26
344.714	11.94
344.925	12.74
345.136	12.8
345.346	12.62
345.557	11.88
345.768	12.49
345.978	14.43
346.189	14.96
346.399	15.31
346.61	16.24
346.821	16.66
347.031	18.07
347.242	16.85
347.452	18.54
347.663	18.66
347.873	20.36
348.084	20.25
348.294	19.23
348.504	18
348.715	17.68
348.925	18.53
349.136	17.95
349.346	18.03
349.557	16.81
349.767	15.03
349.977	15.56
350.188	14.14
350.398	13.16
350.608	13.43
350.819	14.32
351.029	14.77
351.239	13.56
351.449	13.92
351.66	12.46
351.87	13.71
352.08	14.46
352.29	13.03
352.501	13.15
352.711	13.95
352.921	13.39
353.131	12.28
353.341	11.73
353.552	12.55
353.762	12.37
353.972	12.84
354.182	13.26
354.392	12.72
354.602	12.68
354.812	13.55
355.022	13.28
355.232	12.81
355.442	13.1
355.652	13.36
355.862	13.45
356.072	13.64
356.282	13.36
356.492	12.6
356.702	12.91
356.912	13.83
357.122	13.7
357.332	14.34
357.542	15.61
357.752	15.76
357.962	16.2
358.171	15.64
358.381	14.72
358.591	15.3
358.801	16.35
359.011	16.15
359.221	15.1
359.43	14.94
359.64	14.16
359.85	13.13
360.06	12.31
360.269	12.25
360.479	12.99
360.689	13.41
360.899	13.15
361.108	12.91
361.318	12.9
361.528	13.27
361.737	12.89
361.947	13.27
362.156	12.92
362.366	13.67
362.576	13.79
362.785	13.48
362.995	13.85
363.204	13.7
363.414	13.38
363.623	13.69
363.833	13.62
364.042	13.41
364.252	13.27
364.461	13.38
364.671	13.03
364.88	12.5
365.09	12.58
365.299	12.46
365.509	12.45
365.718	11.87
365.927	11.43
366.137	11.81
366.346	12.44
366.555	13.05
366.765	13.48
366.974	13.5
367.183	13.39
367.393	12.55
367.602	12.46
367.811	13.02
368.021	13.18
368.23	13.35
368.439	12.91
368.648	12.47
368.857	11.49
369.067	11.91
369.276	11.57
369.485	11.9
369.694	12.66
369.903	13.28
370.112	12.8
370.321	12.51
370.531	13.01
370.74	11.98
370.949	12.11
371.158	12.22
371.367	11.6
371.576	12.28
371.785	12.17
371.994	11.78
372.203	10.97
372.412	11.3
372.621	10.84
372.83	10.67
373.039	11.91
373.248	12
373.457	11.92
373.666	12.25
373.874	12.26
374.083	12.61
374.292	12.58
374.501	12.27
374.71	11.4
374.919	12.33
375.128	12.37
375.336	11.78
375.545	11.4
375.754	11.34
375.963	10.54
376.171	9.98
376.38	9.58
376.589	9.75
376.798	10.07
377.006	10.91
377.215	10.59
377.424	10.46
377.632	10.46
377.841	10.94
378.05	10.87
378.258	10.91
378.467	10.55
378.675	10.5
378.884	10.59
379.093	10.36
379.301	9.98
379.51	10.33
379.718	10.22
379.927	10.31
380.135	9.45
380.344	9.64
380.552	9.94
380.761	10.16
380.969	9.82
381.177	9.54
381.386	10.28
381.594	9.99
381.803	9.55
382.011	9.71
382.219	10.01
382.428	10.16
382.636	10.18
382.845	9.95
383.053	10.38
383.261	9.84
383.469	9.57
383.678	8.34
383.886	8.68
384.094	9.1
384.302	8.5
384.511	8.12
384.719	8.53
384.927	8.12
385.135	7.59
385.343	7.45
385.552	7.84
385.76	7.8
385.968	8.82
386.176	8.82
386.384	8.74
386.592	9.17
386.8	9.13
387.008	9.09
387.216	9.25
387.424	9.54
387.633	9.49
387.841	9.23
388.049	9.28
388.257	8.57
388.465	8.13
388.672	8.02
388.88	7.63
389.088	7.38
389.296	7.02
389.504	6.88
389.712	7.01
389.92	6.57
390.128	6.63
390.336	6.76
390.544	6.86
390.751	6.8
390.959	6.75
391.167	6.5
391.375	6.48
391.583	6.58
391.79	6.68
391.998	6.6
392.206	6.9
392.414	7.2
392.621	7.21
392.829	7.31
393.037	7.26
393.244	7.24
393.452	7.51
393.66	7.49
393.867	7.43
394.075	7.04
394.283	7.11
394.49	7.38
394.698	6.96
394.905	6.7
395.113	6.65
395.32	6.88
395.528	6.7
395.735	6.78
395.943	7.01
396.15	6.72
396.358	7.09
396.565	7.27
396.773	6.92
396.98	7.14
397.188	6.91
397.395	6.45
397.602	6.51
397.81	6.6
398.017	6.48
398.225	6.51
398.432	6.95
398.639	6.78
398.847	6.81
399.054	6.46
399.261	6.31
399.468	6.63
399.676	6.67
399.883	6.89
400.09	6.82
400.297	6.54
400.505	6.53
400.712	6.5
400.919	6.58
401.126	6.18
401.333	6.43
401.54	6.56
401.748	6.66
401.955	6.7
402.162	6.44
402.369	6.38
402.576	6.7
402.783	6.58
402.99	6.63
403.197	6.57
403.404	7
403.611	7.01
403.818	7.15
404.025	6.59
404.232	6.75
404.439	6.47
404.646	6.73
404.853	6.73
405.06	6.64
405.267	6.18
405.474	6.08
405.681	5.77
405.887	5.87
406.094	5.78
406.301	6
406.508	5.79
406.715	5.65
406.922	5.39
407.128	5.27
407.335	5.29
407.542	5.8
407.749	5.79
407.955	6
408.162	5.76
408.369	5.73
408.575	5.98
408.782	6.08
408.989	6.21
409.195	6.15
409.402	6.05
409.609	6.08
409.815	5.72
410.022	5.58
410.228	5.3
410.435	5.39
410.642	5.61
410.848	5.61
411.055	5.54
411.261	5.81
411.468	5.59
411.674	5.23
411.881	5.23
412.087	5.42
412.294	5.49
412.5	5.49
412.706	5.28
412.913	5.04
413.119	4.88
413.326	5.04
413.532	4.64
413.738	4.91
413.945	5.15
414.151	5.14
414.357	4.72
414.564	4.9
414.77	4.98
414.976	5.37
415.182	5.28
415.389	5.48
415.595	5.4
415.801	5.49
416.007	5.27
416.214	5.34
416.42	5.3
416.626	5.56
416.832	5.75
417.038	5.71
417.244	5.54
417.45	5.81
417.657	5.82
417.863	5.87
418.069	5.86
418.275	6.11
418.481	6.15
418.687	6.18
418.893	6.28
419.099	6.19
419.305	6.21
419.511	6.14
419.717	5.94
419.923	5.89
420.129	5.84
420.335	5.86
420.541	5.84
420.746	5.8
420.952	5.78
421.158	5.67
421.364	5.63
421.57	5.43
421.776	5.47
421.982	5.47
422.187	5.4
422.393	5.46
422.599	5.53
422.805	5.49
423.01	5.46
423.216	5.45
423.422	5.33
423.628	5.43
423.833	5.56
424.039	5.41
424.245	5.37
424.45	5.32
424.656	5.35
424.862	5.34
425.067	5.19
425.273	5.27
425.478	5.16
425.684	5.24
425.889	5.09
426.095	4.97
426.301	5.18
426.506	5.21
426.712	5.23
426.917	5.15
427.123	5.07
427.328	5.3
427.533	5.33
427.739	5.39
427.944	5.43
428.15	5.29
428.355	5.52
428.561	5.67
428.766	5.61
428.971	5.87
429.177	5.64
429.382	5.68
429.587	5.59
429.793	5.37
429.998	5.39
430.203	5.29
430.408	5.34
430.614	5.21
430.819	5.26
431.024	5.09
431.229	4.8
431.434	5.01
431.64	4.94
431.845	4.84
432.05	4.95
432.255	4.9
432.46	4.93
432.665	4.99
432.87	5
433.076	4.94
433.281	5.14
433.486	5.16
433.691	5.25
433.896	5.41
434.101	5.51
434.306	5.56
434.511	5.72
434.716	5.79
434.921	5.75
435.126	5.93
435.331	5.74
435.535	5.83
435.74	5.89
435.945	5.8
436.15	5.87
436.355	5.78
436.56	5.64
436.765	5.53
436.97	5.31
437.174	5.26
437.379	5.14
437.584	5.11
437.789	4.76
437.993	4.73
438.198	4.87
438.403	4.74
438.608	4.78
438.812	4.69
439.017	4.59
439.222	4.67
439.426	4.85
439.631	4.79
439.836	5.04
440.04	5.26
440.245	5.23
440.45	5.04
440.654	5.04
440.859	5.01
441.063	5.12
441.268	5.33
441.472	5.38
441.677	5.39
441.881	5.39
442.086	5.27
442.29	5.29
442.495	5.37
442.699	5.27
442.904	5.15
443.108	5.1
443.312	5.1
443.517	4.95
443.721	4.97
443.925	4.82
444.13	4.72
444.334	4.62
444.538	4.54
444.743	4.46
444.947	4.71
445.151	4.66
445.356	4.66
445.56	4.77
445.764	4.69
445.968	4.68
446.173	4.85
446.377	4.99
446.581	5.09
446.785	5.06
446.989	5.11
447.193	5.02
447.398	5.04
447.602	5.2
447.806	5.16
448.01	5.24
448.214	5.26
448.418	5.08
448.622	5.01
448.826	4.89
449.03	5.01
449.234	4.87
449.438	4.89
449.642	5.03
449.846	4.86
450.05	4.77
450.254	4.62
450.458	4.6
450.662	4.67
450.866	4.59
451.069	4.73
451.273	4.77
451.477	5.05
451.681	5.02
451.885	5.07
452.089	5.08
452.292	5.13
452.496	5.26
452.7	5.22
452.904	5.16
453.107	5.26
453.311	5.29
453.515	5.11
453.719	4.91
453.922	4.92
454.126	4.85
454.33	4.95
454.533	5
454.737	4.79
454.94	4.83
455.144	4.92
455.348	4.94
455.551	4.88
455.755	4.83
455.958	4.78
456.162	4.77
456.365	4.57
456.569	4.37
456.772	4.27
456.976	4.49
457.179	4.49
457.383	4.5
457.586	4.33
457.79	4.24
457.993	4.45
458.196	4.34
458.4	4.43
458.603	4.69
458.807	4.81
459.01	4.8
459.213	4.78
459.417	4.73
459.62	4.59
459.823	4.61
460.026	4.57
460.23	4.52
460.433	4.56
460.636	4.48
460.839	4.43
461.042	4.39
461.246	4.4
461.449	4.3
461.652	4.26
461.855	4.26
462.058	4.46
462.261	4.48
462.464	4.65
462.668	4.64
462.871	4.85
463.074	4.78
463.277	4.81
463.48	4.6
463.683	4.59
463.886	4.76
464.089	4.9
464.292	4.84
464.495	4.96
464.698	4.73
464.901	4.97
465.104	4.88
465.306	4.91
465.509	5.08
465.712	5.47
465.915	5.6
466.118	5.49
466.321	5.59
466.524	5.56
466.726	5.48
466.929	5.62
467.132	5.37
467.335	5.16
467.538	4.87
467.74	4.82
467.943	4.66
468.146	4.7
468.348	4.81
468.551	4.77
468.754	4.73
468.956	4.7
469.159	4.58
469.362	4.73
469.564	4.78
469.767	5.17
469.969	4.91
470.172	4.99
470.375	4.89
470.577	4.92
470.78	4.95
470.982	4.86
471.185	4.81
471.387	4.79
471.59	4.95
471.792	4.83
471.995	4.63
472.197	4.69
472.399	4.79
472.602	4.75
472.804	4.82
473.007	4.92
473.209	5.05
473.411	5.33
473.614	5.49
473.816	5.44
474.018	5.59
474.22	5.77
474.423	5.79
474.625	5.44
474.827	5.64
475.03	5.48
475.232	5.43
475.434	5.31
475.636	5.11
475.838	5.05
476.04	5.06
476.243	5.08
476.445	4.85
476.647	5.03
476.849	5.11
477.051	5.16
477.253	5.16
477.455	4.93
477.657	5.09
477.859	5.01
478.061	4.91
478.263	4.63
478.465	4.7
478.667	4.78
478.869	4.77
479.071	4.83
479.273	4.66
479.475	4.62
479.677	4.62
479.879	4.64
480.081	4.64
480.283	4.84
480.485	5.07
480.686	4.9
480.888	4.92
481.09	4.83
481.292	4.87
481.494	4.87
481.695	4.92
481.897	4.97
482.099	4.96
482.301	5.07
482.502	4.88
482.704	4.8
482.906	4.82
483.107	4.87
483.309	4.86
483.511	4.82
483.712	4.8
483.914	4.78
484.115	4.8
484.317	4.74
484.519	4.68
484.72	4.74
484.922	4.78
485.123	4.84
485.325	4.79
485.526	4.83
485.728	4.88
485.929	4.88
486.131	4.88
486.332	4.83
486.534	4.83
486.735	4.83
486.936	4.78
487.138	4.75
487.339	4.69
487.541	4.7
487.742	4.73
487.943	4.7
488.144	4.75
488.346	4.73
488.547	4.79
488.748	4.85
488.95	4.8
489.151	4.82
489.352	4.85
489.553	4.88
489.755	4.87
489.956	4.76
490.157	4.83
490.358	4.79
490.559	4.88
490.76	4.81
490.961	4.72
491.163	4.78
491.364	4.69
491.565	4.6
491.766	4.66
491.967	4.73
492.168	4.74
492.369	4.78
492.57	4.81
492.771	4.76
492.972	4.8
493.173	4.83
493.374	4.93
493.575	5.1
493.776	5.14
493.976	5.2
494.177	5.12
494.378	5.19
494.579	5.14
494.78	5.16
494.981	4.98
495.182	4.97
495.382	5.01
495.583	4.99
495.784	4.85
495.985	4.9
496.185	4.87
496.386	4.96
496.587	4.86
496.788	4.79
496.988	4.75
497.189	4.91
497.39	4.8
497.59	4.67
497.791	4.6
497.992	4.57
498.192	4.64
498.393	4.63
498.593	4.66
498.794	4.77
498.994	4.66
499.195	4.84
499.395	4.89
499.596	4.99
499.796	5.07
499.997	5.09
500.197	5.3
500.398	5.25
500.598	5.1
500.799	5.02
500.999	4.93
501.199	5.2
501.4	4.98
501.6	5.06
501.801	5.05
502.001	5.15
502.201	5.24
502.402	5.08
502.602	5.31
502.802	5.39
503.002	5.48
503.203	5.45
503.403	5.37
503.603	5.41
503.803	5.48
504.003	5.53
504.204	5.62
504.404	5.49
504.604	5.59
504.804	5.53
505.004	5.46
505.204	5.55
505.404	5.46
505.604	5.53
505.804	5.44
506.005	5.33
506.205	5.47
506.405	5.43
506.605	5.43
506.805	5.35
507.005	5.26
507.204	5.42
507.404	5.39
507.604	5.57
507.804	5.49
508.004	5.48
508.204	5.47
508.404	5.35
508.604	5.32
508.804	5.33
509.003	5.34
509.203	5.27
509.403	5.24
509.603	5.21
509.803	5.17
510.002	5.18
510.202	5.2
510.402	5.19
510.602	5.24
510.801	5.24
511.001	5.31
511.201	5.29
511.4	5.29
511.6	5.24
511.8	5.24
511.999	5.27
512.199	5.25
512.398	5.13
512.598	5.12
512.797	5.22
512.997	5.28
513.197	5.33
513.396	5.49
513.596	5.56
513.795	5.6
513.994	5.62
514.194	5.71
514.393	5.58
514.593	5.81
514.792	5.77
514.992	5.7
515.191	5.75
515.39	5.67
515.59	5.5
515.789	5.58
515.988	5.73
516.188	5.71
516.387	5.71
516.586	5.89
516.786	5.86
516.985	6.02
517.184	6.01
517.383	5.97
517.582	6.03
517.782	6.08
517.981	6.07
518.18	6.03
518.379	6.03
518.578	5.96
518.777	5.96
518.976	6.06
519.176	5.94
519.375	5.95
519.574	5.94
519.773	5.91
519.972	6.01
520.171	5.96
520.37	5.98
520.569	6.04
520.768	6.17
520.967	6.24
521.166	6.1
521.365	6.19
521.564	6.26
521.762	6.19
521.961	6.22
522.16	6.09
522.359	6.07
522.558	6.04
522.757	5.92
522.956	5.81
523.154	5.85
523.353	5.92
523.552	5.81
523.751	5.67
523.949	5.77
524.148	5.73
524.347	5.77
524.546	5.93
524.744	5.85
524.943	5.93
525.142	5.93
525.34	5.84
525.539	5.92
525.737	6
525.936	6
526.135	6.04
526.333	6.14
526.532	6.2
526.73	6.2
526.929	6.26
527.127	6.26
527.326	6.31
527.524	6.33
527.723	6.3
527.921	6.33
528.12	6.36
528.318	6.35
528.516	6.36
528.715	6.37
528.913	6.34
529.112	6.33
529.31	6.27
529.508	6.32
529.707	6.33
529.905	6.29
530.103	6.27
530.301	6.17
530.5	6.26
530.698	6.19
530.896	6.2
531.094	6.28
531.293	6.31
531.491	6.43
531.689	6.31
531.887	6.32
532.085	6.4
532.283	6.47
532.481	6.62
532.68	6.52
532.878	6.63
533.076	6.65
533.274	6.65
533.472	6.61
533.67	6.7
533.868	6.76
534.066	6.84
534.264	6.93
534.462	6.99
534.66	7
534.858	7.06
535.056	7.1
535.253	7.07
535.451	7.11
535.649	7.2
535.847	7.16
536.045	7.24
536.243	7.39
536.441	7.37
536.638	7.33
536.836	7.54
537.034	7.47
537.232	7.37
537.43	7.39
537.627	7.36
537.825	7.32
538.023	7.35
538.22	7.33
538.418	7.16
538.616	7.16
538.813	7.31
539.011	7.18
539.209	7.3
539.406	7.4
539.604	7.44
539.801	7.45
539.999	7.55
540.196	7.58
540.394	7.59
540.591	7.62
540.789	7.58
540.986	7.58
541.184	7.64
541.381	7.63
541.579	7.59
541.776	7.62
541.974	7.64
542.171	7.61
542.368	7.63
542.566	7.69
542.763	7.77
542.96	7.8
543.158	7.73
543.355	7.7
543.552	7.67
543.75	7.8
543.947	7.86
544.144	7.96
544.341	7.97
544.539	7.93
544.736	7.85
544.933	7.91
545.13	7.97
545.327	7.99
545.524	8.03
545.722	8.11
545.919	8.14
546.116	8.18
546.313	8.13
546.51	8.26
546.707	8.36
546.904	8.44
547.101	8.38
547.298	8.4
547.495	8.54
547.692	8.55
547.889	8.65
548.086	8.63
548.283	8.65
548.48	8.69
548.677	8.73
548.874	8.74
549.07	8.84
549.267	8.86
549.464	8.94
549.661	8.93
549.858	9.07
550.055	9.29
550.251	9.19
550.448	9.37
550.645	9.51
550.842	9.42
551.038	9.55
551.235	9.55
551.432	9.67
551.628	9.53
551.825	9.54
552.022	9.57
552.218	9.29
552.415	9.6
552.612	9.63
552.808	9.47
553.005	9.59
553.201	9.61
553.398	9.51
553.594	9.38
553.791	9.57
553.987	9.64
554.184	9.66
554.38	9.85
554.577	9.86
554.773	9.83
554.97	10.07
555.166	10.22
555.362	10.15
555.559	10.3
555.755	10.55
555.952	10.52
556.148	10.58
556.344	10.64
556.541	10.57
556.737	10.37
556.933	10.47
557.129	10.4
557.326	10.46
557.522	10.56
557.718	10.55
557.914	10.62
558.11	10.68
558.307	10.82
558.503	10.92
558.699	10.97
558.895	11.08
559.091	10.94
559.287	10.98
559.483	10.85
559.679	10.99
559.876	11.24
560.072	11.16
560.268	11.25
560.464	11.1
560.66	10.88
560.856	10.86
561.052	10.92
561.247	11.03
561.443	11.22
561.639	11.36
561.835	11.5
562.031	11.33
562.227	11.36
562.423	11.53
562.619	11.6
562.815	11.7
563.01	11.77
563.206	11.73
563.402	11.61
563.598	11.57
563.793	11.45
563.989	11.16
564.185	11.31
564.381	11.41
564.576	11.25
564.772	11.24
564.968	11.36
565.163	11.35
565.359	11.46
565.555	11.66
565.75	11.5
565.946	11.54
566.141	11.68
566.337	11.61
566.532	11.53
566.728	11.71
566.923	11.59
567.119	11.55
567.314	11.73
567.51	11.74
567.705	11.67
567.901	11.97
568.096	12.07
568.292	12.15
568.487	12.18
568.682	12.22
568.878	12.11
569.073	12.41
569.268	12.56
569.464	12.49
569.659	12.6
569.854	12.53
570.05	12.32
570.245	12.33
570.44	12.38
570.635	12.38
570.831	12.46
571.026	12.56
571.221	12.4
571.416	12.58
571.611	12.66
571.806	12.55
572.002	12.6
572.197	12.58
572.392	12.74
572.587	12.73
572.782	12.79
572.977	12.71
573.172	12.61
573.367	12.7
573.562	12.5
573.757	12.37
573.952	12.46
574.147	12.53
574.342	12.63
574.537	12.54
574.732	12.42
574.927	12.58
575.121	12.55
575.316	12.5
575.511	12.66
575.706	12.86
575.901	12.88
576.096	12.79
576.29	12.86
576.485	12.98
576.68	12.97
576.875	13.26
577.069	13.23
577.264	13.59
577.459	13.63
577.654	13.4
577.848	13.31
578.043	13.63
578.238	13.85
578.432	13.71
578.627	13.7
578.821	13.81
579.016	13.56
579.21	13.49
579.405	13.11
579.6	13.34
579.794	13.5
579.989	13.68
580.183	13.44
580.378	13.47
580.572	13.68
580.766	13.73
580.961	13.46
581.155	13.53
581.35	13.67
581.544	13.78
581.738	13.84
581.933	14
582.127	13.79
582.321	13.77
582.516	13.7
582.71	13.63
582.904	13.42
583.099	13.86
583.293	13.78
583.487	13.68
583.681	13.66
583.875	13.52
584.07	13.44
584.264	13.47
584.458	13.63
584.652	13.5
584.846	13.35
585.04	13.45
585.234	13.31
585.428	13.42
585.623	13.25
585.817	13.51
586.011	13.47
586.205	13.52
586.399	13.49
586.593	13.47
586.787	13.68
586.981	14.04
587.174	14.09
587.368	13.79
587.562	13.76
587.756	14.07
587.95	14.17
588.144	14.24
588.338	14.08
588.532	14.19
588.725	13.96
588.919	13.91
589.113	13.69
589.307	13.53
589.501	13.78
589.694	13.83
589.888	13.56
590.082	13.28
590.275	13.49
590.469	13.55
590.663	13.39
590.856	13.54
591.05	13.54
591.244	13.51
591.437	13.4
591.631	13.56
591.824	13.53
592.018	13.74
592.212	13.72
592.405	13.65
592.599	13.87
592.792	13.87
592.986	13.72
593.179	13.76
593.372	13.72
593.566	14.17
593.759	14.07
593.953	13.86
594.146	14.03
594.339	14.28
594.533	14.25
594.726	14.17
594.92	14.23
595.113	14.49
595.306	14.47
595.499	14.81
595.693	14.47
595.886	14.45
596.079	14.56
596.272	14.24
596.466	14.17
596.659	14.19
596.852	14.02
597.045	14.15
597.238	14.2
597.431	14.06
597.624	13.8
597.818	13.91
598.011	13.98
598.204	13.91
598.397	14.14
598.59	13.93
598.783	13.65
598.976	13.79
599.169	13.68
599.362	13.54
599.555	13.65
599.748	13.6
599.941	13.39
600.134	13.33
600.326	13.59
600.519	13.47
600.712	13.73
600.905	13.87
601.098	13.8
601.291	13.73
601.483	13.7
601.676	13.69
601.869	13.97
602.062	14.21
602.255	14.16
602.447	13.99
602.64	14.24
602.833	13.92
603.025	13.82
603.218	13.84
603.411	13.9
603.603	13.88
603.796	14.04
603.989	14.1
604.181	13.97
604.374	14.04
604.566	13.93
604.759	13.56
604.951	13.87
605.144	13.91
605.336	13.78
605.529	13.84
605.721	13.73
605.914	13.73
606.106	13.55
606.299	13.73
606.491	13.73
606.683	13.86
606.876	14.1
607.068	13.97
607.26	14.12
607.453	14.37
607.645	14.49
607.837	14.81
608.03	14.47
608.222	14.39
608.414	14.28
608.606	14.16
608.799	14.25
608.991	14.22
609.183	14.17
609.375	14.25
609.567	14.18
609.759	13.8
609.952	13.56
610.144	13.75
610.336	13.89
610.528	13.79
610.72	13.72
610.912	13.68
611.104	13.4
611.296	13.33
611.488	13.26
611.68	13.28
611.872	13.38
612.064	13.52
612.256	13.5
612.448	13.45
612.64	13.73
612.832	13.84
613.023	13.68
613.215	13.86
613.407	14.18
613.599	14.04
613.791	13.94
613.983	13.8
614.174	13.82
614.366	14.04
614.558	13.82
614.75	13.63
614.941	13.67
615.133	13.92
615.325	14.11
615.516	13.88
615.708	13.98
615.9	14.19
616.091	14.45
616.283	14.83
616.475	14.23
616.666	14.28
616.858	14.32
617.049	14.26
617.241	14.04
617.432	13.99
617.624	14
617.815	13.96
618.007	14.11
618.198	14.25
618.39	13.84
618.581	14.35
618.773	14.43
618.964	14.4
619.155	14.42
619.347	14.51
619.538	14.65
619.729	14.97
619.921	14.85
620.112	14.93
620.303	14.79
620.494	15.21
620.686	15.05
620.877	15.08
621.068	15.1
621.259	15.19
621.451	15.17
621.642	15.24
621.833	14.76
622.024	14.8
622.215	14.36
622.406	14.43
622.597	13.85
622.788	13.87
622.98	13.76
623.171	13.62
623.362	13.72
623.553	13.81
623.744	13.87
623.935	13.95
624.126	13.77
624.317	13.88
624.508	13.88
624.698	14.07
624.889	13.99
625.08	14.18
625.271	14.29
625.462	14.3
625.653	14.44
625.844	14.17
626.034	14.37
626.225	14.6
626.416	14.29
626.607	14.15
626.798	14.03
626.988	14.11
627.179	14.25
627.37	14.5
627.56	14.43
627.751	14.35
627.942	14.42
628.132	14.43
628.323	14.3
628.514	14.5
628.704	14.62
628.895	14.74
629.085	14.81
629.276	14.55
629.466	14.3
629.657	14.3
629.847	14.21
630.038	14.14
630.228	14.05
630.419	14.31
630.609	14.4
630.8	14.38
630.99	14.24
631.181	14.13
631.371	14.42
631.561	14.54
631.752	14.38
631.942	14.19
632.132	14.27
632.323	14.41
632.513	14.52
632.703	14.53
632.893	14.51
633.084	14.82
633.274	14.88
633.464	14.57
633.654	14.33
633.844	14.14
634.034	14.42
634.225	14.4
634.415	14.23
634.605	14.01
634.795	14.28
634.985	14.47
635.175	14.4
635.365	14.28
635.555	14.39
635.745	14.78
635.935	14.89
636.125	14.56
636.315	14.51
636.505	14.8
636.695	14.64
636.885	14.37
637.075	14.23
637.265	13.93
637.455	14.48
637.644	14.25
637.834	14.08
638.024	14.09
638.214	14.7
638.404	14.71
638.593	14.53
638.783	14.74
638.973	14.85
639.163	14.81
639.352	15.18
639.542	14.57
639.732	14.86
639.921	14.8
640.111	15.05
640.301	14.64
640.49	14.63
640.68	14.6
640.87	14.61
641.059	14.53
641.249	14.2
641.438	13.86
641.628	14.36
641.817	14.33
642.007	14.12
642.196	14.29
642.386	14.31
642.575	14.61
642.764	14.3
642.954	14.49
643.143	14.7
643.333	14.8
643.522	14.83
643.711	14.6
643.901	14.7
644.09	14.87
644.279	14.57
644.469	14.34
644.658	14.03
644.847	13.99
645.036	13.56
645.226	13.33
645.415	13.57
645.604	13.48
645.793	13.2
645.982	13.31
646.171	13.24
646.361	13.29
646.55	13.78
646.739	14.03
646.928	14.26
647.117	14.38
647.306	14.52
647.495	14.75
647.684	15.6
647.873	15.81
648.062	15.74
648.251	16.17
648.44	16.2
648.629	15.96
648.818	16
649.007	16.06
649.196	16.59
649.384	16.09
649.573	15.96
649.762	15.51
649.951	15.23
650.14	14.9
650.328	14.75
650.517	14.64
650.706	14.72
650.895	14.53
651.083	14.64
651.272	14.24
651.461	14.56
651.65	14.36
651.838	14.2
652.027	14.57
652.216	14.63
652.404	14.5
652.593	14.34
652.781	14.09
652.97	13.81
653.158	13.53
653.347	13.36
653.535	13.36
653.724	13.52
653.912	13.28
654.101	13.2
654.289	13.16
654.478	13.31
654.666	13.56
654.855	14.07
655.043	13.74
655.231	13.67
655.42	13.79
655.608	13.87
655.796	13.87
655.985	14.33
656.173	14.09
656.361	14.07
656.55	13.84
656.738	13.55
656.926	13.18
657.114	13.86
657.302	14.18
657.491	14.34
657.679	14.46
657.867	14.44
658.055	14.06
658.243	13.92
658.431	14.13
658.619	14.21
658.807	14.54
658.996	14.6
659.184	14.71
659.372	14.47
659.56	14.08
659.748	13.67
659.936	13.46
660.124	13.55
660.311	13.65
660.499	13.56
660.687	13.72
660.875	13.74
661.063	13.63
661.251	13.99
661.439	14.01
661.627	14.94
661.814	15.46
662.002	15.74
662.19	15.94
662.378	15.72
662.565	15.56
662.753	15.3
662.941	15.15
663.129	15.52
663.316	15.13
663.504	15.24
663.692	14.43
663.879	14.19
664.067	14.11
664.254	13.72
664.442	14.36
664.63	15.08
664.817	15.18
665.005	14.85
665.192	14.72
665.38	14.33
665.567	14.42
665.755	14.45
665.942	14.54
666.13	14.43
666.317	14.44
666.504	14.21
666.692	14.14
666.879	14.07
667.067	13.8
667.254	13.23
667.441	13.31
667.629	13.46
667.816	13.5
668.003	13.39
668.19	13.87
668.378	14.32
668.565	14.41
668.752	13.84
668.939	14.02
669.127	14.72
669.314	15
669.501	15.1
669.688	14.96
669.875	14.64
670.062	15.07
670.249	14.54
670.436	14.23
670.623	13.91
670.81	14.45
670.997	14
671.184	13.46
671.371	14.23
671.558	14.24
671.745	13.97
671.932	14.34
672.119	14.33
672.306	14.61
672.493	14.99
672.68	15.18
672.867	14.41
673.054	14.56
673.24	15.08
673.427	14.44
673.614	14.55
673.801	15.21
673.988	15.53
674.174	15.18
674.361	15.43
674.548	15.31
674.734	15.56
674.921	16.21
675.108	16.61
675.294	16.46
675.481	16.28
675.668	15.96
675.854	15.79
676.041	15.93
676.227	15.86
676.414	15.82
676.601	15.65
676.787	15.07
676.974	15.07
677.16	15.32
677.347	15.45
677.533	15.74
677.719	15.88
677.906	16.04
678.092	15.53
678.279	15.82
678.465	15.72
678.651	16.17
678.838	16.68
679.024	16.45
679.21	16.09
679.397	15.69
679.583	15.45
679.769	15.9
679.955	15.47
680.142	15.51
680.328	15.63
680.514	15.68
680.7	15.37
680.886	15.28
681.073	15.17
681.259	14.56
681.445	14.92
681.631	15.25
681.817	14.86
682.003	15.05
682.189	15.09
682.375	14.94
682.561	14.93
682.747	15.11
682.933	14.79
683.119	14.95
683.305	15.77
683.491	15.45
683.677	15.4
683.863	15.05
684.049	15.18
684.235	15.19
684.42	15.03
684.606	14.57
684.792	14.31
684.978	14.72
685.164	15.05
685.349	14.57
685.535	14.41
685.721	14.4
685.907	14.74
686.092	14.58
686.278	14.56
686.464	14.42
686.649	14.47
686.835	14.71
687.021	14.61
687.206	14.21
687.392	14.33
687.577	14.4
687.763	14.27
687.948	14.15
688.134	14
688.319	13.67
688.505	13.62
688.69	14.04
688.876	13.91
689.061	13.76
689.247	13.66
689.432	13.95
689.618	14.56
689.803	14.34
689.988	13.98
690.174	14.09
690.359	14.45
690.544	14.53
690.73	14.25
690.915	14.37
691.1	13.63
691.285	13.73
691.471	14.05
691.656	13.72
691.841	14.06
692.026	14.3
692.211	14.19
692.396	14.25
692.582	14.22
692.767	14.52
692.952	14.62
693.137	15.96
693.322	16.51
693.507	15.8
693.692	15.52
693.877	14.82
694.062	15.13
694.247	14.76
694.432	15.34
694.617	15.43
694.802	14.59
694.987	14.68
695.172	14.05
695.357	13.45
695.541	13.83
695.726	14.75
695.911	15.37
696.096	15.28
696.281	15.81
696.466	15.04
696.65	15.03
696.835	15.34
697.02	15.09
697.204	15.18
697.389	15.01
697.574	14.9
697.759	14.56
697.943	14.62
698.128	14.44
698.312	13.9
698.497	14.28
698.682	13.91
698.866	14.32
699.051	14.33
699.235	14.38
699.42	14.58
699.604	14.68
699.789	14.47
699.973	14.43
700.158	14.82
700.342	15.1
700.527	15.15
700.711	15.66
700.895	15.19
701.08	14.92
701.264	15.06
701.448	15.19
701.633	15.14
701.817	14.94
702.001	14.98
702.186	14.38
702.37	14.13
702.554	14.42
702.738	14.25
702.923	14.41
703.107	14.7
703.291	14.12
703.475	13.07
703.659	12.74
703.843	12.98
704.027	12.93
704.212	12.79
704.396	13.92
704.58	13.12
704.764	12.65
704.948	13.1
705.132	13.31
705.316	13.38
705.5	14.75
705.684	15.13
705.868	15.11
706.052	15.41
706.235	15.23
706.419	14.59
706.603	14.78
706.787	15.29
706.971	15.08
707.155	15.1
707.339	15.92
707.522	14.9
707.706	15.31
707.89	15.6
708.074	15.33
708.257	15.62
708.441	15.99
708.625	15.76
708.808	15.95
708.992	16.38
709.176	16.47
709.359	16.01
709.543	16.58
709.727	15.77
709.91	15.73
710.094	16.16
710.277	16.56
710.461	16.6
710.644	16.28
710.828	15.82
711.011	15.34
711.195	14.55
711.378	15.19
711.562	14.77
711.745	14.83
711.928	15.41
712.112	14.71
712.295	14.12
712.478	14.11
712.662	14.49
712.845	14.9
713.028	14.54
713.212	14.46
713.395	13.58
713.578	13.67
713.761	13.59
713.945	13.29
714.128	12.79
714.311	13.38
714.494	12.77
714.677	12.44
714.86	12.05
715.043	12.45
715.227	13.26
715.41	13.56
715.593	14.47
715.776	14.64
715.959	14.44
716.142	15.09
716.325	14.62
716.508	14.79
716.691	14.89
716.874	15.44
717.057	15.2
717.239	15.08
717.422	14.77
717.605	13.85
717.788	14.03
717.971	14.07
718.154	15.03
718.337	15.3
718.519	16.12
718.702	16.43
718.885	15.77
719.068	15.29
719.25	15.88
719.433	16.56
719.616	17.28
719.798	16.94
719.981	16.66
720.164	15.66
720.346	16.01
720.529	15.14
720.712	15.37
720.894	16.22
721.077	16.45
721.259	15.05
721.442	13.8
721.624	14.22
721.807	14.52
721.989	15.16
722.172	15.69
722.354	16.31
722.537	16.03
722.719	15.49
722.901	14.94
723.084	15.24
723.266	15.19
723.448	15.74
723.631	15.18
723.813	14.97
723.995	13.62
724.178	12.38
724.36	12.4
724.542	12.73
724.724	13.82
724.907	15.18
725.089	15.48
725.271	16.34
725.453	15.95
725.635	15.82
725.817	15.05
725.999	16.02
726.181	16.92
726.364	16.18
726.546	16.59
726.728	15.89
726.91	14.72
727.092	14.56
727.274	14.4
727.456	15.16
727.638	14.96
727.819	15.77
728.001	15.55
728.183	14.86
728.365	15.14
728.547	14.01
728.729	13.87
728.911	14.27
729.093	13.85
729.274	14.52
729.456	13.52
729.638	14.19
729.82	14.49
730.001	14.54
730.183	14.61
730.365	14.88
730.546	15.26
730.728	15.59
730.91	15.32
731.091	15.4
731.273	15.01
731.455	15.28
731.636	15.42
731.818	14.52
731.999	14.13
732.181	14.04
732.362	13.86
732.544	14.08
732.725	13.77
732.907	14
733.088	14.12
733.27	14.31
733.451	15.32
733.633	15.17
733.814	15.17
733.995	15.69
734.177	17.32
734.358	17.01
734.539	17.17
734.721	17.09
734.902	17.28
735.083	17.74
735.264	16.89
735.446	16.93
735.627	16.34
735.808	16.68
735.989	16.94
736.17	15.22
736.351	15.28
736.533	15.3
736.714	15.49
736.895	14.79
737.076	14.13
737.257	13.59
737.438	13.56
737.619	13.77
737.8	14.12
737.981	13.91
738.162	14.48
738.343	14.29
738.524	14.25
738.705	13.81
738.886	13.93
739.067	15.26
739.247	16.7
739.428	15.83
739.609	14.41
739.79	14.23
739.971	14.01
740.151	12.41
740.332	11.74
740.513	11.57
740.694	11.03
740.874	11.14
741.055	9.55
741.236	8.62
741.417	8.63
741.597	9.34
741.778	9.86
741.958	9.22
742.139	8.99
742.32	9.9
742.5	9.87
742.681	11.5
742.861	11.79
743.042	11.08
743.222	12.76
743.403	12.88
743.583	13.39
743.764	14
743.944	15.18
744.124	18.55
744.305	19.75
744.485	19.93
744.666	19.88
744.846	20.69
745.026	22.78
745.207	20.74
745.387	19.8
745.567	20.37
745.747	20.42
745.928	19.74
746.108	18.28
746.288	16.55
746.468	16.7
746.648	15.03
746.829	13.5
747.009	13.6
747.189	14.93
747.369	17.11
747.549	16.16
747.729	15.23
747.909	15.77
748.089	15.44
748.269	15.81
748.449	15.72
748.629	16.32
748.809	16.8
748.989	15.35
749.169	15.01
749.349	14.78
749.529	14.28
749.709	13.72
749.889	13.26
750.068	14.48
750.248	14.21
750.428	15.39
750.608	15.29
750.788	14.19
750.967	15.19
751.147	15.28
751.327	15.21
751.507	17.92
751.686	19.24
751.866	19.73
752.046	19.45
752.225	20.37
752.405	19.02
752.585	19.33
752.764	19.93
752.944	20.04
753.123	19.48
753.303	19.28
753.482	18.99
753.662	18.15
753.841	17.11
754.021	17.45
754.2	16.61
754.38	18.11
754.559	17.29
754.739	17.46
754.918	17.74
755.097	17.19
755.277	16.18
755.456	13.4
755.635	12.98
755.815	14.47
755.994	12.73
756.173	12.41
756.352	10.49
756.532	10.67
756.711	10.29
756.89	9.22
757.069	10.37
757.248	10.52
757.427	11.77
757.607	12.28
757.786	10.29
757.965	11.6
758.144	12.56
758.323	13.17
758.502	13.41
758.681	14.61
758.86	14.83
759.039	14.06
759.218	14.11
759.397	14.74
759.576	14.94
759.755	16.02
759.934	15.25
760.113	15.24
760.291	14.76
760.47	15.08
760.649	13.96
760.828	14.55
761.007	15.78
761.186	15.01
761.364	13.37
761.543	13.52
761.722	14.04
761.901	14.43
762.079	13.82
762.258	13.35
762.437	14.19
762.615	14.72
762.794	14.72
762.972	13.97
763.151	14.88
763.33	15.97
763.508	15.15
763.687	14.48
763.865	14.28
764.044	14.52
764.222	15.27
764.401	14.37
764.579	14.18
764.758	13.49
764.936	14.23
765.114	14.41
765.293	13.78
765.471	14.44
765.65	14.05
765.828	14.22
766.006	14.14
766.184	14.33
766.363	15.34
766.541	16.31
766.719	17.13
766.898	15.94
767.076	16.03
767.254	16.53
767.432	17.13
767.61	17.53
767.788	18.44
767.967	18.92
768.145	18.48
768.323	18.5
768.501	17.86
768.679	17.15
768.857	17.56
769.035	18.94
769.213	19.05
769.391	18.22
769.569	17.63
769.747	17.44
769.925	16.65
770.103	17.87
770.281	18
770.459	18.05
770.636	17.68
770.814	17.95
770.992	16.4
771.17	14.91
771.348	14.51
771.525	16.13
771.703	12.77
771.881	13.49
772.059	11.27
772.236	9.57
772.414	9.8
772.592	10.82
772.769	10.96
772.947	12.58
773.125	15.65
773.302	15.28
773.48	15.8
773.657	19
773.835	19.81
774.013	21.62
774.19	21.16
774.368	20.8
774.545	19.55
774.723	21.89
774.9	20.01
775.077	17.69
775.255	19.25
775.432	18.64
775.61	17.71
775.787	16.69
775.964	16.4
776.142	15.97
776.319	15.39
776.496	14.22
776.674	10.56
776.851	9.59
777.028	10.2
777.205	8.3
777.382	9.68
777.56	8.65
777.737	8.32
777.914	7.21
778.091	7.99
778.268	6.98
778.445	9.46
778.622	10.83
778.8	11.39
778.977	10.91
779.154	12.57
779.331	11.41
779.508	11.28
779.685	12.01
779.862	12.72
780.038	13.69
780.215	13.98
780.392	13.41
780.569	11.76
780.746	12.3
780.923	12.12
781.1	9.89
781.277	10.15
781.453	12.31
781.63	12.72
781.807	12.85
781.984	11.27
782.16	10.85
782.337	11.74
782.514	14.21
782.691	12.44
782.867	13.1
783.044	14.45
783.221	12.95
783.397	14.4
783.574	16.09
783.75	15.57
783.927	17.55
784.103	22.73
784.28	22.05
784.456	22.37
784.633	20.59
784.809	19.45
784.986	19.59
785.162	20.89
785.339	19.52
785.515	14.9
785.692	17.16
785.868	16.91
786.044	15.35
786.221	14.75
786.397	15.02
786.573	14.19
786.749	14.59
786.926	12.93
787.102	11.64
787.278	9.92
787.454	13.28
787.631	10.18
787.807	10.4
787.983	8.79
788.159	7.63
788.335	5.38
788.511	8.77
788.687	10.05
788.863	12.51
789.039	14.69
789.216	17.58
789.392	17.63
789.568	18.57
789.744	16.86
789.919	14.5
790.095	15.29
790.271	17.26
790.447	18.06
790.623	16.27
790.799	14.19
790.975	13.43
791.151	9.83
791.327	9.24
791.502	11.88
791.678	14.38
791.854	15.64
792.03	14.29
792.205	12.82
792.381	14.62
792.557	14.94
792.733	18.62
792.908	19.56
793.084	22.24
793.259	23.43
793.435	22.75
793.611	22.02
793.786	22.14
793.962	25.14
794.137	26.29
794.313	22.47
794.488	22.14
794.664	21.93
794.839	20.95
795.015	20.67
795.19	21.95
795.366	21.2
795.541	20.45
795.716	18.15
795.892	17.4
796.067	15.8
796.242	18.62
796.418	18.82
796.593	20.54
796.768	21.96
796.944	20.85
797.119	16.65
797.294	15.12
797.469	18.17
797.644	20.79
797.82	18.3
797.995	18.47
798.17	17.1
798.345	21.05
798.52	17.69
798.695	14.87
798.87	15.64
799.045	17.73
799.22	18.91
799.395	16.67
799.57	16.92
799.745	21.27
799.92	21.13
800.095	22.8
800.27	20.38
800.445	21.41
800.62	23.73
800.795	21.46
800.97	22.69
801.145	25.04
801.319	23.72
801.494	22.41
801.669	21.82
801.844	17.07
802.018	14.96
802.193	14.78
802.368	9.76
802.543	6.7
802.717	10.22
802.892	10.43
803.067	8.61
803.241	9.78
803.416	11.52
803.59	9.31
803.765	15.62
803.94	19.05
804.114	18.93
804.289	22.94
804.463	23.78
804.638	22.17
804.812	19.45
804.986	18.59
805.161	17.8
805.335	14.19
805.51	15.87
805.684	12.52
805.858	11.52
806.033	11.4
806.207	8.4
806.381	9.2
806.556	12.44
806.73	8.52
806.904	13.36
807.078	12.69
807.253	14.16
807.427	13.02
807.601	15.95
807.775	15.26
807.949	14.97
808.123	14.32
808.298	12.92
808.472	12.85
808.646	18.66
808.82	14
808.994	13.18
809.168	12.58
809.342	11.92
809.516	12.79
809.69	15.34
809.864	14.39
810.038	15.82
810.212	8.73
810.385	6.53
810.559	5.38
810.733	4.05
810.907	3.45
811.081	3.89
811.255	9.46
811.428	8.82
811.602	5.86
811.776	4.82
811.95	8.23
812.123	16.56
812.297	16.8
812.471	15.59
812.644	20.28
812.818	23.18
812.992	20.82
813.165	20.04
813.339	16.97
813.512	15.81
813.686	18.29
813.86	15.79
814.033	17.81
814.207	19.89
814.38	25.53
814.554	19.55
814.727	20.42
814.9	24.79
815.074	21.91
815.247	20.84
815.421	19.64
815.594	20.99
815.767	18.14
815.941	14.38
816.114	15.6
816.287	12.3
816.46	16.72
816.634	15.02
816.807	14.97
816.98	17.16
817.153	17.16
817.327	18.46
817.5	13.98
817.673	16.54
817.846	15.85
818.019	11.6
818.192	13.34
818.365	10.58
818.538	12.95
818.711	14.14
818.884	10.14
819.057	15.12
819.23	13.25
819.403	14.79
819.576	15.01
819.749	16.21
819.922	11.3
820.095	10.73
820.268	13.52
820.441	12.52
820.614	11.02
820.786	11.73
820.959	12.86
821.132	15.28
821.305	16.67
821.477	17.29
821.65	17.65
821.823	18.7
821.996	18.47
822.168	17.45
822.341	17.75
822.514	17.68
822.686	17.37
822.859	16.66
823.031	15.6
823.204	15.37
823.376	15.75
823.549	15
823.722	15.47
823.894	14.72
824.067	14.17
824.239	13.62
824.411	13.47
824.584	14.06
824.756	14.03
824.929	13.74
825.101	13.78
825.273	12.88
825.446	13.77
825.618	13.91
825.79	14.3
825.963	16.96
826.135	15.65
826.307	16.74
826.479	16.36
826.652	16.15
826.824	18.18
826.996	17.86
827.168	17.14
827.34	16.09
827.512	17.04
827.684	18.2
827.856	17.96
828.029	19.42
828.201	19.24
828.373	20.18
828.545	20.99
828.717	19.7
828.889	18.77
829.061	20.8
829.232	22.09
829.404	20.56
829.576	19.72
829.748	18.38
829.92	17.58
830.092	15.69
830.264	16.48
830.436	15.85
830.607	17.34
830.779	21.18
830.951	20.35
831.123	20.6
831.294	22.18
831.466	22.48
831.638	25.23
831.809	26.75
831.981	27.58
832.153	22.8
832.324	21.56
832.496	21.63
832.667	17.2
832.839	11.22
833.011	13.63
833.182	15.33
833.354	16.7
833.525	14.38
833.697	16.1
833.868	17
834.039	17.18
834.211	18.32
834.382	15.75
834.554	16.59
834.725	19.87
834.896	19.79
835.068	16.76
835.239	17.16
835.41	16.24
835.581	17.51
835.753	14.5
835.924	16.37
836.095	15.08
836.266	17.55
836.438	15.91
836.609	15.73
836.78	14.02
836.951	16.79
837.122	17.48
837.293	19.71
837.464	17.57
837.635	20.95
837.806	20.13
837.977	17.17
838.148	17.7
838.319	20.32
838.49	18.86
838.661	18.51
838.832	14.95
839.003	8.28
839.174	-0.44
839.345	-5.42
839.516	-1.14
839.687	-3.17
839.857	1.67
840.028	-2.41
840.199	-5
840.37	-3.04
840.54	0.62
840.711	3.51
840.882	3.61
841.053	7.83
841.223	8.75
841.394	6.63
841.564	6.45
841.735	3.59
841.906	4.93
842.076	8.89
842.247	5.32
842.417	-2.72
842.588	-13.71
842.758	-10.68
842.929	-6.81
843.099	-10.51
843.27	-8.82
843.44	-3.81
843.611	-2.44
843.781	-5.32
843.951	-17.26
844.122	-4.84
844.292	3.74
844.462	19.8
844.633	19.87
844.803	22.51
844.973	26.2
845.144	28.75
845.314	31.79
845.484	27.49
845.654	35.11
845.824	51.58
845.995	36.91
846.165	24.82
846.335	8.38
846.505	15.47
846.675	9.1
846.845	16.05
847.015	24.67
847.185	26.32
847.355	38.06
847.525	41.95
847.695	36.19
847.865	42.74
848.035	48.3
848.205	51.03
848.375	47.56
848.545	51.38
848.715	42.2
848.884	31.41
849.054	24.71
849.224	20.38
849.394	-2.29
849.564	4.85
849.733	-16.43
849.903	-13.07
850.073	1.41
850.243	11.49
850.412	-0.85
850.582	8.25
850.752	17.29
850.921	22.21
851.091	25.22
851.26	31.24
851.43	15.65
851.599	11.46
851.769	15.85
851.939	22.04
852.108	16.46
852.278	20.13
852.447	16.48
852.616	16.91
852.786	13.22
852.955	3.11
853.125	6.04
853.294	23.74
853.463	31.81
853.633	31.73
853.802	20.89
853.971	35.1
854.141	37.19
854.31	34.11
854.479	11.75
854.648	15.17
854.818	28.76
854.987	37.51
855.156	32.58
855.325	40.04
855.494	37.66
855.663	40.51
855.832	31.71
856.001	28.69
856.171	39.22
856.34	49.92
856.509	60.61
856.678	61.14
856.847	43.76
857.016	47.22
857.185	49.2
857.353	43.92
857.522	39.76
857.691	35.9
857.86	40.79
858.029	36.05
858.198	48.71
858.367	49.81
858.535	50.46
858.704	48
858.873	39.85
859.042	33.36
859.21	43.25
859.379	44.57
859.548	60.07
859.717	59.3
859.885	53.7
860.054	54.77
860.222	43.86
860.391	32.57
860.56	37.69
860.728	37.36
860.897	31.53
861.065	26.66
861.234	30.66
861.402	25.68
861.571	22.11
861.739	33.57
861.908	9.11
862.076	13.04
862.244	24.03
862.413	33.09
862.581	27.67
862.749	24.23
862.918	30.41
863.086	22.55
863.254	10.84
863.423	3.32
863.591	-8.07
863.759	2.16
863.927	5.4
864.096	-14.7
864.264	-44.03
864.432	-24.6
864.6	-32.82
864.768	-26.76
864.936	-17.5
865.104	-2.26
865.272	-8.79
865.44	-2.79
865.608	1.16
865.776	-2.74
865.944	20
866.112	37.83
866.28	37.98
866.448	37.04
866.616	64.58
866.784	72.1
866.952	62.73
867.12	65.31
867.288	34.79
867.455	31.72
867.623	29.28
867.791	26.34
867.959	34.65
868.127	30.3
868.294	33.01
868.462	0.51
868.63	15
868.797	-15.15
868.965	-10.8
869.133	12.84
869.3	21.92
869.468	-4.82
869.636	-4.38
869.803	-3.72
869.971	-5.61
870.138	-5.96
870.306	17.83
870.473	-1.37
870.641	5.81
870.808	11.89
870.975	-9.79
871.143	-33.91
871.31	-4.6
871.478	-12.33
871.645	-19.31
871.812	-26.7
871.98	-29.22
872.147	-49.24
872.314	-32.38
872.482	-29
872.649	-27.95
872.816	-5.72
872.983	0.93
873.15	-16.56
873.318	1.09
873.485	39.96
873.652	153.03
873.819	128.71
873.986	136.93
874.153	73.05
874.32	50.72
874.487	-0.06
874.654	-6.05
874.821	-2.48
874.988	-6.65
875.155	-6.64
875.322	-33.03
875.489	-79.17
875.656	-120.94
875.823	-199.51
875.99	-91.48
876.157	-55.82
876.324	8.63
876.49	15.06
876.657	15.31
876.824	10.45
876.991	-7.34
877.157	2.66
877.324	8.2
877.491	23.53
877.658	32.78
877.824	24.72
877.991	36.98
878.157	34.09
878.324	39.64
878.491	44.3
878.657	18.5
878.824	42.77
878.99	57.83
879.157	55.19
879.323	41.85
879.49	18.14
879.656	32.28
879.823	12.96
879.989	3.85
880.156	-13.15
880.322	10.21
880.488	48.3
880.655	41.77
880.821	46.3
880.987	22.02
881.154	19.81
881.32	28.33
881.486	29.99
881.652	32.46
881.819	31.04
881.985	30.58
882.151	24.06
882.317	23.21
882.483	19.39
882.649	7.77
882.816	15.19
882.982	14.07
883.148	12.82
883.314	11.64
883.48	12.24
883.646	11.39
883.812	10.55
883.978	8
884.144	7.99
884.31	11.14
884.476	19.82
884.642	18.35
884.807	20.68
884.973	21.86
885.139	21.71
885.305	20.13
885.471	22.25
885.637	22.55
885.802	26.73
885.968	25.62
886.134	25.79
886.3	24.78
886.465	25.87
886.631	21.58
886.797	21.73
886.962	17.99
887.128	18.25
887.293	18.5
887.459	25.59
887.625	18.62
887.79	20.9
887.956	17.69
888.121	7.63
888.287	1.2
888.452	12.86
888.618	8.45
888.783	17.23
