Data from 2938119_Reflection_1.txt Node
Date: Sat Jul 11 17:54:39 EDT 2015
User: robert
Spectrometer: USB4E03001
Autoset integration time: false
Trigger mode: 4
Integration Time (sec): 1.000000E-1
Scans to average: 10
Electric dark correction enabled: true
Nonlinearity correction enabled: false
Boxcar width: 5
Stray light correction enabled: false
XAxis mode: Wavelengths
Stop averaging: false
Number of Pixels in Spectrum: 3648
>>>>>Begin Spectral Data<<<<<
177.566	1022.69
177.785	-267.77
178.005	-37.95
178.225	-8.26
178.445	20.1
178.665	43.86
178.885	87.05
179.105	106.34
179.324	114.65
179.544	91.6
179.764	122.83
179.984	197.73
180.204	273.13
180.423	250.44
180.643	860.12
180.863	-916.09
181.083	362.68
181.302	424.2
181.522	244.27
181.742	249.17
181.961	262.31
182.181	246.06
182.401	343.39
182.621	1593.82
182.84	871.13
183.06	294.26
183.279	213.66
183.499	220.31
183.719	176.33
183.938	179.7
184.158	236.95
184.377	185.99
184.597	191.61
184.816	181.23
185.036	127.81
185.256	170.34
185.475	212.69
185.695	230.77
185.914	269.25
186.134	234.47
186.353	296.46
186.572	209.77
186.792	262.08
187.011	351.55
187.231	328.82
187.45	296.95
187.67	250.84
187.889	213.69
188.108	229.1
188.328	231.7
188.547	238.81
188.766	206.92
188.986	263.03
189.205	250.3
189.424	220.06
189.644	244.32
189.863	368.55
190.082	1669.41
190.302	550.75
190.521	455.47
190.74	473.39
190.959	-2064.53
191.178	-1068.44
191.398	735.21
191.617	310.68
191.836	374.47
192.055	567.55
192.274	338.38
192.494	199.2
192.713	793.11
192.932	730.53
193.151	-6865.98
193.37	-2158.62
193.589	-516.17
193.808	-2892.7
194.027	-2074.33
194.246	965.24
194.465	19242.37
194.685	2430.91
194.904	-4810.04
195.123	995.28
195.342	-1064.85
195.561	631.28
195.78	219.31
195.999	168.83
196.218	242.73
196.436	235.85
196.655	276.55
196.874	126.83
197.093	105.66
197.312	92.72
197.531	109.89
197.75	128.4
197.969	142.36
198.188	173.23
198.407	201.08
198.625	213.77
198.844	231.7
199.063	223.65
199.282	383.72
199.501	463.5
199.719	813.58
199.938	510.9
200.157	930.21
200.376	-7325
200.594	636.27
200.813	308.33
201.032	236.55
201.251	217.42
201.469	272.31
201.688	209.26
201.907	212.07
202.125	182.57
202.344	283.01
202.563	246.87
202.781	306.44
203	268.32
203.218	234.11
203.437	264.12
203.656	295.22
203.874	221.03
204.093	132.37
204.311	136.4
204.53	135.25
204.748	126.46
204.967	133.88
205.185	101.28
205.404	104.27
205.622	118.45
205.841	139.42
206.059	161.57
206.278	158
206.496	198.99
206.715	265.97
206.933	354.36
207.151	477.46
207.37	692.39
207.588	1105.36
207.806	571.05
208.025	920.96
208.243	637.62
208.461	560.66
208.68	-310.51
208.898	850.71
209.116	409.01
209.335	359.07
209.553	931.9
209.771	551.16
209.989	1692.42
210.208	-3193.77
210.426	-1515.12
210.644	-1887.43
210.862	483.15
211.081	406.05
211.299	427.39
211.517	752.95
211.735	697.82
211.953	247.68
212.171	290.46
212.39	218.72
212.608	207.49
212.826	181.68
213.044	168.74
213.262	176.05
213.48	140.28
213.698	129.57
213.916	114.63
214.134	113.62
214.352	153.71
214.57	138.92
214.788	144.27
215.006	132.66
215.224	113.94
215.442	107.29
215.66	135.56
215.878	134.39
216.096	146.38
216.314	144.15
216.532	140.96
216.75	111.79
216.968	108.31
217.185	111.62
217.403	154.94
217.621	242.72
217.839	228.42
218.057	152.69
218.275	188.41
218.492	200.57
218.71	152.52
218.928	173.63
219.146	192.49
219.363	174.05
219.581	281.24
219.799	-277.46
220.017	-3086.6
220.234	-116.25
220.452	28.85
220.67	28.42
220.887	243
221.105	354.25
221.323	151.65
221.54	133.8
221.758	132.69
221.976	114.2
222.193	109
222.411	88.06
222.629	87.68
222.846	98.13
223.064	106
223.281	97.08
223.499	104.28
223.716	108.1
223.934	107.73
224.151	93.13
224.369	104.76
224.586	103.12
224.804	102.28
225.021	92.35
225.239	87.8
225.456	76.48
225.674	61.91
225.891	47.19
226.108	49.27
226.326	48.16
226.543	44.06
226.76	32.68
226.978	38.77
227.195	34.79
227.413	44.55
227.63	49.52
227.847	48.3
228.064	45.36
228.282	44.48
228.499	45.6
228.716	42.21
228.934	41.38
229.151	45.6
229.368	40.1
229.585	40.03
229.802	37.54
230.02	32.95
230.237	33.24
230.454	34.94
230.671	34.33
230.888	28.03
231.105	28.28
231.323	31.41
231.54	26.88
231.757	29.22
231.974	33.49
232.191	38.63
232.408	41.9
232.625	46.44
232.842	46.5
233.059	46.43
233.276	47.82
233.493	51.21
233.71	46.66
233.927	44.25
234.144	41.38
234.361	42.14
234.578	37.04
234.795	37.06
235.012	32.84
235.229	32.01
235.446	30.4
235.663	37.79
235.879	36.62
236.096	38.2
236.313	38.24
236.53	44.95
236.747	41.84
236.964	40.84
237.181	41.36
237.397	35.77
237.614	42.45
237.831	42.71
238.048	40.16
238.264	36.38
238.481	39.96
238.698	39.97
238.915	36.16
239.131	35.41
239.348	37.84
239.565	34.31
239.781	38.37
239.998	37.2
240.215	42.06
240.431	40.5
240.648	40.61
240.865	38.71
241.081	36.34
241.298	34.97
241.514	32.19
241.731	29.9
241.947	29.64
242.164	26.59
242.38	24.58
242.597	21.89
242.814	22.29
243.03	23.37
243.246	22.42
243.463	24.06
243.679	25.28
243.896	25.04
244.112	26.14
244.329	26.48
244.545	27.92
244.762	29.1
244.978	30.82
245.194	28.58
245.411	25.41
245.627	25.26
245.843	22.8
246.06	20.03
246.276	18.9
246.492	18.48
246.709	17.15
246.925	17.32
247.141	15.81
247.357	15.14
247.574	15.38
247.79	16.33
248.006	15.73
248.222	15.37
248.439	15.15
248.655	16.16
248.871	14.91
249.087	15.44
249.303	15.37
249.519	16.54
249.736	17.07
249.952	17.68
250.168	15.16
250.384	16.46
250.6	18.02
250.816	19.01
251.032	19.2
251.248	22.5
251.464	22.66
251.68	20.21
251.896	19.92
252.112	17.86
252.328	15.47
252.544	17.56
252.76	19.43
252.976	20.15
253.192	22.05
253.408	22.36
253.624	21.28
253.84	22.74
254.056	24.4
254.272	26.48
254.487	27.48
254.703	30.87
254.919	31.61
255.135	27.67
255.351	29.64
255.567	30.96
255.782	30.71
255.998	31.35
256.214	30.6
256.43	31.15
256.646	27.69
256.861	29.33
257.077	25.81
257.293	25.85
257.508	26.28
257.724	23.02
257.94	18.66
258.155	16.27
258.371	15.28
258.587	13.7
258.802	14.42
259.018	14.67
259.234	13.67
259.449	13.94
259.665	12.9
259.88	13.03
260.096	12.5
260.312	12.7
260.527	13.15
260.743	13.12
260.958	13.66
261.174	12.2
261.389	11.51
261.605	12.05
261.82	12.09
262.036	12.85
262.251	12.63
262.466	12.64
262.682	14.77
262.897	13.84
263.113	13.39
263.328	12.49
263.543	14.37
263.759	16.86
263.974	16.85
264.189	17.36
264.405	16.93
264.62	17.18
264.835	16.48
265.051	15.04
265.266	17.27
265.481	17.32
265.696	17.43
265.912	17.19
266.127	17.6
266.342	15.2
266.557	14.58
266.773	13.26
266.988	13.09
267.203	14.49
267.418	14.92
267.633	14.34
267.848	14.35
268.064	14.57
268.279	15.01
268.494	14.68
268.709	16.64
268.924	17.45
269.139	18.25
269.354	18.24
269.569	17.85
269.784	17.93
269.999	17.26
270.214	16.44
270.429	16.85
270.644	17.52
270.859	17.16
271.074	16.12
271.289	14.92
271.504	15.6
271.719	15.23
271.934	15.64
272.149	14.92
272.363	15.22
272.578	15.74
272.793	14.17
273.008	13.16
273.223	11.97
273.438	12.18
273.653	13.72
273.867	12.76
274.082	13.11
274.297	13.16
274.512	12.83
274.726	12.69
274.941	13.36
275.156	15.11
275.371	16.24
275.585	17.12
275.8	16.26
276.015	14.36
276.229	15.28
276.444	13.82
276.659	13.71
276.873	14.62
277.088	15.11
277.302	15.12
277.517	14.79
277.732	14.32
277.946	14.49
278.161	17.36
278.375	18.04
278.59	18.91
278.804	21.29
279.019	21.57
279.233	21.83
279.448	22.1
279.662	21.94
279.877	21.84
280.091	19.94
280.306	21.14
280.52	18.57
280.735	17.69
280.949	15.67
281.163	15.26
281.378	14.95
281.592	14.81
281.806	14.74
282.021	15.55
282.235	15.48
282.449	15.61
282.664	14.12
282.878	15.8
283.092	16.7
283.307	17.14
283.521	16.47
283.735	15.14
283.949	14.72
284.164	14.38
284.378	13.39
284.592	12.62
284.806	14.06
285.02	13.97
285.234	14.11
285.449	12.85
285.663	13.12
285.877	12.88
286.091	15.23
286.305	14.57
286.519	14.44
286.733	14.12
286.947	15.39
287.161	14.36
287.375	14.34
287.589	13.1
287.803	14.79
288.017	14.99
288.231	16.25
288.445	14.83
288.659	16.11
288.873	17.44
289.087	18.22
289.301	17.02
289.515	18.03
289.729	19.55
289.943	20.16
290.157	20.99
290.371	21.94
290.584	21.55
290.798	21.48
291.012	20.58
291.226	20.14
291.44	20.56
291.654	21.14
291.867	21.9
292.081	22.06
292.295	22.26
292.509	20.56
292.722	17.76
292.936	17.41
293.15	18.53
293.364	21.25
293.577	20.94
293.791	20.09
294.005	20.41
294.218	18.46
294.432	16.95
294.645	17.44
294.859	18.13
295.073	18.9
295.286	19.57
295.5	19.36
295.713	17.54
295.927	16.94
296.14	17.14
296.354	17.28
296.568	18.19
296.781	18.37
296.994	17.52
297.208	17.73
297.421	18.06
297.635	17.71
297.848	16.94
298.062	17.43
298.275	16.85
298.489	17.02
298.702	16.94
298.915	16.42
299.129	16.18
299.342	16.01
299.555	16.17
299.769	17.3
299.982	17.4
300.195	17.53
300.409	18.11
300.622	19.16
300.835	18.6
301.048	17.02
301.262	17.02
301.475	18.1
301.688	19.54
301.901	19.96
302.115	19.01
302.328	18.47
302.541	19.36
302.754	17.83
302.967	19.36
303.18	19.15
303.393	21.96
303.607	23.06
303.82	22.72
304.033	22.62
304.246	23.3
304.459	23.81
304.672	23.59
304.885	23.16
305.098	24.13
305.311	22.41
305.524	22.42
305.737	20.68
305.95	21.98
306.163	21.33
306.376	21.3
306.589	19.66
306.802	19.02
307.015	20.07
307.228	18.73
307.44	17.58
307.653	19.67
307.866	19.81
308.079	22.06
308.292	18.97
308.505	18.52
308.718	18.32
308.93	19.19
309.143	19.37
309.356	18.3
309.569	18.14
309.781	19.2
309.994	17.76
310.207	18.24
310.42	16.18
310.632	15.93
310.845	16.04
311.058	15.49
311.27	13.56
311.483	14.43
311.696	15.14
311.908	16.94
312.121	16.18
312.333	16.35
312.546	16.5
312.759	18.59
312.971	18.81
313.184	20.2
313.396	20.12
313.609	21.58
313.821	21.56
314.034	21.28
314.246	20.2
314.459	20.95
314.671	22.17
314.884	22.18
315.096	20.5
315.309	21.31
315.521	21.33
315.733	21.79
315.946	21.78
316.158	20.48
316.371	20.35
316.583	21.2
316.795	20.2
317.008	19.87
317.22	20.87
317.432	20.51
317.644	20.51
317.857	19.37
318.069	18.19
318.281	18.64
318.494	19.4
318.706	21.22
318.918	21.78
319.13	21.67
319.342	21.83
319.555	19.72
319.767	20.3
319.979	20.87
320.191	21
320.403	21.69
320.615	22.4
320.827	22.73
321.039	21.8
321.252	21.1
321.464	22.3
321.676	21.64
321.888	21.81
322.1	22.38
322.312	21.66
322.524	21.01
322.736	20.96
322.948	19.37
323.16	19.87
323.372	20.22
323.584	19.83
323.796	20.68
324.007	20.61
324.219	21.37
324.431	20.96
324.643	21.27
324.855	20.94
325.067	21.21
325.279	22.67
325.491	21.16
325.702	20.49
325.914	20.55
326.126	18.8
326.338	18.42
326.55	18.16
326.761	18.24
326.973	18.33
327.185	19.24
327.396	18.62
327.608	16.47
327.82	18.98
328.032	20.19
328.243	19.46
328.455	21.3
328.666	22.64
328.878	21.51
329.09	21.31
329.301	19.19
329.513	18.68
329.725	19.13
329.936	19.47
330.148	18.54
330.359	16.39
330.571	17.63
330.782	15.84
330.994	14.96
331.205	17.39
331.417	18.87
331.628	20.81
331.84	21.12
332.051	21.6
332.262	24.92
332.474	24.88
332.685	26.58
332.897	25.2
333.108	24.87
333.319	25.55
333.531	25.82
333.742	25.41
333.953	25.79
334.165	26.32
334.376	27.37
334.587	24.45
334.799	24.33
335.01	24.03
335.221	24.24
335.432	24.53
335.644	23.84
335.855	22.69
336.066	22.17
336.277	21.48
336.488	19.99
336.7	18.92
336.911	19.92
337.122	20.18
337.333	20.24
337.544	21.27
337.755	21.73
337.966	20.87
338.177	21.19
338.388	19.8
338.599	21.07
338.811	21.14
339.022	20.69
339.233	20.05
339.444	19.59
339.655	17.93
339.866	16.65
340.076	16.49
340.287	17.15
340.498	16.69
340.709	17.47
340.92	16.11
341.131	17.16
341.342	17.63
341.553	19.08
341.764	19.88
341.975	20.78
342.185	21.61
342.396	22.02
342.607	22.47
342.818	22.71
343.029	23.84
343.239	24.24
343.45	23.87
343.661	23.77
343.872	23.16
344.082	22.49
344.293	22.96
344.504	22.68
344.714	21.8
344.925	19.79
345.136	19.48
345.346	18.32
345.557	18.35
345.768	19.11
345.978	19.35
346.189	19.33
346.399	18.7
346.61	18.88
346.821	19.1
347.031	19.21
347.242	20.75
347.452	20.52
347.663	21.82
347.873	22.14
348.084	21.16
348.294	20.71
348.504	19.59
348.715	19.22
348.925	19.55
349.136	19.4
349.346	19.37
349.557	18.38
349.767	19.3
349.977	18.79
350.188	18.12
350.398	17.76
350.608	17.5
350.819	18.29
351.029	18.26
351.239	17.78
351.449	17.42
351.66	17.73
351.87	17.94
352.08	18.12
352.29	17.16
352.501	18.67
352.711	20.18
352.921	19.75
353.131	19.5
353.341	20.5
353.552	20.27
353.762	19.63
353.972	20.48
354.182	19.88
354.392	18.88
354.602	19.58
354.812	18.82
355.022	16.97
355.232	18.29
355.442	18.46
355.652	18.04
355.862	18.08
356.072	18.17
356.282	16.32
356.492	17.19
356.702	16.54
356.912	16.75
357.122	16.04
357.332	17.15
357.542	16.06
357.752	15.77
357.962	14.93
358.171	14.13
358.381	15.3
358.591	15.71
358.801	15.42
359.011	16.68
359.221	16.46
359.43	15.97
359.64	14.77
359.85	13.54
360.06	13.08
360.269	13.63
360.479	13.59
360.689	12.93
360.899	13.19
361.108	12.99
361.318	12.36
361.528	12.03
361.737	12.3
361.947	12.37
362.156	12.96
362.366	13.55
362.576	12.91
362.785	13.25
362.995	13.5
363.204	12.86
363.414	12.41
363.623	12.53
363.833	13.1
364.042	13.95
364.252	14.69
364.461	15.49
364.671	15.02
364.88	16.06
365.09	16.19
365.299	16.33
365.509	17.87
365.718	18.28
365.927	17.8
366.137	17.8
366.346	16.87
366.555	16.5
366.765	15.72
366.974	15.27
367.183	14.83
367.393	14.82
367.602	14.55
367.811	13.07
368.021	14.18
368.23	14.67
368.439	14.95
368.648	15.21
368.857	15.81
369.067	15.72
369.276	15.84
369.485	15.71
369.694	15.53
369.903	15.22
370.112	15.37
370.321	14.98
370.531	14.53
370.74	14.08
370.949	14.2
371.158	14.04
371.367	14.06
371.576	14.78
371.785	14.97
371.994	14.37
372.203	14.3
372.412	14.39
372.621	14.02
372.83	13.9
373.039	13.75
373.248	12.9
373.457	12.41
373.666	13.47
373.874	13.43
374.083	13.02
374.292	13.46
374.501	13.17
374.71	13.58
374.919	13.42
375.128	13.58
375.336	13.92
375.545	14.75
375.754	14.5
375.963	13.85
376.171	13.46
376.38	14.03
376.589	13.88
376.798	13.63
377.006	13.2
377.215	13.29
377.424	13.05
377.632	12.71
377.841	12.45
378.05	12.69
378.258	12.57
378.467	12.64
378.675	12.23
378.884	12.35
379.093	12.8
379.301	12.8
379.51	12.49
379.718	12.75
379.927	12.29
380.135	12.04
380.344	12.09
380.552	12.2
380.761	12.13
380.969	12.13
381.177	12.2
381.386	11.68
381.594	11.04
381.803	10.98
382.011	10.83
382.219	10.46
382.428	10.6
382.636	9.99
382.845	10.01
383.053	9.9
383.261	10.02
383.469	9.42
383.678	9.9
383.886	10.33
384.094	10.62
384.302	10.88
384.511	11.31
384.719	11.2
384.927	11
385.135	10.97
385.343	10.91
385.552	11.22
385.76	11.74
385.968	11.58
386.176	11.61
386.384	11.3
386.592	10.61
386.8	10.47
387.008	10.3
387.216	10.53
387.424	10.26
387.633	10.4
387.841	9.91
388.049	9.64
388.257	9.62
388.465	9.34
388.672	8.96
388.88	9.66
389.088	9.36
389.296	9.12
389.504	9.37
389.712	9.1
389.92	8.68
390.128	8.72
390.336	9.13
390.544	8.69
390.751	8.58
390.959	8.69
391.167	8.51
391.375	8.69
391.583	8.78
391.79	8.26
391.998	8.59
392.206	8.79
392.414	8.61
392.621	7.95
392.829	7.92
393.037	8.11
393.244	8.65
393.452	8.2
393.66	8.52
393.867	8.31
394.075	8.34
394.283	8.19
394.49	7.8
394.698	7.53
394.905	7.44
395.113	7.74
395.32	7.76
395.528	7.23
395.735	7.4
395.943	7
396.15	7.11
396.358	7.47
396.565	7.63
396.773	8.08
396.98	8.46
397.188	8.46
397.395	8.24
397.602	7.96
397.81	8.19
398.017	8.06
398.225	7.98
398.432	8.4
398.639	8.25
398.847	8.15
399.054	7.83
399.261	7.78
399.468	7.71
399.676	7.72
399.883	7.99
400.09	7.58
400.297	7.57
400.505	7.53
400.712	6.99
400.919	7.02
401.126	7.37
401.333	7.52
401.54	7.28
401.748	7.59
401.955	7.27
402.162	7.57
402.369	7.43
402.576	7.62
402.783	7.7
402.99	8.06
403.197	7.81
403.404	7.17
403.611	6.98
403.818	7.27
404.025	6.96
404.232	7.27
404.439	6.74
404.646	6.92
404.853	6.57
405.06	6.77
405.267	6.38
405.474	6.33
405.681	6.32
405.887	6.44
406.094	6.25
406.301	6.41
406.508	6.26
406.715	6.42
406.922	6.63
407.128	6.66
407.335	6.36
407.542	6.65
407.749	6.85
407.955	7.28
408.162	7.2
408.369	7.25
408.575	7.35
408.782	7.38
408.989	7.18
409.195	6.82
409.402	6.94
409.609	7.18
409.815	7.23
410.022	7.05
410.228	6.94
410.435	7.19
410.642	7.03
410.848	6.97
411.055	7.13
411.261	7.39
411.468	7.65
411.674	7.74
411.881	7.37
412.087	7.27
412.294	7.38
412.5	7.45
412.706	7.47
412.913	7.64
413.119	7.7
413.326	7.5
413.532	7.06
413.738	7.12
413.945	7.12
414.151	7.41
414.357	7.25
414.564	7.17
414.77	7.16
414.976	7.09
415.182	6.98
415.389	7.03
415.595	7.11
415.801	7.36
416.007	7.23
416.214	7.13
416.42	6.82
416.626	7.08
416.832	7.24
417.038	6.87
417.244	6.81
417.45	6.82
417.657	6.66
417.863	6.64
418.069	6.77
418.275	6.85
418.481	6.61
418.687	6.65
418.893	6.32
419.099	6.07
419.305	6.04
419.511	5.97
419.717	5.9
419.923	6.01
420.129	5.86
420.335	5.8
420.541	5.75
420.746	5.99
420.952	5.99
421.158	6.12
421.364	6.07
421.57	6.14
421.776	6.07
421.982	6.13
422.187	6.05
422.393	6.11
422.599	6.04
422.805	6.04
423.01	5.95
423.216	6.04
423.422	5.99
423.628	6.19
423.833	6.25
424.039	6.36
424.245	6.4
424.45	6.49
424.656	6.45
424.862	6.43
425.067	6.48
425.273	6.58
425.478	6.48
425.684	6.61
425.889	6.58
426.095	6.51
426.301	6.37
426.506	6.4
426.712	6.42
426.917	6.66
427.123	6.55
427.328	6.54
427.533	6.48
427.739	6.65
427.944	6.67
428.15	6.72
428.355	6.74
428.561	6.85
428.766	6.65
428.971	6.64
429.177	6.63
429.382	6.84
429.587	6.78
429.793	7.02
429.998	6.78
430.203	6.53
430.408	6.43
430.614	6.63
430.819	6.56
431.024	6.74
431.229	6.64
431.434	6.59
431.64	6.56
431.845	6.62
432.05	6.46
432.255	6.61
432.46	6.73
432.665	7.02
432.87	6.72
433.076	6.88
433.281	6.72
433.486	6.57
433.691	6.63
433.896	6.63
434.101	6.59
434.306	6.54
434.511	6.58
434.716	6.54
434.921	6.14
435.126	6.35
435.331	6.26
435.535	6.14
435.74	6.3
435.945	6.26
436.15	6.36
436.355	6.31
436.56	6.33
436.765	6.09
436.97	6.39
437.174	6.65
437.379	6.84
437.584	6.7
437.789	6.86
437.993	6.85
438.198	6.76
438.403	6.52
438.608	6.51
438.812	6.46
439.017	6.41
439.222	6.12
439.426	5.93
439.631	5.67
439.836	5.57
440.04	5.58
440.245	5.54
440.45	5.49
440.654	5.55
440.859	5.5
441.063	5.45
441.268	5.54
441.472	5.5
441.677	5.63
441.881	5.59
442.086	5.69
442.29	5.67
442.495	5.55
442.699	5.64
442.904	5.73
443.108	5.97
443.312	5.98
443.517	6.07
443.721	6.07
443.925	5.98
444.13	6.13
444.334	6.11
444.538	5.99
444.743	6.07
444.947	5.98
445.151	5.87
445.356	5.66
445.56	5.81
445.764	5.77
445.968	5.96
446.173	5.79
446.377	5.84
446.581	5.96
446.785	6
446.989	5.97
447.193	5.98
447.398	5.87
447.602	5.88
447.806	5.82
448.01	5.9
448.214	5.79
448.418	6.02
448.622	6.06
448.826	5.95
449.03	5.98
449.234	5.98
449.438	5.86
449.642	6.08
449.846	5.99
450.05	6.12
450.254	5.99
450.458	6.01
450.662	5.91
450.866	5.68
451.069	5.85
451.273	5.6
451.477	5.6
451.681	5.68
451.885	5.74
452.089	5.93
452.292	5.68
452.496	5.82
452.7	5.92
452.904	5.95
453.107	5.76
453.311	5.49
453.515	5.62
453.719	5.73
453.922	5.84
454.126	5.75
454.33	5.95
454.533	5.89
454.737	5.78
454.94	5.78
455.144	5.84
455.348	5.97
455.551	6.18
455.755	6.46
455.958	6.45
456.162	6.57
456.365	6.65
456.569	6.17
456.772	6.38
456.976	6.45
457.179	6.43
457.383	6.53
457.586	6.64
457.79	6.42
457.993	6.37
458.196	6.34
458.4	6.15
458.603	6.05
458.807	6.13
459.01	6.11
459.213	6.09
459.417	6.02
459.62	5.9
459.823	6.03
460.026	6.06
460.23	5.95
460.433	6.05
460.636	6.15
460.839	6.09
461.042	6.22
461.246	6.21
461.449	6.2
461.652	6.09
461.855	6.12
462.058	5.95
462.261	6.12
462.464	6.11
462.668	6.12
462.871	6.01
463.074	6.37
463.277	6.26
463.48	6.37
463.683	6.55
463.886	6.66
464.089	6.63
464.292	6.57
464.495	6.38
464.698	6.25
464.901	6.26
465.104	6.2
465.306	5.98
465.509	5.92
465.712	5.71
465.915	5.58
466.118	5.71
466.321	5.74
466.524	5.83
466.726	5.89
466.929	6.13
467.132	6
467.335	6.16
467.538	5.99
467.74	6.14
467.943	6.12
468.146	5.91
468.348	5.99
468.551	5.94
468.754	5.73
468.956	5.86
469.159	5.93
469.362	5.88
469.564	5.94
469.767	6.17
469.969	6.12
470.172	6.25
470.375	6.52
470.577	6.38
470.78	6.34
470.982	6.46
471.185	6.49
471.387	6.23
471.59	6.3
471.792	5.97
471.995	5.94
472.197	5.83
472.399	5.86
472.602	5.83
472.804	5.93
473.007	5.91
473.209	6.01
473.411	5.95
473.614	5.93
473.816	6.04
474.018	6.27
474.22	6.12
474.423	6.25
474.625	6.18
474.827	6.04
475.03	5.75
475.232	5.75
475.434	5.82
475.636	5.85
475.838	5.86
476.04	5.73
476.243	5.66
476.445	5.85
476.647	5.72
476.849	5.6
477.051	5.66
477.253	5.67
477.455	5.7
477.657	5.56
477.859	5.46
478.061	5.57
478.263	5.61
478.465	5.54
478.667	5.56
478.869	5.63
479.071	5.78
479.273	5.6
479.475	5.68
479.677	5.69
479.879	5.56
480.081	5.55
480.283	5.57
480.485	5.62
480.686	5.72
480.888	5.63
481.09	5.54
481.292	5.46
481.494	5.57
481.695	5.51
481.897	5.51
482.099	5.63
482.301	5.6
482.502	5.5
482.704	5.3
482.906	5.3
483.107	5.28
483.309	5.29
483.511	5.26
483.712	5.19
483.914	5.19
484.115	5.19
484.317	5.18
484.519	5.15
484.72	5.16
484.922	5.17
485.123	5.11
485.325	5.13
485.526	5.16
485.728	5.24
485.929	5.29
486.131	5.37
486.332	5.36
486.534	5.32
486.735	5.33
486.936	5.3
487.138	5.34
487.339	5.4
487.541	5.3
487.742	5.26
487.943	5.18
488.144	5.24
488.346	5.2
488.547	5.17
488.748	5.22
488.95	5.23
489.151	5.29
489.352	5.34
489.553	5.34
489.755	5.43
489.956	5.52
490.157	5.49
490.358	5.51
490.559	5.59
490.76	5.63
490.961	5.58
491.163	5.62
491.364	5.59
491.565	5.53
491.766	5.52
491.967	5.53
492.168	5.53
492.369	5.59
492.57	5.51
492.771	5.34
492.972	5.37
493.173	5.36
493.374	5.33
493.575	5.34
493.776	5.46
493.976	5.61
494.177	5.47
494.378	5.41
494.579	5.47
494.78	5.63
494.981	5.87
495.182	5.86
495.382	5.96
495.583	6.05
495.784	6.08
495.985	5.89
496.185	5.73
496.386	5.82
496.587	5.91
496.788	5.81
496.988	5.73
497.189	5.67
497.39	5.67
497.59	5.6
497.791	5.47
497.992	5.44
498.192	5.45
498.393	5.59
498.593	5.66
498.794	5.5
498.994	5.63
499.195	5.53
499.395	5.59
499.596	5.46
499.796	5.44
499.997	5.6
500.197	5.7
500.398	5.78
500.598	5.67
500.799	5.75
500.999	5.8
501.199	5.58
501.4	5.72
501.6	5.66
501.801	5.91
502.001	5.8
502.201	5.6
502.402	5.38
502.602	5.55
502.802	5.41
503.002	5.31
503.203	5.23
503.403	5.28
503.603	5.3
503.803	5.34
504.003	5.28
504.204	5.51
504.404	5.77
504.604	6.07
504.804	5.85
505.004	5.8
505.204	6.02
505.404	6.09
505.604	6.21
505.804	6.09
506.005	6.23
506.205	6.24
506.405	6.25
506.605	6.11
506.805	5.99
507.005	6.2
507.204	6.37
507.404	6.16
507.604	6.14
507.804	6.2
508.004	6.24
508.204	6.02
508.404	5.86
508.604	5.85
508.804	5.93
509.003	5.92
509.203	5.86
509.403	5.81
509.603	5.79
509.803	6
510.002	6.07
510.202	6.12
510.402	6.39
510.602	6.47
510.801	6.41
511.001	6.41
511.201	6.42
511.4	6.41
511.6	6.32
511.8	6.4
511.999	6.21
512.199	6.07
512.398	6.05
512.598	5.83
512.797	5.86
512.997	5.87
513.197	5.79
513.396	5.72
513.596	5.8
513.795	5.97
513.994	5.95
514.194	5.89
514.393	6.11
514.593	6.17
514.792	6.23
514.992	6.07
515.191	6.13
515.39	6.14
515.59	6.11
515.789	6.17
515.988	6.21
516.188	6.21
516.387	6.08
516.586	5.94
516.786	5.78
516.985	5.79
517.184	5.89
517.383	5.81
517.582	5.86
517.782	5.86
517.981	5.74
518.18	5.67
518.379	5.74
518.578	5.86
518.777	5.83
518.976	5.94
519.176	5.9
519.375	5.88
519.574	5.81
519.773	5.87
519.972	5.97
520.171	6.03
520.37	6.07
520.569	5.96
520.768	6.04
520.967	6.25
521.166	6.24
521.365	6.37
521.564	6.45
521.762	6.61
521.961	6.62
522.16	6.62
522.359	6.62
522.558	6.59
522.757	6.65
522.956	6.76
523.154	6.56
523.353	6.54
523.552	6.47
523.751	6.29
523.949	6.29
524.148	6.2
524.347	6.33
524.546	6.36
524.744	6.24
524.943	6.26
525.142	6.19
525.34	6.29
525.539	6.36
525.737	6.39
525.936	6.43
526.135	6.32
526.333	6.36
526.532	6.28
526.73	6.2
526.929	6.3
527.127	6.25
527.326	6.28
527.524	6.25
527.723	6.26
527.921	6.28
528.12	6.32
528.318	6.34
528.516	6.25
528.715	6.2
528.913	6.25
529.112	6.26
529.31	6.31
529.508	6.3
529.707	6.29
529.905	6.25
530.103	6.21
530.301	6.24
530.5	6.34
530.698	6.43
530.896	6.57
531.094	6.59
531.293	6.49
531.491	6.51
531.689	6.55
531.887	6.5
532.085	6.57
532.283	6.54
532.481	6.57
532.68	6.64
532.878	6.65
533.076	6.64
533.274	6.61
533.472	6.7
533.67	6.7
533.868	6.58
534.066	6.61
534.264	6.65
534.462	6.65
534.66	6.69
534.858	6.65
535.056	6.68
535.253	6.66
535.451	6.69
535.649	6.72
535.847	6.68
536.045	6.78
536.243	6.72
536.441	6.76
536.638	6.93
536.836	6.79
537.034	6.75
537.232	6.67
537.43	6.72
537.627	6.77
537.825	6.81
538.023	6.9
538.22	7.06
538.418	7.24
538.616	7.3
538.813	7.18
539.011	7.35
539.209	7.36
539.406	7.52
539.604	7.58
539.801	7.46
539.999	7.43
540.196	7.38
540.394	7.24
540.591	7.25
540.789	7.08
540.986	7.14
541.184	7.03
541.381	7.05
541.579	7.09
541.776	7
541.974	6.98
542.171	6.99
542.368	7
542.566	7.07
542.763	7.05
542.96	7.25
543.158	7.25
543.355	7.33
543.552	7.43
543.75	7.43
543.947	7.52
544.144	7.66
544.341	7.77
544.539	7.88
544.736	7.93
544.933	7.9
545.13	7.84
545.327	7.89
545.524	7.93
545.722	7.82
545.919	7.7
546.116	7.78
546.313	7.88
546.51	7.77
546.707	7.73
546.904	7.75
547.101	7.9
547.298	7.84
547.495	7.79
547.692	7.79
547.889	8.05
548.086	8.23
548.283	8.14
548.48	8.17
548.677	8.42
548.874	8.66
549.07	8.67
549.267	8.61
549.464	8.85
549.661	9.14
549.858	9.37
550.055	9.22
550.251	9.24
550.448	9.43
550.645	9.32
550.842	9.26
551.038	9.06
551.235	9.24
551.432	9.37
551.628	9.31
551.825	9.19
552.022	9.03
552.218	9.11
552.415	9.15
552.612	9.02
552.808	9.07
553.005	8.98
553.201	9.06
553.398	8.89
553.594	8.88
553.791	9
553.987	9.38
554.184	9.56
554.38	9.71
554.577	9.66
554.773	9.92
554.97	9.91
555.166	9.96
555.362	10.06
555.559	10.2
555.755	10.37
555.952	10.23
556.148	9.81
556.344	9.69
556.541	9.61
556.737	9.82
556.933	9.87
557.129	10.01
557.326	10.13
557.522	10.19
557.718	10.28
557.914	10.18
558.11	10.25
558.307	10.28
558.503	10.58
558.699	10.54
558.895	10.45
559.091	10.5
559.287	10.65
559.483	10.78
559.679	10.78
559.876	10.83
560.072	11.05
560.268	10.88
560.464	10.87
560.66	10.69
560.856	10.83
561.052	10.82
561.247	10.92
561.443	10.91
561.639	10.99
561.835	10.95
562.031	10.88
562.227	10.7
562.423	11.01
562.619	11.24
562.815	11.49
563.01	11.3
563.206	11.41
563.402	11.29
563.598	11.4
563.793	11.32
563.989	11.46
564.185	11.56
564.381	11.7
564.576	11.57
564.772	11.53
564.968	11.41
565.163	11.47
565.359	11.46
565.555	11.35
565.75	11.39
565.946	11.47
566.141	11.41
566.337	11.41
566.532	11.34
566.728	11.52
566.923	11.57
567.119	11.61
567.314	11.82
567.51	11.88
567.705	11.97
567.901	11.92
568.096	11.91
568.292	11.76
568.487	11.79
568.682	11.79
568.878	11.59
569.073	11.68
569.268	11.86
569.464	11.77
569.659	11.83
569.854	12
570.05	12.02
570.245	12.09
570.44	12.29
570.635	12.35
570.831	12.43
571.026	12.83
571.221	12.78
571.416	12.61
571.611	12.66
571.806	12.7
572.002	12.65
572.197	12.45
572.392	12.46
572.587	12.51
572.782	12.51
572.977	12.55
573.172	12.39
573.367	12.38
573.562	12.72
573.757	12.77
573.952	12.72
574.147	12.83
574.342	13.12
574.537	13.26
574.732	13.32
574.927	13.21
575.121	13.23
575.316	13.09
575.511	13.28
575.706	13.09
575.901	12.93
576.096	12.92
576.29	12.82
576.485	12.85
576.68	12.66
576.875	12.6
577.069	12.68
577.264	12.59
577.459	12.64
577.654	12.56
577.848	12.64
578.043	12.96
578.238	12.98
578.432	12.98
578.627	13.04
578.821	13.1
579.016	13.16
579.21	13.21
579.405	13.38
579.6	13.37
579.794	13.42
579.989	13.31
580.183	13.19
580.378	13.44
580.572	13.54
580.766	13.73
580.961	13.93
581.155	14.09
581.35	14.29
581.544	14.12
581.738	14.29
581.933	14.34
582.127	14.36
582.321	14.37
582.516	14.36
582.71	14.57
582.904	14.45
583.099	14.31
583.293	14.39
583.487	14.36
583.681	14.63
583.875	14.74
584.07	14.78
584.264	14.91
584.458	14.99
584.652	14.71
584.846	14.57
585.04	14.44
585.234	14.39
585.428	14.1
585.623	14
585.817	14.15
586.011	14.22
586.205	14.23
586.399	14.05
586.593	13.96
586.787	14.28
586.981	14.26
587.174	14.33
587.368	14.42
587.562	14.61
587.756	14.48
587.95	14.41
588.144	14.29
588.338	14.32
588.532	14.36
588.725	14.58
588.919	14.72
589.113	14.53
589.307	14.61
589.501	14.77
589.694	14.94
589.888	15.2
590.082	15.14
590.275	15.14
590.469	15.02
590.663	15.22
590.856	15.06
591.05	14.84
591.244	15.12
591.437	15.27
591.631	15.21
591.824	15.16
592.018	15.19
592.212	15.09
592.405	14.98
592.599	14.99
592.792	14.75
592.986	14.81
593.179	14.88
593.372	14.97
593.566	14.9
593.759	14.94
593.953	15.09
594.146	15.01
594.339	15.25
594.533	15.45
594.726	15.32
594.92	15.37
595.113	15.58
595.306	15.45
595.499	15.52
595.693	15.14
595.886	15.21
596.079	15.04
596.272	15
596.466	14.89
596.659	14.87
596.852	15.11
597.045	15.21
597.238	14.94
597.431	15.06
597.624	14.91
597.818	15.24
598.011	15.2
598.204	14.84
598.397	15
598.59	15.12
598.783	15.16
598.976	15.11
599.169	15.15
599.362	15.2
599.555	15.37
599.748	15.43
599.941	15.23
600.134	14.96
600.326	15.32
600.519	15.41
600.712	15.18
600.905	15.26
601.098	15.35
601.291	15.4
601.483	15.37
601.676	15.29
601.869	15.4
602.062	15.22
602.255	15.41
602.447	15.55
602.64	15.22
602.833	15.23
603.025	15.27
603.218	15.2
603.411	15.21
603.603	15.33
603.796	15.26
603.989	15.11
604.181	15.15
604.374	15.03
604.566	15.11
604.759	15.3
604.951	15.37
605.144	15.24
605.336	15.22
605.529	15.16
605.721	15.21
605.914	15.31
606.106	15.43
606.299	15.51
606.491	15.68
606.683	15.43
606.876	15.47
607.068	15.59
607.26	15.62
607.453	15.69
607.645	15.57
607.837	15.35
608.03	15.34
608.222	15.37
608.414	15.5
608.606	15.46
608.799	15.68
608.991	15.61
609.183	15.66
609.375	15.81
609.567	15.6
609.759	15.73
609.952	15.86
610.144	15.77
610.336	15.51
610.528	15.53
610.72	15.5
610.912	15.24
611.104	15.34
611.296	15.02
611.488	14.74
611.68	14.96
611.872	14.9
612.064	14.74
612.256	14.77
612.448	14.9
612.64	14.58
612.832	14.56
613.023	14.83
613.215	14.71
613.407	15.01
613.599	15.22
613.791	15.05
613.983	15.05
614.174	15.34
614.366	15.62
614.558	15.42
614.75	15.67
614.941	15.78
615.133	15.46
615.325	15.48
615.516	15.31
615.708	15.3
615.9	15.47
616.091	15.57
616.283	15.5
616.475	15.13
616.666	15.65
616.858	15.71
617.049	15.84
617.241	15.98
617.432	16.01
617.624	16.2
617.815	16.15
618.007	16.09
618.198	15.98
618.39	15.89
618.581	15.79
618.773	15.84
618.964	15.74
619.155	15.9
619.347	15.96
619.538	15.92
619.729	15.93
619.921	16.08
620.112	16.01
620.303	15.81
620.494	15.6
620.686	15.77
620.877	15.81
621.068	16.25
621.259	16.07
621.451	16.09
621.642	15.7
621.833	15.77
622.024	15.63
622.215	15.69
622.406	15.9
622.597	16.41
622.788	16.59
622.98	16.38
623.171	16.01
623.362	16.19
623.553	16.16
623.744	16.06
623.935	16.27
624.126	16.38
624.317	15.92
624.508	15.87
624.698	15.62
624.889	15.26
625.08	14.98
625.271	15.01
625.462	14.84
625.653	14.89
625.844	15.04
626.034	14.72
626.225	14.79
626.416	14.83
626.607	14.9
626.798	14.91
626.988	15.08
627.179	15.47
627.37	15.44
627.56	15.47
627.751	15.45
627.942	15.85
628.132	15.87
628.323	15.75
628.514	16.02
628.704	16.17
628.895	16.12
629.085	16.22
629.276	15.97
629.466	15.95
629.657	15.72
629.847	15.75
630.038	15.46
630.228	15.56
630.419	15.71
630.609	15.73
630.8	15.75
630.99	15.51
631.181	15.22
631.371	15.48
631.561	15.32
631.752	15.6
631.942	15.53
632.132	15.88
632.323	15.73
632.513	15.13
632.703	15.07
632.893	14.96
633.084	15.16
633.274	15
633.464	14.69
633.654	14.76
633.844	14.55
634.034	14.74
634.225	14.36
634.415	14.11
634.605	14.4
634.795	14.37
634.985	14.13
635.175	14.4
635.365	14.88
635.555	14.98
635.745	15.3
635.935	15.42
636.125	15.18
636.315	15.31
636.505	15.58
636.695	15.96
636.885	16.2
637.075	16.81
637.265	16.94
637.455	16.99
637.644	17.06
637.834	17.23
638.024	17.02
638.214	17.41
638.404	17.64
638.593	17.61
638.783	17.44
638.973	17.27
639.163	16.75
639.352	16.67
639.542	16.67
639.732	16.9
639.921	16.37
640.111	16.69
640.301	16.23
640.49	16.13
640.68	16.44
640.87	16.28
641.059	16.32
641.249	16.9
641.438	16.9
641.628	16.98
641.817	17.12
642.007	17.4
642.196	17.31
642.386	17.58
642.575	17.95
642.764	18.1
642.954	17.89
643.143	18.06
643.333	17.91
643.522	18.18
643.711	18.16
643.901	17.77
644.09	17.82
644.279	17.98
644.469	17.75
644.658	17.31
644.847	16.88
645.036	17.39
645.226	17.23
645.415	16.74
645.604	16.1
645.793	15.66
645.982	15.65
646.171	15.66
646.361	15.38
646.55	15.51
646.739	15.3
646.928	15.43
647.117	15.09
647.306	15.32
647.495	15.75
647.684	16.14
647.873	16.39
648.062	16.51
648.251	16.93
648.44	17.1
648.629	17.01
648.818	17.02
649.007	17.11
649.196	17.25
649.384	17.28
649.573	17.08
649.762	16.86
649.951	16.83
650.14	16.24
650.328	15.95
650.517	15.79
650.706	15.88
650.895	16.02
651.083	15.53
651.272	15.46
651.461	15.6
651.65	15.29
651.838	15.21
652.027	15.15
652.216	15.42
652.404	15.12
652.593	15.53
652.781	15.46
652.97	15.26
653.158	15.45
653.347	15.13
653.535	15.33
653.724	15.53
653.912	15.72
654.101	15.95
654.289	15.9
654.478	16.25
654.666	16.1
654.855	16.62
655.043	17.03
655.231	17.09
655.42	17.03
655.608	16.15
655.796	16.52
655.985	16.48
656.173	15.93
656.361	16.47
656.55	16.19
656.738	16.01
656.926	15.6
657.114	15.17
657.302	15.23
657.491	15.89
657.679	15.98
657.867	15.79
658.055	15.79
658.243	16.49
658.431	16.09
658.619	16.14
658.807	16.1
658.996	16.25
659.184	16.39
659.372	16.44
659.56	16.37
659.748	16.47
659.936	16.21
660.124	16.08
660.311	15.75
660.499	15.72
660.687	15.99
660.875	15.94
661.063	16.14
661.251	16.28
661.439	16.01
661.627	15.75
661.814	16.1
662.002	16.59
662.19	17.33
662.378	17.37
662.565	17.32
662.753	17.06
662.941	17.23
663.129	16.98
663.316	17.15
663.504	17.62
663.692	18.21
663.879	18.19
664.067	17.99
664.254	17.16
664.442	17.61
664.63	17.82
664.817	17.79
665.005	17.67
665.192	17.78
665.38	17.5
665.567	17.23
665.755	17.1
665.942	16.8
666.13	16.96
666.317	17.23
666.504	16.47
666.692	16.72
666.879	16.71
667.067	17.5
667.254	17.54
667.441	17.75
667.629	18.03
667.816	17.88
668.003	18.09
668.19	17.9
668.378	17.69
668.565	18.22
668.752	17.91
668.939	17.6
669.127	16.96
669.314	16.75
669.501	16.47
669.688	16.4
669.875	16.26
670.062	16.56
670.249	16.23
670.436	16.29
670.623	16.28
670.81	16.3
670.997	17.01
671.184	16.72
671.371	16.77
671.558	17.01
671.745	16.85
671.932	16.91
672.119	16.42
672.306	16.84
672.493	16.91
672.68	17.08
672.867	17.43
673.054	17.64
673.24	17.62
673.427	18.32
673.614	18.24
673.801	18.71
673.988	18.76
674.174	18.65
674.361	18.32
674.548	18.02
674.734	17.53
674.921	17.04
675.108	16.75
675.294	16.68
675.481	15.61
675.668	15.59
675.854	15.01
676.041	14.93
676.227	15.07
676.414	15.25
676.601	15.83
676.787	16.21
676.974	16.47
677.16	16.42
677.347	16.67
677.533	17.05
677.719	16.62
677.906	16.93
678.092	17.24
678.279	17.22
678.465	17.25
678.651	16.49
678.838	16.19
679.024	16.32
679.21	16.04
679.397	15.73
679.583	15.38
679.769	15.88
679.955	15.61
680.142	15.17
680.328	15.26
680.514	15.29
680.7	15.83
680.886	15.74
681.073	15.8
681.259	15.81
681.445	16
681.631	16.3
681.817	15.72
682.003	15.54
682.189	16
682.375	16.26
682.561	16.4
682.747	16.18
682.933	16.13
683.119	16.05
683.305	16.04
683.491	16.13
683.677	16.28
683.863	17.2
684.049	17.63
684.235	17.6
684.42	17.63
684.606	16.95
684.792	17.18
684.978	17.29
685.164	17.17
685.349	17.38
685.535	17.64
685.721	17.17
685.907	16.29
686.092	16.36
686.278	16.3
686.464	16.21
686.649	16.89
686.835	16.62
687.021	17.01
687.206	17.03
687.392	17.08
687.577	17.17
687.763	17.17
687.948	17.99
688.134	18.2
688.319	18.2
688.505	18.31
688.69	18.47
688.876	19.14
689.061	18.47
689.247	18.51
689.432	18.79
689.618	18.91
689.803	19.06
689.988	19.03
690.174	18.67
690.359	18.19
690.544	17.64
690.73	17.55
690.915	17.37
691.1	17.81
691.285	18.19
691.471	18.05
691.656	17.8
691.841	18.25
692.026	17.83
692.211	18.27
692.396	18.74
692.582	19.05
692.767	18.63
692.952	17.97
693.137	18.55
693.322	18.85
693.507	18.54
693.692	18.39
693.877	17.65
694.062	17.79
694.247	17.86
694.432	17.75
694.617	17.56
694.802	18.03
694.987	18.12
695.172	18.16
695.357	17.44
695.541	17.53
695.726	17.6
695.911	18.23
696.096	18.08
696.281	18.24
696.466	18.12
696.65	18.13
696.835	17.92
697.02	18.1
697.204	17.48
697.389	17.56
697.574	17.4
697.759	17.35
697.943	17.08
698.128	17.12
698.312	17
698.497	17.21
698.682	17.57
698.866	17.69
699.051	17.62
699.235	17.55
699.42	17.12
699.604	17.46
699.789	17.75
699.973	18.31
700.158	18.55
700.342	18.12
700.527	18.29
700.711	18.19
700.895	18.04
701.08	18.32
701.264	17.91
701.448	18.44
701.633	18.47
701.817	18.13
702.001	17.5
702.186	17.47
702.37	18.07
702.554	17.18
702.738	17.31
702.923	17.2
703.107	16.88
703.291	17.67
703.475	17.49
703.659	17.04
703.843	17.15
704.027	17.7
704.212	17.74
704.396	17.88
704.58	18.66
704.764	18.54
704.948	19.07
705.132	18.91
705.316	18.93
705.5	19.34
705.684	19.73
705.868	19.94
706.052	19.58
706.235	20.26
706.419	20.54
706.603	20.64
706.787	20.23
706.971	19.95
707.155	20.26
707.339	20.23
707.522	20.64
707.706	20.47
707.89	20.37
708.074	20.83
708.257	19.63
708.441	18.93
708.625	18.1
708.808	18.27
708.992	18.96
709.176	18.46
709.359	18.61
709.543	18.42
709.727	18.45
709.91	18.34
710.094	18.4
710.277	19.26
710.461	19.16
710.644	19.43
710.828	19.67
711.011	18.93
711.195	19.61
711.378	19.51
711.562	19.06
711.745	19.49
711.928	18.99
712.112	18.74
712.295	18.13
712.478	18.07
712.662	18.35
712.845	17.53
713.028	17.69
713.212	17.42
713.395	18.56
713.578	18.75
713.761	17.63
713.945	18.14
714.128	17.87
714.311	18.21
714.494	18.38
714.677	18.72
714.86	19.27
715.043	19.35
715.227	19.81
715.41	18.19
715.593	18.65
715.776	18.92
715.959	19.24
716.142	19.06
716.325	19.33
716.508	19.38
716.691	18.96
716.874	19.3
717.057	19.45
717.239	18.56
717.422	18.79
717.605	18.76
717.788	19.39
717.971	19.43
718.154	20.63
718.337	20.72
718.519	21.05
718.702	21.64
718.885	21.34
719.068	20.96
719.25	22.35
719.433	23.52
719.616	23.78
719.798	23.44
719.981	23.66
720.164	22.76
720.346	21.95
720.529	22.38
720.712	21.91
720.894	21.62
721.077	22.07
721.259	21.81
721.442	20.82
721.624	18.96
721.807	19.01
721.989	18.33
722.172	18.09
722.354	18.64
722.537	18.03
722.719	18.39
722.901	19.29
723.084	19.56
723.266	19.62
723.448	19.82
723.631	21.94
723.813	22.22
723.995	21.85
724.178	22.43
724.36	23
724.542	23.31
724.724	22.67
724.907	22.42
725.089	23.1
725.271	23.13
725.453	23.27
725.635	22.34
725.817	22.26
725.999	23.41
726.181	23.45
726.364	22.36
726.546	21.98
726.728	22.14
726.91	22.28
727.092	21.59
727.274	20.87
727.456	20.53
727.638	21.08
727.819	21.29
728.001	20.83
728.183	20.19
728.365	20.08
728.547	20.01
728.729	21.18
728.911	20.91
729.093	20.2
729.274	19.85
729.456	19.65
729.638	18.5
729.82	19.02
730.001	18.6
730.183	19.51
730.365	20.84
730.546	20.51
730.728	19.29
730.91	18.65
731.091	19.1
731.273	20.25
731.455	20.24
731.636	20.94
731.818	20.73
731.999	21.02
732.181	20.94
732.362	19.52
732.544	20.43
732.725	21.08
732.907	21.59
733.088	22.13
733.27	22
733.451	22.46
733.633	22.28
733.814	21.86
733.995	22.07
734.177	22.46
734.358	23.68
734.539	23.77
734.721	23.75
734.902	23.35
735.083	22.96
735.264	22.3
735.446	22.92
735.627	23.47
735.808	24.34
735.989	24.28
736.17	23.15
736.351	22.76
736.533	22.83
736.714	23.42
736.895	23.51
737.076	23.4
737.257	23.09
737.438	22.49
737.619	22.25
737.8	21.91
737.981	22.11
738.162	22.65
738.343	22.03
738.524	22.17
738.705	20.84
738.886	20.57
739.067	20.28
739.247	20.18
739.428	19.93
739.609	19.12
739.79	18.24
739.971	17.62
740.151	17.91
740.332	17.87
740.513	17.26
740.694	16.79
740.874	17.92
741.055	18.02
741.236	18.89
741.417	20.11
741.597	21.32
741.778	22.66
741.958	23.01
742.139	22.47
742.32	23.55
742.5	23.91
742.681	25.35
742.861	24.77
743.042	24.93
743.222	24.52
743.403	22.9
743.583	23.69
743.764	23
743.944	22.47
744.124	22.98
744.305	21.74
744.485	20.81
744.666	20.82
744.846	21.55
745.026	21.41
745.207	22.29
745.387	23.44
745.567	21.72
745.747	21.03
745.928	20.86
746.108	20.58
746.288	21.8
746.468	22.77
746.648	21.86
746.829	22.17
747.009	21.86
747.189	21.3
747.369	20.97
747.549	22.06
747.729	21.81
747.909	22.96
748.089	22.3
748.269	22.56
748.449	22.48
748.629	23.41
748.809	22.5
748.989	23.17
749.169	23.74
749.349	24.36
749.529	24.74
749.709	25.33
749.889	24.68
750.068	25.18
750.248	24.63
750.428	24.27
750.608	24.07
750.788	25.17
750.967	26.12
751.147	25.91
751.327	24.66
751.507	24.15
751.686	23.7
751.866	24.03
752.046	24.08
752.225	24.47
752.405	25.11
752.585	24.68
752.764	22.51
752.944	21.44
753.123	21.93
753.303	22.87
753.482	22.67
753.662	24.37
753.841	24.19
754.021	24.59
754.2	24.44
754.38	24.29
754.559	25.72
754.739	27.27
754.918	27.51
755.097	26.33
755.277	26.41
755.456	27.35
755.635	26.52
755.815	26.6
755.994	25.24
756.173	24.92
756.352	24.1
756.532	23.74
756.711	23.19
756.89	23.79
757.069	24.16
757.248	24.26
757.427	23.28
757.607	23.44
757.786	23.23
757.965	23.58
758.144	24.3
758.323	24.45
758.502	23.31
758.681	24.32
758.86	22.98
759.039	22.7
759.218	23.51
759.397	23.75
759.576	22.18
759.755	21.81
759.934	22.16
760.113	20.77
760.291	21
760.47	21.93
760.649	22.08
760.828	21.78
761.007	21.41
761.186	20.78
761.364	20.02
761.543	20.7
761.722	20.12
761.901	20.18
762.079	21.31
762.258	20.92
762.437	20.17
762.615	20.16
762.794	21.71
762.972	22.41
763.151	21.41
763.33	21.93
763.508	21.62
763.687	21.84
763.865	21.6
764.044	21.33
764.222	21.79
764.401	22.1
764.579	21.63
764.758	21.02
764.936	20.94
765.114	21.99
765.293	21.38
765.471	20.73
765.65	20.93
765.828	21.7
766.006	20.28
766.184	20.77
766.363	20.5
766.541	20.04
766.719	19.64
766.898	21.19
767.076	20.09
767.254	21.11
767.432	23.03
767.61	24.65
767.788	24.19
767.967	26.05
768.145	24.29
768.323	23.85
768.501	24.23
768.679	24.57
768.857	24.19
769.035	25.99
769.213	27.06
769.391	27.36
769.569	26.71
769.747	28.69
769.925	27.79
770.103	28.77
770.281	30.11
770.459	29.72
770.636	29.51
770.814	28.53
770.992	27.05
771.17	23.95
771.348	24.49
771.525	23.59
771.703	21.66
771.881	22.73
772.059	23.53
772.236	24.06
772.414	25.31
772.592	25.48
772.769	25.44
772.947	25.93
773.125	27.25
773.302	27.2
773.48	28.87
773.657	28.08
773.835	29.27
774.013	27.75
774.19	26.18
774.368	25.21
774.545	25.58
774.723	25.22
774.9	25.86
775.077	24.77
775.255	23.89
775.432	23.12
775.61	23.12
775.787	22.18
775.964	24.15
776.142	25.44
776.319	28.49
776.496	28.57
776.674	28.61
776.851	26.37
777.028	29.66
777.205	30.92
777.382	32.77
777.56	35.88
777.737	37.84
777.914	36.37
778.091	37.12
778.268	35.22
778.445	35.18
778.622	34.5
778.8	33.88
778.977	32.61
779.154	32.12
779.331	29.69
779.508	27.72
779.685	26.63
779.862	28.1
780.038	27.61
780.215	29.01
780.392	29.34
780.569	29.48
780.746	30.78
780.923	30.04
781.1	28.37
781.277	29.33
781.453	29.36
781.63	29.07
781.807	28.6
781.984	28.35
782.16	28.97
782.337	29.54
782.514	31.99
782.691	31.99
782.867	33.16
783.044	33.82
783.221	35.2
783.397	35.22
783.574	36.89
783.75	35.64
783.927	35.08
784.103	33.42
784.28	32.18
784.456	30.94
784.633	34.98
784.809	32.51
784.986	32.4
785.162	31.24
785.339	30.88
785.515	27.87
785.692	27.83
785.868	29.04
786.044	27.98
786.221	29.56
786.397	29.81
786.573	27.86
786.749	28.46
786.926	25.94
787.102	24.14
787.278	25.26
787.454	25.77
787.631	26.98
787.807	23.96
787.983	23.42
788.159	24.52
788.335	23.39
788.511	19.37
788.687	20.65
788.863	23.09
789.039	23.5
789.216	21.4
789.392	22.4
789.568	22.71
789.744	25.6
789.919	25.92
790.095	22.59
790.271	24.4
790.447	27.89
790.623	28.49
790.799	28.11
790.975	28.8
791.151	32.28
791.327	31.76
791.502	31.68
791.678	31.53
791.854	32.75
792.03	34.37
792.205	32.44
792.381	29.11
792.557	29.7
792.733	31.01
792.908	31.24
793.084	26.99
793.259	24.68
793.435	24.14
793.611	23.19
793.786	23.66
793.962	22.85
794.137	24.55
794.313	25.6
794.488	24.05
794.664	23.63
794.839	23.95
795.015	28.17
795.19	31.31
795.366	34.19
795.541	32.94
795.716	33.24
795.892	32.46
796.067	33.06
796.242	35.29
796.418	34.41
796.593	33.1
796.768	32.88
796.944	31.95
797.119	33.47
797.294	29.69
797.469	35.52
797.644	35.43
797.82	36.9
797.995	38.32
798.17	37.53
798.345	35.6
798.52	35.9
798.695	35.57
798.87	34.89
799.045	32.13
799.22	35.32
799.395	30.49
799.57	30.83
799.745	31.96
799.92	29.03
800.095	27.87
800.27	31.71
800.445	34.53
800.62	36.64
800.795	36.15
800.97	36.01
801.145	36.12
801.319	39.11
801.494	41.3
801.669	41.75
801.844	43.99
802.018	45.72
802.193	45.35
802.368	43.34
802.543	40.98
802.717	43.7
802.892	41.76
803.067	38.61
803.241	39
803.416	37.44
803.59	38.28
803.765	32.85
803.94	27.13
804.114	26.01
804.289	29.92
804.463	33.13
804.638	33.16
804.812	37.25
804.986	40.21
805.161	39.5
805.335	38.2
805.51	36.17
805.684	40.26
805.858	44.76
806.033	44.2
806.207	41.17
806.381	39.83
806.556	37.17
806.73	34.75
806.904	31.26
807.078	28.45
807.253	26.14
807.427	28.09
807.601	30.39
807.775	27.5
807.949	28.69
808.123	28.27
808.298	26.94
808.472	28.8
808.646	32.98
808.82	35.58
808.994	35.91
809.168	38.16
809.342	33.48
809.516	31.79
809.69	32.85
809.864	33.19
810.038	35.65
810.212	35.06
810.385	36.33
810.559	33.47
810.733	31.53
810.907	30.18
811.081	29.17
811.255	36.54
811.428	36.74
811.602	37
811.776	39.46
811.95	40.05
812.123	42.26
812.297	38.46
812.471	40.12
812.644	45.18
812.818	47.52
812.992	50.49
813.165	48.13
813.339	49.38
813.512	47.94
813.686	48.41
813.86	47.89
814.033	49.32
814.207	51.82
814.38	49.87
814.554	47.9
814.727	47.6
814.9	44.57
815.074	43.27
815.247	43.78
815.421	45.14
815.594	42.34
815.767	38.36
815.941	37.76
816.114	40.38
816.287	42.37
816.46	39.74
816.634	36.16
816.807	38.39
816.98	38.43
817.153	35.4
817.327	35.48
817.5	37.76
817.673	40.07
817.846	37.76
818.019	32.66
818.192	31.09
818.365	29.66
818.538	32.07
818.711	32.15
818.884	29.76
819.057	28.31
819.23	28.36
819.403	29.34
819.576	28.92
819.749	29.33
819.922	28.02
820.095	28.54
820.268	31.68
820.441	32.19
820.614	29.7
820.786	30.82
820.959	31.15
821.132	28.95
821.305	27.48
821.477	25.93
821.65	25.26
821.823	25.64
821.996	23.96
822.168	22.04
822.341	21.15
822.514	20.72
822.686	20.83
822.859	20.03
823.031	21.17
823.204	21
823.376	20.99
823.549	20.56
823.722	20.2
823.894	21.1
824.067	22.04
824.239	21.91
824.411	22.35
824.584	21.96
824.756	22.58
824.929	22.04
825.101	22.35
825.273	22.66
825.446	23.96
825.618	25.05
825.79	25.29
825.963	24.48
826.135	25.88
826.307	27.26
826.479	26.39
826.652	26.04
826.824	26.65
826.996	26.94
827.168	26.75
827.34	25.42
827.512	25.46
827.684	25.65
827.856	27.5
828.029	26.76
828.201	26.57
828.373	26.54
828.545	26.5
828.717	25.24
828.889	24.76
829.061	26.03
829.232	28.5
829.404	27.92
829.576	27.47
829.748	25.49
829.92	26.9
830.092	26.22
830.264	28.64
830.436	32.04
830.607	35.68
830.779	37.65
830.951	38.5
831.123	37.4
831.294	34.53
831.466	33.92
831.638	35.51
831.809	35.05
831.981	33.87
832.153	33.38
832.324	32.56
832.496	32.19
832.667	32.14
832.839	31.79
833.011	32.5
833.182	33.52
833.354	33.98
833.525	31.18
833.697	32.26
833.868	31.11
834.039	32.37
834.211	32.05
834.382	31.28
834.554	30.4
834.725	27.29
834.896	24.65
835.068	27.15
835.239	27.03
835.41	30.16
835.581	29.8
835.753	31.66
835.924	31.6
836.095	30.6
836.266	29.28
836.438	26.89
836.609	32.96
836.78	36.72
836.951	37.33
837.122	33.69
837.293	32.76
837.464	31.4
837.635	34.7
837.806	33.42
837.977	33.47
838.148	38.1
838.319	43.95
838.49	42.29
838.661	42.68
838.832	43.09
839.003	48.82
839.174	53.39
839.345	54.59
839.516	51.68
839.687	60.25
839.857	66.14
840.028	59.7
840.199	58.36
840.37	57.13
840.54	57.11
840.711	56.54
840.882	55.92
841.053	51.53
841.223	53.81
841.394	58.18
841.564	51.36
841.735	50.24
841.906	54.38
842.076	52.54
842.247	57.38
842.417	61.3
842.588	60.48
842.758	59.2
842.929	58.15
843.099	61.95
843.27	56.13
843.44	62.24
843.611	57.1
843.781	51.05
843.951	57.19
844.122	56.51
844.292	49.88
844.462	52.47
844.633	54.67
844.803	57.15
844.973	51.13
845.144	50.22
845.314	36.38
845.484	42.76
845.654	49.54
845.824	45.16
845.995	33.56
846.165	40.1
846.335	43.29
846.505	53.97
846.675	54.24
846.845	54.52
847.015	75.63
847.185	85.36
847.355	83.17
847.525	81.61
847.695	79.99
847.865	90.77
848.035	89.39
848.205	88.11
848.375	90.41
848.545	81.17
848.715	83.4
848.884	79.37
849.054	81.48
849.224	94.08
849.394	114.13
849.564	98.16
849.733	84.49
849.903	63.51
850.073	76.13
850.243	75.97
850.412	97.9
850.582	125.22
850.752	111.16
850.921	120.93
851.091	100.49
851.26	77.98
851.43	95.11
851.599	105.32
851.769	119.92
851.939	98.4
852.108	92.25
852.278	93.46
852.447	67.08
852.616	75.25
852.786	71.84
852.955	71.18
853.125	77.9
853.294	77.03
853.463	80.17
853.633	81.34
853.802	90.54
853.971	107.03
854.141	103.69
854.31	105.33
854.479	117.58
854.648	114.32
854.818	106.67
854.987	103.84
855.156	107.39
855.325	96.63
855.494	94.2
855.663	86.57
855.832	76.6
856.001	80.28
856.171	74.23
856.34	61.87
856.509	78.65
856.678	79.35
856.847	63.01
857.016	60.72
857.185	67.92
857.353	64.32
857.522	61.39
857.691	65.58
857.86	65.94
858.029	70.2
858.198	73.94
858.367	56.64
858.535	56.3
858.704	84.01
858.873	95.58
859.042	92.27
859.21	112.91
859.379	126.08
859.548	121.88
859.717	105.68
859.885	106.33
860.054	110.32
860.222	108.21
860.391	109.05
860.56	105.32
860.728	83.38
860.897	79.28
861.065	54.23
861.234	56.78
861.402	50
861.571	58.53
861.739	68.14
861.908	65.5
862.076	64.63
862.244	64.77
862.413	68.53
862.581	70.32
862.749	76.55
862.918	91.64
863.086	86.88
863.254	95.59
863.423	94.81
863.591	89.47
863.759	92.04
863.927	82.68
864.096	80.65
864.264	80.97
864.432	83.11
864.6	87.81
864.768	80.74
864.936	92.56
865.104	100.51
865.272	101.31
865.44	110.08
865.608	107.09
865.776	140.38
865.944	157.45
866.112	139.97
866.28	161.44
866.448	150.2
866.616	186.76
866.784	174.12
866.952	140.64
867.12	137.7
867.288	121.71
867.455	138.86
867.623	111.1
867.791	99.19
867.959	108.16
868.127	79.92
868.294	78.54
868.462	62.72
868.63	69.09
868.797	75.66
868.965	71.28
869.133	85.37
869.3	84.81
869.468	96.7
869.636	99.66
869.803	113.14
869.971	124.67
870.138	163.64
870.306	167.49
870.473	153.66
870.641	134.54
870.808	134.86
870.975	121.76
871.143	117.78
871.31	112.35
871.478	96.21
871.645	86.99
871.812	92.96
871.98	79.43
872.147	70.74
872.314	72.78
872.482	80.2
872.649	75.46
872.816	69.32
872.983	64.84
873.15	66.03
873.318	75.74
873.485	73.43
873.652	81.68
873.819	82.63
873.986	82.8
874.153	84.07
874.32	93.43
874.487	97.45
874.654	105.44
874.821	102.2
874.988	94.77
875.155	81.97
875.322	57.32
875.489	41.77
875.656	39.44
875.823	25.99
875.99	34.18
876.157	32.78
876.324	45.77
876.49	31
876.657	32.61
876.824	30.58
876.991	38.71
877.157	54.48
877.324	65.15
877.491	65.25
877.658	60.11
877.824	56.53
877.991	43.79
878.157	37.68
878.324	41.03
878.491	41.85
878.657	54.44
878.824	57.43
878.99	53.81
879.157	47.61
879.323	46.1
879.49	51.42
879.656	60.24
879.823	58.22
879.989	60.15
880.156	65.37
880.322	62.81
880.488	58.29
880.655	62.16
880.821	62.01
880.987	59.48
881.154	49.14
881.32	48.48
881.486	36.25
881.652	40.18
881.819	39.5
881.985	37.24
882.151	34.47
882.317	34.36
882.483	36.23
882.649	34.52
882.816	34.77
882.982	36.16
883.148	32.77
883.314	34.37
883.48	31.92
883.646	30.31
883.812	30.49
883.978	31.22
884.144	30.24
884.31	28.3
884.476	28.63
884.642	28.25
884.807	30.59
884.973	35.38
885.139	37.08
885.305	38.23
885.471	37.83
885.637	38.14
885.802	40.38
885.968	41.28
886.134	44.62
886.3	46.5
886.465	48.04
886.631	47.36
886.797	43.06
886.962	38.69
887.128	39.26
887.293	46.61
887.459	50.25
887.625	47.61
887.79	49.67
887.956	51.32
888.121	54.12
888.287	53.79
888.452	53.15
888.618	60.57
888.783	74.33
