Data from 2938046_Reflection_1.txt Node
Date: Sun Jul 12 14:25:13 EDT 2015
User: robert
Spectrometer: USB4E03001
Autoset integration time: false
Trigger mode: 4
Integration Time (sec): 1.000000E-1
Scans to average: 10
Electric dark correction enabled: true
Nonlinearity correction enabled: false
Boxcar width: 5
Stray light correction enabled: false
XAxis mode: Wavelengths
Stop averaging: false
Number of Pixels in Spectrum: 3648
>>>>>Begin Spectral Data<<<<<
177.566	-22.02
177.785	-22.46
178.005	-40.76
178.225	27.6
178.445	116.57
178.665	103.82
178.885	-37.9
179.105	-178
179.324	91.56
179.544	106.18
179.764	224.69
179.984	305.21
180.204	297.41
180.423	192.22
180.643	172.68
180.863	127.13
181.083	158.9
181.302	134.92
181.522	144.99
181.742	162.54
181.961	157.28
182.181	133.04
182.401	116.77
182.621	105.54
182.84	97.9
183.06	107.58
183.279	106.85
183.499	85.37
183.719	80.65
183.938	83.21
184.158	101.97
184.377	116.8
184.597	151.53
184.816	169.08
185.036	232.99
185.256	268.5
185.475	182.13
185.695	154.53
185.914	211.62
186.134	206.11
186.353	177.15
186.572	149.25
186.792	119.56
187.011	104.4
187.231	107.74
187.45	116.53
187.67	128.19
187.889	126.08
188.108	134.8
188.328	119.44
188.547	131.56
188.766	171.63
188.986	163.85
189.205	205.41
189.424	253.58
189.644	248.38
189.863	245.27
190.082	202.69
190.302	246.84
190.521	262.59
190.74	317.31
190.959	406.4
191.178	246.22
191.398	320.43
191.617	277.62
191.836	381.73
192.055	265.46
192.274	260.04
192.494	995.31
192.713	281.02
192.932	211.69
193.151	141.4
193.37	87.52
193.589	66.93
193.808	59.64
194.027	113.19
194.246	92.58
194.465	106.01
194.685	116.6
194.904	127.74
195.123	143.22
195.342	163.53
195.561	220.73
195.78	404
195.999	317.83
196.218	303.36
196.436	276.26
196.655	453.13
196.874	342.5
197.093	290.5
197.312	265.71
197.531	248.02
197.75	178.02
197.969	193.71
198.188	160.02
198.407	175.57
198.625	182.4
198.844	169.28
199.063	130.91
199.282	128.23
199.501	116.01
199.719	94.52
199.938	118.26
200.157	172.11
200.376	139.75
200.594	139.46
200.813	121.51
201.032	114.88
201.251	122.24
201.469	133.65
201.688	133.61
201.907	117.19
202.125	132.2
202.344	101.27
202.563	119.23
202.781	129.96
203	108.87
203.218	128.17
203.437	165.34
203.656	148.33
203.874	179.73
204.093	170.53
204.311	201.15
204.53	193.22
204.748	336.45
204.967	184.6
205.185	164.11
205.404	201.35
205.622	244.22
205.841	158.84
206.059	156.13
206.278	131.44
206.496	117.51
206.715	132.72
206.933	107.69
207.151	106.63
207.37	142.53
207.588	130.99
207.806	129.26
208.025	117.81
208.243	87.12
208.461	97.57
208.68	166.87
208.898	172.78
209.116	139.47
209.335	182.55
209.553	76.51
209.771	84.43
209.989	87.91
210.208	127.86
210.426	163.11
210.644	175.73
210.862	161.9
211.081	124.34
211.299	137.51
211.517	129.52
211.735	125.19
211.953	136.54
212.171	122.62
212.39	112.12
212.608	104.34
212.826	91.15
213.044	83.25
213.262	83.5
213.48	86.92
213.698	92.18
213.916	90.27
214.134	92.7
214.352	87.31
214.57	109.43
214.788	108.7
215.006	106.82
215.224	119.02
215.442	144.86
215.66	142.66
215.878	113.63
216.096	97.62
216.314	97.4
216.532	96.14
216.75	91.22
216.968	71.31
217.185	87.56
217.403	79.35
217.621	77.5
217.839	80.67
218.057	77.56
218.275	84.04
218.492	78.15
218.71	72.84
218.928	81.22
219.146	93.05
219.363	106.99
219.581	100.92
219.799	102.32
220.017	95.85
220.234	89.7
220.452	86.62
220.67	83.01
220.887	87.08
221.105	88.02
221.323	79.93
221.54	77.83
221.758	61.86
221.976	60.82
222.193	59.5
222.411	75.42
222.629	90.33
222.846	83.27
223.064	85.52
223.281	83.56
223.499	90.68
223.716	99.2
223.934	70.91
224.151	80.31
224.369	85.07
224.586	93.92
224.804	80.53
225.021	57.17
225.239	70.8
225.456	78.08
225.674	71.77
225.891	73.31
226.108	73.03
226.326	79.95
226.543	72.21
226.76	80.11
226.978	74.34
227.195	69.12
227.413	65.45
227.63	58.67
227.847	51.82
228.064	51.27
228.282	45.38
228.499	41.3
228.716	39.19
228.934	36.88
229.151	31.46
229.368	29.3
229.585	28.08
229.802	26.99
230.02	26.29
230.237	25.38
230.454	21.91
230.671	20.07
230.888	23.27
231.105	21.51
231.323	20.41
231.54	23.77
231.757	28.35
231.974	31.73
232.191	33.71
232.408	31.83
232.625	33.16
232.842	34.14
233.059	41.44
233.276	38.14
233.493	36.93
233.71	41.51
233.927	40.11
234.144	34.45
234.361	33.91
234.578	34.6
234.795	38
235.012	40.39
235.229	38.98
235.446	41.32
235.663	45.72
235.879	46.31
236.096	46.08
236.313	47.44
236.53	43.53
236.747	44.98
236.964	40.68
237.181	40.38
237.397	38.47
237.614	40.75
237.831	36.03
238.048	33.36
238.264	31.86
238.481	33.37
238.698	31.24
238.915	31.94
239.131	25.3
239.348	32.04
239.565	33.04
239.781	31.18
239.998	31.56
240.215	36.99
240.431	35.79
240.648	36.67
240.865	33.03
241.081	31.46
241.298	30.98
241.514	29.11
241.731	26.77
241.947	24.12
242.164	23.31
242.38	21.47
242.597	18.06
242.814	17.31
243.03	17.14
243.246	16.81
243.463	16.9
243.679	16.11
243.896	18.67
244.112	17.54
244.329	18.51
244.545	19.13
244.762	21.48
244.978	20.47
245.194	19.14
245.411	19.19
245.627	20.23
245.843	20.95
246.06	21.53
246.276	19.53
246.492	19.25
246.709	19
246.925	18.62
247.141	17.65
247.357	16.97
247.574	16.47
247.79	16.6
248.006	17.4
248.222	16.82
248.439	17.58
248.655	18.63
248.871	19.44
249.087	20.26
249.303	21.4
249.519	23.02
249.736	24.18
249.952	25.39
250.168	28.34
250.384	26.83
250.6	27.51
250.816	27.56
251.032	25.53
251.248	24.59
251.464	24.04
251.68	23.29
251.896	21.08
252.112	21.85
252.328	23.11
252.544	20.09
252.76	19.3
252.976	18.79
253.192	19.44
253.408	20
253.624	21.56
253.84	21.3
254.056	22.89
254.272	24.69
254.487	26.97
254.703	27.24
254.919	29.67
255.135	29.25
255.351	27.61
255.567	28.1
255.782	28.56
255.998	27.08
256.214	25.49
256.43	23.33
256.646	23.6
256.861	22.87
257.077	22.68
257.293	21.14
257.508	22.06
257.724	22.81
257.94	18.91
258.155	18.38
258.371	16.82
258.587	17.46
258.802	15.94
259.018	15.12
259.234	15.18
259.449	14.54
259.665	13.7
259.88	14.59
260.096	14.69
260.312	15.1
260.527	15.16
260.743	15.18
260.958	14.76
261.174	14.94
261.389	14.77
261.605	13.98
261.82	14.65
262.036	15.86
262.251	15.87
262.466	15.67
262.682	16.88
262.897	16.47
263.113	18.57
263.328	19.82
263.543	20.62
263.759	21.05
263.974	23.27
264.189	20.57
264.405	20.02
264.62	17.45
264.835	17.66
265.051	16.25
265.266	17.36
265.481	16.29
265.696	13.93
265.912	13.59
266.127	15.66
266.342	12.99
266.557	14.19
266.773	15.05
266.988	13.86
267.203	14.05
267.418	14.5
267.633	14.98
267.848	14.61
268.064	16.49
268.279	17.35
268.494	16.6
268.709	18.52
268.924	19.16
269.139	19.32
269.354	21.4
269.569	20.55
269.784	19.34
269.999	19.56
270.214	20.27
270.429	18.1
270.644	17.28
270.859	17.73
271.074	16.11
271.289	16.28
271.504	15.07
271.719	14.58
271.934	14.92
272.149	15.11
272.363	13.61
272.578	14.17
272.793	16.17
273.008	16.25
273.223	16.51
273.438	18.21
273.653	16.99
273.867	18.49
274.082	20.47
274.297	20.99
274.512	21.29
274.726	21.13
274.941	19.49
275.156	18.58
275.371	18.8
275.585	20.87
275.8	20.47
276.015	23.03
276.229	22.53
276.444	20.05
276.659	19.11
276.873	19.71
277.088	20.57
277.302	21.65
277.517	22.52
277.732	21.86
277.946	18.95
278.161	18.08
278.375	15.85
278.59	16.92
278.804	18.4
279.019	19.87
279.233	19.1
279.448	18.51
279.662	17.42
279.877	16.27
280.091	16.93
280.306	16.17
280.52	16.25
280.735	16.04
280.949	13.27
281.163	12.56
281.378	12.57
281.592	13.69
281.806	14.08
282.021	13.42
282.235	14.19
282.449	14.54
282.664	15.1
282.878	16.16
283.092	16.71
283.307	17.72
283.521	17.06
283.735	16.77
283.949	16.97
284.164	17.35
284.378	18.15
284.592	18.02
284.806	17.36
285.02	17.22
285.234	15.62
285.449	15.93
285.663	16.58
285.877	16.82
286.091	16.26
286.305	15.37
286.519	16.02
286.733	15.18
286.947	14.97
287.161	17.32
287.375	17.89
287.589	18.19
287.803	18.45
288.017	18.43
288.231	19.33
288.445	19.42
288.659	19.03
288.873	18.56
289.087	20.14
289.301	20.52
289.515	18.17
289.729	17.53
289.943	18.04
290.157	15.74
290.371	15.64
290.584	14.71
290.798	15.77
291.012	16.86
291.226	16.6
291.44	15.65
291.654	15.66
291.867	16.16
292.081	15.22
292.295	14.75
292.509	18.9
292.722	19.02
292.936	20.56
293.15	19.94
293.364	18.62
293.577	18.73
293.791	19.42
294.005	18.2
294.218	17.47
294.432	16.62
294.645	17.37
294.859	15.8
295.073	15.02
295.286	13.31
295.5	14.32
295.713	14.3
295.927	14.11
296.14	14.57
296.354	14.71
296.568	13.99
296.781	14.58
296.994	14.6
297.208	13.47
297.421	14.42
297.635	15.35
297.848	14.15
298.062	14.65
298.275	15.05
298.489	15.18
298.702	16.09
298.915	16.77
299.129	17.23
299.342	17.19
299.555	18.64
299.769	18.16
299.982	19.44
300.195	20.7
300.409	21.44
300.622	20.73
300.835	19.98
301.048	19.71
301.262	20.56
301.475	22.18
301.688	22.21
301.901	22.68
302.115	22.03
302.328	20.21
302.541	18.24
302.754	16.69
302.967	17.79
303.18	18.59
303.393	19.27
303.607	18.92
303.82	18.32
304.033	18.83
304.246	18.42
304.459	18.74
304.672	19.68
304.885	21.54
305.098	23.34
305.311	22.84
305.524	22.89
305.737	23.17
305.95	22.62
306.163	23.45
306.376	22.31
306.589	21.85
306.802	23.04
307.015	22.71
307.228	21.35
307.44	20.93
307.653	20.24
307.866	18.91
308.079	18.5
308.292	20.41
308.505	18.49
308.718	18.8
308.93	18.79
309.143	17.35
309.356	17.72
309.569	18.94
309.781	19.88
309.994	20.18
310.207	20.06
310.42	18.91
310.632	18.36
310.845	18.6
311.058	19.46
311.27	20.48
311.483	19.16
311.696	18.52
311.908	19.09
312.121	18.49
312.333	18.83
312.546	20.52
312.759	21.05
312.971	20.31
313.184	19.75
313.396	18.77
313.609	18.04
313.821	20.38
314.034	20.64
314.246	18.3
314.459	17.25
314.671	18.91
314.884	17.2
315.096	17.36
315.309	17.59
315.521	19.64
315.733	20.19
315.946	20.46
316.158	19.57
316.371	20.94
316.583	22.37
316.795	24.01
317.008	22.75
317.22	22.58
317.432	22.08
317.644	22.95
317.857	22.11
318.069	21.73
318.281	21.19
318.494	23.22
318.706	22.63
318.918	22.57
319.13	22.44
319.342	22.35
319.555	23.13
319.767	23.99
319.979	22.81
320.191	23.15
320.403	23.08
320.615	22.74
320.827	22.36
321.039	23.26
321.252	23.5
321.464	20.75
321.676	20.64
321.888	21.6
322.1	20.64
322.312	21.94
322.524	23.31
322.736	24.16
322.948	24.98
323.16	23.76
323.372	22.49
323.584	20.48
323.796	22.73
324.007	22.67
324.219	22.78
324.431	22.03
324.643	21.47
324.855	19.94
325.067	19.8
325.279	18.98
325.491	18.75
325.702	19.68
325.914	20.74
326.126	19.12
326.338	19.26
326.55	19.16
326.761	20.22
326.973	20.3
327.185	19.84
327.396	18.84
327.608	19.32
327.82	19.56
328.032	17.95
328.243	19.13
328.455	19.95
328.666	19.49
328.878	18.32
329.09	18.74
329.301	17.84
329.513	17.39
329.725	17.53
329.936	18.87
330.148	18.86
330.359	19.44
330.571	18.42
330.782	17.82
330.994	17.97
331.205	18.41
331.417	18.69
331.628	18.85
331.84	19.29
332.051	20.27
332.262	19.1
332.474	19.97
332.685	18.81
332.897	19.47
333.108	20.43
333.319	20.18
333.531	18.32
333.742	18.49
333.953	18.52
334.165	18.74
334.376	18.94
334.587	19.44
334.799	19.84
335.01	20.57
335.221	19.71
335.432	18.87
335.644	19.57
335.855	19.82
336.066	20.82
336.277	22.04
336.488	22.47
336.7	22.71
336.911	21.91
337.122	21.22
337.333	22.15
337.544	22.57
337.755	21.96
337.966	22.03
338.177	22.56
338.388	20.95
338.599	20.83
338.811	19.35
339.022	17.25
339.233	16.98
339.444	16.49
339.655	14.15
339.866	14.8
340.076	15.52
340.287	15.62
340.498	16.71
340.709	16.21
340.92	15.72
341.131	16.34
341.342	18.15
341.553	18.46
341.764	18.07
341.975	18.97
342.185	17.78
342.396	18.59
342.607	18.56
342.818	17.34
343.029	17.49
343.239	16.86
343.45	17.57
343.661	17.8
343.872	16.66
344.082	17.72
344.293	17.88
344.504	18
344.714	17.32
344.925	16.88
345.136	17.07
345.346	16.99
345.557	16.66
345.768	15.72
345.978	14.01
346.189	14.82
346.399	13.9
346.61	13.96
346.821	14.24
347.031	14.15
347.242	13.64
347.452	15.04
347.663	14.85
347.873	15.15
348.084	15.35
348.294	17.45
348.504	17.67
348.715	17.89
348.925	17.9
349.136	18.66
349.346	18.54
349.557	19.07
349.767	17.79
349.977	19.46
350.188	19.63
350.398	20.57
350.608	18.96
350.819	18.9
351.029	19.43
351.239	19.25
351.449	18.62
351.66	18.52
351.87	17.15
352.08	17.39
352.29	16.74
352.501	17.18
352.711	15.92
352.921	15.76
353.131	14.95
353.341	14.38
353.552	15.42
353.762	15.86
353.972	15.18
354.182	15.81
354.392	16.29
354.602	16.4
354.812	15.81
355.022	15.95
355.232	15.42
355.442	15.84
355.652	15.97
355.862	15.27
356.072	15.16
356.282	16.21
356.492	16.84
356.702	15.33
356.912	14.42
357.122	14.47
357.332	15.28
357.542	15.27
357.752	14.65
357.962	14.33
358.171	13.99
358.381	13.4
358.591	12.56
358.801	11.74
359.011	12.72
359.221	12.42
359.43	12.45
359.64	12.48
359.85	14.36
360.06	14.56
360.269	14.77
360.479	15.29
360.689	14.76
360.899	14.61
361.108	14.65
361.318	14.7
361.528	14.93
361.737	15.1
361.947	13.96
362.156	12.87
362.366	12.75
362.576	13.01
362.785	12.71
362.995	13.62
363.204	14.31
363.414	14.23
363.623	14.03
363.833	13.88
364.042	13.59
364.252	14.4
364.461	14.62
364.671	14.69
364.88	14.37
365.09	13.31
365.299	13.38
365.509	12.87
365.718	12.67
365.927	12
366.137	11.9
366.346	11.73
366.555	11.42
366.765	11.66
366.974	12.5
367.183	12.29
367.393	12.8
367.602	11.41
367.811	11.54
368.021	11.83
368.23	12.29
368.439	13.79
368.648	14.22
368.857	13.98
369.067	13.22
369.276	12.83
369.485	12.73
369.694	12.66
369.903	13.36
370.112	13.23
370.321	13.51
370.531	13.93
370.74	12.21
370.949	11.96
371.158	12.58
371.367	12.06
371.576	11.93
371.785	12.08
371.994	12.82
372.203	13.04
372.412	12.5
372.621	12.9
372.83	13.14
373.039	14.04
373.248	13.36
373.457	12.96
373.666	13.62
373.874	13.18
374.083	12.57
374.292	11.62
374.501	11.62
374.71	11.89
374.919	11.48
375.128	11.24
375.336	10.55
375.545	11.13
375.754	11.19
375.963	11.02
376.171	10.86
376.38	11.15
376.589	11.46
376.798	10.99
377.006	11.08
377.215	11.15
377.424	10.89
377.632	10.97
377.841	11.24
378.05	11.42
378.258	11
378.467	11.36
378.675	10.98
378.884	11.46
379.093	11.35
379.301	11.56
379.51	11.6
379.718	11.31
379.927	10.8
380.135	10.9
380.344	11.22
380.552	11.88
380.761	11.88
380.969	12.48
381.177	11.86
381.386	11.64
381.594	11.17
381.803	10.54
382.011	10.62
382.219	11.23
382.428	10.5
382.636	10.21
382.845	9.67
383.053	9.62
383.261	9.61
383.469	8.91
383.678	9.13
383.886	9.35
384.094	9.36
384.302	9
384.511	8.43
384.719	8.25
384.927	7.58
385.135	7.71
385.343	8.05
385.552	7.8
385.76	8.54
385.968	8.48
386.176	8.27
386.384	8.38
386.592	8.25
386.8	8.12
387.008	8.44
387.216	8.1
387.424	8.48
387.633	7.71
387.841	7.47
388.049	7.25
388.257	7.06
388.465	6.83
388.672	6.69
388.88	6.85
389.088	6.8
389.296	6.37
389.504	6.56
389.712	6.65
389.92	6.84
390.128	6.69
390.336	6.25
390.544	6.56
390.751	6.53
390.959	5.79
391.167	5.92
391.375	6.29
391.583	6.39
391.79	6.36
391.998	5.92
392.206	5.74
392.414	6
392.621	6.15
392.829	5.77
393.037	5.94
393.244	6.53
393.452	6.16
393.66	5.64
393.867	5.55
394.075	5.83
394.283	5.73
394.49	5.65
394.698	5.71
394.905	5.72
395.113	5.86
395.32	5.85
395.528	5.75
395.735	5.97
395.943	6.38
396.15	6.8
396.358	6.57
396.565	6.61
396.773	6.88
396.98	6.64
397.188	6.85
397.395	6.29
397.602	6.4
397.81	6.33
398.017	5.97
398.225	5.96
398.432	5.59
398.639	5.87
398.847	6.03
399.054	5.93
399.261	6.03
399.468	5.93
399.676	6.29
399.883	6.06
400.09	6.13
400.297	6.46
400.505	6.46
400.712	6.38
400.919	6.09
401.126	5.57
401.333	5.53
401.54	5.22
401.748	4.98
401.955	4.94
402.162	5.17
402.369	5.34
402.576	5.05
402.783	4.89
402.99	4.91
403.197	4.8
403.404	5.06
403.611	4.94
403.818	5.15
404.025	5.21
404.232	5.36
404.439	5.24
404.646	4.91
404.853	5.08
405.06	5.08
405.267	5.03
405.474	5.05
405.681	4.9
405.887	4.94
406.094	4.6
406.301	4.64
406.508	4.62
406.715	4.69
406.922	4.89
407.128	4.91
407.335	4.84
407.542	5.03
407.749	5.21
407.955	5.43
408.162	5.34
408.369	5.71
408.575	5.56
408.782	5.45
408.989	5
409.195	4.7
409.402	4.63
409.609	4.64
409.815	4.47
410.022	4.4
410.228	4.16
410.435	4.29
410.642	4.05
410.848	3.89
411.055	4.16
411.261	4.43
411.468	4.6
411.674	4.36
411.881	4.8
412.087	4.84
412.294	4.88
412.5	5
412.706	5.01
412.913	5.24
413.119	5.27
413.326	4.64
413.532	4.62
413.738	4.77
413.945	5.34
414.151	4.95
414.357	4.99
414.564	4.88
414.77	5.03
414.976	4.76
415.182	4.61
415.389	4.57
415.595	4.84
415.801	4.73
416.007	4.53
416.214	4.3
416.42	4.12
416.626	3.92
416.832	4.08
417.038	3.96
417.244	4.03
417.45	3.92
417.657	3.97
417.863	3.94
418.069	3.92
418.275	3.96
418.481	3.8
418.687	3.89
418.893	4.05
419.099	4.02
419.305	3.98
419.511	3.97
419.717	4.11
419.923	4.07
420.129	4.05
420.335	4.11
420.541	3.98
420.746	3.91
420.952	3.86
421.158	3.81
421.364	3.7
421.57	3.65
421.776	3.6
421.982	3.49
422.187	3.6
422.393	3.66
422.599	3.45
422.805	3.37
423.01	3.54
423.216	3.73
423.422	3.69
423.628	3.56
423.833	3.5
424.039	3.54
424.245	3.59
424.45	3.5
424.656	3.5
424.862	3.48
425.067	3.79
425.273	3.51
425.478	3.28
425.684	3.11
425.889	3.25
426.095	3.28
426.301	3.12
426.506	3.07
426.712	3.18
426.917	3.09
427.123	3.34
427.328	3.17
427.533	3.5
427.739	3.38
427.944	3.45
428.15	3.39
428.355	3.43
428.561	3.63
428.766	3.59
428.971	3.6
429.177	3.66
429.382	3.88
429.587	4.03
429.793	4.02
429.998	4.29
430.203	4.31
430.408	4.24
430.614	4.37
430.819	4.3
431.024	4.23
431.229	4.13
431.434	3.83
431.64	3.54
431.845	3.27
432.05	3.27
432.255	3.05
432.46	3.17
432.665	3.09
432.87	3.12
433.076	3.22
433.281	3.3
433.486	3.23
433.691	3.32
433.896	3.34
434.101	3.47
434.306	3.42
434.511	3.52
434.716	3.59
434.921	3.79
435.126	3.72
435.331	3.6
435.535	3.65
435.74	3.68
435.945	3.6
436.15	3.49
436.355	3.08
436.56	3.11
436.765	3.1
436.97	3.17
437.174	3.18
437.379	3.04
437.584	2.94
437.789	3.03
437.993	3.08
438.198	3.22
438.403	3.17
438.608	3.42
438.812	3.21
439.017	3.28
439.222	3.16
439.426	3.18
439.631	3.17
439.836	3.43
440.04	3.25
440.245	3.27
440.45	3.44
440.654	3.51
440.859	3.42
441.063	3.47
441.268	3.52
441.472	3.54
441.677	3.54
441.881	3.59
442.086	3.49
442.29	3.5
442.495	3.51
442.699	3.43
442.904	3.49
443.108	3.57
443.312	3.72
443.517	3.57
443.721	3.48
443.925	3.3
444.13	3.47
444.334	3.46
444.538	3.57
444.743	3.51
444.947	3.43
445.151	3.4
445.356	3.45
445.56	3.42
445.764	3.45
445.968	3.37
446.173	3.43
446.377	3.31
446.581	3.37
446.785	3.31
446.989	3.3
447.193	3.26
447.398	3.28
447.602	3.25
447.806	3.26
448.01	3.31
448.214	3.33
448.418	3.37
448.622	3.45
448.826	3.25
449.03	3.23
449.234	3.15
449.438	3.13
449.642	3.14
449.846	3.38
450.05	3.39
450.254	3.39
450.458	3.22
450.662	3.14
450.866	2.98
451.069	3.17
451.273	3.16
451.477	3.33
451.681	3.4
451.885	3.33
452.089	2.97
452.292	2.95
452.496	2.89
452.7	3.23
452.904	3.27
453.107	3.36
453.311	3.45
453.515	3.51
453.719	3.58
453.922	3.53
454.126	3.57
454.33	3.64
454.533	3.76
454.737	3.68
454.94	3.54
455.144	3.59
455.348	3.62
455.551	3.66
455.755	3.84
455.958	3.79
456.162	3.78
456.365	3.7
456.569	3.64
456.772	3.65
456.976	3.72
457.179	3.57
457.383	3.36
457.586	3.23
457.79	2.89
457.993	2.71
458.196	2.59
458.4	2.59
458.603	2.76
458.807	2.73
459.01	2.61
459.213	2.53
459.417	2.59
459.62	2.74
459.823	2.88
460.026	3.05
460.23	3.04
460.433	3.08
460.636	3.03
460.839	2.84
461.042	2.91
461.246	2.94
461.449	3.02
461.652	3.08
461.855	3.02
462.058	2.92
462.261	2.88
462.464	2.88
462.668	2.78
462.871	2.93
463.074	3.12
463.277	3.27
463.48	3.28
463.683	3.1
463.886	3.15
464.089	3.29
464.292	3.34
464.495	3.16
464.698	3.16
464.901	3.12
465.104	3.03
465.306	3.1
465.509	2.88
465.712	2.79
465.915	2.88
466.118	2.81
466.321	2.67
466.524	2.83
466.726	3.05
466.929	3.01
467.132	3.22
467.335	3.38
467.538	3.25
467.74	3.29
467.943	3.41
468.146	3.67
468.348	3.74
468.551	3.82
468.754	3.52
468.956	3.39
469.159	3.38
469.362	3.44
469.564	3.33
469.767	3.46
469.969	3.55
470.172	3.45
470.375	3.35
470.577	3.25
470.78	3.16
470.982	3.46
471.185	3.46
471.387	3.55
471.59	3.37
471.792	3.55
471.995	3.67
472.197	3.81
472.399	3.85
472.602	3.72
472.804	3.77
473.007	3.91
473.209	3.57
473.411	3.83
473.614	3.81
473.816	3.8
474.018	3.64
474.22	3.46
474.423	3.22
474.625	3.26
474.827	3.45
475.03	3.48
475.232	3.48
475.434	3.59
475.636	3.41
475.838	3.38
476.04	3.38
476.243	3.32
476.445	3.37
476.647	3.4
476.849	3.42
477.051	3.26
477.253	3.53
477.455	3.23
477.657	3.26
477.859	3.29
478.061	3.26
478.263	3.26
478.465	3.35
478.667	3.23
478.869	3.29
479.071	3.26
479.273	3.33
479.475	3
479.677	3.26
479.879	3.36
480.081	3.2
480.283	3.27
480.485	3.39
480.686	3.41
480.888	3.38
481.09	3.32
481.292	3.28
481.494	3.21
481.695	3.21
481.897	3.15
482.099	3.04
482.301	3
482.502	2.88
482.704	2.74
482.906	2.7
483.107	2.74
483.309	2.69
483.511	2.67
483.712	2.66
483.914	2.66
484.115	2.65
484.317	2.64
484.519	2.71
484.72	2.71
484.922	2.73
485.123	2.73
485.325	2.71
485.526	2.79
485.728	2.84
485.929	2.81
486.131	2.81
486.332	2.78
486.534	2.81
486.735	2.71
486.936	2.75
487.138	2.79
487.339	2.73
487.541	2.74
487.742	2.68
487.943	2.62
488.144	2.71
488.346	2.73
488.547	2.8
488.748	2.77
488.95	2.83
489.151	2.81
489.352	2.78
489.553	2.84
489.755	2.86
489.956	2.84
490.157	2.87
490.358	2.73
490.559	2.68
490.76	2.73
490.961	2.73
491.163	2.67
491.364	2.7
491.565	2.77
491.766	2.77
491.967	2.78
492.168	2.79
492.369	2.83
492.57	2.96
492.771	3.02
492.972	2.98
493.173	2.96
493.374	3.04
493.575	3.06
493.776	3.02
493.976	3.05
494.177	3.14
494.378	3.14
494.579	3.12
494.78	2.99
494.981	3.06
495.182	2.98
495.382	3.11
495.583	3.09
495.784	3.05
495.985	3.11
496.185	3.01
496.386	2.96
496.587	2.99
496.788	3.05
496.988	3.11
497.189	3.05
497.39	3.09
497.59	3.04
497.791	3.08
497.992	3.18
498.192	3.09
498.393	3.03
498.593	2.84
498.794	2.96
498.994	2.86
499.195	2.89
499.395	2.85
499.596	2.94
499.796	2.99
499.997	3.12
500.197	3.02
500.398	3.11
500.598	3.16
500.799	3.54
500.999	3.38
501.199	3.68
501.4	3.76
501.6	3.83
501.801	3.8
502.001	3.88
502.201	3.69
502.402	3.84
502.602	3.75
502.802	4
503.002	3.81
503.203	3.95
503.403	3.82
503.603	3.8
503.803	3.72
504.003	3.75
504.204	3.85
504.404	3.78
504.604	3.72
504.804	3.92
505.004	3.72
505.204	3.72
505.404	3.58
505.604	3.5
505.804	3.48
506.005	3.5
506.205	3.42
506.405	3.39
506.605	3.46
506.805	3.5
507.005	3.43
507.204	3.4
507.404	3.4
507.604	3.42
507.804	3.43
508.004	3.5
508.204	3.59
508.404	3.55
508.604	3.34
508.804	3.26
509.003	3.16
509.203	3.14
509.403	3.32
509.603	3.21
509.803	3.28
510.002	3.28
510.202	3.2
510.402	3.08
510.602	3.09
510.801	3.23
511.001	3.38
511.201	3.45
511.4	3.39
511.6	3.33
511.8	3.29
511.999	3.42
512.199	3.44
512.398	3.46
512.598	3.57
512.797	3.76
512.997	3.78
513.197	3.74
513.396	3.71
513.596	3.79
513.795	3.71
513.994	3.92
514.194	3.74
514.393	3.71
514.593	3.77
514.792	3.89
514.992	3.71
515.191	3.77
515.39	3.82
515.59	3.95
515.789	4
515.988	4.04
516.188	3.95
516.387	4.06
516.586	4.1
516.786	4.01
516.985	3.98
517.184	3.92
517.383	3.92
517.582	3.93
517.782	3.87
517.981	3.83
518.18	3.86
518.379	3.83
518.578	3.73
518.777	3.73
518.976	3.8
519.176	3.76
519.375	3.82
519.574	3.81
519.773	3.76
519.972	3.8
520.171	3.82
520.37	3.82
520.569	3.96
520.768	4.04
520.967	4.02
521.166	3.98
521.365	3.96
521.564	3.95
521.762	3.95
521.961	3.92
522.16	3.78
522.359	3.76
522.558	3.76
522.757	3.57
522.956	3.6
523.154	3.59
523.353	3.54
523.552	3.64
523.751	3.74
523.949	3.77
524.148	3.82
524.347	3.82
524.546	3.81
524.744	3.71
524.943	3.84
525.142	3.86
525.34	3.91
525.539	3.99
525.737	3.95
525.936	3.89
526.135	3.77
526.333	3.78
526.532	3.84
526.73	3.84
526.929	3.85
527.127	3.89
527.326	3.91
527.524	3.85
527.723	3.84
527.921	3.81
528.12	3.8
528.318	3.92
528.516	3.94
528.715	3.97
528.913	4
529.112	4.04
529.31	4.04
529.508	4.07
529.707	4.15
529.905	4.17
530.103	4.22
530.301	4.28
530.5	4.22
530.698	4.23
530.896	4.21
531.094	4.25
531.293	4.33
531.491	4.38
531.689	4.31
531.887	4.3
532.085	4.25
532.283	4.28
532.481	4.28
532.68	4.27
532.878	4.38
533.076	4.43
533.274	4.3
533.472	4.31
533.67	4.26
533.868	4.28
534.066	4.3
534.264	4.38
534.462	4.39
534.66	4.44
534.858	4.41
535.056	4.31
535.253	4.38
535.451	4.5
535.649	4.58
535.847	4.62
536.045	4.64
536.243	4.69
536.441	4.7
536.638	4.68
536.836	4.65
537.034	4.83
537.232	4.85
537.43	4.84
537.627	4.94
537.825	4.82
538.023	4.8
538.22	4.88
538.418	4.88
538.616	4.96
538.813	5.16
539.011	5.24
539.209	5.33
539.406	5.43
539.604	5.34
539.801	5.39
539.999	5.51
540.196	5.53
540.394	5.58
540.591	5.63
540.789	5.53
540.986	5.41
541.184	5.42
541.381	5.44
541.579	5.45
541.776	5.5
541.974	5.44
542.171	5.39
542.368	5.48
542.566	5.45
542.763	5.44
542.96	5.53
543.158	5.55
543.355	5.61
543.552	5.61
543.75	5.66
543.947	5.72
544.144	5.78
544.341	5.84
544.539	5.75
544.736	5.71
544.933	5.82
545.13	5.84
545.327	6.03
545.524	6.09
545.722	6.14
545.919	6.1
546.116	6.21
546.313	6.36
546.51	6.48
546.707	6.59
546.904	6.73
547.101	6.71
547.298	6.71
547.495	6.65
547.692	6.69
547.889	6.68
548.086	6.76
548.283	6.74
548.48	6.79
548.677	6.79
548.874	6.92
549.07	7.02
549.267	7.02
549.464	7.13
549.661	7.04
549.858	7.02
550.055	7.21
550.251	7.31
550.448	7.33
550.645	7.21
550.842	7.35
551.038	7.57
551.235	7.66
551.432	7.79
551.628	7.98
551.825	8.18
552.022	8.27
552.218	8.29
552.415	8.41
552.612	8.49
552.808	8.8
553.005	8.87
553.201	8.55
553.398	8.55
553.594	8.66
553.791	8.54
553.987	8.75
554.184	8.79
554.38	8.75
554.577	8.71
554.773	8.73
554.97	8.51
555.166	8.23
555.362	8.51
555.559	8.45
555.755	8.4
555.952	8.65
556.148	8.65
556.344	8.56
556.541	8.62
556.737	8.8
556.933	9.05
557.129	9.06
557.326	9.41
557.522	9.57
557.718	9.75
557.914	9.81
558.11	9.81
558.307	9.78
558.503	10.16
558.699	10.16
558.895	10.18
559.091	10.03
559.287	10.06
559.483	10.32
559.679	10.36
559.876	10.35
560.072	10.42
560.268	10.37
560.464	10.43
560.66	10.08
560.856	10.13
561.052	10.19
561.247	10.44
561.443	10.74
561.639	10.73
561.835	10.69
562.031	10.73
562.227	10.74
562.423	10.83
562.619	10.87
562.815	11.07
563.01	11.18
563.206	11.14
563.402	11.17
563.598	11.12
563.793	10.93
563.989	10.84
564.185	10.94
564.381	10.92
564.576	10.94
564.772	11.05
564.968	11.29
565.163	11.44
565.359	11.49
565.555	11.56
565.75	11.54
565.946	11.63
566.141	11.88
566.337	11.96
566.532	11.93
566.728	11.97
566.923	12.08
567.119	11.9
567.314	11.84
567.51	11.89
567.705	11.95
567.901	12.22
568.096	12.18
568.292	12.04
568.487	12.01
568.682	12.11
568.878	12.27
569.073	12.08
569.268	12.27
569.464	12.34
569.659	12.31
569.854	12.22
570.05	12.09
570.245	12.18
570.44	12.46
570.635	12.57
570.831	12.66
571.026	12.63
571.221	12.63
571.416	12.58
571.611	12.44
571.806	12.45
572.002	12.55
572.197	12.66
572.392	12.76
572.587	12.62
572.782	12.72
572.977	12.8
573.172	12.89
573.367	13.06
573.562	13.17
573.757	13.47
573.952	13.65
574.147	13.72
574.342	13.84
574.537	13.82
574.732	13.76
574.927	13.68
575.121	13.73
575.316	13.81
575.511	13.77
575.706	13.92
575.901	13.86
576.096	13.93
576.29	13.98
576.485	13.97
576.68	13.95
576.875	14.07
577.069	14.24
577.264	14.05
577.459	14.05
577.654	14.07
577.848	14.04
578.043	14.13
578.238	13.98
578.432	13.89
578.627	13.57
578.821	13.78
579.016	13.81
579.21	13.8
579.405	13.99
579.6	13.9
579.794	14.04
579.989	13.96
580.183	14
580.378	14.19
580.572	14.3
580.766	14.42
580.961	14.34
581.155	14.36
581.35	14.04
581.544	14.23
581.738	14.43
581.933	14.44
582.127	14.49
582.321	14.44
582.516	14.63
582.71	14.6
582.904	14.93
583.099	15.05
583.293	15.27
583.487	15.64
583.681	15.47
583.875	15.29
584.07	15.25
584.264	15.41
584.458	15.39
584.652	15.22
584.846	15.47
585.04	15.02
585.234	15.05
585.428	14.92
585.623	14.74
585.817	14.85
586.011	15.01
586.205	15.11
586.399	14.81
586.593	14.71
586.787	14.69
586.981	14.35
587.174	14.74
587.368	14.75
587.562	14.88
587.756	14.96
587.95	14.8
588.144	14.56
588.338	14.63
588.532	14.61
588.725	15.01
588.919	14.9
589.113	15.16
589.307	15.24
589.501	15.19
589.694	15.11
589.888	15.28
590.082	15.51
590.275	15.88
590.469	15.7
590.663	15.99
590.856	15.85
591.05	15.9
591.244	15.89
591.437	15.63
591.631	15.45
591.824	15.28
592.018	15.17
592.212	15.14
592.405	15.06
592.599	15.04
592.792	15
592.986	14.75
593.179	14.86
593.372	14.85
593.566	15.12
593.759	15.38
593.953	15.72
594.146	15.67
594.339	15.63
594.533	15.62
594.726	15.56
594.92	15.44
595.113	15.75
595.306	15.98
595.499	15.98
595.693	15.92
595.886	15.93
596.079	15.76
596.272	15.86
596.466	15.78
596.659	15.73
596.852	15.88
597.045	16.09
597.238	16.05
597.431	15.81
597.624	15.78
597.818	15.83
598.011	15.77
598.204	15.81
598.397	15.83
598.59	16.14
598.783	16.08
598.976	16.17
599.169	15.81
599.362	15.63
599.555	15.61
599.748	15.53
599.941	15.46
600.134	15.38
600.326	15.27
600.519	15.11
600.712	14.84
600.905	14.73
601.098	14.54
601.291	14.74
601.483	14.7
601.676	14.61
601.869	14.6
602.062	14.73
602.255	14.89
602.447	14.97
602.64	14.97
602.833	14.94
603.025	15.02
603.218	15.24
603.411	15.18
603.603	15.46
603.796	16.01
603.989	15.85
604.181	15.79
604.374	15.83
604.566	15.92
604.759	16
604.951	16.11
605.144	16.07
605.336	16.13
605.529	16.11
605.721	15.94
605.914	15.59
606.106	15.83
606.299	15.83
606.491	15.78
606.683	15.55
606.876	15.35
607.068	15.36
607.26	15.7
607.453	15.57
607.645	15.81
607.837	15.94
608.03	16.38
608.222	16.38
608.414	16.25
608.606	16.2
608.799	16.34
608.991	16.56
609.183	16.67
609.375	16.49
609.567	16.54
609.759	16.48
609.952	16.39
610.144	16.13
610.336	16.09
610.528	16.1
610.72	16.32
610.912	16.17
611.104	16.18
611.296	15.98
611.488	15.97
611.68	15.86
611.872	15.78
612.064	16.12
612.256	15.96
612.448	16.05
612.64	16.23
612.832	15.87
613.023	16.18
613.215	16.35
613.407	16.62
613.599	16.75
613.791	16.76
613.983	16.66
614.174	16.22
614.366	16.19
614.558	15.95
614.75	15.82
614.941	15.76
615.133	15.73
615.325	15.44
615.516	15.32
615.708	15.07
615.9	15.28
616.091	15.26
616.283	15.41
616.475	15.61
616.666	16.06
616.858	16.19
617.049	16.31
617.241	16.25
617.432	16.54
617.624	16.55
617.815	16.71
618.007	16.57
618.198	17.11
618.39	17.11
618.581	17.05
618.773	16.8
618.964	16.7
619.155	16.71
619.347	16.75
619.538	16.57
619.729	16.59
619.921	16.37
620.112	16.55
620.303	16.34
620.494	16.34
620.686	16.46
620.877	16.51
621.068	16.48
621.259	16.69
621.451	16.79
621.642	16.67
621.833	16.48
622.024	16.21
622.215	16.29
622.406	16.14
622.597	16.03
622.788	16
622.98	15.94
623.171	16.15
623.362	16.11
623.553	15.96
623.744	16.47
623.935	16.72
624.126	17.05
624.317	17.07
624.508	17.34
624.698	17.28
624.889	17.25
625.08	17.5
625.271	17.26
625.462	17.42
625.653	17.48
625.844	17.04
626.034	16.86
626.225	17.04
626.416	16.72
626.607	16.62
626.798	16.65
626.988	16.66
627.179	16.62
627.37	16.76
627.56	16.67
627.751	16.78
627.942	17.02
628.132	17
628.323	16.89
628.514	17.13
628.704	17
628.895	17.26
629.085	17.03
629.276	16.78
629.466	16.78
629.657	16.53
629.847	16.42
630.038	16.32
630.228	16.51
630.419	16.48
630.609	16.15
630.8	16.3
630.99	16.17
631.181	16.36
631.371	16.63
631.561	16.78
631.752	16.84
631.942	16.64
632.132	16.42
632.323	16.46
632.513	16.7
632.703	16.85
632.893	16.51
633.084	16.79
633.274	16.87
633.464	16.69
633.654	16.48
633.844	16.77
634.034	16.93
634.225	17.16
634.415	17.21
634.605	17.06
634.795	16.99
634.985	17.42
635.175	17.32
635.365	17.08
635.555	17.21
635.745	17.12
635.935	16.9
636.125	16.88
636.315	17.16
636.505	17.23
636.695	17.32
636.885	17.46
637.075	17.65
637.265	17.91
637.455	18.04
637.644	17.82
637.834	18.44
638.024	18.64
638.214	18.83
638.404	18.73
638.593	18.4
638.783	18.54
638.973	18.29
639.163	17.94
639.352	17.76
639.542	17.82
639.732	17.91
639.921	17.46
640.111	17.19
640.301	17.24
640.49	16.8
640.68	16.86
640.87	16.86
641.059	17.29
641.249	17.42
641.438	17.04
641.628	17.24
641.817	17.37
642.007	17.26
642.196	17.27
642.386	17.03
642.575	17.16
642.764	16.82
642.954	17
643.143	16.97
643.333	17.01
643.522	17.16
643.711	17.01
643.901	17.13
644.09	16.67
644.279	16.68
644.469	16.54
644.658	16.75
644.847	17.34
645.036	17.18
645.226	17.24
645.415	17.28
645.604	17.41
645.793	17.44
645.982	17.2
646.171	17.81
646.361	18.3
646.55	18.72
646.739	18.43
646.928	18.32
647.117	18.12
647.306	17.93
647.495	17.91
647.684	17.76
647.873	17.77
648.062	17.91
648.251	17.9
648.44	17.61
648.629	17.41
648.818	17.79
649.007	17.71
649.196	17.81
649.384	17.88
649.573	17.8
649.762	17.82
649.951	17.6
650.14	17.58
650.328	17.95
650.517	18.06
650.706	18.12
650.895	17.79
651.083	17.81
651.272	17.7
651.461	17.86
651.65	17.48
651.838	17.4
652.027	17.67
652.216	17.82
652.404	17.42
652.593	17.29
652.781	17.12
652.97	16.93
653.158	17.11
653.347	17.73
653.535	17.48
653.724	18.14
653.912	18.06
654.101	17.66
654.289	17.6
654.478	17.52
654.666	17.26
654.855	17.6
655.043	17.93
655.231	17.78
655.42	17.1
655.608	17.26
655.796	16.87
655.985	16.98
656.173	17.13
656.361	16.97
656.55	16.96
656.738	17.66
656.926	17.52
657.114	17.73
657.302	17.71
657.491	17.81
657.679	17.7
657.867	17.69
658.055	17.57
658.243	17.68
658.431	17.87
658.619	17.91
658.807	17.56
658.996	17.58
659.184	17.31
659.372	17.31
659.56	17.5
659.748	17.86
659.936	17.5
660.124	17.54
660.311	17.57
660.499	17.38
660.687	17.17
660.875	17.27
661.063	17.14
661.251	17.39
661.439	17.3
661.627	17.18
661.814	16.75
662.002	17.28
662.19	17.02
662.378	17.03
662.565	17.45
662.753	17.8
662.941	17.62
663.129	17.87
663.316	17.64
663.504	17.96
663.692	17.71
663.879	17.68
664.067	17.71
664.254	17.83
664.442	17.32
664.63	16.79
664.817	16.98
665.005	16.98
665.192	17.15
665.38	17.49
665.567	17.35
665.755	17.68
665.942	17.56
666.13	17.79
666.317	18.02
666.504	18.29
666.692	18.6
666.879	18.57
667.067	18.46
667.254	18.36
667.441	18.21
667.629	17.87
667.816	17.6
668.003	18.04
668.19	17.72
668.378	17.72
668.565	18.08
668.752	18.35
668.939	17.93
669.127	18.01
669.314	17.51
669.501	17.64
669.688	17.83
669.875	17.65
670.062	18.21
670.249	17.93
670.436	18.03
670.623	17.95
670.81	17.92
670.997	17.88
671.184	17.91
671.371	18.48
671.558	18.19
671.745	17.97
671.932	18.16
672.119	17.58
672.306	17.8
672.493	18.19
672.68	18.4
672.867	17.77
673.054	18.19
673.24	18.5
673.427	18.09
673.614	17.79
673.801	17.86
673.988	18.14
674.174	17.53
674.361	17.51
674.548	17.25
674.734	17.2
674.921	17.26
675.108	16.67
675.294	16.23
675.481	16.2
675.668	16.49
675.854	17.06
676.041	17.17
676.227	17.13
676.414	17.6
676.601	17.33
676.787	17.6
676.974	18
677.16	18.2
677.347	18.48
677.533	18.92
677.719	19.25
677.906	18.97
678.092	18.5
678.279	18.89
678.465	18.74
678.651	18.72
678.838	18.09
679.024	17.97
679.21	18.18
679.397	18.13
679.583	17.69
679.769	17.7
679.955	17.42
680.142	17.79
680.328	17.76
680.514	17.76
680.7	18.06
680.886	18.3
681.073	18.41
681.259	18.34
681.445	18.15
681.631	18.39
681.817	18.21
682.003	18.21
682.189	18.08
682.375	17.71
682.561	17.81
682.747	17.74
682.933	17.46
683.119	17.33
683.305	17.42
683.491	17.94
683.677	18.18
683.863	17.96
684.049	18.73
684.235	18.72
684.42	19.02
684.606	18.71
684.792	18.28
684.978	18.39
685.164	18.29
685.349	17.93
685.535	17.28
685.721	16.71
685.907	17.41
686.092	17.15
686.278	16.82
686.464	16.82
686.649	17.34
686.835	17.8
687.021	18.06
687.206	17.66
687.392	18.02
687.577	18.42
687.763	18.88
687.948	18.58
688.134	18.22
688.319	18.36
688.505	18.45
688.69	17.35
688.876	16.95
689.061	16.76
689.247	17.52
689.432	17.62
689.618	17.46
689.803	17.28
689.988	17.54
690.174	17.66
690.359	18.33
690.544	18.64
690.73	19.75
690.915	20
691.1	19.96
691.285	19.75
691.471	19.54
691.656	20.01
691.841	20.1
692.026	19.92
692.211	20.06
692.396	19.78
692.582	19.92
692.767	19.08
692.952	18.75
693.137	18.73
693.322	18.94
693.507	18.92
693.692	18.48
693.877	18.67
694.062	18.59
694.247	18.24
694.432	18.04
694.617	17.78
694.802	18.34
694.987	18.67
695.172	18.9
695.357	18.32
695.541	18.34
695.726	19.14
695.911	18.99
696.096	18.83
696.281	19.17
696.466	18.98
696.65	18.74
696.835	18.78
697.02	18.88
697.204	18.62
697.389	18.7
697.574	18.69
697.759	18.25
697.943	18.43
698.128	18.31
698.312	18.6
698.497	18.72
698.682	18.46
698.866	18.49
699.051	18.71
699.235	18.72
699.42	18.91
699.604	19.17
699.789	18.88
699.973	18.63
700.158	18.79
700.342	18.38
700.527	18.24
700.711	18.45
700.895	18.17
701.08	17.66
701.264	17.78
701.448	17.49
701.633	17.82
701.817	17.93
702.001	17.92
702.186	17.34
702.37	17.26
702.554	17.14
702.738	17.49
702.923	17.58
703.107	17.48
703.291	17.18
703.475	17.63
703.659	17.09
703.843	17.72
704.027	17.76
704.212	18.67
704.396	19.36
704.58	19.76
704.764	19.57
704.948	19.37
705.132	20.12
705.316	20.54
705.5	20.76
705.684	20.8
705.868	20.4
706.052	20.62
706.235	20.53
706.419	20.07
706.603	20.36
706.787	20.69
706.971	20.99
707.155	20.52
707.339	20.87
707.522	20.52
707.706	20.67
707.89	20.71
708.074	19.67
708.257	19.75
708.441	20
708.625	19.8
708.808	19.84
708.992	20.09
709.176	19.97
709.359	19.62
709.543	19.68
709.727	19.39
709.91	19.79
710.094	21.31
710.277	21.6
710.461	21.33
710.644	21.1
710.828	21.03
711.011	20.87
711.195	21.13
711.378	21.5
711.562	21.74
711.745	21.43
711.928	21.17
712.112	21
712.295	20.88
712.478	21.03
712.662	20.79
712.845	20.41
713.028	20.25
713.212	20.31
713.395	19.84
713.578	19.65
713.761	19.8
713.945	19.9
714.128	19.42
714.311	19.05
714.494	18.67
714.677	19.3
714.86	19.75
715.043	20.23
715.227	20.53
715.41	21.27
715.593	21.32
715.776	21.43
715.959	21.21
716.142	21.51
716.325	21.4
716.508	21.89
716.691	21.12
716.874	21.45
717.057	21.15
717.239	20.84
717.422	20.35
717.605	20.35
717.788	20.18
717.971	20.77
718.154	21.03
718.337	21.24
718.519	21.03
718.702	21.47
718.885	21.09
719.068	21.64
719.25	22.04
719.433	22.51
719.616	23.12
719.798	23.15
719.981	21.99
720.164	21.61
720.346	21.5
720.529	21.9
720.712	21.93
720.894	22.04
721.077	20.85
721.259	20.36
721.442	19.34
721.624	19.12
721.807	20.28
721.989	21.24
722.172	20.63
722.354	20.82
722.537	19.55
722.719	20.16
722.901	19.46
723.084	20.9
723.266	21.19
723.448	21.13
723.631	20.46
723.813	19.67
723.995	19.31
724.178	19.4
724.36	20.05
724.542	20.58
724.724	20.04
724.907	20.25
725.089	19.22
725.271	18.98
725.453	18.83
725.635	19.55
725.817	18.96
725.999	19.3
726.181	19.77
726.364	19.09
726.546	18.96
726.728	19.7
726.91	19.73
727.092	20.32
727.274	19.91
727.456	20.44
727.638	20.11
727.819	21.02
728.001	20.3
728.183	20.39
728.365	20.65
728.547	20.83
728.729	20.36
728.911	20.6
729.093	20.08
729.274	19.72
729.456	19.36
729.638	18.85
729.82	18.83
730.001	19.47
730.183	19.93
730.365	20.1
730.546	20.68
730.728	20.02
730.91	20.12
731.091	20.13
731.273	20.96
731.455	20.6
731.636	21.05
731.818	20.98
731.999	21.16
732.181	21.17
732.362	20.67
732.544	20.13
732.725	20.72
732.907	20.86
733.088	22
733.27	22.09
733.451	22.79
733.633	22.58
733.814	22.41
733.995	22.21
734.177	21.72
734.358	22.35
734.539	22.73
734.721	21.98
734.902	22.31
735.083	21.63
735.264	21.78
735.446	22.54
735.627	22.93
735.808	23.27
735.989	23.18
736.17	22.67
736.351	21.69
736.533	21.05
736.714	21.99
736.895	21.01
737.076	20.66
737.257	20.45
737.438	19.48
737.619	19.21
737.8	18.27
737.981	18.85
738.162	19
738.343	20.22
738.524	20.68
738.705	20.53
738.886	20.54
739.067	20.41
739.247	20.33
739.428	20.79
739.609	20.1
739.79	21.19
739.971	20.7
740.151	20.55
740.332	19.94
740.513	20.54
740.694	21.05
740.874	21.96
741.055	22.15
741.236	22.14
741.417	21.36
741.597	21.57
741.778	20.99
741.958	21.06
742.139	22.3
742.32	21.29
742.5	21.08
742.681	20.74
742.861	20.42
743.042	20.3
743.222	19.8
743.403	21.19
743.583	22.11
743.764	21.1
743.944	20.4
744.124	19.93
744.305	21.11
744.485	21.5
744.666	21.45
744.846	21.79
745.026	22.92
745.207	23.08
745.387	22.23
745.567	22.14
745.747	23.54
745.928	23.42
746.108	23.57
746.288	24.65
746.468	24.31
746.648	24.04
746.829	23.07
747.009	21.75
747.189	21.91
747.369	23.7
747.549	23.93
747.729	24.27
747.909	24.08
748.089	23.08
748.269	22.49
748.449	23.65
748.629	23.53
748.809	23.36
748.989	23.6
749.169	23
749.349	21.7
749.529	20.39
749.709	19.31
749.889	20.17
750.068	19.72
750.248	19.58
750.428	17.3
750.608	16.89
750.788	15.35
750.967	13.99
751.147	15.04
751.327	15.5
751.507	15.9
751.686	16.85
751.866	17.56
752.046	18.81
752.225	18.34
752.405	18.59
752.585	20.05
752.764	21.59
752.944	23.73
753.123	23.9
753.303	23.78
753.482	23.73
753.662	23.14
753.841	23.04
754.021	24.25
754.2	25.42
754.38	26.42
754.559	26.03
754.739	26.35
754.918	26.15
755.097	26.67
755.277	27.21
755.456	27.31
755.635	27.07
755.815	26.43
755.994	24.48
756.173	23.51
756.352	22.82
756.532	21.72
756.711	21.82
756.89	22.25
757.069	21.78
757.248	20.12
757.427	21.46
757.607	21.55
757.786	22.77
757.965	23.34
758.144	23.6
758.323	23.52
758.502	25.21
758.681	25.5
758.86	25.96
759.039	25.9
759.218	26.75
759.397	26.12
759.576	27.38
759.755	26.83
759.934	26.58
760.113	25.7
760.291	26.92
760.47	26.25
760.649	25.74
760.828	25.33
761.007	25.94
761.186	24.53
761.364	24.77
761.543	23.67
761.722	22.95
761.901	22.72
762.079	23.47
762.258	22.66
762.437	22.85
762.615	23.48
762.794	22.76
762.972	21.68
763.151	22.36
763.33	22.67
763.508	23.09
763.687	23.57
763.865	23.54
764.044	22.86
764.222	22.71
764.401	22.21
764.579	21.68
764.758	22.31
764.936	22.11
765.114	22.43
765.293	22.38
765.471	21.41
765.65	21.42
765.828	22.68
766.006	23.8
766.184	23.98
766.363	24.58
766.541	25.61
766.719	24.45
766.898	25.21
767.076	25.77
767.254	25.48
767.432	26.51
767.61	25.59
767.788	23.75
767.967	22.61
768.145	22.99
768.323	23.32
768.501	22.89
768.679	24.3
768.857	24.98
769.035	25.29
769.213	25.85
769.391	25.6
769.569	26.72
769.747	28.92
769.925	31.84
770.103	32.29
770.281	31.9
770.459	31.38
770.636	28.54
770.814	29.2
770.992	27.18
771.17	26.86
771.348	25.96
771.525	25.42
771.703	24.09
771.881	21.65
772.059	22.16
772.236	22.23
772.414	21.05
772.592	25.14
772.769	24.15
772.947	23.62
773.125	23.44
773.302	25.47
773.48	24.81
773.657	24.73
773.835	25.59
774.013	23.88
774.19	24.81
774.368	26.22
774.545	24.29
774.723	24.48
774.9	25.9
775.077	25.27
775.255	24.78
775.432	26.45
775.61	26.49
775.787	24.37
775.964	24.75
776.142	22.28
776.319	22.7
776.496	22.05
776.674	20.88
776.851	22.04
777.028	22.32
777.205	21.75
777.382	21.73
777.56	22.48
777.737	24.02
777.914	25.03
778.091	27.17
778.268	28.37
778.445	29.45
778.622	29.29
778.8	29.58
778.977	30.55
779.154	28.21
779.331	26.03
779.508	24.4
779.685	26.1
779.862	26.7
780.038	26.79
780.215	26
780.392	24.43
780.569	26.48
780.746	24.41
780.923	23.92
781.1	27.63
781.277	27.68
781.453	27.43
781.63	26.45
781.807	26.22
781.984	23.38
782.16	22.47
782.337	23.47
782.514	23.05
782.691	24.57
782.867	25.36
783.044	24.08
783.221	24.88
783.397	26.96
783.574	24.93
783.75	24.23
783.927	26.11
784.103	27.24
784.28	26.94
784.456	26.97
784.633	27.63
784.809	27.13
784.986	26.73
785.162	26.17
785.339	26.57
785.515	28.92
785.692	27.68
785.868	27.77
786.044	26.62
786.221	29.19
786.397	26.77
786.573	26.44
786.749	24.91
786.926	24.73
787.102	24.68
787.278	22.93
787.454	22.4
787.631	24.86
787.807	22.87
787.983	23.6
788.159	20.74
788.335	24.67
788.511	22.8
788.687	24.75
788.863	26.08
789.039	29.71
789.216	29.65
789.392	30.1
789.568	28.95
789.744	28.43
789.919	29.41
790.095	30.59
790.271	30.95
790.447	31.9
790.623	32.04
790.799	30.9
790.975	28.3
791.151	30.9
791.327	30.65
791.502	32.22
791.678	33.05
791.854	31.61
792.03	31.96
792.205	28.94
792.381	30.3
792.557	30.25
792.733	31.98
792.908	32.15
793.084	29.44
793.259	29.76
793.435	28.29
793.611	29.8
793.786	30.29
793.962	31.07
794.137	29.38
794.313	27.29
794.488	24.93
794.664	25.34
794.839	23.77
795.015	23.59
795.19	22.59
795.366	22.27
795.541	22.97
795.716	21.55
795.892	20.28
796.067	20.82
796.242	20.81
796.418	23.62
796.593	23.02
796.768	25.46
796.944	27.43
797.119	29.77
797.294	32.69
797.469	32.21
797.644	33.39
797.82	31.24
797.995	32.03
798.17	34.69
798.345	33.59
798.52	31.79
798.695	31.61
798.87	31.44
799.045	28.64
799.22	25.81
799.395	28.13
799.57	27.44
799.745	31.29
799.92	31.31
800.095	31.35
800.27	31.87
800.445	32.46
800.62	31.43
800.795	31.76
800.97	33.53
801.145	31.18
801.319	29.87
801.494	30.73
801.669	24.84
801.844	24.33
802.018	24.24
802.193	26.04
802.368	25.17
802.543	24.64
802.717	24.2
802.892	22.68
803.067	26.84
803.241	26.04
803.416	26.37
803.59	31.1
803.765	35
803.94	33.58
804.114	29.93
804.289	32.19
804.463	34.23
804.638	37.66
804.812	36.99
804.986	35.2
805.161	34.42
805.335	33.97
805.51	32.45
805.684	33.91
805.858	33.22
806.033	33.64
806.207	31.85
806.381	32.29
806.556	29.26
806.73	31.38
806.904	33.17
807.078	33.75
807.253	35.21
807.427	36.44
807.601	32.26
807.775	33.87
807.949	32.96
808.123	32.21
808.298	30.26
808.472	28.77
808.646	27.24
808.82	21.99
808.994	24.66
809.168	22.97
809.342	25.31
809.516	27.58
809.69	26.96
809.864	29.55
810.038	32.58
810.212	33.89
810.385	33.39
810.559	33.12
810.733	37.5
810.907	36.23
811.081	34.85
811.255	34.55
811.428	34.26
811.602	31.24
811.776	33.74
811.95	28.97
812.123	30.03
812.297	31.17
812.471	30.45
812.644	30.95
812.818	28.92
812.992	28.13
813.165	29.27
813.339	29.61
813.512	32.05
813.686	31.29
813.86	32.9
814.033	30.04
814.207	32.96
814.38	31.87
814.554	31.85
814.727	34.99
814.9	36.74
815.074	38.61
815.247	36.83
815.421	38.98
815.594	37.81
815.767	39.74
815.941	40.49
816.114	33.28
816.287	34.52
816.46	34.22
816.634	33.78
816.807	32.66
816.98	28.03
817.153	29.25
817.327	25.31
817.5	25.05
817.673	27.27
817.846	28.8
818.019	34.59
818.192	37.44
818.365	35.4
818.538	33.66
818.711	34.11
818.884	35.12
819.057	35.56
819.23	36.22
819.403	35.81
819.576	35.48
819.749	34.58
819.922	33.07
820.095	33.61
820.268	35.41
820.441	31.26
820.614	30.42
820.786	30.09
820.959	27.12
821.132	26.4
821.305	25.1
821.477	24.38
821.65	24.4
821.823	22.14
821.996	20.9
822.168	20.81
822.341	22.32
822.514	22.19
822.686	21.48
822.859	22.57
823.031	22.28
823.204	21.63
823.376	21.32
823.549	21.03
823.722	21.74
823.894	21.42
824.067	20.53
824.239	20.12
824.411	21.13
824.584	21.38
824.756	21.59
824.929	22.82
825.101	24.28
825.273	24.43
825.446	24.07
825.618	24.36
825.79	25.39
825.963	26.58
826.135	27.88
826.307	27.56
826.479	27.98
826.652	26.1
826.824	25.46
826.996	24.19
827.168	23.61
827.34	25.03
827.512	26.15
827.684	24.55
827.856	24.94
828.029	25.45
828.201	24.35
828.373	24.62
828.545	26.61
828.717	26.61
828.889	29.01
829.061	29.98
829.232	27.94
829.404	27.6
829.576	30.58
829.748	31.89
829.92	29.57
830.092	29.76
830.264	30.22
830.436	29.26
830.607	28.66
830.779	28.13
830.951	28.41
831.123	33.51
831.294	32.02
831.466	30
831.638	26.81
831.809	26.94
831.981	27.03
832.153	25.17
832.324	25.67
832.496	27.5
832.667	22.7
832.839	23.19
833.011	22.11
833.182	23.03
833.354	22.67
833.525	23.23
833.697	23.41
833.868	26.59
834.039	26.13
834.211	27.4
834.382	26.86
834.554	30.59
834.725	31.23
834.896	30.16
835.068	33.7
835.239	35.93
835.41	36.77
835.581	37.26
835.753	35.49
835.924	36.17
836.095	32.55
836.266	32.82
836.438	35.17
836.609	33.58
836.78	34.21
836.951	28.6
837.122	26.68
837.293	24.66
837.464	23.34
837.635	24.12
837.806	21.82
837.977	23.36
838.148	25.21
838.319	17.79
838.49	14.46
838.661	15.4
838.832	17.79
839.003	21.65
839.174	23.49
839.345	22.08
839.516	20.8
839.687	31.24
839.857	37.09
840.028	34.82
840.199	37.4
840.37	42.52
840.54	46.05
840.711	43.18
840.882	41.33
841.053	41.51
841.223	46.6
841.394	52.53
841.564	49.39
841.735	46.97
841.906	46.62
842.076	48.57
842.247	45.68
842.417	43.53
842.588	46.33
842.758	52.48
842.929	57.62
843.099	59.72
843.27	54.46
843.44	50.24
843.611	48.21
843.781	52.82
843.951	52.14
844.122	59.58
844.292	60.12
844.462	64.08
844.633	55.88
844.803	55.39
844.973	56.67
845.144	64.29
845.314	68.32
845.484	69.81
845.654	69.3
845.824	73.13
845.995	78.55
846.165	71.39
846.335	73.17
846.505	81.56
846.675	93.82
846.845	87.22
847.015	84.64
847.185	80.54
847.355	84.26
847.525	98.33
847.695	91.65
847.865	89.16
848.035	104.98
848.205	97.11
848.375	105.98
848.545	92.73
848.715	95.26
848.884	87.64
849.054	104.03
849.224	110.6
849.394	100.39
849.564	102.3
849.733	96.56
849.903	93.05
850.073	103.04
850.243	97.82
850.412	98.99
850.582	95.3
850.752	97.47
850.921	78.28
851.091	78.39
851.26	80.97
851.43	80.74
851.599	79.15
851.769	75.27
851.939	77.72
852.108	70.52
852.278	67.18
852.447	71.81
852.616	83.89
852.786	87.22
852.955	82.56
853.125	76.17
853.294	79.8
853.463	69.37
853.633	69.76
853.802	62.71
853.971	67.33
854.141	75.36
854.31	73.48
854.479	58.05
854.648	54.15
854.818	44.97
854.987	54.53
855.156	48.3
855.325	50.88
855.494	48.53
855.663	54.85
855.832	61.61
856.001	52.78
856.171	54.38
856.34	61.59
856.509	67.98
856.678	73.88
856.847	68.09
857.016	76.91
857.185	78.26
857.353	67.92
857.522	65.8
857.691	53.01
857.86	59.82
858.029	44.12
858.198	33.67
858.367	33.74
858.535	36.62
858.704	41.2
858.873	43.49
859.042	40.22
859.21	56.22
859.379	62.55
859.548	71.95
859.717	66.45
859.885	77.33
860.054	87.6
860.222	93.01
860.391	97.1
860.56	94.46
860.728	91.55
860.897	91.13
861.065	94.95
861.234	89.35
861.402	90.64
861.571	67.81
861.739	73.44
861.908	81.16
862.076	71.23
862.244	68.9
862.413	67.22
862.581	65.63
862.749	66.84
862.918	68.14
863.086	72.61
863.254	63.9
863.423	73.32
863.591	76.52
863.759	65.07
863.927	60.31
864.096	66.02
864.264	66.53
864.432	73.56
864.6	80.03
864.768	75.51
864.936	70.72
865.104	70.53
865.272	78.26
865.44	71.56
865.608	68.92
865.776	71.05
865.944	66.05
866.112	68.65
866.28	71.71
866.448	60.45
866.616	64.73
866.784	66.22
866.952	77.77
867.12	74.79
867.288	77.85
867.455	79.24
867.623	79.85
867.791	78.51
867.959	73.59
868.127	64.5
868.294	76.71
868.462	78.31
868.63	80.04
868.797	78.18
868.965	79.28
869.133	82.18
869.3	88.71
869.468	90.63
869.636	87.08
869.803	90.58
869.971	97.7
870.138	91.92
870.306	82.53
870.473	83.33
870.641	82.89
870.808	78.53
870.975	76.28
871.143	72.12
871.31	70.16
871.478	74.24
871.645	69.86
871.812	75.32
871.98	80.29
872.147	90.27
872.314	86.12
872.482	85.51
872.649	82.44
872.816	75.27
872.983	83.55
873.15	87.46
873.318	80.02
873.485	93.59
873.652	85.51
873.819	72.61
873.986	70.83
874.153	71.86
874.32	61.06
874.487	70.2
874.654	85.13
874.821	71.52
874.988	69.76
875.155	81.26
875.322	65.37
875.489	64.39
875.656	69.59
875.823	65.1
875.99	61.52
876.157	82.12
876.324	77.66
876.49	68.97
876.657	73.66
876.824	68.54
876.991	52.7
877.157	62.32
877.324	62.38
877.491	66.07
877.658	68.96
877.824	72.97
877.991	67.51
878.157	68.84
878.324	70.46
878.491	62.49
878.657	61.07
878.824	75.92
878.99	57.74
879.157	57.35
879.323	59.72
879.49	64.7
879.656	72.37
879.823	66.22
879.989	63.61
880.156	65.4
880.322	74.88
880.488	75.13
880.655	61.96
880.821	77.27
880.987	75.37
881.154	65.78
881.32	57.29
881.486	49.32
881.652	48.68
881.819	42.86
881.985	38.75
882.151	39.33
882.317	37.75
882.483	39.15
882.649	38.45
882.816	38.13
882.982	37.45
883.148	33.28
883.314	32.95
883.48	28.63
883.646	27.9
883.812	25.67
883.978	22.24
884.144	23.09
884.31	24.56
884.476	23.18
884.642	22.34
884.807	21.87
884.973	24.64
885.139	23.51
885.305	27.99
885.471	28.8
885.637	31.87
885.802	33.69
885.968	34.22
886.134	32.9
886.3	38.79
886.465	38.15
886.631	39.93
886.797	40.97
886.962	45.28
887.128	42.28
887.293	51.79
887.459	54.3
887.625	57.52
887.79	64.15
887.956	61.62
888.121	54.35
888.287	61.01
888.452	61.4
888.618	66.59
888.783	60.19
