Data from 2938025_Reflection_1.txt Node
Date: Sun Jul 12 15:16:59 EDT 2015
User: robert
Spectrometer: USB4E03001
Autoset integration time: false
Trigger mode: 4
Integration Time (sec): 1.000000E-1
Scans to average: 10
Electric dark correction enabled: true
Nonlinearity correction enabled: false
Boxcar width: 5
Stray light correction enabled: false
XAxis mode: Wavelengths
Stop averaging: false
Number of Pixels in Spectrum: 3648
>>>>>Begin Spectral Data<<<<<
177.566	126.14
177.785	55.19
178.005	73.27
178.225	172.79
178.445	102.85
178.665	92.93
178.885	-119.51
179.105	39.76
179.324	0.07
179.544	-41.24
179.764	-311.92
179.984	-53.89
180.204	-75.96
180.423	-15.6
180.643	11.77
180.863	2.55
181.083	-21.56
181.302	-29.81
181.522	-44.8
181.742	-41.25
181.961	-40.06
182.181	-40.11
182.401	-37.74
182.621	-55.76
182.84	-81.3
183.06	-82.58
183.279	-94.21
183.499	-77.9
183.719	-105.22
183.938	-106.45
184.158	-128.86
184.377	-217.03
184.597	-983.29
184.816	7239.53
185.036	-2494.83
185.256	2900.61
185.475	999.52
185.695	-1837.81
185.914	-488.56
186.134	-549.85
186.353	-254.08
186.572	-239.09
186.792	-237.91
187.011	-176.37
187.231	-261.73
187.45	-178.11
187.67	-180.74
187.889	-112.86
188.108	-117.22
188.328	-471.03
188.547	4870.71
188.766	218.2
188.986	232.84
189.205	123.11
189.424	207.78
189.644	206.32
189.863	139.9
190.082	93.79
190.302	105.47
190.521	125.03
190.74	119.39
190.959	132.84
191.178	147.72
191.398	114.99
191.617	134.28
191.836	133.36
192.055	107.14
192.274	115.47
192.494	159.14
192.713	139.96
192.932	94.5
193.151	74.41
193.37	70.54
193.589	-164.26
193.808	263.29
194.027	171.89
194.246	214.45
194.465	172.82
194.685	115.5
194.904	163.89
195.123	143.13
195.342	184.06
195.561	664.38
195.78	181.38
195.999	202.39
196.218	143.81
196.436	3560.27
196.655	-3638.57
196.874	-316.18
197.093	-97.25
197.312	-47.56
197.531	-25.6
197.75	-62.55
197.969	-188.13
198.188	-110.7
198.407	-201.79
198.625	-96.44
198.844	-252.66
199.063	-626.94
199.282	-1613.3
199.501	-1221.45
199.719	1459.45
199.938	623.39
200.157	736.98
200.376	250.51
200.594	225.96
200.813	296.62
201.032	228.06
201.251	218.08
201.469	195.39
201.688	300.45
201.907	237.86
202.125	208.37
202.344	197.24
202.563	311.26
202.781	344.54
203	387.16
203.218	1100.27
203.437	452.28
203.656	2408.75
203.874	-553.26
204.093	-2029.26
204.311	-714.57
204.53	-829.5
204.748	-698.41
204.967	17916.67
205.185	7775.89
205.404	256.29
205.622	386.05
205.841	-471.13
206.059	-2550.47
206.278	693.95
206.496	571.87
206.715	2157.94
206.933	-413.61
207.151	-237.45
207.37	-185.85
207.588	-138.84
207.806	-95.05
208.025	-207.48
208.243	-225.09
208.461	-197.5
208.68	-53.33
208.898	-99.49
209.116	-107.93
209.335	-267.18
209.553	-264.74
209.771	-2258.6
209.989	-618.18
210.208	-502.52
210.426	-337.81
210.644	-394.94
210.862	-195.29
211.081	1635.04
211.299	910.05
211.517	374.77
211.735	-56.1
211.953	-6.83
212.171	3.46
212.39	-18.09
212.608	-17.26
212.826	-23.06
213.044	-22.1
213.262	-34.13
213.48	-50.52
213.698	-58.83
213.916	-235.07
214.134	-261.36
214.352	-911.26
214.57	-624.34
214.788	-370.56
215.006	-732.38
215.224	-144.95
215.442	2100
215.66	313.84
215.878	739.96
216.096	-1938.05
216.314	-187.59
216.532	-199.03
216.75	-224.77
216.968	-273.73
217.185	-353.38
217.403	-286.7
217.621	-589.56
217.839	-262.6
218.057	-215.76
218.275	-260.96
218.492	-374.5
218.71	-309.71
218.928	-324.41
219.146	-485.83
219.363	-427.18
219.581	-416.51
219.799	-761.15
220.017	-1271.8
220.234	-775.3
220.452	-2494.07
220.67	-5859.92
220.887	13637.5
221.105	1912.55
221.323	2761.82
221.54	-1085.36
221.758	-403.26
221.976	-327
222.193	-286.37
222.411	-95.1
222.629	-83.32
222.846	-37.99
223.064	-30.38
223.281	-2.07
223.499	18.82
223.716	9.02
223.934	-0.35
224.151	-10.22
224.369	-25.23
224.586	-23.06
224.804	-58.06
225.021	-58.63
225.239	-28.9
225.456	-11.11
225.674	-19.87
225.891	-26.31
226.108	-27.9
226.326	-14.93
226.543	-16.46
226.76	-14.78
226.978	-11.81
227.195	-7.86
227.413	-4.7
227.63	-8.04
227.847	-9.89
228.064	-3.92
228.282	-1.87
228.499	-3.65
228.716	-1.21
228.934	3.16
229.151	7.01
229.368	7.94
229.585	9.78
229.802	11.48
230.02	11.03
230.237	8.91
230.454	5.97
230.671	7.13
230.888	9.04
231.105	4.86
231.323	5.86
231.54	1.19
231.757	-1
231.974	-2.17
232.191	-2.19
232.408	-12.14
232.625	-11.69
232.842	-5.63
233.059	-8.8
233.276	-8.63
233.493	-9.35
233.71	-15.53
233.927	-9.75
234.144	-12.03
234.361	-14.42
234.578	-22.51
234.795	-12.05
235.012	-6.03
235.229	-9.63
235.446	-12.1
235.663	-17.45
235.879	-16.98
236.096	-14.39
236.313	-16.51
236.53	-9.52
236.747	-3.82
236.964	3.18
237.181	4.84
237.397	1.9
237.614	-4.39
237.831	-7.34
238.048	-5.72
238.264	-10.75
238.481	-11.3
238.698	-16.14
238.915	-15.91
239.131	-21.05
239.348	-25.55
239.565	-25.09
239.781	-25.33
239.998	-21.19
240.215	-10.38
240.431	-8.37
240.648	-2.62
240.865	0
241.081	3.96
241.298	5.49
241.514	6.97
241.731	9.94
241.947	10.99
242.164	13.23
242.38	14.25
242.597	14.23
242.814	13.51
243.03	13.87
243.246	12.38
243.463	11.27
243.679	9.89
243.896	8.52
244.112	5.98
244.329	4.3
244.545	3.07
244.762	3.95
244.978	2.76
245.194	4.72
245.411	3.87
245.627	6.77
245.843	9.37
246.06	8.67
246.276	8.93
246.492	10.32
246.709	11.77
246.925	11.48
247.141	10.69
247.357	10.04
247.574	9.5
247.79	9.04
248.006	7.89
248.222	7.16
248.439	7.85
248.655	7.43
248.871	6.28
249.087	4.2
249.303	3.24
249.519	2.57
249.736	3.04
249.952	1.17
250.168	1.82
250.384	1.54
250.6	0.04
250.816	-0.87
251.032	0.66
251.248	1.94
251.464	2.8
251.68	3.03
251.896	2.69
252.112	1.42
252.328	0.97
252.544	-0.66
252.76	-4.21
252.976	-4.03
253.192	-5.09
253.408	-8.21
253.624	-9.83
253.84	-9.76
254.056	-11.06
254.272	-11.52
254.487	-8.79
254.703	-6.72
254.919	-5.38
255.135	0.81
255.351	2.08
255.567	4.36
255.782	7.49
255.998	7.3
256.214	6.34
256.43	5.49
256.646	5.72
256.861	4.61
257.077	4.27
257.293	5.03
257.508	5.28
257.724	3.23
257.94	3.35
258.155	4.14
258.371	2.78
258.587	3.46
258.802	4.96
259.018	5.51
259.234	6.6
259.449	6.46
259.665	7.16
259.88	7.48
260.096	8.16
260.312	8.01
260.527	7.46
260.743	7.67
260.958	7.44
261.174	7.31
261.389	6.79
261.605	5.46
261.82	5.84
262.036	4.46
262.251	3.52
262.466	2.48
262.682	1.06
262.897	0.9
263.113	2.02
263.328	0.61
263.543	-1.57
263.759	-0.87
263.974	-1.35
264.189	-3.27
264.405	-3.71
264.62	-5.15
264.835	-7.93
265.051	-9.97
265.266	-8.55
265.481	-10.38
265.696	-7.13
265.912	-5.77
266.127	-5.83
266.342	-4.67
266.557	-2.21
266.773	-2.24
266.988	-0.43
267.203	1.68
267.418	3.96
267.633	2.37
267.848	3.36
268.064	3.35
268.279	4.57
268.494	4.68
268.709	5.9
268.924	5.29
269.139	5.34
269.354	5.95
269.569	5.26
269.784	4.33
269.999	5.85
270.214	5.17
270.429	4.59
270.644	4.11
270.859	3.27
271.074	2.96
271.289	3.08
271.504	4.38
271.719	3.77
271.934	4.91
272.149	4.63
272.363	5.57
272.578	6.07
272.793	6.18
273.008	7.17
273.223	7.26
273.438	6.36
273.653	5.19
273.867	4.84
274.082	4.42
274.297	3.86
274.512	4.93
274.726	4.82
274.941	5.27
275.156	4.72
275.371	4.92
275.585	4.98
275.8	3.78
276.015	5.24
276.229	5.38
276.444	6.11
276.659	5.81
276.873	6.89
277.088	7.19
277.302	6.73
277.517	7.77
277.732	6.65
277.946	7.08
278.161	8.05
278.375	7.63
278.59	7.03
278.804	5.18
279.019	4.97
279.233	2.61
279.448	-0.3
279.662	-1.72
279.877	-3.45
280.091	-3.4
280.306	-3.7
280.52	-2.17
280.735	-3.68
280.949	-3.67
281.163	-2.34
281.378	-2.27
281.592	-1.82
281.806	-0.5
282.021	1.65
282.235	2.16
282.449	2.55
282.664	3.62
282.878	2.81
283.092	4.2
283.307	4.9
283.521	4.28
283.735	3.97
283.949	3.65
284.164	3.04
284.378	1.1
284.592	1.01
284.806	1.27
285.02	0.76
285.234	1.56
285.449	1.34
285.663	1.01
285.877	0.96
286.091	2.33
286.305	3.56
286.519	3.82
286.733	4.79
286.947	4.7
287.161	3.75
287.375	4.85
287.589	4.06
287.803	4.6
288.017	4.17
288.231	4.46
288.445	3.86
288.659	3.21
288.873	3.73
289.087	3.97
289.301	5.03
289.515	6.25
289.729	5.13
289.943	5.78
290.157	6.45
290.371	7.35
290.584	7.28
290.798	8.17
291.012	8.06
291.226	7.48
291.44	6.49
291.654	6.79
291.867	6.91
292.081	7.22
292.295	6.88
292.509	5.14
292.722	3.85
292.936	3.64
293.15	3.25
293.364	2.69
293.577	4.76
293.791	5.97
294.005	5.47
294.218	4.22
294.432	3.75
294.645	1.69
294.859	2.78
295.073	2.92
295.286	4.45
295.5	3.33
295.713	3.88
295.927	2.56
296.14	2.5
296.354	2.26
296.568	3.07
296.781	3.93
296.994	5.24
297.208	4.83
297.421	6.37
297.635	6.42
297.848	6.64
298.062	7.03
298.275	7.35
298.489	6.73
298.702	6.3
298.915	5.74
299.129	5.54
299.342	5.59
299.555	6.11
299.769	4.93
299.982	3.95
300.195	4.72
300.409	4.3
300.622	3.61
300.835	4
301.048	5.59
301.262	5.24
301.475	5.14
301.688	6.58
301.901	6.74
302.115	6.4
302.328	6.71
302.541	6.15
302.754	6.02
302.967	6.53
303.18	6.28
303.393	6.18
303.607	7.75
303.82	8.32
304.033	6.71
304.246	6.16
304.459	5.66
304.672	4.36
304.885	4.37
305.098	3.85
305.311	3.82
305.524	4.79
305.737	4.21
305.95	4.03
306.163	3.62
306.376	3.48
306.589	4.86
306.802	5.59
307.015	7.69
307.228	8.26
307.44	9.53
307.653	9.88
307.866	9.32
308.079	9.21
308.292	8.27
308.505	7.02
308.718	7.72
308.93	6.74
309.143	6.35
309.356	5.98
309.569	5.99
309.781	6.79
309.994	6.66
310.207	7.8
310.42	8.31
310.632	7.05
310.845	8.61
311.058	8
311.27	7.28
311.483	7.53
311.696	7.32
311.908	6.04
312.121	5.69
312.333	5.91
312.546	4.42
312.759	4.2
312.971	5.58
313.184	5.54
313.396	6.04
313.609	5.88
313.821	4.94
314.034	4.83
314.246	5.11
314.459	4.84
314.671	3.86
314.884	4.64
315.096	5.07
315.309	5.23
315.521	3.35
315.733	3.93
315.946	4.81
316.158	7.02
316.371	7.66
316.583	9.53
316.795	7.81
317.008	8.47
317.22	8.41
317.432	6.32
317.644	6.25
317.857	7.45
318.069	6.53
318.281	7.45
318.494	6.44
318.706	6.31
318.918	6.42
319.13	7.16
319.342	6.36
319.555	5.71
319.767	5.94
319.979	6.05
320.191	4.9
320.403	5.33
320.615	6.02
320.827	5.26
321.039	5.61
321.252	3.76
321.464	3.6
321.676	3.73
321.888	5.47
322.1	6.07
322.312	6.15
322.524	6.23
322.736	5.5
322.948	4.09
323.16	5.59
323.372	5.92
323.584	6.69
323.796	6.33
324.007	7
324.219	6.62
324.431	7.71
324.643	7.7
324.855	9.12
325.067	8.9
325.279	10.16
325.491	9.19
325.702	7.96
325.914	7.69
326.126	9.16
326.338	9
326.55	7.96
326.761	6.74
326.973	6.15
327.185	4.73
327.396	6.36
327.608	6.3
327.82	7.35
328.032	7.52
328.243	7.75
328.455	7.74
328.666	9.38
328.878	9.82
329.09	9.16
329.301	10.71
329.513	10.98
329.725	10.68
329.936	9.95
330.148	9.51
330.359	9.9
330.571	11.43
330.782	10.91
330.994	8.63
331.205	9.76
331.417	10.9
331.628	9.26
331.84	10.25
332.051	11.07
332.262	11.18
332.474	11.66
332.685	11.59
332.897	10.97
333.108	11.05
333.319	12.9
333.531	13.06
333.742	13.37
333.953	15.51
334.165	15.91
334.376	15.25
334.587	15.37
334.799	16.14
335.01	16.77
335.221	16.47
335.432	16.65
335.644	14.57
335.855	14.25
336.066	14.14
336.277	13.87
336.488	13.6
336.7	12.95
336.911	13.11
337.122	12.03
337.333	12.39
337.544	11.7
337.755	11.85
337.966	12.73
338.177	12.8
338.388	12.98
338.599	13.65
338.811	12.71
339.022	13.39
339.233	13.11
339.444	13.23
339.655	13.3
339.866	14.04
340.076	13.81
340.287	14.29
340.498	14.29
340.709	14.19
340.92	12.14
341.131	13.67
341.342	13.45
341.553	13.44
341.764	14.29
341.975	13.48
342.185	13.92
342.396	14.46
342.607	13.41
342.818	13.94
343.029	13.67
343.239	14.02
343.45	12.88
343.661	12.06
343.872	12.62
344.082	11.9
344.293	11.58
344.504	11.29
344.714	11.4
344.925	11.5
345.136	10.72
345.346	12.06
345.557	12.55
345.768	12.21
345.978	12.74
346.189	12.37
346.399	12.36
346.61	14.22
346.821	14.21
347.031	14.27
347.242	14.72
347.452	14.74
347.663	13.71
347.873	13.47
348.084	13.98
348.294	14.92
348.504	14.28
348.715	14.2
348.925	12.17
349.136	12.14
349.346	11.72
349.557	11.38
349.767	11.75
349.977	13.07
350.188	13.23
350.398	12.86
350.608	12.49
350.819	12.17
351.029	12.47
351.239	13.15
351.449	13.04
351.66	12.33
351.87	11.57
352.08	10.28
352.29	8.97
352.501	8.82
352.711	9.49
352.921	8.13
353.131	7.99
353.341	7.69
353.552	7.53
353.762	7.58
353.972	9.08
354.182	10.46
354.392	11.05
354.602	11.54
354.812	11.35
355.022	11.47
355.232	12.54
355.442	13.31
355.652	12.58
355.862	12.53
356.072	12.49
356.282	11.82
356.492	12.35
356.702	12.95
356.912	12.71
357.122	13.07
357.332	13.06
357.542	12.77
357.752	13.29
357.962	13.29
358.171	13.37
358.381	13.62
358.591	13.62
358.801	13.31
359.011	13
359.221	13.29
359.43	12.53
359.64	11.8
359.85	11.64
360.06	11.33
360.269	11.91
360.479	11.77
360.689	11.46
360.899	11.06
361.108	10.95
361.318	10.34
361.528	10.66
361.737	11.44
361.947	12.47
362.156	13
362.366	12.79
362.576	12.61
362.785	12.7
362.995	13.17
363.204	13.01
363.414	13.16
363.623	13.64
363.833	12.82
364.042	13.35
364.252	12.83
364.461	12.48
364.671	12.81
364.88	12.95
365.09	13.39
365.299	13.29
365.509	13.68
365.718	13.53
365.927	14.26
366.137	15.1
366.346	13.98
366.555	13.85
366.765	13.77
366.974	13.75
367.183	13.63
367.393	12.82
367.602	12.51
367.811	12.28
368.021	11.35
368.23	10.83
368.439	10.05
368.648	10.25
368.857	9.98
369.067	10.48
369.276	10.92
369.485	11.24
369.694	11.37
369.903	11.25
370.112	11.37
370.321	12.4
370.531	11.48
370.74	11.53
370.949	11.69
371.158	11.54
371.367	11.18
371.576	10.79
371.785	10.61
371.994	10.83
372.203	10.7
372.412	11.12
372.621	10.71
372.83	11.21
373.039	11.34
373.248	10.4
373.457	10.67
373.666	10.57
373.874	10.09
374.083	10.27
374.292	9.91
374.501	9.8
374.71	9.48
374.919	9.51
375.128	9.85
375.336	9.27
375.545	10.93
375.754	11.03
375.963	10.82
376.171	11.01
376.38	11.19
376.589	11.7
376.798	12.08
377.006	12.37
377.215	12.74
377.424	12.9
377.632	13.39
377.841	12.52
378.05	12.16
378.258	12.09
378.467	11.77
378.675	11.66
378.884	11.42
379.093	10.85
379.301	9.97
379.51	9.46
379.718	9.35
379.927	8.94
380.135	8.73
380.344	8.76
380.552	9.18
380.761	9.65
380.969	9.05
381.177	9.14
381.386	9.36
381.594	10.42
381.803	10.13
382.011	9.97
382.219	10.07
382.428	10.08
382.636	10.58
382.845	10.46
383.053	10.22
383.261	9.95
383.469	9.84
383.678	9.85
383.886	9.54
384.094	10.01
384.302	9.54
384.511	9.63
384.719	9.3
384.927	8.43
385.135	8.07
385.343	7.93
385.552	8.1
385.76	7.6
385.968	7.79
386.176	7.43
386.384	7.09
386.592	7.24
386.8	7.15
387.008	7.45
387.216	7.77
387.424	8.03
387.633	7.68
387.841	7.82
388.049	7.88
388.257	7.89
388.465	7.85
388.672	7.59
388.88	7.62
389.088	7.3
389.296	6.92
389.504	7.17
389.712	7.26
389.92	7.51
390.128	7.29
390.336	7.69
390.544	7.37
390.751	7.28
390.959	7.83
391.167	7.69
391.375	7.75
391.583	8.29
391.79	8.21
391.998	8.2
392.206	8.07
392.414	8.29
392.621	8.12
392.829	8.19
393.037	8.44
393.244	8.07
393.452	7.94
393.66	8.07
393.867	8.03
394.075	7.97
394.283	7.94
394.49	8.08
394.698	8.31
394.905	8.27
395.113	8.46
395.32	8.19
395.528	8.33
395.735	8.69
395.943	8.53
396.15	8.13
396.358	7.91
396.565	7.76
396.773	7.8
396.98	7.29
397.188	7.38
397.395	7.29
397.602	7.21
397.81	7.41
398.017	7.31
398.225	7.73
398.432	7.91
398.639	8.34
398.847	8.5
399.054	8.37
399.261	8.57
399.468	8.37
399.676	7.98
399.883	8.04
400.09	7.55
400.297	7.68
400.505	7.23
400.712	7.33
400.919	6.78
401.126	6.86
401.333	6.68
401.54	6.57
401.748	6.66
401.955	6.73
402.162	6.73
402.369	7.11
402.576	6.84
402.783	7.36
402.99	6.96
403.197	7.42
403.404	7.15
403.611	7.19
403.818	7.34
404.025	7.37
404.232	7.72
404.439	7.69
404.646	7.57
404.853	7.72
405.06	7.69
405.267	7.84
405.474	7.56
405.681	7.68
405.887	7.93
406.094	7.53
406.301	7.75
406.508	7.22
406.715	7.38
406.922	7.45
407.128	7.19
407.335	6.91
407.542	7.07
407.749	7.31
407.955	6.87
408.162	6.48
408.369	6.75
408.575	6.88
408.782	7.1
408.989	7.28
409.195	7.04
409.402	7.26
409.609	7.25
409.815	7.12
410.022	6.94
410.228	7.24
410.435	7.53
410.642	7.38
410.848	7.21
411.055	7.27
411.261	7.12
411.468	7
411.674	6.97
411.881	7.11
412.087	7.21
412.294	7.03
412.5	6.96
412.706	6.79
412.913	6.77
413.119	6.42
413.326	6.66
413.532	6.86
413.738	6.95
413.945	6.89
414.151	6.76
414.357	6.5
414.564	6.94
414.77	6.85
414.976	6.77
415.182	6.76
415.389	6.74
415.595	6.66
415.801	6.43
416.007	6.49
416.214	6.48
416.42	6.52
416.626	6.6
416.832	6.42
417.038	6.5
417.244	6.71
417.45	6.8
417.657	6.83
417.863	6.93
418.069	6.96
418.275	7.15
418.481	7.15
418.687	7.05
418.893	7.27
419.099	7.25
419.305	7.41
419.511	7.46
419.717	7.46
419.923	7.54
420.129	7.28
420.335	7.2
420.541	6.94
420.746	7.03
420.952	7.06
421.158	6.83
421.364	6.85
421.57	6.72
421.776	6.69
421.982	6.79
422.187	6.77
422.393	6.82
422.599	6.94
422.805	7.12
423.01	6.99
423.216	6.99
423.422	7.04
423.628	7.01
423.833	7.06
424.039	7.06
424.245	7.02
424.45	7.01
424.656	7.1
424.862	7.04
425.067	6.95
425.273	7.01
425.478	7.15
425.684	7.15
425.889	7.21
426.095	7.14
426.301	7.08
426.506	7.09
426.712	7.14
426.917	7.19
427.123	7.12
427.328	7.25
427.533	7.2
427.739	6.91
427.944	7.03
428.15	6.71
428.355	6.85
428.561	6.81
428.766	6.67
428.971	6.66
429.177	6.43
429.382	6.63
429.587	6.74
429.793	6.68
429.998	6.73
430.203	6.71
430.408	7.16
430.614	6.99
430.819	7.11
431.024	7.22
431.229	6.98
431.434	7.09
431.64	6.97
431.845	6.83
432.05	6.87
432.255	7.04
432.46	6.86
432.665	6.63
432.87	6.71
433.076	6.76
433.281	6.71
433.486	6.92
433.691	6.99
433.896	6.89
434.101	6.88
434.306	6.95
434.511	6.72
434.716	6.77
434.921	6.97
435.126	6.9
435.331	6.8
435.535	6.73
435.74	6.52
435.945	6.47
436.15	6.45
436.355	6.65
436.56	6.54
436.765	6.72
436.97	6.83
437.174	6.69
437.379	6.77
437.584	6.66
437.789	6.68
437.993	6.88
438.198	6.84
438.403	7.06
438.608	6.78
438.812	6.96
439.017	7.01
439.222	7.02
439.426	6.85
439.631	6.89
439.836	6.92
440.04	6.85
440.245	6.75
440.45	6.73
440.654	6.65
440.859	6.82
441.063	6.81
441.268	6.76
441.472	6.75
441.677	6.85
441.881	6.67
442.086	6.7
442.29	6.62
442.495	6.62
442.699	6.62
442.904	6.47
443.108	6.24
443.312	6.21
443.517	6.13
443.721	6.1
443.925	6.2
444.13	6.29
444.334	6.36
444.538	6.58
444.743	6.52
444.947	6.53
445.151	6.61
445.356	6.67
445.56	6.6
445.764	6.67
445.968	6.61
446.173	6.73
446.377	6.85
446.581	6.94
446.785	7.01
446.989	6.99
447.193	7.1
447.398	7.16
447.602	7.32
447.806	7.31
448.01	7.29
448.214	7.39
448.418	7.4
448.622	7.42
448.826	7.47
449.03	7.4
449.234	7.62
449.438	7.56
449.642	7.62
449.846	7.33
450.05	7.13
450.254	7.24
450.458	7.32
450.662	7.16
450.866	6.87
451.069	6.72
451.273	6.56
451.477	6.65
451.681	6.47
451.885	6.32
452.089	6.55
452.292	6.99
452.496	6.84
452.7	6.64
452.904	6.56
453.107	6.83
453.311	6.8
453.515	6.95
453.719	6.77
453.922	6.79
454.126	6.81
454.33	6.69
454.533	6.37
454.737	6.39
454.94	6.57
455.144	6.56
455.348	6.39
455.551	6.1
455.755	5.86
455.958	5.79
456.162	5.66
456.365	5.8
456.569	5.85
456.772	5.92
456.976	6.07
457.179	5.97
457.383	6.02
457.586	6.01
457.79	6.24
457.993	6.3
458.196	6.46
458.4	6.69
458.603	6.44
458.807	6.34
459.01	6.33
459.213	6.25
459.417	6.16
459.62	6.32
459.823	6.35
460.026	6.41
460.23	6.49
460.433	6.5
460.636	6.51
460.839	6.62
461.042	6.66
461.246	6.69
461.449	6.6
461.652	6.72
461.855	6.37
462.058	6.41
462.261	6.3
462.464	6.22
462.668	6.02
462.871	5.92
463.074	5.76
463.277	6.05
463.48	6.02
463.683	6.1
463.886	6.08
464.089	6.1
464.292	6.05
464.495	6.08
464.698	5.99
464.901	5.98
465.104	5.97
465.306	6.05
465.509	5.8
465.712	5.77
465.915	5.7
466.118	5.73
466.321	5.81
466.524	5.88
466.726	5.94
466.929	6.01
467.132	6.03
467.335	6.17
467.538	6.33
467.74	6.3
467.943	6.44
468.146	6.37
468.348	6.32
468.551	6.41
468.754	6.13
468.956	6.28
469.159	6.34
469.362	6.46
469.564	6.24
469.767	6.17
469.969	6.38
470.172	6.09
470.375	6.17
470.577	5.93
470.78	5.99
470.982	6.25
471.185	5.93
471.387	6.06
471.59	5.85
471.792	5.93
471.995	5.97
472.197	5.58
472.399	5.77
472.602	5.79
472.804	6.1
473.007	6.1
473.209	6.23
473.411	6.38
473.614	6.29
473.816	6.46
474.018	6.47
474.22	6.36
474.423	6.65
474.625	6.7
474.827	6.69
475.03	6.57
475.232	6.52
475.434	6.35
475.636	6.21
475.838	6.21
476.04	6.22
476.243	6.32
476.445	6.42
476.647	6.29
476.849	6.34
477.051	6.36
477.253	6.5
477.455	6.65
477.657	6.56
477.859	6.71
478.061	6.68
478.263	6.62
478.465	6.48
478.667	6.6
478.869	6.83
479.071	6.8
479.273	6.7
479.475	6.76
479.677	6.65
479.879	6.6
480.081	6.67
480.283	6.69
480.485	6.69
480.686	6.79
480.888	6.58
481.09	6.39
481.292	6.27
481.494	6.4
481.695	6.36
481.897	6.43
482.099	6.45
482.301	6.44
482.502	6.52
482.704	6.56
482.906	6.52
483.107	6.6
483.309	6.65
483.511	6.71
483.712	6.64
483.914	6.7
484.115	6.62
484.317	6.6
484.519	6.59
484.72	6.5
484.922	6.51
485.123	6.49
485.325	6.47
485.526	6.45
485.728	6.4
485.929	6.48
486.131	6.4
486.332	6.42
486.534	6.45
486.735	6.45
486.936	6.55
487.138	6.55
487.339	6.56
487.541	6.57
487.742	6.54
487.943	6.57
488.144	6.5
488.346	6.51
488.547	6.56
488.748	6.54
488.95	6.5
489.151	6.44
489.352	6.44
489.553	6.46
489.755	6.42
489.956	6.44
490.157	6.47
490.358	6.57
490.559	6.54
490.76	6.57
490.961	6.6
491.163	6.59
491.364	6.61
491.565	6.59
491.766	6.58
491.967	6.54
492.168	6.49
492.369	6.49
492.57	6.39
492.771	6.45
492.972	6.39
493.173	6.47
493.374	6.54
493.575	6.62
493.776	6.56
493.976	6.61
494.177	6.63
494.378	6.75
494.579	6.58
494.78	6.75
494.981	6.62
495.182	6.57
495.382	6.56
495.583	6.44
495.784	6.34
495.985	6.36
496.185	6.38
496.386	6.33
496.587	6.36
496.788	6.43
496.988	6.35
497.189	6.29
497.39	6.26
497.59	6.17
497.791	6.22
497.992	6.28
498.192	6.23
498.393	6.06
498.593	6.24
498.794	6.42
498.994	6.61
499.195	6.51
499.395	6.66
499.596	6.74
499.796	6.82
499.997	6.75
500.197	6.65
500.398	6.62
500.598	6.61
500.799	6.59
500.999	6.25
501.199	6.03
501.4	6.05
501.6	5.96
501.801	6
502.001	6.07
502.201	6.2
502.402	6.38
502.602	6.37
502.802	6.57
503.002	6.55
503.203	6.54
503.403	6.55
503.603	6.66
503.803	6.64
504.003	6.51
504.204	6.36
504.404	6.2
504.604	5.99
504.804	6.14
505.004	6.18
505.204	6.13
505.404	6.16
505.604	6.14
505.804	6.24
506.005	6.15
506.205	6.4
506.405	6.44
506.605	6.51
506.805	6.5
507.005	6.56
507.204	6.62
507.404	6.54
507.604	6.55
507.804	6.63
508.004	6.63
508.204	6.73
508.404	6.65
508.604	6.67
508.804	6.7
509.003	6.89
509.203	6.8
509.403	6.74
509.603	6.83
509.803	6.83
510.002	6.97
510.202	7.02
510.402	6.9
510.602	6.84
510.801	6.82
511.001	6.95
511.201	6.8
511.4	6.92
511.6	6.88
511.8	7.03
511.999	7.08
512.199	6.95
512.398	6.91
512.598	7.03
512.797	7.19
512.997	7.3
513.197	7.19
513.396	7.26
513.596	7.29
513.795	7.44
513.994	7.44
514.194	7.47
514.393	7.49
514.593	7.44
514.792	7.54
514.992	7.45
515.191	7.53
515.39	7.61
515.59	7.59
515.789	7.54
515.988	7.49
516.188	7.39
516.387	7.39
516.586	7.31
516.786	7.3
516.985	7.29
517.184	7.34
517.383	7.34
517.582	7.43
517.782	7.6
517.981	7.67
518.18	7.66
518.379	7.69
518.578	7.71
518.777	7.84
518.976	7.92
519.176	8.02
519.375	8.05
519.574	8.12
519.773	8.04
519.972	7.83
520.171	7.74
520.37	7.78
520.569	7.7
520.768	7.64
520.967	7.71
521.166	7.78
521.365	7.63
521.564	7.63
521.762	7.58
521.961	7.51
522.16	7.67
522.359	7.77
522.558	7.8
522.757	7.82
522.956	7.96
523.154	7.96
523.353	7.97
523.552	8
523.751	7.97
523.949	7.86
524.148	7.99
524.347	8
524.546	8.03
524.744	7.97
524.943	8.03
525.142	8.07
525.34	8.07
525.539	8.01
525.737	8.11
525.936	8.09
526.135	8.25
526.333	8.27
526.532	8.25
526.73	8.21
526.929	8.23
527.127	8.32
527.326	8.31
527.524	8.28
527.723	8.39
527.921	8.35
528.12	8.42
528.318	8.45
528.516	8.47
528.715	8.58
528.913	8.57
529.112	8.56
529.31	8.53
529.508	8.5
529.707	8.51
529.905	8.48
530.103	8.48
530.301	8.47
530.5	8.38
530.698	8.38
530.896	8.34
531.094	8.41
531.293	8.46
531.491	8.5
531.689	8.61
531.887	8.67
532.085	8.65
532.283	8.67
532.481	8.69
532.68	8.76
532.878	8.83
533.076	8.83
533.274	8.86
533.472	8.88
533.67	8.88
533.868	8.9
534.066	8.89
534.264	8.93
534.462	8.98
534.66	9.04
534.858	8.95
535.056	8.9
535.253	8.88
535.451	8.89
535.649	8.89
535.847	8.85
536.045	8.75
536.243	8.74
536.441	8.95
536.638	8.89
536.836	8.88
537.034	8.95
537.232	9.03
537.43	8.97
537.627	8.98
537.825	8.95
538.023	9.01
538.22	9.17
538.418	9.13
538.616	9
538.813	9.16
539.011	9.27
539.209	9.31
539.406	9.33
539.604	9.41
539.801	9.48
539.999	9.65
540.196	9.71
540.394	9.74
540.591	9.74
540.789	9.78
540.986	9.84
541.184	9.8
541.381	9.84
541.579	9.82
541.776	9.92
541.974	9.91
542.171	9.95
542.368	9.92
542.566	9.97
542.763	10.03
542.96	9.97
543.158	9.97
543.355	9.85
543.552	9.92
543.75	9.94
543.947	9.82
544.144	9.83
544.341	9.79
544.539	9.89
544.736	9.82
544.933	9.88
545.13	9.83
545.327	9.78
545.524	10.04
545.722	9.94
545.919	10.08
546.116	10.2
546.313	10.28
546.51	10.29
546.707	10.27
546.904	10.31
547.101	10.3
547.298	10.45
547.495	10.51
547.692	10.58
547.889	10.75
548.086	10.73
548.283	10.69
548.48	10.72
548.677	10.69
548.874	10.6
549.07	10.66
549.267	10.81
549.464	10.97
549.661	11
549.858	11.02
550.055	11.07
550.251	10.94
550.448	11.37
550.645	11.23
550.842	11.23
551.038	11.59
551.235	11.56
551.432	11.61
551.628	11.54
551.825	11.46
552.022	11.59
552.218	11.66
552.415	12.03
552.612	11.86
552.808	12.1
553.005	12.2
553.201	12.24
553.398	12.47
553.594	12.5
553.791	12.64
553.987	12.76
554.184	12.69
554.38	12.55
554.577	12.38
554.773	12.33
554.97	12.19
555.166	12.29
555.362	12.14
555.559	12.2
555.755	12.21
555.952	12.06
556.148	12.17
556.344	12.14
556.541	12.38
556.737	12.4
556.933	12.51
557.129	12.54
557.326	12.52
557.522	12.91
557.718	12.64
557.914	12.63
558.11	12.71
558.307	12.65
558.503	12.79
558.699	12.62
558.895	12.64
559.091	12.76
559.287	13.13
559.483	13.11
559.679	12.97
559.876	13.24
560.072	13.53
560.268	13.65
560.464	13.86
560.66	13.9
560.856	13.96
561.052	14.11
561.247	14.18
561.443	14.01
561.639	14.29
561.835	14.4
562.031	14.43
562.227	14.32
562.423	14.34
562.619	14.45
562.815	14.63
563.01	14.73
563.206	14.64
563.402	14.45
563.598	14.46
563.793	14.36
563.989	14.42
564.185	14.34
564.381	14.37
564.576	14.41
564.772	14.21
564.968	14.27
565.163	14.29
565.359	14.5
565.555	14.78
565.75	14.89
565.946	15.04
566.141	15.18
566.337	15.17
566.532	15.27
566.728	15.1
566.923	15.29
567.119	15.17
567.314	15.26
567.51	15.09
567.705	15.2
567.901	15.3
568.096	15.2
568.292	14.97
568.487	15.06
568.682	15.18
568.878	15.33
569.073	15.37
569.268	15.57
569.464	15.78
569.659	15.96
569.854	15.7
570.05	15.7
570.245	15.79
570.44	16.02
570.635	16.27
570.831	16.25
571.026	16.22
571.221	16.32
571.416	16.25
571.611	16.11
571.806	16.18
572.002	16.3
572.197	16.29
572.392	16.38
572.587	16.43
572.782	16.46
572.977	16.52
573.172	16.61
573.367	16.66
573.562	16.88
573.757	16.89
573.952	16.89
574.147	17.13
574.342	17.35
574.537	17.24
574.732	17.19
574.927	17.25
575.121	17.22
575.316	17.17
575.511	17.08
575.706	16.9
575.901	16.85
576.096	16.85
576.29	16.76
576.485	16.54
576.68	16.81
576.875	16.94
577.069	16.85
577.264	16.85
577.459	17.06
577.654	17.3
577.848	17.3
578.043	17.65
578.238	17.77
578.432	17.83
578.627	18
578.821	18.05
579.016	17.69
579.21	17.87
579.405	17.8
579.6	17.81
579.794	17.67
579.989	17.68
580.183	17.16
580.378	17.23
580.572	17.54
580.766	17.25
580.961	17
581.155	17.3
581.35	17.24
581.544	17.41
581.738	17.4
581.933	17.23
582.127	17.52
582.321	17.67
582.516	17.67
582.71	17.1
582.904	17.37
583.099	17.53
583.293	17.64
583.487	17.3
583.681	17.28
583.875	17.36
584.07	17.55
584.264	17.44
584.458	17.72
584.652	17.82
584.846	18.22
585.04	18.29
585.234	18.19
585.428	18.09
585.623	18.55
585.817	18.26
586.011	18.21
586.205	18.05
586.399	18.18
586.593	18.07
586.787	18.17
586.981	18.1
587.174	17.93
587.368	17.89
587.562	17.76
587.756	17.55
587.95	17.8
588.144	18.11
588.338	18.23
588.532	18.2
588.725	18.41
588.919	18.16
589.113	18.22
589.307	18.52
589.501	18.55
589.694	18.58
589.888	18.46
590.082	18.59
590.275	18.24
590.469	18.1
590.663	17.91
590.856	17.76
591.05	17.79
591.244	17.83
591.437	17.7
591.631	17.82
591.824	17.82
592.018	17.72
592.212	17.66
592.405	18.04
592.599	18.17
592.792	18.22
592.986	18.3
593.179	18.5
593.372	18.4
593.566	18.51
593.759	18.53
593.953	18.99
594.146	19.34
594.339	19.33
594.533	19.21
594.726	19.46
594.92	19.65
595.113	19.65
595.306	19.69
595.499	19.71
595.693	19.68
595.886	19.69
596.079	19.71
596.272	19.7
596.466	19.91
596.659	19.75
596.852	19.58
597.045	19.69
597.238	19.76
597.431	19.67
597.624	19.63
597.818	19.51
598.011	19.57
598.204	19.29
598.397	19.17
598.59	19.08
598.783	19.2
598.976	19.11
599.169	18.91
599.362	18.83
599.555	18.92
599.748	19.03
599.941	19.01
600.134	19.03
600.326	19.06
600.519	19.06
600.712	18.89
600.905	18.92
601.098	19.13
601.291	19.14
601.483	19.13
601.676	19.25
601.869	19.21
602.062	19.54
602.255	19.51
602.447	19.74
602.64	19.81
602.833	19.86
603.025	19.68
603.218	19.72
603.411	19.9
603.603	19.89
603.796	19.76
603.989	19.6
604.181	19.62
604.374	19.44
604.566	19.45
604.759	19.44
604.951	19.56
605.144	19.61
605.336	19.67
605.529	19.45
605.721	19.64
605.914	19.6
606.106	19.77
606.299	19.57
606.491	19.85
606.683	19.87
606.876	19.69
607.068	19.41
607.26	19.86
607.453	19.69
607.645	19.93
607.837	19.67
608.03	19.81
608.222	19.8
608.414	19.81
608.606	19.57
608.799	19.42
608.991	19.7
609.183	19.71
609.375	19.53
609.567	19.37
609.759	19.45
609.952	19.47
610.144	19.49
610.336	19.5
610.528	19.74
610.72	19.86
610.912	19.81
611.104	19.75
611.296	20.02
611.488	19.93
611.68	20.08
611.872	20.04
612.064	20.13
612.256	19.86
612.448	19.67
612.64	19.18
612.832	19.26
613.023	19.23
613.215	19.23
613.407	19.09
613.599	19.05
613.791	19.12
613.983	18.91
614.174	18.64
614.366	18.92
614.558	19.06
614.75	19.36
614.941	19.15
615.133	19.17
615.325	19.17
615.516	18.82
615.708	18.57
615.9	18.55
616.091	18.51
616.283	18.75
616.475	18.99
616.666	19
616.858	18.99
617.049	19.14
617.241	19.3
617.432	19.3
617.624	19.71
617.815	20.05
618.007	19.94
618.198	19.95
618.39	20.07
618.581	19.55
618.773	19.51
618.964	19.88
619.155	20.16
619.347	20.17
619.538	20.12
619.729	20.2
619.921	20.05
620.112	20.31
620.303	20.5
620.494	20.44
620.686	20.84
620.877	20.81
621.068	20.4
621.259	20.06
621.451	20.18
621.642	20.32
621.833	20.09
622.024	20.04
622.215	19.94
622.406	19.84
622.597	20.19
622.788	19.99
622.98	20.32
623.171	20.55
623.362	20.52
623.553	20.13
623.744	20.04
623.935	19.9
624.126	20.4
624.317	20.69
624.508	20.71
624.698	20.43
624.889	20.53
625.08	20.38
625.271	20.53
625.462	20.65
625.653	20.78
625.844	21.13
626.034	21.73
626.225	21.29
626.416	21.05
626.607	21.22
626.798	21.07
626.988	21.1
627.179	21.19
627.37	20.84
627.56	20.93
627.751	21.16
627.942	20.74
628.132	20.3
628.323	20.41
628.514	20.26
628.704	20.16
628.895	20.26
629.085	20.05
629.276	20.13
629.466	20.39
629.657	20.3
629.847	20.34
630.038	20.45
630.228	20.6
630.419	20.86
630.609	21.01
630.8	21.09
630.99	20.95
631.181	21.11
631.371	20.66
631.561	20.43
631.752	20.28
631.942	20.25
632.132	20.27
632.323	20.48
632.513	20.2
632.703	20.32
632.893	20
633.084	20.45
633.274	20.22
633.464	20.31
633.654	20.39
633.844	20.2
634.034	20.11
634.225	20.37
634.415	20.07
634.605	20.14
634.795	20.09
634.985	20.33
635.175	20.03
635.365	20.34
635.555	20.69
635.745	20.72
635.935	21
636.125	20.72
636.315	20.63
636.505	20.53
636.695	20.4
636.885	20.1
637.075	20.44
637.265	20.24
637.455	20.1
637.644	19.97
637.834	19.75
638.024	19.92
638.214	20.14
638.404	19.99
638.593	20.01
638.783	20.27
638.973	20.38
639.163	20.3
639.352	20.75
639.542	20.57
639.732	20.22
639.921	20.08
640.111	20.01
640.301	20.18
640.49	20.13
640.68	20.7
640.87	20.72
641.059	20.98
641.249	20.12
641.438	19.74
641.628	19.81
641.817	19.99
642.007	20.19
642.196	20.07
642.386	19.8
642.575	19.63
642.764	19.18
642.954	19
643.143	18.72
643.333	19.2
643.522	19.38
643.711	19.51
643.901	19.41
644.09	19.86
644.279	19.94
644.469	19.99
644.658	20.1
644.847	19.92
645.036	19.8
645.226	19.84
645.415	19.69
645.604	19.53
645.793	19.52
645.982	19.78
646.171	19.84
646.361	20.1
646.55	20.21
646.739	20.25
646.928	20.5
647.117	20.71
647.306	20.6
647.495	20.91
647.684	21.41
647.873	21.31
648.062	21.3
648.251	21.36
648.44	21.31
648.629	20.74
648.818	20.67
649.007	20.52
649.196	20.05
649.384	20.09
649.573	20.06
649.762	19.37
649.951	19.62
650.14	19.79
650.328	19.38
650.517	19.19
650.706	19.34
650.895	19.4
651.083	19.54
651.272	19.42
651.461	19.65
651.65	19.6
651.838	19.97
652.027	19.94
652.216	19.97
652.404	19.71
652.593	19.63
652.781	20.01
652.97	20.21
653.158	19.8
653.347	20.36
653.535	20.48
653.724	20.76
653.912	20.75
654.101	20.66
654.289	20.5
654.478	20.81
654.666	20.89
654.855	20.97
655.043	20.89
655.231	21.05
655.42	20.84
655.608	20.78
655.796	20.63
655.985	20.61
656.173	20.29
656.361	20.38
656.55	20.39
656.738	20.23
656.926	19.79
657.114	19.79
657.302	20.23
657.491	20.4
657.679	20.18
657.867	20.1
658.055	20.22
658.243	20.57
658.431	20.45
658.619	20.23
658.807	20.25
658.996	20.68
659.184	20.7
659.372	20.74
659.56	21.06
659.748	21.16
659.936	21.43
660.124	21.68
660.311	21.64
660.499	21.44
660.687	21.6
660.875	21.8
661.063	21.79
661.251	22.05
661.439	22.03
661.627	21.7
661.814	22.07
662.002	21.52
662.19	21.18
662.378	20.99
662.565	21.18
662.753	21.2
662.941	21.36
663.129	21.66
663.316	21.36
663.504	21.07
663.692	20.98
663.879	20.57
664.067	20.79
664.254	21.02
664.442	21.26
664.63	21.11
664.817	21.78
665.005	21.51
665.192	20.94
665.38	20.88
665.567	20.71
665.755	20.7
665.942	20.94
666.13	20.89
666.317	20.8
666.504	20.83
666.692	20.92
666.879	20.49
667.067	20.47
667.254	20.83
667.441	20.58
667.629	20.74
667.816	20.59
668.003	20.9
668.19	20.95
668.378	20.68
668.565	20.62
668.752	20.56
668.939	20.47
669.127	20.98
669.314	20.56
669.501	21.37
669.688	21.66
669.875	22.3
670.062	21.74
670.249	21.6
670.436	21.6
670.623	21.72
670.81	21.69
670.997	21.24
671.184	20.87
671.371	21.53
671.558	20.81
671.745	20.6
671.932	20.24
672.119	19.97
672.306	20.03
672.493	20.15
672.68	20.15
672.867	20.21
673.054	20.57
673.24	20.78
673.427	20.49
673.614	21.47
673.801	21.09
673.988	20.63
674.174	21.04
674.361	21.47
674.548	21.3
674.734	21.57
674.921	21.9
675.108	22.13
675.294	21.99
675.481	21.99
675.668	21.4
675.854	21.51
676.041	21.82
676.227	22.5
676.414	22.09
676.601	22.06
676.787	21.33
676.974	21.28
677.16	21.49
677.347	21.59
677.533	21.19
677.719	21.4
677.906	21.96
678.092	21.83
678.279	21.09
678.465	20.87
678.651	20.83
678.838	21.54
679.024	21.35
679.21	21.18
679.397	20.76
679.583	21.24
679.769	21.86
679.955	21.61
680.142	21.67
680.328	22.03
680.514	22.3
680.7	22.59
680.886	22.31
681.073	22.76
681.259	23.05
681.445	23.69
681.631	23.48
681.817	22.62
682.003	22.77
682.189	23.05
682.375	23.01
682.561	23.7
682.747	23.64
682.933	23.84
683.119	23.2
683.305	22.66
683.491	22.19
683.677	22.45
683.863	22.9
684.049	23.14
684.235	22.97
684.42	22.83
684.606	22.34
684.792	22.41
684.978	21.84
685.164	22.41
685.349	22.26
685.535	22.47
685.721	22.11
685.907	21.34
686.092	21.4
686.278	21.01
686.464	20.81
686.649	20.62
686.835	20.56
687.021	20.97
687.206	20.38
687.392	20.81
687.577	20.82
687.763	21.04
687.948	21.85
688.134	21.21
688.319	21.59
688.505	22.16
688.69	22.17
688.876	21.95
689.061	21.93
689.247	21.62
689.432	21.28
689.618	20.93
689.803	21.17
689.988	20.19
690.174	21.01
690.359	21.04
690.544	20.69
690.73	20.37
690.915	20.88
691.1	20.63
691.285	21.08
691.471	21.28
691.656	21.82
691.841	21.06
692.026	21.73
692.211	20.62
692.396	20.37
692.582	20.01
692.767	20.7
692.952	20.62
693.137	20.94
693.322	21.22
693.507	21.29
693.692	21.03
693.877	21.46
694.062	21.44
694.247	21.56
694.432	21.87
694.617	22.45
694.802	21.7
694.987	21.18
695.172	20.93
695.357	21.04
695.541	21.31
695.726	20.98
695.911	20.73
696.096	20.91
696.281	21.31
696.466	21.28
696.65	21.09
696.835	21.45
697.02	21.8
697.204	22.17
697.389	22.56
697.574	21.99
697.759	22.24
697.943	22.6
698.128	22.59
698.312	22.73
698.497	23.05
698.682	22.91
698.866	22.91
699.051	22.77
699.235	22.81
699.42	22.61
699.604	22.74
699.789	22.92
699.973	22.87
700.158	22.51
700.342	22.76
700.527	22.66
700.711	23.05
700.895	23.13
701.08	23.44
701.264	23.2
701.448	23.22
701.633	23.49
701.817	23.04
702.001	22.65
702.186	23.22
702.37	23.1
702.554	22.29
702.738	22.21
702.923	22.11
703.107	21.55
703.291	21.38
703.475	21.5
703.659	21.26
703.843	21.58
704.027	22.25
704.212	21.38
704.396	21.31
704.58	21.45
704.764	21.57
704.948	21.62
705.132	22.13
705.316	22.11
705.5	21.69
705.684	21.38
705.868	21.43
706.052	22.19
706.235	22.79
706.419	21.79
706.603	22.35
706.787	22.16
706.971	21.48
707.155	21.72
707.339	22.32
707.522	22.52
707.706	23.16
707.89	22.91
708.074	21.83
708.257	21.47
708.441	21.99
708.625	21.59
708.808	21.29
708.992	21.41
709.176	21.74
709.359	21.52
709.543	21.64
709.727	21.71
709.91	21.8
710.094	21.62
710.277	21.61
710.461	21.96
710.644	22.52
710.828	22.31
711.011	23.27
711.195	22.35
711.378	22.19
711.562	22.11
711.745	22.13
711.928	22.04
712.112	22.3
712.295	22.36
712.478	21.9
712.662	21.71
712.845	21.77
713.028	20.63
713.212	20.88
713.395	20.39
713.578	20.26
713.761	19.94
713.945	20.39
714.128	20.16
714.311	19.94
714.494	20.57
714.677	20.39
714.86	20.5
715.043	20.49
715.227	20.88
715.41	21.21
715.593	21.5
715.776	21.1
715.959	20.76
716.142	21.12
716.325	21.48
716.508	21.35
716.691	21.47
716.874	21.62
717.057	21.92
717.239	21.59
717.422	22.02
717.605	21.64
717.788	21.88
717.971	21.87
718.154	21.77
718.337	22
718.519	22.01
718.702	22.34
718.885	22.63
719.068	23.4
719.25	23.38
719.433	23.04
719.616	23.12
719.798	23.41
719.981	23.47
720.164	23.47
720.346	23.08
720.529	22.36
720.712	22.06
720.894	21.26
721.077	20.83
721.259	21.17
721.442	20.85
721.624	19.85
721.807	19.68
721.989	19.91
722.172	20.29
722.354	21.32
722.537	21.81
722.719	22.79
722.901	23.97
723.084	23.38
723.266	23
723.448	23.9
723.631	24.18
723.813	23.83
723.995	23.76
724.178	24.64
724.36	23.45
724.542	22.97
724.724	21.6
724.907	20.63
725.089	21.15
725.271	21.4
725.453	20.24
725.635	20.37
725.817	21.42
725.999	20.51
726.181	19.83
726.364	20.89
726.546	21.11
726.728	21.31
726.91	22.02
727.092	22.26
727.274	21.34
727.456	22.03
727.638	22.81
727.819	21.8
728.001	22.54
728.183	20.87
728.365	20.52
728.547	20.72
728.729	21.18
728.911	21.17
729.093	21.5
729.274	22.24
729.456	22.74
729.638	22.03
729.82	22.65
730.001	21.42
730.183	22.94
730.365	22.3
730.546	22.19
730.728	21.29
730.91	21.05
731.091	20.81
731.273	20.13
731.455	19.26
731.636	19.88
731.818	20.14
731.999	21.68
732.181	20.31
732.362	20.34
732.544	19.95
732.725	20.42
732.907	20.03
733.088	20.74
733.27	21.3
733.451	22.2
733.633	22.6
733.814	22.21
733.995	20.4
734.177	21.04
734.358	20.62
734.539	21.03
734.721	21.25
734.902	21.1
735.083	20.87
735.264	21.55
735.446	20.1
735.627	18.67
735.808	17.6
735.989	20.01
736.17	20.09
736.351	21.29
736.533	20.87
736.714	21.72
736.895	21.77
737.076	20.77
737.257	20.14
737.438	20.98
737.619	22.08
737.8	22.56
737.981	22.43
738.162	22.3
738.343	22.47
738.524	22.59
738.705	22.4
738.886	23.69
739.067	24.22
739.247	23.56
739.428	23.35
739.609	21.54
739.79	22.93
739.971	22.25
740.151	23.46
740.332	23.35
740.513	24.21
740.694	23.6
740.874	22.66
741.055	22.3
741.236	21.64
741.417	20.76
741.597	21.84
741.778	19.68
741.958	18.72
742.139	16.74
742.32	16.21
742.5	15.62
742.681	15.81
742.861	15.68
743.042	15.41
743.222	15.92
743.403	17.16
743.583	17.56
743.764	18.22
743.944	20.21
744.124	21.81
744.305	21.03
744.485	20.83
744.666	20.98
744.846	21.27
745.026	20.84
745.207	21.65
745.387	21.31
745.567	20.92
745.747	21.9
745.928	20.58
746.108	19.84
746.288	20.78
746.468	20.15
746.648	19.03
746.829	18.57
747.009	20.11
747.189	20.71
747.369	20.71
747.549	20.44
747.729	18.65
747.909	18.03
748.089	20.2
748.269	19.33
748.449	20.48
748.629	21.12
748.809	20.3
748.989	17.59
749.169	17.17
749.349	16.99
749.529	17.28
749.709	18.52
749.889	19.46
750.068	18.32
750.248	19.21
750.428	18.34
750.608	18.58
750.788	19.08
750.967	21.11
751.147	19.96
751.327	20.4
751.507	18.65
751.686	20.04
751.866	20.76
752.046	20.8
752.225	19.91
752.405	20.49
752.585	18.96
752.764	19.13
752.944	17.7
753.123	19.58
753.303	19.8
753.482	21.62
753.662	19.59
753.841	18.4
754.021	17.51
754.2	18.75
754.38	18.72
754.559	18.95
754.739	19.23
754.918	21.78
755.097	20.02
755.277	19.91
755.456	18.83
755.635	21.67
755.815	21.23
755.994	21.72
756.173	21.16
756.352	21.68
756.532	22.06
756.711	22.92
756.89	21.06
757.069	22.73
757.248	22.44
757.427	25.17
757.607	24.77
757.786	26.16
757.965	25.7
758.144	24.62
758.323	22.51
758.502	22.6
758.681	22.02
758.86	22.63
759.039	22.08
759.218	22.78
759.397	20.35
759.576	19.56
759.755	19.19
759.934	20.54
760.113	22.06
760.291	23.22
760.47	23.9
760.649	24.12
760.828	24.85
761.007	23.17
761.186	22.63
761.364	23.42
761.543	22.89
761.722	22.53
761.901	21.67
762.079	22.24
762.258	21.96
762.437	22.15
762.615	21.67
762.794	21.2
762.972	22.66
763.151	23.42
763.33	22.74
763.508	22.27
763.687	22.38
763.865	22.76
764.044	22
764.222	22.3
764.401	22.06
764.579	22.53
764.758	22.15
764.936	21.37
765.114	20.65
765.293	21.87
765.471	22.82
765.65	23.36
765.828	23.01
766.006	23.14
766.184	24.01
766.363	23.4
766.541	22.41
766.719	23.24
766.898	23.54
767.076	23.63
767.254	23.38
767.432	22.67
767.61	21.98
767.788	22.01
767.967	21.08
768.145	19.9
768.323	19.43
768.501	20.65
768.679	21.04
768.857	20.99
769.035	21.6
769.213	20.83
769.391	20.6
769.569	20.69
769.747	21.69
769.925	22.23
770.103	23.79
770.281	23.48
770.459	22.19
770.636	21.03
770.814	20.33
770.992	19.43
771.17	19.99
771.348	19.5
771.525	18.87
771.703	16.21
771.881	15.32
772.059	13.09
772.236	12.72
772.414	12.82
772.592	12.43
772.769	12.6
772.947	10.83
773.125	11.27
773.302	11.47
773.48	10.63
773.657	10.04
773.835	10.51
774.013	11.7
774.19	11.74
774.368	12.32
774.545	11.79
774.723	14.12
774.9	14.08
775.077	11.91
775.255	11.64
775.432	13.05
775.61	14.69
775.787	16.87
775.964	17
776.142	17.69
776.319	18.67
776.496	18.47
776.674	16.79
776.851	19.95
777.028	19.19
777.205	19.05
777.382	18.33
777.56	16.3
777.737	14.94
777.914	14.6
778.091	16.23
778.268	14.48
778.445	14.96
778.622	15.38
778.8	13.82
778.977	14.85
779.154	16.3
779.331	14.99
779.508	17.82
779.685	16.48
779.862	15.26
780.038	15.21
780.215	15.85
780.392	13.66
780.569	12.69
780.746	14.34
780.923	15.7
781.1	14.01
781.277	15.17
781.453	11.46
781.63	13.45
781.807	15.47
781.984	13.26
782.16	15.58
782.337	16.56
782.514	17.19
782.691	15.08
782.867	15.01
783.044	16.22
783.221	16.1
783.397	17.67
783.574	17.22
783.75	16.25
783.927	20.03
784.103	18.1
784.28	19.56
784.456	17.93
784.633	18.71
784.809	19.58
784.986	19.67
785.162	19.56
785.339	18.64
785.515	17.67
785.692	16.14
785.868	11.79
786.044	11.02
786.221	11.75
786.397	14.32
786.573	12.39
786.749	10.32
786.926	12.64
787.102	13.73
787.278	15.97
787.454	16.28
787.631	17.69
787.807	18.77
787.983	17.7
788.159	15.83
788.335	15.58
788.511	16.52
788.687	16.25
788.863	15.8
789.039	15.64
789.216	14.32
789.392	11.58
789.568	10.21
789.744	10.34
789.919	13.18
790.095	14.4
790.271	12.69
790.447	13.88
790.623	14.44
790.799	9.53
790.975	8.91
791.151	11.27
791.327	16.48
791.502	18.16
791.678	19.06
791.854	18.79
792.03	18.14
792.205	19.47
792.381	16.49
792.557	13.35
792.733	15.45
792.908	15.11
793.084	12.14
793.259	7.22
793.435	5.44
793.611	3.08
793.786	3.9
793.962	5.61
794.137	4.78
794.313	7.3
794.488	7.74
794.664	11.56
794.839	10.7
795.015	10.52
795.19	13.34
795.366	16.46
795.541	18.11
795.716	18.33
795.892	19.09
796.067	22.38
796.242	21.11
796.418	25.29
796.593	20.71
796.768	19.87
796.944	17.99
797.119	15.51
797.294	11.23
797.469	11.24
797.644	7.95
797.82	8.5
797.995	4.4
798.17	3.98
798.345	0.86
798.52	5.04
798.695	8.55
798.87	10.04
799.045	10.51
799.22	13.38
799.395	14.58
799.57	15.53
799.745	13.02
799.92	13.02
800.095	15.49
800.27	14.96
800.445	11.23
800.62	9.22
800.795	11.44
800.97	13.22
801.145	12.4
801.319	10.9
801.494	10.06
801.669	8.8
801.844	7.99
802.018	6.42
802.193	7.94
802.368	10.47
802.543	10.71
802.717	11.41
802.892	10.38
803.067	12.16
803.241	12.21
803.416	14.96
803.59	14.33
803.765	13.66
803.94	10.75
804.114	10.4
804.289	7.41
804.463	7.04
804.638	3.75
804.812	1.05
804.986	2.82
805.161	-1.03
805.335	0.17
805.51	0.95
805.684	0.14
805.858	3.86
806.033	5.28
806.207	4.79
806.381	5.89
806.556	9.1
806.73	13.85
806.904	11.15
807.078	16.92
807.253	14.43
807.427	12.78
807.601	16.72
807.775	18.45
807.949	16.86
808.123	21.61
808.298	21.36
808.472	19.02
808.646	15.89
808.82	14.76
808.994	12.8
809.168	14.8
809.342	21.61
809.516	22.39
809.69	19.27
809.864	18.12
810.038	16.65
810.212	18.93
810.385	16.52
810.559	18.7
810.733	24.43
810.907	23.4
811.081	21.14
811.255	15.45
811.428	13.47
811.602	13.98
811.776	14.77
811.95	14.1
812.123	10.67
812.297	13.73
812.471	11.69
812.644	9.34
812.818	4.15
812.992	1.1
813.165	2.64
813.339	1.93
813.512	1.59
813.686	5.64
813.86	3.38
814.033	5.28
814.207	3.51
814.38	3.9
814.554	-2.51
814.727	0.57
814.9	-1.4
815.074	1.34
815.247	-1.55
815.421	-0.93
815.594	-2.58
815.767	-0.78
815.941	0.4
816.114	4.04
816.287	2.35
816.46	4.86
816.634	4.52
816.807	7.84
816.98	8.71
817.153	5.05
817.327	4.01
817.5	6.2
817.673	7.63
817.846	3.92
818.019	7.21
818.192	12.71
818.365	11.56
818.538	14.72
818.711	16.39
818.884	17.11
819.057	20.96
819.23	22.41
819.403	21.3
819.576	20.72
819.749	19.39
819.922	15.62
820.095	12.66
820.268	11.92
820.441	12.65
820.614	12.63
820.786	13.35
820.959	17.37
821.132	18.29
821.305	18.8
821.477	19.76
821.65	21.91
821.823	23.27
821.996	24.53
822.168	26.45
822.341	25.61
822.514	26.47
822.686	25.85
822.859	25.16
823.031	25.89
823.204	25.65
823.376	25.06
823.549	24.24
823.722	23.64
823.894	24.37
824.067	23.58
824.239	24.69
824.411	23.46
824.584	23.3
824.756	23.97
824.929	23.53
825.101	23.31
825.273	23.49
825.446	24.32
825.618	25.25
825.79	24.18
825.963	22.99
826.135	22.13
826.307	23.25
826.479	23.14
826.652	21.93
826.824	21.47
826.996	21.57
827.168	22.58
827.34	23.41
827.512	21.55
827.684	21.29
827.856	21.24
828.029	19.71
828.201	19.36
828.373	20.71
828.545	20.62
828.717	19.26
828.889	18.81
829.061	18.71
829.232	16.24
829.404	18.87
829.576	17.29
829.748	16.98
829.92	19.29
830.092	17.03
830.264	14.51
830.436	12.57
830.607	13.69
830.779	15.64
830.951	14.56
831.123	12.69
831.294	13.26
831.466	11.46
831.638	11.43
831.809	5.41
831.981	5.23
832.153	-3.16
832.324	-4.88
832.496	-3.35
832.667	-6.67
832.839	-8.79
833.011	-5.49
833.182	-2.57
833.354	-0.53
833.525	3.5
833.697	5.69
833.868	6.45
834.039	15.62
834.211	17.91
834.382	17.93
834.554	17.82
834.725	19.68
834.896	19.1
835.068	14.07
835.239	13.12
835.41	11.89
835.581	13.67
835.753	13.16
835.924	10.07
836.095	10.65
836.266	6.41
836.438	8.79
836.609	5.1
836.78	6.62
836.951	8.25
837.122	4.66
837.293	5.17
837.464	0.92
837.635	1.88
837.806	5.01
837.977	-0.42
838.148	6.78
838.319	-4.22
838.49	-3.35
838.661	-2.02
838.832	-4.93
839.003	6.88
839.174	8.52
839.345	5.33
839.516	7.72
839.687	7.64
839.857	15.89
840.028	14.78
840.199	24.5
840.37	24.09
840.54	18.54
840.711	24.11
840.882	23.01
841.053	17.86
841.223	25.99
841.394	30.58
841.564	20.49
841.735	16.68
841.906	13.54
842.076	14.91
842.247	21.37
842.417	28.99
842.588	21.55
842.758	22.15
842.929	36.11
843.099	22.22
843.27	1.1
843.44	26.9
843.611	24.77
843.781	23.47
843.951	4.96
844.122	-1.48
844.292	-11.14
844.462	4.61
844.633	0.16
844.803	-21.91
844.973	-7.7
845.144	3.87
845.314	-8.99
845.484	-8.02
845.654	-6.45
845.824	4.26
845.995	-11.66
846.165	-10.98
846.335	-14.12
846.505	2.49
846.675	4.36
846.845	-1.26
847.015	-3.37
847.185	0.97
847.355	-7.21
847.525	-13.34
847.695	-13.56
847.865	8.07
848.035	-4.3
848.205	-10.76
848.375	-9.06
848.545	-7.35
848.715	-2.02
848.884	1.65
849.054	3.91
849.224	9.24
849.394	2.72
849.564	0.09
849.733	-27.26
849.903	-28.57
850.073	-37.02
850.243	-62.02
850.412	-60.7
850.582	-98.02
850.752	-167.48
850.921	-205.07
851.091	-332.58
851.26	-324.39
851.43	-314.66
851.599	-149.62
851.769	-166.44
851.939	-135.39
852.108	-112.23
852.278	-110.69
852.447	-77.27
852.616	-62.31
852.786	-58.76
852.955	-48.3
853.125	-34.41
853.294	-28.39
853.463	-57.02
853.633	-36.9
853.802	-37.44
853.971	-44.22
854.141	-54.76
854.31	-49.14
854.479	-66.67
854.648	-56.09
854.818	-67.09
854.987	-49.78
855.156	-51.41
855.325	-22.99
855.494	-55.19
855.663	-30.5
855.832	-29.75
856.001	-14.17
856.171	-12.8
856.34	-3.56
856.509	7.92
856.678	5.11
856.847	20.39
857.016	21.95
857.185	19.03
857.353	22.95
857.522	11.9
857.691	30.77
857.86	19.88
858.029	24.72
858.198	23.2
858.367	22.8
858.535	35.63
858.704	22.12
858.873	16.56
859.042	8.35
859.21	13.56
859.379	0.78
859.548	-43.41
859.717	-47.67
859.885	-69.19
860.054	-52.54
860.222	-36.12
860.391	-39.53
860.56	-13.78
860.728	-22.14
860.897	-17.67
861.065	-17.93
861.234	-23.88
861.402	-14.85
861.571	-20.25
861.739	-25.46
861.908	-21.34
862.076	-21.83
862.244	-8.96
862.413	-17.28
862.581	-28.42
862.749	-31.2
862.918	-27.97
863.086	-28.14
863.254	-30.51
863.423	-40.45
863.591	-33.29
863.759	-64.16
863.927	-84.58
864.096	-107.69
864.264	-108.56
864.432	-53.09
864.6	-75.32
864.768	-73.18
864.936	-38.17
865.104	-23.89
865.272	-20.4
865.44	-55.6
865.608	-26.98
865.776	-16.84
865.944	-21.97
866.112	-17.53
866.28	-30.97
866.448	-10.23
866.616	-13.28
866.784	-19.61
866.952	-22.79
867.12	-12.73
867.288	15.06
867.455	4.45
867.623	-9.26
867.791	-12.46
867.959	-26.87
868.127	-50.43
868.294	-59.19
868.462	-63.6
868.63	-105.04
868.797	-102.38
868.965	-136.21
869.133	-173
869.3	-175.85
869.468	-146.03
869.636	-117.57
869.803	-122.99
869.971	-109.97
870.138	-86.11
870.306	-123.31
870.473	-128.93
870.641	-118.33
870.808	-93.6
870.975	-131.35
871.143	-85.81
871.31	-81.73
871.478	-76.32
871.645	-57.01
871.812	-44.45
871.98	-69.67
872.147	-59.93
872.314	-36.47
872.482	-34.87
872.649	-67.4
872.816	-43.32
872.983	-99.18
873.15	-86.02
873.318	-169.01
873.485	-198.86
873.652	-124.99
873.819	-132.2
873.986	-126.43
874.153	-110.29
874.32	-64.38
874.487	-62.49
874.654	-86.68
874.821	-67.67
874.988	-72.94
875.155	-45.49
875.322	-54.21
875.489	-60.34
875.656	-39.62
875.823	-37.65
875.99	-56.73
876.157	-147.79
876.324	-164.51
876.49	-152.79
876.657	-206.71
876.824	-212.36
876.991	-237.35
877.157	-239.39
877.324	-234.9
877.491	-184.66
877.658	-220.98
877.824	-166.45
877.991	-132.74
878.157	-72.06
878.324	-107.66
878.491	-56.73
878.657	-35.61
878.824	-86.52
878.99	-38.1
879.157	-28.7
879.323	-63.46
879.49	-60.21
879.656	-112.2
879.823	-85.51
879.989	-79.26
880.156	-50.84
880.322	-38.63
880.488	-35.83
880.655	-28.35
880.821	-40.36
880.987	-36.52
881.154	-36.56
881.32	-22.71
881.486	3.79
881.652	8.45
881.819	14.02
881.985	10.77
882.151	5.92
882.317	4.28
882.483	15.35
882.649	14.87
882.816	19.07
882.982	21.44
883.148	21.26
883.314	18.43
883.48	19.67
883.646	15.14
883.812	16.33
883.978	18.25
884.144	16.72
884.31	14.98
884.476	15.53
884.642	11.09
884.807	14.9
884.973	16.11
885.139	16.42
885.305	13.44
885.471	17.11
885.637	21.2
885.802	21.28
885.968	23.75
886.134	22.28
886.3	19.49
886.465	20.17
886.631	10.02
886.797	5.36
886.962	0
887.128	-2.07
887.293	-8.58
887.459	-19.82
887.625	-24.82
887.79	-32.83
887.956	-59.99
888.121	-53.31
888.287	-59.58
888.452	-63.54
888.618	-63.88
888.783	-80.91
