Data from 2938059_Reflection_1.txt Node
Date: Sun Jul 12 13:54:26 EDT 2015
User: robert
Spectrometer: USB4E03001
Autoset integration time: false
Trigger mode: 4
Integration Time (sec): 1.000000E-1
Scans to average: 10
Electric dark correction enabled: true
Nonlinearity correction enabled: false
Boxcar width: 5
Stray light correction enabled: false
XAxis mode: Wavelengths
Stop averaging: false
Number of Pixels in Spectrum: 3648
>>>>>Begin Spectral Data<<<<<
177.566	290.64
177.785	220.5
178.005	327.04
178.225	126.98
178.445	93.79
178.665	156.25
178.885	-807.44
179.105	74.76
179.324	133
179.544	100.42
179.764	2477.78
179.984	1326.88
180.204	219.92
180.423	319.77
180.643	215.56
180.863	261.79
181.083	-1171.5
181.302	-91.03
181.522	-36.38
181.742	-65.04
181.961	-8.54
182.181	-46.9
182.401	-66.98
182.621	-238.03
182.84	-197.82
183.06	-81.98
183.279	-81.3
183.499	-193.24
183.719	-101.82
183.938	-57.63
184.158	-61.74
184.377	-112.48
184.597	-319.6
184.816	-207.55
185.036	-54.89
185.256	-31.66
185.475	-87.21
185.695	-77.1
185.914	-58.71
186.134	-132.65
186.353	-114.68
186.572	-71.41
186.792	-65.32
187.011	-35.17
187.231	-32.17
187.45	-52.94
187.67	-34.82
187.889	14.91
188.108	-25.86
188.328	-16.86
188.547	-22.6
188.766	-69.09
188.986	-91.62
189.205	-76.65
189.424	-53.07
189.644	-75.24
189.863	-40.58
190.082	-49.28
190.302	-100.62
190.521	-48.21
190.74	-42.8
190.959	-82.2
191.178	-34.52
191.398	-24.13
191.617	-35.4
191.836	-36.46
192.055	-1566.67
192.274	64.04
192.494	7.11
192.713	24.78
192.932	134.47
193.151	209.36
193.37	-136.12
193.589	-1612.69
193.808	748.61
194.027	973.31
194.246	1273.33
194.465	-5049.31
194.685	-641.53
194.904	-374.9
195.123	-207.93
195.342	-226.3
195.561	-242.03
195.78	-205.59
195.999	-249.52
196.218	-193.38
196.436	-163.76
196.655	-65.75
196.874	-13.18
197.093	-88.75
197.312	-269.59
197.531	-376.29
197.75	-329.78
197.969	1887.66
198.188	-389.69
198.407	-72.1
198.625	-15.27
198.844	-21.16
199.063	-43.57
199.282	-61.86
199.501	-48.41
199.719	0.27
199.938	-3.35
200.157	-32.53
200.376	-18.93
200.594	-73.04
200.813	-53.61
201.032	-114.59
201.251	-164.65
201.469	-189.22
201.688	-181.35
201.907	-138.32
202.125	-278.76
202.344	-273.34
202.563	-88.74
202.781	-142.38
203	-150.39
203.218	-475.22
203.437	-2990.23
203.656	-205.86
203.874	-87.25
204.093	-108.16
204.311	-164.5
204.53	-112.11
204.748	-144.18
204.967	-515.96
205.185	-185.71
205.404	-163.91
205.622	-142.3
205.841	-136.88
206.059	-440.47
206.278	-793.25
206.496	-5708.82
206.715	1458.52
206.933	1547.43
207.151	-714.06
207.37	-675.8
207.588	-1145.33
207.806	-517.86
208.025	-439.45
208.243	-1190.85
208.461	-448.95
208.68	1632.74
208.898	-302.41
209.116	-136.36
209.335	-197.7
209.553	-34795.45
209.771	-2472.73
209.989	-275.21
210.208	-314.52
210.426	-99.29
210.644	-93.3
210.862	-99.79
211.081	-50.38
211.299	-65.15
211.517	-83.26
211.735	-120.95
211.953	-70.97
212.171	-89.66
212.39	-151.2
212.608	-237.71
212.826	-935.96
213.044	-242.66
213.262	-100.84
213.48	-95.95
213.698	-129.04
213.916	-141.04
214.134	-29.6
214.352	-64.33
214.57	-44.85
214.788	-94.86
215.006	-21.58
215.224	-98.67
215.442	-713.04
215.66	1119.71
215.878	611.09
216.096	1341.28
216.314	2698.85
216.532	-819.04
216.75	-2418.84
216.968	-7581.15
217.185	-481.66
217.403	-3323.58
217.621	-487.33
217.839	-331.76
218.057	-407.89
218.275	-447.85
218.492	-430.3
218.71	-269.57
218.928	-765.91
219.146	-754.53
219.363	-401.05
219.581	-356.28
219.799	-197.84
220.017	-289.28
220.234	-230.71
220.452	-318.73
220.67	-267.84
220.887	-252.7
221.105	-294.04
221.323	-149.44
221.54	-119.13
221.758	-97.36
221.976	-142.52
222.193	-206.21
222.411	-136.69
222.629	-105.53
222.846	-100.9
223.064	-150.69
223.281	-147.14
223.499	-130.91
223.716	-161.34
223.934	-112.42
224.151	-115.66
224.369	-85.78
224.586	-60.42
224.804	-63.87
225.021	-81.46
225.239	-35.81
225.456	-17.18
225.674	-19.48
225.891	-22.15
226.108	-25.29
226.326	-25.88
226.543	-29.04
226.76	-18.71
226.978	-33.41
227.195	-27.51
227.413	-21.27
227.63	-26.69
227.847	-23.39
228.064	-12.43
228.282	-10.96
228.499	-9.36
228.716	-6.05
228.934	-1.19
229.151	0.67
229.368	5.25
229.585	4.14
229.802	4.6
230.02	3.11
230.237	2.28
230.454	-1.59
230.671	-1.83
230.888	-0.94
231.105	-6.03
231.323	-9.63
231.54	-12.38
231.757	-15.85
231.974	-12.53
232.191	-14.87
232.408	-10.83
232.625	-13.97
232.842	-10.63
233.059	-13.55
233.276	-16.99
233.493	-12.09
233.71	-17.17
233.927	-18.38
234.144	-20.24
234.361	-25.28
234.578	-27.32
234.795	-25.69
235.012	-19.09
235.229	-17.86
235.446	-13.53
235.663	-9.19
235.879	-13.74
236.096	-12.23
236.313	-7.58
236.53	-9.58
236.747	-6.25
236.964	-7.73
237.181	-5.11
237.397	-3.48
237.614	-7.21
237.831	-12.29
238.048	-9.85
238.264	-10.37
238.481	-6.69
238.698	-8.49
238.915	-7.78
239.131	-10.77
239.348	-8.28
239.565	-9.39
239.781	-6.75
239.998	-6.36
240.215	-2.29
240.431	-5.48
240.648	0
240.865	1.04
241.081	1.42
241.298	4.89
241.514	4.22
241.731	6.16
241.947	6.82
242.164	5.36
242.38	4.95
242.597	5.94
242.814	7.26
243.03	5.57
243.246	4.12
243.463	2.67
243.679	1.2
243.896	1.42
244.112	2.88
244.329	1.75
244.545	2.38
244.762	4.1
244.978	2.32
245.194	2.04
245.411	4.73
245.627	5.24
245.843	7.16
246.06	6.54
246.276	7.79
246.492	7.65
246.709	8.14
246.925	8.21
247.141	7.65
247.357	7.88
247.574	7.54
247.79	6.72
248.006	6.42
248.222	7.54
248.439	7.34
248.655	6.9
248.871	5.99
249.087	6.4
249.303	6.33
249.519	5.81
249.736	6.87
249.952	8.61
250.168	8.9
250.384	9.85
250.6	6.15
250.816	7.69
251.032	6.33
251.248	7.48
251.464	6.64
251.68	6.69
251.896	6.86
252.112	7.7
252.328	4.69
252.544	4.15
252.76	1.95
252.976	1.49
253.192	2.16
253.408	3.58
253.624	2.5
253.84	0.79
254.056	1.48
254.272	1.82
254.487	-1.11
254.703	-0.19
254.919	0.19
255.135	4.14
255.351	6.77
255.567	2.22
255.782	0.34
255.998	-1.27
256.214	-3.01
256.43	-4.02
256.646	-1.25
256.861	-1.75
257.077	-1.52
257.293	-1.03
257.508	-0.91
257.724	-2.85
257.94	0.54
258.155	2.97
258.371	3.56
258.587	5.68
258.802	4.98
259.018	4.91
259.234	5.14
259.449	5.58
259.665	6.58
259.88	5.57
260.096	6.89
260.312	6.8
260.527	6.4
260.743	6.81
260.958	6.75
261.174	6.8
261.389	5.59
261.605	5.67
261.82	5.74
262.036	4.38
262.251	5.15
262.466	3.37
262.682	3.04
262.897	2.91
263.113	3
263.328	2.05
263.543	4.14
263.759	4.58
263.974	3.12
264.189	1.61
264.405	2.29
264.62	3.79
264.835	6.35
265.051	6.02
265.266	5.47
265.481	4.73
265.696	6.51
265.912	5.06
266.127	5.8
266.342	5.8
266.557	6.27
266.773	7.22
266.988	4.74
267.203	2.14
267.418	2.1
267.633	2.32
267.848	3.27
268.064	2.59
268.279	2.47
268.494	2.41
268.709	2.46
268.924	3.75
269.139	2.38
269.354	3.54
269.569	4.61
269.784	4.31
269.999	4.03
270.214	3.02
270.429	3.6
270.644	2.9
270.859	3.01
271.074	2.68
271.289	1.59
271.504	2.91
271.719	3.24
271.934	4.06
272.149	3.85
272.363	3.06
272.578	3.04
272.793	2.24
273.008	3.37
273.223	3.82
273.438	4.19
273.653	4.51
273.867	4.41
274.082	4.17
274.297	3.76
274.512	5.2
274.726	5.46
274.941	5.34
275.156	5.57
275.371	4.28
275.585	5.28
275.8	5.85
276.015	5.66
276.229	4.97
276.444	4.99
276.659	4.73
276.873	3.45
277.088	3.21
277.302	3.75
277.517	4.29
277.732	4.83
277.946	3.84
278.161	2.86
278.375	2.94
278.59	1.49
278.804	1.31
279.019	1.99
279.233	2.63
279.448	3.32
279.662	2.4
279.877	2.94
280.091	2.53
280.306	3.07
280.52	2.79
280.735	4.06
280.949	4.84
281.163	4.9
281.378	5.17
281.592	5.69
281.806	6.5
282.021	7.26
282.235	6.01
282.449	7.65
282.664	7.22
282.878	7.52
283.092	6.55
283.307	6.72
283.521	6.49
283.735	6.64
283.949	4.84
284.164	4.82
284.378	4.49
284.592	5.29
284.806	4.97
285.02	4.64
285.234	4.83
285.449	5.05
285.663	5.05
285.877	4.78
286.091	4.74
286.305	5.04
286.519	5.1
286.733	4.6
286.947	4.76
287.161	3.5
287.375	3.87
287.589	4.02
287.803	3.3
288.017	4.22
288.231	4.77
288.445	2.42
288.659	2.55
288.873	2.26
289.087	3.34
289.301	2.21
289.515	2.09
289.729	2.06
289.943	2.01
290.157	1.78
290.371	1.94
290.584	2.54
290.798	4.83
291.012	4.89
291.226	5.01
291.44	4.86
291.654	5.74
291.867	6.3
292.081	5.25
292.295	5.27
292.509	6.05
292.722	4.91
292.936	4.58
293.15	3.71
293.364	5.41
293.577	4.79
293.791	5.38
294.005	5.08
294.218	6.1
294.432	6.48
294.645	6.36
294.859	6.06
295.073	6.35
295.286	6.05
295.5	7.14
295.713	6.29
295.927	7.08
296.14	6.42
296.354	5.36
296.568	4.98
296.781	5.3
296.994	5.37
297.208	6.06
297.421	5.88
297.635	6.28
297.848	6.14
298.062	6.61
298.275	6.73
298.489	6.85
298.702	8.68
298.915	8.06
299.129	7.86
299.342	7.85
299.555	7.51
299.769	7.38
299.982	7.5
300.195	6.29
300.409	5.31
300.622	4.37
300.835	3.67
301.048	2.63
301.262	3.84
301.475	4.88
301.688	5.33
301.901	5.06
302.115	6.03
302.328	6.14
302.541	5.35
302.754	6.63
302.967	6.88
303.18	6.39
303.393	6.21
303.607	5.39
303.82	5.1
304.033	5.66
304.246	4.47
304.459	4.23
304.672	4.5
304.885	6.53
305.098	6.42
305.311	5.3
305.524	6.58
305.737	6.85
305.95	6.87
306.163	7.67
306.376	6.65
306.589	8.9
306.802	7.74
307.015	6.19
307.228	5.22
307.44	3.65
307.653	5.18
307.866	4.03
308.079	3.46
308.292	3.71
308.505	2.42
308.718	3.14
308.93	1.62
309.143	2.23
309.356	4.55
309.569	5.77
309.781	6.62
309.994	6.94
310.207	7.12
310.42	8.02
310.632	8.62
310.845	8.55
311.058	8.51
311.27	9.68
311.483	10.69
311.696	9.13
311.908	8.67
312.121	8.46
312.333	7.48
312.546	7.84
312.759	7.42
312.971	6.51
313.184	6.89
313.396	6.3
313.609	6.24
313.821	5.78
314.034	5.59
314.246	4.54
314.459	5.34
314.671	5.3
314.884	4.8
315.096	4.8
315.309	5.07
315.521	4.12
315.733	5.62
315.946	5.14
316.158	3.48
316.371	4.63
316.583	5.16
316.795	3.88
317.008	3.11
317.22	3.73
317.432	2.69
317.644	3.4
317.857	4.15
318.069	4.04
318.281	3.01
318.494	3.87
318.706	2.91
318.918	3.21
319.13	4.09
319.342	7.04
319.555	6.86
319.767	7.67
319.979	7.07
320.191	7.55
320.403	6.55
320.615	7.2
320.827	8.18
321.039	8.07
321.252	7.31
321.464	7.05
321.676	5.14
321.888	5.52
322.1	5.95
322.312	6.25
322.524	5.75
322.736	6.44
322.948	6.81
323.16	5.92
323.372	6.41
323.584	7.01
323.796	7.31
324.007	7.14
324.219	6.99
324.431	6.31
324.643	6.39
324.855	6.27
325.067	7.29
325.279	7.07
325.491	7.06
325.702	7.3
325.914	7.28
326.126	6.26
326.338	6.54
326.55	6.71
326.761	7.11
326.973	7.55
327.185	7.14
327.396	4.73
327.608	4.79
327.82	5.7
328.032	5.38
328.243	4.98
328.455	5.39
328.666	4.58
328.878	4.78
329.09	4.68
329.301	4.36
329.513	6.26
329.725	6.82
329.936	5.79
330.148	4.55
330.359	5.26
330.571	4.65
330.782	4.49
330.994	6.45
331.205	6.68
331.417	6.93
331.628	7
331.84	5.47
332.051	4.04
332.262	5.18
332.474	5.31
332.685	6.56
332.897	7.46
333.108	6.02
333.319	5.33
333.531	5.65
333.742	5.83
333.953	5.97
334.165	6.79
334.376	9.04
334.587	8.99
334.799	9.55
335.01	8.59
335.221	7
335.432	9.3
335.644	9.36
335.855	8.71
336.066	9.08
336.277	8.9
336.488	8.89
336.7	7.79
336.911	7.39
337.122	7.84
337.333	7.44
337.544	9.23
337.755	8.93
337.966	9.63
338.177	9.7
338.388	9.12
338.599	8.61
338.811	7.78
339.022	8.03
339.233	9
339.444	8.89
339.655	9.1
339.866	8.68
340.076	7.72
340.287	7.3
340.498	6.9
340.709	6.34
340.92	6.48
341.131	6.56
341.342	6.83
341.553	5.99
341.764	4.82
341.975	4.16
342.185	3.43
342.396	4.15
342.607	3.41
342.818	4.59
343.029	5.44
343.239	4.67
343.45	5.27
343.661	5.38
343.872	4.65
344.082	4.35
344.293	4.32
344.504	5.18
344.714	4.56
344.925	4.82
345.136	3.67
345.346	3.93
345.557	4.54
345.768	4.05
345.978	3.33
346.189	3.59
346.399	3.32
346.61	3.61
346.821	2.95
347.031	3.55
347.242	3.09
347.452	3.12
347.663	2.61
347.873	3.09
348.084	3.18
348.294	4.19
348.504	5.48
348.715	6.66
348.925	6.42
349.136	6.75
349.346	6.05
349.557	5.84
349.767	5.83
349.977	6.05
350.188	4.3
350.398	5.46
350.608	5.14
350.819	4.55
351.029	4.68
351.239	4.91
351.449	4.41
351.66	5.15
351.87	5.4
352.08	6.25
352.29	5.79
352.501	7.62
352.711	7.27
352.921	6.56
353.131	6.12
353.341	5.85
353.552	6.48
353.762	6.39
353.972	6.55
354.182	7.24
354.392	7.12
354.602	7.13
354.812	6.75
355.022	5.47
355.232	5.42
355.442	5.98
355.652	5.6
355.862	6
356.072	6.28
356.282	5.85
356.492	5.23
356.702	5.1
356.912	4.64
357.122	4.04
357.332	4.05
357.542	4.48
357.752	4.3
357.962	4.4
358.171	3.61
358.381	4.6
358.591	4.41
358.801	4.35
359.011	4.44
359.221	4.73
359.43	5.46
359.64	6.37
359.85	7.14
360.06	7.13
360.269	7.1
360.479	7.54
360.689	6.25
360.899	6.4
361.108	6.69
361.318	6.2
361.528	6.55
361.737	6.81
361.947	6.56
362.156	6.25
362.366	5.91
362.576	6.37
362.785	6.04
362.995	6.44
363.204	6.09
363.414	5.93
363.623	6.43
363.833	6.06
364.042	5.55
364.252	5.28
364.461	4.41
364.671	5.15
364.88	4.29
365.09	4.44
365.299	4.3
365.509	5.46
365.718	5.42
365.927	5.94
366.137	6.21
366.346	6.11
366.555	6.22
366.765	7.02
366.974	6.99
367.183	6.61
367.393	6.07
367.602	7.02
367.811	5.37
368.021	5.02
368.23	4.23
368.439	3.45
368.648	3.39
368.857	3.48
369.067	3.46
369.276	3.33
369.485	3.65
369.694	3.57
369.903	2.43
370.112	4.09
370.321	4.24
370.531	3.63
370.74	3.6
370.949	3.66
371.158	3.77
371.367	4.1
371.576	3.8
371.785	4.48
371.994	4.72
372.203	4.58
372.412	3.97
372.621	4.32
372.83	5.25
373.039	6.1
373.248	6.36
373.457	5.98
373.666	5.66
373.874	5.27
374.083	5.5
374.292	5.44
374.501	6.32
374.71	5.94
374.919	5.8
375.128	5.18
375.336	4.34
375.545	4.16
375.754	4.44
375.963	4.04
376.171	4.52
376.38	3.79
376.589	3.57
376.798	3.27
377.006	3.72
377.215	3.87
377.424	3.87
377.632	4.09
377.841	3.69
378.05	3.26
378.258	3.11
378.467	2.73
378.675	2.84
378.884	2.88
379.093	2.96
379.301	2.87
379.51	2.9
379.718	3.14
379.927	3.29
380.135	3.73
380.344	4.14
380.552	4.55
380.761	5.01
380.969	5.16
381.177	5.91
381.386	6.07
381.594	6.11
381.803	5.77
382.011	5.91
382.219	6.27
382.428	5.98
382.636	6.13
382.845	6.34
383.053	5.8
383.261	5.64
383.469	5.22
383.678	4.78
383.886	4.84
384.094	4.97
384.302	4.82
384.511	4.83
384.719	4.91
384.927	4.72
385.135	4.5
385.343	4.6
385.552	4.76
385.76	4.59
385.968	4.55
386.176	4.23
386.384	4.36
386.592	4.41
386.8	3.72
387.008	3.55
387.216	3.34
387.424	2.65
387.633	2.77
387.841	2.36
388.049	2.41
388.257	2.5
388.465	2.46
388.672	2.4
388.88	1.99
389.088	2.74
389.296	2.89
389.504	2.99
389.712	3.82
389.92	4.06
390.128	4.34
390.336	4.3
390.544	4.4
390.751	4.67
390.959	4.78
391.167	5.33
391.375	5.34
391.583	5.21
391.79	5.58
391.998	5.5
392.206	5.42
392.414	5.73
392.621	5.69
392.829	5.49
393.037	5.22
393.244	5.11
393.452	4.47
393.66	4.15
393.867	4.3
394.075	3.75
394.283	3.35
394.49	3.2
394.698	2.67
394.905	2.39
395.113	2.1
395.32	2.26
395.528	2.24
395.735	2.54
395.943	2.77
396.15	2.95
396.358	3.33
396.565	3.31
396.773	2.92
396.98	3.18
397.188	3.28
397.395	3.39
397.602	3.34
397.81	3.38
398.017	3.39
398.225	3.73
398.432	3.53
398.639	3.07
398.847	3.48
399.054	3.88
399.261	3.88
399.468	3.97
399.676	4.2
399.883	3.75
400.09	3.34
400.297	3.1
400.505	3.04
400.712	2.74
400.919	2.67
401.126	2.61
401.333	2.72
401.54	2.71
401.748	2.8
401.955	2.77
402.162	2.91
402.369	2.97
402.576	3.11
402.783	2.54
402.99	2.28
403.197	2.16
403.404	1.99
403.611	1.72
403.818	1.78
404.025	1.79
404.232	1.87
404.439	2.19
404.646	2.46
404.853	2.51
405.06	2.77
405.267	3.28
405.474	3.59
405.681	3.63
405.887	3.63
406.094	3.48
406.301	3.4
406.508	3.04
406.715	2.97
406.922	2.97
407.128	3.16
407.335	3.12
407.542	3.28
407.749	3.19
407.955	3.28
408.162	3.33
408.369	3.47
408.575	3.24
408.782	3.36
408.989	3.26
409.195	3.06
409.402	2.79
409.609	2.47
409.815	2.18
410.022	2.47
410.228	2.16
410.435	2.34
410.642	2.56
410.848	2.95
411.055	3.07
411.261	3.06
411.468	3.06
411.674	3.13
411.881	3.28
412.087	3.72
412.294	3.46
412.5	3.81
412.706	3.65
412.913	3.34
413.119	3.06
413.326	3.1
413.532	2.98
413.738	2.97
413.945	3.19
414.151	3.06
414.357	2.67
414.564	2.69
414.77	2.57
414.976	2.58
415.182	2.55
415.389	2.68
415.595	2.42
415.801	2.67
416.007	2.65
416.214	2.43
416.42	2.81
416.626	2.76
416.832	2.89
417.038	2.88
417.244	2.98
417.45	2.85
417.657	2.92
417.863	3.09
418.069	3
418.275	2.78
418.481	2.94
418.687	2.81
418.893	2.95
419.099	2.95
419.305	2.88
419.511	2.87
419.717	2.91
419.923	2.75
420.129	2.86
420.335	2.84
420.541	3.19
420.746	3.03
420.952	3.07
421.158	2.95
421.364	2.86
421.57	2.92
421.776	2.82
421.982	2.85
422.187	2.96
422.393	2.93
422.599	2.95
422.805	2.8
423.01	2.87
423.216	2.86
423.422	2.82
423.628	2.91
423.833	3.04
424.039	3.04
424.245	3.03
424.45	3.04
424.656	2.94
424.862	3
425.067	3.12
425.273	3.13
425.478	3.05
425.684	3.12
425.889	3.2
426.095	3.18
426.301	3.32
426.506	3.34
426.712	3.47
426.917	3.47
427.123	3.58
427.328	3.38
427.533	3.32
427.739	3.22
427.944	3.26
428.15	3.2
428.355	2.89
428.561	2.58
428.766	2.61
428.971	2.37
429.177	2.29
429.382	1.97
429.587	1.88
429.793	1.87
429.998	1.89
430.203	1.82
430.408	1.39
430.614	1.69
430.819	1.85
431.024	1.68
431.229	1.91
431.434	1.9
431.64	1.94
431.845	2.05
432.05	2.27
432.255	2.1
432.46	2.13
432.665	2.51
432.87	2.38
433.076	2.45
433.281	2.62
433.486	2.35
433.691	2.49
433.896	2.64
434.101	2.64
434.306	2.32
434.511	2.48
434.716	2.53
434.921	2.37
435.126	2.35
435.331	2.31
435.535	2.23
435.74	2.46
435.945	2.48
436.15	2.31
436.355	2.22
436.56	2.35
436.765	2.14
436.97	1.95
437.174	2.13
437.379	2.33
437.584	2.37
437.789	2.23
437.993	2.07
438.198	1.92
438.403	1.99
438.608	2.23
438.812	2.32
439.017	2.55
439.222	2.73
439.426	2.57
439.631	2.45
439.836	2.37
440.04	2.62
440.245	2.74
440.45	2.79
440.654	2.76
440.859	2.67
441.063	2.57
441.268	2.6
441.472	2.63
441.677	2.69
441.881	2.62
442.086	2.55
442.29	2.4
442.495	2.2
442.699	2.13
442.904	2.05
443.108	1.99
443.312	2.11
443.517	2
443.721	1.99
443.925	1.86
444.13	2.02
444.334	2.13
444.538	2.22
444.743	2.25
444.947	2.39
445.151	2.44
445.356	2.54
445.56	2.45
445.764	2.64
445.968	2.63
446.173	2.7
446.377	2.63
446.581	2.72
446.785	2.82
446.989	2.98
447.193	2.97
447.398	3.05
447.602	2.9
447.806	2.91
448.01	2.7
448.214	2.65
448.418	2.56
448.622	2.53
448.826	2.51
449.03	2.37
449.234	2.21
449.438	2.18
449.642	2.08
449.846	2.27
450.05	2.27
450.254	2.35
450.458	2.43
450.662	2.53
450.866	2.75
451.069	2.44
451.273	2.48
451.477	2.35
451.681	2.34
451.885	2.22
452.089	2.04
452.292	2.03
452.496	1.9
452.7	1.95
452.904	2.09
453.107	1.96
453.311	2.1
453.515	2.05
453.719	2.09
453.922	2.11
454.126	2.1
454.33	2.12
454.533	2.2
454.737	2.45
454.94	2.41
455.144	2.21
455.348	1.99
455.551	1.97
455.755	2.05
455.958	2.02
456.162	1.96
456.365	2.19
456.569	2.04
456.772	1.99
456.976	1.95
457.179	1.82
457.383	1.91
457.586	1.95
457.79	2.08
457.993	2.01
458.196	2.13
458.4	2.13
458.603	2.05
458.807	2.2
459.01	2.16
459.213	2.18
459.417	2.08
459.62	2.06
459.823	2.13
460.026	2.1
460.23	2.27
460.433	2.37
460.636	2.37
460.839	2.36
461.042	2.29
461.246	2.31
461.449	2.24
461.652	2.31
461.855	2.34
462.058	2.3
462.261	2.22
462.464	1.94
462.668	1.71
462.871	1.9
463.074	1.84
463.277	1.98
463.48	1.99
463.683	1.95
463.886	1.88
464.089	1.79
464.292	1.82
464.495	2.11
464.698	1.91
464.901	2.05
465.104	1.91
465.306	2
465.509	1.92
465.712	1.96
465.915	2.15
466.118	2.18
466.321	2.4
466.524	2.42
466.726	2.1
466.929	2.2
467.132	2.13
467.335	2.1
467.538	2.03
467.74	2.1
467.943	2.02
468.146	1.84
468.348	1.71
468.551	1.5
468.754	1.44
468.956	1.47
469.159	1.55
469.362	1.44
469.564	1.33
469.767	1.31
469.969	1.34
470.172	1.52
470.375	1.58
470.577	1.68
470.78	1.79
470.982	1.96
471.185	2.2
471.387	2.23
471.59	2.44
471.792	2.66
471.995	2.85
472.197	2.62
472.399	2.47
472.602	2.5
472.804	2.65
473.007	2.47
473.209	2.57
473.411	2.46
473.614	2.45
473.816	2.32
474.018	2.25
474.22	2.03
474.423	2.09
474.625	2.04
474.827	1.98
475.03	1.77
475.232	1.79
475.434	1.63
475.636	1.67
475.838	1.74
476.04	1.72
476.243	1.56
476.445	1.63
476.647	1.81
476.849	1.75
477.051	1.78
477.253	1.75
477.455	1.9
477.657	1.83
477.859	1.68
478.061	1.75
478.263	1.79
478.465	1.96
478.667	2.09
478.869	2.18
479.071	2.24
479.273	2.49
479.475	2.51
479.677	2.47
479.879	2.6
480.081	2.67
480.283	2.63
480.485	2.7
480.686	2.47
480.888	2.49
481.09	2.3
481.292	2.17
481.494	2.02
481.695	2.29
481.897	2.36
482.099	2.38
482.301	2.41
482.502	2.4
482.704	2.43
482.906	2.54
483.107	2.49
483.309	2.51
483.511	2.59
483.712	2.57
483.914	2.53
484.115	2.53
484.317	2.5
484.519	2.5
484.72	2.48
484.922	2.48
485.123	2.47
485.325	2.5
485.526	2.46
485.728	2.44
485.929	2.4
486.131	2.37
486.332	2.34
486.534	2.29
486.735	2.3
486.936	2.34
487.138	2.37
487.339	2.4
487.541	2.34
487.742	2.4
487.943	2.42
488.144	2.42
488.346	2.38
488.547	2.39
488.748	2.41
488.95	2.42
489.151	2.45
489.352	2.41
489.553	2.33
489.755	2.37
489.956	2.32
490.157	2.27
490.358	2.36
490.559	2.45
490.76	2.54
490.961	2.55
491.163	2.54
491.364	2.51
491.565	2.46
491.766	2.5
491.967	2.58
492.168	2.58
492.369	2.65
492.57	2.53
492.771	2.47
492.972	2.42
493.173	2.47
493.374	2.47
493.575	2.42
493.776	2.33
493.976	2.26
494.177	2.11
494.378	2.06
494.579	1.92
494.78	2.22
494.981	2.15
495.182	2.14
495.382	2.01
495.583	1.89
495.784	1.74
495.985	1.84
496.185	1.95
496.386	2.03
496.587	2.17
496.788	2.16
496.988	1.93
497.189	2.04
497.39	1.86
497.59	1.94
497.791	2.05
497.992	2.2
498.192	2.23
498.393	2.14
498.593	2.05
498.794	2.03
498.994	2.15
499.195	2.29
499.395	2.3
499.596	2.45
499.796	2.46
499.997	2.44
500.197	2.47
500.398	2.48
500.598	2.58
500.799	2.58
500.999	2.34
501.199	2.3
501.4	2.24
501.6	2.23
501.801	2.19
502.001	2.39
502.201	2.42
502.402	2.54
502.602	2.56
502.802	2.53
503.002	2.57
503.203	2.9
503.403	2.88
503.603	2.76
503.803	2.77
504.003	2.83
504.204	2.63
504.404	2.75
504.604	2.5
504.804	2.46
505.004	2.64
505.204	2.52
505.404	2.52
505.604	2.61
505.804	2.85
506.005	2.88
506.205	2.76
506.405	2.68
506.605	2.59
506.805	2.65
507.005	2.85
507.204	2.72
507.404	2.9
507.604	2.73
507.804	2.59
508.004	2.36
508.204	2.32
508.404	2.27
508.604	2.28
508.804	2.16
509.003	2.09
509.203	1.83
509.403	1.71
509.603	1.81
509.803	1.9
510.002	1.95
510.202	2.02
510.402	2.12
510.602	2.23
510.801	2.34
511.001	2.43
511.201	2.63
511.4	2.76
511.6	2.86
511.8	2.6
511.999	2.54
512.199	2.62
512.398	2.68
512.598	2.55
512.797	2.66
512.997	2.6
513.197	2.54
513.396	2.59
513.596	2.55
513.795	2.55
513.994	2.66
514.194	2.78
514.393	2.68
514.593	2.76
514.792	2.87
514.992	2.68
515.191	2.72
515.39	2.89
515.59	2.7
515.789	2.72
515.988	2.72
516.188	2.76
516.387	2.68
516.586	2.81
516.786	2.76
516.985	2.68
517.184	2.73
517.383	2.78
517.582	2.69
517.782	2.76
517.981	2.75
518.18	2.76
518.379	2.72
518.578	2.7
518.777	2.7
518.976	2.73
519.176	2.85
519.375	2.98
519.574	2.92
519.773	2.92
519.972	2.9
520.171	2.94
520.37	2.96
520.569	2.92
520.768	2.93
520.967	2.89
521.166	2.86
521.365	2.76
521.564	2.59
521.762	2.66
521.961	2.61
522.16	2.6
522.359	2.56
522.558	2.51
522.757	2.6
522.956	2.71
523.154	2.6
523.353	2.61
523.552	2.73
523.751	2.8
523.949	2.69
524.148	2.72
524.347	2.8
524.546	2.88
524.744	2.86
524.943	2.7
525.142	2.64
525.34	2.74
525.539	2.72
525.737	2.74
525.936	2.73
526.135	2.78
526.333	2.88
526.532	2.85
526.73	2.88
526.929	3.04
527.127	3.23
527.326	3.29
527.524	3.28
527.723	3.34
527.921	3.36
528.12	3.38
528.318	3.37
528.516	3.37
528.715	3.41
528.913	3.35
529.112	3.36
529.31	3.36
529.508	3.38
529.707	3.41
529.905	3.43
530.103	3.43
530.301	3.49
530.5	3.47
530.698	3.49
530.896	3.56
531.094	3.67
531.293	3.61
531.491	3.67
531.689	3.63
531.887	3.65
532.085	3.71
532.283	3.7
532.481	3.55
532.68	3.69
532.878	3.7
533.076	3.69
533.274	3.7
533.472	3.72
533.67	3.66
533.868	3.63
534.066	3.61
534.264	3.55
534.462	3.45
534.66	3.59
534.858	3.5
535.056	3.44
535.253	3.34
535.451	3.33
535.649	3.35
535.847	3.4
536.045	3.58
536.243	3.61
536.441	3.5
536.638	3.66
536.836	3.64
537.034	3.7
537.232	3.77
537.43	3.85
537.627	3.82
537.825	3.75
538.023	3.75
538.22	3.73
538.418	3.79
538.616	3.94
538.813	3.89
539.011	3.91
539.209	3.99
539.406	3.97
539.604	4.02
539.801	4.02
539.999	4.12
540.196	4.11
540.394	4.1
540.591	4.1
540.789	4.02
540.986	4.07
541.184	4.15
541.381	4.24
541.579	4.21
541.776	4.19
541.974	4.25
542.171	4.23
542.368	4.24
542.566	4.21
542.763	4.18
542.96	4.32
543.158	4.29
543.355	4.31
543.552	4.21
543.75	4.26
543.947	4.43
544.144	4.39
544.341	4.51
544.539	4.64
544.736	4.66
544.933	4.67
545.13	4.6
545.327	4.65
545.524	4.65
545.722	4.76
545.919	4.82
546.116	4.7
546.313	4.74
546.51	4.76
546.707	4.71
546.904	4.75
547.101	5.03
547.298	5.04
547.495	4.99
547.692	5.2
547.889	5.18
548.086	5.22
548.283	5.24
548.48	5.36
548.677	5.36
548.874	5.51
549.07	5.63
549.267	5.38
549.464	5.49
549.661	5.61
549.858	5.43
550.055	5.4
550.251	5.49
550.448	5.52
550.645	5.41
550.842	5.34
551.038	5.31
551.235	5.36
551.432	5.42
551.628	5.52
551.825	5.58
552.022	5.65
552.218	5.6
552.415	5.68
552.612	5.86
552.808	6.1
553.005	6.01
553.201	6
553.398	6.06
553.594	6.02
553.791	5.94
553.987	6.11
554.184	6.02
554.38	6.19
554.577	5.86
554.773	5.59
554.97	5.5
555.166	5.91
555.362	5.79
555.559	5.57
555.755	5.93
555.952	6.34
556.148	6.26
556.344	6.13
556.541	6.18
556.737	6.63
556.933	7.02
557.129	7.11
557.326	6.99
557.522	7.12
557.718	7.48
557.914	7.23
558.11	6.98
558.307	6.92
558.503	7.13
558.699	7.06
558.895	7.04
559.091	6.86
559.287	6.85
559.483	6.74
559.679	6.97
559.876	6.94
560.072	7.35
560.268	7.43
560.464	7.53
560.66	7.54
560.856	7.64
561.052	7.75
561.247	7.92
561.443	8.09
561.639	8.25
561.835	8.28
562.031	8.21
562.227	8.09
562.423	8.05
562.619	8.24
562.815	8.55
563.01	8.52
563.206	8.42
563.402	8.25
563.598	8.08
563.793	8.25
563.989	8.16
564.185	8.07
564.381	8.29
564.576	8.3
564.772	8.34
564.968	8.25
565.163	8.43
565.359	8.48
565.555	8.58
565.75	8.65
565.946	8.61
566.141	8.63
566.337	8.86
566.532	8.61
566.728	8.63
566.923	8.57
567.119	8.58
567.314	8.43
567.51	8.44
567.705	8.51
567.901	8.6
568.096	8.44
568.292	8.6
568.487	8.64
568.682	8.66
568.878	8.77
569.073	8.83
569.268	8.79
569.464	8.9
569.659	8.96
569.854	8.84
570.05	8.84
570.245	9
570.44	9.16
570.635	9.16
570.831	9.26
571.026	9.24
571.221	9.24
571.416	9.4
571.611	9.63
571.806	9.65
572.002	9.96
572.197	10.01
572.392	10.07
572.587	9.94
572.782	10.09
572.977	10.15
573.172	10.21
573.367	10.33
573.562	10.2
573.757	10.11
573.952	10.2
574.147	10.08
574.342	10.18
574.537	10.01
574.732	9.97
574.927	9.97
575.121	9.84
575.316	9.72
575.511	9.79
575.706	9.74
575.901	9.68
576.096	9.8
576.29	9.96
576.485	9.86
576.68	10.16
576.875	10.12
577.069	10.16
577.264	10.33
577.459	10.4
577.654	10.4
577.848	10.61
578.043	10.78
578.238	10.6
578.432	10.23
578.627	10.36
578.821	10.46
579.016	10.58
579.21	10.5
579.405	10.42
579.6	10.67
579.794	10.45
579.989	10.35
580.183	10.24
580.378	10.36
580.572	10.68
580.766	10.76
580.961	10.61
581.155	10.66
581.35	10.66
581.544	10.96
581.738	10.77
581.933	11.12
582.127	11.45
582.321	11.7
582.516	11.78
582.71	11.64
582.904	11.39
583.099	11.28
583.293	11.38
583.487	11.29
583.681	11.35
583.875	11.46
584.07	11.08
584.264	10.76
584.458	10.62
584.652	10.65
584.846	10.88
585.04	10.89
585.234	11.16
585.428	11.16
585.623	11.32
585.817	11.04
586.011	11.1
586.205	11.29
586.399	11.41
586.593	11.29
586.787	11.35
586.981	11.37
587.174	11.49
587.368	11.54
587.562	11.47
587.756	11.53
587.95	11.49
588.144	11.32
588.338	11.42
588.532	11.36
588.725	11.69
588.919	11.47
589.113	11.39
589.307	11.54
589.501	11.49
589.694	11.28
589.888	11.2
590.082	11.62
590.275	11.67
590.469	11.75
590.663	11.91
590.856	11.9
591.05	12.21
591.244	12.21
591.437	12.2
591.631	12.16
591.824	12.3
592.018	12.37
592.212	12.11
592.405	12.16
592.599	11.95
592.792	12.12
592.986	11.93
593.179	11.72
593.372	11.54
593.566	11.65
593.759	11.87
593.953	11.95
594.146	11.71
594.339	12.01
594.533	11.95
594.726	12.06
594.92	11.76
595.113	11.74
595.306	11.7
595.499	11.92
595.693	11.73
595.886	11.47
596.079	11.51
596.272	11.62
596.466	11.38
596.659	11.53
596.852	11.63
597.045	11.59
597.238	11.72
597.431	11.81
597.624	11.67
597.818	11.94
598.011	12.02
598.204	11.97
598.397	12.11
598.59	12.21
598.783	12.18
598.976	11.87
599.169	11.92
599.362	11.96
599.555	11.79
599.748	12
599.941	11.6
600.134	11.6
600.326	11.64
600.519	11.72
600.712	11.65
600.905	11.92
601.098	12.07
601.291	12.32
601.483	12.04
601.676	12.1
601.869	12.04
602.062	12.12
602.255	12.29
602.447	12.29
602.64	12.12
602.833	12.39
603.025	12.43
603.218	12.53
603.411	12.7
603.603	12.88
603.796	12.98
603.989	12.92
604.181	13
604.374	12.81
604.566	12.86
604.759	13.08
604.951	12.93
605.144	12.9
605.336	12.99
605.529	12.87
605.721	12.83
605.914	12.78
606.106	13.07
606.299	13.28
606.491	13.11
606.683	13.1
606.876	12.87
607.068	12.91
607.26	12.77
607.453	12.69
607.645	12.52
607.837	12.49
608.03	12.69
608.222	12.24
608.414	12.13
608.606	12.41
608.799	12.23
608.991	12.16
609.183	12.13
609.375	12.04
609.567	11.82
609.759	12.04
609.952	12.13
610.144	12.12
610.336	12.38
610.528	12.36
610.72	12.39
610.912	12.61
611.104	12.51
611.296	12.36
611.488	12.6
611.68	12.65
611.872	12.69
612.064	12.49
612.256	12.34
612.448	12.16
612.64	11.92
612.832	11.92
613.023	12.06
613.215	12.1
613.407	12.16
613.599	12
613.791	11.93
613.983	11.67
614.174	11.83
614.366	12.29
614.558	12.46
614.75	12.68
614.941	12.77
615.133	12.84
615.325	12.99
615.516	12.9
615.708	12.87
615.9	12.91
616.091	13.06
616.283	13.33
616.475	12.58
616.666	12.54
616.858	12.74
617.049	12.79
617.241	12.3
617.432	12.23
617.624	12.22
617.815	12.18
618.007	12.6
618.198	12.87
618.39	12.42
618.581	12.9
618.773	12.91
618.964	12.98
619.155	12.91
619.347	13.41
619.538	13.94
619.729	14.15
619.921	14.1
620.112	13.96
620.303	13.57
620.494	13.61
620.686	13.63
620.877	13.62
621.068	13.44
621.259	13.36
621.451	13.2
621.642	12.97
621.833	13.5
622.024	13.54
622.215	13.44
622.406	13.18
622.597	13.47
622.788	13.15
622.98	13
623.171	12.95
623.362	12.98
623.553	12.73
623.744	12.93
623.935	12.44
624.126	12.46
624.317	12.55
624.508	12.85
624.698	12.67
624.889	12.95
625.08	13.2
625.271	13.22
625.462	13.18
625.653	13.23
625.844	12.95
626.034	12.97
626.225	13.21
626.416	13.41
626.607	13.41
626.798	13.45
626.988	13.43
627.179	13.19
627.37	13.11
627.56	13
627.751	13.11
627.942	13.33
628.132	13.2
628.323	13.25
628.514	13.33
628.704	13.4
628.895	13.47
629.085	13.51
629.276	13.64
629.466	13.45
629.657	13.42
629.847	13.55
630.038	13.26
630.228	13.58
630.419	13.2
630.609	12.91
630.8	12.84
630.99	12.73
631.181	12.5
631.371	12.39
631.561	12.49
631.752	12.9
631.942	12.96
632.132	13.14
632.323	12.93
632.513	12.97
632.703	12.87
632.893	12.69
633.084	12.81
633.274	12.95
633.464	13.27
633.654	13.38
633.844	13.28
634.034	13.03
634.225	12.86
634.415	12.96
634.605	12.87
634.795	12.77
634.985	13.02
635.175	13.11
635.365	13.33
635.555	13.14
635.745	13.12
635.935	12.97
636.125	12.82
636.315	12.75
636.505	12.76
636.695	13.02
636.885	13.26
637.075	13.22
637.265	13.21
637.455	12.88
637.644	12.81
637.834	13.06
638.024	12.81
638.214	13.07
638.404	13.51
638.593	13.43
638.783	13.12
638.973	13.08
639.163	13.21
639.352	12.87
639.542	12.79
639.732	12.86
639.921	12.82
640.111	13.28
640.301	13.21
640.49	12.93
640.68	13.02
640.87	13.44
641.059	13.55
641.249	13.31
641.438	13.86
641.628	14.04
641.817	13.37
642.007	13.25
642.196	13.12
642.386	13.07
642.575	12.93
642.764	12.88
642.954	12.62
643.143	12.21
643.333	12.13
643.522	11.4
643.711	11.1
643.901	11.73
644.09	11.68
644.279	11.76
644.469	11.93
644.658	12.2
644.847	11.68
645.036	11.81
645.226	12.31
645.415	12.42
645.604	12.58
645.793	12.79
645.982	12.93
646.171	12.76
646.361	12.01
646.55	11.64
646.739	11.39
646.928	12.06
647.117	12.3
647.306	12.21
647.495	12.21
647.684	12.29
647.873	12.03
648.062	11.96
648.251	12.06
648.44	12.64
648.629	12.89
648.818	12.62
649.007	12.48
649.196	12.23
649.384	12.29
649.573	12.4
649.762	12.5
649.951	12.27
650.14	12.71
650.328	12.93
650.517	12.96
650.706	13.09
650.895	13.47
651.083	13.43
651.272	12.94
651.461	12.99
651.65	13.32
651.838	13.1
652.027	13.92
652.216	13.55
652.404	13.42
652.593	13.23
652.781	13.37
652.97	13.58
653.158	13.24
653.347	13.93
653.535	13.43
653.724	13.29
653.912	13.38
654.101	12.68
654.289	12.56
654.478	12.4
654.666	12.59
654.855	12.2
655.043	12.19
655.231	12.3
655.42	12.4
655.608	12.43
655.796	12.2
655.985	12.3
656.173	12.85
656.361	12.8
656.55	13.33
656.738	13.55
656.926	14
657.114	13.83
657.302	13.87
657.491	13.75
657.679	14.25
657.867	14.4
658.055	14.41
658.243	14.47
658.431	14.84
658.619	14.74
658.807	14.65
658.996	14.37
659.184	14.53
659.372	14.85
659.56	14.54
659.748	14.27
659.936	14.26
660.124	14.1
660.311	13.79
660.499	13.38
660.687	13.08
660.875	13.01
661.063	12.86
661.251	12.44
661.439	12.32
661.627	12.31
661.814	12.46
662.002	12.1
662.19	12.28
662.378	12.41
662.565	12.77
662.753	12.94
662.941	12.87
663.129	12.67
663.316	12.25
663.504	12.04
663.692	12.69
663.879	12.6
664.067	12.78
664.254	12.93
664.442	13.03
664.63	13.13
664.817	12.51
665.005	12.89
665.192	13.02
665.38	13.63
665.567	13.81
665.755	13.28
665.942	13.17
666.13	13.16
666.317	13.22
666.504	12.56
666.692	12.14
666.879	12.48
667.067	11.77
667.254	12.27
667.441	12.42
667.629	12.35
667.816	12.85
668.003	12.58
668.19	12.74
668.378	12.53
668.565	13.31
668.752	13.58
668.939	13.56
669.127	14.53
669.314	14.5
669.501	14.47
669.688	14.29
669.875	13.74
670.062	14.36
670.249	14.06
670.436	13.99
670.623	13.87
670.81	13.52
670.997	13.86
671.184	12.81
671.371	13.05
671.558	12.95
671.745	13.18
671.932	13.33
672.119	13.08
672.306	13.31
672.493	13.31
672.68	12.98
672.867	12.99
673.054	12.92
673.24	13.15
673.427	12.89
673.614	12.74
673.801	12.49
673.988	12.47
674.174	12.74
674.361	13.2
674.548	13.08
674.734	13.2
674.921	13.83
675.108	14.02
675.294	14
675.481	13.89
675.668	14.46
675.854	14.66
676.041	14.47
676.227	14.26
676.414	13.33
676.601	13.75
676.787	14
676.974	13.54
677.16	13.33
677.347	13.34
677.533	13.66
677.719	13.33
677.906	13.33
678.092	13.81
678.279	13.69
678.465	14.21
678.651	14.09
678.838	14.15
679.024	14.28
679.21	14.16
679.397	13.9
679.583	13.7
679.769	13.97
679.955	14.29
680.142	13.97
680.328	14.13
680.514	14.14
680.7	13.83
680.886	13.72
681.073	13.69
681.259	13.87
681.445	14.4
681.631	14.19
681.817	14.03
682.003	13.38
682.189	13.47
682.375	13.38
682.561	13.33
682.747	13.61
682.933	13.87
683.119	13.83
683.305	13.67
683.491	13.67
683.677	13.89
683.863	13.52
684.049	13.66
684.235	13.6
684.42	13.96
684.606	14.04
684.792	13.78
684.978	13.39
685.164	13.32
685.349	13.29
685.535	13.32
685.721	13.22
685.907	13.57
686.092	14.04
686.278	14.46
686.464	13.98
686.649	14.1
686.835	14.33
687.021	14.7
687.206	14.95
687.392	15.02
687.577	15.07
687.763	15.25
687.948	15.35
688.134	15.24
688.319	14.62
688.505	14.68
688.69	13.79
688.876	13.8
689.061	13.08
689.247	12.78
689.432	12.5
689.618	12.48
689.803	11.52
689.988	11.39
690.174	11.34
690.359	11.73
690.544	11.73
690.73	12.23
690.915	12.4
691.1	12.81
691.285	12.74
691.471	13.39
691.656	12.65
691.841	13.43
692.026	13.23
692.211	12.39
692.396	12.09
692.582	11.79
692.767	11.57
692.952	11.73
693.137	11.78
693.322	11.38
693.507	11.41
693.692	11.54
693.877	11.6
694.062	11.26
694.247	12.42
694.432	13.35
694.617	13.36
694.802	13.33
694.987	13.15
695.172	13.07
695.357	13.24
695.541	13.17
695.726	13.51
695.911	13.63
696.096	13.87
696.281	13.78
696.466	13.08
696.65	13.53
696.835	13.99
697.02	13.99
697.204	13.88
697.389	14.64
697.574	14.4
697.759	14.68
697.943	14.68
698.128	14.61
698.312	14.23
698.497	14.25
698.682	14.26
698.866	14.12
699.051	14.09
699.235	14.23
699.42	13.81
699.604	14.44
699.789	14.02
699.973	13.84
700.158	13.92
700.342	14.21
700.527	14.13
700.711	14.06
700.895	14.06
701.08	14.28
701.264	14.24
701.448	14.36
701.633	13.5
701.817	14.38
702.001	14.67
702.186	14.43
702.37	14.55
702.554	14.37
702.738	14.54
702.923	14.16
703.107	14.15
703.291	13.68
703.475	13.76
703.659	13.67
703.843	13.49
704.027	13.64
704.212	13.91
704.396	13.21
704.58	13.6
704.764	13.32
704.948	12.95
705.132	12.86
705.316	13.05
705.5	12.82
705.684	12.81
705.868	12.07
706.052	11.5
706.235	11.98
706.419	11.45
706.603	11.41
706.787	11.62
706.971	11.75
707.155	11.28
707.339	10.81
707.522	10.38
707.706	10.45
707.89	10.96
708.074	11.07
708.257	10.59
708.441	10.79
708.625	10.72
708.808	10.51
708.992	10.71
709.176	10.8
709.359	11.39
709.543	12.51
709.727	12.53
709.91	12.5
710.094	12.72
710.277	12.9
710.461	13.9
710.644	14.03
710.828	13.93
711.011	14.73
711.195	14.37
711.378	14.79
711.562	14.3
711.745	14.5
711.928	13.66
712.112	13.6
712.295	13.28
712.478	12.39
712.662	13.19
712.845	13.25
713.028	13.32
713.212	13.27
713.395	13.54
713.578	14.08
713.761	13.3
713.945	13.37
714.128	13.14
714.311	13.26
714.494	13.47
714.677	12.85
714.86	13.11
715.043	12.63
715.227	13.6
715.41	12.92
715.593	12.41
715.776	12.95
715.959	13.75
716.142	13.65
716.325	13.83
716.508	14.26
716.691	14.52
716.874	14.49
717.057	14.32
717.239	14.28
717.422	14.27
717.605	14.51
717.788	14.64
717.971	14.26
718.154	15.03
718.337	14.6
718.519	14.92
718.702	13.73
718.885	13.36
719.068	13.87
719.25	12.79
719.433	11.91
719.616	11.41
719.798	10.52
719.981	10.16
720.164	9.11
720.346	9.8
720.529	9.16
720.712	9.41
720.894	8.77
721.077	8.37
721.259	8.72
721.442	9.11
721.624	9.34
721.807	9.81
721.989	8.85
722.172	8.87
722.354	8.61
722.537	8.24
722.719	8.84
722.901	9.86
723.084	10.24
723.266	10.3
723.448	10.69
723.631	10.31
723.813	10.52
723.995	11.61
724.178	11.76
724.36	12.86
724.542	12.89
724.724	12.48
724.907	12.16
725.089	12.04
725.271	12.43
725.453	12.55
725.635	12.93
725.817	13.97
725.999	14.47
726.181	14.18
726.364	13.35
726.546	14.05
726.728	14.87
726.91	15.47
727.092	15.64
727.274	15.1
727.456	14.72
727.638	14.57
727.819	13.17
728.001	12.18
728.183	13.12
728.365	12.76
728.547	12.64
728.729	12.32
728.911	12
729.093	10.9
729.274	10.07
729.456	10.26
729.638	10.83
729.82	11.94
730.001	11.97
730.183	12.19
730.365	12.47
730.546	12.48
730.728	12.26
730.91	12.19
731.091	13.7
731.273	13.93
731.455	13.75
731.636	13.35
731.818	12.27
731.999	12.48
732.181	11.18
732.362	11.19
732.544	11.05
732.725	11.61
732.907	11.07
733.088	10.48
733.27	11.53
733.451	11.6
733.633	12.07
733.814	13.14
733.995	13.81
734.177	13.26
734.358	13.65
734.539	13.74
734.721	12.97
734.902	13.26
735.083	13.39
735.264	13.16
735.446	14.47
735.627	14.43
735.808	13.22
735.989	12.38
736.17	14.81
736.351	13.76
736.533	13.36
736.714	13.6
736.895	14.04
737.076	13.45
737.257	13.35
737.438	12.29
737.619	11.79
737.8	12.21
737.981	12.34
738.162	11.29
738.343	11.57
738.524	10.96
738.705	10.41
738.886	10.22
739.067	10.13
739.247	10.05
739.428	9.16
739.609	8.77
739.79	9.31
739.971	9.74
740.151	8.71
740.332	7.71
740.513	8.17
740.694	9.37
740.874	8.59
741.055	8.62
741.236	8.07
741.417	10.17
741.597	10.94
741.778	10.79
741.958	11
742.139	12.65
742.32	12.61
742.5	13.53
742.681	12.84
742.861	12.73
743.042	13.82
743.222	15.81
743.403	14.87
743.583	14.85
743.764	14.21
743.944	13.61
744.124	12.13
744.305	13.69
744.485	11.63
744.666	11.53
744.846	12.57
745.026	11.78
745.207	9.92
745.387	10.12
745.567	9.57
745.747	10.55
745.928	11.35
746.108	11.42
746.288	10.22
746.468	11.1
746.648	10.38
746.829	10.74
747.009	10.68
747.189	11.54
747.369	11.21
747.549	11.49
747.729	11.21
747.909	11.27
748.089	11.62
748.269	13.09
748.449	14.36
748.629	13.4
748.809	13.51
748.989	13.76
749.169	13.85
749.349	14.41
749.529	13.59
749.709	12.86
749.889	12.54
750.068	12.74
750.248	11.17
750.428	10.31
750.608	11.82
750.788	9.63
750.967	9.4
751.147	8.35
751.327	7.79
751.507	7.21
751.686	7.36
751.866	7.52
752.046	8.57
752.225	8.96
752.405	9.44
752.585	10.02
752.764	12.01
752.944	11.39
753.123	12.55
753.303	12.22
753.482	13.69
753.662	14.62
753.841	15.3
754.021	15.25
754.2	15.63
754.38	15.37
754.559	14.77
754.739	13.84
754.918	14.25
755.097	12.66
755.277	12.66
755.456	11.88
755.635	10.4
755.815	10.48
755.994	9.01
756.173	9.26
756.352	9.21
756.532	10.23
756.711	10.24
756.89	10.84
757.069	12.41
757.248	10.9
757.427	10.3
757.607	11.4
757.786	10.92
757.965	11.16
758.144	11.27
758.323	11.32
758.502	10.76
758.681	9.96
758.86	9.26
759.039	9.01
759.218	10.34
759.397	10.73
759.576	10.23
759.755	10.15
759.934	9.9
760.113	9.07
760.291	9.04
760.47	8.68
760.649	9.31
760.828	9.44
761.007	10.23
761.186	10.57
761.364	11.7
761.543	11.62
761.722	10.95
761.901	12.41
762.079	13.11
762.258	12.72
762.437	12.73
762.615	12.51
762.794	12.26
762.972	10.78
763.151	10.69
763.33	10.29
763.508	10.51
763.687	11.51
763.865	11.76
764.044	11.83
764.222	12.57
764.401	12.47
764.579	12.54
764.758	12.96
764.936	14.04
765.114	14.65
765.293	15.21
765.471	15.99
765.65	16.48
765.828	16.09
766.006	16.6
766.184	16.41
766.363	17.03
766.541	16.84
766.719	17.43
766.898	17.02
767.076	17.16
767.254	15.9
767.432	14.79
767.61	12.94
767.788	11.87
767.967	10.71
768.145	9.35
768.323	9.26
768.501	9.5
768.679	8.86
768.857	7.25
769.035	6.87
769.213	7.6
769.391	7.92
769.569	6.89
769.747	6.98
769.925	7.5
770.103	8.47
770.281	8.1
770.459	9
770.636	6.73
770.814	8.96
770.992	8.04
771.17	7.28
771.348	7.45
771.525	7.69
771.703	6.68
771.881	5.54
772.059	5.31
772.236	6.46
772.414	6.69
772.592	8.38
772.769	8.36
772.947	9.14
773.125	10.52
773.302	9.1
773.48	9.48
773.657	10.32
773.835	9.93
774.013	10.22
774.19	8.31
774.368	10.2
774.545	11.61
774.723	10.88
774.9	8.2
775.077	6.6
775.255	8.87
775.432	9.61
775.61	9.94
775.787	9.93
775.964	10.26
776.142	10.52
776.319	7.77
776.496	5.89
776.674	5.42
776.851	11.42
777.028	12.28
777.205	13.13
777.382	13.41
777.56	14.51
777.737	14.09
777.914	15.17
778.091	12.17
778.268	13.99
778.445	14.08
778.622	13.34
778.8	10.66
778.977	8.35
779.154	4.69
779.331	4.25
779.508	1.82
779.685	1.57
779.862	-0.79
780.038	-0.09
780.215	-0.88
780.392	-1.77
780.569	-2.26
780.746	-3.6
780.923	-1.43
781.1	1.53
781.277	1.62
781.453	0.76
781.63	0.48
781.807	-0.05
781.984	-0.25
782.16	-2.7
782.337	-4.78
782.514	-2.5
782.691	-0.95
782.867	-1.92
783.044	-4.74
783.221	-6.12
783.397	-4.2
783.574	-3.05
783.75	-3.33
783.927	1.68
784.103	4.29
784.28	7.76
784.456	8.51
784.633	5.35
784.809	5.18
784.986	5.25
785.162	3.74
785.339	2.82
785.515	3.93
785.692	4.68
785.868	2.86
786.044	1.79
786.221	3.89
786.397	-0.53
786.573	2.95
786.749	5.35
786.926	7.73
787.102	8.97
787.278	10.41
787.454	7.84
787.631	8.81
787.807	8.19
787.983	8.31
788.159	6.84
788.335	7.52
788.511	6.34
788.687	6.24
788.863	4.78
789.039	8.14
789.216	6.52
789.392	8.6
789.568	9.39
789.744	9.49
789.919	8.89
790.095	5.99
790.271	7.56
790.447	6.95
790.623	7.29
790.799	9.03
790.975	8.62
791.151	8.38
791.327	6.71
791.502	4.44
791.678	4.28
791.854	6.22
792.03	9.46
792.205	11.68
792.381	12
792.557	12.54
792.733	12.09
792.908	8.75
793.084	11.11
793.259	11.82
793.435	14.38
793.611	15.46
793.786	12.47
793.962	11.27
794.137	6.22
794.313	7
794.488	7.17
794.664	4.56
794.839	5.43
795.015	5.14
795.19	2.64
795.366	2.08
795.541	-2.78
795.716	-0.62
795.892	0.04
796.067	5.41
796.242	5.47
796.418	2.54
796.593	1.52
796.768	4.55
796.944	6.29
797.119	10.2
797.294	11.78
797.469	18.85
797.644	20.56
797.82	22.02
797.995	18.65
798.17	17.99
798.345	17.73
798.52	20.61
798.695	18.85
798.87	17.57
799.045	14.98
799.22	12.15
799.395	7.96
799.57	6.51
799.745	2.32
799.92	4.6
800.095	1.92
800.27	5.51
800.445	1.85
800.62	-2.61
800.795	-5.39
800.97	-4.97
801.145	-7.17
801.319	-9.67
801.494	-8.07
801.669	-5.61
801.844	-7.49
802.018	-3.65
802.193	-5.23
802.368	-3.37
802.543	1.93
802.717	2.32
802.892	5.54
803.067	7.1
803.241	12.75
803.416	11.77
803.59	9.1
803.765	8.9
803.94	14.5
804.114	13.7
804.289	11.54
804.463	7.71
804.638	9.66
804.812	6.05
804.986	3.26
805.161	3.28
805.335	4.78
805.51	6.47
805.684	5.69
805.858	-1.08
806.033	-2.87
806.207	-1.61
806.381	-2.48
806.556	-5.14
806.73	-3.21
806.904	-0.78
807.078	-6.97
807.253	-9.71
807.427	-10.63
807.601	-11.73
807.775	-12.79
807.949	-13.72
808.123	-9.27
808.298	-3.54
808.472	0.26
808.646	1.81
808.82	4.05
808.994	1.45
809.168	-0.25
809.342	4.36
809.516	10.22
809.69	9.93
809.864	10.24
810.038	6.61
810.212	1.18
810.385	-3.69
810.559	-4.72
810.733	-5.22
810.907	-2.12
811.081	-0.36
811.255	-4.01
811.428	-9.26
811.602	-11.97
811.776	-8.18
811.95	-10.35
812.123	-6.49
812.297	-7.27
812.471	-8.32
812.644	-8.57
812.818	-8.55
812.992	-11.81
813.165	-12.47
813.339	-11.09
813.512	-8.66
813.686	-10.24
813.86	-7.61
814.033	-4.66
814.207	0.68
814.38	-0.93
814.554	0.67
814.727	3.14
814.9	2.46
815.074	5.09
815.247	5.09
815.421	8.16
815.594	9.38
815.767	9.58
815.941	7.45
816.114	8.2
816.287	6.85
816.46	3.18
816.634	3.18
816.807	4.46
816.98	1.95
817.153	1.11
817.327	-2.25
817.5	-0.73
817.673	1.91
817.846	6.76
818.019	2.6
818.192	3.58
818.365	8.06
818.538	7.7
818.711	5.35
818.884	6.38
819.057	7.79
819.23	5.98
819.403	2.36
819.576	2.9
819.749	-1.77
819.922	0.65
820.095	6.82
820.268	4.49
820.441	2.69
820.614	6.31
820.786	5.89
820.959	6.72
821.132	9.43
821.305	11.88
821.477	11.24
821.65	11.18
821.823	11.49
821.996	11.06
822.168	11.64
822.341	12.66
822.514	12.11
822.686	13.53
822.859	13.59
823.031	14.07
823.204	13.88
823.376	13.86
823.549	13.87
823.722	13.69
823.894	12.24
824.067	12.02
824.239	11.4
824.411	12.05
824.584	11.33
824.756	10.59
824.929	8.74
825.101	7.9
825.273	8.21
825.446	9.15
825.618	10.63
825.79	13.79
825.963	12.57
826.135	13.61
826.307	15.05
826.479	13.91
826.652	13.79
826.824	14.44
826.996	15.04
827.168	14.55
827.34	13.26
827.512	11.79
827.684	10.26
827.856	12.28
828.029	13.43
828.201	11.39
828.373	11.81
828.545	12.05
828.717	12.51
828.889	11.59
829.061	11.9
829.232	11.58
829.404	11.67
829.576	9.49
829.748	8.06
829.92	4.97
830.092	1.71
830.264	0.2
830.436	0.69
830.607	0
830.779	-3.13
830.951	-4.7
831.123	-2.57
831.294	-4.73
831.466	-0.27
831.638	2.53
831.809	0.87
831.981	2.42
832.153	3.25
832.324	-1.23
832.496	-1.38
832.667	4.88
832.839	1.31
833.011	3.76
833.182	4.71
833.354	3.93
833.525	6.19
833.697	7.56
833.868	8.68
834.039	10.6
834.211	10.81
834.382	13.62
834.554	12.53
834.725	14.49
834.896	11.32
835.068	11.03
835.239	9.9
835.41	4.27
835.581	3.66
835.753	4.9
835.924	1.89
836.095	1.23
836.266	-0.64
836.438	-3.07
836.609	-1.49
836.78	-1.67
836.951	-3.06
837.122	-1.92
837.293	0.98
837.464	-1.25
837.635	-6.8
837.806	-8.72
837.977	-8.78
838.148	-14.77
838.319	-13.5
838.49	-15.77
838.661	-12.65
838.832	-18.8
839.003	-29.23
839.174	-31.58
839.345	-31.27
839.516	-25.71
839.687	-32.35
839.857	-21.77
840.028	-17.98
840.199	-17.2
840.37	-23.95
840.54	-29.75
840.711	-28.57
840.882	-18.86
841.053	-20.09
841.223	-21.54
841.394	-24.08
841.564	-18.7
841.735	-19.16
841.906	-21.89
842.076	-30.78
842.247	-26.43
842.417	-21.76
842.588	-16.48
842.758	-28.79
842.929	-34.93
843.099	-30.36
843.27	-25.29
843.44	-25.61
843.611	-35.99
843.781	-36.3
843.951	-29.14
844.122	-27.5
844.292	-27.14
844.462	-36.21
844.633	-28.71
844.803	-26.31
844.973	-24.3
845.144	-15.89
845.314	-8.8
845.484	-12.38
845.654	-14.16
845.824	-8.81
845.995	-13.7
846.165	-18.87
846.335	-17.08
846.505	-15.52
846.675	-16.39
846.845	-23.54
847.015	-42.3
847.185	-40.79
847.355	-23.28
847.525	-22.33
847.695	-30.7
847.865	-38.42
848.035	-35.55
848.205	-15.58
848.375	-12.5
848.545	-11.37
848.715	6.43
848.884	-1.95
849.054	7.84
849.224	-3.35
849.394	-0.83
849.564	6.34
849.733	8.85
849.903	5.61
850.073	5.01
850.243	-2.91
850.412	4.87
850.582	7.23
850.752	9.22
850.921	-2.69
851.091	-11.94
851.26	-16.08
851.43	-23.64
851.599	-19.65
851.769	-20.54
851.939	-74.52
852.108	-97.55
852.278	-120.75
852.447	-152.11
852.616	-122.91
852.786	-105.99
852.955	-72.69
853.125	-73.56
853.294	-65.16
853.463	-101.1
853.633	-121.59
853.802	-24.26
853.971	-26.74
854.141	-34.11
854.31	-24.85
854.479	-59.55
854.648	-70.81
854.818	-65.7
854.987	-74.01
855.156	-77.91
855.325	-70.57
855.494	-76.49
855.663	-114.86
855.832	-124.82
856.001	-90.68
856.171	-133.27
856.34	-76.68
856.509	-61.18
856.678	-43.75
856.847	-41.31
857.016	-39.57
857.185	-24.78
857.353	-9.06
857.522	-16.05
857.691	8.5
857.86	1.87
858.029	11.43
858.198	6.97
858.367	-0.83
858.535	-7.57
858.704	-8.98
858.873	-20.21
859.042	-31.61
859.21	-42.47
859.379	-32.14
859.548	-70.38
859.717	-82.63
859.885	-103.92
860.054	-155.83
860.222	-241.62
860.391	-346.1
860.56	-242.64
860.728	-228.35
860.897	-422.93
861.065	-595.4
861.234	-201.05
861.402	-208.44
861.571	-158.44
861.739	-121.51
861.908	-99.25
862.076	-92.71
862.244	-79.61
862.413	-101.12
862.581	-70.33
862.749	-43.14
862.918	-47
863.086	-70.12
863.254	-30.45
863.423	-49.11
863.591	-70.98
863.759	-36.59
863.927	-74.66
864.096	-73.36
864.264	-48.85
864.432	-64.49
864.6	-110.51
864.768	-93
864.936	-62.3
865.104	-107.22
865.272	-90.89
865.44	-54.13
865.608	-64.7
865.776	-36.35
865.944	-22.42
866.112	-6.35
866.28	-7.33
866.448	13.82
866.616	12.2
866.784	13.29
866.952	11.17
867.12	15.59
867.288	8.11
867.455	-4.91
867.623	-19.46
867.791	-45.6
867.959	-65.22
868.127	-41.73
868.294	-83.8
868.462	-100.36
868.63	-170.14
868.797	-84.6
868.965	-160.29
869.133	-296.52
869.3	-134.6
869.468	-59.79
869.636	-42.04
869.803	-59.97
869.971	-88.99
870.138	-58.28
870.306	-40.82
870.473	-7.12
870.641	-42.35
870.808	-40.94
870.975	-30.01
871.143	-25.02
871.31	-20.26
871.478	-15.47
871.645	-10.92
871.812	-4.33
871.98	2.65
872.147	4.27
872.314	-20.57
872.482	-15.69
872.649	-2.57
872.816	-13.96
872.983	-29.86
873.15	-42.95
873.318	-39.69
873.485	-46.7
873.652	-39.97
873.819	-51.36
873.986	-51.89
874.153	-50.3
874.32	-55.88
874.487	-60.3
874.654	-34.17
874.821	-22.89
874.988	-23.29
875.155	-19.83
875.322	-15.32
875.489	-26.77
875.656	-21.03
875.823	-27.21
875.99	-30.58
876.157	-13.85
876.324	-14.2
876.49	-27.08
876.657	-25.53
876.824	-29.94
876.991	-24.39
877.157	-19.51
877.324	-23.59
877.491	-23.34
877.658	-20.34
877.824	-7.35
877.991	-26.6
878.157	-27.37
878.324	-27.96
878.491	-64.94
878.657	-54.52
878.824	-85.09
878.99	-82.23
879.157	-111.13
879.323	-197.73
879.49	-164.54
879.656	-125.19
879.823	-126.96
879.989	-103.09
880.156	-84.73
880.322	-71.79
880.488	-69.48
880.655	-61.17
880.821	-53.17
880.987	-39.19
881.154	-25.65
881.32	-20.11
881.486	-24.12
881.652	-7.56
881.819	-1.23
881.985	-0.35
882.151	2.72
882.317	5.43
882.483	8.03
882.649	5.88
882.816	8.54
882.982	10.44
883.148	9.82
883.314	12.59
883.48	9.59
883.646	7.04
883.812	7.81
883.978	4.05
884.144	5.93
884.31	4.16
884.476	4.82
884.642	4.34
884.807	4.03
884.973	5.7
885.139	6.4
885.305	10.2
885.471	10.34
885.637	10.41
885.802	14.86
885.968	13.11
886.134	9.04
886.3	8.16
886.465	11.63
886.631	9.71
886.797	5.57
886.962	-0.53
887.128	-3.14
887.293	-6.88
887.459	-13.43
887.625	-8.17
887.79	-19.95
887.956	-10.09
888.121	-11.51
888.287	-19.25
888.452	-24.17
888.618	-26.63
888.783	-26.93
