Data from 2938097_Reflection_3.txt Node
Date: Sat Jul 11 18:58:28 EDT 2015
User: robert
Spectrometer: USB4E03001
Autoset integration time: false
Trigger mode: 4
Integration Time (sec): 1.000000E-1
Scans to average: 10
Electric dark correction enabled: true
Nonlinearity correction enabled: false
Boxcar width: 5
Stray light correction enabled: false
XAxis mode: Wavelengths
Stop averaging: false
Number of Pixels in Spectrum: 3648
>>>>>Begin Spectral Data<<<<<
177.566	237.41
177.785	190.25
178.005	598.12
178.225	220.2
178.445	100.09
178.665	75.68
178.885	-223.39
179.105	32.53
179.324	28.1
179.544	70.27
179.764	117.29
179.984	247.21
180.204	126.66
180.423	152.44
180.643	150.58
180.863	109.08
181.083	152.88
181.302	173.74
181.522	332.67
181.742	191.24
181.961	182.16
182.181	483.36
182.401	-14596.3
182.621	-77.77
182.84	-149.22
183.06	-1157.54
183.279	-129.91
183.499	-40.65
183.719	44.61
183.938	77.78
184.158	66.44
184.377	62.39
184.597	75.61
184.816	104.51
185.036	62.48
185.256	117.99
185.475	111.33
185.695	99.03
185.914	132.09
186.134	120.33
186.353	137.49
186.572	171.43
186.792	153.05
187.011	105.64
187.231	76.05
187.45	69.77
187.67	39.95
187.889	-16.25
188.108	36.91
188.328	45.69
188.547	65.26
188.766	68.44
188.986	69.18
189.205	26.53
189.424	46.69
189.644	37.68
189.863	27.18
190.082	57.34
190.302	69.72
190.521	27.71
190.74	26.93
190.959	13.81
191.178	-720
191.398	-61.01
191.617	-207.32
191.836	-7.01
192.055	-19.61
192.274	-15.22
192.494	4.96
192.713	9.44
192.932	-12.26
193.151	-17.89
193.37	-63
193.589	-45.32
193.808	24.14
194.027	53.75
194.246	113.28
194.465	119.49
194.685	-103.58
194.904	-1532.91
195.123	-313.49
195.342	1100
195.561	-2061.2
195.78	198.94
195.999	-516.89
196.218	225.14
196.436	145.56
196.655	160.95
196.874	198.66
197.093	95.94
197.312	58.61
197.531	193.47
197.75	606.2
197.969	-41.19
198.188	94.98
198.407	-123.28
198.625	40.53
198.844	41.6
199.063	87.62
199.282	32.57
199.501	98.62
199.719	71.22
199.938	72.62
200.157	20.18
200.376	-7.25
200.594	44.42
200.813	54.53
201.032	90.5
201.251	278.16
201.469	29.04
201.688	-37.57
201.907	29.52
202.125	-23.49
202.344	-17.24
202.563	-5.65
202.781	-2.36
203	42.48
203.218	79.21
203.437	182.35
203.656	363.05
203.874	-607.2
204.093	-68.16
204.311	-10.8
204.53	-163.04
204.748	-195.69
204.967	-267.63
205.185	97.49
205.404	51.35
205.622	24.23
205.841	15.09
206.059	94.86
206.278	131.19
206.496	-570.07
206.715	87.89
206.933	108.32
207.151	135.25
207.37	126.64
207.588	166.63
207.806	380.09
208.025	-131.88
208.243	-333.79
208.461	-151.93
208.68	-210.65
208.898	-2452.23
209.116	346.09
209.335	63.91
209.553	251.81
209.771	1.32
209.989	61.49
210.208	-25.11
210.426	-43.3
210.644	-77
210.862	-337.1
211.081	1657.56
211.299	3441
211.517	323.1
211.735	176.06
211.953	129.27
212.171	165.25
212.39	85.19
212.608	62.83
212.826	51.56
213.044	34.39
213.262	-23.93
213.48	-46.07
213.698	-73.71
213.916	-176.22
214.134	-211.76
214.352	-77.29
214.57	-40.17
214.788	16.19
215.006	43.36
215.224	4.64
215.442	-2.93
215.66	-9.23
215.878	27.28
216.096	-16.78
216.314	75.02
216.532	57.94
216.75	54.51
216.968	35.58
217.185	10.96
217.403	-68.71
217.621	-78.91
217.839	-4.73
218.057	9.71
218.275	0.65
218.492	7.74
218.71	-16.75
218.928	-38.01
219.146	-71.8
219.363	-30.74
219.581	-43.84
219.799	14.57
220.017	67.62
220.234	71.13
220.452	110.59
220.67	115.98
220.887	61.12
221.105	57.36
221.323	63.29
221.54	56.14
221.758	38.99
221.976	29.12
222.193	8.6
222.411	-16.87
222.629	-35.46
222.846	-55.51
223.064	-34.47
223.281	-30.28
223.499	-40.48
223.716	-42.3
223.934	-52.68
224.151	-39.81
224.369	-25.97
224.586	-12.84
224.804	6.17
225.021	20.99
225.239	18.98
225.456	-10.91
225.674	8.84
225.891	18.31
226.108	29.83
226.326	45.48
226.543	36.28
226.76	37.2
226.978	35.14
227.195	24.02
227.413	11.05
227.63	13.92
227.847	13.55
228.064	5.3
228.282	1.13
228.499	-1.99
228.716	-3.94
228.934	-3.12
229.151	-5.76
229.368	-7.95
229.585	-8.1
229.802	-5.56
230.02	-6.56
230.237	-5.08
230.454	-2.18
230.671	-1.07
230.888	-4.82
231.105	-5.48
231.323	-1.89
231.54	1.46
231.757	3.29
231.974	3.67
232.191	4.65
232.408	2.62
232.625	-1.81
232.842	-10.25
233.059	-10.8
233.276	-7.14
233.493	-7.2
233.71	-9.01
233.927	-11.82
234.144	-17.37
234.361	-18.58
234.578	-14.82
234.795	-12.6
235.012	-3.24
235.229	3.25
235.446	-2.5
235.663	-6.48
235.879	-12.42
236.096	-22.79
236.313	-26.81
236.53	-17.01
236.747	-14.43
236.964	-16.39
237.181	-19.63
237.397	-21.15
237.614	-25.81
237.831	-23.81
238.048	-17.36
238.264	-12.5
238.481	-5.51
238.698	-7.92
238.915	-7.37
239.131	-8.28
239.348	-9.46
239.565	-6.01
239.781	-6.24
239.998	-2.03
240.215	-0.48
240.431	1.79
240.648	3.84
240.865	3.94
241.081	2.74
241.298	2.05
241.514	3.38
241.731	3.55
241.947	3.84
242.164	4.31
242.38	3.84
242.597	3.01
242.814	3.58
243.03	1
243.246	-0.17
243.463	1.58
243.679	0.92
243.896	-0.19
244.112	-1.43
244.329	-0.13
244.545	-2.01
244.762	-0.5
244.978	-1.97
245.194	-3.87
245.411	-4.46
245.627	-3
245.843	-1.84
246.06	0.84
246.276	0.15
246.492	0.39
246.709	-0.49
246.925	0.28
247.141	-1.03
247.357	0.56
247.574	1.14
247.79	1.63
248.006	1.25
248.222	1.01
248.439	0.6
248.655	1.59
248.871	2.08
249.087	0.06
249.303	-0.42
249.519	1.04
249.736	1.04
249.952	1.48
250.168	2.68
250.384	3.44
250.6	4.28
250.816	3.09
251.032	-0.55
251.248	-1.71
251.464	-0.66
251.68	-0.97
251.896	-4.95
252.112	-6.11
252.328	-7.99
252.544	-7.88
252.76	-6.5
252.976	-7.6
253.192	-6.87
253.408	-3.88
253.624	-2.57
253.84	-1.88
254.056	0.81
254.272	4.73
254.487	5.18
254.703	4.1
254.919	4.31
255.135	1.71
255.351	2.21
255.567	2.61
255.782	1.1
255.998	-1.8
256.214	2.68
256.43	1.7
256.646	2.16
256.861	5.8
257.077	8.21
257.293	7.6
257.508	7.57
257.724	5.98
257.94	5.16
258.155	3.61
258.371	6.14
258.587	3.13
258.802	3.79
259.018	3.03
259.234	1.13
259.449	0.69
259.665	0.97
259.88	1.38
260.096	1.26
260.312	0.61
260.527	1.3
260.743	0.13
260.958	0.08
261.174	-0.65
261.389	-0.96
261.605	-0.64
261.82	-0.1
262.036	-1.22
262.251	-2.81
262.466	-3.53
262.682	-4.4
262.897	-5.31
263.113	-4.76
263.328	-3.78
263.543	-4.49
263.759	-3.67
263.974	-3.09
264.189	-4.35
264.405	-2.39
264.62	-1.75
264.835	0.64
265.051	1.93
265.266	1.3
265.481	1.09
265.696	2.68
265.912	2.54
266.127	2.56
266.342	3.2
266.557	4.39
266.773	4.69
266.988	5.55
267.203	5.42
267.418	4.78
267.633	4.75
267.848	4.74
268.064	4.47
268.279	3.93
268.494	3.1
268.709	1.58
268.924	0.01
269.139	-1.88
269.354	-3.04
269.569	-3.12
269.784	-2.07
269.999	-1.24
270.214	-3.13
270.429	-3.79
270.644	-1.1
270.859	-2.03
271.074	-1.28
271.289	-1.05
271.504	0.01
271.719	0.12
271.934	0.18
272.149	-0.16
272.363	-0.51
272.578	0.89
272.793	0.48
273.008	-0.63
273.223	0.45
273.438	-0.17
273.653	0.5
273.867	-0.74
274.082	0.4
274.297	0.45
274.512	0.27
274.726	0.91
274.941	-0.38
275.156	-0.65
275.371	-0.7
275.585	-1.16
275.8	0.53
276.015	0.4
276.229	1.59
276.444	1.98
276.659	-0.43
276.873	1.24
277.088	1.05
277.302	2.65
277.517	3.46
277.732	3.15
277.946	3.09
278.161	1.98
278.375	-0.27
278.59	1.88
278.804	0.15
279.019	3.24
279.233	2.58
279.448	1.07
279.662	0.16
279.877	-1.73
280.091	-2.19
280.306	0.29
280.52	-0.23
280.735	1.81
280.949	0.95
281.163	1.19
281.378	-1.13
281.592	-2.99
281.806	-2.28
282.021	-1.42
282.235	-1.07
282.449	-0.87
282.664	-2.27
282.878	-1.17
283.092	-1.7
283.307	-0.12
283.521	0.65
283.735	2.85
283.949	3.88
284.164	2.7
284.378	1.48
284.592	1.76
284.806	1.49
285.02	0.71
285.234	0.93
285.449	1.86
285.663	0.97
285.877	0.94
286.091	-0.38
286.305	0.53
286.519	1.9
286.733	3.51
286.947	4.4
287.161	5.62
287.375	5.35
287.589	5.17
287.803	5.93
288.017	5.53
288.231	5.13
288.445	5.14
288.659	4.92
288.873	4.08
289.087	3.83
289.301	2.98
289.515	1.01
289.729	1.08
289.943	0.4
290.157	-0.93
290.371	-0.64
290.584	-2.3
290.798	-0.9
291.012	-1.34
291.226	-0.58
291.44	0.56
291.654	0.87
291.867	2.33
292.081	2.09
292.295	2.6
292.509	3.57
292.722	3.86
292.936	6.03
293.15	4.5
293.364	3.73
293.577	3.09
293.791	1.8
294.005	2.01
294.218	1.21
294.432	4.04
294.645	4.06
294.859	2.59
295.073	2.19
295.286	0.99
295.5	2.47
295.713	3.91
295.927	4.71
296.14	3.91
296.354	3.79
296.568	4.28
296.781	2.57
296.994	3.44
297.208	2.56
297.421	2.72
297.635	3.15
297.848	1.03
298.062	0.42
298.275	0.2
298.489	0.02
298.702	-0.25
298.915	-1.8
299.129	-1.24
299.342	-3.52
299.555	-2.49
299.769	-3.05
299.982	-1.29
300.195	0.91
300.409	-0.16
300.622	0.79
300.835	2.02
301.048	2.7
301.262	4.57
301.475	5.02
301.688	6.7
301.901	7.03
302.115	8.74
302.328	6.89
302.541	6.2
302.754	7.81
302.967	6.15
303.18	5.26
303.393	5.58
303.607	6.34
303.82	6.14
304.033	5.48
304.246	5.07
304.459	3.05
304.672	2.59
304.885	3.37
305.098	2.47
305.311	3.66
305.524	3.67
305.737	2.27
305.95	0.93
306.163	0.7
306.376	1.57
306.589	1.76
306.802	0.93
307.015	-0.1
307.228	-1.63
307.44	-0.44
307.653	-2.72
307.866	-2.41
308.079	-0.63
308.292	1.99
308.505	1.04
308.718	-0.74
308.93	-1.28
309.143	-0.17
309.356	2.6
309.569	3.94
309.781	4.46
309.994	5
310.207	5.96
310.42	5.9
310.632	3.41
310.845	4.2
311.058	4.52
311.27	4.58
311.483	4.57
311.696	3.42
311.908	4.01
312.121	2.22
312.333	2.89
312.546	1.17
312.759	1.06
312.971	2.05
313.184	2.63
313.396	4.08
313.609	4.73
313.821	4.33
314.034	4.69
314.246	4.87
314.459	6.71
314.671	6.12
314.884	5.54
315.096	5.64
315.309	4.65
315.521	3.9
315.733	2.4
315.946	2.41
316.158	2.98
316.371	1.39
316.583	-0.23
316.795	-2.48
317.008	-1.89
317.22	0.21
317.432	-1.01
317.644	-0
317.857	0.87
318.069	1.98
318.281	2.98
318.494	2.34
318.706	3.36
318.918	3.25
319.13	4.54
319.342	5.51
319.555	5.69
319.767	6.44
319.979	7.31
320.191	7.67
320.403	7.06
320.615	6.22
320.827	5.74
321.039	8.16
321.252	7.94
321.464	6.21
321.676	5.53
321.888	4.92
322.1	5.53
322.312	3.71
322.524	3.42
322.736	3.84
322.948	3.47
323.16	4.6
323.372	3.24
323.584	2.32
323.796	4.72
324.007	4
324.219	3.64
324.431	2.83
324.643	4.04
324.855	3.88
325.067	3.92
325.279	3.78
325.491	3.25
325.702	3.05
325.914	4.37
326.126	3.51
326.338	3.87
326.55	4.97
326.761	6.18
326.973	6.36
327.185	5.48
327.396	6.31
327.608	7.05
327.82	7.75
328.032	7.8
328.243	9.4
328.455	11.16
328.666	11.26
328.878	11.71
329.09	12.24
329.301	10.68
329.513	11.97
329.725	13.35
329.936	13.47
330.148	14.82
330.359	15.2
330.571	13.42
330.782	12.15
330.994	13.65
331.205	12.29
331.417	10.63
331.628	13.17
331.84	13.86
332.051	10.23
332.262	9.34
332.474	8.8
332.685	9.64
332.897	7.95
333.108	8.26
333.319	8.55
333.531	9.35
333.742	10.62
333.953	9.48
334.165	9.1
334.376	11.35
334.587	10.64
334.799	10.55
335.01	10.88
335.221	13.25
335.432	12.4
335.644	11.59
335.855	10.98
336.066	10.88
336.277	11.41
336.488	11.3
336.7	10.32
336.911	12.22
337.122	11.61
337.333	11.22
337.544	11.61
337.755	12.81
337.966	13.75
338.177	14.94
338.388	15.03
338.599	15.49
338.811	15.04
339.022	15.44
339.233	16.62
339.444	17.35
339.655	15.79
339.866	14.74
340.076	14.27
340.287	13.3
340.498	13.54
340.709	13.16
340.92	12.39
341.131	13.02
341.342	13.48
341.553	13.45
341.764	13.55
341.975	14.53
342.185	14.41
342.396	14.3
342.607	15.04
342.818	15.4
343.029	16.02
343.239	16.24
343.45	15.95
343.661	15.42
343.872	14.9
344.082	15.4
344.293	16.21
344.504	15.94
344.714	16.25
344.925	15.4
345.136	15.73
345.346	15.7
345.557	15.19
345.768	16.06
345.978	16.3
346.189	15.36
346.399	14.64
346.61	14.26
346.821	15.35
347.031	14.45
347.242	15.14
347.452	14.58
347.663	14.39
347.873	15.17
348.084	15.38
348.294	15.54
348.504	15.24
348.715	14.94
348.925	15.42
349.136	16.54
349.346	17.23
349.557	17.6
349.767	16.34
349.977	16.07
350.188	16.48
350.398	16.28
350.608	17.37
350.819	18.32
351.029	19.59
351.239	19.69
351.449	18.83
351.66	18.91
351.87	19.11
352.08	19.5
352.29	19.67
352.501	19.6
352.711	20.94
352.921	20.47
353.131	20.62
353.341	19.92
353.552	20.27
353.762	20.84
353.972	20.37
354.182	20.78
354.392	21.34
354.602	21.34
354.812	22.57
355.022	21.28
355.232	21.51
355.442	21.01
355.652	20.46
355.862	19.35
356.072	18.35
356.282	18.92
356.492	17.65
356.702	17.07
356.912	16.68
357.122	15.42
357.332	15.1
357.542	14.48
357.752	14.3
357.962	14.91
358.171	15.02
358.381	15.95
358.591	16.42
358.801	17.17
359.011	17.96
359.221	18.22
359.43	16.94
359.64	16.57
359.85	17.08
360.06	17.78
360.269	18.54
360.479	18.21
360.689	17.94
360.899	17.63
361.108	16.77
361.318	16.78
361.528	16.28
361.737	17.4
361.947	17.91
362.156	17.26
362.366	17.12
362.576	16.47
362.785	16.87
362.995	16.98
363.204	16.95
363.414	17.06
363.623	16.53
363.833	16.73
364.042	16.89
364.252	17.08
364.461	17.51
364.671	17.96
364.88	18.43
365.09	18.94
365.299	18.35
365.509	18.9
365.718	19.94
365.927	19.93
366.137	19.9
366.346	18.92
366.555	18.42
366.765	17.87
366.974	17.15
367.183	16.46
367.393	16.1
367.602	16.75
367.811	16.29
368.021	14.66
368.23	14.82
368.439	15.51
368.648	16.65
368.857	17.41
369.067	17.54
369.276	18.21
369.485	18.22
369.694	18.23
369.903	16.8
370.112	16.75
370.321	17.66
370.531	17.05
370.74	17.51
370.949	17.4
371.158	17.12
371.367	17.26
371.576	17.01
371.785	16.72
371.994	16.16
372.203	17.02
372.412	16.8
372.621	17.03
372.83	18.04
373.039	17.82
373.248	17.55
373.457	17.43
373.666	17.91
373.874	18.03
374.083	19.34
374.292	20.92
374.501	21.28
374.71	21.44
374.919	21.64
375.128	21.35
375.336	21.86
375.545	22.24
375.754	22.51
375.963	22.19
376.171	21.88
376.38	21.69
376.589	21.01
376.798	20.96
377.006	20.26
377.215	20.2
377.424	20.36
377.632	19.49
377.841	19.58
378.05	19.6
378.258	19.99
378.467	20.29
378.675	20.01
378.884	20.42
379.093	20.25
379.301	20.82
379.51	20.65
379.718	20.3
379.927	20.65
380.135	20.88
380.344	20.8
380.552	20.95
380.761	20.91
380.969	21.21
381.177	20.68
381.386	20.86
381.594	20.94
381.803	20.91
382.011	21.19
382.219	21.2
382.428	20.37
382.636	19.83
382.845	19.15
383.053	19.62
383.261	20
383.469	19.98
383.678	19.77
383.886	19.91
384.094	20.37
384.302	20.84
384.511	20.43
384.719	20.82
384.927	21.12
385.135	21.31
385.343	21.31
385.552	20.89
385.76	21.18
385.968	21.58
386.176	21.69
386.384	21.49
386.592	21.09
386.8	21.12
387.008	21.43
387.216	21.2
387.424	21.5
387.633	21.31
387.841	20.76
388.049	20.65
388.257	20.23
388.465	20.27
388.672	20.03
388.88	20.15
389.088	20.76
389.296	20.28
389.504	20.71
389.712	20.65
389.92	20.11
390.128	20.89
390.336	21.09
390.544	21.54
390.751	21.5
390.959	21.74
391.167	21.79
391.375	21.68
391.583	22.12
391.79	22.42
391.998	22.15
392.206	22.97
392.414	23.16
392.621	23.54
392.829	23.78
393.037	23.93
393.244	24.14
393.452	24.12
393.66	24.37
393.867	24.28
394.075	24.11
394.283	24.76
394.49	24.49
394.698	24.23
394.905	23.91
395.113	23.79
395.32	23.86
395.528	23.92
395.735	24.03
395.943	23.99
396.15	24.24
396.358	24.35
396.565	24.32
396.773	24.2
396.98	24.57
397.188	24.74
397.395	24.98
397.602	25
397.81	25.17
398.017	25.4
398.225	25.4
398.432	25.51
398.639	25.54
398.847	25.36
399.054	25.93
399.261	25.87
399.468	26.29
399.676	26.46
399.883	26.54
400.09	26.24
400.297	26.28
400.505	26.38
400.712	26.31
400.919	26.76
401.126	26.92
401.333	26.62
401.54	26.42
401.748	26.33
401.955	25.98
402.162	26.41
402.369	26.77
402.576	27.01
402.783	27.3
402.99	27.35
403.197	27.02
403.404	27.24
403.611	27.48
403.818	27.77
404.025	27.77
404.232	27.86
404.439	27.62
404.646	27.85
404.853	27.8
405.06	27.9
405.267	28.18
405.474	28.44
405.681	28.22
405.887	28.22
406.094	28.33
406.301	28.56
406.508	28.8
406.715	28.8
406.922	28.99
407.128	29.05
407.335	29
407.542	28.69
407.749	28.72
407.955	28.98
408.162	28.95
408.369	28.67
408.575	28.34
408.782	28.27
408.989	28.34
409.195	27.83
409.402	27.99
409.609	28.23
409.815	28.28
410.022	28.2
410.228	28.2
410.435	28.11
410.642	28.23
410.848	28.3
411.055	28.38
411.261	28.43
411.468	28.4
411.674	28.08
411.881	27.79
412.087	27.97
412.294	27.75
412.5	27.9
412.706	28.3
412.913	28.44
413.119	28.35
413.326	28.31
413.532	28.47
413.738	28.54
413.945	28.86
414.151	28.64
414.357	28.61
414.564	28.7
414.77	28.53
414.976	28.58
415.182	28.57
415.389	28.84
415.595	28.79
415.801	28.75
416.007	29.07
416.214	28.76
416.42	28.86
416.626	28.67
416.832	28.76
417.038	28.62
417.244	28.35
417.45	28.06
417.657	27.78
417.863	27.75
418.069	27.71
418.275	27.4
418.481	27.52
418.687	27.5
418.893	27.61
419.099	27.57
419.305	27.51
419.511	27.58
419.717	27.76
419.923	27.84
420.129	27.86
420.335	27.81
420.541	27.89
420.746	27.89
420.952	27.86
421.158	27.76
421.364	27.86
421.57	28.03
421.776	28.1
421.982	28.05
422.187	28.04
422.393	27.97
422.599	28.03
422.805	28.09
423.01	28.15
423.216	28.25
423.422	28.28
423.628	28.09
423.833	27.88
424.039	27.7
424.245	27.71
424.45	27.6
424.656	27.8
424.862	27.63
425.067	27.58
425.273	27.56
425.478	27.45
425.684	27.33
425.889	27.42
426.095	27.5
426.301	27.65
426.506	27.62
426.712	27.57
426.917	27.44
427.123	27.66
427.328	27.5
427.533	27.42
427.739	27.35
427.944	27.5
428.15	27.53
428.355	27.37
428.561	27.13
428.766	27.02
428.971	27.26
429.177	27.26
429.382	27.1
429.587	27.37
429.793	27.35
429.998	27.4
430.203	27.63
430.408	27.56
430.614	27.86
430.819	28.16
431.024	28.13
431.229	28.14
431.434	27.94
431.64	27.93
431.845	27.95
432.05	27.78
432.255	27.92
432.46	27.74
432.665	27.74
432.87	27.73
433.076	27.43
433.281	27.57
433.486	27.48
433.691	27.52
433.896	27.63
434.101	27.6
434.306	27.65
434.511	27.56
434.716	27.53
434.921	27.75
435.126	27.65
435.331	27.81
435.535	27.75
435.74	27.78
435.945	27.89
436.15	27.86
436.355	28
436.56	28.23
436.765	28.16
436.97	28.15
437.174	27.8
437.379	28.04
437.584	27.91
437.789	28.01
437.993	27.84
438.198	27.89
438.403	27.83
438.608	27.63
438.812	27.59
439.017	27.79
439.222	27.72
439.426	27.82
439.631	27.49
439.836	27.54
440.04	27.51
440.245	27.52
440.45	27.31
440.654	27.31
440.859	27.23
441.063	27.11
441.268	26.97
441.472	27.09
441.677	27.02
441.881	27.26
442.086	27.25
442.29	27.31
442.495	27.47
442.699	27.57
442.904	27.58
443.108	27.5
443.312	27.39
443.517	27.35
443.721	27.36
443.925	27.39
444.13	27.24
444.334	27.27
444.538	27.26
444.743	27.25
444.947	27.29
445.151	27.26
445.356	27.44
445.56	27.55
445.764	27.66
445.968	27.35
446.173	27.31
446.377	27.36
446.581	27.28
446.785	27.12
446.989	27.03
447.193	26.98
447.398	26.85
447.602	26.66
447.806	26.66
448.01	26.52
448.214	26.61
448.418	26.74
448.622	26.67
448.826	26.63
449.03	26.79
449.234	26.81
449.438	26.84
449.642	27.05
449.846	27.04
450.05	27.07
450.254	27.2
450.458	27.39
450.662	27.25
450.866	27.17
451.069	27.38
451.273	27.17
451.477	27.07
451.681	27.05
451.885	26.95
452.089	27.26
452.292	27.07
452.496	27.01
452.7	26.97
452.904	26.93
453.107	27.12
453.311	27.04
453.515	27.13
453.719	27.23
453.922	27.09
454.126	27.04
454.33	26.93
454.533	26.97
454.737	26.97
454.94	26.89
455.144	26.91
455.348	26.73
455.551	26.65
455.755	26.65
455.958	26.63
456.162	26.69
456.365	26.82
456.569	26.82
456.772	26.96
456.976	26.79
457.179	26.98
457.383	26.9
457.586	27.04
457.79	26.99
457.993	26.84
458.196	26.99
458.4	26.94
458.603	26.84
458.807	26.83
459.01	26.71
459.213	26.79
459.417	26.8
459.62	26.83
459.823	26.67
460.026	26.72
460.23	26.77
460.433	26.71
460.636	26.88
460.839	26.85
461.042	26.87
461.246	26.94
461.449	27.04
461.652	27.03
461.855	27
462.058	27.02
462.261	27.22
462.464	27.34
462.668	27.29
462.871	27.13
463.074	27.22
463.277	27.07
463.48	27.06
463.683	26.98
463.886	26.8
464.089	26.89
464.292	27.09
464.495	26.96
464.698	26.83
464.901	27.14
465.104	27.16
465.306	27.07
465.509	27.28
465.712	27.39
465.915	27.45
466.118	27.48
466.321	27.48
466.524	27.52
466.726	27.47
466.929	27.48
467.132	27.23
467.335	27.16
467.538	27.24
467.74	27.12
467.943	26.98
468.146	26.97
468.348	27.2
468.551	27.22
468.754	27.21
468.956	27.16
469.159	27.09
469.362	26.99
469.564	27.16
469.767	27.21
469.969	27.25
470.172	27.26
470.375	27.08
470.577	27.02
470.78	27.13
470.982	26.92
471.185	26.96
471.387	27.25
471.59	27.15
471.792	27.3
471.995	27.32
472.197	27.36
472.399	27.53
472.602	27.82
472.804	27.67
473.007	27.75
473.209	27.97
473.411	27.97
473.614	27.61
473.816	27.99
474.018	27.91
474.22	27.9
474.423	27.95
474.625	27.9
474.827	27.53
475.03	27.41
475.232	27.37
475.434	27.46
475.636	27.6
475.838	27.74
476.04	27.59
476.243	27.38
476.445	27.29
476.647	27.32
476.849	27.23
477.051	27.48
477.253	27.58
477.455	27.56
477.657	27.41
477.859	27.34
478.061	27.64
478.263	27.63
478.465	27.7
478.667	27.9
478.869	27.89
479.071	27.97
479.273	27.93
479.475	28.02
479.677	27.95
479.879	28.06
480.081	28.16
480.283	28.03
480.485	28.04
480.686	28.1
480.888	27.91
481.09	27.84
481.292	27.83
481.494	27.86
481.695	27.68
481.897	27.76
482.099	27.62
482.301	27.54
482.502	27.51
482.704	27.51
482.906	27.51
483.107	27.55
483.309	27.53
483.511	27.49
483.712	27.51
483.914	27.59
484.115	27.59
484.317	27.59
484.519	27.61
484.72	27.6
484.922	27.65
485.123	27.62
485.325	27.61
485.526	27.67
485.728	27.68
485.929	27.67
486.131	27.67
486.332	27.61
486.534	27.56
486.735	27.5
486.936	27.51
487.138	27.43
487.339	27.42
487.541	27.41
487.742	27.38
487.943	27.44
488.144	27.41
488.346	27.43
488.547	27.45
488.748	27.54
488.95	27.59
489.151	27.68
489.352	27.76
489.553	27.8
489.755	27.84
489.956	27.77
490.157	27.66
490.358	27.61
490.559	27.53
490.76	27.54
490.961	27.57
491.163	27.56
491.364	27.53
491.565	27.42
491.766	27.51
491.967	27.46
492.168	27.53
492.369	27.63
492.57	27.7
492.771	27.78
492.972	27.82
493.173	27.82
493.374	27.83
493.575	27.76
493.776	27.76
493.976	27.73
494.177	27.86
494.378	27.92
494.579	27.87
494.78	27.92
494.981	27.82
495.182	27.8
495.382	27.82
495.583	27.72
495.784	27.82
495.985	27.9
496.185	27.78
496.386	27.88
496.587	27.76
496.788	27.62
496.988	27.43
497.189	27.3
497.39	27.24
497.59	27.13
497.791	27.31
497.992	27.32
498.192	27.34
498.393	27.17
498.593	26.93
498.794	27.01
498.994	27.08
499.195	27.29
499.395	27.46
499.596	27.52
499.796	27.59
499.997	27.5
500.197	27.64
500.398	27.66
500.598	27.83
500.799	27.72
500.999	27.73
501.199	27.78
501.4	27.7
501.6	27.65
501.801	27.54
502.001	27.65
502.201	27.62
502.402	27.35
502.602	27.42
502.802	27.48
503.002	27.61
503.203	27.58
503.403	27.5
503.603	27.64
503.803	27.73
504.003	27.85
504.204	27.7
504.404	27.87
504.604	27.87
504.804	27.9
505.004	27.92
505.204	27.9
505.404	27.91
505.604	27.9
505.804	27.69
506.005	27.53
506.205	27.41
506.405	27.39
506.605	27.25
506.805	27.23
507.005	27.02
507.204	26.96
507.404	27.16
507.604	27.26
507.804	27.41
508.004	27.41
508.204	27.53
508.404	27.6
508.604	27.78
508.804	27.89
509.003	27.9
509.203	28.04
509.403	28.14
509.603	28.08
509.803	28.18
510.002	28.11
510.202	28.26
510.402	28.15
510.602	28.13
510.801	27.98
511.001	27.87
511.201	27.87
511.4	27.86
511.6	27.85
511.8	27.82
511.999	27.66
512.199	27.71
512.398	27.71
512.598	27.81
512.797	27.82
512.997	27.95
513.197	27.9
513.396	27.95
513.596	27.92
513.795	27.95
513.994	27.93
514.194	27.91
514.393	27.84
514.593	27.65
514.792	27.75
514.992	27.63
515.191	27.65
515.39	27.72
515.59	27.79
515.789	27.86
515.988	27.81
516.188	27.91
516.387	27.89
516.586	27.93
516.786	27.93
516.985	27.87
517.184	27.92
517.383	27.7
517.582	27.61
517.782	27.55
517.981	27.57
518.18	27.63
518.379	27.71
518.578	27.64
518.777	27.52
518.976	27.55
519.176	27.56
519.375	27.6
519.574	27.69
519.773	27.75
519.972	27.74
520.171	27.61
520.37	27.5
520.569	27.39
520.768	27.49
520.967	27.7
521.166	27.8
521.365	27.85
521.564	27.8
521.762	27.75
521.961	27.8
522.16	27.8
522.359	27.82
522.558	27.9
522.757	27.94
522.956	27.9
523.154	27.84
523.353	27.8
523.552	27.8
523.751	27.85
523.949	27.83
524.148	27.72
524.347	27.82
524.546	27.93
524.744	27.98
524.943	27.9
525.142	27.88
525.34	27.9
525.539	27.91
525.737	27.85
525.936	27.81
526.135	27.86
526.333	27.86
526.532	27.78
526.73	27.67
526.929	27.6
527.127	27.69
527.326	27.59
527.524	27.56
527.723	27.51
527.921	27.5
528.12	27.47
528.318	27.47
528.516	27.45
528.715	27.39
528.913	27.5
529.112	27.52
529.31	27.49
529.508	27.57
529.707	27.57
529.905	27.59
530.103	27.53
530.301	27.52
530.5	27.5
530.698	27.54
530.896	27.62
531.094	27.54
531.293	27.52
531.491	27.51
531.689	27.55
531.887	27.58
532.085	27.59
532.283	27.68
532.481	27.85
532.68	27.88
532.878	27.82
533.076	27.83
533.274	27.76
533.472	27.8
533.67	27.76
533.868	27.66
534.066	27.63
534.264	27.58
534.462	27.61
534.66	27.5
534.858	27.51
535.056	27.58
535.253	27.54
535.451	27.61
535.649	27.61
535.847	27.65
536.045	27.73
536.243	27.81
536.441	27.86
536.638	27.84
536.836	27.92
537.034	27.89
537.232	27.79
537.43	27.96
537.627	27.94
537.825	28.02
538.023	28.14
538.22	28.2
538.418	28.34
538.616	28.43
538.813	28.53
539.011	28.51
539.209	28.54
539.406	28.73
539.604	28.73
539.801	28.81
539.999	28.68
540.196	28.64
540.394	28.6
540.591	28.54
540.789	28.53
540.986	28.63
541.184	28.66
541.381	28.69
541.579	28.74
541.776	28.76
541.974	28.77
542.171	28.86
542.368	28.92
542.566	29.04
542.763	29.07
542.96	29.18
543.158	29.15
543.355	29.28
543.552	29.4
543.75	29.38
543.947	29.42
544.144	29.56
544.341	29.61
544.539	29.69
544.736	29.72
544.933	30.05
545.13	30.15
545.327	30.23
545.524	30.19
545.722	30.27
545.919	30.28
546.116	30.3
546.313	30.18
546.51	30.02
546.707	29.94
546.904	29.84
547.101	29.44
547.298	29.41
547.495	29.4
547.692	29.38
547.889	29.17
548.086	29.1
548.283	29.09
548.48	29.19
548.677	29.25
548.874	29.12
549.07	29.07
549.267	29.19
549.464	28.95
549.661	28.8
549.858	28.67
550.055	28.66
550.251	28.74
550.448	28.49
550.645	28.43
550.842	28.3
551.038	28.44
551.235	28.41
551.432	28.25
551.628	28.26
551.825	28.33
552.022	28.41
552.218	28.39
552.415	28.33
552.612	28.48
552.808	28.4
553.005	28.6
553.201	28.61
553.398	28.83
553.594	28.67
553.791	28.66
553.987	28.52
554.184	28.43
554.38	28.55
554.577	28.56
554.773	28.52
554.97	28.65
555.166	28.66
555.362	28.58
555.559	28.39
555.755	28.62
555.952	28.77
556.148	28.93
556.344	28.94
556.541	28.86
556.737	28.72
556.933	28.68
557.129	28.56
557.326	28.36
557.522	28.38
557.718	28.31
557.914	28.14
558.11	27.96
558.307	27.85
558.503	27.97
558.699	28.08
558.895	28.07
559.091	28.06
559.287	28.11
559.483	28.22
559.679	28.38
559.876	28.59
560.072	28.77
560.268	28.9
560.464	28.88
560.66	28.97
560.856	28.73
561.052	28.99
561.247	29.01
561.443	29.03
561.639	29.06
561.835	28.96
562.031	28.84
562.227	28.77
562.423	28.62
562.619	28.7
562.815	28.54
563.01	28.82
563.206	28.82
563.402	28.91
563.598	28.89
563.793	28.76
563.989	28.76
564.185	28.87
564.381	29.05
564.576	29.1
564.772	29.08
564.968	29.13
565.163	28.99
565.359	28.87
565.555	28.85
565.75	28.82
565.946	28.95
566.141	29.05
566.337	29.04
566.532	28.96
566.728	28.91
566.923	28.81
567.119	28.75
567.314	28.98
567.51	29.19
567.705	29.19
567.901	29.15
568.096	29.13
568.292	29.14
568.487	29.09
568.682	29.06
568.878	29.05
569.073	29.2
569.268	29.35
569.464	29.16
569.659	28.97
569.854	29.03
570.05	29.07
570.245	29.17
570.44	29.02
570.635	29.02
570.831	29.01
571.026	29.01
571.221	28.86
571.416	28.73
571.611	28.78
571.806	28.71
572.002	28.67
572.197	28.75
572.392	28.6
572.587	28.6
572.782	28.6
572.977	28.88
573.172	29
573.367	29.31
573.562	29.44
573.757	29.49
573.952	29.63
574.147	29.73
574.342	29.66
574.537	29.76
574.732	29.65
574.927	29.66
575.121	29.39
575.316	29.63
575.511	29.36
575.706	29.27
575.901	29.22
576.096	29.31
576.29	29.25
576.485	29.25
576.68	29.34
576.875	29.41
577.069	29.88
577.264	29.85
577.459	29.72
577.654	29.76
577.848	29.8
578.043	29.73
578.238	29.59
578.432	29.62
578.627	29.81
578.821	29.87
579.016	30.09
579.21	29.41
579.405	29.86
579.6	29.74
579.794	30.04
579.989	30.03
580.183	30.34
580.378	30.44
580.572	30.39
580.766	30.24
580.961	30.15
581.155	30.16
581.35	30.5
581.544	30.17
581.738	30.36
581.933	30.34
582.127	30.27
582.321	29.78
582.516	29.87
582.71	29.84
582.904	29.75
583.099	29.63
583.293	29.71
583.487	29.49
583.681	29.29
583.875	29.1
584.07	28.94
584.264	29.19
584.458	29.6
584.652	29.29
584.846	29.36
585.04	29.58
585.234	29.48
585.428	29.35
585.623	29.55
585.817	29.84
586.011	29.95
586.205	30.08
586.399	30.14
586.593	30.22
586.787	30.81
586.981	30.82
587.174	30.8
587.368	31.22
587.562	31.24
587.756	31.1
587.95	31
588.144	30.93
588.338	30.82
588.532	30.58
588.725	30.28
588.919	29.95
589.113	29.68
589.307	29.88
589.501	29.68
589.694	29.83
589.888	30.04
590.082	29.96
590.275	29.88
590.469	29.8
590.663	29.83
590.856	29.93
591.05	30.02
591.244	30.45
591.437	30.24
591.631	30.05
591.824	29.8
592.018	29.67
592.212	29.62
592.405	29.67
592.599	29.86
592.792	29.84
592.986	29.73
593.179	29.58
593.372	29.28
593.566	29.4
593.759	29.61
593.953	29.66
594.146	29.78
594.339	29.99
594.533	30.04
594.726	29.78
594.92	29.91
595.113	29.98
595.306	30.05
595.499	30.09
595.693	30
595.886	29.86
596.079	29.92
596.272	30.01
596.466	29.94
596.659	29.9
596.852	29.86
597.045	29.63
597.238	29.56
597.431	29.54
597.624	29.56
597.818	29.27
598.011	29.51
598.204	29.49
598.397	29.38
598.59	29.18
598.783	29.25
598.976	29.44
599.169	29.63
599.362	29.73
599.555	29.84
599.748	29.95
599.941	30.45
600.134	30.23
600.326	30.11
600.519	30.1
600.712	30.31
600.905	30.18
601.098	30.37
601.291	30.45
601.483	30.49
601.676	30.44
601.869	30.41
602.062	30.39
602.255	30.34
602.447	30.3
602.64	30.2
602.833	30.14
603.025	30.3
603.218	30.08
603.411	30.19
603.603	30
603.796	29.74
603.989	29.72
604.181	29.58
604.374	29.56
604.566	29.7
604.759	29.63
604.951	29.83
605.144	29.71
605.336	29.94
605.529	29.82
605.721	30.1
605.914	30.19
606.106	30.2
606.299	30.18
606.491	30.44
606.683	30.46
606.876	30.48
607.068	30.23
607.26	30.25
607.453	29.96
607.645	29.93
607.837	29.8
608.03	29.96
608.222	30.06
608.414	30.27
608.606	30.48
608.799	30.88
608.991	31.13
609.183	31.4
609.375	31.68
609.567	31.75
609.759	32.04
609.952	32.51
610.144	32.85
610.336	33.3
610.528	33.62
610.72	33.69
610.912	33.85
611.104	34.3
611.296	34.55
611.488	34.73
611.68	35.33
611.872	35.39
612.064	35.07
612.256	34.92
612.448	34.73
612.64	34.44
612.832	34.09
613.023	33.83
613.215	33.35
613.407	33.14
613.599	33.03
613.791	32.78
613.983	32.56
614.174	32.67
614.366	32.62
614.558	32.1
614.75	32.18
614.941	32.01
615.133	31.56
615.325	31.55
615.516	31.53
615.708	31.43
615.9	31.31
616.091	31.09
616.283	30.9
616.475	30.75
616.666	31.23
616.858	31.18
617.049	30.97
617.241	31.41
617.432	31.33
617.624	31.09
617.815	31.05
618.007	30.94
618.198	31.12
618.39	30.78
618.581	30.97
618.773	30.9
618.964	30.54
619.155	30.83
619.347	30.74
619.538	30.79
619.729	30.91
619.921	30.69
620.112	30.7
620.303	30.84
620.494	31.31
620.686	31.3
620.877	31.07
621.068	31.33
621.259	31.2
621.451	31.05
621.642	30.95
621.833	30.7
622.024	30.85
622.215	30.76
622.406	30.53
622.597	30.37
622.788	30.45
622.98	30.26
623.171	30.27
623.362	30.3
623.553	30.27
623.744	30.37
623.935	30.43
624.126	29.84
624.317	29.61
624.508	29.75
624.698	29.79
624.889	29.68
625.08	29.9
625.271	29.91
625.462	30.1
625.653	30.03
625.844	30.08
626.034	30.2
626.225	31.06
626.416	31.17
626.607	31
626.798	30.97
626.988	30.85
627.179	30.93
627.37	30.86
627.56	30.68
627.751	30.81
627.942	30.57
628.132	30.45
628.323	30.18
628.514	30.5
628.704	30.61
628.895	30.56
629.085	30.76
629.276	30.81
629.466	30.98
629.657	31.2
629.847	31
630.038	31.28
630.228	31.69
630.419	31.68
630.609	31.45
630.8	31.48
630.99	31.46
631.181	31.31
631.371	31.37
631.561	31.25
631.752	31.16
631.942	31.15
632.132	31
632.323	30.62
632.513	30.38
632.703	30.38
632.893	30.15
633.084	30.2
633.274	30.02
633.464	30.06
633.654	30.08
633.844	29.95
634.034	30.19
634.225	30.34
634.415	30.19
634.605	30.38
634.795	30.66
634.985	30.92
635.175	31.15
635.365	31.47
635.555	31.26
635.745	31.52
635.935	31.59
636.125	31.37
636.315	31.33
636.505	31.51
636.695	31.37
636.885	30.94
637.075	31.04
637.265	30.82
637.455	30.83
637.644	30.82
637.834	30.39
638.024	30.36
638.214	30.34
638.404	30.21
638.593	30.38
638.783	30.18
638.973	30.43
639.163	30.12
639.352	30.19
639.542	29.76
639.732	29.81
639.921	29.97
640.111	29.88
640.301	29.72
640.49	30.01
640.68	29.8
640.87	30.18
641.059	30.2
641.249	30.42
641.438	30.47
641.628	30.74
641.817	30.6
642.007	30.14
642.196	30.19
642.386	30.58
642.575	30.22
642.764	30.53
642.954	30.27
643.143	29.91
643.333	29.63
643.522	29.34
643.711	29.44
643.901	29.8
644.09	30.62
644.279	30.93
644.469	30.52
644.658	30.66
644.847	30.47
645.036	30.58
645.226	30.78
645.415	30.89
645.604	30.8
645.793	30.7
645.982	30.33
646.171	29.83
646.361	30.08
646.55	30.49
646.739	30.31
646.928	30.4
647.117	30.52
647.306	30.13
647.495	29.84
647.684	29.96
647.873	29.83
648.062	29.78
648.251	29.95
648.44	29.86
648.629	29.72
648.818	29.78
649.007	29.83
649.196	29.64
649.384	30.31
649.573	30.9
649.762	31.2
649.951	31.4
650.14	31.62
650.328	31.59
650.517	31.34
650.706	31.22
650.895	31.09
651.083	30.84
651.272	30.84
651.461	30.66
651.65	30.38
651.838	30.34
652.027	30.2
652.216	30.4
652.404	30.25
652.593	30.59
652.781	30.91
652.97	31.05
653.158	31.12
653.347	30.97
653.535	30.73
653.724	30.75
653.912	31.02
654.101	31.01
654.289	30.52
654.478	30.41
654.666	29.75
654.855	29.82
655.043	29.88
655.231	29.79
655.42	29.74
655.608	30.26
655.796	30.62
655.985	30.2
656.173	30.3
656.361	30.44
656.55	30.98
656.738	31.29
656.926	31.37
657.114	31.19
657.302	31.3
657.491	31.67
657.679	31.24
657.867	31
658.055	30.71
658.243	30.62
658.431	30.47
658.619	30.17
658.807	29.85
658.996	29.36
659.184	29.68
659.372	29.72
659.56	29.72
659.748	29.95
659.936	30.16
660.124	30.3
660.311	30.46
660.499	30.68
660.687	30.86
660.875	31.14
661.063	31.32
661.251	31.36
661.439	31.18
661.627	31.25
661.814	31.12
662.002	31.17
662.19	31.23
662.378	31.5
662.565	31.59
662.753	31.65
662.941	31.79
663.129	31.91
663.316	31.44
663.504	31.57
663.692	31.53
663.879	31.31
664.067	30.77
664.254	31.11
664.442	30.58
664.63	30.43
664.817	30.1
665.005	30.22
665.192	30.16
665.38	30.18
665.567	30.07
665.755	30.74
665.942	31.04
666.13	30.85
666.317	30.5
666.504	30.92
666.692	30.63
666.879	30.85
667.067	31.19
667.254	31.05
667.441	31.18
667.629	31.59
667.816	31.49
668.003	31.6
668.19	32.36
668.378	32.28
668.565	32
668.752	32.3
668.939	32.23
669.127	31.86
669.314	32.06
669.501	32.12
669.688	31.62
669.875	31.03
670.062	30.82
670.249	30.12
670.436	30.57
670.623	30.77
670.81	30.94
670.997	30.72
671.184	30.47
671.371	30.63
671.558	30.82
671.745	31.19
671.932	31.46
672.119	31.38
672.306	31.54
672.493	31.2
672.68	30.84
672.867	30.91
673.054	31.24
673.24	31.57
673.427	31.9
673.614	31.79
673.801	32.13
673.988	32.06
674.174	32.52
674.361	32.35
674.548	32.29
674.734	32.45
674.921	32.17
675.108	31.46
675.294	30.95
675.481	30.76
675.668	30.84
675.854	30.27
676.041	29.79
676.227	29.42
676.414	30.02
676.601	30.01
676.787	29.95
676.974	30.07
677.16	30.64
677.347	31.38
677.533	30.87
677.719	30.5
677.906	30.84
678.092	31.31
678.279	30.99
678.465	30.69
678.651	30.77
678.838	30.41
679.024	30.31
679.21	30.3
679.397	29.82
679.583	30.13
679.769	30.24
679.955	29.94
680.142	29.96
680.328	30.23
680.514	29.76
680.7	29.67
680.886	30.35
681.073	30.44
681.259	30.42
681.445	30.38
681.631	30.24
681.817	30.5
682.003	30.4
682.189	30.09
682.375	29.99
682.561	30.71
682.747	30.67
682.933	30.77
683.119	31.11
683.305	31.17
683.491	30.84
683.677	31.08
683.863	30.8
684.049	31.07
684.235	31.43
684.42	31.3
684.606	31.15
684.792	31.67
684.978	30.95
685.164	30.65
685.349	30.59
685.535	31.17
685.721	30.77
685.907	31.05
686.092	31.09
686.278	30.86
686.464	31.42
686.649	31.23
686.835	31.24
687.021	31.6
687.206	31.24
687.392	31.15
687.577	31.2
687.763	31.71
687.948	31.52
688.134	31.31
688.319	31.46
688.505	30.71
688.69	30.86
688.876	30.68
689.061	30.59
689.247	30.72
689.432	30.61
689.618	30.72
689.803	30.6
689.988	30.68
690.174	30.87
690.359	30.14
690.544	31.18
690.73	31.08
690.915	31.3
691.1	31.33
691.285	31.41
691.471	31.64
691.656	31.87
691.841	32.17
692.026	32.44
692.211	32.75
692.396	33.17
692.582	32.74
692.767	32.83
692.952	32.13
693.137	32.42
693.322	32.82
693.507	33.18
693.692	32.56
693.877	32.11
694.062	32.21
694.247	32.18
694.432	33.15
694.617	32.94
694.802	32.85
694.987	33.42
695.172	32.87
695.357	33.52
695.541	33.58
695.726	33.81
695.911	33.85
696.096	33.55
696.281	33.22
696.466	32.83
696.65	32.79
696.835	32.95
697.02	32.59
697.204	32.59
697.389	31.8
697.574	31.76
697.759	31.53
697.943	31.47
698.128	31.59
698.312	31.59
698.497	31.75
698.682	31.68
698.866	31.92
699.051	31.92
699.235	31.96
699.42	31.82
699.604	31.4
699.789	31.63
699.973	31.57
700.158	31.45
700.342	31.55
700.527	31.17
700.711	31.57
700.895	31.54
701.08	31.81
701.264	32.02
701.448	31.92
701.633	32.04
701.817	32.1
702.001	32.76
702.186	32.96
702.37	32.62
702.554	32.28
702.738	31.71
702.923	31.73
703.107	31.54
703.291	31.61
703.475	31.6
703.659	31.76
703.843	31.44
704.027	31.25
704.212	31.03
704.396	31.63
704.58	32.6
704.764	32.57
704.948	32.77
705.132	32.68
705.316	32.31
705.5	32.7
705.684	32.42
705.868	32.45
706.052	32.24
706.235	32.46
706.419	31.93
706.603	31.11
706.787	31.37
706.971	30.86
707.155	30.8
707.339	31.4
707.522	31.68
707.706	31.89
707.89	32.51
708.074	32.69
708.257	31.96
708.441	32.64
708.625	33.01
708.808	33.15
708.992	32.76
709.176	33
709.359	33.12
709.543	32.71
709.727	33.12
709.91	32.52
710.094	32.07
710.277	32.98
710.461	32.67
710.644	32.28
710.828	31.78
711.011	32.41
711.195	32.48
711.378	31.67
711.562	31.86
711.745	31.54
711.928	31.61
712.112	31.84
712.295	31.3
712.478	30.99
712.662	31.63
712.845	32.23
713.028	31.85
713.212	31.83
713.395	32.43
713.578	32.8
713.761	33.15
713.945	33
714.128	32.68
714.311	33.38
714.494	34.01
714.677	33.29
714.86	33.41
715.043	33.52
715.227	33.22
715.41	32.71
715.593	32.3
715.776	32.05
715.959	33.15
716.142	32.84
716.325	31.8
716.508	31.98
716.691	32.25
716.874	31.51
717.057	31.18
717.239	31.42
717.422	31.69
717.605	31.13
717.788	31.36
717.971	30.7
718.154	31.38
718.337	32.26
718.519	31.45
718.702	31.34
718.885	31.52
719.068	32.25
719.25	32.21
719.433	32.18
719.616	33.44
719.798	32.58
719.981	32.03
720.164	31.36
720.346	31.41
720.529	32.44
720.712	32.7
720.894	32.96
721.077	31.69
721.259	31.68
721.442	31.69
721.624	31.49
721.807	32.38
721.989	32.32
722.172	32.36
722.354	32.56
722.537	31.88
722.719	31.54
722.901	31.81
723.084	32.41
723.266	31.97
723.448	31.45
723.631	31.53
723.813	30.52
723.995	31.4
724.178	31.31
724.36	29.94
724.542	30.02
724.724	29.82
724.907	28.65
725.089	28.25
725.271	28.97
725.453	29.87
725.635	28.43
725.817	29.37
725.999	28.76
726.181	29.12
726.364	29.52
726.546	29.77
726.728	31.37
726.91	31.88
727.092	33.39
727.274	33.39
727.456	33.38
727.638	34.01
727.819	33.51
728.001	33.55
728.183	33.64
728.365	34.13
728.547	33.16
728.729	32.37
728.911	32.53
729.093	31.8
729.274	31.23
729.456	30.74
729.638	30.82
729.82	30.92
730.001	30.17
730.183	30.67
730.365	29.71
730.546	29.67
730.728	29.81
730.91	29.47
731.091	29.68
731.273	29.85
731.455	28.94
731.636	28.33
731.818	27.47
731.999	28.44
732.181	28.75
732.362	28.88
732.544	29.3
732.725	28.83
732.907	29.3
733.088	29.02
733.27	29.15
733.451	30.33
733.633	29.93
733.814	31.23
733.995	30.57
734.177	29.62
734.358	29.14
734.539	29.77
734.721	30.25
734.902	30.17
735.083	30.47
735.264	29.5
735.446	28.8
735.627	30.18
735.808	29.11
735.989	30.14
736.17	30.69
736.351	31.69
736.533	30.69
736.714	30.63
736.895	29.82
737.076	30.26
737.257	31.59
737.438	32.13
737.619	32.19
737.8	33.38
737.981	32.89
738.162	31.49
738.343	31.74
738.524	31.86
738.705	31.46
738.886	31.96
739.067	32.03
739.247	31.85
739.428	31.81
739.609	32.04
739.79	31.38
739.971	32.53
740.151	34.21
740.332	33.55
740.513	33.98
740.694	34.34
740.874	33.57
741.055	32.67
741.236	32.3
741.417	31.41
741.597	31.42
741.778	32.21
741.958	29.93
742.139	29.3
742.32	30.04
742.5	30.52
742.681	29.65
742.861	30.5
743.042	31.26
743.222	32.04
743.403	32.87
743.583	32.25
743.764	31.56
743.944	32.87
744.124	33.7
744.305	33.23
744.485	31.89
744.666	32.1
744.846	33.07
745.026	30.94
745.207	29.91
745.387	29.5
745.567	30.24
745.747	30.1
745.928	30.01
746.108	30.09
746.288	30.79
746.468	30.36
746.648	29.95
746.829	28.81
747.009	29.71
747.189	29.07
747.369	28.65
747.549	27.32
747.729	28.39
747.909	29.67
748.089	28.18
748.269	29.61
748.449	32
748.629	32.68
748.809	31.85
748.989	32.54
749.169	33.3
749.349	34.43
749.529	36.17
749.709	35.49
749.889	33.04
750.068	34.18
750.248	32.97
750.428	31.7
750.608	32.51
750.788	33.95
750.967	33.51
751.147	35.78
751.327	35.95
751.507	34.02
751.686	32.95
751.866	33.51
752.046	32.62
752.225	31.18
752.405	31.29
752.585	30.8
752.764	30.03
752.944	29.87
753.123	28.9
753.303	28.61
753.482	28.58
753.662	29.72
753.841	30.63
754.021	30.86
754.2	31.23
754.38	30.93
754.559	30.98
754.739	31.12
754.918	31.71
755.097	30.25
755.277	30.19
755.456	30.53
755.635	30.53
755.815	29.13
755.994	28.14
756.173	28.69
756.352	28.09
756.532	26.86
756.711	27.72
756.89	26.69
757.069	26.25
757.248	26.55
757.427	26.65
757.607	28.02
757.786	28.05
757.965	29.43
758.144	29.12
758.323	29.6
758.502	30.08
758.681	30.57
758.86	31.44
759.039	33.47
759.218	33.04
759.397	32.73
759.576	31.62
759.755	31.34
759.934	30.99
760.113	31.6
760.291	30.9
760.47	31.01
760.649	29.56
760.828	29.9
761.007	28.93
761.186	29.82
761.364	31.94
761.543	30.75
761.722	31.54
761.901	30.92
762.079	30.36
762.258	31.02
762.437	32.51
762.615	32.26
762.794	32.05
762.972	31.33
763.151	30.35
763.33	29.33
763.508	30.13
763.687	30.67
763.865	31.36
764.044	31.12
764.222	31.21
764.401	30.06
764.579	30.14
764.758	30.36
764.936	32.4
765.114	32.73
765.293	33.34
765.471	32.23
765.65	32.16
765.828	31.29
766.006	31.7
766.184	31.49
766.363	31.6
766.541	32.18
766.719	30.82
766.898	28.34
767.076	28.36
767.254	27.31
767.432	29.62
767.61	28.93
767.788	31.45
767.967	31.92
768.145	31.78
768.323	32
768.501	32.17
768.679	32.32
768.857	32.96
769.035	33.71
769.213	34.65
769.391	32.14
769.569	33.05
769.747	30.96
769.925	31.52
770.103	32.63
770.281	30.69
770.459	30.28
770.636	32.35
770.814	32.05
770.992	32.04
771.17	31.19
771.348	33.53
771.525	33.16
771.703	33.84
771.881	34.5
772.059	33.75
772.236	35.04
772.414	35.68
772.592	34.92
772.769	34.71
772.947	33.92
773.125	34.29
773.302	31.78
773.48	31.8
773.657	31.73
773.835	30.45
774.013	29.91
774.19	30.29
774.368	30.35
774.545	29.1
774.723	30
774.9	29.95
775.077	30.12
775.255	32.3
775.432	35.4
775.61	35.45
775.787	34.62
775.964	35.55
776.142	34.46
776.319	33.22
776.496	33.97
776.674	32.97
776.851	32.65
777.028	32.54
777.205	31.74
777.382	26.68
777.56	25.1
777.737	24.95
777.914	24.17
778.091	24.34
778.268	24.88
778.445	25.92
778.622	24.5
778.8	26.08
778.977	26.11
779.154	26.19
779.331	28.22
779.508	26.95
779.685	27.45
779.862	29.94
780.038	29.91
780.215	29.97
780.392	28.9
780.569	30.08
780.746	28.65
780.923	27.36
781.1	26.25
781.277	23.39
781.453	27.35
781.63	27.77
781.807	25.82
781.984	26.69
782.16	27.69
782.337	28.3
782.514	28.84
782.691	28.34
782.867	30.84
783.044	34.9
783.221	37.01
783.397	32.88
783.574	32.64
783.75	35.13
783.927	35.87
784.103	35.45
784.28	34.22
784.456	35.96
784.633	35.11
784.809	33.17
784.986	30.57
785.162	28.64
785.339	31.65
785.515	29.62
785.692	27.89
785.868	26.66
786.044	28.49
786.221	29.49
786.397	26.35
786.573	29.21
786.749	28.29
786.926	28.79
787.102	29.46
787.278	27.05
787.454	27.81
787.631	28.46
787.807	27.57
787.983	23.71
788.159	23.36
788.335	23.9
788.511	23.84
788.687	25.95
788.863	26.44
789.039	26.44
789.216	25.88
789.392	25.66
789.568	25.04
789.744	27.73
789.919	29.88
790.095	32.62
790.271	34.07
790.447	32.46
790.623	29.84
790.799	28.83
790.975	30.32
791.151	32.47
791.327	33.57
791.502	31.58
791.678	29.71
791.854	31.94
792.03	30.32
792.205	28.17
792.381	29.87
792.557	31.21
792.733	30.95
792.908	30.29
793.084	31.8
793.259	33.8
793.435	33.83
793.611	30.32
793.786	27.21
793.962	25.59
794.137	27.42
794.313	25.87
794.488	24.98
794.664	24.62
794.839	24.56
795.015	20.8
795.19	19.88
795.366	18.51
795.541	23.03
795.716	24.38
795.892	25.67
796.067	27.14
796.242	26.4
796.418	25.28
796.593	27.32
796.768	28.6
796.944	30.44
797.119	30.02
797.294	31.58
797.469	31.48
797.644	29.04
797.82	28.59
797.995	26.03
798.17	28.46
798.345	32.5
798.52	30.59
798.695	29.15
798.87	30.48
799.045	30.99
799.22	32.46
799.395	30.41
799.57	32.41
799.745	32.39
799.92	31.61
800.095	30.6
800.27	29.49
800.445	30.41
800.62	28.3
800.795	26.21
800.97	23.89
801.145	22.94
801.319	23.77
801.494	23.7
801.669	25.44
801.844	24.91
802.018	27.48
802.193	27.79
802.368	24.45
802.543	31.51
802.717	35.22
802.892	37.31
803.067	37.16
803.241	36.08
803.416	37.12
803.59	35.61
803.765	36.51
803.94	34.47
804.114	32.87
804.289	35.34
804.463	29.33
804.638	23.3
804.812	22.49
804.986	20.63
805.161	20.13
805.335	16.46
805.51	16.89
805.684	14.6
805.858	19.51
806.033	20.93
806.207	20.53
806.381	23.02
806.556	25.93
806.73	21.74
806.904	26.43
807.078	27.1
807.253	29.49
807.427	30.79
807.601	29.71
807.775	24.26
807.949	22.91
808.123	24.03
808.298	23.05
808.472	21.72
808.646	28.68
808.82	23.12
808.994	22.87
809.168	20.99
809.342	16.01
809.516	20.61
809.69	19.76
809.864	21.92
810.038	22.91
810.212	23.77
810.385	24.24
810.559	21.9
810.733	26.05
810.907	28.29
811.081	28.84
811.255	32.85
811.428	32.96
811.602	34.74
811.776	33.57
811.95	36.99
812.123	35.41
812.297	30.54
812.471	31.44
812.644	25.34
812.818	26.27
812.992	30.1
813.165	28.37
813.339	29.37
813.512	29.79
813.686	31.84
813.86	27.59
814.033	31.16
814.207	37.21
814.38	35.13
814.554	39.86
814.727	40.48
814.9	37.18
815.074	36.75
815.247	35.37
815.421	36.17
815.594	35.81
815.767	36.3
815.941	36.5
816.114	35.57
816.287	37.55
816.46	36.73
816.634	36.49
816.807	35.06
816.98	36.03
817.153	36.23
817.327	37.41
817.5	38.86
817.673	38.63
817.846	35.24
818.019	36.74
818.192	34.81
818.365	36.19
818.538	34.32
818.711	36.83
818.884	36.36
819.057	35.65
819.23	31.57
819.403	26.29
819.576	26.26
819.749	27.11
819.922	26.06
820.095	27.59
820.268	27.07
820.441	28.04
820.614	26.77
820.786	26.16
820.959	26.49
821.132	26.94
821.305	29.61
821.477	29.53
821.65	29.39
821.823	30.53
821.996	31.31
822.168	30.88
822.341	30.43
822.514	31.53
822.686	31.46
822.859	31.82
823.031	31.76
823.204	31.26
823.376	31.55
823.549	31.62
823.722	31.45
823.894	31.12
824.067	30.62
824.239	31.45
824.411	30.4
824.584	30.98
824.756	31.4
824.929	32.18
825.101	32.23
825.273	31.46
825.446	32.22
825.618	31.48
825.79	31.49
825.963	32.07
826.135	30.53
826.307	31
826.479	30.77
826.652	28.67
826.824	30.23
826.996	30.76
827.168	31.36
827.34	30.77
827.512	32.74
827.684	32.3
827.856	33.18
828.029	34.03
828.201	34.91
828.373	35.38
828.545	36.21
828.717	35.73
828.889	36.88
829.061	37.45
829.232	37.07
829.404	32.87
829.576	32.46
829.748	30.66
829.92	33.09
830.092	29.68
830.264	27.52
830.436	25.69
830.607	22.33
830.779	16.28
830.951	15.08
831.123	15.42
831.294	18.24
831.466	18.89
831.638	21.21
831.809	18.65
831.981	22.26
832.153	25.63
832.324	26.65
832.496	30.31
832.667	33.03
832.839	33.34
833.011	35.85
833.182	34.8
833.354	36.41
833.525	36.86
833.697	34.79
833.868	31.56
834.039	31.82
834.211	32.47
834.382	30.13
834.554	30.82
834.725	30.6
834.896	28.84
835.068	28.83
835.239	29.13
835.41	28.67
835.581	29.44
835.753	32.6
835.924	29.5
836.095	30.14
836.266	28.96
836.438	28.89
836.609	29.23
836.78	29.56
836.951	29.45
837.122	26.27
837.293	23.49
837.464	27.59
837.635	26.77
837.806	30.05
837.977	31.79
838.148	31.7
838.319	32.79
838.49	31.27
838.661	34.07
838.832	37.2
839.003	41.79
839.174	43.28
839.345	35.27
839.516	35.45
839.687	32.23
839.857	23.68
840.028	26.75
840.199	27.53
840.37	27
840.54	29.23
840.711	21.84
840.882	24.34
841.053	28.01
841.223	28.23
841.394	29.6
841.564	29.06
841.735	38.02
841.906	44.49
842.076	39.96
842.247	39.2
842.417	31.74
842.588	30.87
842.758	33.15
842.929	23.85
843.099	27.28
843.27	15.14
843.44	21.36
843.611	17.32
843.781	7.46
843.951	14.04
844.122	15.41
844.292	31.27
844.462	40.44
844.633	16.82
844.803	29.61
844.973	29.9
845.144	40.12
845.314	29.95
845.484	14.28
845.654	24.48
845.824	11.93
845.995	18.02
846.165	-7.97
846.335	-16.64
846.505	0.21
846.675	2.65
846.845	20.54
847.015	15.06
847.185	16.96
847.355	50.39
847.525	33.17
847.695	54.4
847.865	48.41
848.035	66.63
848.205	66.1
848.375	84.69
848.545	58.86
848.715	44.35
848.884	48.19
849.054	52.35
849.224	55.03
849.394	54.83
849.564	61.09
849.733	51.48
849.903	52.39
850.073	45.01
850.243	29.07
850.412	40.04
850.582	31.77
850.752	14.13
850.921	10.63
851.091	13.35
851.26	21.09
851.43	21.05
851.599	27.59
851.769	5.73
851.939	9.54
852.108	29.37
852.278	14.52
852.447	-6.67
852.616	16.07
852.786	41.8
852.955	8.76
853.125	-23.43
853.294	-22.67
853.463	-47.09
853.633	-1.17
853.802	14.07
853.971	14.18
854.141	6.93
854.31	34.62
854.479	14.35
854.648	25.74
854.818	27.55
854.987	36.26
855.156	32.01
855.325	47.44
855.494	56.01
855.663	49.75
855.832	43.47
856.001	54.25
856.171	36.13
856.34	49.84
856.509	32.42
856.678	53.93
856.847	43.06
857.016	43.71
857.185	31.44
857.353	37.75
857.522	40.43
857.691	45.15
857.86	57.47
858.029	65.38
858.198	75.77
858.367	86.25
858.535	49.4
858.704	48.47
858.873	45.59
859.042	53.74
859.21	52.21
859.379	53.17
859.548	30.49
859.717	14.68
859.885	13.25
860.054	3.84
860.222	6.39
860.391	-1.54
860.56	-7.36
860.728	26.42
860.897	23.09
861.065	15.88
861.234	22.77
861.402	48.17
861.571	73.22
861.739	70.01
861.908	78.16
862.076	70.53
862.244	76.86
862.413	83.66
862.581	57.09
862.749	10.4
862.918	-2.29
863.086	-2.89
863.254	-17.65
863.423	-47.06
863.591	-44.03
863.759	-96.14
863.927	-92.35
864.096	-107.77
864.264	-78.46
864.432	-30.33
864.6	-1.51
864.768	22.69
864.936	10.19
865.104	29.08
865.272	38.56
865.44	27.98
865.608	20.95
865.776	37.33
865.944	55.47
866.112	60.05
866.28	68.37
866.448	81.71
866.616	70.41
866.784	67.49
866.952	45.03
867.12	76.12
867.288	96.89
867.455	101.16
867.623	66.13
867.791	56.27
867.959	63.02
868.127	54.45
868.294	11.56
868.462	15.79
868.63	21.26
868.797	17.45
868.965	1.72
869.133	-1.2
869.3	8.4
869.468	18.72
869.636	25.52
869.803	20.62
869.971	24.41
870.138	47.28
870.306	31.56
870.473	34.36
870.641	37.06
870.808	58.05
870.975	66.18
871.143	71.78
871.31	65.3
871.478	40.27
871.645	40.87
871.812	50.74
871.98	56.99
872.147	57.55
872.314	53.98
872.482	58.28
872.649	47.78
872.816	43.97
872.983	39.49
873.15	40.06
873.318	54.18
873.485	48.57
873.652	50.73
873.819	39
873.986	33.39
874.153	35.79
874.32	28.68
874.487	21.18
874.654	17.01
874.821	18.99
874.988	24
875.155	23.13
875.322	17.02
875.489	14.21
875.656	17.37
875.823	20.1
875.99	25.76
876.157	37.08
876.324	33.43
876.49	42.65
876.657	50.18
876.824	24.04
876.991	25.29
877.157	42.11
877.324	30.26
877.491	33.91
877.658	58.13
877.824	34.63
877.991	39.27
878.157	46.05
878.324	24
878.491	27.92
878.657	42.56
878.824	33.97
878.99	27.42
879.157	18.85
879.323	13.52
879.49	6.18
879.656	10.51
879.823	-6.13
879.989	-5.05
880.156	-7.23
880.322	-6.67
880.488	-24.59
880.655	-22.48
880.821	-36.74
880.987	-35.01
881.154	-20.36
881.32	-18.26
881.486	-11.53
881.652	2.73
881.819	10.02
881.985	19.81
882.151	21.64
882.317	26.93
882.483	26.03
882.649	26.45
882.816	32.06
882.982	31.18
883.148	32.86
883.314	34.49
883.48	37.32
883.646	38.3
883.812	39.3
883.978	38.13
884.144	39.19
884.31	38.1
884.476	39.2
884.642	36.96
884.807	40.2
884.973	37.35
885.139	34.49
885.305	30.29
885.471	30.85
885.637	27.97
885.802	28.24
885.968	25.07
886.134	26.59
886.3	29.06
886.465	25.88
886.631	21.25
886.797	18.43
886.962	16.03
887.128	23.49
887.293	14.94
887.459	29.37
887.625	25.32
887.79	25.44
887.956	25.12
888.121	17.49
888.287	24.4
888.452	26.9
888.618	31.56
888.783	45.02
