Data from 2938095_Reflection_2.txt Node
Date: Sat Jul 11 19:04:54 EDT 2015
User: robert
Spectrometer: USB4E03001
Autoset integration time: false
Trigger mode: 4
Integration Time (sec): 1.000000E-1
Scans to average: 10
Electric dark correction enabled: true
Nonlinearity correction enabled: false
Boxcar width: 5
Stray light correction enabled: false
XAxis mode: Wavelengths
Stop averaging: false
Number of Pixels in Spectrum: 3648
>>>>>Begin Spectral Data<<<<<
177.566	79.53
177.785	66.78
178.005	83.92
178.225	130.36
178.445	36.73
178.665	-315.68
178.885	190.89
179.105	70.26
179.324	25.64
179.544	53.9
179.764	37.81
179.984	63.29
180.204	38.21
180.423	-76.92
180.643	252.2
180.863	169.3
181.083	166.42
181.302	151.82
181.522	224.72
181.742	-423.69
181.961	-67.19
182.181	-662.02
182.401	-758.36
182.621	246.39
182.84	11.47
183.06	95.19
183.279	134.67
183.499	157.84
183.719	71.45
183.938	28.72
184.158	23.58
184.377	49.4
184.597	43.7
184.816	19.09
185.036	21.2
185.256	19.03
185.475	10.83
185.695	5.74
185.914	13.22
186.134	16.74
186.353	29.46
186.572	6.74
186.792	-12.47
187.011	12.01
187.231	19.66
187.45	20.29
187.67	33.52
187.889	52.12
188.108	55.84
188.328	55.11
188.547	48.27
188.766	31.14
188.986	44.22
189.205	47.38
189.424	44.71
189.644	51.43
189.863	47.56
190.082	46.12
190.302	18.06
190.521	26.22
190.74	13.99
190.959	-172.26
191.178	384.02
191.398	870.33
191.617	543.69
191.836	385.07
192.055	86.2
192.274	287.73
192.494	220.58
192.713	202.14
192.932	203
193.151	152.02
193.37	187.64
193.589	182.49
193.808	122.85
194.027	93.01
194.246	427.88
194.465	-86.54
194.685	41.23
194.904	-29.9
195.123	0.89
195.342	-328.4
195.561	33.68
195.78	4.78
195.999	76.88
196.218	136.94
196.436	86.35
196.655	68.2
196.874	95.83
197.093	68.5
197.312	61.7
197.531	84.12
197.75	60.92
197.969	56.43
198.188	34.54
198.407	54.67
198.625	41.62
198.844	48
199.063	57.34
199.282	59.12
199.501	59.27
199.719	65.95
199.938	34.5
200.157	38.88
200.376	39.3
200.594	19.21
200.813	-30.63
201.032	-158.49
201.251	-178.57
201.469	-161.14
201.688	-339.12
201.907	-285.02
202.125	-142.9
202.344	-260.55
202.563	-425.73
202.781	-646.8
203	-457.77
203.218	-427.65
203.437	-313.41
203.656	-537.42
203.874	-1863.99
204.093	-165.15
204.311	-439.44
204.53	11681.54
204.748	-2446.15
204.967	-216.29
205.185	-448.31
205.404	-711.81
205.622	-109.01
205.841	-9.48
206.059	-2.48
206.278	2.11
206.496	-43.41
206.715	-43.05
206.933	17.32
207.151	36.53
207.37	-101.38
207.588	-49.76
207.806	89.81
208.025	116.06
208.243	239.1
208.461	-142.14
208.68	-44.14
208.898	70.37
209.116	-76.92
209.335	283.11
209.553	-22.33
209.771	34.73
209.989	30.98
210.208	149.95
210.426	-593.67
210.644	121.25
210.862	757.49
211.081	-348.26
211.299	8697.44
211.517	-595.93
211.735	510.88
211.953	261.1
212.171	342.52
212.39	157.48
212.608	89.1
212.826	90.57
213.044	91.15
213.262	85.76
213.48	72.12
213.698	62.68
213.916	56.12
214.134	80.55
214.352	90.49
214.57	114.63
214.788	122.07
215.006	117.98
215.224	107.73
215.442	135.71
215.66	100.73
215.878	115.93
216.096	115.86
216.314	145.94
216.532	87.4
216.75	75.32
216.968	24.49
217.185	26.17
217.403	29.03
217.621	51.53
217.839	74.57
218.057	104.18
218.275	102.85
218.492	74.56
218.71	59.06
218.928	68.06
219.146	74.54
219.363	88.25
219.581	71.88
219.799	74.54
220.017	83.07
220.234	32.95
220.452	-28.86
220.67	16.6
220.887	54.03
221.105	75.67
221.323	58.15
221.54	62.78
221.758	52.9
221.976	59.57
222.193	49.99
222.411	54.24
222.629	58.88
222.846	75.42
223.064	60.45
223.281	38.54
223.499	36.97
223.716	45.07
223.934	32.89
224.151	28.04
224.369	18.9
224.586	42.49
224.804	21.72
225.021	33.5
225.239	-8.42
225.456	14.96
225.674	9.08
225.891	12.03
226.108	17.44
226.326	45.57
226.543	17.55
226.76	16.69
226.978	5.82
227.195	11.56
227.413	5.85
227.63	6.55
227.847	7
228.064	7.57
228.282	8.98
228.499	6.57
228.716	2.59
228.934	6.83
229.151	8.98
229.368	8.49
229.585	6.5
229.802	8.5
230.02	11.22
230.237	11.74
230.454	9.41
230.671	8.62
230.888	8.58
231.105	12.88
231.323	15.4
231.54	15.85
231.757	20.73
231.974	19.86
232.191	16.57
232.408	20.39
232.625	21.98
232.842	28.79
233.059	23.84
233.276	26.53
233.493	19.22
233.71	20.48
233.927	24.28
234.144	16.83
234.361	16.72
234.578	19.57
234.795	13.29
235.012	2.86
235.229	1.92
235.446	2.56
235.663	-4.79
235.879	0.92
236.096	0.18
236.313	0.92
236.53	2.59
236.747	6.1
236.964	3.33
237.181	4.14
237.397	10.47
237.614	9.44
237.831	12.73
238.048	19.92
238.264	22.29
238.481	26.45
238.698	24.63
238.915	23.1
239.131	22.56
239.348	23.18
239.565	21.45
239.781	17.75
239.998	21.24
240.215	20.92
240.431	17.26
240.648	12.7
240.865	8.58
241.081	9.11
241.298	7.33
241.514	6.57
241.731	6.46
241.947	7
242.164	8.36
242.38	8.44
242.597	9.8
242.814	9.65
243.03	10.28
243.246	12.48
243.463	11.84
243.679	11.67
243.896	12.22
244.112	12.7
244.329	14.22
244.545	14.3
244.762	13.22
244.978	10.78
245.194	12.25
245.411	13.83
245.627	12.24
245.843	10.24
246.06	10.41
246.276	10.83
246.492	10.62
246.709	8.38
246.925	8.09
247.141	9.16
247.357	9.72
247.574	9.5
247.79	9.29
248.006	8.68
248.222	9.37
248.439	9.29
248.655	9.08
248.871	9.05
249.087	9.63
249.303	10.14
249.519	9.5
249.736	8.48
249.952	7.35
250.168	5.78
250.384	5.72
250.6	4.91
250.816	5.16
251.032	7.41
251.248	9.37
251.464	9.51
251.68	9.43
251.896	9.2
252.112	9.69
252.328	10.84
252.544	10.31
252.76	11.51
252.976	11.28
253.192	12.47
253.408	10.5
253.624	9.22
253.84	8.25
254.056	10.26
254.272	10.86
254.487	9.47
254.703	10.37
254.919	10.26
255.135	6.38
255.351	7.47
255.567	3.29
255.782	1.39
255.998	-2.15
256.214	-0.28
256.43	-2.22
256.646	-2.67
256.861	-1.35
257.077	-1.87
257.293	-0.69
257.508	3.92
257.724	5.98
257.94	5.81
258.155	8.29
258.371	10.55
258.587	11.42
258.802	11.2
259.018	9.35
259.234	10.4
259.449	9.22
259.665	9.3
259.88	8.09
260.096	7.76
260.312	7.86
260.527	7.54
260.743	7.72
260.958	8.2
261.174	7.45
261.389	8.52
261.605	7.78
261.82	9.31
262.036	9.86
262.251	10.21
262.466	9.2
262.682	12.2
262.897	13.25
263.113	13
263.328	9.51
263.543	11.52
263.759	12.55
263.974	13.3
264.189	10.58
264.405	8.84
264.62	12.24
264.835	15.51
265.051	13.88
265.266	11.86
265.481	12.28
265.696	13.52
265.912	13.09
266.127	11.42
266.342	10.02
266.557	9.7
266.773	9.66
266.988	6.52
267.203	3.72
267.418	3.48
267.633	5.16
267.848	4.47
268.064	2.61
268.279	1.46
268.494	1.43
268.709	5.06
268.924	6.35
269.139	6.5
269.354	8.24
269.569	10.18
269.784	9.55
269.999	10.13
270.214	9.93
270.429	11.47
270.644	10.91
270.859	10.11
271.074	7.61
271.289	7.65
271.504	9.2
271.719	8.66
271.934	8.11
272.149	8.97
272.363	7.8
272.578	7.61
272.793	8.31
273.008	11.01
273.223	10.02
273.438	9.07
273.653	9.03
273.867	8.57
274.082	9.3
274.297	9.7
274.512	8.49
274.726	8.35
274.941	8.18
275.156	9.41
275.371	7.28
275.585	10.12
275.8	9.69
276.015	10.73
276.229	8.06
276.444	7.44
276.659	7.95
276.873	11
277.088	11.48
277.302	13.09
277.517	12.42
277.732	12.5
277.946	11.61
278.161	13.12
278.375	11.81
278.59	15.62
278.804	15.66
279.019	15.87
279.233	14.91
279.448	14.45
279.662	12.01
279.877	12.42
280.091	10.92
280.306	10.21
280.52	10.51
280.735	11.3
280.949	9.56
281.163	9.18
281.378	8.32
281.592	8.1
281.806	8.64
282.021	8.9
282.235	9.95
282.449	9.92
282.664	11.05
282.878	11.35
283.092	9.19
283.307	8.87
283.521	10.13
283.735	10.46
283.949	9.79
284.164	10.13
284.378	9.86
284.592	7.38
284.806	7.94
285.02	6.54
285.234	5.51
285.449	7.1
285.663	6.09
285.877	5
286.091	4.82
286.305	4.78
286.519	3.11
286.733	3.45
286.947	3.46
287.161	3.3
287.375	3.43
287.589	3.5
287.803	1.8
288.017	5.02
288.231	6.54
288.445	4.96
288.659	4.99
288.873	6.54
289.087	7.39
289.301	7.32
289.515	7.13
289.729	7.75
289.943	7.12
290.157	7.71
290.371	4.86
290.584	4.11
290.798	4.87
291.012	4.89
291.226	4.64
291.44	3.5
291.654	4.91
291.867	4.31
292.081	5.35
292.295	6.07
292.509	6.77
292.722	9
292.936	9.38
293.15	9.3
293.364	8.84
293.577	9.17
293.791	9.47
294.005	7.73
294.218	9.12
294.432	6.25
294.645	7.6
294.859	6.96
295.073	7.01
295.286	5.5
295.5	7.21
295.713	7.49
295.927	7.31
296.14	7.64
296.354	9.03
296.568	8.86
296.781	9.98
296.994	9.66
297.208	9.23
297.421	8.66
297.635	9.21
297.848	7.91
298.062	8.1
298.275	7.79
298.489	8.18
298.702	7.1
298.915	7.4
299.129	7.82
299.342	7.79
299.555	8.24
299.769	8.34
299.982	8.53
300.195	9.49
300.409	10.88
300.622	9.02
300.835	9.68
301.048	10.08
301.262	9.12
301.475	8.28
301.688	7.14
301.901	6.14
302.115	7.04
302.328	6.19
302.541	5.34
302.754	4.99
302.967	8.78
303.18	8.16
303.393	8.54
303.607	9.85
303.82	9.43
304.033	9.59
304.246	12.47
304.459	10.96
304.672	11.5
304.885	11.92
305.098	10.79
305.311	9.13
305.524	8.54
305.737	9.37
305.95	9.73
306.163	10.62
306.376	10.09
306.589	7.73
306.802	8.76
307.015	8.22
307.228	8.72
307.44	7.29
307.653	5.64
307.866	7.05
308.079	6.44
308.292	6.19
308.505	6.71
308.718	6.2
308.93	6.53
309.143	5.59
309.356	5.81
309.569	6.17
309.781	7.49
309.994	9.79
310.207	8.49
310.42	8.45
310.632	7.5
310.845	6.65
311.058	7.03
311.27	7.85
311.483	8.32
311.696	9.04
311.908	8.78
312.121	7.89
312.333	7.91
312.546	9.49
312.759	9.63
312.971	9.23
313.184	9.71
313.396	10.84
313.609	9.52
313.821	11.57
314.034	12.22
314.246	12.52
314.459	12.75
314.671	13.13
314.884	11.55
315.096	9.67
315.309	10.66
315.521	11.38
315.733	10.28
315.946	11.42
316.158	9.06
316.371	7.95
316.583	7.21
316.795	8.16
317.008	6.39
317.22	6.33
317.432	6.84
317.644	5.73
317.857	4.94
318.069	4.72
318.281	4.58
318.494	3.12
318.706	3.19
318.918	1.44
319.13	1.44
319.342	1.05
319.555	2.53
319.767	4.52
319.979	5.66
320.191	7.34
320.403	9.16
320.615	10.23
320.827	11.03
321.039	12.13
321.252	11.73
321.464	10.63
321.676	11.73
321.888	11.99
322.1	11.58
322.312	12.37
322.524	10.86
322.736	10
322.948	9.43
323.16	9.66
323.372	9.51
323.584	11.62
323.796	10.35
324.007	10.7
324.219	9.38
324.431	10.48
324.643	9.39
324.855	9.08
325.067	8.58
325.279	9.04
325.491	9.61
325.702	8.67
325.914	9.25
326.126	11.4
326.338	9.26
326.55	8.84
326.761	6.77
326.973	7.35
327.185	5.9
327.396	5.9
327.608	4.25
327.82	5.65
328.032	4.91
328.243	2.96
328.455	3.09
328.666	4.68
328.878	5.66
329.09	5.56
329.301	5.18
329.513	6.22
329.725	6.28
329.936	7.89
330.148	7.37
330.359	9.37
330.571	9.81
330.782	9.41
330.994	9.96
331.205	9.52
331.417	10.66
331.628	10.99
331.84	11.63
332.051	11.51
332.262	11.19
332.474	8.99
332.685	7.55
332.897	7.86
333.108	9.18
333.319	8.88
333.531	8.98
333.742	8.65
333.953	9.52
334.165	9.56
334.376	9.88
334.587	9.91
334.799	12.18
335.01	13.39
335.221	12.56
335.432	11.74
335.644	11.94
335.855	12.47
336.066	12.09
336.277	10.9
336.488	11.23
336.7	11.69
336.911	11.61
337.122	9.7
337.333	9.67
337.544	9.9
337.755	7.69
337.966	6.95
338.177	6.3
338.388	5.74
338.599	6.18
338.811	5.62
339.022	4.27
339.233	3.62
339.444	4.65
339.655	4.55
339.866	4.29
340.076	5.7
340.287	5.22
340.498	5.69
340.709	7.33
340.92	6.78
341.131	6.37
341.342	7.59
341.553	7.52
341.764	7.13
341.975	7.75
342.185	7.91
342.396	8.09
342.607	9.28
342.818	8.55
343.029	7.98
343.239	9.43
343.45	12.09
343.661	11.3
343.872	10.95
344.082	11.9
344.293	10.85
344.504	11.19
344.714	11.03
344.925	9.04
345.136	9.38
345.346	8.21
345.557	6.15
345.768	3.31
345.978	3.88
346.189	4.56
346.399	3.24
346.61	2.79
346.821	3.15
347.031	3.27
347.242	5.36
347.452	6.39
347.663	6.1
347.873	8.94
348.084	9.53
348.294	10.22
348.504	10.64
348.715	11.8
348.925	11.44
349.136	11.27
349.346	11.09
349.557	10.65
349.767	10.22
349.977	11.83
350.188	9.15
350.398	8.52
350.608	7.46
350.819	8.14
351.029	7.2
351.239	7.25
351.449	8.25
351.66	8.53
351.87	8.27
352.08	7.27
352.29	6.87
352.501	7.15
352.711	7.52
352.921	8.18
353.131	6.61
353.341	6.29
353.552	7.68
353.762	6.68
353.972	6.71
354.182	7.28
354.392	7.67
354.602	8.95
354.812	9.91
355.022	9.92
355.232	9.14
355.442	9.95
355.652	10.65
355.862	9.49
356.072	9.3
356.282	9.22
356.492	8.69
356.702	8.54
356.912	7
357.122	6.86
357.332	6.46
357.542	7.93
357.752	7.54
357.962	7.21
358.171	7.88
358.381	8.46
358.591	8.55
358.801	7.96
359.011	7.51
359.221	7.76
359.43	8.06
359.64	7.79
359.85	6.92
360.06	6.87
360.269	6.41
360.479	5.73
360.689	4.7
360.899	4.42
361.108	4.46
361.318	5.14
361.528	5.37
361.737	3.94
361.947	4.31
362.156	4.06
362.366	4.45
362.576	5.17
362.785	5.98
362.995	6.37
363.204	6.76
363.414	6.9
363.623	6.02
363.833	6.29
364.042	7.13
364.252	6.77
364.461	7.77
364.671	6.96
364.88	6.23
365.09	4.91
365.299	5.49
365.509	4.83
365.718	4.76
365.927	5.64
366.137	5.71
366.346	4.51
366.555	4.69
366.765	3.78
366.974	3.71
367.183	3.46
367.393	4.6
367.602	4.41
367.811	5.24
368.021	4.94
368.23	4.33
368.439	3.69
368.648	5.58
368.857	6.17
369.067	5.97
369.276	6.57
369.485	6.61
369.694	6.03
369.903	5.65
370.112	5.85
370.321	6.42
370.531	6.86
370.74	7.07
370.949	6.06
371.158	6.44
371.367	6.21
371.576	6.39
371.785	7.31
371.994	7.23
372.203	7.89
372.412	7.7
372.621	7.46
372.83	6.88
373.039	6.94
373.248	7.52
373.457	6.57
373.666	6.86
373.874	6.67
374.083	6.23
374.292	5.97
374.501	5.82
374.71	4.58
374.919	4.16
375.128	4.77
375.336	4.14
375.545	3.97
375.754	4.58
375.963	4.66
376.171	4.75
376.38	4.28
376.589	4.56
376.798	3.87
377.006	5
377.215	5.7
377.424	5.57
377.632	5.99
377.841	5.7
378.05	5.95
378.258	6.12
378.467	5.85
378.675	6.71
378.884	7.21
379.093	6.94
379.301	6.63
379.51	6.63
379.718	6.21
379.927	5.47
380.135	5.09
380.344	4.44
380.552	4.47
380.761	4.64
380.969	3.57
381.177	3.19
381.386	3.68
381.594	3.89
381.803	3.96
382.011	3.97
382.219	4.58
382.428	4.9
382.636	5.27
382.845	4.72
383.053	4.52
383.261	4.3
383.469	3.91
383.678	3.44
383.886	2.9
384.094	1.94
384.302	2
384.511	2.08
384.719	2.1
384.927	1.72
385.135	2.1
385.343	2.14
385.552	2.57
385.76	2.49
385.968	2.69
386.176	2.13
386.384	2.73
386.592	2.71
386.8	2.31
387.008	2.41
387.216	2.19
387.424	1.49
387.633	1.47
387.841	0.96
388.049	1.07
388.257	1.38
388.465	2.25
388.672	2.27
388.88	2.58
389.088	2.86
389.296	2.73
389.504	2.89
389.712	3.37
389.92	3.3
390.128	3.75
390.336	4.1
390.544	3.83
390.751	3.83
390.959	3.99
391.167	3.66
391.375	3.45
391.583	3.66
391.79	3.89
391.998	3.83
392.206	3.62
392.414	3.55
392.621	3.34
392.829	3.35
393.037	3.68
393.244	3.27
393.452	3.3
393.66	3.34
393.867	3.26
394.075	3.04
394.283	2.94
394.49	3.05
394.698	3.08
394.905	3.02
395.113	3.12
395.32	2.52
395.528	2.24
395.735	2.28
395.943	2.67
396.15	2.64
396.358	2.72
396.565	2.94
396.773	3.02
396.98	3.02
397.188	3.16
397.395	2.8
397.602	2.86
397.81	3.2
398.017	3.21
398.225	2.75
398.432	2.8
398.639	2.97
398.847	2.74
399.054	2.34
399.261	2.34
399.468	2.13
399.676	2.31
399.883	2.19
400.09	1.87
400.297	1.88
400.505	1.98
400.712	1.63
400.919	1.84
401.126	1.89
401.333	2.06
401.54	1.53
401.748	1.58
401.955	1.53
402.162	1.59
402.369	2.05
402.576	2.09
402.783	2.29
402.99	2.74
403.197	2.21
403.404	2.22
403.611	2.3
403.818	2.65
404.025	2.59
404.232	2.73
404.439	2.92
404.646	2.75
404.853	2.74
405.06	2.67
405.267	2.39
405.474	2.44
405.681	2.4
405.887	2.28
406.094	2.37
406.301	2.4
406.508	2.44
406.715	2.22
406.922	2
407.128	1.92
407.335	1.75
407.542	1.88
407.749	2.35
407.955	2.24
408.162	2.24
408.369	2.15
408.575	1.98
408.782	1.6
408.989	1.57
409.195	1.66
409.402	1.7
409.609	1.83
409.815	1.47
410.022	0.86
410.228	1.01
410.435	1.26
410.642	1.28
410.848	1.52
411.055	1.73
411.261	1.87
411.468	2.27
411.674	2.29
411.881	2.17
412.087	2.63
412.294	2.89
412.5	2.78
412.706	2.79
412.913	2.81
413.119	2.86
413.326	2.87
413.532	2.94
413.738	2.83
413.945	2.84
414.151	2.92
414.357	2.74
414.564	2.47
414.77	2.42
414.976	2.29
415.182	2.24
415.389	2.27
415.595	2.58
415.801	2.21
416.007	2.29
416.214	2.33
416.42	2.21
416.626	2.25
416.832	2.26
417.038	2.47
417.244	2.55
417.45	2.65
417.657	2.51
417.863	2.28
418.069	2.47
418.275	2.26
418.481	2.26
418.687	2.36
418.893	2.12
419.099	2.21
419.305	2.12
419.511	2.06
419.717	2.02
419.923	1.99
420.129	1.9
420.335	2.04
420.541	2.08
420.746	1.94
420.952	1.9
421.158	2.08
421.364	2.01
421.57	2.03
421.776	2.02
421.982	1.97
422.187	1.91
422.393	1.98
422.599	1.79
422.805	1.63
423.01	1.72
423.216	1.69
423.422	1.66
423.628	1.68
423.833	1.66
424.039	1.67
424.245	1.62
424.45	1.68
424.656	1.57
424.862	1.66
425.067	1.86
425.273	1.9
425.478	1.96
425.684	1.99
425.889	2.14
426.095	2.12
426.301	2.18
426.506	2.22
426.712	2.31
426.917	2.41
427.123	2.2
427.328	2.29
427.533	2.23
427.739	2.06
427.944	1.97
428.15	1.58
428.355	1.47
428.561	1.28
428.766	1.37
428.971	1.53
429.177	1.72
429.382	1.83
429.587	1.67
429.793	1.73
429.998	1.92
430.203	1.99
430.408	1.95
430.614	2.06
430.819	2.14
431.024	2.18
431.229	2
431.434	1.72
431.64	1.64
431.845	1.48
432.05	1.39
432.255	1.34
432.46	1.3
432.665	1.59
432.87	1.55
433.076	1.57
433.281	1.5
433.486	1.39
433.691	1.47
433.896	1.58
434.101	1.82
434.306	1.9
434.511	1.88
434.716	1.86
434.921	1.8
435.126	1.99
435.331	1.96
435.535	2.24
435.74	2.21
435.945	2.28
436.15	2.21
436.355	2.15
436.56	1.88
436.765	1.83
436.97	1.81
437.174	1.89
437.379	1.73
437.584	1.72
437.789	1.53
437.993	1.52
438.198	1.48
438.403	1.65
438.608	1.62
438.812	1.82
439.017	1.76
439.222	1.8
439.426	1.77
439.631	1.71
439.836	1.84
440.04	1.73
440.245	1.71
440.45	1.69
440.654	1.69
440.859	1.88
441.063	1.87
441.268	1.97
441.472	1.92
441.677	1.92
441.881	1.96
442.086	1.96
442.29	1.92
442.495	2.05
442.699	2.13
442.904	1.98
443.108	1.68
443.312	1.81
443.517	1.74
443.721	1.75
443.925	1.78
444.13	1.77
444.334	1.53
444.538	1.74
444.743	1.6
444.947	1.68
445.151	1.82
445.356	1.97
445.56	1.93
445.764	1.98
445.968	1.94
446.173	1.82
446.377	1.82
446.581	1.79
446.785	1.85
446.989	1.82
447.193	1.71
447.398	1.62
447.602	1.49
447.806	1.33
448.01	1.46
448.214	1.46
448.418	1.65
448.622	1.71
448.826	1.91
449.03	1.76
449.234	1.83
449.438	1.94
449.642	1.92
449.846	1.97
450.05	2.02
450.254	1.76
450.458	1.77
450.662	1.58
450.866	1.58
451.069	1.48
451.273	1.55
451.477	1.76
451.681	1.7
451.885	1.9
452.089	1.95
452.292	2.15
452.496	2.29
452.7	2.32
452.904	2.32
453.107	2.24
453.311	2.3
453.515	2.13
453.719	2.09
453.922	2.12
454.126	1.93
454.33	1.79
454.533	1.61
454.737	1.49
454.94	1.52
455.144	1.49
455.348	1.59
455.551	1.57
455.755	1.64
455.958	1.59
456.162	1.52
456.365	1.71
456.569	1.88
456.772	1.81
456.976	1.86
457.179	1.69
457.383	1.54
457.586	1.41
457.79	1.43
457.993	1.37
458.196	1.27
458.4	1.35
458.603	1.24
458.807	1.15
459.01	1.16
459.213	1.19
459.417	1.34
459.62	1.51
459.823	1.5
460.026	1.42
460.23	1.44
460.433	1.58
460.636	1.62
460.839	1.64
461.042	1.65
461.246	1.83
461.449	1.74
461.652	1.62
461.855	1.63
462.058	1.67
462.261	1.7
462.464	1.73
462.668	1.65
462.871	1.46
463.074	1.32
463.277	1.36
463.48	1.42
463.683	1.46
463.886	1.69
464.089	1.91
464.292	1.9
464.495	2.16
464.698	2.2
464.901	2.25
465.104	2.38
465.306	2.51
465.509	2.55
465.712	2.18
465.915	2.32
466.118	2.33
466.321	2.16
466.524	2.12
466.726	2.06
466.929	1.97
467.132	1.9
467.335	1.94
467.538	1.83
467.74	1.81
467.943	1.97
468.146	1.81
468.348	1.67
468.551	1.68
468.754	1.81
468.956	1.74
469.159	1.81
469.362	1.76
469.564	1.54
469.767	1.61
469.969	1.68
470.172	1.67
470.375	1.86
470.577	1.9
470.78	1.96
470.982	1.81
471.185	1.75
471.387	1.75
471.59	1.83
471.792	1.85
471.995	1.91
472.197	1.82
472.399	1.87
472.602	1.81
472.804	1.85
473.007	1.64
473.209	1.62
473.411	1.69
473.614	1.63
473.816	1.68
474.018	1.72
474.22	1.77
474.423	1.81
474.625	1.67
474.827	1.72
475.03	1.57
475.232	1.84
475.434	1.95
475.636	1.83
475.838	2.01
476.04	2
476.243	2.12
476.445	1.94
476.647	1.77
476.849	1.89
477.051	1.86
477.253	1.93
477.455	1.7
477.657	1.69
477.859	1.68
478.061	1.67
478.263	1.67
478.465	1.68
478.667	1.82
478.869	1.92
479.071	1.9
479.273	1.94
479.475	1.91
479.677	1.95
479.879	2.01
480.081	1.96
480.283	1.82
480.485	1.86
480.686	1.79
480.888	1.64
481.09	1.72
481.292	1.72
481.494	1.65
481.695	1.71
481.897	1.62
482.099	1.58
482.301	1.66
482.502	1.59
482.704	1.55
482.906	1.57
483.107	1.61
483.309	1.56
483.511	1.53
483.712	1.54
483.914	1.52
484.115	1.56
484.317	1.54
484.519	1.54
484.72	1.56
484.922	1.58
485.123	1.57
485.325	1.62
485.526	1.63
485.728	1.7
485.929	1.67
486.131	1.67
486.332	1.7
486.534	1.72
486.735	1.73
486.936	1.8
487.138	1.75
487.339	1.78
487.541	1.68
487.742	1.64
487.943	1.57
488.144	1.55
488.346	1.53
488.547	1.46
488.748	1.42
488.95	1.46
489.151	1.43
489.352	1.48
489.553	1.42
489.755	1.58
489.956	1.64
490.157	1.67
490.358	1.64
490.559	1.68
490.76	1.68
490.961	1.74
491.163	1.65
491.364	1.69
491.565	1.62
491.766	1.55
491.967	1.53
492.168	1.47
492.369	1.52
492.57	1.59
492.771	1.59
492.972	1.7
493.173	1.78
493.374	1.72
493.575	1.76
493.776	1.89
493.976	2.03
494.177	2
494.378	2.03
494.579	1.87
494.78	1.77
494.981	1.98
495.182	1.88
495.382	1.86
495.583	1.99
495.784	1.76
495.985	1.62
496.185	1.59
496.386	1.52
496.587	1.56
496.788	1.55
496.988	1.68
497.189	1.45
497.39	1.38
497.59	1.39
497.791	1.47
497.992	1.49
498.192	1.59
498.393	1.62
498.593	1.66
498.794	1.56
498.994	1.61
499.195	1.5
499.395	1.52
499.596	1.6
499.796	1.53
499.997	1.4
500.197	1.51
500.398	1.33
500.598	1.26
500.799	1.25
500.999	1.3
501.199	1.5
501.4	1.61
501.6	1.65
501.801	1.69
502.001	1.62
502.201	1.54
502.402	1.38
502.602	1.47
502.802	1.52
503.002	1.5
503.203	1.73
503.403	1.58
503.603	1.74
503.803	1.85
504.003	1.84
504.204	2.01
504.404	2.17
504.604	2.31
504.804	2.2
505.004	2.3
505.204	2.28
505.404	2.19
505.604	2.29
505.804	2.21
506.005	2
506.205	2.02
506.405	1.91
506.605	1.84
506.805	1.81
507.005	1.79
507.204	1.71
507.404	1.59
507.604	1.56
507.804	1.59
508.004	1.55
508.204	1.66
508.404	1.56
508.604	1.53
508.804	1.65
509.003	1.73
509.203	1.89
509.403	1.98
509.603	2.17
509.803	2.11
510.002	2.07
510.202	2.07
510.402	2.11
510.602	2.14
510.801	2.2
511.001	2.13
511.201	2.11
511.4	2.2
511.6	2.24
511.8	2.23
511.999	2.37
512.199	2.3
512.398	2.37
512.598	2.32
512.797	2.46
512.997	2.41
513.197	2.35
513.396	2.31
513.596	2.07
513.795	2.06
513.994	1.99
514.194	1.94
514.393	2.06
514.593	1.99
514.792	1.93
514.992	1.88
515.191	1.98
515.39	2.15
515.59	2.22
515.789	2.25
515.988	2.07
516.188	2
516.387	2.02
516.586	1.89
516.786	1.95
516.985	1.97
517.184	1.94
517.383	1.74
517.582	1.66
517.782	1.65
517.981	1.69
518.18	1.82
518.379	1.86
518.578	1.77
518.777	1.81
518.976	1.72
519.176	1.71
519.375	1.75
519.574	1.89
519.773	1.99
519.972	2
520.171	2.12
520.37	1.96
520.569	1.97
520.768	2.05
520.967	2.13
521.166	2.27
521.365	2.31
521.564	2.14
521.762	2.1
521.961	2.02
522.16	1.93
522.359	1.81
522.558	1.94
522.757	1.81
522.956	1.85
523.154	1.87
523.353	1.76
523.552	1.87
523.751	1.87
523.949	2.02
524.148	1.91
524.347	1.93
524.546	2.06
524.744	2.01
524.943	2.15
525.142	2.06
525.34	1.96
525.539	2
525.737	1.93
525.936	2.04
526.135	1.86
526.333	1.88
526.532	1.92
526.73	1.9
526.929	1.96
527.127	1.91
527.326	1.96
527.524	1.98
527.723	2.01
527.921	2.08
528.12	2.1
528.318	2.23
528.516	2.27
528.715	2.29
528.913	2.22
529.112	2.16
529.31	2.2
529.508	2.24
529.707	2.27
529.905	2.29
530.103	2.2
530.301	2.21
530.5	2.09
530.698	2.07
530.896	2.03
531.094	2.1
531.293	2.22
531.491	2.24
531.689	2.14
531.887	2.08
532.085	2.03
532.283	2.12
532.481	1.99
532.68	2.06
532.878	2.09
533.076	2.17
533.274	2.17
533.472	2.21
533.67	2.27
533.868	2.33
534.066	2.42
534.264	2.45
534.462	2.58
534.66	2.76
534.858	2.86
535.056	2.96
535.253	2.91
535.451	2.89
535.649	2.83
535.847	2.73
536.045	2.82
536.243	2.78
536.441	2.73
536.638	2.55
536.836	2.54
537.034	2.37
537.232	2.27
537.43	2.29
537.627	2.36
537.825	2.35
538.023	2.56
538.22	2.49
538.418	2.55
538.616	2.67
538.813	2.8
539.011	2.83
539.209	3.01
539.406	3.05
539.604	3.07
539.801	3
539.999	3.02
540.196	2.8
540.394	2.85
540.591	2.78
540.789	2.81
540.986	2.84
541.184	2.74
541.381	2.79
541.579	2.77
541.776	2.77
541.974	2.85
542.171	2.85
542.368	2.92
542.566	2.98
542.763	3.11
542.96	3.1
543.158	3.11
543.355	3.16
543.552	3.17
543.75	3.13
543.947	3.24
544.144	3.32
544.341	3.4
544.539	3.45
544.736	3.43
544.933	3.32
545.13	3.43
545.327	3.38
545.524	3.52
545.722	3.46
545.919	3.59
546.116	3.63
546.313	3.53
546.51	3.55
546.707	3.5
546.904	3.51
547.101	3.43
547.298	3.39
547.495	3.44
547.692	3.42
547.889	3.41
548.086	3.49
548.283	3.48
548.48	3.58
548.677	3.53
548.874	3.59
549.07	3.56
549.267	3.84
549.464	3.9
549.661	4.02
549.858	4.11
550.055	4.3
550.251	4.22
550.448	4.21
550.645	4.24
550.842	4.39
551.038	4.58
551.235	4.73
551.432	4.62
551.628	4.61
551.825	4.64
552.022	4.54
552.218	4.6
552.415	4.61
552.612	4.57
552.808	4.56
553.005	4.49
553.201	4.21
553.398	4.26
553.594	4.44
553.791	4.53
553.987	4.48
554.184	4.76
554.38	4.65
554.577	4.65
554.773	4.74
554.97	4.71
555.166	4.73
555.362	5.12
555.559	5.02
555.755	5.01
555.952	5.11
556.148	5.2
556.344	5.02
556.541	4.98
556.737	5.2
556.933	5.24
557.129	5.53
557.326	5.6
557.522	5.37
557.718	5.48
557.914	5.51
558.11	5.45
558.307	5.47
558.503	5.58
558.699	5.78
558.895	5.7
559.091	6.03
559.287	5.88
559.483	6.09
559.679	6.18
559.876	5.89
560.072	5.76
560.268	5.78
560.464	5.8
560.66	5.77
560.856	5.65
561.052	5.71
561.247	5.64
561.443	5.75
561.639	5.59
561.835	5.58
562.031	6
562.227	6.13
562.423	6.01
562.619	6.14
562.815	6.31
563.01	6.39
563.206	6.38
563.402	6.21
563.598	6.02
563.793	6.08
563.989	6.35
564.185	6.55
564.381	6.54
564.576	6.74
564.772	6.72
564.968	6.7
565.163	6.83
565.359	7.02
565.555	7.1
565.75	7.1
565.946	7.19
566.141	7.09
566.337	6.81
566.532	6.89
566.728	6.78
566.923	6.8
567.119	6.69
567.314	6.75
567.51	6.68
567.705	6.72
567.901	6.83
568.096	6.82
568.292	6.96
568.487	6.98
568.682	6.96
568.878	7.11
569.073	7.17
569.268	7.33
569.464	7.17
569.659	7.16
569.854	7.05
570.05	6.92
570.245	7
570.44	7.03
570.635	7.3
570.831	7.37
571.026	7.44
571.221	7.41
571.416	7.21
571.611	7.21
571.806	7.36
572.002	7.59
572.197	7.68
572.392	7.58
572.587	7.64
572.782	7.65
572.977	7.78
573.172	7.65
573.367	7.71
573.562	7.93
573.757	8.08
573.952	8.1
574.147	8.11
574.342	8.16
574.537	8.25
574.732	8
574.927	8.12
575.121	7.96
575.316	8.01
575.511	7.99
575.706	7.87
575.901	7.99
576.096	7.98
576.29	7.96
576.485	8.05
576.68	8.04
576.875	8.21
577.069	8.23
577.264	8.52
577.459	8.44
577.654	8.62
577.848	8.84
578.043	8.61
578.238	8.43
578.432	8.54
578.627	8.81
578.821	8.92
579.016	9.06
579.21	8.8
579.405	8.61
579.6	8.61
579.794	8.54
579.989	8.57
580.183	8.96
580.378	9.08
580.572	9.19
580.766	9.27
580.961	9.07
581.155	9.03
581.35	9.15
581.544	9.22
581.738	9.47
581.933	9.72
582.127	9.6
582.321	9.62
582.516	9.9
582.71	9.86
582.904	9.53
583.099	9.78
583.293	9.65
583.487	9.71
583.681	9.66
583.875	9.79
584.07	9.48
584.264	9.56
584.458	9.23
584.652	9.03
584.846	8.75
585.04	8.76
585.234	8.79
585.428	8.79
585.623	8.72
585.817	8.94
586.011	8.71
586.205	9.02
586.399	9.05
586.593	8.9
586.787	8.91
586.981	9
587.174	9.11
587.368	9.07
587.562	9.24
587.756	9.35
587.95	9.33
588.144	9.49
588.338	9.36
588.532	9.45
588.725	9.8
588.919	9.81
589.113	9.86
589.307	9.7
589.501	9.79
589.694	9.7
589.888	9.19
590.082	9.03
590.275	9.06
590.469	9.21
590.663	9.24
590.856	9.07
591.05	9.12
591.244	9.22
591.437	9.28
591.631	9.25
591.824	9.47
592.018	9.76
592.212	9.92
592.405	9.86
592.599	9.65
592.792	9.68
592.986	9.91
593.179	9.91
593.372	10.02
593.566	10.26
593.759	10.09
593.953	10.08
594.146	10.21
594.339	10.09
594.533	10.17
594.726	10.13
594.92	9.92
595.113	9.92
595.306	9.92
595.499	9.66
595.693	9.46
595.886	9.68
596.079	9.63
596.272	9.46
596.466	9.39
596.659	9.29
596.852	9.19
597.045	9.1
597.238	8.94
597.431	8.96
597.624	9.14
597.818	9.4
598.011	9.39
598.204	9.32
598.397	9.28
598.59	9.31
598.783	9.47
598.976	9.56
599.169	9.98
599.362	10.08
599.555	10.22
599.748	10.2
599.941	10.05
600.134	10
600.326	9.93
600.519	10.21
600.712	10.17
600.905	9.97
601.098	9.82
601.291	9.59
601.483	9.44
601.676	9.34
601.869	9.21
602.062	9.07
602.255	8.79
602.447	8.77
602.64	8.69
602.833	8.84
603.025	9
603.218	9.54
603.411	9.5
603.603	9.67
603.796	9.44
603.989	9.32
604.181	9.22
604.374	9.57
604.566	9.67
604.759	9.71
604.951	9.53
605.144	9.55
605.336	9.17
605.529	9.03
605.721	9.02
605.914	9.24
606.106	9.55
606.299	9.71
606.491	9.61
606.683	9.72
606.876	9.77
607.068	9.91
607.26	9.88
607.453	10.06
607.645	10.52
607.837	10.35
608.03	10.31
608.222	9.98
608.414	9.82
608.606	9.71
608.799	9.63
608.991	9.45
609.183	9.52
609.375	9.47
609.567	9.5
609.759	9.17
609.952	9.31
610.144	8.98
610.336	8.88
610.528	9.02
610.72	9.12
610.912	8.92
611.104	8.9
611.296	8.92
611.488	8.8
611.68	8.74
611.872	8.72
612.064	8.72
612.256	8.84
612.448	8.92
612.64	9.01
612.832	9.08
613.023	9.42
613.215	9.67
613.407	9.48
613.599	9.51
613.791	9.61
613.983	9.56
614.174	9.66
614.366	9.88
614.558	10.11
614.75	9.82
614.941	9.62
615.133	9.54
615.325	9.52
615.516	9.76
615.708	9.79
615.9	9.45
616.091	9.81
616.283	9.75
616.475	9.65
616.666	9.43
616.858	9.89
617.049	10.07
617.241	10
617.432	9.95
617.624	9.99
617.815	9.95
618.007	10.02
618.198	9.64
618.39	9.61
618.581	9.86
618.773	10.12
618.964	9.96
619.155	9.97
619.347	10.03
619.538	10.35
619.729	10.31
619.921	10.54
620.112	10.7
620.303	11.06
620.494	11.01
620.686	10.83
620.877	10.75
621.068	10.45
621.259	10.44
621.451	10.43
621.642	10.04
621.833	9.93
622.024	9.75
622.215	9.91
622.406	9.86
622.597	9.76
622.788	9.56
622.98	9.38
623.171	9.44
623.362	9.42
623.553	9.52
623.744	9.77
623.935	9.75
624.126	9.8
624.317	9.3
624.508	9.17
624.698	9.08
624.889	9.42
625.08	9.73
625.271	9.73
625.462	9.9
625.653	9.92
625.844	9.93
626.034	9.93
626.225	9.89
626.416	10.01
626.607	10.17
626.798	10.19
626.988	10.33
627.179	10.38
627.37	10.48
627.56	10.27
627.751	9.96
627.942	9.83
628.132	9.76
628.323	9.77
628.514	9.71
628.704	9.7
628.895	9.85
629.085	9.6
629.276	9.4
629.466	9.26
629.657	9.29
629.847	9.55
630.038	9.63
630.228	9.65
630.419	9.71
630.609	9.94
630.8	10.18
630.99	10.16
631.181	10.4
631.371	10.78
631.561	11.12
631.752	11.19
631.942	11.16
632.132	11.11
632.323	11.18
632.513	11.25
632.703	10.86
632.893	10.36
633.084	10
633.274	9.87
633.464	9.68
633.654	9.53
633.844	9.21
634.034	9.1
634.225	9.14
634.415	8.95
634.605	9.19
634.795	9.36
634.985	9.66
635.175	10.31
635.365	10.22
635.555	10.17
635.745	10.2
635.935	10.62
636.125	10.92
636.315	10.89
636.505	11.21
636.695	10.55
636.885	10.93
637.075	10.88
637.265	10.55
637.455	11.05
637.644	10.94
637.834	11
638.024	11.04
638.214	10.7
638.404	10.68
638.593	10.73
638.783	10.86
638.973	10.88
639.163	10.94
639.352	10.77
639.542	10.08
639.732	10.24
639.921	9.71
640.111	9.42
640.301	9.69
640.49	10.03
640.68	9.97
640.87	10.3
641.059	10.11
641.249	9.87
641.438	10.13
641.628	10.08
641.817	9.93
642.007	10.23
642.196	10.49
642.386	10.07
642.575	9.86
642.764	9.69
642.954	9.83
643.143	9.64
643.333	9.9
643.522	9.89
643.711	10.05
643.901	9.73
644.09	9.86
644.279	9.61
644.469	10.32
644.658	10.15
644.847	10.46
645.036	10.52
645.226	10.44
645.415	10.39
645.604	10.66
645.793	10.5
645.982	10.72
646.171	10.99
646.361	10.98
646.55	10.92
646.739	11.04
646.928	10.56
647.117	10.53
647.306	10.83
647.495	10.99
647.684	10.75
647.873	10.75
648.062	10.87
648.251	10.73
648.44	10.88
648.629	10.43
648.818	10.38
649.007	10.79
649.196	10.89
649.384	10.69
649.573	10.12
649.762	10.05
649.951	10.08
650.14	10.39
650.328	10.43
650.517	10.1
650.706	10.53
650.895	10.52
651.083	10.39
651.272	10.32
651.461	10.39
651.65	10.75
651.838	10.6
652.027	10.52
652.216	10.19
652.404	9.86
652.593	9.84
652.781	9.65
652.97	9.82
653.158	9.97
653.347	9.88
653.535	9.9
653.724	10.02
653.912	10.06
654.101	10.41
654.289	10.34
654.478	10.48
654.666	10.49
654.855	10.42
655.043	10.35
655.231	10.01
655.42	9.94
655.608	9.64
655.796	9.65
655.985	9.92
656.173	9.39
656.361	9.19
656.55	9.21
656.738	9.45
656.926	9.12
657.114	9.1
657.302	9.27
657.491	9.11
657.679	9.11
657.867	8.86
658.055	8.75
658.243	9.24
658.431	9.39
658.619	9.25
658.807	9.36
658.996	9.35
659.184	9.38
659.372	9.35
659.56	9.52
659.748	9.58
659.936	9.56
660.124	9.42
660.311	9.21
660.499	9.5
660.687	9.61
660.875	9.37
661.063	9.57
661.251	9.03
661.439	9.38
661.627	9.57
661.814	10.15
662.002	10.33
662.19	10.49
662.378	11.08
662.565	10.86
662.753	10.85
662.941	10.74
663.129	10.37
663.316	11.22
663.504	10.85
663.692	10.63
663.879	10.19
664.067	10.17
664.254	10.13
664.442	9.77
664.63	9.76
664.817	9.77
665.005	9.44
665.192	9.92
665.38	9.64
665.567	9.69
665.755	8.95
665.942	8.56
666.13	8.48
666.317	8.63
666.504	8.51
666.692	8.6
666.879	8.77
667.067	9.41
667.254	9.22
667.441	8.86
667.629	8.69
667.816	9.6
668.003	10.14
668.19	9.92
668.378	10.14
668.565	10.4
668.752	10.08
668.939	10.38
669.127	10.44
669.314	10.74
669.501	10.6
669.688	11.01
669.875	10.71
670.062	10.95
670.249	11.09
670.436	10.85
670.623	10.09
670.81	10.03
670.997	9.75
671.184	9.67
671.371	9.83
671.558	10.15
671.745	9.85
671.932	9.99
672.119	9.46
672.306	9.57
672.493	10.06
672.68	10.68
672.867	10.75
673.054	10.26
673.24	10.69
673.427	10.49
673.614	10.92
673.801	11.05
673.988	11.03
674.174	11.42
674.361	11.55
674.548	11.22
674.734	11.3
674.921	11.68
675.108	12.38
675.294	11.91
675.481	11.94
675.668	12.07
675.854	12
676.041	12.08
676.227	11.5
676.414	11.69
676.601	11.35
676.787	11.14
676.974	10.84
677.16	11.19
677.347	11.29
677.533	10.96
677.719	10.29
677.906	10.02
678.092	10.04
678.279	10.83
678.465	10.71
678.651	10.82
678.838	10.95
679.024	11.33
679.21	10.76
679.397	10.67
679.583	10.75
679.769	10.66
679.955	10.64
680.142	10.55
680.328	9.94
680.514	9.59
680.7	9.6
680.886	9.47
681.073	8.92
681.259	9.08
681.445	8.98
681.631	9.11
681.817	9.26
682.003	9.18
682.189	9.1
682.375	9.56
682.561	9.89
682.747	10.08
682.933	10.34
683.119	10.78
683.305	11.03
683.491	10.9
683.677	11
683.863	11.54
684.049	11.94
684.235	11.83
684.42	11.5
684.606	11.09
684.792	10.92
684.978	10.96
685.164	11.37
685.349	10.45
685.535	10.52
685.721	10.31
685.907	9.94
686.092	9.42
686.278	9.77
686.464	10.1
686.649	10.47
686.835	10.48
687.021	10.05
687.206	9.64
687.392	10.01
687.577	10.02
687.763	9.68
687.948	9.43
688.134	9.73
688.319	9.34
688.505	8.87
688.69	8.94
688.876	8.82
689.061	9.05
689.247	8.97
689.432	8.8
689.618	9.25
689.803	9.96
689.988	10.34
690.174	10.24
690.359	9.93
690.544	10
690.73	9.63
690.915	10.02
691.1	9.6
691.285	9.74
691.471	9.86
691.656	9.38
691.841	9.12
692.026	9.16
692.211	9.29
692.396	9.92
692.582	9.78
692.767	10.22
692.952	9.75
693.137	10.79
693.322	10.64
693.507	10.79
693.692	10.75
693.877	10.43
694.062	10.52
694.247	10.4
694.432	10.27
694.617	10.86
694.802	11.02
694.987	11.34
695.172	10.84
695.357	10.52
695.541	11.03
695.726	11.38
695.911	11.6
696.096	11.34
696.281	11.95
696.466	12.24
696.65	12.07
696.835	12.01
697.02	11.88
697.204	11.41
697.389	11.83
697.574	11.38
697.759	11.26
697.943	11.37
698.128	11.51
698.312	11.1
698.497	10.52
698.682	10.35
698.866	10.29
699.051	10.41
699.235	10.56
699.42	10.51
699.604	10.52
699.789	10.77
699.973	10.63
700.158	10.03
700.342	10.3
700.527	10.79
700.711	10.49
700.895	10.4
701.08	10.03
701.264	10
701.448	9.52
701.633	9.23
701.817	8.77
702.001	8.55
702.186	9.14
702.37	9.1
702.554	8.79
702.738	8.85
702.923	8.62
703.107	9.33
703.291	9.54
703.475	10.2
703.659	10.89
703.843	11
704.027	11.87
704.212	12
704.396	11.63
704.58	12.08
704.764	13.05
704.948	12.91
705.132	12.91
705.316	13.48
705.5	13.79
705.684	13.37
705.868	13.21
706.052	13.37
706.235	12.92
706.419	13.41
706.603	13.59
706.787	13.57
706.971	13.64
707.155	12.94
707.339	12.98
707.522	12.74
707.706	13.21
707.89	13.52
708.074	13.41
708.257	13.49
708.441	12.83
708.625	11.88
708.808	11.41
708.992	11.76
709.176	11.97
709.359	11.58
709.543	11.55
709.727	11.17
709.91	10.53
710.094	10.05
710.277	10.33
710.461	11.59
710.644	11.93
710.828	12.74
711.011	12.83
711.195	12.93
711.378	13.06
711.562	13.16
711.745	13.31
711.928	13.39
712.112	13.53
712.295	13.66
712.478	12.8
712.662	12.43
712.845	11.88
713.028	11.08
713.212	11.3
713.395	10.65
713.578	11.05
713.761	11.01
713.945	11.51
714.128	11.18
714.311	10.93
714.494	10.59
714.677	11.33
714.86	10.65
715.043	10.92
715.227	10
715.41	10.15
715.593	9.07
715.776	9.22
715.959	8.75
716.142	8.93
716.325	9.01
716.508	9.48
716.691	9.63
716.874	10.33
717.057	10.99
717.239	11.35
717.422	11.06
717.605	11.85
717.788	12.01
717.971	12.53
718.154	12.48
718.337	12.76
718.519	13.18
718.702	13.39
718.885	13.13
719.068	12.04
719.25	11.48
719.433	12.51
719.616	11.53
719.798	10.81
719.981	10.72
720.164	10.95
720.346	11.43
720.529	10.5
720.712	9.8
720.894	9.74
721.077	10.45
721.259	11.09
721.442	9.64
721.624	9.97
721.807	10.07
721.989	9.47
722.172	8.57
722.354	7.11
722.537	7.52
722.719	8.6
722.901	7.68
723.084	7.43
723.266	7.41
723.448	7.58
723.631	7.4
723.813	7.27
723.995	7.11
724.178	7.01
724.36	7.19
724.542	6.86
724.724	5.62
724.907	6.87
725.089	7.02
725.271	7.78
725.453	8.88
725.635	9.77
725.817	9.63
725.999	10.15
726.181	11.15
726.364	11.18
726.546	12.03
726.728	12.59
726.91	11.45
727.092	11.11
727.274	10.29
727.456	10.59
727.638	10.06
727.819	10.35
728.001	10.42
728.183	9.91
728.365	10.61
728.547	9.54
728.729	9.42
728.911	9.98
729.093	10.47
729.274	11.19
729.456	10.88
729.638	10.08
729.82	10.7
730.001	10.67
730.183	10.85
730.365	11.27
730.546	11.58
730.728	11.27
730.91	11.35
731.091	11.48
731.273	12.22
731.455	12.67
731.636	13.48
731.818	12.9
731.999	13.1
732.181	12.55
732.362	10.83
732.544	10.79
732.725	11.42
732.907	11.34
733.088	10.93
733.27	10.13
733.451	9.71
733.633	10.3
733.814	10.77
733.995	11.77
734.177	12.91
734.358	14.11
734.539	13.79
734.721	14.08
734.902	14.11
735.083	14.35
735.264	13.96
735.446	13.82
735.627	13.54
735.808	12.99
735.989	12.38
736.17	12.72
736.351	13.73
736.533	14.58
736.714	14.54
736.895	14.46
737.076	15.23
737.257	15.6
737.438	15.34
737.619	14.9
737.8	15.49
737.981	15.72
738.162	14.73
738.343	13.67
738.524	13.2
738.705	14.64
738.886	14.9
739.067	13.96
739.247	13.53
739.428	13.94
739.609	13.96
739.79	14.66
739.971	14.81
740.151	14.83
740.332	15.32
740.513	15.62
740.694	13.69
740.874	13.63
741.055	14.08
741.236	14.04
741.417	14.37
741.597	14.3
741.778	13.69
741.958	13.03
742.139	13.95
742.32	11.73
742.5	11.38
742.681	11.32
742.861	11.55
743.042	12.46
743.222	12.31
743.403	11.64
743.583	12.87
743.764	12.38
743.944	12.96
744.124	13.22
744.305	15.34
744.485	15.85
744.666	15.86
744.846	15.96
745.026	15.05
745.207	15.94
745.387	17.22
745.567	15.01
745.747	14.11
745.928	14.16
746.108	12.1
746.288	11.64
746.468	11.45
746.648	10.23
746.829	11.12
747.009	11.61
747.189	11.95
747.369	10.84
747.549	12.3
747.729	13.2
747.909	12.15
748.089	13.2
748.269	13.9
748.449	13.44
748.629	14.24
748.809	13.82
748.989	13.18
749.169	11.99
749.349	12.39
749.529	11.79
749.709	11.2
749.889	10.87
750.068	11.5
750.248	10.52
750.428	12.07
750.608	12.34
750.788	12.6
750.967	12.28
751.147	12.36
751.327	10.52
751.507	10.37
751.686	11.45
751.866	12.79
752.046	12.04
752.225	12.17
752.405	12.98
752.585	12.71
752.764	11.89
752.944	12.55
753.123	13.75
753.303	15.6
753.482	16.16
753.662	15.46
753.841	15.16
754.021	14.69
754.2	15.15
754.38	13.66
754.559	13.84
754.739	14.3
754.918	14.47
755.097	13.47
755.277	14.41
755.456	14.44
755.635	13.96
755.815	12.87
755.994	13.85
756.173	13.3
756.352	11.91
756.532	12.21
756.711	12.72
756.89	12
757.069	12.2
757.248	10.64
757.427	10.7
757.607	12.02
757.786	13.64
757.965	15.24
758.144	15.35
758.323	17.28
758.502	16.72
758.681	16.28
758.86	17.16
759.039	16.98
759.218	16.08
759.397	17.12
759.576	17.04
759.755	16.72
759.934	14
760.113	14.35
760.291	13.62
760.47	13.09
760.649	13.35
760.828	14.42
761.007	15.62
761.186	16.1
761.364	14.59
761.543	13.91
761.722	13.46
761.901	14.45
762.079	14.83
762.258	14.53
762.437	16.49
762.615	15.46
762.794	13.88
762.972	13.24
763.151	13.96
763.33	13.88
763.508	14.25
763.687	14.35
763.865	13.84
764.044	13.45
764.222	13.43
764.401	11.93
764.579	13.34
764.758	13.64
764.936	14.02
765.114	13.25
765.293	13.97
765.471	13.72
765.65	13.42
765.828	13.4
766.006	13.44
766.184	14.06
766.363	15.46
766.541	14.27
766.719	14.13
766.898	13.29
767.076	13.27
767.254	13.18
767.432	14.61
767.61	14.63
767.788	15.55
767.967	16.1
768.145	15.02
768.323	12.89
768.501	12.88
768.679	12.91
768.857	12.88
769.035	14.8
769.213	13.57
769.391	11.09
769.569	11.89
769.747	12.14
769.925	9.82
770.103	10.83
770.281	12.4
770.459	13.37
770.636	13.25
770.814	13.87
770.992	13.46
771.17	15.31
771.348	14.7
771.525	14.46
771.703	14.26
771.881	15.12
772.059	14.39
772.236	13.86
772.414	12.56
772.592	13.49
772.769	12.78
772.947	12.29
773.125	9.1
773.302	11.05
773.48	9.15
773.657	8.37
773.835	8.28
774.013	9.83
774.19	11.83
774.368	12.2
774.545	12.22
774.723	14.17
774.9	13.74
775.077	15.74
775.255	15.81
775.432	17.23
775.61	18.06
775.787	17.05
775.964	17.43
776.142	15.07
776.319	13.1
776.496	9.94
776.674	10.22
776.851	10.48
777.028	9.9
777.205	9.86
777.382	10.43
777.56	10.89
777.737	13.05
777.914	11.21
778.091	13.34
778.268	15.87
778.445	17.1
778.622	15.12
778.8	15.34
778.977	17.28
779.154	17.29
779.331	15.23
779.508	15.18
779.685	14.48
779.862	12
780.038	9.27
780.215	10.6
780.392	10.21
780.569	9.78
780.746	8.97
780.923	6.39
781.1	4.66
781.277	8.43
781.453	7.04
781.63	9.08
781.807	13.9
781.984	15.91
782.16	13.84
782.337	16.29
782.514	15.68
782.691	17.54
782.867	19.3
783.044	22.09
783.221	20.65
783.397	19.6
783.574	19.19
783.75	19.75
783.927	16.79
784.103	17.23
784.28	16.02
784.456	19.35
784.633	18.17
784.809	17.62
784.986	16.51
785.162	16.06
785.339	17.88
785.515	19.13
785.692	17.73
785.868	19.48
786.044	20.75
786.221	20.2
786.397	17.01
786.573	15
786.749	16.43
786.926	19.11
787.102	17.57
787.278	18.71
787.454	14.32
787.631	15.14
787.807	15.01
787.983	14.23
788.159	14.77
788.335	16.32
788.511	16.88
788.687	16.53
788.863	12.6
789.039	13.8
789.216	12.73
789.392	14.75
789.568	14.79
789.744	15.3
789.919	15.93
790.095	13.9
790.271	10.85
790.447	12.22
790.623	11.15
790.799	13.73
790.975	16.36
791.151	14.92
791.327	13.53
791.502	13.91
791.678	11.39
791.854	8.77
792.03	9.56
792.205	11.92
792.381	14.1
792.557	13.16
792.733	11.47
792.908	10.35
793.084	10.65
793.259	9.47
793.435	6.85
793.611	9.44
793.786	9.62
793.962	8.92
794.137	8.8
794.313	6.32
794.488	9.35
794.664	9.13
794.839	8.92
795.015	11.93
795.19	16.37
795.366	17.49
795.541	17.19
795.716	17.71
795.892	22.86
796.067	23.6
796.242	23.65
796.418	20.43
796.593	22.45
796.768	21.01
796.944	19.18
797.119	20.04
797.294	19.11
797.469	17.61
797.644	17.13
797.82	13.93
797.995	14.45
798.17	15.34
798.345	18.12
798.52	17.93
798.695	19.77
798.87	20.61
799.045	18.55
799.22	19.08
799.395	23.92
799.57	25.71
799.745	26.5
799.92	24.31
800.095	21.49
800.27	21.25
800.445	19.64
800.62	18.4
800.795	17.12
800.97	15.83
801.145	16.36
801.319	9.86
801.494	5.91
801.669	5.84
801.844	7.17
802.018	11.42
802.193	13.38
802.368	11.54
802.543	10.4
802.717	11.35
802.892	16.82
803.067	16.48
803.241	19.59
803.416	19.9
803.59	18.44
803.765	19.46
803.94	16.63
804.114	12.92
804.289	14.49
804.463	18.85
804.638	17.45
804.812	12.6
804.986	11.91
805.161	15.63
805.335	19.42
805.51	19.24
805.684	21.05
805.858	22.66
806.033	25.09
806.207	24.14
806.381	22.11
806.556	24.69
806.73	24.22
806.904	23.95
807.078	20.95
807.253	18.97
807.427	19.52
807.601	16.54
807.775	15.64
807.949	11.04
808.123	14.97
808.298	17.89
808.472	13.89
808.646	11.5
808.82	15
808.994	16.26
809.168	18.03
809.342	19.99
809.516	21.25
809.69	18.29
809.864	18.67
810.038	15.1
810.212	13.49
810.385	19.41
810.559	21
810.733	18.98
810.907	20.75
811.081	19.1
811.255	20.38
811.428	17.74
811.602	20.19
811.776	24.92
811.95	23.4
812.123	19.18
812.297	18.14
812.471	23.35
812.644	21.31
812.818	23.12
812.992	22.94
813.165	24.03
813.339	20.13
813.512	20.93
813.686	15.59
813.86	20.35
814.033	21.52
814.207	19.32
814.38	15.16
814.554	15.61
814.727	6.98
814.9	7.4
815.074	7.33
815.247	11.89
815.421	11.87
815.594	12.16
815.767	12.53
815.941	12.84
816.114	9.39
816.287	8.62
816.46	7.4
816.634	12.26
816.807	10.64
816.98	3.92
817.153	4.83
817.327	6.24
817.5	5.46
817.673	-0.42
817.846	0.91
818.019	3.85
818.192	4.01
818.365	3.06
818.538	3.65
818.711	5.91
818.884	5.63
819.057	6.52
819.23	6.01
819.403	8.71
819.576	9.77
819.749	9.85
819.922	8.29
820.095	10.49
820.268	11.55
820.441	8.44
820.614	10.51
820.786	13.15
820.959	11.94
821.132	12.71
821.305	11.25
821.477	12.88
821.65	14.75
821.823	15.76
821.996	14.51
822.168	14.93
822.341	16.08
822.514	15.31
822.686	14.71
822.859	14.84
823.031	15.05
823.204	14.51
823.376	14.41
823.549	13.78
823.722	13.22
823.894	13.22
824.067	13.65
824.239	13.04
824.411	13.74
824.584	14.23
824.756	14.55
824.929	13.4
825.101	15.04
825.273	15.23
825.446	15.07
825.618	15.96
825.79	17.03
825.963	14.98
826.135	16.53
826.307	15.99
826.479	15.29
826.652	14.22
826.824	14.89
826.996	15.34
827.168	14.65
827.34	14.18
827.512	12.86
827.684	12.98
827.856	14.25
828.029	12.64
828.201	12.29
828.373	14.17
828.545	15.49
828.717	15.58
828.889	12.82
829.061	14.49
829.232	15.65
829.404	18.97
829.576	17.26
829.748	16.24
829.92	16.04
830.092	15.73
830.264	13.39
830.436	13.62
830.607	16.09
830.779	20.05
830.951	19.78
831.123	18.92
831.294	17.88
831.466	20.73
831.638	23.37
831.809	22.68
831.981	24.67
832.153	27
832.324	26.15
832.496	23.65
832.667	22.98
832.839	19.67
833.011	18.78
833.182	18.27
833.354	15.3
833.525	15.76
833.697	21.12
833.868	20.7
834.039	17.62
834.211	15.68
834.382	14.05
834.554	13.71
834.725	15.29
834.896	15.78
835.068	13.94
835.239	15.27
835.41	14.36
835.581	11.94
835.753	11.3
835.924	15.22
836.095	17.18
836.266	16.69
836.438	15.96
836.609	13.92
836.78	14.62
836.951	11.61
837.122	14.25
837.293	14.61
837.464	12.79
837.635	8.6
837.806	3.08
837.977	1.36
838.148	4.19
838.319	1.49
838.49	-2.81
838.661	-1
838.832	3.99
839.003	-0.93
839.174	2.51
839.345	2.45
839.516	4.37
839.687	6.97
839.857	10.49
840.028	13.92
840.199	13.63
840.37	18.93
840.54	16.73
840.711	18.79
840.882	19.51
841.053	21.02
841.223	21.71
841.394	29
841.564	30.07
841.735	29.08
841.906	25.56
842.076	31.53
842.247	33.92
842.417	31.7
842.588	30.5
842.758	31.32
842.929	20.79
843.099	19.62
843.27	7.19
843.44	9.72
843.611	2.54
843.781	4.66
843.951	3.91
844.122	2.37
844.292	3.83
844.462	-10.57
844.633	-14.22
844.803	-15.03
844.973	-10.22
845.144	2.56
845.314	-1.91
845.484	-0.72
845.654	-2.12
845.824	3.95
845.995	0.41
846.165	7.58
846.335	24.9
846.505	27.16
846.675	30.48
846.845	22.71
847.015	13.74
847.185	21.23
847.355	14.86
847.525	17.25
847.695	13.6
847.865	18.36
848.035	8.54
848.205	7.5
848.375	16.62
848.545	9.05
848.715	27.87
848.884	30.06
849.054	28.79
849.224	35.08
849.394	38.13
849.564	28.41
849.733	28.21
849.903	30.42
850.073	24.22
850.243	5.63
850.412	28.21
850.582	21.41
850.752	24.05
850.921	12.34
851.091	19.18
851.26	21.6
851.43	23.88
851.599	19.7
851.769	25.2
851.939	14.22
852.108	24.52
852.278	22.87
852.447	16.14
852.616	15.95
852.786	17.39
852.955	21.83
853.125	6.68
853.294	17.81
853.463	25.35
853.633	30.06
853.802	32.39
853.971	32.73
854.141	33.4
854.31	55.09
854.479	69.69
854.648	61.25
854.818	56.62
854.987	71.73
855.156	60.66
855.325	57.25
855.494	52.36
855.663	57.77
855.832	56.61
856.001	49.96
856.171	44.9
856.34	31.55
856.509	35.11
856.678	21.54
856.847	17.23
857.016	21.53
857.185	14.21
857.353	4.38
857.522	3.19
857.691	-0.62
857.86	1.51
858.029	4.96
858.198	11.84
858.367	11.1
858.535	20.89
858.704	21.76
858.873	19.22
859.042	24.52
859.21	31.36
859.379	36.54
859.548	38.94
859.717	46.41
859.885	42.83
860.054	51.91
860.222	51.35
860.391	52.63
860.56	53
860.728	50.1
860.897	57.63
861.065	59.74
861.234	50.42
861.402	55.45
861.571	59.16
861.739	61.58
861.908	54.16
862.076	58.08
862.244	55.31
862.413	55.61
862.581	53
862.749	33.78
862.918	12.87
863.086	19.09
863.254	23.12
863.423	39.36
863.591	35.8
863.759	48.39
863.927	47.6
864.096	57
864.264	55.94
864.432	64.89
864.6	66.51
864.768	72.45
864.936	62.4
865.104	54.62
865.272	48.93
865.44	43.21
865.608	40.51
865.776	38.47
865.944	27.64
866.112	20.93
866.28	15.12
866.448	12.63
866.616	13.12
866.784	18.25
866.952	25.09
867.12	24.72
867.288	32.71
867.455	31.04
867.623	35.69
867.791	39.04
867.959	49.63
868.127	49.05
868.294	57.77
868.462	49.39
868.63	50.29
868.797	52.44
868.965	55.17
869.133	45.49
869.3	29.8
869.468	22.1
869.636	9.19
869.803	7.26
869.971	12.04
870.138	7.95
870.306	14.49
870.473	17.21
870.641	2.77
870.808	-11.91
870.975	-10.13
871.143	4.96
871.31	8.55
871.478	33.23
871.645	32.2
871.812	26.6
871.98	20.06
872.147	29.17
872.314	23.91
872.482	18.9
872.649	16.09
872.816	21.93
872.983	12.34
873.15	6.55
873.318	-10.73
873.485	-4.22
873.652	4.73
873.819	13.83
873.986	14.76
874.153	25.02
874.32	33.59
874.487	37.84
874.654	29.18
874.821	33.04
874.988	43.67
875.155	31.17
875.322	38.74
875.489	32.26
875.656	18.28
875.823	8.45
875.99	6.48
876.157	3.67
876.324	2.36
876.49	7.71
876.657	17.96
876.824	24.58
876.991	28.8
877.157	23.47
877.324	30.25
877.491	31.46
877.658	41.06
877.824	39.42
877.991	52.11
878.157	61.24
878.324	62.96
878.491	58.67
878.657	50.47
878.824	56.7
878.99	63.23
879.157	73.73
879.323	83.89
879.49	85.36
879.656	85.06
879.823	79.17
879.989	76.19
880.156	75.74
880.322	100.78
880.488	93.86
880.655	100.76
880.821	81.52
880.987	60.33
881.154	45.5
881.32	37.35
881.486	28.66
881.652	23.2
881.819	20.3
881.985	20.86
882.151	15.72
882.317	13.91
882.483	15.78
882.649	16.9
882.816	18.34
882.982	22.22
883.148	21.01
883.314	21.86
883.48	22.57
883.646	21.79
883.812	23.21
883.978	22.22
884.144	23.16
884.31	23.73
884.476	24.97
884.642	24.64
884.807	24.52
884.973	24.4
885.139	24.87
885.305	26.06
885.471	27.45
885.637	26.83
885.802	24.23
885.968	26.3
886.134	22.64
886.3	17.36
886.465	20.46
886.631	14.59
886.797	17.59
886.962	13.81
887.128	14.7
887.293	11.32
887.459	3.42
887.625	6.6
887.79	3.53
887.956	6.05
888.121	9.61
888.287	1.58
888.452	6.67
888.618	0.78
888.783	1.11
