Data from 2938116_Reflection_1.txt Node
Date: Sat Jul 11 18:09:41 EDT 2015
User: robert
Spectrometer: USB4E03001
Autoset integration time: false
Trigger mode: 4
Integration Time (sec): 1.000000E-1
Scans to average: 10
Electric dark correction enabled: true
Nonlinearity correction enabled: false
Boxcar width: 5
Stray light correction enabled: false
XAxis mode: Wavelengths
Stop averaging: false
Number of Pixels in Spectrum: 3648
>>>>>Begin Spectral Data<<<<<
177.566	504.17
177.785	-131.84
178.005	-8.29
178.225	23.97
178.445	4.17
178.665	46.84
178.885	60.54
179.105	126.49
179.324	106.17
179.544	117.81
179.764	117.15
179.984	165.73
180.204	168.32
180.423	216.25
180.643	890.37
180.863	-1437.02
181.083	551.16
181.302	603.71
181.522	335.71
181.742	388.54
181.961	394.24
182.181	365.72
182.401	566.76
182.621	2493.39
182.84	1502.26
183.06	477.58
183.279	315.38
183.499	292.16
183.719	240.78
183.938	226.43
184.158	316.15
184.377	250.21
184.597	252.25
184.816	212.47
185.036	195.63
185.256	222.07
185.475	246.85
185.695	232.07
185.914	279.33
186.134	257.42
186.353	319.83
186.572	201.95
186.792	238.65
187.011	340.84
187.231	307.46
187.45	238.45
187.67	203.36
187.889	195.95
188.108	220.87
188.328	213.81
188.547	198.1
188.766	177.01
188.986	230.72
189.205	265.74
189.424	219.99
189.644	254.74
189.863	354.26
190.082	1786.05
190.302	563.83
190.521	552.44
190.74	540.01
190.959	-3287.5
191.178	-2394.68
191.398	1519.09
191.617	502.17
191.836	576.88
192.055	936.79
192.274	785.61
192.494	535.02
192.713	2275.97
192.932	1559.32
193.151	-14258.76
193.37	-2997.24
193.589	-563.73
193.808	-3007.3
194.027	-2041.25
194.246	971.73
194.465	18330.51
194.685	1993.88
194.904	-4267.74
195.123	887.05
195.342	-1153.71
195.561	943.96
195.78	401.02
195.999	420.75
196.218	987.82
196.436	694.17
196.655	582.52
196.874	249.89
197.093	261.53
197.312	182.32
197.531	198.56
197.75	157.15
197.969	139.67
198.188	152.82
198.407	147.18
198.625	135.77
198.844	173.45
199.063	195.33
199.282	306.5
199.501	273.04
199.719	534.13
199.938	357.01
200.157	783.2
200.376	-6967.65
200.594	648.06
200.813	401.11
201.032	238.08
201.251	235.5
201.469	264.63
201.688	192.5
201.907	220.92
202.125	201.56
202.344	284.12
202.563	259.25
202.781	286.76
203	250.78
203.218	214.9
203.437	281.45
203.656	287.42
203.874	256.43
204.093	210.04
204.311	173.23
204.53	167.43
204.748	148.35
204.967	154.22
205.185	145.46
205.404	148.71
205.622	151.72
205.841	170.26
206.059	169.32
206.278	158.91
206.496	220.62
206.715	248.28
206.933	355.8
207.151	548.42
207.37	654.27
207.588	915
207.806	544.84
208.025	954.85
208.243	724.55
208.461	671.13
208.68	-341.29
208.898	558.74
209.116	417.3
209.335	306.52
209.553	679.81
209.771	549.11
209.989	1768.65
210.208	-3081.31
210.426	-1456.73
210.644	-1679.47
210.862	437.39
211.081	345.62
211.299	409.84
211.517	599.79
211.735	667.3
211.953	239.65
212.171	271.44
212.39	241.73
212.608	215.23
212.826	173.64
213.044	162.07
213.262	194.93
213.48	178.04
213.698	173.7
213.916	170.65
214.134	141.12
214.352	171.35
214.57	142.77
214.788	136.76
215.006	135.27
215.224	124.11
215.442	123.99
215.66	136.4
215.878	136.33
216.096	144.98
216.314	133.12
216.532	150.76
216.75	128.95
216.968	154.57
217.185	158.67
217.403	182.78
217.621	284.9
217.839	263.25
218.057	183.22
218.275	227.67
218.492	264.23
218.71	221.65
218.928	245.35
219.146	357.63
219.363	323.62
219.581	476.11
219.799	-769.95
220.017	-7222.68
220.234	-298.17
220.452	-185.91
220.67	-469.96
220.887	662.36
221.105	802.01
221.323	314.26
221.54	176.7
221.758	193.6
221.976	171.66
222.193	140.62
222.411	117.96
222.629	113.23
222.846	106.19
223.064	107.13
223.281	101.19
223.499	99.83
223.716	101.63
223.934	105.41
224.151	89.48
224.369	102.74
224.586	112.07
224.804	110.76
225.021	109.59
225.239	101.3
225.456	106.25
225.674	108.94
225.891	109.98
226.108	112.84
226.326	111.36
226.543	103.83
226.76	90.07
226.978	84.91
227.195	80.84
227.413	80.29
227.63	81.37
227.847	71.65
228.064	62.69
228.282	57.32
228.499	51.87
228.716	44.05
228.934	43.35
229.151	41.55
229.368	38.03
229.585	37
229.802	37.63
230.02	33.11
230.237	30.74
230.454	30.73
230.671	29.76
230.888	26.27
231.105	27.97
231.323	25.39
231.54	23.92
231.757	29.6
231.974	34.44
232.191	31.98
232.408	30.02
232.625	35.84
232.842	40.38
233.059	40.68
233.276	40.98
233.493	43.05
233.71	43.93
233.927	42.89
234.144	38.91
234.361	42.61
234.578	41.83
234.795	43.49
235.012	39.16
235.229	34.18
235.446	32.08
235.663	34.29
235.879	31.31
236.096	29.62
236.313	33.28
236.53	31.23
236.747	30.72
236.964	39.64
237.181	40.52
237.397	38.92
237.614	45.66
237.831	45.56
238.048	50.49
238.264	49.92
238.481	51.16
238.698	47.31
238.915	44.66
239.131	42.51
239.348	31.43
239.565	31.81
239.781	34.23
239.998	31.81
240.215	33.85
240.431	32.94
240.648	30.86
240.865	31.94
241.081	32.69
241.298	30.7
241.514	26.64
241.731	27.68
241.947	28.3
242.164	27.34
242.38	24.67
242.597	25.19
242.814	24.68
243.03	26.73
243.246	25.12
243.463	25.55
243.679	28.4
243.896	29.35
244.112	29.56
244.329	28.62
244.545	29.39
244.762	31.69
244.978	30.67
245.194	31.31
245.411	28.14
245.627	26.79
245.843	23.18
246.06	21.98
246.276	20.07
246.492	19.56
246.709	18.69
246.925	19.52
247.141	18.68
247.357	17.51
247.574	17.43
247.79	18.4
248.006	18.94
248.222	20.33
248.439	19.6
248.655	20.91
248.871	20.77
249.087	21.41
249.303	20.82
249.519	22.22
249.736	24.23
249.952	21.7
250.168	21.89
250.384	21.76
250.6	21.88
250.816	22.61
251.032	23.95
251.248	25.38
251.464	26.35
251.68	24.55
251.896	24.44
252.112	23
252.328	25.05
252.544	23.95
252.76	24.82
252.976	25.37
253.192	25.69
253.408	24.85
253.624	25.5
253.84	27.36
254.056	29.84
254.272	31.19
254.487	34.44
254.703	35.93
254.919	36.06
255.135	34.5
255.351	35.12
255.567	36.19
255.782	36.43
255.998	35.03
256.214	31.91
256.43	29.8
256.646	29.2
256.861	26.25
257.077	23.67
257.293	27.42
257.508	27.21
257.724	24.92
257.94	24.11
258.155	23.04
258.371	23.17
258.587	19.37
258.802	17.14
259.018	14.59
259.234	14.14
259.449	13.5
259.665	11.49
259.88	12.06
260.096	11.73
260.312	11.47
260.527	11.3
260.743	10.93
260.958	11.8
261.174	11.84
261.389	12.8
261.605	12.8
261.82	12.98
262.036	14.67
262.251	14.18
262.466	14.06
262.682	15.17
262.897	15.13
263.113	14.91
263.328	14.99
263.543	18.08
263.759	18.23
263.974	19.59
264.189	19.65
264.405	19.04
264.62	17.93
264.835	18.27
265.051	18.94
265.266	18.94
265.481	19.18
265.696	19.86
265.912	19.38
266.127	18.13
266.342	16.63
266.557	16.97
266.773	16.84
266.988	18.3
267.203	18.59
267.418	18.31
267.633	19.75
267.848	18.64
268.064	18.27
268.279	17.87
268.494	18.62
268.709	19.39
268.924	20.78
269.139	20.54
269.354	20.76
269.569	21.64
269.784	21.5
269.999	19.71
270.214	19.53
270.429	20.01
270.644	18.95
270.859	20.21
271.074	19.54
271.289	18.28
271.504	18.26
271.719	17.27
271.934	17.88
272.149	16.86
272.363	16.92
272.578	16.97
272.793	15.46
273.008	15.45
273.223	14.02
273.438	13.51
273.653	14.14
273.867	13.71
274.082	14.42
274.297	13.4
274.512	14.21
274.726	13.8
274.941	13.61
275.156	15.22
275.371	15.37
275.585	16.55
275.8	17.38
276.015	17.88
276.229	17.01
276.444	15.18
276.659	14.76
276.873	14.38
277.088	15.09
277.302	15.47
277.517	15.46
277.732	15.24
277.946	13.77
278.161	15.89
278.375	14.49
278.59	16.94
278.804	18.35
279.019	16.63
279.233	16.79
279.448	16.81
279.662	17.24
279.877	16.25
280.091	16.18
280.306	16.7
280.52	15.43
280.735	14.63
280.949	13.68
281.163	13.34
281.378	13.68
281.592	13.81
281.806	14.57
282.021	15.95
282.235	17.97
282.449	18.35
282.664	18.73
282.878	18.48
283.092	19.56
283.307	20.07
283.521	19.35
283.735	19.28
283.949	19.03
284.164	17.93
284.378	16.48
284.592	15.75
284.806	16.39
285.02	16.76
285.234	16.31
285.449	15.66
285.663	15.76
285.877	16.49
286.091	17.32
286.305	16.92
286.519	16.78
286.733	16.23
286.947	16.2
287.161	15.24
287.375	14.46
287.589	15.17
287.803	16.86
288.017	16.15
288.231	16.79
288.445	16.36
288.659	16.9
288.873	18.59
289.087	19.77
289.301	18.33
289.515	19.59
289.729	20.43
289.943	20.18
290.157	19.21
290.371	21.07
290.584	21.35
290.798	21.46
291.012	21.54
291.226	20.48
291.44	20.91
291.654	21.65
291.867	21.08
292.081	21.21
292.295	20.57
292.509	19.91
292.722	17.52
292.936	16.2
293.15	16.58
293.364	18.04
293.577	17.86
293.791	17.29
294.005	17.11
294.218	16.15
294.432	14.68
294.645	16.13
294.859	17.16
295.073	18.04
295.286	19.15
295.5	19.06
295.713	18.63
295.927	19.18
296.14	18.08
296.354	18.6
296.568	18.26
296.781	20.55
296.994	19.56
297.208	19.51
297.421	19.69
297.635	19.13
297.848	18.98
298.062	18.92
298.275	18.67
298.489	18.86
298.702	19.9
298.915	21.16
299.129	19.64
299.342	19.92
299.555	19.34
299.769	19.66
299.982	20.21
300.195	21.08
300.409	20.52
300.622	20.87
300.835	22.63
301.048	21.62
301.262	21.49
301.475	21.92
301.688	23.52
301.901	24.58
302.115	24.05
302.328	24.41
302.541	24.46
302.754	24.18
302.967	25.76
303.18	24.37
303.393	24.41
303.607	24.63
303.82	24.51
304.033	22.59
304.246	22.8
304.459	22.95
304.672	22.39
304.885	21.51
305.098	22.08
305.311	20.03
305.524	21.84
305.737	20.42
305.95	21.91
306.163	21.87
306.376	23.54
306.589	21.89
306.802	21.59
307.015	21.55
307.228	21.77
307.44	21.34
307.653	22.25
307.866	21.61
308.079	22.74
308.292	20.4
308.505	18.97
308.718	17.11
308.93	18.31
309.143	17.3
309.356	16.75
309.569	16.55
309.781	17.59
309.994	16.62
310.207	16.98
310.42	16.38
310.632	16.41
310.845	17.09
311.058	17.44
311.27	17.2
311.483	17.89
311.696	17.78
311.908	18.48
312.121	18.5
312.333	19.58
312.546	17.9
312.759	18.94
312.971	19.36
313.184	20
313.396	20.09
313.609	20.6
313.821	20.63
314.034	21.9
314.246	22.03
314.459	22.07
314.671	21.89
314.884	22.81
315.096	22.95
315.309	22.73
315.521	22.5
315.733	22.2
315.946	22.04
316.158	20.74
316.371	20.04
316.583	19.57
316.795	17.99
317.008	17.48
317.22	18.23
317.432	17.74
317.644	17.54
317.857	18.59
318.069	17.92
318.281	18.35
318.494	21.3
318.706	21.75
318.918	22.55
319.13	23.63
319.342	24.57
319.555	23.29
319.767	23.79
319.979	25.01
320.191	22.92
320.403	25.58
320.615	24.17
320.827	23.43
321.039	22.9
321.252	21.87
321.464	21.78
321.676	20.79
321.888	20.63
322.1	19.59
322.312	18.33
322.524	17.95
322.736	16.56
322.948	16.65
323.16	16.69
323.372	16.4
323.584	16.48
323.796	18.48
324.007	17.83
324.219	17.98
324.431	18.59
324.643	18.05
324.855	19.48
325.067	19.75
325.279	20.76
325.491	19.84
325.702	20.73
325.914	20.42
326.126	18.19
326.338	18.61
326.55	18.86
326.761	19.03
326.973	19.9
327.185	19.11
327.396	19.28
327.608	17.64
327.82	19.65
328.032	18.65
328.243	19.66
328.455	20.09
328.666	20.55
328.878	19.59
329.09	17.71
329.301	17
329.513	17.83
329.725	17.07
329.936	17.48
330.148	18.06
330.359	18.2
330.571	17.78
330.782	16.82
330.994	17.54
331.205	19.68
331.417	21.21
331.628	21.96
331.84	20.7
332.051	21.66
332.262	22.82
332.474	20.07
332.685	20.18
332.897	19.94
333.108	20.19
333.319	19.84
333.531	19.03
333.742	18.89
333.953	18.21
334.165	18.9
334.376	19.33
334.587	18.95
334.799	20.07
335.01	20.58
335.221	21.62
335.432	20.96
335.644	19.64
335.855	19.75
336.066	19.2
336.277	19.44
336.488	19.54
336.7	18.95
336.911	18.56
337.122	18.5
337.333	19.44
337.544	18.51
337.755	18.88
337.966	18
338.177	18.7
338.388	19.16
338.599	19.97
338.811	18.86
339.022	18.57
339.233	19.41
339.444	19.12
339.655	16.92
339.866	16.83
340.076	17.88
340.287	19.6
340.498	18.62
340.709	17.89
340.92	18.08
341.131	17.99
341.342	17.91
341.553	17.95
341.764	18.09
341.975	18.37
342.185	18.21
342.396	18.43
342.607	18.52
342.818	18.12
343.029	18.52
343.239	17.28
343.45	17.88
343.661	18.58
343.872	17.42
344.082	17.21
344.293	18.11
344.504	18.61
344.714	17.86
344.925	17.86
345.136	18.53
345.346	18.87
345.557	18.8
345.768	18.76
345.978	18.2
346.189	19.79
346.399	19.51
346.61	18.81
346.821	18.12
347.031	18.32
347.242	18.27
347.452	16.42
347.663	17.23
347.873	17.98
348.084	17.67
348.294	16.55
348.504	14.7
348.715	15.38
348.925	15.21
349.136	15.67
349.346	15.06
349.557	13.86
349.767	15.94
349.977	14.05
350.188	13.59
350.398	14.76
350.608	14.68
350.819	14.3
351.029	13.92
351.239	14.63
351.449	14.35
351.66	14.63
351.87	15.29
352.08	15.53
352.29	16.24
352.501	17.72
352.711	17.22
352.921	18.13
353.131	19.21
353.341	19.27
353.552	18.12
353.762	16.72
353.972	17.3
354.182	17.5
354.392	16.64
354.602	16.2
354.812	14.21
355.022	13.39
355.232	12.54
355.442	12.49
355.652	12.84
355.862	13.66
356.072	14.19
356.282	12.52
356.492	12.04
356.702	12.15
356.912	11.97
357.122	12.24
357.332	13.9
357.542	13.97
357.752	13.52
357.962	13.02
358.171	12.82
358.381	14.73
358.591	15.83
358.801	15.8
359.011	16.97
359.221	16.76
359.43	15.17
359.64	13.1
359.85	13.59
360.06	13.42
360.269	12.46
360.479	11.92
360.689	10.71
360.899	10.52
361.108	10.82
361.318	10.16
361.528	10.25
361.737	11.53
361.947	11.43
362.156	10.91
362.366	11.08
362.576	11.22
362.785	11.87
362.995	12.08
363.204	11.6
363.414	10.57
363.623	9.7
363.833	10.82
364.042	10.87
364.252	11.72
364.461	12.23
364.671	11.33
364.88	11.57
365.09	10.95
365.299	10.86
365.509	12.12
365.718	12.78
365.927	13.46
366.137	12.96
366.346	13.26
366.555	12.65
366.765	12.74
366.974	12.76
367.183	13.57
367.393	13.34
367.602	13.74
367.811	13.24
368.021	13.95
368.23	13.88
368.439	14.07
368.648	13.22
368.857	13.32
369.067	12.79
369.276	12.56
369.485	12.4
369.694	13.25
369.903	12.73
370.112	12.77
370.321	13.02
370.531	12.14
370.74	11.85
370.949	12.46
371.158	12.76
371.367	12.5
371.576	13.33
371.785	13.07
371.994	12.33
372.203	12.71
372.412	12.24
372.621	11.55
372.83	11.77
373.039	11.27
373.248	10.73
373.457	11.24
373.666	11.66
373.874	11.79
374.083	11.38
374.292	11.88
374.501	10.76
374.71	10.57
374.919	10.45
375.128	11.08
375.336	11.81
375.545	12.88
375.754	12.06
375.963	11.18
376.171	11.53
376.38	11.42
376.589	11.66
376.798	11.59
377.006	11.93
377.215	11.85
377.424	11.52
377.632	11.35
377.841	10.08
378.05	10.37
378.258	10.84
378.467	10.37
378.675	9.92
378.884	9.3
379.093	9.41
379.301	9.25
379.51	9.47
379.718	9.54
379.927	9.26
380.135	9.61
380.344	9.45
380.552	9.55
380.761	9.8
380.969	9.88
381.177	9.77
381.386	9.87
381.594	9.21
381.803	8.69
382.011	8.47
382.219	8.4
382.428	8.71
382.636	7.95
382.845	7.63
383.053	7.42
383.261	7.74
383.469	7.67
383.678	7.59
383.886	7.95
384.094	8.4
384.302	8.62
384.511	8.71
384.719	8.15
384.927	8.15
385.135	8.74
385.343	8.35
385.552	8.71
385.76	8.71
385.968	9.12
386.176	9.35
386.384	8.66
386.592	8.09
386.8	7.52
387.008	7.29
387.216	7.8
387.424	6.89
387.633	6.81
387.841	6.56
388.049	5.93
388.257	5.55
388.465	5.42
388.672	5.41
388.88	6.15
389.088	6.27
389.296	6.2
389.504	5.77
389.712	6.13
389.92	5.92
390.128	5.76
390.336	6.53
390.544	6.07
390.751	6
390.959	5.97
391.167	5.48
391.375	5.38
391.583	5.54
391.79	5.71
391.998	6.09
392.206	6.48
392.414	6.55
392.621	6.08
392.829	6.51
393.037	6.64
393.244	7.03
393.452	6.79
393.66	7.06
393.867	6.88
394.075	6.75
394.283	6.6
394.49	6.14
394.698	6.09
394.905	6.12
395.113	5.86
395.32	5.69
395.528	5.49
395.735	5.6
395.943	5.43
396.15	5.32
396.358	5.45
396.565	5.11
396.773	5.94
396.98	5.91
397.188	5.96
397.395	5.88
397.602	5.93
397.81	5.74
398.017	5.77
398.225	5.57
398.432	6.09
398.639	6
398.847	6.22
399.054	5.56
399.261	5.64
399.468	5.52
399.676	5.64
399.883	5.4
400.09	5.48
400.297	5.56
400.505	5.69
400.712	5.7
400.919	5.86
401.126	5.64
401.333	5.36
401.54	5.22
401.748	5.26
401.955	5.1
402.162	5.43
402.369	5.3
402.576	5.11
402.783	4.82
402.99	4.54
403.197	4.23
403.404	4.06
403.611	4.34
403.818	4.31
404.025	4.19
404.232	4.39
404.439	4.39
404.646	4.51
404.853	4.65
405.06	4.86
405.267	4.81
405.474	4.64
405.681	4.72
405.887	4.8
406.094	4.84
406.301	5.23
406.508	5.07
406.715	4.84
406.922	5.08
407.128	4.86
407.335	4.79
407.542	4.85
407.749	4.98
407.955	5.24
408.162	5.21
408.369	5.17
408.575	5.04
408.782	5.06
408.989	5
409.195	4.71
409.402	4.79
409.609	4.82
409.815	5.08
410.022	5.17
410.228	5.33
410.435	5.45
410.642	5.25
410.848	5.5
411.055	5.79
411.261	5.97
411.468	6.11
411.674	5.92
411.881	5.89
412.087	5.53
412.294	5.33
412.5	5.43
412.706	5.51
412.913	5.41
413.119	5
413.326	4.59
413.532	4.36
413.738	4.37
413.945	4.44
414.151	4.62
414.357	4.64
414.564	4.85
414.77	4.46
414.976	4.46
415.182	4.69
415.389	4.86
415.595	5
415.801	4.87
416.007	4.88
416.214	4.74
416.42	4.19
416.626	4.35
416.832	4.53
417.038	4.32
417.244	4.28
417.45	4.27
417.657	3.97
417.863	3.93
418.069	4.08
418.275	4.06
418.481	4.05
418.687	4.25
418.893	3.94
419.099	3.75
419.305	3.66
419.511	3.58
419.717	3.56
419.923	3.58
420.129	3.45
420.335	3.43
420.541	3.31
420.746	3.3
420.952	3.41
421.158	3.53
421.364	3.44
421.57	3.46
421.776	3.37
421.982	3.36
422.187	3.35
422.393	3.36
422.599	3.33
422.805	3.33
423.01	3.45
423.216	3.44
423.422	3.36
423.628	3.55
423.833	3.64
424.039	3.67
424.245	3.73
424.45	3.86
424.656	3.87
424.862	3.92
425.067	3.93
425.273	3.94
425.478	3.88
425.684	4.05
425.889	3.96
426.095	3.87
426.301	3.92
426.506	3.9
426.712	3.9
426.917	4.08
427.123	3.9
427.328	3.95
427.533	4.06
427.739	4.25
427.944	4.23
428.15	4.22
428.355	4.24
428.561	4.02
428.766	4
428.971	4.08
429.177	3.92
429.382	4.01
429.587	4.01
429.793	3.93
429.998	3.85
430.203	3.64
430.408	3.67
430.614	3.95
430.819	4.08
431.024	4.19
431.229	4.01
431.434	4.1
431.64	4.05
431.845	4.14
432.05	4.05
432.255	3.97
432.46	4.03
432.665	3.98
432.87	3.72
433.076	3.83
433.281	3.71
433.486	3.67
433.691	3.71
433.896	3.76
434.101	3.61
434.306	3.52
434.511	3.59
434.716	3.49
434.921	3.54
435.126	3.72
435.331	3.69
435.535	3.6
435.74	3.62
435.945	3.62
436.15	3.79
436.355	3.77
436.56	3.71
436.765	3.83
436.97	4.05
437.174	3.99
437.379	4.08
437.584	3.99
437.789	4.16
437.993	4.32
438.198	4.33
438.403	4.01
438.608	4.14
438.812	4.18
439.017	3.82
439.222	3.6
439.426	3.5
439.631	3.37
439.836	3.2
440.04	3.1
440.245	3.08
440.45	2.92
440.654	3
440.859	2.88
441.063	2.91
441.268	2.9
441.472	2.89
441.677	3
441.881	2.83
442.086	2.89
442.29	2.75
442.495	2.58
442.699	2.7
442.904	2.84
443.108	3.02
443.312	2.97
443.517	3.08
443.721	3.2
443.925	3.12
444.13	3.35
444.334	3.28
444.538	3.4
444.743	3.39
444.947	3.31
445.151	3.08
445.356	2.9
445.56	3.07
445.764	3.18
445.968	3.22
446.173	3.14
446.377	3.13
446.581	3.23
446.785	3.21
446.989	3.24
447.193	3.2
447.398	3.19
447.602	3.19
447.806	3.12
448.01	3.12
448.214	3.02
448.418	3.1
448.622	3.08
448.826	3.1
449.03	3.15
449.234	3.21
449.438	3.21
449.642	3.42
449.846	3.45
450.05	3.54
450.254	3.39
450.458	3.46
450.662	3.38
450.866	3.31
451.069	3.4
451.273	3.27
451.477	3.09
451.681	3.16
451.885	3.11
452.089	3.16
452.292	2.86
452.496	3.01
452.7	3.12
452.904	3.06
453.107	3.06
453.311	2.82
453.515	2.77
453.719	3.02
453.922	3.1
454.126	3.17
454.33	3.21
454.533	3.48
454.737	3.37
454.94	3.25
455.144	3.57
455.348	3.39
455.551	3.46
455.755	3.58
455.958	3.55
456.162	3.62
456.365	3.4
456.569	3.26
456.772	3.05
456.976	3.16
457.179	3.14
457.383	3.05
457.586	3.24
457.79	3.37
457.993	3.35
458.196	3.09
458.4	2.83
458.603	2.72
458.807	2.84
459.01	2.98
459.213	2.98
459.417	3.08
459.62	3
459.823	3.11
460.026	2.92
460.23	2.94
460.433	3.13
460.636	3.33
460.839	3.56
461.042	3.5
461.246	3.52
461.449	3.46
461.652	3.29
461.855	3.28
462.058	3.05
462.261	3.22
462.464	3.17
462.668	3.09
462.871	2.95
463.074	2.89
463.277	3.01
463.48	2.92
463.683	3.05
463.886	3.13
464.089	3.18
464.292	3.32
464.495	3.28
464.698	3.16
464.901	3.13
465.104	3.16
465.306	3.16
465.509	3.13
465.712	3.04
465.915	2.98
466.118	2.99
466.321	3.19
466.524	3.28
466.726	3.32
466.929	3.57
467.132	3.44
467.335	3.37
467.538	3.18
467.74	3.1
467.943	2.91
468.146	2.88
468.348	2.84
468.551	2.73
468.754	2.73
468.956	2.7
469.159	2.6
469.362	2.91
469.564	3.2
469.767	3.43
469.969	3.46
470.172	3.81
470.375	3.81
470.577	3.83
470.78	3.72
470.982	3.59
471.185	3.58
471.387	3.43
471.59	3.23
471.792	3.05
471.995	2.95
472.197	2.82
472.399	2.76
472.602	2.83
472.804	2.88
473.007	2.97
473.209	3.09
473.411	3.25
473.614	3.38
473.816	3.32
474.018	3.2
474.22	3.27
474.423	3.3
474.625	3.33
474.827	3.34
475.03	3.34
475.232	3.32
475.434	3.39
475.636	3.37
475.838	3.41
476.04	3.4
476.243	3.58
476.445	3.61
476.647	3.72
476.849	3.65
477.051	3.53
477.253	3.46
477.455	3.33
477.657	3.17
477.859	3.06
478.061	3.06
478.263	3.14
478.465	2.98
478.667	3.03
478.869	3
479.071	3.02
479.273	2.9
479.475	2.82
479.677	2.95
479.879	2.77
480.081	2.76
480.283	2.78
480.485	2.91
480.686	3.01
480.888	2.87
481.09	2.85
481.292	2.74
481.494	2.91
481.695	2.91
481.897	2.93
482.099	2.97
482.301	2.91
482.502	2.9
482.704	2.74
482.906	2.65
483.107	2.6
483.309	2.59
483.511	2.56
483.712	2.46
483.914	2.53
484.115	2.52
484.317	2.55
484.519	2.56
484.72	2.53
484.922	2.49
485.123	2.51
485.325	2.57
485.526	2.58
485.728	2.61
485.929	2.58
486.131	2.55
486.332	2.51
486.534	2.52
486.735	2.54
486.936	2.49
487.138	2.63
487.339	2.63
487.541	2.61
487.742	2.63
487.943	2.66
488.144	2.77
488.346	2.87
488.547	2.86
488.748	2.91
488.95	2.87
489.151	2.95
489.352	2.89
489.553	2.84
489.755	2.85
489.956	2.91
490.157	2.91
490.358	2.82
490.559	2.65
490.76	2.63
490.961	2.55
491.163	2.52
491.364	2.53
491.565	2.53
491.766	2.63
491.967	2.7
492.168	2.64
492.369	2.64
492.57	2.69
492.771	2.74
492.972	2.86
493.173	2.84
493.374	2.94
493.575	2.94
493.776	3.09
493.976	3.1
494.177	3
494.378	3.02
494.579	3.16
494.78	3.31
494.981	3.35
495.182	3.29
495.382	3.47
495.583	3.51
495.784	3.45
495.985	3.34
496.185	3.42
496.386	3.43
496.587	3.49
496.788	3.27
496.988	3.21
497.189	3.16
497.39	3.18
497.59	2.99
497.791	2.99
497.992	3.09
498.192	3.2
498.393	3.14
498.593	3.28
498.794	3.14
498.994	3.26
499.195	3.1
499.395	3.16
499.596	3.13
499.796	3.26
499.997	3.28
500.197	3.28
500.398	3.32
500.598	3.27
500.799	3.28
500.999	3.25
501.199	3.15
501.4	3.33
501.6	3.29
501.801	3.34
502.001	3.32
502.201	3.38
502.402	3.12
502.602	3.11
502.802	3.02
503.002	2.99
503.203	3.13
503.403	3.03
503.603	3.01
503.803	3.06
504.003	3
504.204	2.96
504.404	2.88
504.604	3.21
504.804	3.13
505.004	3.2
505.204	3.2
505.404	3.17
505.604	3.35
505.804	3.38
506.005	3.33
506.205	3.33
506.405	3.5
506.605	3.44
506.805	3.27
507.005	3.24
507.204	3.13
507.404	3.11
507.604	3
507.804	2.96
508.004	3.01
508.204	3.06
508.404	3.09
508.604	2.98
508.804	3.13
509.003	3.09
509.203	3.04
509.403	3
509.603	2.93
509.803	3.19
510.002	3.34
510.202	3.4
510.402	3.38
510.602	3.31
510.801	3.25
511.001	3.19
511.201	3.13
511.4	3.16
511.6	3.31
511.8	3.26
511.999	3.21
512.199	3.08
512.398	3.1
512.598	3.07
512.797	3.17
512.997	3.32
513.197	3.33
513.396	3.48
513.596	3.44
513.795	3.37
513.994	3.42
514.194	3.31
514.393	3.39
514.593	3.33
514.792	3.29
514.992	3.3
515.191	3.21
515.39	3.23
515.59	3.07
515.789	3.24
515.988	3.39
516.188	3.45
516.387	3.35
516.586	3.31
516.786	3.12
516.985	3.16
517.184	3.12
517.383	3.2
517.582	3.11
517.782	3.21
517.981	3.11
518.18	3.03
518.379	2.96
518.578	3.07
518.777	3.11
518.976	3.28
519.176	3.25
519.375	3.23
519.574	3.15
519.773	3.3
519.972	3.33
520.171	3.33
520.37	3.37
520.569	3.39
520.768	3.41
520.967	3.54
521.166	3.58
521.365	3.69
521.564	3.83
521.762	3.83
521.961	3.72
522.16	3.7
522.359	3.7
522.558	3.62
522.757	3.75
522.956	3.76
523.154	3.55
523.353	3.38
523.552	3.33
523.751	3.23
523.949	3.28
524.148	3.3
524.347	3.36
524.546	3.37
524.744	3.34
524.943	3.33
525.142	3.31
525.34	3.36
525.539	3.45
525.737	3.49
525.936	3.46
526.135	3.36
526.333	3.33
526.532	3.36
526.73	3.36
526.929	3.42
527.127	3.38
527.326	3.41
527.524	3.45
527.723	3.43
527.921	3.46
528.12	3.53
528.318	3.58
528.516	3.63
528.715	3.58
528.913	3.6
529.112	3.63
529.31	3.71
529.508	3.69
529.707	3.68
529.905	3.71
530.103	3.71
530.301	3.69
530.5	3.74
530.698	3.79
530.896	3.89
531.094	3.98
531.293	3.98
531.491	3.98
531.689	4.07
531.887	4.03
532.085	4.07
532.283	4.09
532.481	4.08
532.68	4.09
532.878	4
533.076	3.95
533.274	3.91
533.472	3.89
533.67	3.87
533.868	3.86
534.066	3.86
534.264	3.9
534.462	3.94
534.66	4.05
534.858	4.06
535.056	4.17
535.253	4.24
535.451	4.27
535.649	4.35
535.847	4.29
536.045	4.39
536.243	4.41
536.441	4.35
536.638	4.34
536.836	4.27
537.034	4.34
537.232	4.37
537.43	4.46
537.627	4.37
537.825	4.34
538.023	4.48
538.22	4.47
538.418	4.53
538.616	4.65
538.813	4.65
539.011	4.75
539.209	4.55
539.406	4.47
539.604	4.42
539.801	4.54
539.999	4.71
540.196	4.56
540.394	4.54
540.591	4.65
540.789	4.71
540.986	4.8
541.184	4.75
541.381	4.91
541.579	4.98
541.776	4.93
541.974	4.97
542.171	4.98
542.368	5.12
542.566	5.18
542.763	5.19
542.96	5.21
543.158	5.14
543.355	5.18
543.552	5.19
543.75	5.25
543.947	5.38
544.144	5.47
544.341	5.48
544.539	5.43
544.736	5.46
544.933	5.52
545.13	5.47
545.327	5.72
545.524	5.85
545.722	5.85
545.919	5.78
546.116	5.81
546.313	5.86
546.51	5.92
546.707	6.03
546.904	6.01
547.101	6.01
547.298	6.05
547.495	5.9
547.692	5.95
547.889	6
548.086	6.1
548.283	6.26
548.48	6.21
548.677	6.2
548.874	6.28
549.07	6.27
549.267	6.36
549.464	6.48
549.661	6.66
549.858	6.77
550.055	6.84
550.251	6.94
550.448	6.86
550.645	6.76
550.842	6.88
551.038	6.77
551.235	7.15
551.432	7.24
551.628	7.23
551.825	7.03
552.022	6.89
552.218	7.01
552.415	7.02
552.612	7.05
552.808	7.17
553.005	7.21
553.201	7.32
553.398	7.14
553.594	7.21
553.791	7.52
553.987	7.78
554.184	8
554.38	8.02
554.577	8.02
554.773	8.26
554.97	8.25
555.166	8.2
555.362	8.25
555.559	8.21
555.755	8.41
555.952	8.34
556.148	8.16
556.344	8.13
556.541	8.15
556.737	8.33
556.933	8.19
557.129	8.05
557.326	8.28
557.522	8.29
557.718	8.56
557.914	8.38
558.11	8.26
558.307	8.62
558.503	8.84
558.699	8.86
558.895	8.66
559.091	8.84
559.287	9.13
559.483	8.96
559.679	8.99
559.876	9.03
560.072	9.05
560.268	9.05
560.464	8.89
560.66	8.68
560.856	8.78
561.052	8.85
561.247	8.85
561.443	8.89
561.639	9.12
561.835	9.42
562.031	9.33
562.227	9.24
562.423	9.21
562.619	9.3
562.815	9.54
563.01	9.48
563.206	9.58
563.402	9.54
563.598	9.67
563.793	9.68
563.989	9.5
564.185	9.58
564.381	9.84
564.576	9.94
564.772	10.02
564.968	9.88
565.163	9.78
565.359	9.69
565.555	9.58
565.75	9.57
565.946	9.62
566.141	9.49
566.337	9.58
566.532	9.55
566.728	9.65
566.923	9.65
567.119	9.72
567.314	9.93
567.51	10.04
567.705	10.19
567.901	10.18
568.096	10.19
568.292	10.36
568.487	10.43
568.682	10.44
568.878	10.45
569.073	10.45
569.268	10.6
569.464	10.42
569.659	10.57
569.854	10.57
570.05	10.67
570.245	10.61
570.44	10.72
570.635	10.5
570.831	10.5
571.026	10.47
571.221	10.41
571.416	10.34
571.611	10.55
571.806	10.49
572.002	10.63
572.197	10.6
572.392	10.7
572.587	10.69
572.782	10.87
572.977	10.75
573.172	10.77
573.367	10.82
573.562	11
573.757	10.98
573.952	10.99
574.147	10.92
574.342	10.92
574.537	11.05
574.732	11.1
574.927	11.03
575.121	11.08
575.316	11.04
575.511	11.13
575.706	11.03
575.901	11.07
576.096	10.98
576.29	10.83
576.485	10.76
576.68	10.68
576.875	10.48
577.069	10.39
577.264	10.51
577.459	10.59
577.654	10.8
577.848	10.77
578.043	10.68
578.238	10.72
578.432	10.8
578.627	10.97
578.821	11.05
579.016	11.28
579.21	11.49
579.405	11.53
579.6	11.54
579.794	11.3
579.989	11.24
580.183	11.2
580.378	11.31
580.572	11.49
580.766	11.59
580.961	11.45
581.155	11.46
581.35	11.6
581.544	11.52
581.738	11.57
581.933	11.42
582.127	11.49
582.321	11.51
582.516	11.67
582.71	11.66
582.904	11.62
583.099	11.44
583.293	11.42
583.487	11.31
583.681	11.51
583.875	11.45
584.07	11.53
584.264	11.57
584.458	11.84
584.652	11.75
584.846	11.78
585.04	11.61
585.234	11.51
585.428	11.43
585.623	11.16
585.817	11.09
586.011	11.07
586.205	11.12
586.399	11.01
586.593	10.91
586.787	10.91
586.981	11.02
587.174	11.22
587.368	11.73
587.562	12.06
587.756	12.26
587.95	12.27
588.144	12.39
588.338	12.66
588.532	12.86
588.725	12.84
588.919	12.97
589.113	12.95
589.307	12.85
589.501	12.59
589.694	12.65
589.888	12.75
590.082	12.55
590.275	12.69
590.469	12.55
590.663	12.39
590.856	12.44
591.05	12.58
591.244	12.57
591.437	12.99
591.631	13.02
591.824	12.98
592.018	13.15
592.212	13.21
592.405	13.05
592.599	12.83
592.792	12.91
592.986	12.83
593.179	12.52
593.372	12.39
593.566	12.27
593.759	12.41
593.953	12.55
594.146	12.47
594.339	12.81
594.533	12.71
594.726	12.75
594.92	12.84
595.113	13.04
595.306	13.02
595.499	13.19
595.693	12.9
595.886	12.92
596.079	12.57
596.272	12.5
596.466	12.31
596.659	12.38
596.852	12.63
597.045	12.94
597.238	12.91
597.431	12.79
597.624	12.72
597.818	12.81
598.011	12.83
598.204	12.63
598.397	12.44
598.59	12.46
598.783	12.33
598.976	12.16
599.169	11.72
599.362	11.62
599.555	12.01
599.748	12.22
599.941	12.18
600.134	12.08
600.326	12.26
600.519	12.48
600.712	12.13
600.905	12.48
601.098	12.62
601.291	12.65
601.483	12.85
601.676	12.72
601.869	12.63
602.062	12.44
602.255	12.61
602.447	12.84
602.64	12.88
602.833	13.1
603.025	12.9
603.218	12.75
603.411	12.68
603.603	12.55
603.796	12.48
603.989	12.28
604.181	12.3
604.374	12.17
604.566	12.08
604.759	12.09
604.951	12.32
605.144	12.4
605.336	12.46
605.529	12.44
605.721	12.53
605.914	12.56
606.106	12.66
606.299	12.81
606.491	12.87
606.683	12.82
606.876	12.88
607.068	12.8
607.26	12.62
607.453	12.62
607.645	12.9
607.837	12.7
608.03	12.73
608.222	12.8
608.414	12.81
608.606	12.94
608.799	12.98
608.991	12.82
609.183	12.71
609.375	13.09
609.567	13.06
609.759	12.92
609.952	12.99
610.144	12.81
610.336	12.69
610.528	12.64
610.72	12.39
610.912	12.19
611.104	12.45
611.296	12.52
611.488	12.17
611.68	12.11
611.872	11.83
612.064	11.7
612.256	11.66
612.448	11.52
612.64	11.63
612.832	11.93
613.023	12.23
613.215	12.08
613.407	12.05
613.599	12.45
613.791	12.33
613.983	12.55
614.174	12.65
614.366	13.09
614.558	12.97
614.75	13.02
614.941	12.69
615.133	12.6
615.325	12.64
615.516	12.67
615.708	12.26
615.9	12.34
616.091	12.4
616.283	12.35
616.475	12.3
616.666	12.98
616.858	13.19
617.049	13.32
617.241	13.7
617.432	13.61
617.624	13.75
617.815	13.98
618.007	14.08
618.198	14.01
618.39	14.15
618.581	13.94
618.773	13.61
618.964	13.22
619.155	13.31
619.347	13.06
619.538	12.91
619.729	12.54
619.921	12.57
620.112	12.51
620.303	12.43
620.494	12.21
620.686	12.31
620.877	12.37
621.068	12.55
621.259	12.85
621.451	12.92
621.642	13.17
621.833	13.43
622.024	13.08
622.215	13.28
622.406	13.35
622.597	13.5
622.788	13.51
622.98	13.79
623.171	13.62
623.362	13.23
623.553	13.05
623.744	12.74
623.935	12.86
624.126	13.21
624.317	13
624.508	13.2
624.698	13.08
624.889	12.88
625.08	12.26
625.271	12.41
625.462	12.52
625.653	12.51
625.844	12.82
626.034	12.82
626.225	12.77
626.416	12.8
626.607	12.45
626.798	12.47
626.988	12.84
627.179	13.17
627.37	13.21
627.56	13.32
627.751	13.37
627.942	13.2
628.132	13.04
628.323	13.25
628.514	13.08
628.704	13.57
628.895	13.84
629.085	13.61
629.276	13.35
629.466	13.3
629.657	13
629.847	13.29
630.038	13.45
630.228	13.64
630.419	13.32
630.609	13.69
630.8	13.26
630.99	13.04
631.181	12.94
631.371	13.25
631.561	12.96
631.752	13.2
631.942	12.9
632.132	12.98
632.323	12.68
632.513	12.6
632.703	12.47
632.893	12.65
633.084	12.68
633.274	12.56
633.464	12.49
633.654	12.74
633.844	12.78
634.034	12.8
634.225	12.75
634.415	12.71
634.605	12.78
634.795	12.79
634.985	12.74
635.175	12.74
635.365	13.07
635.555	13.06
635.745	13.29
635.935	13.28
636.125	13.13
636.315	12.98
636.505	12.96
636.695	13.19
636.885	13.22
637.075	13.43
637.265	13.75
637.455	13.82
637.644	13.72
637.834	13.68
638.024	13.4
638.214	13.75
638.404	13.93
638.593	14.15
638.783	13.91
638.973	13.94
639.163	14.08
639.352	13.66
639.542	13.36
639.732	13.74
639.921	13.37
640.111	13.68
640.301	13.27
640.49	13.38
640.68	13.68
640.87	13.66
641.059	13.57
641.249	13.75
641.438	14.06
641.628	14.28
641.817	14.29
642.007	14.84
642.196	14.94
642.386	15.79
642.575	15.91
642.764	15.8
642.954	15.8
643.143	16.03
643.333	15.94
643.522	15.98
643.711	15.74
643.901	15.66
644.09	15.48
644.279	15.78
644.469	14.76
644.658	14.65
644.847	14.91
645.036	14.96
645.226	14.77
645.415	14.22
645.604	14
645.793	14.22
645.982	14.06
646.171	13.98
646.361	13.55
646.55	13.96
646.739	13.6
646.928	12.88
647.117	12.73
647.306	13
647.495	13.17
647.684	13.57
647.873	13.47
648.062	13.4
648.251	13.55
648.44	13.73
648.629	13.79
648.818	13.92
649.007	14.37
649.196	14.3
649.384	14.02
649.573	14.28
649.762	14.12
649.951	14
650.14	13.89
650.328	13.81
650.517	13.77
650.706	13.78
650.895	14.16
651.083	13.87
651.272	14.29
651.461	14.48
651.65	14.35
651.838	13.69
652.027	14.25
652.216	14.3
652.404	13.86
652.593	14.06
652.781	14
652.97	13.5
653.158	13.55
653.347	13.3
653.535	13.74
653.724	13.55
653.912	14.22
654.101	13.98
654.289	14.16
654.478	15.1
654.666	14.72
654.855	15.32
655.043	15.43
655.231	15.2
655.42	14.9
655.608	14.18
655.796	14.61
655.985	14.26
656.173	14.13
656.361	14.43
656.55	13.66
656.738	14.09
656.926	13.98
657.114	14.07
657.302	14.34
657.491	14.39
657.679	14.34
657.867	13.62
658.055	13.86
658.243	13.93
658.431	13.67
658.619	13.94
658.807	13.28
658.996	13.1
659.184	13.17
659.372	13.12
659.56	13.21
659.748	13.44
659.936	13.79
660.124	13.71
660.311	13.74
660.499	13.68
660.687	13.9
660.875	14.26
661.063	14.5
661.251	14.32
661.439	14.07
661.627	14.19
661.814	14.46
662.002	14.67
662.19	15.06
662.378	15.09
662.565	15
662.753	14.68
662.941	14.17
663.129	13.76
663.316	13.66
663.504	14.1
663.692	14.53
663.879	14.27
664.067	13.82
664.254	13.61
664.442	13.77
664.63	13.84
664.817	13.81
665.005	14.07
665.192	14.33
665.38	14.43
665.567	14.24
665.755	13.86
665.942	13.68
666.13	14.12
666.317	14.12
666.504	13.61
666.692	13.61
666.879	13.78
667.067	14.49
667.254	14.45
667.441	14.69
667.629	14.76
667.816	14.73
668.003	15.02
668.19	14.67
668.378	14.31
668.565	15
668.752	15.28
668.939	14.76
669.127	14.54
669.314	14.33
669.501	14.24
669.688	14.51
669.875	14.52
670.062	14.44
670.249	14.14
670.436	14.45
670.623	14.54
670.81	14.11
670.997	14.38
671.184	14.01
671.371	14.1
671.558	14.03
671.745	13.84
671.932	13.65
672.119	13.48
672.306	14.16
672.493	14.07
672.68	13.7
672.867	14.05
673.054	14.32
673.24	14.44
673.427	14.95
673.614	15.42
673.801	15.29
673.988	15.38
674.174	15.76
674.361	15.21
674.548	15.1
674.734	15.06
674.921	14.71
675.108	14.47
675.294	14.22
675.481	13.43
675.668	12.98
675.854	12.99
676.041	13.08
676.227	12.66
676.414	13.22
676.601	13.32
676.787	13.65
676.974	14.21
677.16	14.3
677.347	14.68
677.533	14.84
677.719	14.76
677.906	14.77
678.092	15.15
678.279	15.46
678.465	15.57
678.651	15.18
678.838	15.19
679.024	14.52
679.21	14.44
679.397	14.3
679.583	13.85
679.769	13.72
679.955	14
680.142	13.54
680.328	13.58
680.514	13.34
680.7	13.2
680.886	12.75
681.073	13.5
681.259	13.35
681.445	13.08
681.631	13.46
681.817	13.22
682.003	12.76
682.189	13.15
682.375	12.88
682.561	13.03
682.747	13.26
682.933	13.17
683.119	12.86
683.305	13.1
683.491	13.51
683.677	13.68
683.863	14.3
684.049	14.68
684.235	14.76
684.42	15.04
684.606	14.38
684.792	14.62
684.978	15.16
685.164	15.14
685.349	15.02
685.535	14.68
685.721	13.89
685.907	13.42
686.092	13.81
686.278	13.79
686.464	13.92
686.649	14.17
686.835	14.33
687.021	13.93
687.206	14.37
687.392	14.62
687.577	14.61
687.763	14.75
687.948	15.26
688.134	14.71
688.319	14.96
688.505	14.94
688.69	15.48
688.876	15.89
689.061	15.84
689.247	15.53
689.432	15.54
689.618	15.77
689.803	16.57
689.988	16.89
690.174	17.34
690.359	16.96
690.544	16.49
690.73	16.91
690.915	16.96
691.1	16.48
691.285	16.72
691.471	16.68
691.656	16.72
691.841	16.44
692.026	15.83
692.211	15.6
692.396	15.35
692.582	15.14
692.767	14.39
692.952	14
693.137	14.58
693.322	14.56
693.507	14.32
693.692	14.47
693.877	14.34
694.062	14.73
694.247	14.72
694.432	15.08
694.617	15.53
694.802	15.17
694.987	14.91
695.172	15.12
695.357	14.9
695.541	15.21
695.726	15.75
695.911	16.06
696.096	15.39
696.281	15.47
696.466	15.09
696.65	15.09
696.835	15.36
697.02	15.75
697.204	15.57
697.389	14.84
697.574	14.39
697.759	13.93
697.943	13.81
698.128	13.99
698.312	13.75
698.497	13.9
698.682	13.91
698.866	14.05
699.051	13.66
699.235	13.86
699.42	14.27
699.604	14.66
699.789	14.85
699.973	15.11
700.158	15.44
700.342	15.64
700.527	15.61
700.711	15.72
700.895	15.56
701.08	15.71
701.264	15.34
701.448	15.86
701.633	15.93
701.817	15.63
702.001	15.64
702.186	15.4
702.37	15.63
702.554	15.52
702.738	15.39
702.923	15.84
703.107	15.58
703.291	15.92
703.475	15.08
703.659	14.57
703.843	14.66
704.027	14.56
704.212	14.63
704.396	15.06
704.58	15.3
704.764	15.49
704.948	15.47
705.132	15.44
705.316	15.72
705.5	16.13
705.684	16.4
705.868	17.13
706.052	16.6
706.235	17.17
706.419	16.77
706.603	16.9
706.787	17.58
706.971	17.31
707.155	17.22
707.339	17.02
707.522	16.88
707.706	16.76
707.89	15.7
708.074	16.86
708.257	15.99
708.441	16.15
708.625	15.34
708.808	15.2
708.992	16.16
709.176	15.91
709.359	15.84
709.543	15.96
709.727	15.89
709.91	16.55
710.094	16.47
710.277	17.02
710.461	16.62
710.644	17.39
710.828	16.51
711.011	15.93
711.195	16.54
711.378	17.51
711.562	16.97
711.745	17.53
711.928	16.71
712.112	16.65
712.295	16.23
712.478	16.71
712.662	16.9
712.845	16.65
713.028	16.67
713.212	16.34
713.395	16.36
713.578	16.62
713.761	16.22
713.945	17.32
714.128	16.75
714.311	17.07
714.494	16.12
714.677	16.02
714.86	16.89
715.043	16.86
715.227	17.51
715.41	16.63
715.593	16.75
715.776	17.02
715.959	16.28
716.142	16.16
716.325	16.53
716.508	16.87
716.691	16.93
716.874	15.99
717.057	15.74
717.239	15.13
717.422	14.91
717.605	15.02
717.788	14.99
717.971	15.33
718.154	15.42
718.337	15.3
718.519	15.24
718.702	14.86
718.885	15.8
719.068	16.02
719.25	17.27
719.433	17.19
719.616	17.16
719.798	17.78
719.981	17.82
720.164	18.52
720.346	18.41
720.529	19.29
720.712	19.28
720.894	19.14
721.077	18.71
721.259	18.04
721.442	18.88
721.624	18.08
721.807	17.47
721.989	17.91
722.172	17.71
722.354	18.49
722.537	18.85
722.719	19.37
722.901	19.25
723.084	19.44
723.266	18.92
723.448	18.04
723.631	19.74
723.813	20.25
723.995	19.54
724.178	19.48
724.36	19.5
724.542	18.84
724.724	18.33
724.907	17.9
725.089	18.8
725.271	19.69
725.453	20.24
725.635	19.22
725.817	18.84
725.999	19.58
726.181	19.29
726.364	18.8
726.546	17.89
726.728	18.06
726.91	19.06
727.092	18.37
727.274	19.18
727.456	19.28
727.638	19.36
727.819	18.6
728.001	17.79
728.183	17.25
728.365	16.03
728.547	16.18
728.729	17.07
728.911	16.74
729.093	16.72
729.274	15.21
729.456	14.67
729.638	14.86
729.82	15.96
730.001	16.31
730.183	16.84
730.365	18.72
730.546	19.62
730.728	18.11
730.91	18.01
731.091	17.35
731.273	17.73
731.455	17.5
731.636	16.71
731.818	17.05
731.999	17.23
732.181	18.13
732.362	17.28
732.544	17.32
732.725	18.35
732.907	18.69
733.088	19.89
733.27	19.87
733.451	20.47
733.633	20.49
733.814	19.93
733.995	19.87
734.177	19
734.358	18.8
734.539	18.61
734.721	18.47
734.902	17.83
735.083	18.06
735.264	18.55
735.446	18.48
735.627	20.23
735.808	20.1
735.989	19.66
736.17	19.23
736.351	18.83
736.533	19.33
736.714	18.98
736.895	19.83
737.076	19.32
737.257	18.6
737.438	18.75
737.619	18.48
737.8	18.93
737.981	19.86
738.162	20.5
738.343	20.5
738.524	20.41
738.705	20.27
738.886	19.69
739.067	19.5
739.247	20.28
739.428	19.34
739.609	17.63
739.79	15.64
739.971	14.44
740.151	12.65
740.332	12.8
740.513	12.14
740.694	12.28
740.874	12.49
741.055	11.92
741.236	12.68
741.417	14.61
741.597	15.38
741.778	17.76
741.958	18.93
742.139	21
742.32	20.65
742.5	19.91
742.681	20.78
742.861	21.34
743.042	21.43
743.222	19.91
743.403	19.18
743.583	20.82
743.764	20.47
743.944	19.59
744.124	19.13
744.305	19.25
744.485	20.04
744.666	18.52
744.846	18.83
745.026	20.14
745.207	21.07
745.387	21.82
745.567	20.91
745.747	21.4
745.928	20.33
746.108	21.4
746.288	22.76
746.468	22.34
746.648	23.22
746.829	23.56
747.009	22.57
747.189	21.75
747.369	21.97
747.549	21.68
747.729	20.13
747.909	21.64
748.089	20.23
748.269	20.04
748.449	21.32
748.629	20.91
748.809	19.7
748.989	19.45
749.169	20.2
749.349	19.89
749.529	20.05
749.709	21.03
749.889	20.52
750.068	21.42
750.248	21.36
750.428	19.24
750.608	18.75
750.788	19.04
750.967	19.23
751.147	18.62
751.327	17.92
751.507	18.08
751.686	18.26
751.866	18.89
752.046	18.86
752.225	19.52
752.405	21.45
752.585	21.7
752.764	20.95
752.944	20.08
753.123	21.36
753.303	21.43
753.482	20.51
753.662	19.68
753.841	18.64
754.021	18.02
754.2	17.25
754.38	16.58
754.559	17.31
754.739	17.23
754.918	18.09
755.097	16.37
755.277	16.03
755.456	17.17
755.635	18.13
755.815	19.01
755.994	17.5
756.173	16.81
756.352	16.56
756.532	17.57
756.711	18.82
756.89	18.48
757.069	18.05
757.248	18.87
757.427	19.29
757.607	19.59
757.786	19.23
757.965	19.96
758.144	19.6
758.323	19.61
758.502	19.35
758.681	19.41
758.86	20.35
759.039	22.04
759.218	21.52
759.397	20.55
759.576	18.32
759.755	18.01
759.934	18.67
760.113	19.28
760.291	18.95
760.47	18.45
760.649	19.15
760.828	18.59
761.007	17.61
761.186	16.65
761.364	15.93
761.543	17.51
761.722	16.52
761.901	16.1
762.079	16.32
762.258	16.65
762.437	16.4
762.615	15.57
762.794	15.3
762.972	14.97
763.151	16
763.33	16.82
763.508	15.87
763.687	16.05
763.865	17.19
764.044	17.01
764.222	17.48
764.401	17.92
764.579	18.16
764.758	17.78
764.936	18.2
765.114	17.8
765.293	16.98
765.471	16.56
765.65	17.42
765.828	17.1
766.006	16.85
766.184	17.21
766.363	15.63
766.541	14.59
766.719	14.59
766.898	14.77
767.076	14.1
767.254	15.48
767.432	16.81
767.61	17.91
767.788	16.62
767.967	17.58
768.145	16.21
768.323	17.89
768.501	18.59
768.679	20.23
768.857	20.06
769.035	22.08
769.213	22.69
769.391	23.01
769.569	22.29
769.747	24.17
769.925	23.15
770.103	22.9
770.281	21.68
770.459	19.72
770.636	18.69
770.814	19.89
770.992	18.55
771.17	16.99
771.348	16.54
771.525	16.93
771.703	15.54
771.881	16.06
772.059	17.07
772.236	18.91
772.414	20.17
772.592	20.89
772.769	21.81
772.947	22.19
773.125	21.98
773.302	23.37
773.48	23.62
773.657	23.39
773.835	25.35
774.013	25.24
774.19	24.56
774.368	26.3
774.545	26.51
774.723	25.4
774.9	26.72
775.077	25.75
775.255	25.07
775.432	25.6
775.61	28.95
775.787	27.79
775.964	28.26
776.142	28.31
776.319	27.07
776.496	26.34
776.674	25.86
776.851	21.91
777.028	26.04
777.205	28
777.382	28.26
777.56	27.21
777.737	29.37
777.914	28.9
778.091	28.95
778.268	28.97
778.445	30.28
778.622	29.96
778.8	32.26
778.977	30.15
779.154	28.44
779.331	26.96
779.508	26.28
779.685	25.36
779.862	26.11
780.038	26.66
780.215	28.54
780.392	28.29
780.569	29.84
780.746	29.53
780.923	28.84
781.1	31.34
781.277	31.37
781.453	29.28
781.63	28.1
781.807	28.19
781.984	28.48
782.16	27.03
782.337	26.76
782.514	26.92
782.691	29.17
782.867	31.77
783.044	31.42
783.221	34.06
783.397	37.35
783.574	37.64
783.75	38.51
783.927	36.72
784.103	37.64
784.28	38.73
784.456	35.57
784.633	35.92
784.809	32.98
784.986	30.85
785.162	25.53
785.339	23.8
785.515	22.46
785.692	20.21
785.868	20.61
786.044	20.29
786.221	19.57
786.397	20.74
786.573	20.65
786.749	21.78
786.926	20.68
787.102	23.89
787.278	23.67
787.454	23.35
787.631	21.8
787.807	20.74
787.983	17.86
788.159	18.31
788.335	17.32
788.511	16.01
788.687	17.94
788.863	19.02
789.039	17.35
789.216	16.82
789.392	17.76
789.568	18.98
789.744	21.43
789.919	24.79
790.095	22.96
790.271	24.64
790.447	23.62
790.623	22.15
790.799	19.86
790.975	20.4
791.151	22.44
791.327	22.38
791.502	23.66
791.678	26.46
791.854	24.77
792.03	25.88
792.205	24.21
792.381	24.26
792.557	23.11
792.733	26.55
792.908	28.03
793.084	25.83
793.259	25.25
793.435	25.04
793.611	19.36
793.786	18.43
793.962	16.89
794.137	19.42
794.313	19.07
794.488	19.74
794.664	19.44
794.839	19.11
795.015	22.39
795.19	23.52
795.366	25.72
795.541	27
795.716	27.69
795.892	28.41
796.067	28.85
796.242	31.01
796.418	32.01
796.593	31.06
796.768	32.35
796.944	31.2
797.119	31.4
797.294	29.74
797.469	32.46
797.644	34.8
797.82	35.76
797.995	33.17
798.17	33.99
798.345	32.97
798.52	33.44
798.695	30.85
798.87	29.79
799.045	25.45
799.22	25.73
799.395	22.95
799.57	20.33
799.745	20.87
799.92	23.08
800.095	22.16
800.27	22.23
800.445	26.1
800.62	26.71
800.795	26.31
800.97	30
801.145	30.18
801.319	31.13
801.494	34.6
801.669	35
801.844	32.87
802.018	34.21
802.193	36.02
802.368	32.44
802.543	33.43
802.717	36.74
802.892	35.3
803.067	37.19
803.241	38.88
803.416	38.29
803.59	36.29
803.765	35.93
803.94	32.36
804.114	32.53
804.289	32.37
804.463	33.15
804.638	29.69
804.812	31.71
804.986	27.28
805.161	24.95
805.335	23.56
805.51	26.1
805.684	24.34
805.858	28.59
806.033	25.9
806.207	24.97
806.381	24.66
806.556	25.49
806.73	23.93
806.904	24.75
807.078	24.08
807.253	22.53
807.427	22.02
807.601	21.98
807.775	17.73
807.949	21.34
808.123	21.85
808.298	23.97
808.472	26.24
808.646	28.92
808.82	27.13
808.994	28.19
809.168	30.56
809.342	27.1
809.516	27.72
809.69	27.65
809.864	27.99
810.038	29.99
810.212	27.3
810.385	24.83
810.559	22.14
810.733	26.13
810.907	22.85
811.081	23.04
811.255	28.8
811.428	34.56
811.602	37.57
811.776	35.81
811.95	36.17
812.123	36.86
812.297	37.83
812.471	37.35
812.644	39.23
812.818	44.06
812.992	43.82
813.165	44.59
813.339	44.26
813.512	42.15
813.686	46.35
813.86	44.02
814.033	42.5
814.207	45.59
814.38	48.88
814.554	48.43
814.727	48.54
814.9	46.47
815.074	40.43
815.247	38.21
815.421	38.29
815.594	34.54
815.767	35.11
815.941	39.15
816.114	36.35
816.287	34.12
816.46	30.69
816.634	25.81
816.807	26.93
816.98	31.27
817.153	33.44
817.327	33.68
817.5	36.21
817.673	34.51
817.846	32.39
818.019	31.62
818.192	32.41
818.365	29.04
818.538	30.88
818.711	32.62
818.884	28.08
819.057	26.28
819.23	28.61
819.403	27.83
819.576	28.78
819.749	29.37
819.922	27.53
820.095	28.42
820.268	32.6
820.441	33.94
820.614	30.57
820.786	33.21
820.959	31.06
821.132	28.92
821.305	26.15
821.477	24.96
821.65	24
821.823	23.23
821.996	22.04
822.168	20.39
822.341	19.66
822.514	20.41
822.686	19.47
822.859	19.67
823.031	19.31
823.204	19.47
823.376	19.23
823.549	18.15
823.722	18.22
823.894	18.57
824.067	18.67
824.239	17.72
824.411	17.41
824.584	17.98
824.756	18.05
824.929	18.11
825.101	19.2
825.273	19.56
825.446	19.76
825.618	21.2
825.79	21.65
825.963	22.51
826.135	24.17
826.307	25.19
826.479	24.27
826.652	24.16
826.824	24.65
826.996	23.99
827.168	24.44
827.34	25.25
827.512	24.22
827.684	24.98
827.856	24.2
828.029	23.58
828.201	22.93
828.373	21.4
828.545	22.37
828.717	21.99
828.889	21.89
829.061	21.3
829.232	22.06
829.404	21.96
829.576	20.95
829.748	20.91
829.92	24.37
830.092	25.52
830.264	30.56
830.436	30.27
830.607	30.21
830.779	31.14
830.951	33.36
831.123	32.36
831.294	33.66
831.466	32.36
831.638	36.22
831.809	32.99
831.981	29.72
832.153	31.15
832.324	29.89
832.496	33.78
832.667	34.42
832.839	35.88
833.011	36.44
833.182	31.95
833.354	30.21
833.525	27.59
833.697	27.72
833.868	28.08
834.039	26.34
834.211	26.34
834.382	24.09
834.554	26.04
834.725	25.45
834.896	24.51
835.068	28.79
835.239	28.37
835.41	28.65
835.581	29.37
835.753	32.39
835.924	31.79
836.095	33.28
836.266	30.59
836.438	27.57
836.609	26.43
836.78	30.37
836.951	28.93
837.122	30.35
837.293	30.35
837.464	25.72
837.635	24.72
837.806	25.95
837.977	23.47
838.148	35.73
838.319	37.63
838.49	40.67
838.661	41.24
838.832	39.82
839.003	40.41
839.174	45.93
839.345	50.87
839.516	53.37
839.687	60.58
839.857	62.52
840.028	49.49
840.199	48.9
840.37	46.21
840.54	41.81
840.711	39.1
840.882	39.92
841.053	37.8
841.223	42.11
841.394	42.76
841.564	35.67
841.735	34.61
841.906	37.78
842.076	35.3
842.247	39.28
842.417	39.35
842.588	49.03
842.758	49.16
842.929	44.97
843.099	44.75
843.27	38.83
843.44	42.34
843.611	42.52
843.781	40.32
843.951	43.59
844.122	42.6
844.292	44.2
844.462	43.76
844.633	44.51
844.803	46.98
844.973	46.43
845.144	45.66
845.314	49.26
845.484	56.08
845.654	56.22
845.824	58.49
845.995	60.78
846.165	62.52
846.335	61.14
846.505	72.34
846.675	78.81
846.845	78.61
847.015	96.54
847.185	81.04
847.355	79.92
847.525	84.39
847.695	81.54
847.865	80.79
848.035	79.06
848.205	78.28
848.375	82.96
848.545	75.1
848.715	76.43
848.884	72.34
849.054	75.07
849.224	78.28
849.394	88.08
849.564	82.38
849.733	84.89
849.903	84.55
850.073	85
850.243	69.27
850.412	83.52
850.582	93.47
850.752	91.84
850.921	117.04
851.091	109.82
851.26	90.27
851.43	84.9
851.599	77.52
851.769	85.03
851.939	77.56
852.108	78.31
852.278	64.18
852.447	50.43
852.616	52.31
852.786	51.68
852.955	60.64
853.125	63.69
853.294	69.46
853.463	68.41
853.633	57.12
853.802	57.05
853.971	70.15
854.141	72.95
854.31	86.69
854.479	105.62
854.648	96.43
854.818	77.05
854.987	83.5
855.156	82.51
855.325	84.68
855.494	92.53
855.663	91.22
855.832	74.38
856.001	86.74
856.171	80.18
856.34	68.09
856.509	77.36
856.678	81.63
856.847	68.35
857.016	69.25
857.185	65.36
857.353	64.84
857.522	61.16
857.691	68.24
857.86	65.99
858.029	57.86
858.198	51.16
858.367	52.42
858.535	46.04
858.704	53.19
858.873	61.8
859.042	63.85
859.21	76.05
859.379	97.25
859.548	110.83
859.717	90.84
859.885	92.12
860.054	96.53
860.222	84.11
860.391	85.34
860.56	98.56
860.728	90.79
860.897	92.32
861.065	83.79
861.234	79.7
861.402	59.59
861.571	76.49
861.739	89.16
861.908	87.4
862.076	75.94
862.244	80.26
862.413	76.7
862.581	78.72
862.749	80.16
862.918	80.92
863.086	81.57
863.254	93.84
863.423	94.55
863.591	96.5
863.759	94.79
863.927	94.81
864.096	97.62
864.264	85.53
864.432	82.99
864.6	89.04
864.768	79.57
864.936	75.72
865.104	70.51
865.272	69.03
865.44	62.79
865.608	66.55
865.776	89.02
865.944	88.38
866.112	102.99
866.28	112.14
866.448	94.59
866.616	115.9
866.784	123.93
866.952	101.03
867.12	98.65
867.288	82.79
867.455	91.89
867.623	75
867.791	61.17
867.959	49.79
868.127	40.47
868.294	54.07
868.462	42.28
868.63	60.3
868.797	75.55
868.965	71.75
869.133	76.24
869.3	71.69
869.468	73.81
869.636	80.26
869.803	80.38
869.971	96.82
870.138	119.43
870.306	117.6
870.473	81.88
870.641	65.82
870.808	77.74
870.975	63.73
871.143	69.06
871.31	67.09
871.478	43.83
871.645	60.86
871.812	57.97
871.98	55.11
872.147	61.28
872.314	63.71
872.482	62.7
872.649	53.03
872.816	69.29
872.983	70.03
873.15	77.78
873.318	97.46
873.485	90.32
873.652	92.38
873.819	97.06
873.986	91.16
874.153	81.7
874.32	82.73
874.487	93.68
874.654	82.9
874.821	70.33
874.988	76.72
875.155	77.76
875.322	77.84
875.489	74.38
875.656	62.14
875.823	46.58
875.99	50.15
876.157	48.13
876.324	48.61
876.49	43.95
876.657	41.13
876.824	2.79
876.991	0.79
877.157	3.92
877.324	-1.72
877.491	12.19
877.658	23.28
877.824	30.48
877.991	31.69
878.157	17.43
878.324	30.32
878.491	38.34
878.657	73.04
878.824	88.9
878.99	89.38
879.157	94.5
879.323	79.5
879.49	78.49
879.656	78.15
879.823	68.37
879.989	74.09
880.156	79.35
880.322	74.96
880.488	69.83
880.655	61.03
880.821	61.49
880.987	56.38
881.154	51.94
881.32	52
881.486	49.95
881.652	53.5
881.819	51.82
881.985	49.82
882.151	46.81
882.317	45.98
882.483	45.45
882.649	41.99
882.816	40.26
882.982	40
883.148	43.06
883.314	40.96
883.48	39.18
883.646	38.98
883.812	35.46
883.978	36.15
884.144	35.34
884.31	33.25
884.476	34.12
884.642	33.86
884.807	36.88
884.973	33.83
885.139	33.63
885.305	33.28
885.471	31.34
885.637	30.58
885.802	31
885.968	30.15
886.134	33.54
886.3	35.45
886.465	40.69
886.631	41.8
886.797	44.07
886.962	43.65
887.128	42.32
887.293	43.61
887.459	50.1
887.625	45.36
887.79	41.78
887.956	29.99
888.121	26.71
888.287	16.06
888.452	4.65
888.618	-0.02
888.783	2.29
