Data from 2938120_Reflection_3.txt Node
Date: Sat Jul 11 17:51:28 EDT 2015
User: robert
Spectrometer: USB4E03001
Autoset integration time: false
Trigger mode: 4
Integration Time (sec): 1.000000E-1
Scans to average: 10
Electric dark correction enabled: true
Nonlinearity correction enabled: false
Boxcar width: 5
Stray light correction enabled: false
XAxis mode: Wavelengths
Stop averaging: false
Number of Pixels in Spectrum: 3648
>>>>>Begin Spectral Data<<<<<
177.566	189.35
177.785	-137.67
178.005	-20.05
178.225	70.53
178.445	-4.85
178.665	33.04
178.885	64.06
179.105	51.68
179.324	30.63
179.544	31.59
179.764	75.65
179.984	73.69
180.204	166.81
180.423	139.27
180.643	343.12
180.863	-801.04
181.083	313.17
181.302	269.74
181.522	168.87
181.742	226.04
181.961	246.46
182.181	189.64
182.401	294.35
182.621	880.03
182.84	521.42
183.06	154.26
183.279	115.21
183.499	114.31
183.719	101.97
183.938	94.35
184.158	110.17
184.377	69.9
184.597	86.69
184.816	85.91
185.036	89.26
185.256	101.85
185.475	122.16
185.695	122.65
185.914	120.45
186.134	108.14
186.353	128.58
186.572	91.76
186.792	119.92
187.011	135.13
187.231	125
187.45	103.82
187.67	91.36
187.889	96.06
188.108	105.39
188.328	102.09
188.547	104.94
188.766	95.87
188.986	107.96
189.205	107.89
189.424	118.54
189.644	147.39
189.863	186.7
190.082	704.91
190.302	144.1
190.521	103.45
190.74	161.34
190.959	-389.83
191.178	-519.39
191.398	391.73
191.617	183.82
191.836	149.28
192.055	77.12
192.274	78.54
192.494	98.47
192.713	411.48
192.932	341.88
193.151	-4330.93
193.37	-1231.72
193.589	-171.19
193.808	-1441.08
194.027	-1102.66
194.246	638.04
194.465	14545.76
194.685	1360.5
194.904	-2908.24
195.123	601.79
195.342	-555.13
195.561	414.63
195.78	185.98
195.999	198.43
196.218	406.33
196.436	261.01
196.655	221.31
196.874	135.75
197.093	130.09
197.312	109.6
197.531	123.42
197.75	131.13
197.969	113.86
198.188	115.8
198.407	127.76
198.625	106.11
198.844	147.6
199.063	135.95
199.282	187.95
199.501	201.01
199.719	307.95
199.938	250.15
200.157	468.69
200.376	-4627.94
200.594	499.59
200.813	228.2
201.032	178.55
201.251	117.3
201.469	133.28
201.688	91.98
201.907	76.84
202.125	68.69
202.344	45.2
202.563	36.97
202.781	32.38
203	13.69
203.218	58.21
203.437	41.85
203.656	71.49
203.874	111.24
204.093	109.12
204.311	126.53
204.53	121.39
204.748	114.74
204.967	103.63
205.185	99.2
205.404	107.31
205.622	112.96
205.841	109.15
206.059	116.76
206.278	116.67
206.496	150.15
206.715	172.02
206.933	214.42
207.151	314.11
207.37	479.71
207.588	585
207.806	343.82
208.025	425.47
208.243	257.33
208.461	312.29
208.68	-6.7
208.898	-74.94
209.116	65
209.335	70.22
209.553	-59.62
209.771	-15.31
209.989	-111.48
210.208	-60.33
210.426	-240.08
210.644	-541.06
210.862	81.31
211.081	108.23
211.299	226.94
211.517	381.32
211.735	417.66
211.953	186.57
212.171	191.97
212.39	187.85
212.608	163.99
212.826	160.44
213.044	156.32
213.262	176.79
213.48	167.49
213.698	172.58
213.916	142.17
214.134	119.94
214.352	130.53
214.57	128.07
214.788	117.11
215.006	113.87
215.224	84.18
215.442	72.17
215.66	66.89
215.878	65.4
216.096	58.83
216.314	59.63
216.532	70.9
216.75	70.64
216.968	69.8
217.185	59.51
217.403	62.11
217.621	98.88
217.839	143.02
218.057	135.73
218.275	141.82
218.492	149.58
218.71	120.51
218.928	106.04
219.146	110.41
219.363	140
219.581	244.71
219.799	-338.05
220.017	-3995.88
220.234	-49.94
220.452	79.63
220.67	71.65
220.887	84.7
221.105	239.83
221.323	179.8
221.54	107.27
221.758	85.98
221.976	78.3
222.193	81.89
222.411	68.52
222.629	77.42
222.846	100.86
223.064	103.31
223.281	88.82
223.499	86.58
223.716	84.96
223.934	86.19
224.151	80.01
224.369	86.59
224.586	87.93
224.804	94.35
225.021	92.71
225.239	89.14
225.456	86.23
225.674	96.78
225.891	92.76
226.108	77.2
226.326	75.29
226.543	70.14
226.76	66.12
226.978	57.18
227.195	52.33
227.413	44.37
227.63	28.98
227.847	25.59
228.064	25.64
228.282	23.66
228.499	23.31
228.716	24.27
228.934	24.39
229.151	25.18
229.368	24.32
229.585	22.36
229.802	22.24
230.02	22.37
230.237	19.88
230.454	20.65
230.671	19.15
230.888	19.69
231.105	19.97
231.323	21.49
231.54	19.5
231.757	22.34
231.974	19.97
232.191	25.15
232.408	24.78
232.625	35.06
232.842	34.66
233.059	30.41
233.276	29.9
233.493	30.27
233.71	24.8
233.927	22.74
234.144	22.37
234.361	24.23
234.578	22.05
234.795	22.05
235.012	13.72
235.229	8.68
235.446	11.6
235.663	19.58
235.879	22.35
236.096	21.8
236.313	20.31
236.53	20.6
236.747	31.05
236.964	35.9
237.181	39.18
237.397	42.31
237.614	46.29
237.831	46.61
238.048	44.12
238.264	41.53
238.481	45.84
238.698	46.54
238.915	43.96
239.131	40.12
239.348	36.82
239.565	33.43
239.781	34.07
239.998	32.86
240.215	36.11
240.431	35.3
240.648	33.43
240.865	31.2
241.081	30.88
241.298	30.1
241.514	28.1
241.731	24.81
241.947	23.25
242.164	20.53
242.38	19.12
242.597	17.34
242.814	17.4
243.03	17.78
243.246	17.03
243.463	17.83
243.679	17.99
243.896	19.07
244.112	20.39
244.329	19.48
244.545	22.6
244.762	21.52
244.978	21.93
245.194	20.25
245.411	19.01
245.627	19.4
245.843	16.68
246.06	16.24
246.276	14.62
246.492	15.13
246.709	14.42
246.925	13.4
247.141	14.18
247.357	14.06
247.574	14.23
247.79	15.16
248.006	14.43
248.222	14.01
248.439	14.43
248.655	14.26
248.871	12.97
249.087	15.08
249.303	15.05
249.519	15.28
249.736	13.98
249.952	12.63
250.168	9.91
250.384	11.27
250.6	13.97
250.816	12.19
251.032	14.3
251.248	15.71
251.464	16.08
251.68	16.17
251.896	16.82
252.112	17.51
252.328	18.23
252.544	19.15
252.76	20.28
252.976	21.49
253.192	22.1
253.408	21.69
253.624	21.31
253.84	21.23
254.056	23.05
254.272	22.29
254.487	22.98
254.703	23.49
254.919	24.47
255.135	22.75
255.351	21.45
255.567	22.77
255.782	24.82
255.998	23.48
256.214	20.13
256.43	17.94
256.646	15.41
256.861	16.87
257.077	16.68
257.293	15.56
257.508	12.26
257.724	10.77
257.94	10.17
258.155	8.3
258.371	10.09
258.587	9.7
258.802	9.84
259.018	10.53
259.234	9.15
259.449	8.5
259.665	8.25
259.88	9.79
260.096	9.99
260.312	9.31
260.527	9.9
260.743	9.46
260.958	10.18
261.174	10.12
261.389	10.04
261.605	11
261.82	10.96
262.036	10.43
262.251	8.98
262.466	8.89
262.682	10.89
262.897	10.32
263.113	11.25
263.328	11.08
263.543	12.4
263.759	12.21
263.974	12.36
264.189	13.73
264.405	16.61
264.62	17.68
264.835	15.18
265.051	15.52
265.266	15.88
265.481	13.12
265.696	13.83
265.912	12.99
266.127	13.33
266.342	11.89
266.557	10.99
266.773	8.6
266.988	9.07
267.203	10.19
267.418	7.97
267.633	8.34
267.848	9.78
268.064	10.16
268.279	10.71
268.494	11.55
268.709	11.08
268.924	11.3
269.139	12.15
269.354	11.99
269.569	12.52
269.784	13.48
269.999	12.66
270.214	11.7
270.429	11.94
270.644	12.01
270.859	12.39
271.074	11.75
271.289	12.34
271.504	12.14
271.719	12.16
271.934	12.39
272.149	11.97
272.363	11.84
272.578	11.46
272.793	10.99
273.008	10.79
273.223	10.43
273.438	11.43
273.653	11.37
273.867	10.41
274.082	11.07
274.297	10.79
274.512	11.86
274.726	9.8
274.941	10.73
275.156	11.34
275.371	8.91
275.585	9.51
275.8	10.23
276.015	10.51
276.229	12.26
276.444	9.79
276.659	8.83
276.873	7.32
277.088	10.61
277.302	12.34
277.517	10.43
277.732	10.34
277.946	8.32
278.161	8.79
278.375	8.54
278.59	9.91
278.804	12.93
279.019	14.68
279.233	15.37
279.448	13.75
279.662	13.61
279.877	13.84
280.091	14.78
280.306	17.31
280.52	15.6
280.735	13.77
280.949	11.86
281.163	10.67
281.378	10.21
281.592	11.68
281.806	11.62
282.021	11.8
282.235	11.77
282.449	12.17
282.664	11.18
282.878	11.91
283.092	13.52
283.307	14.67
283.521	14.93
283.735	14.34
283.949	13.03
284.164	12.76
284.378	11.57
284.592	12.81
284.806	13.41
285.02	12.85
285.234	12.22
285.449	11.63
285.663	10.67
285.877	11.54
286.091	12.31
286.305	11.78
286.519	11.71
286.733	11.52
286.947	10.28
287.161	10.51
287.375	10.36
287.589	10.18
287.803	11.4
288.017	12.4
288.231	11.38
288.445	10.91
288.659	11.8
288.873	13.14
289.087	12.97
289.301	13.38
289.515	13.72
289.729	14.92
289.943	16.87
290.157	17.22
290.371	17.46
290.584	17.73
290.798	17.44
291.012	17.08
291.226	16.72
291.44	17.76
291.654	16.73
291.867	16.29
292.081	16.1
292.295	14.19
292.509	13.55
292.722	11.8
292.936	11.54
293.15	11.89
293.364	13.6
293.577	13.74
293.791	13.47
294.005	15.03
294.218	13.1
294.432	11.11
294.645	13.33
294.859	14.1
295.073	14.05
295.286	14.94
295.5	15.92
295.713	15.52
295.927	15.34
296.14	15.26
296.354	15.11
296.568	15.28
296.781	16.79
296.994	15.5
297.208	14.62
297.421	14.99
297.635	15.14
297.848	14.01
298.062	13.59
298.275	13.04
298.489	12.18
298.702	12.91
298.915	13.11
299.129	12.55
299.342	12.5
299.555	13.61
299.769	16.58
299.982	16.42
300.195	17.82
300.409	18.86
300.622	20.69
300.835	22.09
301.048	20.76
301.262	21.34
301.475	21.17
301.688	22.36
301.901	21.69
302.115	18.87
302.328	17.97
302.541	17.84
302.754	17.48
302.967	16.92
303.18	15.64
303.393	16.79
303.607	18.69
303.82	18.58
304.033	18.19
304.246	19.59
304.459	19.88
304.672	20.77
304.885	20.69
305.098	20.27
305.311	19.1
305.524	20.74
305.737	19.64
305.95	19.65
306.163	20.27
306.376	20.55
306.589	18.5
306.802	18.25
307.015	18.55
307.228	17.24
307.44	16.96
307.653	17.88
307.866	17.81
308.079	18.23
308.292	16.67
308.505	15.83
308.718	15.56
308.93	15.37
309.143	15.24
309.356	14.49
309.569	14.94
309.781	15.78
309.994	15.47
310.207	15.53
310.42	15.06
310.632	15.35
310.845	14.79
311.058	14.43
311.27	14.39
311.483	15.71
311.696	15.16
311.908	16.05
312.121	16.3
312.333	16.87
312.546	16.31
312.759	17.42
312.971	17.17
313.184	18.12
313.396	17.54
313.609	18.14
313.821	17.66
314.034	17.87
314.246	17.82
314.459	16.3
314.671	15.23
314.884	15.07
315.096	14.98
315.309	15.48
315.521	16.16
315.733	17.48
315.946	17.07
316.158	15.53
316.371	16.36
316.583	16.33
316.795	16.99
317.008	19.57
317.22	19.68
317.432	19.97
317.644	20.66
317.857	20.76
318.069	19.99
318.281	21.07
318.494	22.76
318.706	22.65
318.918	21.51
319.13	21.07
319.342	19.77
319.555	20.21
319.767	19.25
319.979	17.78
320.191	16.28
320.403	18.09
320.615	16.82
320.827	16.23
321.039	16.75
321.252	17.36
321.464	19.07
321.676	19.41
321.888	19.37
322.1	19.64
322.312	19.6
322.524	20.74
322.736	19.48
322.948	19.54
323.16	20.68
323.372	20.4
323.584	19.44
323.796	19.9
324.007	18.65
324.219	20.13
324.431	19.48
324.643	20.45
324.855	19.66
325.067	20.38
325.279	21.16
325.491	20.07
325.702	20.43
325.914	20.65
326.126	19.54
326.338	19.99
326.55	19.01
326.761	20.12
326.973	20.16
327.185	21.04
327.396	19.98
327.608	20.55
327.82	22.83
328.032	22.43
328.243	23.88
328.455	22.88
328.666	23.47
328.878	22.81
329.09	22.89
329.301	22.13
329.513	21.52
329.725	22.26
329.936	21.51
330.148	22.11
330.359	21.38
330.571	20.76
330.782	21.75
330.994	22.94
331.205	25.21
331.417	24.39
331.628	25.14
331.84	25.42
332.051	25.95
332.262	26.87
332.474	24.81
332.685	26.51
332.897	26.29
333.108	25.3
333.319	24.78
333.531	24.28
333.742	25.4
333.953	26.58
334.165	27.31
334.376	28.27
334.587	27.55
334.799	27.11
335.01	26.29
335.221	27.07
335.432	27.54
335.644	27.89
335.855	28.25
336.066	27.93
336.277	27.3
336.488	25.96
336.7	25.05
336.911	25.43
337.122	26.48
337.333	27.77
337.544	29.1
337.755	29.89
337.966	27.86
338.177	27.95
338.388	27.72
338.599	28.31
338.811	29.37
339.022	29.16
339.233	28.62
339.444	29.1
339.655	28.65
339.866	27.15
340.076	28.36
340.287	30.9
340.498	30.11
340.709	30.24
340.92	29.02
341.131	29.03
341.342	29.65
341.553	31.36
341.764	30.97
341.975	30.65
342.185	31.31
342.396	30.55
342.607	29.65
342.818	29.26
343.029	29.46
343.239	30.89
343.45	30.34
343.661	29.85
343.872	28.52
344.082	28.63
344.293	29.41
344.504	29.38
344.714	29.22
344.925	29.78
345.136	30.05
345.346	29.79
345.557	29
345.768	28.78
345.978	28.84
346.189	29.85
346.399	29.72
346.61	28.81
346.821	28.45
347.031	27.9
347.242	28.07
347.452	28.48
347.663	29.12
347.873	29.14
348.084	30.38
348.294	30.52
348.504	29.73
348.715	29.2
348.925	29.65
349.136	29.79
349.346	30.21
349.557	28.07
349.767	28.65
349.977	28.32
350.188	28.58
350.398	29.12
350.608	28.68
350.819	28.37
351.029	28.12
351.239	28.64
351.449	28.94
351.66	28.87
351.87	29.2
352.08	28.8
352.29	28.85
352.501	29.21
352.711	27.57
352.921	27.24
353.131	27.94
353.341	27.81
353.552	27.65
353.762	26.35
353.972	27.51
354.182	28.1
354.392	27.35
354.602	27.18
354.812	26.24
355.022	26.2
355.232	26.24
355.442	27.11
355.652	28.68
355.862	27.7
356.072	27.85
356.282	25.64
356.492	26.52
356.702	26.96
356.912	26.75
357.122	26.51
357.332	27.68
357.542	27.63
357.752	26.59
357.962	24.71
358.171	24.54
358.381	26.31
358.591	27.25
358.801	27.09
359.011	27.02
359.221	26.46
359.43	26.55
359.64	25.78
359.85	25.75
360.06	26.15
360.269	26.68
360.479	27.04
360.689	25.75
360.899	25.64
361.108	25.35
361.318	25.15
361.528	25.98
361.737	26.54
361.947	25.91
362.156	25.85
362.366	25.83
362.576	25.48
362.785	25.55
362.995	25.19
363.204	25.24
363.414	24.74
363.623	24.62
363.833	24.56
364.042	23.98
364.252	24.51
364.461	24.24
364.671	23.58
364.88	24.38
365.09	24.22
365.299	25.49
365.509	26.63
365.718	26.85
365.927	26.77
366.137	26.84
366.346	26.52
366.555	26.36
366.765	26.34
366.974	25.76
367.183	25.73
367.393	25.73
367.602	25.15
367.811	23.67
368.021	24.16
368.23	24.85
368.439	25.2
368.648	25.47
368.857	26.12
369.067	25.76
369.276	25.43
369.485	24.99
369.694	24.43
369.903	23.72
370.112	23.85
370.321	23.8
370.531	23.1
370.74	22.89
370.949	23.05
371.158	22.93
371.367	23.33
371.576	23.99
371.785	23.73
371.994	24.17
372.203	23.85
372.412	23.5
372.621	23.39
372.83	23.01
373.039	22.11
373.248	21.41
373.457	21.62
373.666	21.74
373.874	21.41
374.083	21.67
374.292	21.28
374.501	21.61
374.71	22.02
374.919	21.8
375.128	22.29
375.336	22.65
375.545	22.93
375.754	21.9
375.963	21.4
376.171	21.75
376.38	21.47
376.589	21.42
376.798	21.04
377.006	20.46
377.215	20.22
377.424	20
377.632	20.62
377.841	20.32
378.05	20.28
378.258	20.43
378.467	19.82
378.675	19.85
378.884	19.3
379.093	19.34
379.301	19.41
379.51	19.42
379.718	19.38
379.927	18.52
380.135	17.75
380.344	17.78
380.552	18.02
380.761	18.02
380.969	17.78
381.177	18.05
381.386	18.12
381.594	17.61
381.803	17.07
382.011	16.89
382.219	16.87
382.428	17.56
382.636	17.21
382.845	16.95
383.053	17.08
383.261	17.13
383.469	16.93
383.678	16.75
383.886	17.69
384.094	18.33
384.302	18.19
384.511	18.03
384.719	17.66
384.927	17.52
385.135	17.3
385.343	17.34
385.552	17.23
385.76	17.25
385.968	17.24
386.176	16.76
386.384	16
386.592	15.73
386.8	15.63
387.008	15.56
387.216	15.89
387.424	15.94
387.633	15.82
387.841	15.75
388.049	15.4
388.257	15.37
388.465	15.37
388.672	15.27
388.88	15.59
389.088	15.23
389.296	15.03
389.504	14.63
389.712	14.25
389.92	13.76
390.128	13.44
390.336	13.94
390.544	13.46
390.751	12.75
390.959	12.56
391.167	12.39
391.375	12.31
391.583	12.24
391.79	11.99
391.998	12.14
392.206	12.36
392.414	12.51
392.621	12.15
392.829	12.3
393.037	12.62
393.244	13.03
393.452	12.43
393.66	12.79
393.867	12.67
394.075	12.65
394.283	12.62
394.49	12.51
394.698	12.26
394.905	12
395.113	11.79
395.32	11.85
395.528	11.54
395.735	11.97
395.943	11.73
396.15	11.83
396.358	12.16
396.565	12.1
396.773	12.38
396.98	12.67
397.188	12.63
397.395	12.42
397.602	12.11
397.81	12.01
398.017	11.97
398.225	11.74
398.432	12.04
398.639	11.95
398.847	11.81
399.054	11.64
399.261	11.29
399.468	11.11
399.676	11.4
399.883	11.27
400.09	11.29
400.297	10.98
400.505	10.98
400.712	10.92
400.919	10.79
401.126	10.95
401.333	10.56
401.54	10.59
401.748	10.85
401.955	10.62
402.162	10.8
402.369	10.91
402.576	11.08
402.783	10.76
402.99	10.77
403.197	10.55
403.404	10.19
403.611	10.21
403.818	10.25
404.025	10.26
404.232	10.61
404.439	10.53
404.646	10.52
404.853	10.42
405.06	10.84
405.267	10.51
405.474	10.65
405.681	10.69
405.887	10.85
406.094	10.76
406.301	10.94
406.508	10.57
406.715	10.43
406.922	10.53
407.128	10.79
407.335	10.58
407.542	10.79
407.749	10.62
407.955	10.92
408.162	11.07
408.369	11.18
408.575	10.99
408.782	11.17
408.989	11.52
409.195	11.25
409.402	11.09
409.609	11.2
409.815	11.12
410.022	11.37
410.228	11.35
410.435	11.02
410.642	10.95
410.848	11.12
411.055	11.12
411.261	11.12
411.468	11.26
411.674	11.16
411.881	10.9
412.087	10.7
412.294	10.54
412.5	10.41
412.706	10.82
412.913	10.72
413.119	10.65
413.326	10.39
413.532	10.13
413.738	10.06
413.945	10.08
414.151	10.09
414.357	10.09
414.564	10.31
414.77	10.3
414.976	10.04
415.182	9.99
415.389	10.02
415.595	10.17
415.801	10.15
416.007	10.1
416.214	9.75
416.42	9.8
416.626	9.94
416.832	9.93
417.038	9.79
417.244	9.78
417.45	9.78
417.657	9.6
417.863	9.55
418.069	9.92
418.275	9.89
418.481	10.04
418.687	9.92
418.893	9.56
419.099	9.31
419.305	9.23
419.511	9.1
419.717	9.02
419.923	9.06
420.129	8.85
420.335	8.56
420.541	8.59
420.746	8.7
420.952	8.71
421.158	8.84
421.364	8.72
421.57	8.75
421.776	8.71
421.982	8.68
422.187	8.67
422.393	8.77
422.599	8.68
422.805	8.54
423.01	8.49
423.216	8.47
423.422	8.51
423.628	8.76
423.833	8.63
424.039	8.66
424.245	8.83
424.45	8.76
424.656	8.67
424.862	8.78
425.067	8.88
425.273	8.8
425.478	8.83
425.684	8.84
425.889	8.57
426.095	8.62
426.301	8.6
426.506	8.51
426.712	8.51
426.917	8.83
427.123	8.61
427.328	8.55
427.533	8.64
427.739	8.71
427.944	8.8
428.15	8.97
428.355	8.8
428.561	8.65
428.766	8.38
428.971	8.36
429.177	8.21
429.382	8.05
429.587	7.97
429.793	7.86
429.998	7.74
430.203	7.61
430.408	7.71
430.614	8.08
430.819	8.25
431.024	8.51
431.229	8.42
431.434	8.42
431.64	8.67
431.845	8.75
432.05	8.71
432.255	8.68
432.46	8.73
432.665	8.63
432.87	8.49
433.076	8.39
433.281	8.34
433.486	8.5
433.691	8.55
433.896	8.55
434.101	8.38
434.306	8.38
434.511	8.49
434.716	8.33
434.921	8.47
435.126	8.46
435.331	8.52
435.535	8.43
435.74	8.29
435.945	8.26
436.15	8.45
436.355	8.47
436.56	8.57
436.765	8.34
436.97	8.45
437.174	8.36
437.379	8.75
437.584	8.74
437.789	8.89
437.993	8.76
438.198	8.68
438.403	8.46
438.608	8.75
438.812	8.51
439.017	8.53
439.222	8.32
439.426	8.22
439.631	7.76
439.836	7.68
440.04	7.48
440.245	7.66
440.45	7.42
440.654	7.38
440.859	7.19
441.063	7.36
441.268	7.43
441.472	7.41
441.677	7.39
441.881	7.4
442.086	7.38
442.29	7.56
442.495	7.6
442.699	7.83
442.904	7.88
443.108	7.93
443.312	7.79
443.517	7.77
443.721	8
443.925	8.02
444.13	8.26
444.334	8.16
444.538	7.95
444.743	7.8
444.947	7.79
445.151	7.77
445.356	7.67
445.56	7.74
445.764	7.73
445.968	7.68
446.173	7.62
446.377	7.55
446.581	7.66
446.785	7.69
446.989	7.67
447.193	7.67
447.398	7.7
447.602	7.69
447.806	7.69
448.01	7.78
448.214	7.77
448.418	7.81
448.622	7.84
448.826	7.87
449.03	7.91
449.234	7.91
449.438	7.78
449.642	7.78
449.846	7.73
450.05	7.7
450.254	7.49
450.458	7.45
450.662	7.59
450.866	7.59
451.069	7.7
451.273	7.63
451.477	7.4
451.681	7.63
451.885	7.56
452.089	7.66
452.292	7.57
452.496	7.66
452.7	7.72
452.904	7.56
453.107	7.47
453.311	7.2
453.515	7.26
453.719	7.52
453.922	7.54
454.126	7.52
454.33	7.69
454.533	7.66
454.737	7.51
454.94	7.47
455.144	7.59
455.348	7.51
455.551	7.53
455.755	7.6
455.958	7.61
456.162	7.48
456.365	7.46
456.569	7.14
456.772	7.28
456.976	7.71
457.179	7.65
457.383	7.6
457.586	7.59
457.79	7.66
457.993	7.6
458.196	7.5
458.4	7.53
458.603	7.46
458.807	7.55
459.01	7.69
459.213	7.51
459.417	7.52
459.62	7.56
459.823	7.64
460.026	7.66
460.23	7.64
460.433	7.71
460.636	7.75
460.839	7.8
461.042	7.87
461.246	7.74
461.449	7.67
461.652	7.53
461.855	7.37
462.058	7.4
462.261	7.54
462.464	7.53
462.668	7.43
462.871	7.35
463.074	7.55
463.277	7.45
463.48	7.58
463.683	7.86
463.886	8.1
464.089	8.13
464.292	8.11
464.495	7.93
464.698	7.97
464.901	8.14
465.104	8.28
465.306	8.24
465.509	8.2
465.712	7.95
465.915	7.8
466.118	7.88
466.321	8.05
466.524	8.06
466.726	8
466.929	8.02
467.132	7.93
467.335	7.86
467.538	7.74
467.74	7.74
467.943	7.83
468.146	7.83
468.348	7.79
468.551	7.85
468.754	7.94
468.956	8.14
469.159	8.13
469.362	8.16
469.564	8.27
469.767	8.34
469.969	8.43
470.172	8.58
470.375	8.6
470.577	8.72
470.78	8.57
470.982	8.44
471.185	8.32
471.387	8.28
471.59	8.22
471.792	8.05
471.995	8.13
472.197	8.13
472.399	7.93
472.602	7.93
472.804	7.88
473.007	7.91
473.209	7.87
473.411	8.04
473.614	8.01
473.816	8.2
474.018	8.15
474.22	7.97
474.423	7.89
474.625	7.85
474.827	7.82
475.03	7.62
475.232	7.54
475.434	7.59
475.636	7.67
475.838	7.66
476.04	7.49
476.243	7.71
476.445	7.8
476.647	7.81
476.849	7.88
477.051	7.92
477.253	7.95
477.455	7.86
477.657	7.94
477.859	7.67
478.061	7.76
478.263	7.8
478.465	7.48
478.667	7.54
478.869	7.65
479.071	7.67
479.273	7.61
479.475	7.62
479.677	7.8
479.879	7.62
480.081	7.57
480.283	7.54
480.485	7.53
480.686	7.63
480.888	7.52
481.09	7.44
481.292	7.29
481.494	7.33
481.695	7.33
481.897	7.32
482.099	7.42
482.301	7.39
482.502	7.34
482.704	7.22
482.906	7.21
483.107	7.16
483.309	7.15
483.511	7.2
483.712	7.17
483.914	7.18
484.115	7.14
484.317	7.08
484.519	7.09
484.72	7.1
484.922	7.14
485.123	7.13
485.325	7.22
485.526	7.22
485.728	7.23
485.929	7.23
486.131	7.24
486.332	7.28
486.534	7.27
486.735	7.34
486.936	7.31
487.138	7.28
487.339	7.25
487.541	7.22
487.742	7.23
487.943	7.19
488.144	7.19
488.346	7.23
488.547	7.19
488.748	7.27
488.95	7.25
489.151	7.31
489.352	7.37
489.553	7.4
489.755	7.41
489.956	7.52
490.157	7.57
490.358	7.59
490.559	7.53
490.76	7.48
490.961	7.5
491.163	7.49
491.364	7.46
491.565	7.43
491.766	7.53
491.967	7.55
492.168	7.49
492.369	7.54
492.57	7.58
492.771	7.58
492.972	7.67
493.173	7.7
493.374	7.74
493.575	7.79
493.776	8.02
493.976	8
494.177	8.02
494.378	8.01
494.579	8.04
494.78	8
494.981	8.12
495.182	8.15
495.382	8.1
495.583	8.24
495.784	8.16
495.985	8.03
496.185	8.12
496.386	8.01
496.587	8.17
496.788	8.02
496.988	8.1
497.189	7.96
497.39	8.03
497.59	8.06
497.791	7.97
497.992	8.1
498.192	8.21
498.393	8.23
498.593	8.47
498.794	8.49
498.994	8.69
499.195	8.62
499.395	8.8
499.596	8.75
499.796	8.71
499.997	8.75
500.197	8.78
500.398	8.67
500.598	8.63
500.799	8.57
500.999	8.37
501.199	8.17
501.4	8.52
501.6	8.55
501.801	8.65
502.001	8.74
502.201	8.83
502.402	8.88
502.602	9.08
502.802	9.11
503.002	9.07
503.203	9.22
503.403	9.23
503.603	8.94
503.803	8.96
504.003	8.96
504.204	8.98
504.404	9.12
504.604	9.19
504.804	9.03
505.004	9
505.204	9.08
505.404	9.04
505.604	9.22
505.804	9.3
506.005	9.35
506.205	9.39
506.405	9.58
506.605	9.42
506.805	9.41
507.005	9.55
507.204	9.63
507.404	9.67
507.604	9.79
507.804	9.87
508.004	9.97
508.204	9.92
508.404	9.96
508.604	9.87
508.804	10
509.003	10.01
509.203	10.04
509.403	9.95
509.603	9.93
509.803	10.11
510.002	10.16
510.202	10.16
510.402	10.19
510.602	10.12
510.801	10.2
511.001	10.16
511.201	10.27
511.4	10.23
511.6	10.31
511.8	10.34
511.999	10.27
512.199	10.17
512.398	10.3
512.598	10.38
512.797	10.48
512.997	10.47
513.197	10.51
513.396	10.39
513.596	10.57
513.795	10.7
513.994	10.75
514.194	10.72
514.393	10.79
514.593	10.71
514.792	10.93
514.992	10.98
515.191	10.98
515.39	11.03
515.59	11.24
515.789	11.23
515.988	11.22
516.188	11.27
516.387	11.15
516.586	11.15
516.786	11.18
516.985	10.99
517.184	11.12
517.383	11.2
517.582	11.26
517.782	11.28
517.981	11.24
518.18	11.33
518.379	11.41
518.578	11.51
518.777	11.62
518.976	11.64
519.176	11.66
519.375	11.6
519.574	11.56
519.773	11.57
519.972	11.57
520.171	11.64
520.37	11.67
520.569	11.72
520.768	11.89
520.967	12
521.166	12.22
521.365	12.41
521.564	12.56
521.762	12.65
521.961	12.65
522.16	12.67
522.359	12.69
522.558	12.6
522.757	12.62
522.956	12.39
523.154	12.33
523.353	12.11
523.552	12.1
523.751	12.07
523.949	12.17
524.148	12.24
524.347	12.24
524.546	12.16
524.744	12.17
524.943	12.22
525.142	12.28
525.34	12.23
525.539	12.29
525.737	12.25
525.936	12.18
526.135	12.05
526.333	12.06
526.532	12.09
526.73	12.14
526.929	12.27
527.127	12.17
527.326	12.3
527.524	12.43
527.723	12.49
527.921	12.51
528.12	12.62
528.318	12.69
528.516	12.74
528.715	12.72
528.913	12.73
529.112	12.72
529.31	12.82
529.508	12.82
529.707	12.78
529.905	12.81
530.103	12.82
530.301	12.8
530.5	12.84
530.698	12.82
530.896	12.95
531.094	13.03
531.293	13.02
531.491	13.06
531.689	13.11
531.887	13.16
532.085	13.17
532.283	13.18
532.481	13.09
532.68	13.12
532.878	13.1
533.076	13.09
533.274	13.03
533.472	13
533.67	12.98
533.868	12.93
534.066	13
534.264	13.12
534.462	13.13
534.66	13.37
534.858	13.39
535.056	13.43
535.253	13.45
535.451	13.52
535.649	13.7
535.847	13.79
536.045	13.89
536.243	13.73
536.441	13.56
536.638	13.64
536.836	13.45
537.034	13.41
537.232	13.5
537.43	13.57
537.627	13.53
537.825	13.45
538.023	13.49
538.22	13.55
538.418	13.83
538.616	14.07
538.813	14.08
539.011	14.34
539.209	14.48
539.406	14.49
539.604	14.56
539.801	14.64
539.999	14.69
540.196	14.43
540.394	14.38
540.591	14.32
540.789	14.28
540.986	14.33
541.184	14.25
541.381	14.25
541.579	14.29
541.776	14.2
541.974	14.2
542.171	14.25
542.368	14.5
542.566	14.52
542.763	14.58
542.96	14.65
543.158	14.64
543.355	14.75
543.552	14.86
543.75	14.97
543.947	15.09
544.144	15.13
544.341	15.17
544.539	15.13
544.736	15.26
544.933	15.3
545.13	15.24
545.327	15.41
545.524	15.47
545.722	15.41
545.919	15.4
546.116	15.52
546.313	15.69
546.51	15.72
546.707	15.65
546.904	15.55
547.101	15.58
547.298	15.63
547.495	15.52
547.692	15.51
547.889	15.67
548.086	15.67
548.283	15.54
548.48	15.53
548.677	15.45
548.874	15.68
549.07	15.75
549.267	15.67
549.464	15.8
549.661	16
549.858	16.16
550.055	16.08
550.251	16.14
550.448	16.19
550.645	16.03
550.842	16.12
551.038	15.97
551.235	16.33
551.432	16.3
551.628	16.28
551.825	16.13
552.022	15.81
552.218	15.85
552.415	15.76
552.612	15.68
552.808	15.76
553.005	15.73
553.201	15.71
553.398	15.44
553.594	15.49
553.791	15.66
553.987	15.83
554.184	16.05
554.38	15.98
554.577	16.05
554.773	16.16
554.97	16.25
555.166	16.27
555.362	16.26
555.559	16.22
555.755	16.15
555.952	15.86
556.148	15.76
556.344	15.63
556.541	15.78
556.737	15.86
556.933	15.89
557.129	16.1
557.326	16.12
557.522	16.16
557.718	16.4
557.914	16.68
558.11	16.84
558.307	16.99
558.503	17.15
558.699	17.11
558.895	16.95
559.091	17.23
559.287	17.13
559.483	17.29
559.679	17.33
559.876	17.3
560.072	17.33
560.268	17.26
560.464	17.23
560.66	17.2
560.856	17.4
561.052	17.61
561.247	17.63
561.443	17.72
561.639	17.89
561.835	17.98
562.031	18.01
562.227	18.06
562.423	18.25
562.619	18.2
562.815	18.49
563.01	18.4
563.206	18.45
563.402	18.37
563.598	18.27
563.793	18.35
563.989	18.51
564.185	18.54
564.381	18.49
564.576	18.54
564.772	18.44
564.968	18.22
565.163	18.18
565.359	18.02
565.555	17.9
565.75	18.03
565.946	17.99
566.141	17.92
566.337	17.94
566.532	17.91
566.728	17.84
566.923	18.04
567.119	18.1
567.314	18.24
567.51	18.39
567.705	18.38
567.901	18.35
568.096	18.44
568.292	18.45
568.487	18.45
568.682	18.5
568.878	18.53
569.073	18.37
569.268	18.57
569.464	18.55
569.659	18.59
569.854	18.85
570.05	18.95
570.245	18.74
570.44	18.79
570.635	18.7
570.831	18.81
571.026	18.86
571.221	18.89
571.416	18.78
571.611	18.81
571.806	18.81
572.002	18.8
572.197	18.76
572.392	18.93
572.587	18.87
572.782	18.92
572.977	18.75
573.172	18.72
573.367	18.79
573.562	18.97
573.757	18.95
573.952	19.08
574.147	18.98
574.342	19.02
574.537	18.94
574.732	19.02
574.927	19.07
575.121	19.18
575.316	19.07
575.511	19.12
575.706	19
575.901	18.86
576.096	18.62
576.29	18.59
576.485	18.46
576.68	18.49
576.875	18.25
577.069	18.3
577.264	18.42
577.459	18.51
577.654	18.7
577.848	18.65
578.043	18.82
578.238	18.93
578.432	19.12
578.627	19.36
578.821	19.49
579.016	20.01
579.21	19.9
579.405	19.95
579.6	20.18
579.794	20.19
579.989	20.48
580.183	20.32
580.378	20.56
580.572	20.44
580.766	20.72
580.961	20.85
581.155	20.65
581.35	21.02
581.544	20.83
581.738	20.78
581.933	20.5
582.127	20.42
582.321	20.59
582.516	20.51
582.71	20.69
582.904	20.51
583.099	20.13
583.293	19.8
583.487	19.69
583.681	20.28
583.875	20.35
584.07	20.59
584.264	20.56
584.458	21.03
584.652	20.98
584.846	21.04
585.04	20.71
585.234	20.85
585.428	21.21
585.623	21.09
585.817	20.65
586.011	20.42
586.205	20.52
586.399	20.46
586.593	20.2
586.787	20.34
586.981	20.42
587.174	20.65
587.368	20.95
587.562	21.09
587.756	21.16
587.95	21.3
588.144	21.63
588.338	21.54
588.532	21.62
588.725	21.67
588.919	21.47
589.113	21.22
589.307	21.33
589.501	21.1
589.694	21.13
589.888	21.16
590.082	20.87
590.275	20.89
590.469	20.9
590.663	20.83
590.856	20.75
591.05	20.98
591.244	21.28
591.437	21.36
591.631	21.4
591.824	21.26
592.018	21.36
592.212	21.57
592.405	21.38
592.599	21.35
592.792	21.53
592.986	21.65
593.179	21.68
593.372	21.5
593.566	21.65
593.759	21.5
593.953	21.88
594.146	21.72
594.339	21.85
594.533	21.81
594.726	21.75
594.92	21.54
595.113	21.48
595.306	21.37
595.499	21.38
595.693	20.93
595.886	21.24
596.079	21.09
596.272	20.99
596.466	20.86
596.659	21.02
596.852	21.14
597.045	21.22
597.238	21.3
597.431	21.21
597.624	21.15
597.818	21.38
598.011	21.38
598.204	21.21
598.397	21.45
598.59	21.55
598.783	21.41
598.976	21.18
599.169	21.18
599.362	21.02
599.555	21.18
599.748	21.41
599.941	21.46
600.134	21.23
600.326	21.4
600.519	21.41
600.712	21.25
600.905	21.62
601.098	21.85
601.291	21.79
601.483	21.94
601.676	21.89
601.869	21.94
602.062	21.75
602.255	21.85
602.447	22.15
602.64	21.96
602.833	21.99
603.025	21.6
603.218	21.61
603.411	21.66
603.603	21.63
603.796	21.64
603.989	21.39
604.181	21.43
604.374	21.33
604.566	21.21
604.759	21.35
604.951	21.49
605.144	21.77
605.336	21.75
605.529	21.69
605.721	21.62
605.914	21.69
606.106	21.81
606.299	21.81
606.491	21.9
606.683	21.73
606.876	21.73
607.068	21.63
607.26	21.4
607.453	21.43
607.645	21.67
607.837	21.55
608.03	21.62
608.222	21.71
608.414	21.77
608.606	22.05
608.799	22.15
608.991	22.23
609.183	22.23
609.375	22.64
609.567	22.84
609.759	22.87
609.952	23.25
610.144	23.24
610.336	23.41
610.528	23.59
610.72	23.38
610.912	23.39
611.104	23.6
611.296	23.85
611.488	23.64
611.68	23.72
611.872	23.68
612.064	23.57
612.256	23.53
612.448	23.33
612.64	23.25
612.832	23.34
613.023	23.45
613.215	23.38
613.407	23.43
613.599	23.32
613.791	23.09
613.983	23.07
614.174	23.12
614.366	23.29
614.558	23.27
614.75	23.3
614.941	23.43
615.133	23.41
615.325	23.21
615.516	22.82
615.708	22.9
615.9	22.84
616.091	22.7
616.283	22.57
616.475	22.26
616.666	22.72
616.858	22.8
617.049	22.33
617.241	22.34
617.432	22.39
617.624	22.53
617.815	22.59
618.007	22.19
618.198	22.24
618.39	22.22
618.581	22.19
618.773	21.76
618.964	21.72
619.155	22.27
619.347	22.19
619.538	22.01
619.729	22.02
619.921	22.08
620.112	22.65
620.303	22.74
620.494	22.44
620.686	22.61
620.877	22.82
621.068	22.97
621.259	22.97
621.451	22.7
621.642	22.73
621.833	22.88
622.024	22.85
622.215	22.71
622.406	22.76
622.597	22.95
622.788	23.03
622.98	22.68
623.171	22.29
623.362	22.25
623.553	22.26
623.744	22.14
623.935	22.12
624.126	22.04
624.317	21.73
624.508	21.48
624.698	21.38
624.889	21.33
625.08	21.33
625.271	21.34
625.462	21.25
625.653	21.41
625.844	21.61
626.034	21.65
626.225	21.63
626.416	21.67
626.607	21.74
626.798	22.01
626.988	21.91
627.179	22.09
627.37	22.26
627.56	22.18
627.751	22.14
627.942	22.05
628.132	22.11
628.323	21.96
628.514	22.07
628.704	22.12
628.895	22.03
629.085	22.17
629.276	21.92
629.466	21.77
629.657	21.85
629.847	22.03
630.038	22.49
630.228	22.37
630.419	22.37
630.609	22.64
630.8	22.61
630.99	22.38
631.181	22.19
631.371	22.64
631.561	22.65
631.752	22.52
631.942	22.28
632.132	22.04
632.323	21.97
632.513	22.08
632.703	21.54
632.893	21.76
633.084	21.75
633.274	21.72
633.464	21.55
633.654	21.75
633.844	21.86
634.034	22.01
634.225	21.87
634.415	21.89
634.605	21.49
634.795	21.81
634.985	21.68
635.175	21.89
635.365	22.22
635.555	22.36
635.745	22.33
635.935	22.48
636.125	22.42
636.315	22.24
636.505	22.13
636.695	22.55
636.885	22.82
637.075	23.06
637.265	23.42
637.455	23.34
637.644	23.14
637.834	23.08
638.024	22.51
638.214	22.93
638.404	22.95
638.593	23.08
638.783	23
638.973	22.83
639.163	22.52
639.352	21.84
639.542	22.07
639.732	22.25
639.921	22.42
640.111	22.86
640.301	22.11
640.49	22.05
640.68	22.04
640.87	22.52
641.059	22.24
641.249	22.4
641.438	22.67
641.628	22.44
641.817	22.4
642.007	22.37
642.196	22.57
642.386	23.11
642.575	23.81
642.764	23.84
642.954	23.86
643.143	24.5
643.333	24.46
643.522	24.9
643.711	24.7
643.901	24.48
644.09	24.32
644.279	24.4
644.469	23.79
644.658	23.27
644.847	23.26
645.036	22.57
645.226	22.17
645.415	22.49
645.604	22.06
645.793	22.33
645.982	22.52
646.171	22.43
646.361	22.38
646.55	22.81
646.739	22.76
646.928	22.4
647.117	22.42
647.306	22.58
647.495	22.16
647.684	22.59
647.873	22.57
648.062	22.43
648.251	22.59
648.44	22.38
648.629	22.11
648.818	22.04
649.007	22.35
649.196	22.34
649.384	22.5
649.573	22.83
649.762	22.57
649.951	22.53
650.14	22.26
650.328	22.36
650.517	22.31
650.706	22.62
650.895	22.81
651.083	22.81
651.272	23.48
651.461	23.37
651.65	23.19
651.838	22.86
652.027	22.73
652.216	23.2
652.404	22.88
652.593	23.21
652.781	22.98
652.97	22.86
653.158	22.99
653.347	22.48
653.535	22.44
653.724	22.04
653.912	22.52
654.101	22.66
654.289	22.37
654.478	22.74
654.666	22.63
654.855	23.15
655.043	23.47
655.231	23.21
655.42	23.05
655.608	22.8
655.796	23.61
655.985	23.56
656.173	23.41
656.361	23.9
656.55	23.88
656.738	24.05
656.926	24.1
657.114	23.97
657.302	24
657.491	24.24
657.679	24.36
657.867	23.87
658.055	23.69
658.243	23.93
658.431	23.52
658.619	23.33
658.807	23.01
658.996	22.82
659.184	22.92
659.372	22.81
659.56	22.67
659.748	22.72
659.936	22.88
660.124	22.77
660.311	22.82
660.499	22.88
660.687	23.2
660.875	23.12
661.063	23.09
661.251	22.79
661.439	22.95
661.627	23.05
661.814	22.98
662.002	23.12
662.19	23.84
662.378	23.64
662.565	23.88
662.753	23.76
662.941	23.92
663.129	24.28
663.316	24.37
663.504	24.36
663.692	24.63
663.879	24.67
664.067	24.57
664.254	24.15
664.442	24.27
664.63	24.53
664.817	24.62
665.005	24.5
665.192	24.16
665.38	24.4
665.567	24.3
665.755	24.51
665.942	24.74
666.13	24.8
666.317	24.55
666.504	24.19
666.692	23.93
666.879	23.56
667.067	24.02
667.254	24.19
667.441	24.11
667.629	24.4
667.816	23.85
668.003	23.82
668.19	23.74
668.378	23.95
668.565	24.33
668.752	24.21
668.939	24.08
669.127	23.75
669.314	23.51
669.501	23.72
669.688	23.76
669.875	24.46
670.062	24.51
670.249	24.22
670.436	23.95
670.623	23.96
670.81	23.9
670.997	23.82
671.184	23.43
671.371	23.36
671.558	23.38
671.745	23.58
671.932	23.09
672.119	22.69
672.306	23.1
672.493	23.73
672.68	23.51
672.867	23.28
673.054	23.63
673.24	23.89
673.427	24.46
673.614	24.04
673.801	23.95
673.988	24.07
674.174	24.14
674.361	23.89
674.548	23.18
674.734	23.19
674.921	23.29
675.108	23.52
675.294	23.41
675.481	22.91
675.668	22.87
675.854	22.86
676.041	22.87
676.227	22.82
676.414	22.61
676.601	22.99
676.787	23.07
676.974	23.19
677.16	23.06
677.347	23.64
677.533	23.99
677.719	24.41
677.906	24.22
678.092	24.37
678.279	24.54
678.465	24.95
678.651	24.66
678.838	24.67
679.024	24.7
679.21	24.91
679.397	24.45
679.583	24.34
679.769	23.85
679.955	23.53
680.142	23.01
680.328	22.98
680.514	22.49
680.7	22.58
680.886	22.75
681.073	23.01
681.259	22.41
681.445	22.43
681.631	22.18
681.817	22.34
682.003	22.25
682.189	22.71
682.375	22.99
682.561	23.26
682.747	23.29
682.933	23.05
683.119	22.82
683.305	23.02
683.491	23.09
683.677	23.27
683.863	23.41
684.049	24.22
684.235	24.2
684.42	23.87
684.606	23.51
684.792	23.66
684.978	23.59
685.164	23.73
685.349	23.7
685.535	23.63
685.721	23.77
685.907	23.57
686.092	23.23
686.278	23.09
686.464	23.32
686.649	23.95
686.835	23.74
687.021	24.2
687.206	24.32
687.392	24.5
687.577	24.98
687.763	24.48
687.948	24.69
688.134	24.6
688.319	24.57
688.505	24.42
688.69	24.39
688.876	24.87
689.061	24.36
689.247	24.32
689.432	24.26
689.618	24.13
689.803	24.18
689.988	24.64
690.174	24.98
690.359	25.07
690.544	24.66
690.73	24.82
690.915	24.35
691.1	24.01
691.285	24.1
691.471	24.19
691.656	24.37
691.841	24.76
692.026	24.11
692.211	23.67
692.396	23.72
692.582	24.3
692.767	23.98
692.952	23.85
693.137	24.4
693.322	24.34
693.507	24.39
693.692	23.12
693.877	22.75
694.062	23.17
694.247	23.33
694.432	22.98
694.617	22.9
694.802	22.95
694.987	23.35
695.172	23.59
695.357	23.45
695.541	23.18
695.726	24.42
695.911	25.08
696.096	24.85
696.281	25.07
696.466	25.39
696.65	25.46
696.835	25.56
697.02	25.7
697.204	25.65
697.389	25.28
697.574	25.56
697.759	25.24
697.943	24.72
698.128	24.55
698.312	24.56
698.497	24.5
698.682	24.22
698.866	24.33
699.051	24.23
699.235	24.24
699.42	24.2
699.604	24.21
699.789	24.22
699.973	24.45
700.158	24.79
700.342	24.55
700.527	24.79
700.711	24.94
700.895	24.73
701.08	24.67
701.264	24.09
701.448	24.83
701.633	25.27
701.817	25.67
702.001	25.59
702.186	25.54
702.37	25.86
702.554	25.4
702.738	25.76
702.923	25.78
703.107	25.64
703.291	26.13
703.475	25.84
703.659	24.9
703.843	24.49
704.027	24.66
704.212	25.08
704.396	25.05
704.58	25.73
704.764	25.15
704.948	25.45
705.132	25.32
705.316	25.48
705.5	25.45
705.684	26.85
705.868	27.29
706.052	26.82
706.235	26.65
706.419	27.01
706.603	26.53
706.787	27.03
706.971	26.56
707.155	26.54
707.339	26.18
707.522	26.19
707.706	25.52
707.89	24.71
708.074	25.71
708.257	25.44
708.441	25.16
708.625	24.77
708.808	25.26
708.992	26.63
709.176	26.03
709.359	25.95
709.543	25.71
709.727	25.19
709.91	25.12
710.094	25.45
710.277	25.35
710.461	25.51
710.644	25.77
710.828	25.72
711.011	24.76
711.195	25.94
711.378	26.42
711.562	26.37
711.745	26.86
711.928	26.71
712.112	26.56
712.295	27.02
712.478	26.67
712.662	26.96
712.845	26.12
713.028	25.65
713.212	24.98
713.395	25.18
713.578	24.95
713.761	24.94
713.945	25.89
714.128	24.92
714.311	24.81
714.494	24.96
714.677	25.09
714.86	25.75
715.043	26.11
715.227	26.92
715.41	26.03
715.593	26.47
715.776	26.55
715.959	26.12
716.142	26.27
716.325	25.53
716.508	25.2
716.691	24.44
716.874	24.66
717.057	24.77
717.239	23.87
717.422	24.45
717.605	24.45
717.788	23.76
717.971	23.99
718.154	24.23
718.337	25.29
718.519	25.55
718.702	26.19
718.885	25.52
719.068	24.83
719.25	25.94
719.433	26.39
719.616	26.75
719.798	27.39
719.981	27.83
720.164	27.72
720.346	27.51
720.529	27.88
720.712	27.56
720.894	27.46
721.077	28.28
721.259	28.32
721.442	27.34
721.624	26.74
721.807	26.06
721.989	25.83
722.172	25.25
722.354	25.47
722.537	26.12
722.719	26.2
722.901	27.06
723.084	27.19
723.266	26.21
723.448	25.88
723.631	26.06
723.813	26.11
723.995	24.9
724.178	25.62
724.36	25.47
724.542	24.84
724.724	24.71
724.907	24.04
725.089	24.08
725.271	24.24
725.453	24.29
725.635	24.14
725.817	24.6
725.999	25.22
726.181	25.01
726.364	24.71
726.546	24.39
726.728	24.56
726.91	25.46
727.092	24.93
727.274	25.77
727.456	26.73
727.638	27.18
727.819	26.45
728.001	25.94
728.183	25.92
728.365	25.82
728.547	26.38
728.729	27.37
728.911	26.64
729.093	26.47
729.274	25.54
729.456	25.08
729.638	23.92
729.82	24.4
730.001	24.05
730.183	24.92
730.365	25.24
730.546	24.61
730.728	23.32
730.91	23.2
731.091	23.55
731.273	23.76
731.455	23.9
731.636	25.15
731.818	25.63
731.999	27.02
732.181	26.5
732.362	26.27
732.544	26.8
732.725	27.12
732.907	27.46
733.088	28.42
733.27	28.34
733.451	28.96
733.633	28.04
733.814	27.96
733.995	27.89
734.177	28.68
734.358	28.91
734.539	28.48
734.721	28.52
734.902	28.51
735.083	27.84
735.264	27.76
735.446	27.98
735.627	28.74
735.808	29.11
735.989	28.84
736.17	27.22
736.351	27.26
736.533	27.48
736.714	27.65
736.895	27.5
737.076	26.93
737.257	27.34
737.438	27.21
737.619	26.77
737.8	26.7
737.981	26.25
738.162	26.97
738.343	26.31
738.524	27.59
738.705	28.67
738.886	28.2
739.067	27.65
739.247	27.32
739.428	26.29
739.609	26.52
739.79	25.03
739.971	26.16
740.151	26.26
740.332	26.51
740.513	25.06
740.694	23.48
740.874	23.7
741.055	23.98
741.236	24.79
741.417	26.01
741.597	26.14
741.778	28.01
741.958	28
742.139	29.57
742.32	29.88
742.5	29.02
742.681	30.03
742.861	30.51
743.042	30.86
743.222	28.96
743.403	28.39
743.583	28.66
743.764	28.73
743.944	28.59
744.124	27.84
744.305	27.6
744.485	29.28
744.666	29.21
744.846	29.96
745.026	32.05
745.207	34.02
745.387	34.96
745.567	35.05
745.747	34.1
745.928	32.29
746.108	31.23
746.288	31.32
746.468	30.67
746.648	29.7
746.829	30.1
747.009	28.54
747.189	28
747.369	27.66
747.549	28.6
747.729	28.8
747.909	29.81
748.089	28.81
748.269	29.75
748.449	29.87
748.629	29.47
748.809	27
748.989	26.42
749.169	27.48
749.349	27.84
749.529	27.1
749.709	27.75
749.889	28.01
750.068	28.59
750.248	28.56
750.428	28.28
750.608	29.75
750.788	32.32
750.967	33.17
751.147	32.07
751.327	30.63
751.507	30
751.686	29.55
751.866	29.86
752.046	29.4
752.225	28.62
752.405	27.95
752.585	27.5
752.764	24.93
752.944	23.49
753.123	24.64
753.303	25.07
753.482	25.29
753.662	26.05
753.841	25.49
754.021	26.02
754.2	25.32
754.38	26.9
754.559	27.48
754.739	28.19
754.918	28.9
755.097	27.62
755.277	28.57
755.456	29.8
755.635	28.12
755.815	28.11
755.994	27.09
756.173	28.59
756.352	26.93
756.532	26.63
756.711	26.08
756.89	26.68
757.069	26.68
757.248	26.63
757.427	26.56
757.607	27.51
757.786	27.79
757.965	29.04
758.144	28.65
758.323	29.53
758.502	28.68
758.681	29.4
758.86	29.03
759.039	29.59
759.218	29.12
759.397	28.57
759.576	27.82
759.755	26.7
759.934	27.04
760.113	25.08
760.291	24.58
760.47	25.08
760.649	25.63
760.828	25.43
761.007	26.29
761.186	26.61
761.364	25.97
761.543	27.57
761.722	27.49
761.901	26.5
762.079	29.16
762.258	27.95
762.437	26.92
762.615	27.1
762.794	28.12
762.972	27.86
763.151	27.06
763.33	27.31
763.508	25.59
763.687	26.6
763.865	27.3
764.044	26.29
764.222	27.58
764.401	28.22
764.579	27.88
764.758	26.52
764.936	26.38
765.114	26.75
765.293	26.11
765.471	27.16
765.65	27.38
765.828	28.06
766.006	27.78
766.184	28.32
766.363	28.25
766.541	28.4
766.719	29.09
766.898	29.64
767.076	29
767.254	29.96
767.432	30.39
767.61	28.95
767.788	27.83
767.967	29.43
768.145	27.53
768.323	27.17
768.501	26.96
768.679	26.99
768.857	26.59
769.035	28.19
769.213	29.68
769.391	28.18
769.569	31.52
769.747	32.89
769.925	31.59
770.103	31.42
770.281	31.22
770.459	31.23
770.636	31.5
770.814	28.61
770.992	27.35
771.17	26.28
771.348	27.46
771.525	24.89
771.703	21.25
771.881	21.13
772.059	23.15
772.236	25.18
772.414	25.61
772.592	24.5
772.769	27.61
772.947	27.63
773.125	25.75
773.302	27.26
773.48	28.63
773.657	29.22
773.835	31.44
774.013	29.36
774.19	29.51
774.368	30.12
774.545	32.36
774.723	31.96
774.9	34.23
775.077	34.19
775.255	33.26
775.432	32.93
775.61	35.06
775.787	33.53
775.964	34.54
776.142	33.42
776.319	34.36
776.496	33.72
776.674	33.08
776.851	27.95
777.028	30.31
777.205	32.72
777.382	32.9
777.56	33.54
777.737	34.74
777.914	34.63
778.091	35.41
778.268	34.53
778.445	33.73
778.622	33.6
778.8	33.96
778.977	32.62
779.154	29.77
779.331	27.11
779.508	25.35
779.685	25.22
779.862	28.1
780.038	29.8
780.215	28.11
780.392	29.9
780.569	30.43
780.746	33.54
780.923	33.01
781.1	34.77
781.277	38.87
781.453	39.96
781.63	39.37
781.807	36.35
781.984	34.48
782.16	34.14
782.337	31.72
782.514	34.01
782.691	32.71
782.867	33.78
783.044	34.29
783.221	32.93
783.397	35.17
783.574	35.77
783.75	35.65
783.927	35.8
784.103	38.25
784.28	39.39
784.456	36.95
784.633	38.19
784.809	37.4
784.986	36.56
785.162	33.13
785.339	29.45
785.515	27.13
785.692	26.85
785.868	25.18
786.044	25.54
786.221	26.98
786.397	27.53
786.573	28.27
786.749	27.71
786.926	25.56
787.102	28.07
787.278	29.95
787.454	32.66
787.631	33.88
787.807	34.61
787.983	31.39
788.159	28.59
788.335	27.21
788.511	24.56
788.687	26.53
788.863	27.71
789.039	27.92
789.216	26.18
789.392	25.4
789.568	24.12
789.744	25.8
789.919	28.49
790.095	27.84
790.271	29.46
790.447	31.08
790.623	30.78
790.799	30.94
790.975	29.98
791.151	31.03
791.327	30.37
791.502	30.16
791.678	29.69
791.854	30.01
792.03	30.47
792.205	30.53
792.381	29.62
792.557	29.9
792.733	30.68
792.908	34.53
793.084	32.65
793.259	32.54
793.435	34.84
793.611	32.83
793.786	31.74
793.962	33.75
794.137	32.2
794.313	33.23
794.488	31.14
794.664	29.95
794.839	26.61
795.015	29.8
795.19	28.66
795.366	30.18
795.541	31.79
795.716	28.36
795.892	28.99
796.067	31.29
796.242	30.54
796.418	29.68
796.593	29.98
796.768	30.66
796.944	31.18
797.119	32.89
797.294	31.59
797.469	33.89
797.644	37.31
797.82	36.36
797.995	34.41
798.17	37.54
798.345	39.92
798.52	39.62
798.695	39.09
798.87	38.47
799.045	38.58
799.22	38.67
799.395	36.61
799.57	37.3
799.745	36.12
799.92	37.31
800.095	34.52
800.27	36.77
800.445	36.69
800.62	36.69
800.795	35.77
800.97	34.65
801.145	36.17
801.319	34.99
801.494	38.23
801.669	41.9
801.844	43.62
802.018	45.07
802.193	43.66
802.368	41.05
802.543	40.7
802.717	41.86
802.892	43.22
803.067	40.45
803.241	40.24
803.416	34.67
803.59	31.48
803.765	28.79
803.94	23.93
804.114	24.74
804.289	33.28
804.463	33.58
804.638	34.07
804.812	35.49
804.986	34.29
805.161	32.81
805.335	33.25
805.51	35.54
805.684	32.16
805.858	37.11
806.033	32.85
806.207	29.18
806.381	29.63
806.556	27.86
806.73	25.84
806.904	23.67
807.078	27.71
807.253	28.46
807.427	26.61
807.601	28.6
807.775	25.19
807.949	29.28
808.123	28.4
808.298	29.37
808.472	29.87
808.646	29.11
808.82	31.06
808.994	27.72
809.168	28.55
809.342	26.24
809.516	26.04
809.69	27.85
809.864	28.14
810.038	30.6
810.212	28.56
810.385	29.74
810.559	30.09
810.733	31.17
810.907	31.54
811.081	27.75
811.255	32.56
811.428	34.96
811.602	34.52
811.776	33.65
811.95	31.03
812.123	33.03
812.297	30.22
812.471	32.82
812.644	34.28
812.818	34.62
812.992	39.66
813.165	37.74
813.339	37.67
813.512	35.64
813.686	33.98
813.86	33.01
814.033	29.35
814.207	34.34
814.38	30.82
814.554	31.74
814.727	35.76
814.9	33.53
815.074	33.87
815.247	32.94
815.421	36.22
815.594	36.49
815.767	36.93
815.941	41.22
816.114	41.27
816.287	45
816.46	43.98
816.634	41.34
816.807	40.5
816.98	39.88
817.153	46.34
817.327	42.13
817.5	41.49
817.673	43.74
817.846	40.84
818.019	36.52
818.192	35.67
818.365	33.56
818.538	34.25
818.711	39.56
818.884	37.39
819.057	30.01
819.23	33.5
819.403	35.21
819.576	34.4
819.749	35.05
819.922	34.1
820.095	37.36
820.268	38.46
820.441	38.31
820.614	35.55
820.786	36.51
820.959	36.35
821.132	34.25
821.305	33.26
821.477	33.36
821.65	32.55
821.823	32.04
821.996	29.69
822.168	28.12
822.341	28.24
822.514	27.61
822.686	27.09
822.859	27.35
823.031	27.51
823.204	27.18
823.376	26.11
823.549	24.98
823.722	24.88
823.894	24.95
824.067	25.72
824.239	24.68
824.411	25.23
824.584	25.04
824.756	25.38
824.929	25.62
825.101	26.26
825.273	27.16
825.446	29.38
825.618	30.09
825.79	29.86
825.963	29.53
826.135	30.5
826.307	30.66
826.479	31.19
826.652	29.19
826.824	29.66
826.996	28.66
827.168	28.01
827.34	27.61
827.512	28.24
827.684	30.43
827.856	30.57
828.029	30.11
828.201	29.38
828.373	29.55
828.545	31.17
828.717	31.15
828.889	32.14
829.061	33.97
829.232	33.89
829.404	34.72
829.576	31.1
829.748	29.23
829.92	30.67
830.092	32.29
830.264	32.71
830.436	33.91
830.607	32.75
830.779	32.93
830.951	34.46
831.123	34.04
831.294	32.12
831.466	33.53
831.638	37.22
831.809	34.58
831.981	32.27
832.153	32.15
832.324	30.94
832.496	32.68
832.667	32.16
832.839	29.89
833.011	31.05
833.182	29.42
833.354	28.82
833.525	27.95
833.697	30.32
833.868	29.98
834.039	29.6
834.211	29.59
834.382	28.64
834.554	29.73
834.725	28.67
834.896	26.23
835.068	27.5
835.239	26.18
835.41	28.82
835.581	28.03
835.753	29.34
835.924	30.79
836.095	29.34
836.266	29.78
836.438	28.24
836.609	27.49
836.78	34.31
836.951	33.65
837.122	36.55
837.293	36.07
837.464	36.19
837.635	40.15
837.806	38.27
837.977	41.58
838.148	43.04
838.319	49.08
838.49	53.76
838.661	49.56
838.832	49.94
839.003	53.15
839.174	50.25
839.345	44.35
839.516	41.75
839.687	50.9
839.857	49.77
840.028	48.06
840.199	43.78
840.37	43.16
840.54	44.2
840.711	46.35
840.882	43.53
841.053	42.12
841.223	48.09
841.394	48.14
841.564	44.54
841.735	43.53
841.906	44.54
842.076	39.71
842.247	43.77
842.417	47.55
842.588	47.87
842.758	45.13
842.929	43.74
843.099	42.08
843.27	38.62
843.44	39.36
843.611	38.77
843.781	36.8
843.951	38.18
844.122	34.63
844.292	25.53
844.462	29.64
844.633	30.75
844.803	33.97
844.973	31.31
845.144	31.11
845.314	28.63
845.484	25.15
845.654	26.69
845.824	33.85
845.995	20.96
846.165	24.38
846.335	32.81
846.505	59.88
846.675	64.43
846.845	72.07
847.015	79.94
847.185	76.86
847.355	74
847.525	74.41
847.695	69.95
847.865	82.96
848.035	80.57
848.205	77.05
848.375	73.01
848.545	64.16
848.715	64.99
848.884	69.13
849.054	79.36
849.224	96.8
849.394	119.7
849.564	113.33
849.733	122.69
849.903	116.74
850.073	119.9
850.243	125.93
850.412	140.37
850.582	166.07
850.752	181.24
850.921	204.45
851.091	183.2
851.26	157.89
851.43	146.44
851.599	129.61
851.769	140.99
851.939	119.68
852.108	99.77
852.278	106.16
852.447	90.9
852.616	79.4
852.786	67.39
852.955	65.72
853.125	55.96
853.294	64.42
853.463	75.95
853.633	64.29
853.802	61.96
853.971	69.99
854.141	66.02
854.31	59.78
854.479	73.65
854.648	67.61
854.818	58.88
854.987	73.62
855.156	69.22
855.325	62.98
855.494	66.61
855.663	68.4
855.832	59.55
856.001	68.2
856.171	71.49
856.34	62.09
856.509	65.61
856.678	67.6
856.847	45.18
857.016	45.43
857.185	39.68
857.353	32.94
857.522	29.94
857.691	30.95
857.86	12.13
858.029	4.28
858.198	-1.54
858.367	9.1
858.535	9.65
858.704	18.58
858.873	31.01
859.042	36.81
859.21	63.34
859.379	84.52
859.548	99.08
859.717	103.83
859.885	119.66
860.054	118.81
860.222	105.63
860.391	103.4
860.56	120.52
860.728	99.77
860.897	107.89
861.065	94.08
861.234	93.18
861.402	79.42
861.571	81.88
861.739	65.26
861.908	57.12
862.076	53.53
862.244	57.67
862.413	56.93
862.581	69.21
862.749	71.61
862.918	77.87
863.086	60.73
863.254	63.1
863.423	66.11
863.591	66.47
863.759	77.62
863.927	82.52
864.096	76.28
864.264	72.6
864.432	56.81
864.6	52.37
864.768	48.8
864.936	57.34
865.104	56.51
865.272	54.92
865.44	65.77
865.608	76.06
865.776	82.25
865.944	98.21
866.112	101.43
866.28	131.14
866.448	131.07
866.616	156.76
866.784	173.42
866.952	134.58
867.12	107.22
867.288	79.23
867.455	64.52
867.623	62.64
867.791	47.9
867.959	46.18
868.127	31.31
868.294	35.36
868.462	22.29
868.63	29.05
868.797	28.67
868.965	42.06
869.133	54.67
869.3	62.26
869.468	62.02
869.636	71.47
869.803	72.12
869.971	80.25
870.138	107.33
870.306	107.07
870.473	81.67
870.641	84.61
870.808	86.95
870.975	77.24
871.143	72.07
871.31	76.4
871.478	63.28
871.645	70.9
871.812	80.04
871.98	75.5
872.147	65.87
872.314	69.83
872.482	71.5
872.649	68.01
872.816	72.08
872.983	64.99
873.15	61.95
873.318	71.82
873.485	69.24
873.652	62.34
873.819	56.84
873.986	52.74
874.153	64.31
874.32	60.82
874.487	60.29
874.654	51.33
874.821	67.2
874.988	69.33
875.155	74.48
875.322	53.33
875.489	55.37
875.656	47.36
875.823	44.14
875.99	40.01
876.157	41.83
876.324	41.78
876.49	44.05
876.657	32.43
876.824	24.51
876.991	12.64
877.157	18.92
877.324	18.72
877.491	36.87
877.658	49.56
877.824	46.88
877.991	41.45
878.157	40.1
878.324	42.45
878.491	48.4
878.657	69.78
878.824	75.79
878.99	77.88
879.157	78.08
879.323	69.08
879.49	60.18
879.656	76.57
879.823	85.72
879.989	86
880.156	92.8
880.322	82.39
880.488	69.37
880.655	67.38
880.821	80.49
880.987	78.81
881.154	67.76
881.32	57.56
881.486	42.12
881.652	38.82
881.819	32.4
881.985	31.86
882.151	33.93
882.317	36.04
882.483	39.28
882.649	36.6
882.816	35.36
882.982	36.02
883.148	38.23
883.314	40.09
883.48	38.9
883.646	40.26
883.812	40.41
883.978	41.7
884.144	42.29
884.31	40.15
884.476	37.96
884.642	38.5
884.807	41.72
884.973	40.65
885.139	41.4
885.305	40.77
885.471	40.99
885.637	39.61
885.802	41.36
885.968	36.37
886.134	39.48
886.3	41.59
886.465	43.27
886.631	37.87
886.797	40.17
886.962	43.39
887.128	45
887.293	46.91
887.459	48.11
887.625	36.27
887.79	42.28
887.956	37.41
888.121	39.07
888.287	35.94
888.452	36.45
888.618	38.23
888.783	32.38
