Data from 2938095_Reflection_1.txt Node
Date: Sat Jul 11 19:04:45 EDT 2015
User: robert
Spectrometer: USB4E03001
Autoset integration time: false
Trigger mode: 4
Integration Time (sec): 1.000000E-1
Scans to average: 10
Electric dark correction enabled: true
Nonlinearity correction enabled: false
Boxcar width: 5
Stray light correction enabled: false
XAxis mode: Wavelengths
Stop averaging: false
Number of Pixels in Spectrum: 3648
>>>>>Begin Spectral Data<<<<<
177.566	79.45
177.785	73.39
178.005	91.09
178.225	177.25
178.445	230.67
178.665	321.89
178.885	-11.83
179.105	187.69
179.324	-390.03
179.544	75.2
179.764	70.91
179.984	106.91
180.204	89.78
180.423	275.31
180.643	-531.68
180.863	-246.22
181.083	-102.63
181.302	-17.41
181.522	-81.46
181.742	-2.69
181.961	18.25
182.181	226.92
182.401	-154.11
182.621	35.04
182.84	-199.42
183.06	-131.73
183.279	344.48
183.499	144.53
183.719	49.31
183.938	55.69
184.158	40.53
184.377	30.19
184.597	22.77
184.816	17.76
185.036	39.01
185.256	22.18
185.475	30.61
185.695	28.83
185.914	34.37
186.134	29.73
186.353	34.45
186.572	-5.39
186.792	13.34
187.011	14.65
187.231	13.16
187.45	-14.63
187.67	-27.86
187.889	-13.7
188.108	-17.04
188.328	-22.35
188.547	-7.96
188.766	-27.89
188.986	-9.58
189.205	-10.67
189.424	-18.16
189.644	-5.22
189.863	-1.61
190.082	6.98
190.302	-12.85
190.521	-22.11
190.74	-52.63
190.959	20.81
191.178	705.33
191.398	2695.6
191.617	1002.77
191.836	899.1
192.055	83.8
192.274	357.69
192.494	274.81
192.713	185.52
192.932	194.58
193.151	198.03
193.37	118.73
193.589	116.54
193.808	103.33
194.027	201.57
194.246	480.29
194.465	-2358.65
194.685	90.84
194.904	34.43
195.123	-32.86
195.342	-487.97
195.561	-44.43
195.78	-183.31
195.999	-75.92
196.218	-62.66
196.436	-55.58
196.655	-85.8
196.874	-41.84
197.093	-12.49
197.312	-0.17
197.531	35.41
197.75	33.83
197.969	44.59
198.188	39.1
198.407	58.08
198.625	29.46
198.844	48.7
199.063	60.56
199.282	77.69
199.501	82.85
199.719	78.71
199.938	6.01
200.157	3.05
200.376	13.33
200.594	7.06
200.813	-45.4
201.032	-42.18
201.251	-97.22
201.469	-91.58
201.688	-172.9
201.907	-237.44
202.125	-126.54
202.344	-154.28
202.563	-272.84
202.781	-289.07
203	-57.03
203.218	-55.44
203.437	-46.01
203.656	-220.86
203.874	-119.58
204.093	18.93
204.311	-27.99
204.53	2706.15
204.748	-701.28
204.967	19.54
205.185	-97.23
205.404	-626.3
205.622	-69.79
205.841	-34.47
206.059	-8.7
206.278	-24.48
206.496	-115.97
206.715	-45.08
206.933	27.26
207.151	23.53
207.37	-44.57
207.588	-42.55
207.806	97.09
208.025	136.71
208.243	-101.92
208.461	56.08
208.68	13.92
208.898	19.17
209.116	59.75
209.335	-18.76
209.553	175.96
209.771	69.72
209.989	181.17
210.208	178.26
210.426	113.57
210.644	363.55
210.862	972.06
211.081	-355.96
211.299	11523.08
211.517	-575.87
211.735	252.06
211.953	102.66
212.171	150.47
212.39	88.67
212.608	95.99
212.826	104.3
213.044	72.69
213.262	71.75
213.48	61.72
213.698	56.11
213.916	56.36
214.134	105.4
214.352	130.86
214.57	176.59
214.788	155.51
215.006	93.39
215.224	77.65
215.442	135.27
215.66	93.92
215.878	161.56
216.096	148.23
216.314	167.85
216.532	92.57
216.75	81.71
216.968	33.06
217.185	36.64
217.403	67.31
217.621	101.04
217.839	112.21
218.057	122
218.275	51.69
218.492	37.51
218.71	49.04
218.928	76.64
219.146	93.82
219.363	79.53
219.581	76.23
219.799	69.79
220.017	51.65
220.234	10.27
220.452	18.31
220.67	54.8
220.887	46.74
221.105	26.06
221.323	24.51
221.54	25.39
221.758	15.16
221.976	28.16
222.193	32.82
222.411	29.49
222.629	35.63
222.846	44.94
223.064	34.59
223.281	24.61
223.499	18.99
223.716	21.16
223.934	21.06
224.151	36.6
224.369	29.62
224.586	47.45
224.804	42.12
225.021	46.92
225.239	15.85
225.456	15.63
225.674	28.21
225.891	12.49
226.108	5.58
226.326	-4.39
226.543	-18.76
226.76	-9.49
226.978	-5.78
227.195	6.35
227.413	3.81
227.63	6.97
227.847	11.62
228.064	10.25
228.282	11.69
228.499	12.8
228.716	15.53
228.934	21.8
229.151	21.69
229.368	19.51
229.585	22.99
229.802	22.2
230.02	22.52
230.237	22.53
230.454	24.27
230.671	24.97
230.888	23.72
231.105	26.31
231.323	23.15
231.54	21.67
231.757	22.13
231.974	17.25
232.191	15.27
232.408	19.79
232.625	18.2
232.842	18.83
233.059	19.29
233.276	24.08
233.493	18.77
233.71	21.49
233.927	24.45
234.144	29.23
234.361	32.07
234.578	32.85
234.795	21.74
235.012	23.02
235.229	17.42
235.446	16.84
235.663	9.69
235.879	10.9
236.096	13.28
236.313	12.44
236.53	8.13
236.747	9.18
236.964	8.51
237.181	16.17
237.397	20.33
237.614	21.39
237.831	20.58
238.048	23.37
238.264	23.49
238.481	21.09
238.698	20.9
238.915	22.06
239.131	22.55
239.348	22.16
239.565	21.39
239.781	19.9
239.998	23.05
240.215	19.19
240.431	17.02
240.648	13.19
240.865	11.66
241.081	12.15
241.298	10.55
241.514	7.5
241.731	8.09
241.947	8.49
242.164	7.18
242.38	5.72
242.597	7.51
242.814	8.05
243.03	11.03
243.246	12.53
243.463	9.47
243.679	10.2
243.896	11.78
244.112	11.68
244.329	10.24
244.545	11.83
244.762	13.4
244.978	11.57
245.194	14.43
245.411	13.71
245.627	11.1
245.843	14.62
246.06	13.03
246.276	12.05
246.492	12.12
246.709	11.86
246.925	11.02
247.141	11.18
247.357	11.67
247.574	11.76
247.79	11.72
248.006	12.27
248.222	12.05
248.439	12.49
248.655	12.77
248.871	13.6
249.087	14.22
249.303	14.7
249.519	15.09
249.736	15.41
249.952	12.85
250.168	11.08
250.384	9.79
250.6	8.84
250.816	8.36
251.032	10.04
251.248	7.44
251.464	8.49
251.68	7.15
251.896	4.97
252.112	4.28
252.328	4.91
252.544	5.48
252.76	7.56
252.976	9.06
253.192	10.43
253.408	7.89
253.624	9.19
253.84	6.87
254.056	9.15
254.272	12.48
254.487	14.02
254.703	15.66
254.919	14.15
255.135	10.63
255.351	9.86
255.567	4.73
255.782	2.91
255.998	1.71
256.214	2.98
256.43	1
256.646	-3.62
256.861	-5.42
257.077	-5.11
257.293	-1.56
257.508	1.92
257.724	1.67
257.94	3.63
258.155	6.37
258.371	8.23
258.587	9.29
258.802	9.55
259.018	9.6
259.234	10.44
259.449	10.38
259.665	10.33
259.88	9.8
260.096	10.2
260.312	10.5
260.527	10.61
260.743	9.95
260.958	9.83
261.174	9.46
261.389	9.96
261.605	9.92
261.82	10.9
262.036	10.43
262.251	9.78
262.466	7.88
262.682	8.46
262.897	6.8
263.113	4.73
263.328	4.73
263.543	5.42
263.759	6.56
263.974	7.98
264.189	8
264.405	9
264.62	11.78
264.835	16.08
265.051	15.69
265.266	15.53
265.481	19.92
265.696	17.96
265.912	18.95
266.127	17.67
266.342	16.76
266.557	14.08
266.773	13.28
266.988	11.73
267.203	10.89
267.418	11.33
267.633	11.98
267.848	10.84
268.064	9.53
268.279	7.84
268.494	7.17
268.709	7.57
268.924	8.1
269.139	7.41
269.354	9.76
269.569	9.25
269.784	8.13
269.999	9.62
270.214	10.13
270.429	11.08
270.644	11.14
270.859	10.77
271.074	9.69
271.289	9.43
271.504	10
271.719	9.02
271.934	8.33
272.149	8.77
272.363	8.02
272.578	7.28
272.793	8.44
273.008	10.18
273.223	10.76
273.438	11.05
273.653	10.85
273.867	11.07
274.082	11.4
274.297	11.81
274.512	12.43
274.726	12.87
274.941	12.98
275.156	12.24
275.371	10.65
275.585	11.28
275.8	10.25
276.015	11.69
276.229	10.73
276.444	10.22
276.659	10.94
276.873	11.66
277.088	11.82
277.302	12.93
277.517	13.52
277.732	14.55
277.946	13.51
278.161	14.25
278.375	12.69
278.59	15.86
278.804	15.03
279.019	15.72
279.233	13.97
279.448	14.08
279.662	12.75
279.877	11.99
280.091	9.96
280.306	8.21
280.52	8.76
280.735	10.51
280.949	8.19
281.163	10.15
281.378	8.92
281.592	9.35
281.806	9.44
282.021	9.54
282.235	9.89
282.449	9.94
282.664	10.94
282.878	11.71
283.092	10.57
283.307	10.7
283.521	8.61
283.735	8.04
283.949	7.28
284.164	7.36
284.378	5.82
284.592	5.26
284.806	5.61
285.02	6.81
285.234	6.46
285.449	7.38
285.663	7.89
285.877	8.27
286.091	8.67
286.305	8.98
286.519	8.15
286.733	9.84
286.947	9.4
287.161	9.81
287.375	9.34
287.589	8.36
287.803	7.33
288.017	7.54
288.231	8.71
288.445	7.21
288.659	6.34
288.873	5.47
289.087	5.09
289.301	5.64
289.515	7.1
289.729	7.9
289.943	8.14
290.157	8.62
290.371	8.23
290.584	7.9
290.798	8.63
291.012	10.24
291.226	11.3
291.44	11.63
291.654	13.84
291.867	12.64
292.081	13.37
292.295	13.45
292.509	13.16
292.722	12.07
292.936	12.11
293.15	11.43
293.364	10.3
293.577	9.88
293.791	9.03
294.005	6.55
294.218	7.08
294.432	6.19
294.645	6.98
294.859	7.37
295.073	9.11
295.286	8.04
295.5	9.9
295.713	10.43
295.927	11.81
296.14	12.19
296.354	13.97
296.568	14.01
296.781	13.85
296.994	13.58
297.208	13.36
297.421	13.06
297.635	13.12
297.848	12.41
298.062	12.31
298.275	11.12
298.489	12.33
298.702	11.68
298.915	10.89
299.129	10.46
299.342	11.12
299.555	11.1
299.769	10.62
299.982	10.81
300.195	10.74
300.409	11.89
300.622	10.78
300.835	8.93
301.048	8.57
301.262	7.32
301.475	7.12
301.688	6.32
301.901	5.77
302.115	6.87
302.328	7.73
302.541	7.41
302.754	7.21
302.967	8.33
303.18	8.99
303.393	8.77
303.607	11.2
303.82	12.5
304.033	10.8
304.246	11.62
304.459	10.03
304.672	9.28
304.885	11.2
305.098	10.41
305.311	10.12
305.524	9.1
305.737	10.31
305.95	9.96
306.163	8.55
306.376	10.15
306.589	10
306.802	11.15
307.015	11.47
307.228	10.39
307.44	9.64
307.653	10.62
307.866	11.39
308.079	10.5
308.292	10.45
308.505	10.65
308.718	8.86
308.93	6.86
309.143	5.57
309.356	6.77
309.569	6.77
309.781	7.32
309.994	6.83
310.207	6.54
310.42	7.42
310.632	7.84
310.845	7.26
311.058	9.52
311.27	13.17
311.483	13.49
311.696	11.76
311.908	12.5
312.121	13.05
312.333	14.58
312.546	14.55
312.759	14.22
312.971	13.65
313.184	13.67
313.396	13.09
313.609	7.64
313.821	9.7
314.034	11.21
314.246	10.69
314.459	9.3
314.671	7.76
314.884	7.82
315.096	6.94
315.309	6.12
315.521	6.62
315.733	6.83
315.946	9.7
316.158	8.84
316.371	8.55
316.583	6.42
316.795	6.95
317.008	6.49
317.22	5.77
317.432	6.17
317.644	5.29
317.857	6.67
318.069	6.59
318.281	6.68
318.494	4.55
318.706	4.14
318.918	6.2
319.13	6.49
319.342	5.96
319.555	6.77
319.767	5.93
319.979	7.76
320.191	7.95
320.403	6.63
320.615	7.64
320.827	8.19
321.039	8.61
321.252	6.46
321.464	6.63
321.676	7.72
321.888	7.36
322.1	8.54
322.312	9.46
322.524	8.58
322.736	9.88
322.948	10.76
323.16	11.07
323.372	12.73
323.584	14.37
323.796	13.47
324.007	13.26
324.219	12.72
324.431	13.82
324.643	12.45
324.855	13.05
325.067	12.93
325.279	11.46
325.491	12.41
325.702	9.5
325.914	10
326.126	11.5
326.338	10.13
326.55	10.46
326.761	9.1
326.973	9.31
327.185	7.01
327.396	5.89
327.608	5.61
327.82	4.36
328.032	4.44
328.243	4.23
328.455	4.39
328.666	5.86
328.878	6.2
329.09	6.14
329.301	6.86
329.513	9.44
329.725	10.55
329.936	11.24
330.148	11.82
330.359	14.62
330.571	14.39
330.782	13.46
330.994	12.79
331.205	14.36
331.417	15.09
331.628	15.56
331.84	14.38
332.051	13.4
332.262	13.38
332.474	12.83
332.685	10.93
332.897	10.41
333.108	10.95
333.319	11.93
333.531	10.28
333.742	9.03
333.953	8.97
334.165	9.82
334.376	9.73
334.587	10.13
334.799	10.43
335.01	11.94
335.221	12
335.432	11.94
335.644	10.84
335.855	12.98
336.066	12.89
336.277	12.45
336.488	12.88
336.7	14.3
336.911	13.72
337.122	13.12
337.333	12.32
337.544	11.3
337.755	9.24
337.966	9.82
338.177	7.9
338.388	8.38
338.599	7.43
338.811	6.18
339.022	4.81
339.233	5.3
339.444	6.98
339.655	6.44
339.866	7.29
340.076	8.39
340.287	8.73
340.498	9.9
340.709	10.71
340.92	10.38
341.131	10.8
341.342	10.87
341.553	11.38
341.764	10.56
341.975	10.71
342.185	11.36
342.396	12.6
342.607	12.3
342.818	12.58
343.029	11.61
343.239	12.77
343.45	14.39
343.661	14.06
343.872	12.83
344.082	12.87
344.293	12.02
344.504	11.32
344.714	8.99
344.925	8.47
345.136	7.38
345.346	7.26
345.557	6.56
345.768	3.35
345.978	3.35
346.189	4.12
346.399	3.25
346.61	4.46
346.821	5.71
347.031	7.12
347.242	7.35
347.452	8.84
347.663	8.57
347.873	10.04
348.084	10.42
348.294	10.32
348.504	10.22
348.715	11.8
348.925	9.96
349.136	9.35
349.346	8.94
349.557	10.29
349.767	9.16
349.977	9.66
350.188	7.88
350.398	9.11
350.608	9.34
350.819	10.85
351.029	9.47
351.239	10.35
351.449	10.25
351.66	10.71
351.87	8.77
352.08	8.2
352.29	9
352.501	9.1
352.711	9.35
352.921	10.17
353.131	8.98
353.341	8.22
353.552	7.77
353.762	8.12
353.972	7.99
354.182	8.26
354.392	8.69
354.602	9.48
354.812	10.14
355.022	10.03
355.232	9.77
355.442	8.95
355.652	9.65
355.862	9.66
356.072	10.13
356.282	10.05
356.492	9.81
356.702	9.3
356.912	7.43
357.122	7.32
357.332	6.64
357.542	7.39
357.752	7.84
357.962	8.61
358.171	9.38
358.381	9.69
358.591	10.05
358.801	9.73
359.011	9.59
359.221	9.47
359.43	9.21
359.64	8.66
359.85	8.64
360.06	7.95
360.269	6.75
360.479	6.15
360.689	4.66
360.899	4.49
361.108	5.38
361.318	5.52
361.528	6.38
361.737	6
361.947	6.55
362.156	5.76
362.366	6.11
362.576	6.08
362.785	6.63
362.995	7.29
363.204	7.46
363.414	7.26
363.623	6.66
363.833	6.27
364.042	6.69
364.252	6.58
364.461	7.01
364.671	7.95
364.88	9.4
365.09	8.63
365.299	8.26
365.509	7.72
365.718	6.91
365.927	7.38
366.137	7.92
366.346	7.47
366.555	6.89
366.765	6.27
366.974	4.25
367.183	2.67
367.393	3.46
367.602	3.43
367.811	4.51
368.021	4.89
368.23	4.36
368.439	4.11
368.648	4.68
368.857	4.91
369.067	5.04
369.276	6.6
369.485	6.59
369.694	6.25
369.903	6.58
370.112	5.8
370.321	6.44
370.531	7.31
370.74	7.41
370.949	7.25
371.158	7.35
371.367	6.9
371.576	6.56
371.785	7.72
371.994	7.53
372.203	7.69
372.412	7.48
372.621	7.23
372.83	7.32
373.039	6.78
373.248	6.82
373.457	6.9
373.666	7.49
373.874	7.09
374.083	6.6
374.292	6.66
374.501	6.36
374.71	6.69
374.919	6.68
375.128	6.41
375.336	6.23
375.545	6.11
375.754	6.21
375.963	6.44
376.171	6.11
376.38	5.54
376.589	5.84
376.798	5.45
377.006	5.39
377.215	5.64
377.424	5.85
377.632	5.95
377.841	5.79
378.05	5.58
378.258	5.64
378.467	6.18
378.675	6.55
378.884	6.12
379.093	6.09
379.301	5.77
379.51	5.64
379.718	5.17
379.927	4.62
380.135	4.39
380.344	4.19
380.552	4.58
380.761	4.07
380.969	3.29
381.177	3.5
381.386	3.96
381.594	4.48
381.803	4.32
382.011	4.11
382.219	4.85
382.428	4.88
382.636	5.46
382.845	4.61
383.053	4.72
383.261	4.96
383.469	4.59
383.678	3.82
383.886	3.31
384.094	2.7
384.302	3.23
384.511	2.69
384.719	3.08
384.927	3.1
385.135	3.43
385.343	3.16
385.552	2.86
385.76	3.26
385.968	3.74
386.176	3.67
386.384	3.9
386.592	3.62
386.8	3.69
387.008	3.44
387.216	3.05
387.424	2.37
387.633	2.92
387.841	3.01
388.049	2.55
388.257	2.1
388.465	2.47
388.672	2.32
388.88	2.49
389.088	2.83
389.296	2.63
389.504	2.67
389.712	3.15
389.92	2.97
390.128	3.03
390.336	3.1
390.544	3.65
390.751	3.2
390.959	3.49
391.167	3.35
391.375	3.37
391.583	3.8
391.79	4.04
391.998	4.06
392.206	3.78
392.414	4.11
392.621	4.19
392.829	3.8
393.037	4.08
393.244	3.49
393.452	3.25
393.66	3.15
393.867	3.17
394.075	2.79
394.283	2.73
394.49	3.05
394.698	2.55
394.905	2.52
395.113	2.41
395.32	2.46
395.528	2.77
395.735	2.98
395.943	2.93
396.15	2.2
396.358	2.34
396.565	2.27
396.773	2.17
396.98	2.84
397.188	2.78
397.395	2.63
397.602	2.25
397.81	2.36
398.017	2.5
398.225	2.11
398.432	2.6
398.639	2.65
398.847	2.88
399.054	2.7
399.261	2.48
399.468	2.64
399.676	2.87
399.883	2.88
400.09	2.68
400.297	2.39
400.505	2.73
400.712	2.38
400.919	2.41
401.126	2.1
401.333	1.83
401.54	1.39
401.748	1.29
401.955	1.39
402.162	1.44
402.369	1.56
402.576	1.57
402.783	1.46
402.99	1.67
403.197	1.51
403.404	1.69
403.611	2.11
403.818	2.56
404.025	2.38
404.232	2.39
404.439	2.68
404.646	2.74
404.853	2.81
405.06	2.96
405.267	2.83
405.474	3
405.681	2.92
405.887	2.73
406.094	2.49
406.301	2.81
406.508	2.99
406.715	2.98
406.922	2.98
407.128	2.79
407.335	2.63
407.542	2.85
407.749	2.92
407.955	2.89
408.162	2.99
408.369	3.08
408.575	2.81
408.782	2.6
408.989	2.41
409.195	2.55
409.402	2.5
409.609	2.64
409.815	2.51
410.022	2.27
410.228	2.34
410.435	2.23
410.642	2.58
410.848	2.75
411.055	2.68
411.261	2.7
411.468	2.79
411.674	3.13
411.881	3.11
412.087	3.19
412.294	3.32
412.5	3.27
412.706	3.59
412.913	3.17
413.119	3.06
413.326	3.14
413.532	3.36
413.738	3.24
413.945	3.33
414.151	3.44
414.357	3.43
414.564	2.95
414.77	2.67
414.976	2.72
415.182	2.6
415.389	2.84
415.595	2.97
415.801	2.66
416.007	2.7
416.214	2.56
416.42	2.42
416.626	2.28
416.832	2.62
417.038	2.96
417.244	2.7
417.45	2.81
417.657	2.54
417.863	2.33
418.069	2.17
418.275	2.12
418.481	2.21
418.687	2.23
418.893	2.21
419.099	2.02
419.305	1.89
419.511	1.88
419.717	1.78
419.923	1.81
420.129	1.87
420.335	1.99
420.541	1.91
420.746	1.76
420.952	1.63
421.158	1.7
421.364	1.69
421.57	1.75
421.776	1.73
421.982	1.93
422.187	1.85
422.393	1.89
422.599	1.84
422.805	1.77
423.01	1.85
423.216	1.94
423.422	1.88
423.628	1.92
423.833	1.9
424.039	1.99
424.245	1.76
424.45	1.93
424.656	1.78
424.862	1.9
425.067	1.98
425.273	2
425.478	1.99
425.684	2.05
425.889	2.1
426.095	2.13
426.301	2
426.506	2.08
426.712	2.09
426.917	2.31
427.123	2.09
427.328	2.22
427.533	2.22
427.739	2.12
427.944	2.07
428.15	1.88
428.355	1.61
428.561	1.82
428.766	1.87
428.971	1.97
429.177	1.93
429.382	2.02
429.587	1.88
429.793	1.63
429.998	1.84
430.203	2.07
430.408	2.21
430.614	2.2
430.819	2.11
431.024	2.28
431.229	1.97
431.434	1.7
431.64	1.59
431.845	1.55
432.05	1.85
432.255	1.58
432.46	1.37
432.665	1.63
432.87	1.79
433.076	1.68
433.281	1.65
433.486	1.68
433.691	1.82
433.896	1.72
434.101	1.86
434.306	1.76
434.511	1.85
434.716	1.94
434.921	1.82
435.126	1.69
435.331	1.58
435.535	1.62
435.74	1.63
435.945	1.58
436.15	1.88
436.355	1.75
436.56	1.57
436.765	1.74
436.97	1.72
437.174	1.81
437.379	1.95
437.584	2.13
437.789	1.95
437.993	1.86
438.198	2.03
438.403	2.07
438.608	2.06
438.812	2.3
439.017	2.16
439.222	2.07
439.426	1.88
439.631	1.81
439.836	1.8
440.04	1.73
440.245	1.8
440.45	1.69
440.654	1.62
440.859	1.75
441.063	1.68
441.268	1.66
441.472	1.53
441.677	1.69
441.881	1.79
442.086	1.92
442.29	1.89
442.495	2.01
442.699	2.04
442.904	2.01
443.108	1.87
443.312	1.87
443.517	1.94
443.721	2.06
443.925	2.06
444.13	1.88
444.334	1.52
444.538	1.67
444.743	1.5
444.947	1.52
445.151	1.66
445.356	1.69
445.56	1.74
445.764	1.77
445.968	1.87
446.173	1.68
446.377	1.76
446.581	1.82
446.785	1.81
446.989	1.74
447.193	1.83
447.398	1.77
447.602	1.74
447.806	1.55
448.01	1.65
448.214	1.4
448.418	1.58
448.622	1.56
448.826	1.77
449.03	1.71
449.234	1.75
449.438	1.66
449.642	1.64
449.846	1.62
450.05	1.65
450.254	1.53
450.458	1.86
450.662	1.83
450.866	1.76
451.069	1.62
451.273	1.77
451.477	1.94
451.681	1.87
451.885	2.04
452.089	1.93
452.292	2.2
452.496	2.19
452.7	2.06
452.904	1.98
453.107	2.03
453.311	2.16
453.515	2
453.719	1.82
453.922	1.73
454.126	1.47
454.33	1.64
454.533	1.34
454.737	1.16
454.94	1.37
455.144	1.35
455.348	1.52
455.551	1.33
455.755	1.6
455.958	1.71
456.162	1.94
456.365	2.03
456.569	2.06
456.772	2
456.976	2.11
457.179	2.04
457.383	1.79
457.586	1.54
457.79	1.61
457.993	1.54
458.196	1.6
458.4	1.55
458.603	1.55
458.807	1.55
459.01	1.73
459.213	1.78
459.417	1.7
459.62	1.84
459.823	1.86
460.026	1.82
460.23	1.75
460.433	1.71
460.636	1.72
460.839	1.72
461.042	1.69
461.246	1.6
461.449	1.57
461.652	1.53
461.855	1.65
462.058	1.64
462.261	1.78
462.464	1.8
462.668	1.85
462.871	1.76
463.074	1.77
463.277	1.84
463.48	1.84
463.683	1.93
463.886	2.01
464.089	2.01
464.292	1.86
464.495	1.89
464.698	1.94
464.901	1.88
465.104	1.89
465.306	1.88
465.509	1.8
465.712	1.7
465.915	1.7
466.118	1.67
466.321	1.6
466.524	1.92
466.726	1.96
466.929	1.95
467.132	1.91
467.335	1.95
467.538	1.89
467.74	1.96
467.943	2.04
468.146	1.95
468.348	1.98
468.551	1.93
468.754	1.96
468.956	1.83
469.159	1.79
469.362	1.92
469.564	1.85
469.767	1.81
469.969	1.68
470.172	1.69
470.375	1.59
470.577	1.64
470.78	1.64
470.982	1.34
471.185	1.28
471.387	1.26
471.59	1.21
471.792	1.27
471.995	1.42
472.197	1.47
472.399	1.57
472.602	1.69
472.804	1.71
473.007	1.75
473.209	1.85
473.411	2.02
473.614	2.18
473.816	2.06
474.018	2.02
474.22	1.96
474.423	1.83
474.625	1.79
474.827	1.94
475.03	1.89
475.232	2.02
475.434	2.19
475.636	1.98
475.838	1.83
476.04	2.07
476.243	2.12
476.445	2.05
476.647	2.1
476.849	2.16
477.051	1.95
477.253	1.92
477.455	1.79
477.657	1.61
477.859	1.55
478.061	1.58
478.263	1.43
478.465	1.51
478.667	1.57
478.869	1.72
479.071	1.65
479.273	1.89
479.475	1.89
479.677	1.87
479.879	1.95
480.081	2.1
480.283	2.03
480.485	1.99
480.686	1.77
480.888	1.61
481.09	1.52
481.292	1.54
481.494	1.45
481.695	1.4
481.897	1.47
482.099	1.37
482.301	1.39
482.502	1.4
482.704	1.45
482.906	1.49
483.107	1.55
483.309	1.55
483.511	1.51
483.712	1.46
483.914	1.48
484.115	1.48
484.317	1.55
484.519	1.54
484.72	1.55
484.922	1.55
485.123	1.57
485.325	1.61
485.526	1.66
485.728	1.68
485.929	1.69
486.131	1.69
486.332	1.68
486.534	1.6
486.735	1.55
486.936	1.6
487.138	1.51
487.339	1.56
487.541	1.51
487.742	1.41
487.943	1.36
488.144	1.38
488.346	1.33
488.547	1.24
488.748	1.25
488.95	1.3
489.151	1.21
489.352	1.3
489.553	1.22
489.755	1.33
489.956	1.39
490.157	1.43
490.358	1.36
490.559	1.51
490.76	1.55
490.961	1.56
491.163	1.5
491.364	1.57
491.565	1.49
491.766	1.46
491.967	1.38
492.168	1.32
492.369	1.41
492.57	1.51
492.771	1.48
492.972	1.48
493.173	1.59
493.374	1.58
493.575	1.59
493.776	1.76
493.976	1.86
494.177	1.91
494.378	2.11
494.579	1.89
494.78	1.58
494.981	1.48
495.182	1.42
495.382	1.36
495.583	1.38
495.784	1.27
495.985	1.2
496.185	1.17
496.386	1.14
496.587	1
496.788	1.05
496.988	1.24
497.189	1.23
497.39	1.38
497.59	1.43
497.791	1.53
497.992	1.51
498.192	1.56
498.393	1.47
498.593	1.53
498.794	1.58
498.994	1.67
499.195	1.76
499.395	1.82
499.596	1.72
499.796	1.56
499.997	1.67
500.197	1.84
500.398	1.6
500.598	1.6
500.799	1.52
500.999	1.55
501.199	1.52
501.4	1.54
501.6	1.4
501.801	1.41
502.001	1.37
502.201	1.18
502.402	0.95
502.602	1.07
502.802	1.06
503.002	1.07
503.203	1.18
503.403	1.2
503.603	1.13
503.803	1.37
504.003	1.56
504.204	1.74
504.404	1.82
504.604	1.94
504.804	1.93
505.004	2.03
505.204	2.15
505.404	1.96
505.604	1.86
505.804	1.85
506.005	1.57
506.205	1.59
506.405	1.61
506.605	1.67
506.805	1.66
507.005	1.74
507.204	1.79
507.404	1.63
507.604	1.73
507.804	1.93
508.004	2.03
508.204	2.21
508.404	2.03
508.604	2.02
508.804	1.97
509.003	1.99
509.203	1.95
509.403	2.04
509.603	2.19
509.803	2.11
510.002	2.09
510.202	1.96
510.402	2
510.602	1.86
510.801	1.79
511.001	1.76
511.201	1.74
511.4	1.75
511.6	1.66
511.8	1.51
511.999	1.6
512.199	1.57
512.398	1.64
512.598	1.63
512.797	1.78
512.997	1.76
513.197	1.67
513.396	1.74
513.596	1.66
513.795	1.72
513.994	1.81
514.194	1.85
514.393	1.91
514.593	1.86
514.792	1.83
514.992	1.98
515.191	2.16
515.39	2.35
515.59	2.28
515.789	2.44
515.988	2.26
516.188	2.22
516.387	2.16
516.586	2.11
516.786	2.22
516.985	2.2
517.184	2.15
517.383	1.95
517.582	1.83
517.782	1.91
517.981	1.89
518.18	1.88
518.379	1.93
518.578	1.96
518.777	1.93
518.976	1.76
519.176	1.67
519.375	1.67
519.574	1.73
519.773	1.75
519.972	1.78
520.171	1.7
520.37	1.77
520.569	1.7
520.768	1.77
520.967	1.84
521.166	2.03
521.365	2.15
521.564	2.18
521.762	2.12
521.961	2.23
522.16	2.1
522.359	2.23
522.558	2.17
522.757	2.14
522.956	1.96
523.154	1.89
523.353	1.87
523.552	2
523.751	2.02
523.949	2.1
524.148	2.08
524.347	2.09
524.546	2.13
524.744	2.25
524.943	2.34
525.142	2.21
525.34	2.25
525.539	2.32
525.737	2.23
525.936	2.18
526.135	2.1
526.333	2
526.532	2.03
526.73	2
526.929	1.92
527.127	1.89
527.326	2
527.524	2.03
527.723	1.98
527.921	1.97
528.12	1.99
528.318	2.1
528.516	2.18
528.715	2.18
528.913	2.17
529.112	2.21
529.31	2.27
529.508	2.32
529.707	2.3
529.905	2.33
530.103	2.33
530.301	2.38
530.5	2.34
530.698	2.31
530.896	2.3
531.094	2.32
531.293	2.38
531.491	2.38
531.689	2.36
531.887	2.45
532.085	2.38
532.283	2.41
532.481	2.36
532.68	2.39
532.878	2.4
533.076	2.45
533.274	2.45
533.472	2.46
533.67	2.41
533.868	2.43
534.066	2.43
534.264	2.46
534.462	2.53
534.66	2.6
534.858	2.6
535.056	2.71
535.253	2.76
535.451	2.72
535.649	2.74
535.847	2.87
536.045	2.85
536.243	2.79
536.441	2.77
536.638	2.7
536.836	2.61
537.034	2.55
537.232	2.46
537.43	2.4
537.627	2.43
537.825	2.37
538.023	2.42
538.22	2.44
538.418	2.53
538.616	2.54
538.813	2.59
539.011	2.71
539.209	2.82
539.406	2.83
539.604	2.89
539.801	3.02
539.999	2.97
540.196	2.79
540.394	2.88
540.591	2.79
540.789	2.88
540.986	2.86
541.184	2.78
541.381	2.83
541.579	2.83
541.776	2.83
541.974	2.79
542.171	2.81
542.368	2.78
542.566	2.83
542.763	2.99
542.96	3.01
543.158	3.05
543.355	3.14
543.552	3.17
543.75	3.12
543.947	3.17
544.144	3.28
544.341	3.35
544.539	3.39
544.736	3.28
544.933	3.06
545.13	3.1
545.327	3.06
545.524	3.12
545.722	3.01
545.919	3.02
546.116	3.07
546.313	2.92
546.51	3.04
546.707	3.19
546.904	3.35
547.101	3.39
547.298	3.34
547.495	3.46
547.692	3.55
547.889	3.63
548.086	3.85
548.283	3.8
548.48	3.93
548.677	3.82
548.874	3.81
549.07	3.66
549.267	3.86
549.464	4.03
549.661	4.09
549.858	3.86
550.055	3.9
550.251	3.8
550.448	3.85
550.645	3.95
550.842	4.04
551.038	4.22
551.235	4.38
551.432	4.43
551.628	4.29
551.825	4.38
552.022	4.46
552.218	4.54
552.415	4.7
552.612	4.67
552.808	4.66
553.005	4.67
553.201	4.39
553.398	4.48
553.594	4.55
553.791	4.66
553.987	4.62
554.184	4.85
554.38	4.92
554.577	4.74
554.773	4.83
554.97	4.85
555.166	4.86
555.362	5.27
555.559	5.23
555.755	5.12
555.952	5.29
556.148	5.33
556.344	5.19
556.541	5.05
556.737	5.23
556.933	5.27
557.129	5.54
557.326	5.52
557.522	5.52
557.718	5.57
557.914	5.72
558.11	5.76
558.307	5.92
558.503	6.06
558.699	6.27
558.895	6.31
559.091	6.28
559.287	6.08
559.483	6.46
559.679	6.29
559.876	6.13
560.072	6.13
560.268	6.08
560.464	6.02
560.66	5.98
560.856	6.11
561.052	6.17
561.247	6.34
561.443	6.65
561.639	6.37
561.835	6.45
562.031	6.79
562.227	6.93
562.423	6.8
562.619	7
562.815	7.14
563.01	6.94
563.206	7.03
563.402	7.13
563.598	6.93
563.793	7.07
563.989	7.24
564.185	7.32
564.381	7.08
564.576	7.2
564.772	7.07
564.968	7.1
565.163	7.27
565.359	7.66
565.555	7.49
565.75	7.52
565.946	7.61
566.141	7.6
566.337	7.52
566.532	7.72
566.728	7.82
566.923	7.73
567.119	7.53
567.314	7.58
567.51	7.26
567.705	7.52
567.901	7.72
568.096	7.67
568.292	7.74
568.487	7.62
568.682	7.68
568.878	7.75
569.073	7.88
569.268	8.23
569.464	8.21
569.659	8.13
569.854	7.92
570.05	7.69
570.245	7.79
570.44	7.75
570.635	7.93
570.831	8.08
571.026	8.2
571.221	8.18
571.416	8.05
571.611	8.02
571.806	8.19
572.002	8.39
572.197	8.48
572.392	8.54
572.587	8.66
572.782	8.83
572.977	8.84
573.172	8.83
573.367	8.96
573.562	9.04
573.757	9.07
573.952	9.16
574.147	9.07
574.342	9.16
574.537	9.2
574.732	9.04
574.927	9.04
575.121	8.75
575.316	8.52
575.511	8.53
575.706	8.56
575.901	8.54
576.096	8.61
576.29	8.66
576.485	8.61
576.68	8.62
576.875	8.72
577.069	8.69
577.264	8.91
577.459	9.1
577.654	9.22
577.848	9.36
578.043	9.57
578.238	9.19
578.432	9.35
578.627	9.51
578.821	9.47
579.016	9.56
579.21	9.31
579.405	9.37
579.6	9.25
579.794	9.55
579.989	9.59
580.183	9.78
580.378	10.16
580.572	10.16
580.766	10.28
580.961	10.34
581.155	10.23
581.35	10.44
581.544	10.35
581.738	10.62
581.933	10.52
582.127	10.24
582.321	10.04
582.516	10.05
582.71	10.13
582.904	9.76
583.099	9.94
583.293	10.22
583.487	10.35
583.681	10.52
583.875	10.54
584.07	10.18
584.264	10.54
584.458	10.54
584.652	10.65
584.846	10.58
585.04	10.73
585.234	10.65
585.428	10.36
585.623	10.45
585.817	10.62
586.011	10.54
586.205	10.79
586.399	10.63
586.593	10.67
586.787	10.6
586.981	10.48
587.174	10.75
587.368	10.72
587.562	10.95
587.756	10.75
587.95	10.73
588.144	10.82
588.338	10.66
588.532	10.94
588.725	10.81
588.919	10.72
589.113	10.83
589.307	10.55
589.501	10.73
589.694	10.69
589.888	10.68
590.082	10.43
590.275	10.58
590.469	10.68
590.663	10.37
590.856	10.41
591.05	10.58
591.244	10.56
591.437	10.59
591.631	10.62
591.824	10.54
592.018	10.55
592.212	10.68
592.405	10.4
592.599	10.4
592.792	10.51
592.986	10.57
593.179	10.46
593.372	10.58
593.566	10.73
593.759	10.44
593.953	10.79
594.146	10.54
594.339	10.5
594.533	10.51
594.726	10.31
594.92	10.23
595.113	10.45
595.306	10.42
595.499	10.3
595.693	10.41
595.886	10.57
596.079	10.54
596.272	10.55
596.466	10.5
596.659	10.44
596.852	10.61
597.045	10.67
597.238	10.5
597.431	10.61
597.624	10.69
597.818	10.64
598.011	10.63
598.204	10.53
598.397	10.48
598.59	10.62
598.783	10.82
598.976	10.78
599.169	10.95
599.362	11.06
599.555	10.83
599.748	10.66
599.941	10.84
600.134	10.82
600.326	10.83
600.519	11.39
600.712	11.17
600.905	11.03
601.098	11.1
601.291	10.72
601.483	10.63
601.676	10.69
601.869	10.98
602.062	10.81
602.255	10.63
602.447	10.53
602.64	10.4
602.833	10.62
603.025	10.67
603.218	10.89
603.411	11.12
603.603	11.24
603.796	11.17
603.989	10.85
604.181	10.77
604.374	10.98
604.566	11.01
604.759	11
604.951	10.97
605.144	11.09
605.336	10.85
605.529	10.74
605.721	10.7
605.914	10.84
606.106	11.16
606.299	11.19
606.491	11.23
606.683	11.15
606.876	11.2
607.068	11.06
607.26	11.2
607.453	11.31
607.645	11.48
607.837	11.46
608.03	11.47
608.222	11.33
608.414	11.11
608.606	10.96
608.799	10.98
608.991	10.76
609.183	10.69
609.375	10.35
609.567	10.41
609.759	10.11
609.952	9.97
610.144	9.67
610.336	9.4
610.528	9.58
610.72	9.65
610.912	9.48
611.104	9.59
611.296	9.76
611.488	9.68
611.68	9.45
611.872	9.59
612.064	9.73
612.256	10
612.448	10.21
612.64	9.94
612.832	9.95
613.023	10.48
613.215	10.52
613.407	10.46
613.599	10.47
613.791	10.68
613.983	10.62
614.174	10.76
614.366	10.56
614.558	10.64
614.75	11
614.941	10.93
615.133	10.51
615.325	10.31
615.516	10.5
615.708	10.75
615.9	10.69
616.091	10.96
616.283	10.87
616.475	11.2
616.666	11.44
616.858	11.56
617.049	11.47
617.241	11.65
617.432	11.69
617.624	11.71
617.815	11.57
618.007	11.64
618.198	11.43
618.39	11.41
618.581	11.28
618.773	11.32
618.964	11.16
619.155	11.36
619.347	11.39
619.538	11.66
619.729	11.51
619.921	11.84
620.112	11.9
620.303	12.09
620.494	11.89
620.686	11.83
620.877	11.61
621.068	11.47
621.259	11.03
621.451	11.12
621.642	10.94
621.833	10.95
622.024	10.89
622.215	10.85
622.406	10.65
622.597	10.82
622.788	10.83
622.98	10.84
623.171	11.11
623.362	11.36
623.553	11.33
623.744	11.21
623.935	11.31
624.126	11.04
624.317	11.09
624.508	11.12
624.698	10.89
624.889	10.86
625.08	11.03
625.271	10.89
625.462	10.95
625.653	10.95
625.844	10.93
626.034	10.89
626.225	11.17
626.416	11.11
626.607	11.39
626.798	11.53
626.988	11.84
627.179	11.91
627.37	11.89
627.56	11.96
627.751	11.75
627.942	12.03
628.132	11.94
628.323	11.62
628.514	11.57
628.704	11.47
628.895	11.5
629.085	11.07
629.276	10.82
629.466	11
629.657	10.64
629.847	10.74
630.038	10.29
630.228	10.48
630.419	10.54
630.609	10.55
630.8	10.54
630.99	10.69
631.181	10.87
631.371	10.91
631.561	10.78
631.752	11.29
631.942	11.2
632.132	11.5
632.323	11.58
632.513	11.63
632.703	11.45
632.893	11.22
633.084	10.82
633.274	11.34
633.464	11.68
633.654	11.74
633.844	11.57
634.034	11.47
634.225	11.38
634.415	11.22
634.605	11.62
634.795	11.7
634.985	11.99
635.175	12.46
635.365	12
635.555	11.64
635.745	11.53
635.935	11.75
636.125	12.08
636.315	12.45
636.505	12.52
636.695	11.79
636.885	12.07
637.075	11.91
637.265	11.78
637.455	12.09
637.644	11.98
637.834	11.98
638.024	11.77
638.214	11.55
638.404	11.31
638.593	11.11
638.783	11.48
638.973	11.47
639.163	11.61
639.352	11.25
639.542	10.8
639.732	10.52
639.921	10.56
640.111	10.56
640.301	11.07
640.49	11.12
640.68	11.43
640.87	11.63
641.059	11.86
641.249	11.78
641.438	12.05
641.628	12.41
641.817	12.92
642.007	13.03
642.196	13.07
642.386	12.71
642.575	12.98
642.764	12.97
642.954	13.06
643.143	12.91
643.333	12.79
643.522	12.76
643.711	12.83
643.901	12.84
644.09	12.83
644.279	13.03
644.469	13.03
644.658	12.7
644.847	12.46
645.036	12.77
645.226	12.59
645.415	12.84
645.604	12.89
645.793	12.5
645.982	12.21
646.171	12.01
646.361	11.86
646.55	12.27
646.739	12.38
646.928	11.89
647.117	11.66
647.306	11.89
647.495	11.81
647.684	11.68
647.873	11.95
648.062	12.5
648.251	12.92
648.44	12.53
648.629	12.11
648.818	11.74
649.007	12.15
649.196	12.15
649.384	11.87
649.573	11.48
649.762	11.28
649.951	11.24
650.14	10.98
650.328	10.87
650.517	10.77
650.706	10.93
650.895	11.47
651.083	11.2
651.272	11.17
651.461	10.63
651.65	11.03
651.838	11.21
652.027	10.98
652.216	10.97
652.404	10.64
652.593	11.24
652.781	11.22
652.97	11.03
653.158	11.22
653.347	11.52
653.535	12.16
653.724	12.42
653.912	12.65
654.101	12.42
654.289	12.31
654.478	12.72
654.666	12.28
654.855	12.15
655.043	12.53
655.231	12.7
655.42	12.34
655.608	12.27
655.796	12.06
655.985	12.04
656.173	12.14
656.361	11.45
656.55	11.22
656.738	11.44
656.926	11.27
657.114	10.68
657.302	10.81
657.491	10.56
657.679	10.3
657.867	10.27
658.055	10.71
658.243	11.06
658.431	11.55
658.619	11.35
658.807	11.61
658.996	11.52
659.184	11.79
659.372	11.79
659.56	12.2
659.748	12.44
659.936	12.61
660.124	12.14
660.311	11.95
660.499	12.36
660.687	12.72
660.875	12.58
661.063	12.84
661.251	12.3
661.439	12.36
661.627	12.26
661.814	12.69
662.002	12.32
662.19	12.22
662.378	12.68
662.565	12.56
662.753	12.4
662.941	11.81
663.129	11.47
663.316	12.16
663.504	11.89
663.692	11.7
663.879	11.01
664.067	11.3
664.254	11.8
664.442	11.58
664.63	11.51
664.817	11.08
665.005	11.19
665.192	11.69
665.38	11.96
665.567	11.9
665.755	11.24
665.942	11.08
666.13	10.89
666.317	10.99
666.504	10.95
666.692	11.1
666.879	11.79
667.067	11.91
667.254	11.62
667.441	11.58
667.629	11.77
667.816	12.61
668.003	13.12
668.19	12.93
668.378	12.72
668.565	13.06
668.752	12.4
668.939	12.44
669.127	12.64
669.314	12.81
669.501	12.19
669.688	12.1
669.875	12.21
670.062	12.33
670.249	12.58
670.436	12.47
670.623	12.01
670.81	12.38
670.997	12.3
671.184	12.13
671.371	12.28
671.558	12.59
671.745	12.62
671.932	12.4
672.119	12
672.306	12.16
672.493	12.6
672.68	12.56
672.867	12.73
673.054	12.42
673.24	12.82
673.427	12.83
673.614	12.8
673.801	13.24
673.988	13.18
674.174	13.17
674.361	12.94
674.548	12.62
674.734	12.47
674.921	12.39
675.108	12.85
675.294	12.87
675.481	12.6
675.668	12.89
675.854	12.38
676.041	12.28
676.227	12.31
676.414	12.56
676.601	12.55
676.787	12.66
676.974	12.93
677.16	12.94
677.347	12.68
677.533	12.73
677.719	12.19
677.906	12.22
678.092	12.11
678.279	12.33
678.465	12.1
678.651	12.09
678.838	12.49
679.024	12.46
679.21	11.82
679.397	12.02
679.583	12.51
679.769	12.77
679.955	12.77
680.142	12.81
680.328	12.9
680.514	12.78
680.7	12.74
680.886	12.38
681.073	12.18
681.259	12.5
681.445	12.21
681.631	12
681.817	12
682.003	11.75
682.189	11.86
682.375	11.88
682.561	12.02
682.747	12.24
682.933	12.78
683.119	12.87
683.305	13.08
683.491	13.12
683.677	13.04
683.863	13.25
684.049	13.58
684.235	13.41
684.42	13
684.606	13.14
684.792	13.1
684.978	12.45
685.164	12.19
685.349	11.92
685.535	12.02
685.721	11.93
685.907	11.87
686.092	11.62
686.278	11.45
686.464	12.01
686.649	12.14
686.835	11.79
687.021	12.22
687.206	12.35
687.392	12.18
687.577	12.6
687.763	12.72
687.948	12.24
688.134	12.61
688.319	12.92
688.505	12.43
688.69	12.42
688.876	12.68
689.061	12.86
689.247	13.1
689.432	13.31
689.618	12.94
689.803	13.46
689.988	14.09
690.174	13.75
690.359	13.27
690.544	13.58
690.73	13.19
690.915	13.71
691.1	13.5
691.285	13.76
691.471	13.42
691.656	13.43
691.841	12.66
692.026	12.65
692.211	12.9
692.396	13.32
692.582	12.5
692.767	12.95
692.952	11.89
693.137	12.05
693.322	11.79
693.507	12.73
693.692	12.48
693.877	11.99
694.062	12.03
694.247	12.09
694.432	12.13
694.617	12.67
694.802	12.17
694.987	13.03
695.172	12.69
695.357	12
695.541	11.52
695.726	11.63
695.911	11.37
696.096	10.93
696.281	11.04
696.466	11.11
696.65	11.38
696.835	11.29
697.02	11.05
697.204	10.74
697.389	11.59
697.574	11.58
697.759	11.6
697.943	12.28
698.128	12.52
698.312	12.46
698.497	12.57
698.682	12.46
698.866	13.01
699.051	12.78
699.235	13.27
699.42	13.08
699.604	13.42
699.789	13.49
699.973	13.57
700.158	13.38
700.342	13.4
700.527	13.5
700.711	13.92
700.895	13.71
701.08	13.41
701.264	12.93
701.448	12.8
701.633	12.18
701.817	12.41
702.001	12.53
702.186	12.39
702.37	12.42
702.554	12.25
702.738	11.39
702.923	11.52
703.107	12
703.291	12.5
703.475	12.77
703.659	12.8
703.843	12.68
704.027	12.5
704.212	12.68
704.396	12.37
704.58	12.34
704.764	12.9
704.948	12.52
705.132	13.1
705.316	13.05
705.5	12.84
705.684	12.54
705.868	12.79
706.052	12.55
706.235	12.26
706.419	12.64
706.603	12.59
706.787	12.11
706.971	12.3
707.155	12.05
707.339	11.92
707.522	11.49
707.706	12.11
707.89	12.15
708.074	12.25
708.257	12.24
708.441	11.88
708.625	11.62
708.808	11.71
708.992	11.79
709.176	11.58
709.359	11.5
709.543	12.36
709.727	12.21
709.91	12.1
710.094	11.45
710.277	11.54
710.461	12.53
710.644	12.68
710.828	12.88
711.011	13.43
711.195	13.33
711.378	13.61
711.562	13.3
711.745	13.77
711.928	13.72
712.112	14.85
712.295	14.87
712.478	13.82
712.662	14.22
712.845	14.13
713.028	13.42
713.212	14.24
713.395	14.03
713.578	13.99
713.761	13.89
713.945	14
714.128	13.45
714.311	13.89
714.494	13.83
714.677	13.68
714.86	13.43
715.043	13.73
715.227	12.83
715.41	13.17
715.593	12.75
715.776	12.74
715.959	12.33
716.142	12.75
716.325	12.61
716.508	13.81
716.691	13.42
716.874	13.87
717.057	13.4
717.239	13.41
717.422	12.56
717.605	13.03
717.788	12.95
717.971	13.52
718.154	13.11
718.337	13.55
718.519	13.1
718.702	14.08
718.885	14.01
719.068	12.74
719.25	12.01
719.433	13.27
719.616	12.28
719.798	11.91
719.981	11.46
720.164	10.83
720.346	10.56
720.529	10.21
720.712	9.99
720.894	9.44
721.077	10.89
721.259	11.98
721.442	11.32
721.624	11.94
721.807	12.3
721.989	12.95
722.172	13.61
722.354	13.51
722.537	14.41
722.719	14.88
722.901	14.5
723.084	13.76
723.266	13.7
723.448	12.58
723.631	12.17
723.813	12.2
723.995	12.09
724.178	11.3
724.36	11.03
724.542	10.22
724.724	9.05
724.907	10.55
725.089	11.62
725.271	11.98
725.453	13.5
725.635	14.94
725.817	14.46
725.999	14.17
726.181	14.47
726.364	13.64
726.546	14.04
726.728	14.41
726.91	12.61
727.092	11.53
727.274	11.65
727.456	11.92
727.638	11.27
727.819	10.51
728.001	10.75
728.183	11.09
728.365	12.19
728.547	11.87
728.729	12.05
728.911	13.16
729.093	14.9
729.274	14.92
729.456	14.28
729.638	14.04
729.82	15.43
730.001	15.81
730.183	15.93
730.365	15.76
730.546	15.7
730.728	15.37
730.91	15.45
731.091	15.29
731.273	15.74
731.455	16.52
731.636	17.19
731.818	16.46
731.999	15.25
732.181	15.24
732.362	14.98
732.544	14.8
732.725	14.98
732.907	14.57
733.088	14.06
733.27	13.25
733.451	12.08
733.633	11
733.814	11.29
733.995	11.72
734.177	12.04
734.358	12.17
734.539	11.66
734.721	11.11
734.902	11.14
735.083	11.19
735.264	10.91
735.446	11.88
735.627	13.2
735.808	12.63
735.989	13.96
736.17	13.94
736.351	13.57
736.533	14.53
736.714	14.85
736.895	14.98
737.076	15.77
737.257	16.82
737.438	15.78
737.619	15.66
737.8	16.17
737.981	15.33
738.162	15.68
738.343	15.87
738.524	15.52
738.705	15.63
738.886	16.11
739.067	14.54
739.247	13.71
739.428	15.09
739.609	14.28
739.79	14.98
739.971	15.66
740.151	14.31
740.332	14.67
740.513	14.39
740.694	14.57
740.874	13.67
741.055	13.6
741.236	13.3
741.417	12.74
741.597	12.71
741.778	11.68
741.958	10.29
742.139	12.38
742.32	11.78
742.5	11.64
742.681	11.62
742.861	12.24
743.042	12.95
743.222	13.02
743.403	13.73
743.583	13.38
743.764	14.06
743.944	14.92
744.124	12.48
744.305	12.71
744.485	13.43
744.666	13.19
744.846	13.16
745.026	12.87
745.207	13.65
745.387	12.49
745.567	12.94
745.747	12.03
745.928	12.2
746.108	12.4
746.288	13.96
746.468	13.63
746.648	12.39
746.829	13.44
747.009	13.79
747.189	13.13
747.369	13.37
747.549	13.54
747.729	12.58
747.909	10.75
748.089	11.65
748.269	10.74
748.449	10.65
748.629	11.21
748.809	9.93
748.989	10.2
749.169	10.28
749.349	9.97
749.529	9.77
749.709	11.98
749.889	13.26
750.068	13.36
750.248	12.98
750.428	13.86
750.608	14.28
750.788	15.44
750.967	15.13
751.147	14.79
751.327	14.41
751.507	15.17
751.686	14.86
751.866	15.92
752.046	16.34
752.225	15.88
752.405	15.79
752.585	16.71
752.764	16.16
752.944	16.56
753.123	17.67
753.303	18.73
753.482	17.89
753.662	17.17
753.841	16.72
754.021	15.99
754.2	16.39
754.38	15.86
754.559	15.55
754.739	15.32
754.918	15.69
755.097	15.17
755.277	15.4
755.456	15.97
755.635	15.65
755.815	14.45
755.994	15.4
756.173	16
756.352	14.52
756.532	14.44
756.711	14.26
756.89	13.08
757.069	13.64
757.248	12.92
757.427	13.63
757.607	15.16
757.786	14.99
757.965	15.36
758.144	14.36
758.323	15.79
758.502	15.08
758.681	15.5
758.86	16.52
759.039	15.93
759.218	15.72
759.397	15.05
759.576	14.41
759.755	15.28
759.934	13.94
760.113	14.53
760.291	14.92
760.47	15.51
760.649	16.23
760.828	16.95
761.007	18.55
761.186	18.7
761.364	18.59
761.543	17.76
761.722	17.25
761.901	17.52
762.079	17.48
762.258	16.94
762.437	18.4
762.615	17.52
762.794	16.71
762.972	15.37
763.151	15.46
763.33	15.54
763.508	15.91
763.687	15.76
763.865	15.42
764.044	15.27
764.222	15.52
764.401	14.51
764.579	15.17
764.758	15.57
764.936	15.85
765.114	15.4
765.293	15.36
765.471	15.73
765.65	16.55
765.828	17.28
766.006	17.15
766.184	18.12
766.363	18.62
766.541	17.35
766.719	16.8
766.898	16.31
767.076	16.47
767.254	17.3
767.432	17.63
767.61	17.19
767.788	17.32
767.967	18.33
768.145	16.7
768.323	15.99
768.501	16.72
768.679	16.61
768.857	15.43
769.035	16.95
769.213	15.36
769.391	13.86
769.569	14.42
769.747	15.02
769.925	14.88
770.103	18.08
770.281	17.24
770.459	18.11
770.636	17.39
770.814	18.63
770.992	17.63
771.17	17.9
771.348	19.4
771.525	17.87
771.703	16.22
771.881	15.74
772.059	12.4
772.236	11.97
772.414	11.23
772.592	11.4
772.769	11.95
772.947	10.17
773.125	8.49
773.302	9.04
773.48	10.73
773.657	10.13
773.835	10.19
774.013	11.19
774.19	12.47
774.368	13.77
774.545	13.73
774.723	15.05
774.9	14.01
775.077	15.48
775.255	12.84
775.432	12.64
775.61	15.89
775.787	13.81
775.964	13.66
776.142	13.12
776.319	9.67
776.496	11.51
776.674	8.94
776.851	13.84
777.028	13.98
777.205	16.63
777.382	17.29
777.56	15.34
777.737	16.76
777.914	15.72
778.091	16.13
778.268	17.27
778.445	15.94
778.622	18.03
778.8	17.04
778.977	18.08
779.154	16.87
779.331	15.65
779.508	17.64
779.685	17.6
779.862	16.72
780.038	15.75
780.215	18.38
780.392	17.31
780.569	17.7
780.746	16.67
780.923	14.03
781.1	13.55
781.277	13.73
781.453	11.54
781.63	10.87
781.807	14.56
781.984	17.54
782.16	15.37
782.337	16.61
782.514	15.14
782.691	16.2
782.867	18.85
783.044	18.74
783.221	18.76
783.397	19.25
783.574	20.83
783.75	19.37
783.927	16.47
784.103	17.08
784.28	17.75
784.456	17.07
784.633	16.81
784.809	17.63
784.986	17.07
785.162	16.92
785.339	15.97
785.515	15.64
785.692	15.79
785.868	17.3
786.044	15.84
786.221	16.4
786.397	16.32
786.573	14.48
786.749	11.79
786.926	15.25
787.102	13.81
787.278	16.09
787.454	14.83
787.631	14.42
787.807	15.16
787.983	15.46
788.159	14.8
788.335	15.21
788.511	14.86
788.687	13.81
788.863	10.06
789.039	10.75
789.216	8.75
789.392	8.83
789.568	9.06
789.744	8.29
789.919	9.04
790.095	6.41
790.271	3.67
790.447	6.82
790.623	9.49
790.799	11.85
790.975	11.37
791.151	10.9
791.327	12.53
791.502	14.82
791.678	14.26
791.854	14.11
792.03	14.21
792.205	16.18
792.381	14.06
792.557	12.24
792.733	12.91
792.908	15.38
793.084	15.96
793.259	13.75
793.435	11.12
793.611	9.93
793.786	8.88
793.962	9.03
794.137	9.48
794.313	10.85
794.488	13.73
794.664	10.65
794.839	10.07
795.015	12.3
795.19	14.86
795.366	13.7
795.541	13.46
795.716	14.14
795.892	16.79
796.067	16.73
796.242	17.49
796.418	15.83
796.593	17.3
796.768	17.99
796.944	16.56
797.119	19.22
797.294	19.83
797.469	20.8
797.644	21.21
797.82	21.25
797.995	22.26
798.17	21.16
798.345	21.61
798.52	23.23
798.695	21.29
798.87	23.63
799.045	18.45
799.22	17.33
799.395	17.89
799.57	18.18
799.745	17.67
799.92	13.6
800.095	12.46
800.27	14.95
800.445	14.7
800.62	17.63
800.795	15.75
800.97	18.32
801.145	20.12
801.319	17.24
801.494	18.64
801.669	19.76
801.844	25.82
802.018	29.12
802.193	28.65
802.368	25.72
802.543	19.16
802.717	16.83
802.892	19.8
803.067	20.01
803.241	24.83
803.416	20.21
803.59	16.31
803.765	16.84
803.94	12.05
804.114	7.75
804.289	10.81
804.463	15.54
804.638	15.85
804.812	11.55
804.986	11.61
805.161	11.04
805.335	10.77
805.51	11.99
805.684	11.85
805.858	12.72
806.033	13.75
806.207	13.01
806.381	11.27
806.556	13.2
806.73	12.79
806.904	11.06
807.078	10.03
807.253	14.73
807.427	15.8
807.601	6.03
807.775	8.8
807.949	6.35
808.123	8.04
808.298	12.74
808.472	11.28
808.646	9.52
808.82	10.96
808.994	13.52
809.168	10.15
809.342	7.76
809.516	16.95
809.69	13.94
809.864	14.14
810.038	9.77
810.212	6.58
810.385	11.7
810.559	13.21
810.733	12.53
810.907	10.7
811.081	10.79
811.255	12.71
811.428	13.22
811.602	12.37
811.776	16.56
811.95	15.36
812.123	15.55
812.297	12.12
812.471	14.95
812.644	12.58
812.818	14.46
812.992	12.97
813.165	11.84
813.339	8.43
813.512	8.66
813.686	6.13
813.86	11.69
814.033	14.29
814.207	16.25
814.38	16.28
814.554	18.8
814.727	12.81
814.9	15.46
815.074	18.64
815.247	20.84
815.421	23.04
815.594	24.55
815.767	29.38
815.941	26.92
816.114	28.37
816.287	27.61
816.46	28.09
816.634	32.96
816.807	30.57
816.98	25.72
817.153	21
817.327	21.14
817.5	20.29
817.673	16.31
817.846	21.32
818.019	16.3
818.192	16.71
818.365	17.45
818.538	16.39
818.711	20.24
818.884	22.76
819.057	23.2
819.23	24.63
819.403	23.9
819.576	20.78
819.749	14.71
819.922	16.22
820.095	13.76
820.268	14.99
820.441	10.81
820.614	11.98
820.786	13.29
820.959	15.37
821.132	14.81
821.305	15.89
821.477	17.47
821.65	18.7
821.823	19.16
821.996	18.24
822.168	17.92
822.341	19.02
822.514	18.39
822.686	18.1
822.859	17.73
823.031	18.08
823.204	17.13
823.376	17.16
823.549	16.66
823.722	17.13
823.894	17.85
824.067	18.44
824.239	17.9
824.411	18.7
824.584	18.97
824.756	18.96
824.929	18.53
825.101	19.83
825.273	19.87
825.446	19.82
825.618	17.24
825.79	18.06
825.963	15.43
826.135	16.03
826.307	15.21
826.479	14.51
826.652	14.98
826.824	14.15
826.996	13.33
827.168	13
827.34	12.87
827.512	13.74
827.684	13.09
827.856	15.05
828.029	14.31
828.201	14.05
828.373	15.74
828.545	15.71
828.717	16.09
828.889	14.69
829.061	15.87
829.232	17.97
829.404	19.88
829.576	18.92
829.748	17.5
829.92	19.33
830.092	19.1
830.264	16.96
830.436	16.86
830.607	17.42
830.779	21.14
830.951	20.84
831.123	16
831.294	14.93
831.466	17.23
831.638	17.45
831.809	13.59
831.981	13.18
832.153	12.8
832.324	14.03
832.496	14.73
832.667	15.27
832.839	12.05
833.011	13.28
833.182	15.31
833.354	14.65
833.525	15.63
833.697	21.05
833.868	22.55
834.039	22.32
834.211	17.52
834.382	16.57
834.554	16.03
834.725	17.66
834.896	19.89
835.068	17.31
835.239	16.38
835.41	15.97
835.581	13.93
835.753	13.15
835.924	14.79
836.095	19.08
836.266	17.88
836.438	18.59
836.609	18.62
836.78	14.72
836.951	13.63
837.122	14
837.293	13.58
837.464	12.22
837.635	6.74
837.806	4.32
837.977	0.96
838.148	2.91
838.319	-5.19
838.49	-10.57
838.661	-3.47
838.832	-0.78
839.003	1.64
839.174	5.84
839.345	5.51
839.516	10.5
839.687	11.11
839.857	15.77
840.028	19.4
840.199	27.22
840.37	28.41
840.54	26.6
840.711	28.74
840.882	27.31
841.053	28.88
841.223	28.52
841.394	33.91
841.564	32.41
841.735	29.56
841.906	25.42
842.076	22.46
842.247	30.13
842.417	28.82
842.588	26.9
842.758	24.24
842.929	21.87
843.099	22.28
843.27	19.69
843.44	23.86
843.611	24.73
843.781	27.66
843.951	30.26
844.122	27.07
844.292	23.52
844.462	22.63
844.633	21.91
844.803	17.77
844.973	21.65
845.144	18.36
845.314	18.72
845.484	22.93
845.654	23.33
845.824	31.53
845.995	26.9
846.165	31.95
846.335	31.34
846.505	33.4
846.675	36.83
846.845	27.04
847.015	22.79
847.185	29.15
847.355	20.97
847.525	20.08
847.695	13.59
847.865	8.03
848.035	13.68
848.205	16.41
848.375	14.21
848.545	6.95
848.715	29.07
848.884	22.92
849.054	10.22
849.224	10.66
849.394	8.23
849.564	-1.23
849.733	13.02
849.903	-2.23
850.073	-12.27
850.243	-12.33
850.412	-5.2
850.582	-33.94
850.752	-16.73
850.921	-6.96
851.091	11.12
851.26	11.86
851.43	18.46
851.599	14.76
851.769	26.68
851.939	26.51
852.108	34.77
852.278	32.98
852.447	26.31
852.616	29.66
852.786	29.6
852.955	18.06
853.125	23.17
853.294	24.69
853.463	32.82
853.633	29.77
853.802	25.26
853.971	18.38
854.141	9.1
854.31	11.25
854.479	15.62
854.648	12.52
854.818	19.86
854.987	23.29
855.156	11.01
855.325	12.55
855.494	7.32
855.663	17.95
855.832	27.79
856.001	22.99
856.171	31.91
856.34	24.04
856.509	33.09
856.678	32.55
856.847	20.94
857.016	30.8
857.185	24.69
857.353	27.25
857.522	19.69
857.691	14.05
857.86	31.45
858.029	40.18
858.198	40.99
858.367	42.55
858.535	50.38
858.704	54.01
858.873	60.5
859.042	68.36
859.21	79.89
859.379	84.5
859.548	86.33
859.717	88.93
859.885	80.85
860.054	89.06
860.222	100.56
860.391	86.96
860.56	89.24
860.728	88.19
860.897	83.28
861.065	76.06
861.234	62.47
861.402	62.25
861.571	57.59
861.739	56.36
861.908	51.24
862.076	40.48
862.244	52.19
862.413	50.1
862.581	43.3
862.749	35.35
862.918	21.84
863.086	18.9
863.254	23.83
863.423	33.03
863.591	30.5
863.759	44.95
863.927	46.05
864.096	33.46
864.264	36.2
864.432	33.25
864.6	37.61
864.768	33.73
864.936	42.47
865.104	48.65
865.272	55.13
865.44	53.06
865.608	41.1
865.776	38.3
865.944	40.89
866.112	40.65
866.28	41.14
866.448	39.31
866.616	48.68
866.784	47.15
866.952	41.35
867.12	37.9
867.288	42.79
867.455	42.38
867.623	46.79
867.791	46.93
867.959	40.75
868.127	39.87
868.294	39.8
868.462	30.11
868.63	30.97
868.797	25.41
868.965	22.35
869.133	12.19
869.3	10.48
869.468	5.85
869.636	-0.54
869.803	4.88
869.971	11.93
870.138	6.75
870.306	13.73
870.473	17.55
870.641	16.01
870.808	13.3
870.975	36.05
871.143	45.26
871.31	42.55
871.478	57.73
871.645	51
871.812	61.09
871.98	76.61
872.147	89.67
872.314	97.13
872.482	96.45
872.649	85.4
872.816	68.04
872.983	54.78
873.15	62.37
873.318	60.12
873.485	59.19
873.652	43.95
873.819	37.65
873.986	27.96
874.153	39.48
874.32	40.91
874.487	46.8
874.654	51.5
874.821	60.85
874.988	52.76
875.155	39.85
875.322	32.92
875.489	26.15
875.656	9.86
875.823	12.83
875.99	0.23
876.157	1.93
876.324	-6.21
876.49	-6.08
876.657	-1.62
876.824	7.76
876.991	17.32
877.157	26.25
877.324	36.15
877.491	45.94
877.658	51.61
877.824	47.12
877.991	50.62
878.157	62.65
878.324	66.15
878.491	64.21
878.657	68.48
878.824	65.66
878.99	68.57
879.157	59.66
879.323	57.43
879.49	56.24
879.656	55.68
879.823	55.09
879.989	48.92
880.156	54.56
880.322	44.35
880.488	43.09
880.655	41.85
880.821	35.73
880.987	25.37
881.154	20.24
881.32	15.23
881.486	20.95
881.652	21.59
881.819	27.37
881.985	26.19
882.151	27.6
882.317	26.08
882.483	26.87
882.649	27.16
882.816	28.3
882.982	30.9
883.148	28.68
883.314	26.91
883.48	24.61
883.646	24.1
883.812	22.49
883.978	22
884.144	21.1
884.31	22.32
884.476	22.84
884.642	22.48
884.807	20.61
884.973	19.63
885.139	18.18
885.305	19.64
885.471	17.96
885.637	16.76
885.802	15.09
885.968	15.64
886.134	11.54
886.3	5.7
886.465	8.45
886.631	7.09
886.797	10.76
886.962	14.66
887.128	17.22
887.293	14.93
887.459	10.45
887.625	7.78
887.79	5.17
887.956	7.71
888.121	11.22
888.287	6.07
888.452	4.14
888.618	1.07
888.783	-3.81
