Data from 2938089_Reflection_1.txt Node
Date: Sat Jul 11 19:23:13 EDT 2015
User: robert
Spectrometer: USB4E03001
Autoset integration time: false
Trigger mode: 4
Integration Time (sec): 1.000000E-1
Scans to average: 10
Electric dark correction enabled: true
Nonlinearity correction enabled: false
Boxcar width: 5
Stray light correction enabled: false
XAxis mode: Wavelengths
Stop averaging: false
Number of Pixels in Spectrum: 3648
>>>>>Begin Spectral Data<<<<<
177.566	56.43
177.785	46.23
178.005	70.06
178.225	52.5
178.445	36.51
178.665	1.64
178.885	31.35
179.105	35.12
179.324	61.91
179.544	53.69
179.764	49.39
179.984	55.16
180.204	37
180.423	68.94
180.643	49.15
180.863	60.52
181.083	72.96
181.302	147.44
181.522	417.52
181.742	88.39
181.961	99.1
182.181	162.16
182.401	116.9
182.621	118.9
182.84	101.92
183.06	127.95
183.279	124.85
183.499	118.4
183.719	124.71
183.938	113.18
184.158	106.08
184.377	98.88
184.597	92.42
184.816	110.06
185.036	93.51
185.256	98.4
185.475	88.33
185.695	90.75
185.914	78.13
186.134	62.62
186.353	62.38
186.572	59
186.792	70.27
187.011	63.4
187.231	58.47
187.45	62.56
187.67	57.32
187.889	45.96
188.108	9.68
188.328	17.5
188.547	40.95
188.766	20.82
188.986	63.26
189.205	54.7
189.424	60.71
189.644	74.01
189.863	90.84
190.082	88.86
190.302	82.77
190.521	113.76
190.74	125.52
190.959	74.63
191.178	52.96
191.398	30.99
191.617	33.82
191.836	43.57
192.055	40.88
192.274	44.74
192.494	39.67
192.713	49.17
192.932	45.99
193.151	49.45
193.37	98.17
193.589	96.4
193.808	121.41
194.027	169.31
194.246	9997.96
194.465	-693.59
194.685	-66.68
194.904	-295.02
195.123	-247.11
195.342	-60.43
195.561	250.92
195.78	161.14
195.999	252.52
196.218	79.47
196.436	67.86
196.655	40.52
196.874	31.33
197.093	13.45
197.312	-31.16
197.531	-20.05
197.75	36.27
197.969	11.5
198.188	-10.17
198.407	-363.32
198.625	78.42
198.844	53.97
199.063	85.84
199.282	113.52
199.501	235.49
199.719	141.79
199.938	102.15
200.157	86.75
200.376	80.52
200.594	76.81
200.813	59.35
201.032	42.91
201.251	30.11
201.469	25.04
201.688	19.75
201.907	30.05
202.125	24.46
202.344	27.3
202.563	21.44
202.781	21.07
203	22.58
203.218	26.33
203.437	39.6
203.656	69.72
203.874	78.17
204.093	83.85
204.311	71.16
204.53	79.85
204.748	101.13
204.967	118.69
205.185	86.94
205.404	83.84
205.622	67.97
205.841	64.8
206.059	75.38
206.278	61.5
206.496	55.91
206.715	37.54
206.933	46.54
207.151	43.89
207.37	50.3
207.588	44.32
207.806	38.83
208.025	54.49
208.243	58.45
208.461	52.86
208.68	58.78
208.898	61.26
209.116	82.12
209.335	49.69
209.553	58
209.771	39.83
209.989	62.79
210.208	46.64
210.426	34.54
210.644	-109.25
210.862	9.62
211.081	-17.61
211.299	-71.44
211.517	-90.13
211.735	-142.01
211.953	-242.63
212.171	-175.47
212.39	-238.21
212.608	-127.36
212.826	-157.18
213.044	-168.68
213.262	-114.99
213.48	-159.62
213.698	1836.4
213.916	-212.67
214.134	-47.24
214.352	-25.25
214.57	33.42
214.788	44.56
215.006	73.97
215.224	92.36
215.442	73.1
215.66	80.36
215.878	64.82
216.096	75.19
216.314	56.85
216.532	56.45
216.75	63.93
216.968	18.6
217.185	32.53
217.403	43.54
217.621	17.53
217.839	32.73
218.057	31.41
218.275	36.77
218.492	22.62
218.71	30.02
218.928	15.02
219.146	14.47
219.363	49.36
219.581	40.52
219.799	-7.05
220.017	2.25
220.234	-15.85
220.452	-30.34
220.67	1.26
220.887	10.8
221.105	26.87
221.323	21.16
221.54	-34.77
221.758	-29.88
221.976	-63.22
222.193	-329.35
222.411	-47.58
222.629	-59.86
222.846	-31.45
223.064	-25.29
223.281	4.93
223.499	-17.69
223.716	1.91
223.934	21.95
224.151	19.51
224.369	24.91
224.586	32.74
224.804	43.42
225.021	43.44
225.239	47.69
225.456	42.56
225.674	43.19
225.891	54.54
226.108	50.31
226.326	54.37
226.543	45.99
226.76	41.11
226.978	29.86
227.195	31.06
227.413	27.8
227.63	19.57
227.847	17.56
228.064	15.02
228.282	14.38
228.499	18.97
228.716	17.75
228.934	20.25
229.151	22.06
229.368	24.58
229.585	20.57
229.802	19.62
230.02	18.85
230.237	19.72
230.454	19.07
230.671	18.88
230.888	16.51
231.105	15.99
231.323	13.8
231.54	9.85
231.757	7.07
231.974	9.23
232.191	14.29
232.408	18.39
232.625	17.11
232.842	17.42
233.059	18.46
233.276	18.36
233.493	18.65
233.71	19.13
233.927	21.62
234.144	21.17
234.361	16.34
234.578	7.23
234.795	0.95
235.012	1.13
235.229	-1.99
235.446	4.08
235.663	4.77
235.879	2.05
236.096	0.63
236.313	-6.08
236.53	-7.95
236.747	-2.53
236.964	2.22
237.181	7.8
237.397	10.91
237.614	17.63
237.831	15.31
238.048	15.6
238.264	21.97
238.481	19.91
238.698	27.44
238.915	29.19
239.131	29.38
239.348	27.03
239.565	27.57
239.781	22.38
239.998	18.4
240.215	13.55
240.431	12.26
240.648	7.63
240.865	8.43
241.081	11.2
241.298	10.63
241.514	8.22
241.731	8.94
241.947	6.26
242.164	8.84
242.38	9.4
242.597	12.25
242.814	11.93
243.03	12.38
243.246	13.43
243.463	11.73
243.679	13.33
243.896	14.06
244.112	11.16
244.329	13.77
244.545	12.35
244.762	12.45
244.978	9.65
245.194	7.33
245.411	10.36
245.627	11.13
245.843	9.88
246.06	7.51
246.276	7.71
246.492	8.78
246.709	8.76
246.925	9.72
247.141	9.37
247.357	9.73
247.574	10.36
247.79	8.82
248.006	9.17
248.222	10.19
248.439	10.31
248.655	9.86
248.871	9.8
249.087	9.66
249.303	9.3
249.519	9.5
249.736	8.11
249.952	7.55
250.168	7.12
250.384	6.77
250.6	4.62
250.816	6.63
251.032	7.79
251.248	7.34
251.464	7.41
251.68	6.65
251.896	6.48
252.112	6
252.328	7.68
252.544	7.6
252.76	7.32
252.976	8.88
253.192	7.55
253.408	5.92
253.624	3.95
253.84	3.03
254.056	1.63
254.272	3.04
254.487	6.79
254.703	5.9
254.919	7.4
255.135	7.28
255.351	7.33
255.567	4.87
255.782	6.59
255.998	10.19
256.214	8.2
256.43	10.67
256.646	5.64
256.861	2.76
257.077	2.81
257.293	3.7
257.508	2.46
257.724	-0.09
257.94	-0.81
258.155	-0.91
258.371	2.03
258.587	3.52
258.802	4.37
259.018	6.93
259.234	7.4
259.449	7.32
259.665	7.59
259.88	7.76
260.096	7.27
260.312	8.72
260.527	9.77
260.743	9.72
260.958	9.69
261.174	9.68
261.389	9.5
261.605	9.36
261.82	9.83
262.036	10.21
262.251	10.98
262.466	12.07
262.682	11.36
262.897	10.42
263.113	11.07
263.328	12.33
263.543	12.18
263.759	10.77
263.974	12.18
264.189	11.18
264.405	8.56
264.62	9.03
264.835	9.55
265.051	8.83
265.266	9.15
265.481	6.3
265.696	7.4
265.912	7.76
266.127	7.04
266.342	8.33
266.557	9.78
266.773	10.98
266.988	10.77
267.203	9.55
267.418	10.99
267.633	11.29
267.848	13.37
268.064	10.65
268.279	10.81
268.494	10.59
268.709	8.21
268.924	6.65
269.139	7.26
269.354	7.39
269.569	9.51
269.784	8.55
269.999	7.78
270.214	8.24
270.429	9.86
270.644	9.51
270.859	10.77
271.074	11.36
271.289	11.55
271.504	11.3
271.719	11.42
271.934	11.81
272.149	11.95
272.363	12.72
272.578	10.88
272.793	10.47
273.008	10.31
273.223	10.71
273.438	10.89
273.653	11.05
273.867	9.98
274.082	8.87
274.297	7.46
274.512	8.56
274.726	7.51
274.941	7.5
275.156	7.69
275.371	8.06
275.585	6.56
275.8	5.84
276.015	5.08
276.229	6.31
276.444	6.89
276.659	8.54
276.873	9.12
277.088	9.63
277.302	8.65
277.517	8.66
277.732	9.73
277.946	10.47
278.161	11.17
278.375	13.25
278.59	14.78
278.804	14.4
279.019	13.04
279.233	12.5
279.448	11.52
279.662	13.04
279.877	14.23
280.091	12.06
280.306	11.95
280.52	11.48
280.735	9.67
280.949	7.69
281.163	6.69
281.378	6.84
281.592	5.08
281.806	4.56
282.021	4.34
282.235	3.69
282.449	3.92
282.664	3.02
282.878	2.89
283.092	4.6
283.307	4.47
283.521	5.13
283.735	5.46
283.949	6.53
284.164	9.46
284.378	9.98
284.592	9.13
284.806	9.06
285.02	10.01
285.234	10.83
285.449	10.03
285.663	11.19
285.877	11.68
286.091	11.99
286.305	11.74
286.519	10.86
286.733	10.47
286.947	11.46
287.161	12.62
287.375	14.16
287.589	13.62
287.803	14.76
288.017	13.82
288.231	12.97
288.445	12.09
288.659	11.7
288.873	10.67
289.087	10.34
289.301	10.05
289.515	10.18
289.729	8.96
289.943	8.48
290.157	8.87
290.371	8.79
290.584	9.99
290.798	9.71
291.012	9.92
291.226	10.56
291.44	10.73
291.654	10.32
291.867	8.92
292.081	9.71
292.295	9.89
292.509	8.99
292.722	9.91
292.936	10.66
293.15	10.13
293.364	10.46
293.577	9.77
293.791	9.76
294.005	9.28
294.218	9.78
294.432	7.62
294.645	10.05
294.859	9.5
295.073	9.35
295.286	7.54
295.5	6.9
295.713	7.52
295.927	8.62
296.14	8.89
296.354	9.9
296.568	11.3
296.781	10.75
296.994	9.44
297.208	10.22
297.421	9.84
297.635	10.54
297.848	11.85
298.062	11.42
298.275	11.47
298.489	11.99
298.702	11.35
298.915	10.26
299.129	11.32
299.342	11.36
299.555	10.36
299.769	10.09
299.982	11.38
300.195	11.8
300.409	11.39
300.622	10.28
300.835	9.31
301.048	9.51
301.262	9.47
301.475	8.46
301.688	7.82
301.901	7.14
302.115	6.56
302.328	5.08
302.541	5.48
302.754	6.12
302.967	8.12
303.18	8.97
303.393	8.98
303.607	9.56
303.82	11.77
304.033	13.85
304.246	13.65
304.459	14.6
304.672	14.9
304.885	14.64
305.098	14.25
305.311	12.92
305.524	12.52
305.737	14.07
305.95	13.16
306.163	11.42
306.376	11.22
306.589	11.62
306.802	11.26
307.015	11.23
307.228	12.01
307.44	11.79
307.653	12.46
307.866	13.64
308.079	11.61
308.292	11.81
308.505	12.23
308.718	11.53
308.93	13.3
309.143	13.23
309.356	12.77
309.569	11.64
309.781	12.97
309.994	13.23
310.207	12.37
310.42	12.46
310.632	14.29
310.845	15.3
311.058	15.38
311.27	15.08
311.483	14.64
311.696	13.48
311.908	14.24
312.121	13.6
312.333	12.84
312.546	13.74
312.759	14.99
312.971	13.46
313.184	13
313.396	12.41
313.609	12.39
313.821	14.18
314.034	14.48
314.246	13.44
314.459	14.85
314.671	14.36
314.884	12.77
315.096	12.27
315.309	12.39
315.521	12.24
315.733	12.88
315.946	13.82
316.158	13.11
316.371	14.43
316.583	15.55
316.795	14.33
317.008	14.42
317.22	16.42
317.432	16.35
317.644	17.1
317.857	15.61
318.069	15.21
318.281	13.3
318.494	12.85
318.706	12.62
318.918	11.59
319.13	10.35
319.342	11.39
319.555	8.46
319.767	9.4
319.979	8.82
320.191	11.3
320.403	10.62
320.615	7.48
320.827	6.14
321.039	6.53
321.252	6.42
321.464	7.15
321.676	5.59
321.888	6.38
322.1	5.33
322.312	5.55
322.524	5.36
322.736	7.71
322.948	9.78
323.16	10.77
323.372	10.27
323.584	9.69
323.796	9.66
324.007	10.21
324.219	10.5
324.431	10
324.643	10.22
324.855	7.24
325.067	5.65
325.279	6.88
325.491	6.65
325.702	7.1
325.914	8.3
326.126	7.58
326.338	6.59
326.55	7.57
326.761	8.11
326.973	6.45
327.185	7.9
327.396	7.87
327.608	7.44
327.82	8.49
328.032	7.43
328.243	5.67
328.455	6.14
328.666	6.6
328.878	4.61
329.09	3.75
329.301	3.73
329.513	4.6
329.725	5
329.936	4.11
330.148	3.63
330.359	4.89
330.571	5.04
330.782	4.47
330.994	5.15
331.205	5.04
331.417	5.82
331.628	6.38
331.84	5.62
332.051	5.12
332.262	5.2
332.474	4.68
332.685	4.95
332.897	6.1
333.108	8.97
333.319	9.59
333.531	11.61
333.742	11.72
333.953	10.29
334.165	12.08
334.376	12.66
334.587	13.17
334.799	13.86
335.01	13.39
335.221	12.21
335.432	9.42
335.644	8.2
335.855	6.77
336.066	6.32
336.277	7.47
336.488	6.43
336.7	6.26
336.911	7.96
337.122	8.41
337.333	8.83
337.544	10.33
337.755	11.39
337.966	11.47
338.177	12.07
338.388	11.55
338.599	11.55
338.811	10.22
339.022	10.11
339.233	6.43
339.444	4.29
339.655	4.01
339.866	3.76
340.076	2.9
340.287	3.58
340.498	2.18
340.709	3.32
340.92	3.54
341.131	4.35
341.342	4.26
341.553	6.48
341.764	7.32
341.975	7.72
342.185	7.22
342.396	7.9
342.607	8.06
342.818	9.42
343.029	9.57
343.239	9.63
343.45	10.84
343.661	11.96
343.872	10.56
344.082	10.27
344.293	8.73
344.504	8.99
344.714	9.34
344.925	9.67
345.136	8.82
345.346	7.53
345.557	7.97
345.768	6.38
345.978	6.2
346.189	6.85
346.399	8.33
346.61	9.42
346.821	9.4
347.031	9.29
347.242	8.53
347.452	9.26
347.663	10.09
347.873	8.8
348.084	8.93
348.294	7.42
348.504	7.04
348.715	6.4
348.925	6.05
349.136	4.91
349.346	5.26
349.557	5.01
349.767	4.82
349.977	5.21
350.188	5.09
350.398	7.49
350.608	7.43
350.819	6.96
351.029	7.11
351.239	7.85
351.449	8.56
351.66	8.4
351.87	8.05
352.08	8.31
352.29	6.81
352.501	7.39
352.711	6.5
352.921	6.46
353.131	6.79
353.341	5.56
353.552	4.79
353.762	4.3
353.972	4.13
354.182	4.5
354.392	3.53
354.602	4.26
354.812	5.77
355.022	5.49
355.232	6.82
355.442	7.48
355.652	7.9
355.862	9.03
356.072	9.58
356.282	10.15
356.492	10.19
356.702	10.41
356.912	10.51
357.122	9.3
357.332	8.64
357.542	7.66
357.752	7.96
357.962	6.92
358.171	5.75
358.381	6.05
358.591	5.87
358.801	6.19
359.011	5.74
359.221	6.12
359.43	5.73
359.64	7.42
359.85	9.09
360.06	8.88
360.269	9.79
360.479	10.15
360.689	9.26
360.899	9.13
361.108	9.33
361.318	10.02
361.528	9.06
361.737	9.35
361.947	8.62
362.156	7.47
362.366	6.86
362.576	6.45
362.785	6.89
362.995	7.55
363.204	6.85
363.414	5.9
363.623	5.37
363.833	5.98
364.042	6.34
364.252	5.76
364.461	5.34
364.671	6.23
364.88	6.9
365.09	5.57
365.299	5.38
365.509	4.9
365.718	6.01
365.927	6.41
366.137	7.02
366.346	7.35
366.555	7.07
366.765	7.26
366.974	6.38
367.183	6.06
367.393	6.22
367.602	5.52
367.811	6.15
368.021	4.55
368.23	4.26
368.439	4
368.648	3.48
368.857	5.24
369.067	5.67
369.276	5.8
369.485	5.49
369.694	6.04
369.903	6.95
370.112	6.74
370.321	7.55
370.531	8.02
370.74	7.14
370.949	7.64
371.158	6.14
371.367	6.24
371.576	6.7
371.785	7.29
371.994	6.99
372.203	6.41
372.412	6.88
372.621	6.14
372.83	5.01
373.039	5.61
373.248	5.36
373.457	5.38
373.666	4.63
373.874	4.39
374.083	3.72
374.292	4.73
374.501	4.96
374.71	3.95
374.919	5.33
375.128	5.85
375.336	5.5
375.545	5.52
375.754	6.1
375.963	6.53
376.171	5.99
376.38	5.87
376.589	4.54
376.798	4.65
377.006	4.71
377.215	3.98
377.424	3.86
377.632	4.01
377.841	3.64
378.05	3.55
378.258	3.76
378.467	3.92
378.675	3.61
378.884	3.92
379.093	4.44
379.301	5.19
379.51	5.29
379.718	5.06
379.927	4.67
380.135	4.86
380.344	3.92
380.552	2.55
380.761	2.61
380.969	3.61
381.177	4.06
381.386	3.17
381.594	3.17
381.803	3.4
382.011	3.58
382.219	3.99
382.428	3.34
382.636	4
382.845	4.79
383.053	4.83
383.261	3.56
383.469	3.29
383.678	3.28
383.886	3.41
384.094	3.4
384.302	3.56
384.511	3.67
384.719	3.42
384.927	2.96
385.135	3.02
385.343	3.08
385.552	4.49
385.76	4.27
385.968	4.09
386.176	3.55
386.384	3.65
386.592	3.6
386.8	3.63
387.008	4.07
387.216	4.39
387.424	4.54
387.633	4.42
387.841	3.59
388.049	4.1
388.257	4.5
388.465	4.41
388.672	4.16
388.88	4.16
389.088	4.24
389.296	4.06
389.504	3.96
389.712	4.07
389.92	4.18
390.128	4.51
390.336	4.49
390.544	4.72
390.751	4.69
390.959	4.6
391.167	4.05
391.375	3.66
391.583	4.06
391.79	4.42
391.998	4.27
392.206	4.27
392.414	4.16
392.621	3.81
392.829	3.51
393.037	3.5
393.244	3.27
393.452	3.95
393.66	4.05
393.867	4.02
394.075	3.5
394.283	2.88
394.49	2.93
394.698	2.97
394.905	2.89
395.113	2.77
395.32	2.54
395.528	2.75
395.735	2.6
395.943	2.51
396.15	2.23
396.358	2.53
396.565	2.76
396.773	2.51
396.98	2.26
397.188	2.04
397.395	1.97
397.602	2.51
397.81	2.39
398.017	2.43
398.225	2.34
398.432	1.98
398.639	1.98
398.847	2.36
399.054	2.35
399.261	2.66
399.468	2.92
399.676	2.77
399.883	2.49
400.09	2.71
400.297	2.45
400.505	2.81
400.712	3.17
400.919	2.63
401.126	2.94
401.333	3.05
401.54	2.9
401.748	2.95
401.955	3.36
402.162	3.19
402.369	3.04
402.576	3.11
402.783	3.1
402.99	2.85
403.197	3.09
403.404	2.84
403.611	2.7
403.818	2.63
404.025	2.75
404.232	2.81
404.439	2.84
404.646	2.78
404.853	2.84
405.06	2.79
405.267	3.12
405.474	3.16
405.681	3.01
405.887	3.09
406.094	3.14
406.301	3.3
406.508	3.23
406.715	2.93
406.922	2.89
407.128	2.84
407.335	2.79
407.542	2.78
407.749	2.88
407.955	2.75
408.162	2.6
408.369	2.52
408.575	2.22
408.782	1.97
408.989	2.38
409.195	2.3
409.402	2.11
409.609	1.98
409.815	2
410.022	1.91
410.228	2.29
410.435	2.51
410.642	2.71
410.848	2.8
411.055	2.69
411.261	2.87
411.468	3.03
411.674	3.35
411.881	3.43
412.087	3.34
412.294	3.24
412.5	2.83
412.706	2.8
412.913	2.91
413.119	2.53
413.326	2.85
413.532	2.66
413.738	2.3
413.945	2.08
414.151	1.98
414.357	2.12
414.564	2.26
414.77	2.47
414.976	2.6
415.182	2.05
415.389	1.91
415.595	1.7
415.801	1.45
416.007	1.72
416.214	1.77
416.42	1.73
416.626	1.45
416.832	1.42
417.038	1.17
417.244	1.09
417.45	1.41
417.657	1.73
417.863	1.95
418.069	2.41
418.275	2.43
418.481	2.48
418.687	2.39
418.893	2.45
419.099	2.45
419.305	2.59
419.511	2.48
419.717	2.29
419.923	2.21
420.129	1.9
420.335	1.73
420.541	1.7
420.746	1.67
420.952	1.72
421.158	1.77
421.364	1.71
421.57	1.7
421.776	1.72
421.982	1.76
422.187	1.86
422.393	2.1
422.599	2.06
422.805	2
423.01	2.02
423.216	2.04
423.422	1.94
423.628	2.03
423.833	2.1
424.039	2.16
424.245	2.2
424.45	2.12
424.656	2.03
424.862	2.04
425.067	2.17
425.273	2.2
425.478	2.25
425.684	2.23
425.889	2.28
426.095	2.27
426.301	2.3
426.506	2.29
426.712	2.34
426.917	2.42
427.123	2.43
427.328	2.55
427.533	2.43
427.739	2.3
427.944	2.33
428.15	2.19
428.355	1.93
428.561	1.96
428.766	1.83
428.971	1.7
429.177	1.85
429.382	1.82
429.587	1.51
429.793	1.5
429.998	1.55
430.203	1.67
430.408	1.68
430.614	1.87
430.819	1.76
431.024	1.66
431.229	1.73
431.434	1.71
431.64	1.77
431.845	1.88
432.05	1.94
432.255	1.88
432.46	1.89
432.665	1.9
432.87	1.83
433.076	1.96
433.281	1.9
433.486	1.89
433.691	1.61
433.896	1.67
434.101	1.76
434.306	1.65
434.511	1.84
434.716	1.82
434.921	1.89
435.126	2.07
435.331	1.77
435.535	1.87
435.74	1.98
435.945	2.03
436.15	1.79
436.355	1.72
436.56	1.57
436.765	1.23
436.97	1.38
437.174	1.24
437.379	1.06
437.584	1.17
437.789	1.2
437.993	1.03
438.198	1.07
438.403	1.22
438.608	1.08
438.812	1.23
439.017	1.27
439.222	1.26
439.426	1.21
439.631	1.24
439.836	1.28
440.04	1.49
440.245	1.59
440.45	1.79
440.654	1.81
440.859	1.77
441.063	1.81
441.268	1.89
441.472	1.67
441.677	1.81
441.881	1.89
442.086	1.83
442.29	1.78
442.495	1.84
442.699	1.76
442.904	1.62
443.108	1.75
443.312	1.6
443.517	1.66
443.721	1.64
443.925	1.54
444.13	1.39
444.334	1.59
444.538	1.4
444.743	1.41
444.947	1.34
445.151	1.45
445.356	1.45
445.56	1.56
445.764	1.61
445.968	1.65
446.173	1.71
446.377	1.7
446.581	1.67
446.785	1.63
446.989	1.55
447.193	1.59
447.398	1.71
447.602	1.75
447.806	1.68
448.01	1.63
448.214	1.68
448.418	1.55
448.622	1.52
448.826	1.44
449.03	1.57
449.234	1.51
449.438	1.42
449.642	1.27
449.846	1.2
450.05	1.29
450.254	1.37
450.458	1.33
450.662	1.43
450.866	1.38
451.069	1.32
451.273	1.17
451.477	1.51
451.681	1.66
451.885	1.65
452.089	1.63
452.292	1.78
452.496	1.73
452.7	1.79
452.904	1.73
453.107	1.99
453.311	2.02
453.515	1.91
453.719	1.6
453.922	1.51
454.126	1.56
454.33	1.49
454.533	1.32
454.737	1.19
454.94	1.23
455.144	1.31
455.348	1.14
455.551	1.17
455.755	1.24
455.958	1.29
456.162	1.46
456.365	1.4
456.569	1.52
456.772	1.58
456.976	1.55
457.179	1.55
457.383	1.53
457.586	1.71
457.79	1.66
457.993	1.91
458.196	1.92
458.4	1.87
458.603	1.83
458.807	1.69
459.01	1.74
459.213	1.72
459.417	1.64
459.62	1.55
459.823	1.43
460.026	1.42
460.23	1.45
460.433	1.46
460.636	1.4
460.839	1.47
461.042	1.57
461.246	1.42
461.449	1.51
461.652	1.51
461.855	1.77
462.058	1.89
462.261	1.94
462.464	1.98
462.668	2
462.871	2.05
463.074	2.04
463.277	1.8
463.48	1.92
463.683	1.85
463.886	1.98
464.089	1.86
464.292	1.7
464.495	1.65
464.698	1.47
464.901	1.3
465.104	1.45
465.306	1.39
465.509	1.57
465.712	1.58
465.915	1.72
466.118	1.53
466.321	1.46
466.524	1.62
466.726	1.6
466.929	1.5
467.132	1.57
467.335	1.47
467.538	1.31
467.74	1.33
467.943	1.42
468.146	1.3
468.348	1.51
468.551	1.39
468.754	1.23
468.956	1.26
469.159	1.62
469.362	1.64
469.564	1.2
469.767	1.41
469.969	1.6
470.172	1.53
470.375	1.54
470.577	1.24
470.78	1.53
470.982	1.74
471.185	1.69
471.387	1.19
471.59	1.05
471.792	1.37
471.995	1.37
472.197	1.33
472.399	1.12
472.602	1.15
472.804	1.44
473.007	1.09
473.209	0.83
473.411	0.83
473.614	1.16
473.816	1.19
474.018	1.26
474.22	1.27
474.423	1.18
474.625	1.36
474.827	1.4
475.03	1.26
475.232	1.41
475.434	1.33
475.636	1.55
475.838	1.48
476.04	1.58
476.243	1.5
476.445	1.71
476.647	1.53
476.849	1.65
477.051	1.44
477.253	1.57
477.455	1.52
477.657	1.74
477.859	1.65
478.061	1.5
478.263	1.43
478.465	1.43
478.667	1.33
478.869	1.6
479.071	1.41
479.273	1.43
479.475	1.31
479.677	1.38
479.879	1.4
480.081	1.54
480.283	1.67
480.485	1.64
480.686	1.55
480.888	1.5
481.09	1.32
481.292	1.42
481.494	1.47
481.695	1.53
481.897	1.42
482.099	1.34
482.301	1.19
482.502	1.21
482.704	1.23
482.906	1.3
483.107	1.27
483.309	1.27
483.511	1.23
483.712	1.28
483.914	1.27
484.115	1.3
484.317	1.34
484.519	1.31
484.72	1.3
484.922	1.31
485.123	1.27
485.325	1.24
485.526	1.28
485.728	1.32
485.929	1.24
486.131	1.22
486.332	1.26
486.534	1.21
486.735	1.26
486.936	1.21
487.138	1.26
487.339	1.24
487.541	1.29
487.742	1.2
487.943	1.19
488.144	1.3
488.346	1.29
488.547	1.24
488.748	1.3
488.95	1.3
489.151	1.34
489.352	1.26
489.553	1.32
489.755	1.33
489.956	1.23
490.157	1.26
490.358	1.22
490.559	1.25
490.76	1.29
490.961	1.29
491.163	1.31
491.364	1.42
491.565	1.41
491.766	1.36
491.967	1.29
492.168	1.43
492.369	1.37
492.57	1.42
492.771	1.41
492.972	1.4
493.173	1.36
493.374	1.41
493.575	1.32
493.776	1.48
493.976	1.48
494.177	1.68
494.378	1.75
494.579	1.82
494.78	1.6
494.981	1.66
495.182	1.64
495.382	1.66
495.583	1.52
495.784	1.46
495.985	1.3
496.185	1.5
496.386	1.3
496.587	1.19
496.788	1.21
496.988	1.36
497.189	1.39
497.39	1.56
497.59	1.52
497.791	1.63
497.992	1.65
498.192	1.72
498.393	1.71
498.593	1.8
498.794	1.87
498.994	1.91
499.195	1.69
499.395	1.71
499.596	1.61
499.796	1.43
499.997	1.35
500.197	1.37
500.398	1.54
500.598	1.41
500.799	1.46
500.999	1.55
501.199	1.5
501.4	1.65
501.6	1.58
501.801	1.56
502.001	1.81
502.201	1.73
502.402	1.86
502.602	1.71
502.802	1.64
503.002	1.63
503.203	1.44
503.403	1.44
503.603	1.42
503.803	1.57
504.003	1.44
504.204	1.39
504.404	1.59
504.604	1.39
504.804	1.31
505.004	1.47
505.204	1.5
505.404	1.69
505.604	1.59
505.804	1.71
506.005	1.59
506.205	1.57
506.405	1.67
506.605	1.61
506.805	1.74
507.005	1.75
507.204	1.66
507.404	1.57
507.604	1.47
507.804	1.56
508.004	1.5
508.204	1.51
508.404	1.63
508.604	1.64
508.804	1.54
509.003	1.49
509.203	1.56
509.403	1.75
509.603	1.86
509.803	1.83
510.002	1.81
510.202	1.89
510.402	1.98
510.602	2.09
510.801	2.09
511.001	2.25
511.201	2.22
511.4	2.2
511.6	2.07
511.8	1.89
511.999	2.06
512.199	2.05
512.398	1.99
512.598	1.83
512.797	1.87
512.997	1.86
513.197	1.81
513.396	1.83
513.596	1.82
513.795	1.69
513.994	1.85
514.194	1.65
514.393	1.53
514.593	1.56
514.792	1.59
514.992	1.42
515.191	1.33
515.39	1.3
515.59	1.37
515.789	1.36
515.988	1.47
516.188	1.44
516.387	1.59
516.586	1.76
516.786	1.79
516.985	1.83
517.184	1.75
517.383	1.85
517.582	1.82
517.782	1.93
517.981	1.93
518.18	1.97
518.379	1.97
518.578	1.94
518.777	1.99
518.976	1.89
519.176	1.91
519.375	2.02
519.574	1.93
519.773	2.05
519.972	1.98
520.171	1.94
520.37	1.96
520.569	1.94
520.768	1.99
520.967	1.88
521.166	1.95
521.365	1.95
521.564	1.77
521.762	1.86
521.961	1.75
522.16	1.72
522.359	1.82
522.558	1.69
522.757	1.71
522.956	1.68
523.154	1.85
523.353	1.97
523.552	1.84
523.751	1.97
523.949	1.95
524.148	1.95
524.347	2.01
524.546	1.98
524.744	2.07
524.943	2.15
525.142	2.09
525.34	2.1
525.539	2.04
525.737	2.12
525.936	2.04
526.135	2.11
526.333	2.18
526.532	2.15
526.73	2.13
526.929	2.13
527.127	2.12
527.326	2.12
527.524	2.04
527.723	2.09
527.921	2.07
528.12	2.11
528.318	2.09
528.516	2.09
528.715	2.03
528.913	2.07
529.112	1.96
529.31	1.94
529.508	1.96
529.707	2.01
529.905	1.99
530.103	2.03
530.301	2.02
530.5	2.01
530.698	1.98
530.896	2.04
531.094	2.05
531.293	2.2
531.491	2.16
531.689	2.11
531.887	2.08
532.085	2.06
532.283	2.06
532.481	2.16
532.68	2.16
532.878	2.13
533.076	2.25
533.274	2.24
533.472	2.34
533.67	2.41
533.868	2.49
534.066	2.47
534.264	2.53
534.462	2.55
534.66	2.54
534.858	2.57
535.056	2.58
535.253	2.45
535.451	2.41
535.649	2.34
535.847	2.3
536.045	2.41
536.243	2.39
536.441	2.35
536.638	2.44
536.836	2.47
537.034	2.45
537.232	2.46
537.43	2.56
537.627	2.66
537.825	2.66
538.023	2.76
538.22	2.7
538.418	2.68
538.616	2.73
538.813	2.6
539.011	2.62
539.209	2.71
539.406	2.73
539.604	2.68
539.801	2.68
539.999	2.77
540.196	2.69
540.394	2.65
540.591	2.74
540.789	2.8
540.986	2.88
541.184	2.85
541.381	2.81
541.579	2.87
541.776	2.92
541.974	2.95
542.171	2.95
542.368	2.94
542.566	2.97
542.763	3.01
542.96	3.04
543.158	3.01
543.355	3.11
543.552	3.2
543.75	3.22
543.947	3.16
544.144	3.1
544.341	3.08
544.539	3.14
544.736	3.26
544.933	3.36
545.13	3.26
545.327	3.18
545.524	3.16
545.722	3.23
545.919	3.22
546.116	3.35
546.313	3.39
546.51	3.44
546.707	3.45
546.904	3.35
547.101	3.33
547.298	3.35
547.495	3.44
547.692	3.51
547.889	3.46
548.086	3.48
548.283	3.49
548.48	3.58
548.677	3.62
548.874	3.76
549.07	3.91
549.267	3.83
549.464	3.87
549.661	4.02
549.858	3.93
550.055	3.9
550.251	3.82
550.448	3.91
550.645	3.9
550.842	4.05
551.038	3.99
551.235	4.19
551.432	4.19
551.628	4.21
551.825	4.15
552.022	4.15
552.218	4.15
552.415	4.33
552.612	4.43
552.808	4.3
553.005	4.37
553.201	4.64
553.398	4.56
553.594	4.7
553.791	4.72
553.987	4.88
554.184	4.95
554.38	5.27
554.577	5.41
554.773	5.33
554.97	5.36
555.166	5.29
555.362	5.06
555.559	4.85
555.755	5
555.952	5.01
556.148	5.08
556.344	5.09
556.541	4.86
556.737	4.8
556.933	4.87
557.129	5.26
557.326	5.34
557.522	5.59
557.718	5.77
557.914	5.55
558.11	5.7
558.307	5.53
558.503	5.77
558.699	5.77
558.895	5.86
559.091	5.9
559.287	5.85
559.483	5.72
559.679	5.63
559.876	5.57
560.072	5.61
560.268	5.73
560.464	5.78
560.66	5.58
560.856	5.64
561.052	5.61
561.247	5.5
561.443	5.41
561.639	5.56
561.835	5.57
562.031	5.84
562.227	5.84
562.423	5.89
562.619	6.05
562.815	6.19
563.01	6.32
563.206	6.17
563.402	6.2
563.598	6.37
563.793	6.22
563.989	6.36
564.185	6.15
564.381	6.26
564.576	6.08
564.772	6.13
564.968	6.13
565.163	6.32
565.359	6.61
565.555	6.69
565.75	6.74
565.946	6.96
566.141	7.01
566.337	7.02
566.532	7.1
566.728	7.28
566.923	7.32
567.119	7.52
567.314	7.3
567.51	7.15
567.705	7.25
567.901	7.12
568.096	7.04
568.292	7.12
568.487	7.12
568.682	7.17
568.878	7.03
569.073	7
569.268	6.91
569.464	6.96
569.659	7.09
569.854	7.1
570.05	7.22
570.245	7.28
570.44	7.06
570.635	7.25
570.831	7.18
571.026	7.27
571.221	7.32
571.416	7.31
571.611	7.35
571.806	7.29
572.002	7.18
572.197	7.35
572.392	7.5
572.587	7.65
572.782	7.72
572.977	7.78
573.172	8.02
573.367	8.12
573.562	8.15
573.757	8.28
573.952	8.24
574.147	8.46
574.342	8.38
574.537	8.2
574.732	8.15
574.927	8.18
575.121	8.14
575.316	8.11
575.511	7.85
575.706	7.88
575.901	7.8
576.096	7.99
576.29	7.93
576.485	7.77
576.68	7.94
576.875	7.9
577.069	7.88
577.264	8.02
577.459	7.94
577.654	8.36
577.848	8.41
578.043	8.53
578.238	8.62
578.432	8.63
578.627	8.83
578.821	8.85
579.016	9.04
579.21	8.95
579.405	8.99
579.6	8.95
579.794	8.61
579.989	8.54
580.183	8.3
580.378	8.29
580.572	8.29
580.766	8.08
580.961	7.93
581.155	8.03
581.35	8
581.544	7.9
581.738	7.87
581.933	8.04
582.127	8.05
582.321	8.1
582.516	8.05
582.71	8.2
582.904	8.5
583.099	8.81
583.293	8.77
583.487	9.07
583.681	9.16
583.875	9.4
584.07	9.46
584.264	9.67
584.458	9.89
584.652	9.8
584.846	9.45
585.04	9.58
585.234	9.47
585.428	9.26
585.623	9.12
585.817	9.13
586.011	8.93
586.205	8.8
586.399	8.67
586.593	8.62
586.787	8.5
586.981	8.99
587.174	8.78
587.368	8.58
587.562	8.68
587.756	8.7
587.95	8.66
588.144	8.87
588.338	8.97
588.532	8.93
588.725	9.05
588.919	9.22
589.113	9
589.307	9.11
589.501	9.24
589.694	9.24
589.888	9.15
590.082	9.23
590.275	9.25
590.469	9.39
590.663	9.43
590.856	9.31
591.05	9.28
591.244	9.1
591.437	9.2
591.631	9.28
591.824	9.17
592.018	9.31
592.212	9.11
592.405	8.92
592.599	8.62
592.792	8.54
592.986	8.75
593.179	8.98
593.372	9.16
593.566	9.35
593.759	9.12
593.953	9.38
594.146	9.16
594.339	9.47
594.533	9.51
594.726	9.62
594.92	9.91
595.113	9.71
595.306	9.43
595.499	9.75
595.693	9.45
595.886	9.52
596.079	9.52
596.272	9.79
596.466	9.79
596.659	9.76
596.852	9.91
597.045	9.82
597.238	9.85
597.431	10.18
597.624	9.87
597.818	9.85
598.011	10.1
598.204	10.05
598.397	10.1
598.59	10.02
598.783	10.19
598.976	10.2
599.169	10.07
599.362	10.47
599.555	10.2
599.748	10.36
599.941	10.46
600.134	10.38
600.326	10.39
600.519	10.3
600.712	10.32
600.905	10.15
601.098	10.19
601.291	10.31
601.483	9.99
601.676	10.13
601.869	10.1
602.062	10.05
602.255	10.03
602.447	10.21
602.64	10.06
602.833	9.93
603.025	10.12
603.218	10.17
603.411	10.13
603.603	10.18
603.796	10.13
603.989	10.02
604.181	10.2
604.374	10.27
604.566	10.34
604.759	10.61
604.951	10.8
605.144	10.76
605.336	10.62
605.529	10.6
605.721	10.46
605.914	10.43
606.106	10.7
606.299	10.51
606.491	10.49
606.683	10.12
606.876	9.76
607.068	9.63
607.26	9.37
607.453	9.23
607.645	9.3
607.837	9.56
608.03	9.71
608.222	9.37
608.414	9.42
608.606	9.1
608.799	9.24
608.991	9.33
609.183	9.43
609.375	9.56
609.567	9.47
609.759	9.45
609.952	9.41
610.144	9.38
610.336	9.66
610.528	9.44
610.72	9.72
610.912	9.66
611.104	9.66
611.296	9.36
611.488	9.49
611.68	9.76
611.872	9.81
612.064	9.62
612.256	9.61
612.448	9.6
612.64	9.84
612.832	9.62
613.023	9.76
613.215	9.84
613.407	10.1
613.599	9.92
613.791	9.79
613.983	9.79
614.174	9.72
614.366	9.61
614.558	9.38
614.75	9.29
614.941	9.6
615.133	9.59
615.325	9.41
615.516	9.83
615.708	9.78
615.9	9.78
616.091	9.59
616.283	9.84
616.475	10.04
616.666	10.28
616.858	10.75
617.049	10.42
617.241	10.33
617.432	10.75
617.624	10.5
617.815	10.88
618.007	11.13
618.198	11.22
618.39	11.06
618.581	10.8
618.773	10.7
618.964	10.45
619.155	11.17
619.347	11.06
619.538	10.88
619.729	10.67
619.921	10.4
620.112	10.3
620.303	10.34
620.494	10.18
620.686	10.38
620.877	10.38
621.068	10.36
621.259	9.89
621.451	10.16
621.642	10.09
621.833	10.11
622.024	9.95
622.215	9.91
622.406	9.98
622.597	10.48
622.788	10.87
622.98	10.96
623.171	10.8
623.362	10.89
623.553	10.9
623.744	10.59
623.935	10.58
624.126	11.08
624.317	10.88
624.508	10.91
624.698	10.62
624.889	10.43
625.08	10.34
625.271	10.27
625.462	9.97
625.653	9.6
625.844	10.03
626.034	10.3
626.225	9.87
626.416	10.12
626.607	10.06
626.798	10.25
626.988	10.05
627.179	9.93
627.37	10.19
627.56	10.16
627.751	10.34
627.942	10.36
628.132	10.14
628.323	10.34
628.514	10.15
628.704	10.19
628.895	10.05
629.085	9.97
629.276	9.89
629.466	9.76
629.657	10.27
629.847	10.43
630.038	10.42
630.228	10.48
630.419	10.18
630.609	10.31
630.8	10.08
630.99	10.21
631.181	10.48
631.371	10.76
631.561	10.92
631.752	10.43
631.942	10.42
632.132	10.31
632.323	10.43
632.513	10.59
632.703	10.38
632.893	10.35
633.084	10.35
633.274	10.43
633.464	10.31
633.654	10.32
633.844	10.47
634.034	10.41
634.225	10.47
634.415	10.29
634.605	10.39
634.795	10.51
634.985	11.15
635.175	11.28
635.365	11.29
635.555	11.21
635.745	11.27
635.935	11.1
636.125	10.94
636.315	10.43
636.505	10.84
636.695	10.83
636.885	10.89
637.075	10.63
637.265	10.56
637.455	10.85
637.644	10.93
637.834	10.76
638.024	10.53
638.214	10.67
638.404	11.12
638.593	11.17
638.783	11.03
638.973	11
639.163	10.99
639.352	10.86
639.542	9.98
639.732	10.15
639.921	10.07
640.111	10.4
640.301	10.22
640.49	10.37
640.68	9.76
640.87	10.24
641.059	10.45
641.249	10.35
641.438	10.32
641.628	10.77
641.817	10.36
642.007	10.4
642.196	10.47
642.386	10.92
642.575	10.84
642.764	11.16
642.954	10.81
643.143	10.49
643.333	10.34
643.522	10.53
643.711	10.37
643.901	10.58
644.09	10.87
644.279	10.9
644.469	11.12
644.658	10.8
644.847	11.13
645.036	11.08
645.226	11.71
645.415	11.4
645.604	10.91
645.793	11
645.982	11.48
646.171	11.15
646.361	11.03
646.55	10.51
646.739	10.69
646.928	10.25
647.117	10.57
647.306	10.54
647.495	11.3
647.684	11.57
647.873	11.59
648.062	11.04
648.251	11.4
648.44	11.61
648.629	12.07
648.818	12.04
649.007	11.69
649.196	11.61
649.384	11.03
649.573	10.99
649.762	11.05
649.951	11.33
650.14	11.43
650.328	11.05
650.517	10.8
650.706	10.36
650.895	10.77
651.083	11.33
651.272	11.04
651.461	11.28
651.65	11.05
651.838	11.33
652.027	11.06
652.216	11.61
652.404	11.98
652.593	12.17
652.781	12.6
652.97	12.13
653.158	11.96
653.347	12.22
653.535	12.47
653.724	12.53
653.912	12.31
654.101	12.4
654.289	12.3
654.478	11.91
654.666	11.65
654.855	11.27
655.043	11.38
655.231	11.29
655.42	11.16
655.608	11.04
655.796	11.13
655.985	11.58
656.173	11.77
656.361	11.5
656.55	11.89
656.738	11.97
656.926	11.91
657.114	11.83
657.302	11.87
657.491	11.86
657.679	11.84
657.867	11.87
658.055	11.37
658.243	11.26
658.431	10.88
658.619	10.5
658.807	10.81
658.996	10.82
659.184	11.16
659.372	11.14
659.56	11.33
659.748	11.09
659.936	11.11
660.124	11.45
660.311	11.42
660.499	12.11
660.687	12.3
660.875	11.75
661.063	11.93
661.251	11.98
661.439	12.21
661.627	11.98
661.814	12.12
662.002	11.91
662.19	11.57
662.378	11.79
662.565	11.4
662.753	11.54
662.941	11.6
663.129	11.82
663.316	11.32
663.504	11.5
663.692	11.42
663.879	11.81
664.067	12.12
664.254	12.16
664.442	12.01
664.63	11.64
664.817	11.67
665.005	12.5
665.192	12.27
665.38	12.36
665.567	11.76
665.755	12.44
665.942	12.26
666.13	12.09
666.317	12.36
666.504	12.27
666.692	12.11
666.879	12.01
667.067	11.95
667.254	11.6
667.441	11.84
667.629	11.73
667.816	11.06
668.003	11.56
668.19	11.33
668.378	10.92
668.565	10.65
668.752	11.67
668.939	11.86
669.127	11.51
669.314	12.15
669.501	11.97
669.688	12.56
669.875	13.21
670.062	12.57
670.249	12.56
670.436	12.79
670.623	13.14
670.81	12.85
670.997	12.62
671.184	12.74
671.371	12.82
671.558	12.71
671.745	12.6
671.932	12.26
672.119	12.51
672.306	12.97
672.493	12.98
672.68	13.23
672.867	12.89
673.054	12.8
673.24	12.88
673.427	12.51
673.614	12.91
673.801	12.94
673.988	12.8
674.174	12.21
674.361	12.26
674.548	12.55
674.734	12.69
674.921	12.92
675.108	12.93
675.294	12.76
675.481	12.69
675.668	13.24
675.854	13.69
676.041	13.68
676.227	14.03
676.414	13.71
676.601	13.81
676.787	13.26
676.974	13.25
677.16	12.98
677.347	12.94
677.533	12.97
677.719	12.35
677.906	12.2
678.092	12.31
678.279	12.07
678.465	12.14
678.651	11.89
678.838	12
679.024	11.67
679.21	11.4
679.397	11.51
679.583	11.63
679.769	11.43
679.955	10.75
680.142	11.12
680.328	11.24
680.514	11.35
680.7	11.08
680.886	11.46
681.073	11.39
681.259	11.95
681.445	12.38
681.631	12.28
681.817	12.41
682.003	13.02
682.189	12.69
682.375	12.71
682.561	12.61
682.747	12.79
682.933	12.33
683.119	12.69
683.305	12.64
683.491	12.3
683.677	11.83
683.863	11.8
684.049	11.98
684.235	11.97
684.42	11.93
684.606	11.36
684.792	11.27
684.978	10.91
685.164	10.67
685.349	10.45
685.535	10.2
685.721	11.09
685.907	11.07
686.092	10.46
686.278	10.17
686.464	10.07
686.649	10.82
686.835	10.59
687.021	10.94
687.206	10.78
687.392	11.02
687.577	10.95
687.763	10.59
687.948	10.6
688.134	11.01
688.319	11.58
688.505	11.79
688.69	11.13
688.876	11.91
689.061	12.36
689.247	12.44
689.432	12.42
689.618	12.75
689.803	13.13
689.988	13.23
690.174	12.79
690.359	12.3
690.544	12.44
690.73	12.74
690.915	12.66
691.1	12.5
691.285	12.87
691.471	12.74
691.656	12.29
691.841	12.51
692.026	12.69
692.211	12.44
692.396	12.43
692.582	12.29
692.767	12.57
692.952	12.06
693.137	11.95
693.322	11.6
693.507	11.9
693.692	12.07
693.877	11.27
694.062	11.47
694.247	12.1
694.432	12.43
694.617	12.42
694.802	11.92
694.987	12.54
695.172	12.2
695.357	12.05
695.541	12.76
695.726	13.43
695.911	14.1
696.096	13.53
696.281	13.07
696.466	12.44
696.65	12.53
696.835	12.76
697.02	12.17
697.204	12.43
697.389	12.85
697.574	12.42
697.759	11.97
697.943	11.86
698.128	11.93
698.312	12
698.497	12.09
698.682	12.25
698.866	12.37
699.051	12.66
699.235	12.38
699.42	12.32
699.604	12.03
699.789	12.18
699.973	12.11
700.158	12.1
700.342	12.24
700.527	12.47
700.711	12.24
700.895	12.34
701.08	11.92
701.264	12.37
701.448	12.38
701.633	12.74
701.817	12.52
702.001	12.54
702.186	13.07
702.37	13.19
702.554	13.12
702.738	12.92
702.923	12
703.107	11.38
703.291	11.09
703.475	11.34
703.659	11.08
703.843	11.67
704.027	12
704.212	11.37
704.396	11.13
704.58	11.07
704.764	10.78
704.948	11.68
705.132	12.51
705.316	12.83
705.5	12.37
705.684	12.4
705.868	12.4
706.052	11.46
706.235	11.71
706.419	11.98
706.603	11.86
706.787	12.24
706.971	12.99
707.155	13.06
707.339	13.1
707.522	12.85
707.706	12.37
707.89	11.91
708.074	12.78
708.257	12.84
708.441	12.58
708.625	12.73
708.808	13.41
708.992	12.53
709.176	12.31
709.359	11.77
709.543	12.35
709.727	13.72
709.91	13.45
710.094	13.15
710.277	13.01
710.461	13.06
710.644	12.74
710.828	12.28
711.011	13.09
711.195	13.64
711.378	14.13
711.562	14.66
711.745	14.24
711.928	14.1
712.112	13.59
712.295	13.49
712.478	13.52
712.662	13.84
712.845	13.81
713.028	13.26
713.212	13.3
713.395	13.57
713.578	12.88
713.761	12.06
713.945	11.99
714.128	12.48
714.311	12.23
714.494	11.88
714.677	12.35
714.86	12.45
715.043	12.38
715.227	11.52
715.41	11.26
715.593	11.96
715.776	12.05
715.959	12.52
716.142	12.52
716.325	12.51
716.508	12.36
716.691	11.88
716.874	11.84
717.057	12.69
717.239	13.02
717.422	12.91
717.605	12.67
717.788	13.77
717.971	14.47
718.154	13.89
718.337	14
718.519	14.71
718.702	15.81
718.885	15.33
719.068	14.24
719.25	14.77
719.433	14.71
719.616	14.34
719.798	14.14
719.981	13.59
720.164	14.23
720.346	14.24
720.529	15.33
720.712	14.65
720.894	14.77
721.077	14.9
721.259	13.97
721.442	12.4
721.624	11.66
721.807	11.14
721.989	11.48
722.172	12.77
722.354	13.48
722.537	12.27
722.719	11.61
722.901	12.16
723.084	11.83
723.266	13.23
723.448	14.83
723.631	15.41
723.813	15.76
723.995	15.65
724.178	13.47
724.36	13.45
724.542	12.85
724.724	12.74
724.907	12.42
725.089	13.66
725.271	13.51
725.453	14.35
725.635	14.77
725.817	14.04
725.999	13.95
726.181	14
726.364	14.25
726.546	14.17
726.728	14.2
726.91	14.7
727.092	13.87
727.274	13.42
727.456	12.14
727.638	12.63
727.819	13.99
728.001	12.93
728.183	14.56
728.365	14.18
728.547	14.68
728.729	14.56
728.911	14.55
729.093	15.42
729.274	15.2
729.456	16.27
729.638	16.13
729.82	15.78
730.001	17.17
730.183	16.24
730.365	16.94
730.546	16.88
730.728	17.24
730.91	16.81
731.091	16.17
731.273	15.67
731.455	15.21
731.636	15.24
731.818	14.6
731.999	14.18
732.181	14.37
732.362	13.83
732.544	14.57
732.725	14.65
732.907	15.17
733.088	14.89
733.27	16.63
733.451	16.92
733.633	16.64
733.814	16.87
733.995	17.12
734.177	16.56
734.358	16.37
734.539	16.23
734.721	16.46
734.902	16.14
735.083	17.01
735.264	16.56
735.446	15.33
735.627	13.86
735.808	13.62
735.989	13.06
736.17	14.41
736.351	15.34
736.533	14.45
736.714	13.52
736.895	13.89
737.076	13.27
737.257	12.58
737.438	13.32
737.619	14.7
737.8	14.95
737.981	15.16
738.162	14.52
738.343	13.07
738.524	12.49
738.705	14.41
738.886	14
739.067	12.61
739.247	12.59
739.428	13.26
739.609	13.18
739.79	12.73
739.971	12.25
740.151	11.12
740.332	12.09
740.513	12.61
740.694	10.86
740.874	10.9
741.055	12.5
741.236	12.69
741.417	11.63
741.597	9.59
741.778	8.92
741.958	9.99
742.139	12.51
742.32	11.34
742.5	13.13
742.681	14.22
742.861	14.06
743.042	13.32
743.222	12.22
743.403	12.73
743.583	14.54
743.764	14.42
743.944	13.89
744.124	12.9
744.305	13.52
744.485	11.64
744.666	11.31
744.846	11.29
745.026	12.93
745.207	14.2
745.387	14.27
745.567	14.66
745.747	14.88
745.928	14
746.108	12.8
746.288	13.61
746.468	15.11
746.648	14.14
746.829	14.76
747.009	12.58
747.189	12.02
747.369	12.26
747.549	13.74
747.729	13.89
747.909	14.65
748.089	15.6
748.269	14.82
748.449	14.28
748.629	14.56
748.809	13.53
748.989	15.87
749.169	14.44
749.349	14.15
749.529	12.34
749.709	13.07
749.889	12.49
750.068	12.48
750.248	13.05
750.428	12.45
750.608	12.76
750.788	13.54
750.967	12.8
751.147	13.84
751.327	15.41
751.507	15.16
751.686	15.07
751.866	15.6
752.046	15.01
752.225	14.26
752.405	14.72
752.585	14.7
752.764	14.52
752.944	14.22
753.123	15.62
753.303	14.3
753.482	14.68
753.662	14.14
753.841	14.03
754.021	14.93
754.2	16.99
754.38	17.45
754.559	19.05
754.739	18.3
754.918	18.03
755.097	17.31
755.277	16.87
755.456	16.61
755.635	17.81
755.815	18.11
755.994	16.69
756.173	14.7
756.352	14.58
756.532	12.73
756.711	12.73
756.89	12.88
757.069	12.55
757.248	13
757.427	12.85
757.607	11.32
757.786	10.26
757.965	11.3
758.144	12.1
758.323	11.98
758.502	13.63
758.681	14.33
758.86	15.42
759.039	15
759.218	15.18
759.397	15.14
759.576	15.77
759.755	16.34
759.934	16.11
760.113	15.71
760.291	15.83
760.47	14.32
760.649	14.12
760.828	13.19
761.007	14.39
761.186	13.87
761.364	14.51
761.543	14.9
761.722	15.7
761.901	15.97
762.079	14.94
762.258	14.22
762.437	14.17
762.615	15.32
762.794	14.33
762.972	13.69
763.151	13.63
763.33	12.83
763.508	13.16
763.687	12.92
763.865	12.96
764.044	13.45
764.222	13.97
764.401	14.23
764.579	13.2
764.758	13.32
764.936	13.77
765.114	13.6
765.293	14.65
765.471	13.83
765.65	13.95
765.828	13.47
766.006	13.68
766.184	12.41
766.363	11.85
766.541	12.11
766.719	13.02
766.898	13.32
767.076	13.28
767.254	13.02
767.432	13.91
767.61	13.79
767.788	14.12
767.967	14.38
768.145	16.23
768.323	16.08
768.501	15.77
768.679	17.17
768.857	17.2
769.035	18.83
769.213	19.05
769.391	18.22
769.569	18.09
769.747	17.95
769.925	19.09
770.103	18.9
770.281	19.64
770.459	20.83
770.636	19.56
770.814	19.42
770.992	19.57
771.17	17.58
771.348	19.21
771.525	18.63
771.703	18.58
771.881	17.53
772.059	16.62
772.236	15.74
772.414	15.26
772.592	16.01
772.769	16.05
772.947	15.96
773.125	18.44
773.302	17.77
773.48	18.91
773.657	19.28
773.835	18.85
774.013	18.76
774.19	20.85
774.368	21.01
774.545	20.75
774.723	19.82
774.9	19.3
775.077	17.51
775.255	16.4
775.432	16.35
775.61	14.68
775.787	13.68
775.964	12.99
776.142	12.12
776.319	10.74
776.496	10.72
776.674	11.79
776.851	11.91
777.028	12.32
777.205	11.72
777.382	10.53
777.56	12.07
777.737	13
777.914	14.49
778.091	13.78
778.268	15.3
778.445	13.71
778.622	12.74
778.8	11.36
778.977	12.22
779.154	12.43
779.331	13.28
779.508	13.15
779.685	14.1
779.862	13.5
780.038	13.66
780.215	12.45
780.392	12.5
780.569	11.81
780.746	11.66
780.923	13.24
781.1	13.3
781.277	12.15
781.453	11.6
781.63	8.9
781.807	7
781.984	8.03
782.16	7.18
782.337	7.52
782.514	9.24
782.691	9.7
782.867	9.07
783.044	11.06
783.221	11.81
783.397	10.95
783.574	13.33
783.75	12.5
783.927	12.45
784.103	14.98
784.28	15.77
784.456	16.31
784.633	17.37
784.809	16.8
784.986	14.64
785.162	15.1
785.339	15.2
785.515	15.71
785.692	22.36
785.868	23.1
786.044	21.27
786.221	23.24
786.397	23.07
786.573	23.83
786.749	23.88
786.926	23.56
787.102	21.24
787.278	21.62
787.454	19.79
787.631	17.62
787.807	17.4
787.983	18.64
788.159	15.49
788.335	11.73
788.511	11.7
788.687	12.21
788.863	12.66
789.039	15.08
789.216	16.59
789.392	17.13
789.568	14.38
789.744	13.43
789.919	12.84
790.095	13.34
790.271	16.75
790.447	16.95
790.623	17.19
790.799	17.19
790.975	18.07
791.151	16.22
791.327	15.32
791.502	13.95
791.678	15.15
791.854	16.35
792.03	17.12
792.205	17.4
792.381	14.96
792.557	12.05
792.733	12.42
792.908	10.03
793.084	12.13
793.259	15.79
793.435	19.59
793.611	19.02
793.786	17.47
793.962	19.19
794.137	17.19
794.313	18.64
794.488	19.88
794.664	20.27
794.839	19.54
795.015	18.6
795.19	13.79
795.366	12.61
795.541	11.01
795.716	11.84
795.892	10.86
796.067	12.82
796.242	11.93
796.418	12.12
796.593	12.68
796.768	12.24
796.944	10.97
797.119	14.11
797.294	13.68
797.469	13.48
797.644	10.72
797.82	11.37
797.995	13.34
798.17	13.53
798.345	16.37
798.52	14.34
798.695	12.93
798.87	15.17
799.045	15.58
799.22	15.06
799.395	17.05
799.57	18.32
799.745	16.47
799.92	14.51
800.095	15.84
800.27	12.96
800.445	13.94
800.62	19.08
800.795	17.2
800.97	15.05
801.145	17.37
801.319	15.32
801.494	14.06
801.669	14.92
801.844	14.49
802.018	14.81
802.193	17.04
802.368	15.36
802.543	12.03
802.717	14.33
802.892	17.52
803.067	14.45
803.241	14.33
803.416	17.28
803.59	15.89
803.765	17.4
803.94	15.2
804.114	13.1
804.289	16.11
804.463	17.35
804.638	19.74
804.812	20.09
804.986	21.38
805.161	25.24
805.335	24.76
805.51	28.03
805.684	25.84
805.858	25.1
806.033	22.53
806.207	20.23
806.381	19.73
806.556	19.91
806.73	16.85
806.904	16.91
807.078	16.61
807.253	18.09
807.427	14.22
807.601	16.52
807.775	18.71
807.949	18.28
808.123	16.66
808.298	13.11
808.472	12.92
808.646	14.87
808.82	15.62
808.994	14.08
809.168	11.88
809.342	12.96
809.516	7.97
809.69	8.38
809.864	9.45
810.038	11.54
810.212	16.57
810.385	11.16
810.559	13.13
810.733	12.43
810.907	12.83
811.081	16.6
811.255	18.32
811.428	21.98
811.602	23.22
811.776	26.73
811.95	28.03
812.123	24.16
812.297	29.61
812.471	25.82
812.644	30.09
812.818	31.09
812.992	26.47
813.165	25.43
813.339	31.41
813.512	30.44
813.686	28.59
813.86	26.9
814.033	30.27
814.207	32.87
814.38	37.75
814.554	35.39
814.727	36.5
814.9	39.64
815.074	39.08
815.247	34.21
815.421	34.64
815.594	35.25
815.767	34.78
815.941	32.47
816.114	26.94
816.287	20.36
816.46	19.54
816.634	14.78
816.807	12.72
816.98	14.45
817.153	15.64
817.327	12.38
817.5	11.63
817.673	11.54
817.846	11.71
818.019	11.28
818.192	15.79
818.365	15.34
818.538	18.11
818.711	19.17
818.884	17.52
819.057	14.01
819.23	17.08
819.403	16.94
819.576	19.68
819.749	18.31
819.922	16.3
820.095	15.74
820.268	14.92
820.441	11.54
820.614	11.29
820.786	12.5
820.959	12.8
821.132	12.26
821.305	13.33
821.477	12.47
821.65	14.37
821.823	14.83
821.996	14.19
822.168	13.91
822.341	15.02
822.514	15.4
822.686	14.22
822.859	14.34
823.031	14.65
823.204	14.6
823.376	15.14
823.549	14.33
823.722	14.86
823.894	14.94
824.067	15.65
824.239	15.28
824.411	15.26
824.584	16.55
824.756	17.17
824.929	17.24
825.101	15.78
825.273	16.23
825.446	18.8
825.618	19.12
825.79	19.17
825.963	18.68
826.135	20.61
826.307	20.31
826.479	19.99
826.652	19.49
826.824	18.3
826.996	20.23
827.168	19.41
827.34	17.93
827.512	15.66
827.684	16.49
827.856	16.86
828.029	15.21
828.201	16.27
828.373	15.46
828.545	16.4
828.717	18.48
828.889	18.97
829.061	18.72
829.232	17.65
829.404	21.29
829.576	21.43
829.748	23.63
829.92	24.92
830.092	24.16
830.264	25.43
830.436	25.33
830.607	23.58
830.779	23.56
830.951	21.72
831.123	22.8
831.294	19.94
831.466	20.17
831.638	18.04
831.809	16.72
831.981	15.06
832.153	14.11
832.324	15.01
832.496	17.58
832.667	19.63
832.839	24.16
833.011	25.9
833.182	24.85
833.354	23.34
833.525	22.99
833.697	20.78
833.868	21
834.039	21.34
834.211	17.72
834.382	13.81
834.554	15
834.725	15.08
834.896	13.86
835.068	14.7
835.239	15.37
835.41	15.74
835.581	16.99
835.753	18.68
835.924	18.1
836.095	21.44
836.266	23.37
836.438	19.57
836.609	16.39
836.78	17.52
836.951	19.68
837.122	19.75
837.293	15.86
837.464	13.99
837.635	16.67
837.806	18.49
837.977	14.44
838.148	19.77
838.319	18.17
838.49	23.31
838.661	24.59
838.832	20.39
839.003	20.73
839.174	26.61
839.345	30.93
839.516	26.43
839.687	30.99
839.857	31.44
840.028	26.79
840.199	29.62
840.37	27.97
840.54	20.64
840.711	25.2
840.882	25.38
841.053	27.57
841.223	25.92
841.394	26.41
841.564	23.65
841.735	31.39
841.906	29.83
842.076	28.69
842.247	27.54
842.417	30.83
842.588	28.87
842.758	32.28
842.929	26.61
843.099	27.85
843.27	25.54
843.44	17.12
843.611	9.74
843.781	12.49
843.951	8.13
844.122	13.51
844.292	19.29
844.462	16.25
844.633	26.18
844.803	30.28
844.973	35.16
845.144	34.23
845.314	40.94
845.484	39.16
845.654	40.87
845.824	45.1
845.995	41.64
846.165	38.21
846.335	39.74
846.505	19.53
846.675	21.28
846.845	5.44
847.015	-1.23
847.185	-10.97
847.355	-15.15
847.525	-10.4
847.695	-8.98
847.865	-10.1
848.035	2.08
848.205	-12.4
848.375	9.39
848.545	-10.13
848.715	3.18
848.884	-8.01
849.054	-8.2
849.224	2.87
849.394	1.74
849.564	-5.45
849.733	-8.4
849.903	-4.95
850.073	5.62
850.243	-13.67
850.412	3.26
850.582	-3.62
850.752	15.92
850.921	18.02
851.091	16.77
851.26	5.95
851.43	0.51
851.599	7
851.769	-5.33
851.939	-15.02
852.108	-2.75
852.278	-9.42
852.447	-4.67
852.616	-3.77
852.786	2.62
852.955	9.37
853.125	18.48
853.294	31.79
853.463	16.03
853.633	17.15
853.802	31.11
853.971	30.35
854.141	24.71
854.31	27.09
854.479	21.19
854.648	21.91
854.818	23.02
854.987	18.63
855.156	14.54
855.325	21.86
855.494	16.37
855.663	13.79
855.832	25.58
856.001	26.29
856.171	9.38
856.34	13.68
856.509	0.35
856.678	-38.64
856.847	-25.41
857.016	-31.95
857.185	-67.69
857.353	-45.54
857.522	-68.07
857.691	-57.61
857.86	-59.63
858.029	-51.61
858.198	-56.73
858.367	-45.07
858.535	-13.16
858.704	-31.08
858.873	-16.8
859.042	-13.09
859.21	-0.84
859.379	5.05
859.548	3.28
859.717	16.99
859.885	24.54
860.054	30.89
860.222	18.24
860.391	-9.48
860.56	17.48
860.728	0.73
860.897	10.06
861.065	5.19
861.234	4.48
861.402	3.65
861.571	12.15
861.739	7.68
861.908	0.51
862.076	12.43
862.244	35.19
862.413	35.85
862.581	42.31
862.749	38.17
862.918	33.9
863.086	35.48
863.254	38.36
863.423	34.74
863.591	45
863.759	40.2
863.927	36.56
864.096	26.61
864.264	12.18
864.432	21.24
864.6	25.01
864.768	22.47
864.936	12.52
865.104	10.74
865.272	24.17
865.44	14.75
865.608	25.79
865.776	47.97
865.944	46.56
866.112	61.2
866.28	51.54
866.448	45.38
866.616	35.11
866.784	35.5
866.952	39.33
867.12	28.22
867.288	30.07
867.455	28.09
867.623	18.93
867.791	25.9
867.959	21.74
868.127	13.49
868.294	25.08
868.462	41.4
868.63	45.76
868.797	42.67
868.965	47.54
869.133	46.13
869.3	51.56
869.468	60.41
869.636	60.33
869.803	66.83
869.971	72.83
870.138	56.48
870.306	64.02
870.473	61.11
870.641	60.84
870.808	58.51
870.975	63.85
871.143	50.31
871.31	38.28
871.478	46.66
871.645	40.64
871.812	44.48
871.98	42.63
872.147	32.12
872.314	29.95
872.482	21.13
872.649	21.76
872.816	18.39
872.983	25.69
873.15	27.18
873.318	27.74
873.485	32.46
873.652	21.69
873.819	22.92
873.986	22.43
874.153	20.2
874.32	39.16
874.487	49.03
874.654	48.4
874.821	42.67
874.988	50
875.155	47.83
875.322	45.48
875.489	54.52
875.656	58.47
875.823	69.59
875.99	73.06
876.157	67.95
876.324	62.15
876.49	65.42
876.657	64.78
876.824	57.22
876.991	56.07
877.157	55.37
877.324	52.07
877.491	38.81
877.658	35.52
877.824	29.63
877.991	23.93
878.157	10.84
878.324	13.98
878.491	13
878.657	-3.88
878.824	-18.25
878.99	-19.6
879.157	-10.8
879.323	-5.36
879.49	-10.68
879.656	4.87
879.823	6.92
879.989	29.45
880.156	30.78
880.322	28.29
880.488	33.51
880.655	35.6
880.821	27.9
880.987	24.45
881.154	27.57
881.32	34.71
881.486	28.03
881.652	20.18
881.819	12.46
881.985	8.09
882.151	14.27
882.317	18.14
882.483	20.48
882.649	21.36
882.816	24.77
882.982	23.54
883.148	17.76
883.314	15.47
883.48	20.98
883.646	20.51
883.812	19.71
883.978	20.35
884.144	18.72
884.31	16.66
884.476	17.85
884.642	16.24
884.807	17.13
884.973	20.14
885.139	21
885.305	18.28
885.471	16.64
885.637	17.83
885.802	19.47
885.968	22.85
886.134	22.37
886.3	19
886.465	16.65
886.631	16.56
886.797	18.77
886.962	21.15
887.128	21.98
887.293	22.77
887.459	22.47
887.625	17.39
887.79	5.82
887.956	13.14
888.121	19.41
888.287	19.63
888.452	16.12
888.618	7.34
888.783	-0.28
