Data from 2938126_Reflection_2.txt Node
Date: Sat Jul 11 17:23:16 EDT 2015
User: robert
Spectrometer: USB4E03001
Autoset integration time: false
Trigger mode: 4
Integration Time (sec): 1.000000E-1
Scans to average: 10
Electric dark correction enabled: true
Nonlinearity correction enabled: false
Boxcar width: 5
Stray light correction enabled: false
XAxis mode: Wavelengths
Stop averaging: false
Number of Pixels in Spectrum: 3648
>>>>>Begin Spectral Data<<<<<
177.566	387
177.785	-8605.88
178.005	1286.55
178.225	4496.88
178.445	413.7
178.665	269.9
178.885	-16.44
179.105	-407.58
179.324	441.47
179.544	265.1
179.764	177.51
179.984	158.32
180.204	206.14
180.423	185.84
180.643	174.88
180.863	194.41
181.083	142.4
181.302	118.16
181.522	123.07
181.742	116.28
181.961	103.46
182.181	102.34
182.401	87.12
182.621	94.87
182.84	83.6
183.06	106.58
183.279	67.28
183.499	108.95
183.719	128.46
183.938	99.73
184.158	116.99
184.377	121.27
184.597	132.68
184.816	121.36
185.036	114.71
185.256	121.03
185.475	114.45
185.695	137.41
185.914	123.49
186.134	128.55
186.353	134.2
186.572	126.92
186.792	123.94
187.011	115.6
187.231	119.06
187.45	104.04
187.67	106.76
187.889	104.9
188.108	101.71
188.328	95.41
188.547	96.21
188.766	92.64
188.986	105.9
189.205	104.01
189.424	105.96
189.644	110.44
189.863	137.44
190.082	124.23
190.302	127.22
190.521	116.81
190.74	131.19
190.959	125.42
191.178	121.52
191.398	122.23
191.617	135.11
191.836	144.32
192.055	124.41
192.274	116.53
192.494	105.34
192.713	105.38
192.932	94.26
193.151	86.78
193.37	88.98
193.589	89.33
193.808	95.01
194.027	99.27
194.246	99.98
194.465	117.29
194.685	106.32
194.904	131.33
195.123	149.26
195.342	161.32
195.561	186.81
195.78	258.27
195.999	182.37
196.218	137.67
196.436	113.74
196.655	101.67
196.874	93.68
197.093	84.11
197.312	79.67
197.531	73.06
197.75	67.15
197.969	65.32
198.188	65.87
198.407	57.58
198.625	61.17
198.844	72.71
199.063	71.73
199.282	66.74
199.501	65.89
199.719	60.93
199.938	54.94
200.157	65.06
200.376	59.89
200.594	54.64
200.813	67.04
201.032	70.07
201.251	58.08
201.469	66.66
201.688	81.47
201.907	90.53
202.125	103.82
202.344	100.79
202.563	95.06
202.781	102.92
203	101.41
203.218	88.33
203.437	90.49
203.656	93.44
203.874	89.47
204.093	82.5
204.311	85.78
204.53	90.55
204.748	113.83
204.967	120.03
205.185	109.28
205.404	119.7
205.622	134.54
205.841	111.87
206.059	116.26
206.278	132.85
206.496	114.07
206.715	109.08
206.933	88.08
207.151	84.09
207.37	85.78
207.588	88.93
207.806	80.18
208.025	80.85
208.243	89.77
208.461	88.78
208.68	76.25
208.898	90.72
209.116	86.37
209.335	99.19
209.553	98.53
209.771	87.83
209.989	85.97
210.208	83.47
210.426	93.63
210.644	107.31
210.862	108.49
211.081	127.53
211.299	100.76
211.517	105.04
211.735	92.8
211.953	81.96
212.171	83.9
212.39	77.69
212.608	89.9
212.826	87.03
213.044	78.35
213.262	79.73
213.48	88.15
213.698	95.75
213.916	110.93
214.134	125.46
214.352	156.47
214.57	165.38
214.788	211.92
215.006	191.27
215.224	180.39
215.442	155.45
215.66	164.59
215.878	149.36
216.096	134.59
216.314	97.24
216.532	94.03
216.75	99.73
216.968	96.08
217.185	94.68
217.403	105.12
217.621	107.22
217.839	109.39
218.057	105.75
218.275	101
218.492	108.42
218.71	135.67
218.928	149.68
219.146	134.45
219.363	135.04
219.581	138.53
219.799	122.49
220.017	112.77
220.234	104.46
220.452	106.99
220.67	107.8
220.887	107.08
221.105	112.86
221.323	120.29
221.54	120.44
221.758	120.24
221.976	108.04
222.193	115.92
222.411	123.69
222.629	125.42
222.846	110.4
223.064	91.06
223.281	100.1
223.499	77.5
223.716	67.3
223.934	65.42
224.151	72.47
224.369	64.49
224.586	60.1
224.804	55.94
225.021	58.47
225.239	60.73
225.456	56.85
225.674	54.59
225.891	62.47
226.108	57.78
226.326	52.07
226.543	38.07
226.76	38.34
226.978	40.65
227.195	41.22
227.413	36.33
227.63	39.02
227.847	44.15
228.064	41.15
228.282	36.97
228.499	34.41
228.716	34.22
228.934	33.32
229.151	34.72
229.368	34.47
229.585	34.04
229.802	34.77
230.02	35.99
230.237	34.53
230.454	34.28
230.671	37.07
230.888	40.36
231.105	40.09
231.323	41.39
231.54	41.62
231.757	41.43
231.974	44.99
232.191	43.64
232.408	42.65
232.625	45.18
232.842	45.97
233.059	45.76
233.276	41.68
233.493	47.02
233.71	48.2
233.927	50.06
234.144	49.08
234.361	47.31
234.578	52.12
234.795	49.88
235.012	48.78
235.229	45.52
235.446	46.42
235.663	47.66
235.879	46.54
236.096	42.46
236.313	42.41
236.53	44.9
236.747	45.31
236.964	42.51
237.181	40.89
237.397	41.94
237.614	41.77
237.831	33.45
238.048	34.64
238.264	29.16
238.481	36.1
238.698	34.81
238.915	32.36
239.131	29.83
239.348	28.93
239.565	32.02
239.781	30.9
239.998	34.36
240.215	37.39
240.431	37.49
240.648	36.47
240.865	33.38
241.081	31.86
241.298	30.19
241.514	29.85
241.731	29.92
241.947	26.76
242.164	25.13
242.38	23.37
242.597	22.23
242.814	21.99
243.03	24.11
243.246	23.18
243.463	22.56
243.679	26.12
243.896	25.62
244.112	24.23
244.329	25.38
244.545	26.9
244.762	27.61
244.978	28.41
245.194	27.35
245.411	24.55
245.627	23.92
245.843	21.99
246.06	16.29
246.276	16.74
246.492	16.74
246.709	18.39
246.925	17.65
247.141	17.79
247.357	17.65
247.574	16.95
247.79	16.45
248.006	16.51
248.222	16.95
248.439	17.85
248.655	18.25
248.871	18.61
249.087	17.84
249.303	17.33
249.519	17.43
249.736	18.38
249.952	20.45
250.168	23.14
250.384	24.61
250.6	25.28
250.816	27.39
251.032	26.98
251.248	27.37
251.464	25.55
251.68	26.08
251.896	23.99
252.112	21.27
252.328	20.38
252.544	19.41
252.76	18.81
252.976	18.85
253.192	18.41
253.408	18.73
253.624	20.59
253.84	22.58
254.056	23.87
254.272	25.2
254.487	25.44
254.703	24.4
254.919	25.93
255.135	25.86
255.351	26.08
255.567	26.31
255.782	26.65
255.998	23.1
256.214	20.93
256.43	20.15
256.646	21.24
256.861	22.57
257.077	24.59
257.293	22.39
257.508	22.25
257.724	22.51
257.94	20.95
258.155	19.67
258.371	18.77
258.587	17.85
258.802	16.93
259.018	15.02
259.234	15.07
259.449	13.89
259.665	14.19
259.88	14.04
260.096	12.77
260.312	13.27
260.527	13.21
260.743	14.02
260.958	14.4
261.174	14.87
261.389	16.13
261.605	16.97
261.82	17.46
262.036	17.71
262.251	17.94
262.466	19.47
262.682	18.82
262.897	19.45
263.113	18.93
263.328	19.73
263.543	19.41
263.759	18.17
263.974	18.4
264.189	18.5
264.405	19.26
264.62	18.86
264.835	19.02
265.051	21.18
265.266	21.37
265.481	21.4
265.696	20.72
265.912	20.69
266.127	21.22
266.342	19.54
266.557	19.51
266.773	18.51
266.988	18.12
267.203	18.51
267.418	17.68
267.633	15.97
267.848	15.66
268.064	14.83
268.279	16.04
268.494	15.62
268.709	14.96
268.924	15.47
269.139	15.16
269.354	16.14
269.569	14.48
269.784	13.81
269.999	14.95
270.214	14.29
270.429	15.11
270.644	12.59
270.859	12.89
271.074	12.63
271.289	12.71
271.504	12.8
271.719	12.47
271.934	14.54
272.149	13.24
272.363	13.59
272.578	13.75
272.793	13.76
273.008	15.32
273.223	15.45
273.438	16.02
273.653	15.97
273.867	16.9
274.082	17
274.297	15.85
274.512	17.73
274.726	17.7
274.941	17.4
275.156	17.56
275.371	18.12
275.585	18.03
275.8	18.92
276.015	19.18
276.229	17.79
276.444	16.89
276.659	16.06
276.873	15.69
277.088	15.54
277.302	15.56
277.517	15.33
277.732	15.4
277.946	15.86
278.161	16.3
278.375	16.57
278.59	16.26
278.804	15
279.019	16.72
279.233	17.23
279.448	17.4
279.662	16.38
279.877	16.16
280.091	15.34
280.306	15.01
280.52	15.25
280.735	14.62
280.949	16.34
281.163	18.48
281.378	18.41
281.592	16.76
281.806	17.24
282.021	19.04
282.235	20.48
282.449	20.67
282.664	19.54
282.878	18.95
283.092	19.2
283.307	17.39
283.521	17.97
283.735	18.68
283.949	19.58
284.164	18.58
284.378	18.1
284.592	17.66
284.806	16.04
285.02	18.32
285.234	17.65
285.449	17.34
285.663	17.94
285.877	17.02
286.091	16.49
286.305	16.71
286.519	17.26
286.733	16.24
286.947	14.75
287.161	14.4
287.375	12.12
287.589	13.35
287.803	13.7
288.017	13.75
288.231	12.45
288.445	11.69
288.659	10.89
288.873	10.24
289.087	11.16
289.301	12.59
289.515	13.44
289.729	13.54
289.943	12.25
290.157	10.86
290.371	9.7
290.584	11.51
290.798	12.25
291.012	12.89
291.226	13.93
291.44	13.91
291.654	13.84
291.867	14.04
292.081	15.21
292.295	15.6
292.509	16.68
292.722	19.14
292.936	18.94
293.15	18.95
293.364	17.76
293.577	17.15
293.791	18.12
294.005	18.52
294.218	19.27
294.432	18.47
294.645	19.31
294.859	19.89
295.073	17.67
295.286	16.38
295.5	15.86
295.713	17.4
295.927	17.74
296.14	17.15
296.354	16
296.568	15.78
296.781	15.81
296.994	15.2
297.208	15
297.421	16.32
297.635	16.82
297.848	17.25
298.062	16.28
298.275	15.81
298.489	15.83
298.702	17.14
298.915	17.4
299.129	18.26
299.342	18.68
299.555	19.34
299.769	18.62
299.982	19.68
300.195	18.94
300.409	21.43
300.622	22.19
300.835	22.58
301.048	22.85
301.262	22.91
301.475	22.92
301.688	22.28
301.901	21.98
302.115	21.73
302.328	21.03
302.541	20.58
302.754	18.82
302.967	18.58
303.18	17.32
303.393	17.24
303.607	15.76
303.82	15.77
304.033	14.92
304.246	15.16
304.459	15.53
304.672	15.39
304.885	16.49
305.098	17.53
305.311	17.97
305.524	19.39
305.737	17.37
305.95	18.87
306.163	18.28
306.376	18.7
306.589	18.19
306.802	19.52
307.015	19.75
307.228	19
307.44	17.48
307.653	17.27
307.866	15.92
308.079	16.79
308.292	15.75
308.505	15.61
308.718	15.8
308.93	16.89
309.143	16
309.356	15.72
309.569	16.61
309.781	17.81
309.994	18.33
310.207	19.31
310.42	19.04
310.632	20.33
310.845	20.06
311.058	20.44
311.27	19.38
311.483	20.41
311.696	20.95
311.908	20.83
312.121	19.9
312.333	19.48
312.546	19.88
312.759	20.16
312.971	19.44
313.184	19.57
313.396	20.13
313.609	21.07
313.821	21.27
314.034	21.36
314.246	22.26
314.459	23.4
314.671	22.73
314.884	22.5
315.096	22.93
315.309	25.28
315.521	25.36
315.733	25.74
315.946	24.55
316.158	23.6
316.371	23.54
316.583	21.54
316.795	21.6
317.008	21.36
317.22	21.38
317.432	22.38
317.644	19.17
317.857	21.18
318.069	19.25
318.281	21.4
318.494	21.13
318.706	19.81
318.918	20.21
319.13	19.26
319.342	19.41
319.555	19.29
319.767	17.74
319.979	18.44
320.191	16.96
320.403	17.6
320.615	16.4
320.827	15.98
321.039	16.85
321.252	18.31
321.464	19.18
321.676	20.05
321.888	20.63
322.1	20.67
322.312	18.78
322.524	18.56
322.736	18.14
322.948	17.81
323.16	17.11
323.372	17.52
323.584	18.43
323.796	17.74
324.007	16.09
324.219	15.28
324.431	14.73
324.643	16.17
324.855	15.16
325.067	16.13
325.279	16.28
325.491	17.26
325.702	16.28
325.914	14.91
326.126	15.84
326.338	17.25
326.55	17.62
326.761	18.88
326.973	19.61
327.185	20.48
327.396	21.74
327.608	21.63
327.82	21.89
328.032	22.63
328.243	22.54
328.455	21.46
328.666	20.71
328.878	20.63
329.09	19.81
329.301	19.38
329.513	19.76
329.725	17.74
329.936	18.09
330.148	19.31
330.359	19.13
330.571	18.92
330.782	18.76
330.994	18.35
331.205	18.14
331.417	17.12
331.628	17.9
331.84	18.59
332.051	18.15
332.262	18.6
332.474	15.15
332.685	15.4
332.897	15.03
333.108	16.45
333.319	17.39
333.531	17.36
333.742	18.03
333.953	17.41
334.165	16.14
334.376	17.27
334.587	16.77
334.799	17.65
335.01	16.85
335.221	17.88
335.432	16.32
335.644	15.59
335.855	15.32
336.066	15.62
336.277	14.98
336.488	16.73
336.7	16.38
336.911	17.06
337.122	17.97
337.333	19.15
337.544	18.71
337.755	19.5
337.966	19.9
338.177	21.36
338.388	21.91
338.599	21.7
338.811	20.85
339.022	20.66
339.233	19.89
339.444	19.5
339.655	18.69
339.866	20.22
340.076	20.63
340.287	21.86
340.498	21.98
340.709	22.13
340.92	21.93
341.131	22.84
341.342	22.81
341.553	22.65
341.764	22.42
341.975	22.07
342.185	20.85
342.396	19.37
342.607	18.12
342.818	17.44
343.029	17.16
343.239	18.48
343.45	16.83
343.661	15.68
343.872	15.8
344.082	15.86
344.293	16.34
344.504	17.35
344.714	17.67
344.925	18.23
345.136	18.07
345.346	17.33
345.557	16.88
345.768	16.94
345.978	18.01
346.189	17.96
346.399	17.58
346.61	17.17
346.821	15.77
347.031	17.07
347.242	16.4
347.452	16.77
347.663	17.38
347.873	17.26
348.084	17.12
348.294	17.47
348.504	17.53
348.715	18.48
348.925	17.96
349.136	18.3
349.346	17.98
349.557	17.87
349.767	17.18
349.977	18.02
350.188	16.64
350.398	16.77
350.608	16.21
350.819	15.28
351.029	15.16
351.239	15.91
351.449	16.71
351.66	16.16
351.87	16.51
352.08	16.02
352.29	15.5
352.501	16.9
352.711	18.16
352.921	19.09
353.131	20.16
353.341	20.27
353.552	20.6
353.762	18.93
353.972	19.34
354.182	18.83
354.392	19.5
354.602	18.88
354.812	17.96
355.022	17.09
355.232	16.58
355.442	16.37
355.652	14.71
355.862	15.03
356.072	16.23
356.282	16.35
356.492	17.26
356.702	17.19
356.912	17.14
357.122	17.1
357.332	16.83
357.542	17.2
357.752	16.84
357.962	16.97
358.171	16.31
358.381	16.57
358.591	15.86
358.801	16.28
359.011	16.02
359.221	15.39
359.43	16.15
359.64	15.75
359.85	15.13
360.06	15.64
360.269	15.8
360.479	15.7
360.689	14.89
360.899	15.28
361.108	14.04
361.318	14.12
361.528	14.35
361.737	13.77
361.947	14.05
362.156	13.82
362.366	13.15
362.576	13.27
362.785	12.78
362.995	12.67
363.204	12.71
363.414	12.51
363.623	12.23
363.833	12.31
364.042	12.26
364.252	12.6
364.461	12.54
364.671	12.81
364.88	12.7
365.09	13.4
365.299	13.7
365.509	12.53
365.718	13.13
365.927	13.16
366.137	12.96
366.346	12.64
366.555	12.54
366.765	13.66
366.974	13.57
367.183	13.67
367.393	14.31
367.602	14
367.811	15.38
368.021	14.48
368.23	13.61
368.439	13.96
368.648	14.06
368.857	14.01
369.067	13.49
369.276	13.95
369.485	14.12
369.694	12.94
369.903	13.5
370.112	13.42
370.321	14.08
370.531	14.66
370.74	14.54
370.949	14.47
371.158	14.07
371.367	13.34
371.576	12.53
371.785	12.58
371.994	12.67
372.203	12.2
372.412	11.96
372.621	12.44
372.83	12.34
373.039	12.72
373.248	12.71
373.457	13.42
373.666	14.05
373.874	14.53
374.083	14.11
374.292	14.3
374.501	13.75
374.71	13.02
374.919	12.46
375.128	12.22
375.336	11.18
375.545	11.4
375.754	10.62
375.963	9.99
376.171	9.4
376.38	9.8
376.589	10
376.798	10.15
377.006	10.49
377.215	10.6
377.424	10.56
377.632	11.25
377.841	10.97
378.05	10.71
378.258	10.67
378.467	11.18
378.675	10.94
378.884	11.16
379.093	11.02
379.301	11.03
379.51	11.05
379.718	11.02
379.927	10.38
380.135	10.5
380.344	10.07
380.552	9.91
380.761	9.95
380.969	10.08
381.177	9.7
381.386	9.86
381.594	9.15
381.803	9.01
382.011	8.9
382.219	9.19
382.428	8.84
382.636	9.39
382.845	9.62
383.053	9.81
383.261	9.57
383.469	9.83
383.678	9.48
383.886	9.58
384.094	8.9
384.302	9.08
384.511	9
384.719	9.53
384.927	9.59
385.135	9.65
385.343	9.2
385.552	9.51
385.76	8.77
385.968	9.41
386.176	9.89
386.384	10.18
386.592	10.05
386.8	10.05
387.008	10.07
387.216	10
387.424	9.83
387.633	9.58
387.841	9.32
388.049	9.61
388.257	9.43
388.465	8.96
388.672	8.96
388.88	9.3
389.088	9.39
389.296	8.96
389.504	8.97
389.712	9.07
389.92	9.26
390.128	8.9
390.336	8.47
390.544	8.24
390.751	8
390.959	8.34
391.167	8.17
391.375	7.79
391.583	7.58
391.79	7.66
391.998	7.48
392.206	7.44
392.414	7.24
392.621	7.48
392.829	7.24
393.037	7.57
393.244	7.35
393.452	7.09
393.66	6.79
393.867	7.05
394.075	7.08
394.283	6.82
394.49	6.82
394.698	7.36
394.905	7.16
395.113	7.32
395.32	7.2
395.528	7.06
395.735	7.09
395.943	6.98
396.15	6.67
396.358	6.11
396.565	6.34
396.773	6.27
396.98	6.05
397.188	6.19
397.395	5.86
397.602	5.89
397.81	5.66
398.017	5.7
398.225	6.23
398.432	6.44
398.639	6.81
398.847	6.72
399.054	6.46
399.261	6.74
399.468	6.7
399.676	6.85
399.883	6.64
400.09	6.91
400.297	6.94
400.505	7.2
400.712	7.2
400.919	7.21
401.126	7.2
401.333	7.46
401.54	6.91
401.748	6.8
401.955	6.64
402.162	6.71
402.369	6.46
402.576	6.19
402.783	5.72
402.99	5.4
403.197	5
403.404	5.05
403.611	4.81
403.818	4.97
404.025	5.08
404.232	5.32
404.439	5.21
404.646	5.28
404.853	5.28
405.06	5.09
405.267	5.22
405.474	5.36
405.681	5.36
405.887	5.48
406.094	5.57
406.301	5.7
406.508	5.54
406.715	5.51
406.922	5.62
407.128	5.37
407.335	5.54
407.542	5.74
407.749	5.76
407.955	5.86
408.162	5.66
408.369	5.59
408.575	5.65
408.782	5.99
408.989	5.96
409.195	5.77
409.402	6.05
409.609	6.16
409.815	6.18
410.022	6.29
410.228	5.98
410.435	6.22
410.642	5.82
410.848	5.48
411.055	5.09
411.261	5.25
411.468	5.25
411.674	5.29
411.881	5.36
412.087	5.47
412.294	5.36
412.5	5.56
412.706	5.34
412.913	5.58
413.119	5.66
413.326	5.93
413.532	5.93
413.738	5.76
413.945	5.79
414.151	5.74
414.357	5.36
414.564	5.64
414.77	5.72
414.976	5.52
415.182	5.53
415.389	5.23
415.595	4.95
415.801	4.88
416.007	5.09
416.214	5
416.42	4.94
416.626	4.98
416.832	4.75
417.038	4.61
417.244	4.78
417.45	4.67
417.657	4.97
417.863	5.13
418.069	5.21
418.275	5.07
418.481	5.03
418.687	4.89
418.893	4.92
419.099	4.7
419.305	4.65
419.511	4.8
419.717	4.87
419.923	4.64
420.129	4.64
420.335	4.62
420.541	4.6
420.746	4.54
420.952	4.63
421.158	4.48
421.364	4.6
421.57	4.58
421.776	4.33
421.982	4.32
422.187	4.42
422.393	4.28
422.599	4.19
422.805	4.35
423.01	4.37
423.216	4.44
423.422	4.5
423.628	4.45
423.833	4.35
424.039	4.52
424.245	4.49
424.45	4.41
424.656	4.45
424.862	4.42
425.067	4.17
425.273	4.23
425.478	4
425.684	3.88
425.889	3.82
426.095	3.97
426.301	4.07
426.506	3.99
426.712	4.05
426.917	3.95
427.123	3.95
427.328	4.13
427.533	4
427.739	4.11
427.944	4.26
428.15	4.58
428.355	4.5
428.561	4.43
428.766	4.67
428.971	4.57
429.177	4.56
429.382	4.63
429.587	4.6
429.793	4.78
429.998	4.88
430.203	5.08
430.408	4.99
430.614	4.97
430.819	4.78
431.024	4.69
431.229	4.68
431.434	4.58
431.64	4.59
431.845	4.64
432.05	4.45
432.255	4.45
432.46	4.31
432.665	4.33
432.87	4.54
433.076	4.57
433.281	4.66
433.486	4.74
433.691	4.89
433.896	4.83
434.101	4.69
434.306	4.73
434.511	4.68
434.716	4.83
434.921	4.77
435.126	4.58
435.331	4.66
435.535	4.54
435.74	4.39
435.945	4.49
436.15	4.54
436.355	4.69
436.56	4.66
436.765	4.78
436.97	4.64
437.174	4.39
437.379	4.27
437.584	4.13
437.789	4.17
437.993	4.3
438.198	4.3
438.403	4.35
438.608	4.24
438.812	4.3
439.017	4.15
439.222	4.09
439.426	4.13
439.631	4.19
439.836	4.1
440.04	4.13
440.245	4.26
440.45	4.29
440.654	4.31
440.859	4.54
441.063	4.54
441.268	4.58
441.472	4.63
441.677	4.84
441.881	4.89
442.086	5.04
442.29	4.97
442.495	4.91
442.699	4.9
442.904	4.7
443.108	4.54
443.312	4.46
443.517	4.51
443.721	4.36
443.925	4.26
444.13	4.34
444.334	4.37
444.538	4.33
444.743	4.23
444.947	4.05
445.151	4.25
445.356	4.21
445.56	4.39
445.764	4.3
445.968	4.33
446.173	4.3
446.377	4.25
446.581	4.21
446.785	4.21
446.989	4.19
447.193	4.29
447.398	4.2
447.602	4.14
447.806	4.08
448.01	4.13
448.214	4.14
448.418	4.08
448.622	4.23
448.826	4.24
449.03	4.16
449.234	4.17
449.438	4.13
449.642	4.17
449.846	4.24
450.05	4.17
450.254	4.18
450.458	4.1
450.662	4.01
450.866	3.79
451.069	3.67
451.273	3.69
451.477	3.7
451.681	3.65
451.885	3.64
452.089	3.71
452.292	3.66
452.496	3.7
452.7	3.94
452.904	4.06
453.107	4.07
453.311	4.1
453.515	4.16
453.719	4.25
453.922	4.37
454.126	4.29
454.33	4.18
454.533	4.28
454.737	4.29
454.94	4.11
455.144	4.17
455.348	4.23
455.551	4.19
455.755	4.32
455.958	4.1
456.162	4.06
456.365	4.26
456.569	4.4
456.772	4.3
456.976	4.23
457.179	4.01
457.383	4.05
457.586	4.11
457.79	4.29
457.993	4.28
458.196	4.32
458.4	4.51
458.603	4.52
458.807	4.33
459.01	4.29
459.213	4.19
459.417	4.33
459.62	4.26
459.823	4.18
460.026	4.08
460.23	3.98
460.433	4.03
460.636	3.82
460.839	3.62
461.042	3.62
461.246	3.71
461.449	3.72
461.652	3.79
461.855	3.75
462.058	3.83
462.261	3.87
462.464	3.89
462.668	3.78
462.871	3.98
463.074	4.08
463.277	4.14
463.48	4.07
463.683	4.07
463.886	4.03
464.089	3.97
464.292	3.87
464.495	4.12
464.698	4.28
464.901	4.52
465.104	4.33
465.306	4.46
465.509	4.5
465.712	4.38
465.915	4.45
466.118	4.42
466.321	4.66
466.524	4.71
466.726	4.51
466.929	4.28
467.132	4.14
467.335	4.27
467.538	4.27
467.74	4.32
467.943	4.41
468.146	4.29
468.348	4.33
468.551	4.27
468.754	4.14
468.956	4.07
469.159	4.09
469.362	4.08
469.564	3.9
469.767	3.78
469.969	3.86
470.172	4.08
470.375	4.19
470.577	4.36
470.78	4.46
470.982	4.75
471.185	4.88
471.387	5.02
471.59	4.93
471.792	5.05
471.995	5.12
472.197	4.82
472.399	4.68
472.602	4.71
472.804	4.56
473.007	4.32
473.209	4.07
473.411	4.03
473.614	3.94
473.816	4.15
474.018	4.21
474.22	4.16
474.423	4.38
474.625	4.15
474.827	4.07
475.03	4.04
475.232	4.14
475.434	4.25
475.636	4.16
475.838	4.13
476.04	3.94
476.243	3.94
476.445	3.88
476.647	3.94
476.849	4.26
477.051	4.26
477.253	4.25
477.455	4.26
477.657	4.18
477.859	4.32
478.061	4.26
478.263	4.36
478.465	4.3
478.667	4.39
478.869	4.26
479.071	4.07
479.273	4.06
479.475	4.02
479.677	4.01
479.879	4
480.081	3.82
480.283	4.04
480.485	4.06
480.686	4.09
480.888	3.98
481.09	4.04
481.292	4.12
481.494	4.06
481.695	4.08
481.897	4.05
482.099	4.02
482.301	4.08
482.502	4.01
482.704	3.98
482.906	3.86
483.107	3.85
483.309	3.72
483.511	3.7
483.712	3.65
483.914	3.65
484.115	3.64
484.317	3.63
484.519	3.59
484.72	3.62
484.922	3.58
485.123	3.64
485.325	3.64
485.526	3.76
485.728	3.77
485.929	3.81
486.131	3.8
486.332	3.83
486.534	3.89
486.735	3.8
486.936	3.77
487.138	3.79
487.339	3.77
487.541	3.74
487.742	3.74
487.943	3.71
488.144	3.72
488.346	3.76
488.547	3.75
488.748	3.64
488.95	3.74
489.151	3.67
489.352	3.68
489.553	3.71
489.755	3.77
489.956	3.72
490.157	3.72
490.358	3.79
490.559	3.8
490.76	3.85
490.961	3.95
491.163	3.89
491.364	3.97
491.565	4.04
491.766	4
491.967	3.97
492.168	3.93
492.369	3.91
492.57	3.85
492.771	3.81
492.972	3.67
493.173	3.61
493.374	3.67
493.575	3.66
493.776	3.48
493.976	3.46
494.177	3.47
494.378	3.59
494.579	3.63
494.78	3.65
494.981	3.73
495.182	3.86
495.382	3.94
495.583	3.99
495.784	4
495.985	4.05
496.185	4.15
496.386	4.16
496.587	4.27
496.788	4.28
496.988	4.32
497.189	4.25
497.39	4.3
497.59	4.39
497.791	4.39
497.992	4.37
498.192	4.37
498.393	4.3
498.593	4.33
498.794	4.16
498.994	4.16
499.195	4.06
499.395	4.19
499.596	4.07
499.796	3.99
499.997	4.13
500.197	4.04
500.398	4.1
500.598	4.15
500.799	4.22
500.999	4.16
501.199	4.21
501.4	4.34
501.6	4.38
501.801	4.36
502.001	4.5
502.201	4.34
502.402	4.35
502.602	4.26
502.802	4.22
503.002	4.17
503.203	4.34
503.403	4.49
503.603	4.46
503.803	4.31
504.003	4.43
504.204	4.18
504.404	4.16
504.604	4.28
504.804	4.33
505.004	4.38
505.204	4.44
505.404	4.36
505.604	4.29
505.804	4.33
506.005	4.43
506.205	4.41
506.405	4.5
506.605	4.65
506.805	4.48
507.005	4.6
507.204	4.61
507.404	4.41
507.604	4.45
507.804	4.44
508.004	4.38
508.204	4.35
508.404	4.42
508.604	4.5
508.804	4.51
509.003	4.61
509.203	4.59
509.403	4.55
509.603	4.66
509.803	4.78
510.002	4.69
510.202	4.83
510.402	4.85
510.602	4.72
510.801	4.7
511.001	4.52
511.201	4.49
511.4	4.45
511.6	4.45
511.8	4.43
511.999	4.38
512.199	4.45
512.398	4.29
512.598	4.16
512.797	4.22
512.997	4.12
513.197	4.11
513.396	4.08
513.596	4.01
513.795	4.13
513.994	4.08
514.194	3.98
514.393	4.01
514.593	4.28
514.792	4.37
514.992	4.34
515.191	4.4
515.39	4.51
515.59	4.56
515.789	4.67
515.988	4.61
516.188	4.68
516.387	4.64
516.586	4.55
516.786	4.46
516.985	4.59
517.184	4.65
517.383	4.72
517.582	4.73
517.782	4.7
517.981	4.65
518.18	4.66
518.379	4.71
518.578	4.85
518.777	4.9
518.976	4.9
519.176	4.78
519.375	4.78
519.574	4.78
519.773	4.81
519.972	4.91
520.171	4.97
520.37	4.85
520.569	4.81
520.768	4.9
520.967	4.98
521.166	4.92
521.365	4.95
521.564	4.94
521.762	4.94
521.961	4.88
522.16	4.85
522.359	4.8
522.558	5.05
522.757	5.02
522.956	4.78
523.154	4.77
523.353	4.72
523.552	4.65
523.751	4.73
523.949	4.66
524.148	4.68
524.347	4.71
524.546	4.84
524.744	4.71
524.943	4.66
525.142	4.8
525.34	4.75
525.539	4.79
525.737	4.86
525.936	4.82
526.135	4.73
526.333	4.82
526.532	4.82
526.73	4.77
526.929	4.74
527.127	4.89
527.326	4.77
527.524	4.78
527.723	4.75
527.921	4.8
528.12	4.78
528.318	4.94
528.516	4.91
528.715	4.83
528.913	4.84
529.112	4.85
529.31	4.8
529.508	4.82
529.707	4.82
529.905	4.82
530.103	4.83
530.301	4.88
530.5	4.84
530.698	4.8
530.896	4.91
531.094	4.97
531.293	4.95
531.491	5.06
531.689	5.11
531.887	5.12
532.085	5.26
532.283	5.19
532.481	5.17
532.68	5.14
532.878	5.26
533.076	5.11
533.274	5.02
533.472	5.16
533.67	5.18
533.868	5.16
534.066	5.19
534.264	5.17
534.462	5.12
534.66	5.08
534.858	5.08
535.056	5.08
535.253	5.3
535.451	5.38
535.649	5.36
535.847	5.27
536.045	5.41
536.243	5.4
536.441	5.34
536.638	5.53
536.836	5.53
537.034	5.62
537.232	5.64
537.43	5.59
537.627	5.6
537.825	5.65
538.023	5.64
538.22	5.69
538.418	5.83
538.616	6.05
538.813	5.94
539.011	6.14
539.209	6.13
539.406	6.1
539.604	6.24
539.801	6.34
539.999	6.27
540.196	6.37
540.394	6.28
540.591	6.29
540.789	6.16
540.986	6.26
541.184	6.27
541.381	6.3
541.579	6.27
541.776	6.22
541.974	6.09
542.171	6.11
542.368	6.09
542.566	6.16
542.763	6.11
542.96	6.18
543.158	6.2
543.355	6.15
543.552	6.13
543.75	6.22
543.947	6.21
544.144	6.26
544.341	6.33
544.539	6.43
544.736	6.45
544.933	6.53
545.13	6.55
545.327	6.56
545.524	6.66
545.722	6.78
545.919	6.88
546.116	7
546.313	7.1
546.51	7.15
546.707	7.01
546.904	7
547.101	6.99
547.298	7.13
547.495	7.19
547.692	7.33
547.889	7.24
548.086	7.18
548.283	7.16
548.48	7.39
548.677	7.54
548.874	7.7
549.07	7.92
549.267	8.22
549.464	8.21
549.661	8.31
549.858	8.13
550.055	8.33
550.251	8.33
550.448	8.54
550.645	8.41
550.842	8.29
551.038	8.37
551.235	8.26
551.432	8.11
551.628	8.16
551.825	8.13
552.022	8.27
552.218	8.23
552.415	8.27
552.612	8.23
552.808	8.23
553.005	8.28
553.201	8.14
553.398	8.25
553.594	8.18
553.791	8.27
553.987	8.22
554.184	8.19
554.38	8.25
554.577	8.42
554.773	8.49
554.97	8.55
555.166	8.63
555.362	8.82
555.559	8.59
555.755	8.74
555.952	8.74
556.148	9.05
556.344	9.13
556.541	9
556.737	8.8
556.933	8.85
557.129	9.15
557.326	8.99
557.522	9.05
557.718	9.34
557.914	9.29
558.11	9.41
558.307	9.12
558.503	9.14
558.699	9.43
558.895	9.52
559.091	9.6
559.287	9.26
559.483	9.42
559.679	9.6
559.876	9.51
560.072	9.47
560.268	9.33
560.464	9.46
560.66	9.67
560.856	9.58
561.052	9.77
561.247	9.68
561.443	9.82
561.639	9.93
561.835	9.87
562.031	9.95
562.227	10.01
562.423	9.9
562.619	10.12
562.815	9.99
563.01	10.06
563.206	10.24
563.402	10.25
563.598	10.14
563.793	10.05
563.989	10.04
564.185	10.24
564.381	10.26
564.576	10.36
564.772	10.19
564.968	10.41
565.163	10.46
565.359	10.18
565.555	10.19
565.75	10.38
565.946	10.31
566.141	10.43
566.337	10.28
566.532	10.41
566.728	10.53
566.923	10.47
567.119	10.38
567.314	10.43
567.51	10.43
567.705	10.38
567.901	10.52
568.096	10.66
568.292	10.55
568.487	10.73
568.682	10.69
568.878	10.66
569.073	10.72
569.268	10.65
569.464	10.58
569.659	10.73
569.854	10.81
570.05	10.66
570.245	10.6
570.44	10.59
570.635	10.39
570.831	10.35
571.026	10.37
571.221	10.43
571.416	10.57
571.611	10.68
571.806	10.73
572.002	10.98
572.197	10.92
572.392	10.9
572.587	10.97
572.782	11.25
572.977	11.41
573.172	11.53
573.367	11.75
573.562	11.76
573.757	11.81
573.952	11.85
574.147	11.58
574.342	11.64
574.537	11.78
574.732	11.76
574.927	11.43
575.121	11.43
575.316	11.3
575.511	11.2
575.706	11.14
575.901	11.18
576.096	11.08
576.29	11.1
576.485	10.99
576.68	10.98
576.875	10.96
577.069	11.11
577.264	10.98
577.459	11
577.654	10.84
577.848	10.98
578.043	10.89
578.238	11.07
578.432	11.2
578.627	11.46
578.821	11.37
579.016	11.56
579.21	11.67
579.405	11.77
579.6	11.82
579.794	11.84
579.989	11.81
580.183	12.08
580.378	11.93
580.572	11.87
580.766	11.61
580.961	11.77
581.155	11.69
581.35	11.68
581.544	11.69
581.738	11.77
581.933	11.99
582.127	12.11
582.321	11.63
582.516	11.68
582.71	11.71
582.904	12.08
583.099	11.87
583.293	11.8
583.487	11.78
583.681	11.79
583.875	11.75
584.07	11.66
584.264	11.59
584.458	11.88
584.652	12.11
584.846	12.14
585.04	12.14
585.234	12.36
585.428	12.26
585.623	12.35
585.817	12.31
586.011	12.54
586.205	12.44
586.399	12.38
586.593	12.42
586.787	12.18
586.981	12.11
587.174	12.03
587.368	11.97
587.562	12.49
587.756	12.41
587.95	12.48
588.144	12.36
588.338	12.58
588.532	12.52
588.725	12.32
588.919	12.52
589.113	12.55
589.307	12.47
589.501	12.67
589.694	12.47
589.888	12.43
590.082	12.39
590.275	12.31
590.469	12.27
590.663	12.37
590.856	12.52
591.05	12.27
591.244	12.47
591.437	12.35
591.631	12.18
591.824	12.12
592.018	12.25
592.212	12.45
592.405	12.52
592.599	12.51
592.792	12.34
592.986	12.16
593.179	12.21
593.372	11.97
593.566	12.2
593.759	12.35
593.953	12.4
594.146	12.37
594.339	12.2
594.533	12.23
594.726	12.19
594.92	12.63
595.113	12.82
595.306	12.88
595.499	12.89
595.693	12.95
595.886	12.94
596.079	13
596.272	13.12
596.466	13.19
596.659	12.85
596.852	12.85
597.045	12.44
597.238	12.21
597.431	12.07
597.624	12.18
597.818	12.13
598.011	12.02
598.204	11.95
598.397	11.83
598.59	11.67
598.783	11.97
598.976	12.04
599.169	12.21
599.362	12.37
599.555	12.62
599.748	12.66
599.941	12.79
600.134	12.82
600.326	12.65
600.519	12.48
600.712	12.5
600.905	12.48
601.098	12.47
601.291	12.77
601.483	12.9
601.676	12.75
601.869	12.66
602.062	12.43
602.255	12.5
602.447	12.64
602.64	12.84
602.833	13.03
603.025	13.04
603.218	13.06
603.411	12.86
603.603	12.85
603.796	13.01
603.989	12.95
604.181	13.02
604.374	12.87
604.566	12.73
604.759	12.72
604.951	12.58
605.144	12.58
605.336	12.49
605.529	12.31
605.721	12.31
605.914	12.1
606.106	12.1
606.299	11.93
606.491	11.97
606.683	12.05
606.876	12.06
607.068	12.2
607.26	12.08
607.453	12.06
607.645	12.22
607.837	11.99
608.03	12.01
608.222	11.85
608.414	11.86
608.606	11.88
608.799	12.04
608.991	12.08
609.183	11.86
609.375	11.89
609.567	11.83
609.759	11.67
609.952	11.83
610.144	11.98
610.336	12.37
610.528	12.57
610.72	12.75
610.912	12.56
611.104	12.67
611.296	12.77
611.488	12.91
611.68	13.09
611.872	13.4
612.064	13.34
612.256	13.44
612.448	13.43
612.64	13.48
612.832	13.31
613.023	13.44
613.215	13.47
613.407	13.7
613.599	13.51
613.791	13.55
613.983	13.55
614.174	13.6
614.366	13.73
614.558	13.37
614.75	13.14
614.941	13.04
615.133	13.12
615.325	12.89
615.516	12.8
615.708	13.11
615.9	13.45
616.091	13.54
616.283	13.62
616.475	13.38
616.666	13.63
616.858	13.69
617.049	13.63
617.241	13.34
617.432	13.08
617.624	13.13
617.815	12.87
618.007	12.22
618.198	11.8
618.39	11.73
618.581	11.42
618.773	11.22
618.964	11.49
619.155	11.68
619.347	11.77
619.538	11.92
619.729	11.97
619.921	12.13
620.112	12.52
620.303	13
620.494	13.14
620.686	13.39
620.877	13.64
621.068	13.35
621.259	13.45
621.451	13.65
621.642	13.78
621.833	13.66
622.024	13.47
622.215	13.59
622.406	13.36
622.597	13.55
622.788	13.73
622.98	13.67
623.171	13.78
623.362	13.94
623.553	14.21
623.744	13.98
623.935	14.13
624.126	14.18
624.317	13.83
624.508	13.95
624.698	13.77
624.889	13.73
625.08	13.65
625.271	13.76
625.462	13.37
625.653	13.06
625.844	13.21
626.034	13.11
626.225	13.17
626.416	13.41
626.607	13.55
626.798	13.42
626.988	13.44
627.179	13.55
627.37	13.14
627.56	13.34
627.751	13.54
627.942	13.57
628.132	13.3
628.323	13.3
628.514	13.22
628.704	12.71
628.895	13.02
629.085	12.91
629.276	12.83
629.466	13.15
629.657	13.24
629.847	12.95
630.038	12.76
630.228	12.92
630.419	12.99
630.609	12.85
630.8	13.33
630.99	13
631.181	13.06
631.371	12.82
631.561	12.85
631.752	12.72
631.942	12.99
632.132	13.36
632.323	13.47
632.513	13.34
632.703	13.42
632.893	13.12
633.084	13.38
633.274	13.47
633.464	13.62
633.654	13.56
633.844	13.42
634.034	13.22
634.225	12.85
634.415	12.83
634.605	12.71
634.795	12.74
634.985	12.92
635.175	12.64
635.365	12.67
635.555	13.06
635.745	13.07
635.935	13.41
636.125	13.12
636.315	13.34
636.505	13.33
636.695	13.56
636.885	13.68
637.075	13.55
637.265	13.48
637.455	13.09
637.644	12.75
637.834	12.83
638.024	12.75
638.214	13.17
638.404	13.19
638.593	13.38
638.783	13.12
638.973	13.17
639.163	13.38
639.352	13.54
639.542	14.04
639.732	14.17
639.921	13.91
640.111	13.56
640.301	13.45
640.49	13.63
640.68	13.49
640.87	13.56
641.059	13.44
641.249	13.61
641.438	13.68
641.628	13.37
641.817	13.82
642.007	14.02
642.196	14.31
642.386	14.28
642.575	14.32
642.764	14.32
642.954	14.28
643.143	14.31
643.333	13.97
643.522	13.79
643.711	13.73
643.901	13.5
644.09	13.44
644.279	13.33
644.469	12.99
644.658	12.92
644.847	13.01
645.036	13.12
645.226	12.93
645.415	12.98
645.604	13.01
645.793	13.02
645.982	12.92
646.171	12.91
646.361	12.88
646.55	13.53
646.739	13.46
646.928	13.77
647.117	13.57
647.306	13.86
647.495	13.74
647.684	14.2
647.873	14.26
648.062	14.08
648.251	14.49
648.44	14.69
648.629	14.55
648.818	14.68
649.007	14.22
649.196	14.38
649.384	14.36
649.573	14.44
649.762	14.05
649.951	14.39
650.14	14.42
650.328	14.17
650.517	14.14
650.706	14.12
650.895	14.04
651.083	14.39
651.272	14.7
651.461	14.34
651.65	14.12
651.838	14.23
652.027	13.96
652.216	13.9
652.404	13.92
652.593	14.09
652.781	13.85
652.97	13.65
653.158	13.37
653.347	13.12
653.535	13.1
653.724	13.64
653.912	13.73
654.101	13.94
654.289	13.67
654.478	13.41
654.666	13.43
654.855	13.76
655.043	13.96
655.231	13.7
655.42	13.9
655.608	13.93
655.796	13.56
655.985	13.33
656.173	13.01
656.361	13.35
656.55	13.35
656.738	13.59
656.926	13.43
657.114	13.28
657.302	13.88
657.491	13.7
657.679	13.95
657.867	14.19
658.055	14.45
658.243	14.5
658.431	14.43
658.619	14.74
658.807	14.45
658.996	14.57
659.184	14.44
659.372	14.33
659.56	14.17
659.748	13.98
659.936	14.03
660.124	13.84
660.311	14.21
660.499	14.36
660.687	14.24
660.875	14.31
661.063	14.25
661.251	14.5
661.439	14.15
661.627	14.45
661.814	14.72
662.002	14.39
662.19	14.39
662.378	13.89
662.565	13.89
662.753	14
662.941	13.87
663.129	13.51
663.316	13.63
663.504	13.98
663.692	13.73
663.879	13.93
664.067	13.9
664.254	14.36
664.442	14.83
664.63	14.9
664.817	14.82
665.005	14.69
665.192	15.03
665.38	15.01
665.567	15.3
665.755	15.77
665.942	15.34
666.13	15.69
666.317	15.39
666.504	15.09
666.692	14.68
666.879	14.9
667.067	14.97
667.254	15.2
667.441	15.01
667.629	14.66
667.816	14.27
668.003	14.71
668.19	14.61
668.378	14.44
668.565	14.1
668.752	14.32
668.939	13.85
669.127	14.11
669.314	14.14
669.501	13.84
669.688	14.13
669.875	14.3
670.062	14.25
670.249	14.4
670.436	14.33
670.623	14.38
670.81	14.29
670.997	14.59
671.184	14.52
671.371	14.37
671.558	14.79
671.745	14.51
671.932	14.53
672.119	14.35
672.306	14.15
672.493	14.49
672.68	14.61
672.867	14.59
673.054	14.9
673.24	15.06
673.427	14.75
673.614	14.47
673.801	14.45
673.988	14.49
674.174	14.95
674.361	15.14
674.548	15.09
674.734	15.42
674.921	15.45
675.108	14.97
675.294	14.61
675.481	15.09
675.668	15.51
675.854	15.91
676.041	15.75
676.227	15.79
676.414	15.72
676.601	15.7
676.787	15.66
676.974	15.94
677.16	15.96
677.347	16.22
677.533	16.34
677.719	16.55
677.906	16.43
678.092	16.58
678.279	15.79
678.465	15.69
678.651	15.49
678.838	15.75
679.024	15.19
679.21	15.37
679.397	15.06
679.583	14.74
679.769	14.36
679.955	14.38
680.142	14.15
680.328	14.5
680.514	14.42
680.7	14.57
680.886	14.28
681.073	14.59
681.259	14.32
681.445	14.73
681.631	15.03
681.817	15.24
682.003	15.16
682.189	15.19
682.375	15.11
682.561	15.19
682.747	15.02
682.933	15.15
683.119	15.05
683.305	15.36
683.491	14.85
683.677	14.21
683.863	14.32
684.049	14.26
684.235	14.53
684.42	14.35
684.606	14.56
684.792	14.97
684.978	14.54
685.164	14.46
685.349	14.52
685.535	14.74
685.721	15.08
685.907	14.73
686.092	14.66
686.278	14.5
686.464	14.91
686.649	14.92
686.835	14.59
687.021	14.94
687.206	15.21
687.392	14.88
687.577	15.32
687.763	15.24
687.948	15.46
688.134	15.78
688.319	15.92
688.505	15.62
688.69	15.51
688.876	15.47
689.061	15.15
689.247	15.2
689.432	15.44
689.618	15.16
689.803	15.13
689.988	15.07
690.174	14.88
690.359	14.99
690.544	15.46
690.73	15.58
690.915	15.86
691.1	15.62
691.285	16.27
691.471	16.1
691.656	16.06
691.841	16.78
692.026	17.01
692.211	17.17
692.396	16.91
692.582	17.28
692.767	17.65
692.952	17.92
693.137	18.68
693.322	18.58
693.507	18.56
693.692	18.87
693.877	18.74
694.062	18.63
694.247	18.2
694.432	18.5
694.617	17.71
694.802	17.59
694.987	16.83
695.172	16.21
695.357	15.73
695.541	15.53
695.726	15.41
695.911	14.2
696.096	14.21
696.281	14.72
696.466	14.53
696.65	14.96
696.835	14.25
697.02	14.73
697.204	15.3
697.389	15.48
697.574	15.77
697.759	15.26
697.943	16.13
698.128	15.94
698.312	15.76
698.497	15.22
698.682	14.82
698.866	15.13
699.051	15.03
699.235	14.73
699.42	14.54
699.604	14.7
699.789	15.04
699.973	14.86
700.158	15.03
700.342	14.61
700.527	14.69
700.711	14.72
700.895	14.77
701.08	14.91
701.264	15.08
701.448	15.48
701.633	15.52
701.817	15.57
702.001	15.34
702.186	15.59
702.37	16.54
702.554	17.01
702.738	17.08
702.923	16.54
703.107	17.06
703.291	17.23
703.475	16.35
703.659	15.51
703.843	15.64
704.027	16.08
704.212	15.61
704.396	15.22
704.58	15.69
704.764	15.91
704.948	16.65
705.132	15.71
705.316	15.67
705.5	16.05
705.684	17.04
705.868	16.73
706.052	16.44
706.235	17.28
706.419	17.02
706.603	17.01
706.787	17.08
706.971	16.58
707.155	16.96
707.339	17.43
707.522	18.06
707.706	18.33
707.89	18.54
708.074	19.09
708.257	18.32
708.441	18.79
708.625	18.95
708.808	19.18
708.992	19.94
709.176	19.68
709.359	19.16
709.543	18.6
709.727	18.27
709.91	18.03
710.094	17.15
710.277	17.45
710.461	17.7
710.644	17.67
710.828	17.56
711.011	17.13
711.195	17.51
711.378	17.92
711.562	18.02
711.745	17.62
711.928	17.79
712.112	18.29
712.295	18.43
712.478	17.64
712.662	17.32
712.845	16.8
713.028	17.32
713.212	16.93
713.395	16.22
713.578	15.97
713.761	15.69
713.945	15.46
714.128	15.6
714.311	15.53
714.494	15.63
714.677	16.26
714.86	17.04
715.043	16.26
715.227	16.7
715.41	16.98
715.593	17.18
715.776	17.72
715.959	17.86
716.142	17.6
716.325	17.48
716.508	18.2
716.691	18.24
716.874	18.1
717.057	18.37
717.239	17.97
717.422	17.91
717.605	18.35
717.788	17.9
717.971	17.56
718.154	17.58
718.337	18.54
718.519	17.4
718.702	16.73
718.885	16.83
719.068	17.47
719.25	18.04
719.433	18.51
719.616	18.1
719.798	17.98
719.981	19.12
720.164	19.41
720.346	18.79
720.529	19.6
720.712	20.08
720.894	20.5
721.077	19.66
721.259	19.27
721.442	18.54
721.624	18.28
721.807	19.63
721.989	18.49
722.172	18.2
722.354	17.94
722.537	17.44
722.719	16.65
722.901	15.58
723.084	15.53
723.266	15.52
723.448	17.55
723.631	17.69
723.813	17.53
723.995	17.92
724.178	18.1
724.36	17.65
724.542	17.77
724.724	18.86
724.907	18.97
725.089	19.53
725.271	19.86
725.453	18.31
725.635	18.26
725.817	18.37
725.999	18.65
726.181	18.32
726.364	18.31
726.546	18.12
726.728	18.45
726.91	19
727.092	18.71
727.274	18.95
727.456	19.32
727.638	19.6
727.819	19.14
728.001	17.75
728.183	17.71
728.365	17.44
728.547	18.02
728.729	17.53
728.911	17.01
729.093	16.84
729.274	16.35
729.456	16.13
729.638	16.54
729.82	16.23
730.001	17.53
730.183	17.11
730.365	17.26
730.546	17.09
730.728	16.13
730.91	16.75
731.091	18.07
731.273	18.17
731.455	19
731.636	18.83
731.818	18.27
731.999	18.84
732.181	19.59
732.362	20.2
732.544	20.23
732.725	21.26
732.907	20.83
733.088	19.65
733.27	20.3
733.451	19.55
733.633	19.6
733.814	20.93
733.995	20.36
734.177	20.18
734.358	19.64
734.539	19.61
734.721	19.49
734.902	19.67
735.083	19.33
735.264	18.86
735.446	18.67
735.627	18.31
735.808	17.54
735.989	18.29
736.17	18.44
736.351	18.37
736.533	17.78
736.714	18.36
736.895	18.59
737.076	19.11
737.257	19
737.438	19.4
737.619	18.97
737.8	19.51
737.981	18.31
738.162	18.67
738.343	19.51
738.524	20.1
738.705	19.74
738.886	19.9
739.067	20.37
739.247	20.06
739.428	20.13
739.609	20.9
739.79	20.63
739.971	20.83
740.151	21.47
740.332	21.25
740.513	21.4
740.694	20.13
740.874	19.64
741.055	19.02
741.236	19.54
741.417	19.89
741.597	18.81
741.778	18.26
741.958	19.1
742.139	18.85
742.32	17.79
742.5	18.57
742.681	19.69
742.861	19.84
743.042	20.15
743.222	19.16
743.403	17.91
743.583	18.4
743.764	18.6
743.944	17.65
744.124	17.56
744.305	17.85
744.485	17.55
744.666	17.35
744.846	18.23
745.026	18.26
745.207	19.73
745.387	21.89
745.567	22.41
745.747	23.26
745.928	23.39
746.108	23.23
746.288	23.41
746.468	22.71
746.648	22.88
746.829	22.06
747.009	22.58
747.189	21.75
747.369	19.57
747.549	19.07
747.729	18.7
747.909	19.09
748.089	18.73
748.269	18.59
748.449	18.5
748.629	20.33
748.809	19.58
748.989	18.58
749.169	19.77
749.349	20.47
749.529	21.38
749.709	21.03
749.889	22.1
750.068	21.85
750.248	22.1
750.428	22.7
750.608	20.54
750.788	20.21
750.967	20.12
751.147	18.7
751.327	19.4
751.507	18.11
751.686	18.41
751.866	17.95
752.046	18.02
752.225	18.53
752.405	19.48
752.585	19.39
752.764	20.11
752.944	20.23
753.123	20.63
753.303	19.44
753.482	20.34
753.662	20.18
753.841	20.14
754.021	21.04
754.2	19.54
754.38	18.39
754.559	18.82
754.739	18.38
754.918	18.9
755.097	17.89
755.277	19.16
755.456	18.34
755.635	18.94
755.815	17.72
755.994	17.87
756.173	19.51
756.352	20.02
756.532	20.38
756.711	20.84
756.89	21.03
757.069	21.86
757.248	21.95
757.427	22.7
757.607	22.75
757.786	23.71
757.965	22.41
758.144	21.73
758.323	21.22
758.502	21.47
758.681	21.95
758.86	21.33
759.039	22.36
759.218	22.13
759.397	22.59
759.576	21.26
759.755	22.18
759.934	23.46
760.113	24.3
760.291	23.33
760.47	23.31
760.649	23.23
760.828	23.96
761.007	23.97
761.186	23.98
761.364	24.34
761.543	25.61
761.722	24.16
761.901	23.93
762.079	23.53
762.258	24.26
762.437	23.26
762.615	22.75
762.794	22.29
762.972	21.65
763.151	21.19
763.33	19.41
763.508	19.18
763.687	19.18
763.865	19.29
764.044	19.06
764.222	19.56
764.401	20.74
764.579	20.79
764.758	21
764.936	20.93
765.114	21.52
765.293	23.36
765.471	23.49
765.65	23.47
765.828	23.64
766.006	23.76
766.184	23.01
766.363	21.83
766.541	22.06
766.719	21.98
766.898	22.26
767.076	20.9
767.254	19.98
767.432	19.92
767.61	20.17
767.788	20.09
767.967	21.18
768.145	21.49
768.323	21.52
768.501	21.94
768.679	21.56
768.857	22.23
769.035	21.56
769.213	22.81
769.391	23
769.569	23.26
769.747	23.05
769.925	23.31
770.103	23.21
770.281	24.13
770.459	24.88
770.636	25.14
770.814	24.61
770.992	26.28
771.17	26.41
771.348	27.28
771.525	27.11
771.703	27.68
771.881	27.78
772.059	29.41
772.236	28.8
772.414	26.79
772.592	27.26
772.769	27.79
772.947	27.74
773.125	27.48
773.302	25.59
773.48	26.33
773.657	25.51
773.835	24.34
774.013	23.45
774.19	23.06
774.368	25.75
774.545	26.47
774.723	27.49
774.9	29.07
775.077	27.41
775.255	29.12
775.432	31.67
775.61	32.15
775.787	32.89
775.964	33.13
776.142	34.61
776.319	33.58
776.496	34.52
776.674	33.3
776.851	31.03
777.028	30.88
777.205	29.84
777.382	28.36
777.56	25.8
777.737	23.39
777.914	23.1
778.091	23.23
778.268	24.09
778.445	22.32
778.622	21.29
778.8	21.57
778.977	23.07
779.154	25.04
779.331	25.38
779.508	27.54
779.685	29.82
779.862	29.58
780.038	29.72
780.215	28.1
780.392	27.87
780.569	29.54
780.746	31.13
780.923	31.53
781.1	29.96
781.277	27.8
781.453	26.97
781.63	25.88
781.807	27.47
781.984	26.29
782.16	28.42
782.337	27.8
782.514	26.94
782.691	25.29
782.867	24.31
783.044	24.45
783.221	26.15
783.397	25.99
783.574	26.47
783.75	24.49
783.927	24.82
784.103	24.09
784.28	24.6
784.456	24.99
784.633	27.31
784.809	27.92
784.986	28.1
785.162	29.08
785.339	29.89
785.515	31.62
785.692	31.12
785.868	31.27
786.044	30.58
786.221	31.69
786.397	32
786.573	31.18
786.749	31.01
786.926	30.42
787.102	29.51
787.278	30.52
787.454	28.35
787.631	27.22
787.807	24.48
787.983	24.71
788.159	24.08
788.335	22.89
788.511	22.96
788.687	21.15
788.863	21.93
789.039	21.11
789.216	20.12
789.392	20.53
789.568	22.52
789.744	25.76
789.919	25.71
790.095	26.19
790.271	25.51
790.447	25.61
790.623	27.33
790.799	27.67
790.975	27.69
791.151	27.05
791.327	28.48
791.502	28.17
791.678	27.68
791.854	25.79
792.03	25.1
792.205	25.48
792.381	24
792.557	25.98
792.733	24.29
792.908	22.94
793.084	21.76
793.259	21.29
793.435	21.73
793.611	20.14
793.786	20.39
793.962	21.66
794.137	23.71
794.313	23.6
794.488	22.46
794.664	21.93
794.839	23.47
795.015	25.55
795.19	26.26
795.366	28.5
795.541	29.46
795.716	31.24
795.892	31.34
796.067	32.45
796.242	31.96
796.418	30.02
796.593	32.46
796.768	32.94
796.944	32.83
797.119	30.09
797.294	28.07
797.469	26.21
797.644	24.91
797.82	23.74
797.995	21.63
798.17	25.49
798.345	26.96
798.52	26.4
798.695	28.9
798.87	29.87
799.045	30.44
799.22	29.92
799.395	31.32
799.57	31.96
799.745	30.09
799.92	30.26
800.095	28.95
800.27	26.99
800.445	25.05
800.62	20.1
800.795	18.93
800.97	18.22
801.145	18.78
801.319	18.41
801.494	18.53
801.669	24.86
801.844	26.01
802.018	26.23
802.193	28.15
802.368	27.05
802.543	30.45
802.717	33.32
802.892	34.63
803.067	35.93
803.241	35.82
803.416	37.16
803.59	35.36
803.765	37.66
803.94	36.04
804.114	35.37
804.289	36.54
804.463	33.13
804.638	28.51
804.812	30.82
804.986	29.89
805.161	30.79
805.335	30.7
805.51	29.27
805.684	28.35
805.858	29.35
806.033	28.55
806.207	30.32
806.381	30.73
806.556	31.2
806.73	31.62
806.904	30.68
807.078	31.69
807.253	30.51
807.427	29.58
807.601	25.47
807.775	24.8
807.949	25.8
808.123	24.94
808.298	27.74
808.472	28.65
808.646	26.81
808.82	27.64
808.994	27.42
809.168	28.84
809.342	30.04
809.516	29.74
809.69	30.32
809.864	31.01
810.038	31.51
810.212	28.22
810.385	27.68
810.559	26.56
810.733	28.14
810.907	25.64
811.081	27.89
811.255	30.17
811.428	30.84
811.602	29.09
811.776	26.83
811.95	28.62
812.123	32.06
812.297	34.49
812.471	38.32
812.644	33.91
812.818	37.51
812.992	34.44
813.165	34.3
813.339	36.69
813.512	40.93
813.686	41.22
813.86	42.98
814.033	41.28
814.207	40.02
814.38	35.91
814.554	42.32
814.727	40.77
814.9	43.83
815.074	38.8
815.247	38.6
815.421	36.69
815.594	36.39
815.767	29.09
815.941	26.87
816.114	29.66
816.287	34.49
816.46	32.27
816.634	31.38
816.807	30.2
816.98	33.32
817.153	31.75
817.327	31.05
817.5	33.25
817.673	37.65
817.846	39.88
818.019	37.8
818.192	30.71
818.365	29.3
818.538	30.55
818.711	28.91
818.884	26.78
819.057	30.4
819.23	30.15
819.403	31.04
819.576	29.95
819.749	30.22
819.922	29.55
820.095	32.98
820.268	31.54
820.441	31.78
820.614	30.32
820.786	29.33
820.959	27.73
821.132	24.78
821.305	21.98
821.477	21.86
821.65	22.19
821.823	22.56
821.996	21.42
822.168	22.4
822.341	20.64
822.514	20.61
822.686	21.14
822.859	21.25
823.031	21.58
823.204	22.01
823.376	22.49
823.549	21.79
823.722	21.93
823.894	21.1
824.067	20.45
824.239	20.73
824.411	20.43
824.584	20.55
824.756	19.64
824.929	19.96
825.101	19.68
825.273	18.37
825.446	18.22
825.618	16.99
825.79	18.97
825.963	20.44
826.135	21.55
826.307	22.47
826.479	21.29
826.652	21.97
826.824	22.34
826.996	23
827.168	23.94
827.34	24.86
827.512	25.69
827.684	25.9
827.856	25.56
828.029	24.13
828.201	24.43
828.373	26.15
828.545	25.86
828.717	26.25
828.889	25.53
829.061	26.55
829.232	25.05
829.404	25.69
829.576	27.02
829.748	26.45
829.92	27.9
830.092	28.15
830.264	27.97
830.436	29.01
830.607	28.94
830.779	30.43
830.951	29.43
831.123	31.59
831.294	31.27
831.466	29.61
831.638	27.71
831.809	26.52
831.981	28.29
832.153	28.02
832.324	29.07
832.496	27.57
832.667	26.73
832.839	26.1
833.011	25.55
833.182	25.37
833.354	23.19
833.525	25.24
833.697	25.78
833.868	25.23
834.039	25.85
834.211	25.09
834.382	26.68
834.554	28.7
834.725	28.84
834.896	31.49
835.068	29.48
835.239	31.13
835.41	31.24
835.581	33.35
835.753	32.42
835.924	31.48
836.095	32.01
836.266	32.28
836.438	33.07
836.609	32.98
836.78	31.17
836.951	33.04
837.122	33.54
837.293	36.08
837.464	34.45
837.635	36.14
837.806	39.33
837.977	41.76
838.148	40.63
838.319	40.22
838.49	38.86
838.661	41.72
838.832	45.81
839.003	47.78
839.174	45.07
839.345	44.84
839.516	42.37
839.687	40.12
839.857	35.86
840.028	38.3
840.199	36.92
840.37	42.09
840.54	43.18
840.711	39.06
840.882	34.37
841.053	35.63
841.223	37.86
841.394	37.47
841.564	40.86
841.735	41.87
841.906	38.75
842.076	41.66
842.247	36.99
842.417	37.03
842.588	37.01
842.758	40.61
842.929	40.31
843.099	41.38
843.27	47.96
843.44	45.91
843.611	46.3
843.781	50.33
843.951	47.3
844.122	56.21
844.292	53
844.462	54.77
844.633	56.93
844.803	56.63
844.973	56.59
845.144	54.89
845.314	55.44
845.484	55.48
845.654	50.89
845.824	53.92
845.995	48.58
846.165	51.44
846.335	51.39
846.505	53.45
846.675	55.56
846.845	51.68
847.015	47.38
847.185	42.79
847.355	37.79
847.525	39.92
847.695	38.94
847.865	44.24
848.035	46.29
848.205	50
848.375	47.44
848.545	42.57
848.715	50.03
848.884	52.67
849.054	54.88
849.224	56.5
849.394	53.84
849.564	59.84
849.733	55.32
849.903	51.86
850.073	49.25
850.243	39.35
850.412	49.5
850.582	49.47
850.752	51.38
850.921	50.2
851.091	55.72
851.26	60.69
851.43	46.66
851.599	52.44
851.769	54.19
851.939	54.19
852.108	58.11
852.278	54.76
852.447	48.82
852.616	62.83
852.786	66.55
852.955	71.22
853.125	68.55
853.294	79.97
853.463	69.09
853.633	60
853.802	56.96
853.971	63.12
854.141	58.92
854.31	60.71
854.479	44.85
854.648	48.02
854.818	31.96
854.987	30.8
855.156	34.08
855.325	37.29
855.494	40.69
855.663	40.55
855.832	39.1
856.001	46.64
856.171	49.33
856.34	46.04
856.509	42.66
856.678	53.36
856.847	59.18
857.016	59.19
857.185	58.06
857.353	55.5
857.522	63.93
857.691	61.78
857.86	57.52
858.029	55.76
858.198	56.63
858.367	45.47
858.535	52.02
858.704	52.89
858.873	48.7
859.042	45.5
859.21	48.52
859.379	44.83
859.548	39.67
859.717	45.71
859.885	47.35
860.054	53.83
860.222	58.86
860.391	55.47
860.56	54.36
860.728	58.92
860.897	58.99
861.065	64.6
861.234	66.96
861.402	78.73
861.571	63.23
861.739	63.84
861.908	59.06
862.076	61.66
862.244	58.98
862.413	63.48
862.581	69.31
862.749	70.56
862.918	55.83
863.086	51.25
863.254	42.11
863.423	50.44
863.591	52.33
863.759	56.23
863.927	49.38
864.096	53.57
864.264	52.01
864.432	40.79
864.6	48.7
864.768	53.3
864.936	54.65
865.104	62.5
865.272	71.15
865.44	79.93
865.608	76.92
865.776	81.8
865.944	89.01
866.112	84.9
866.28	86.13
866.448	79.01
866.616	86.61
866.784	85.51
866.952	84.57
867.12	74.73
867.288	62.55
867.455	61.94
867.623	59.04
867.791	55.98
867.959	57.08
868.127	55.06
868.294	60.87
868.462	58.2
868.63	59.63
868.797	53.59
868.965	54.91
869.133	55.77
869.3	52.02
869.468	50.75
869.636	51.99
869.803	43.92
869.971	50.73
870.138	52.88
870.306	50.24
870.473	41.17
870.641	50.54
870.808	58.49
870.975	52.17
871.143	51.62
871.31	59.9
871.478	54.77
871.645	63.08
871.812	58.05
871.98	44.54
872.147	44.05
872.314	56.08
872.482	51.66
872.649	52.54
872.816	63.43
872.983	61.11
873.15	48.78
873.318	53.91
873.485	53.82
873.652	55.86
873.819	57.21
873.986	60.41
874.153	57.58
874.32	71.63
874.487	70.9
874.654	53.06
874.821	55.45
874.988	59.62
875.155	50.47
875.322	30.06
875.489	29.52
875.656	28.37
875.823	39.39
875.99	35.85
876.157	30.46
876.324	21.71
876.49	35.98
876.657	34.2
876.824	37.47
876.991	44.02
877.157	52.64
877.324	49.19
877.491	50.12
877.658	45.18
877.824	46.33
877.991	50.92
878.157	56.81
878.324	55.76
878.491	57.44
878.657	56.94
878.824	61.83
878.99	60.39
879.157	63.71
879.323	67.51
879.49	71.75
879.656	78.28
879.823	79.7
879.989	67.49
880.156	70.53
880.322	69.41
880.488	69.65
880.655	64.8
880.821	59.07
880.987	57.78
881.154	59.54
881.32	60.86
881.486	52.8
881.652	48.03
881.819	43.61
881.985	38.74
882.151	37.43
882.317	35.02
882.483	34.72
882.649	33.66
882.816	34.92
882.982	31.74
883.148	30.99
883.314	28.15
883.48	26.87
883.646	28.54
883.812	26.79
883.978	28.29
884.144	28.96
884.31	27.7
884.476	29.98
884.642	28.13
884.807	29.68
884.973	28.67
885.139	31.25
885.305	32.54
885.471	31.24
885.637	35.25
885.802	34.32
885.968	33.53
886.134	34.1
886.3	34.51
886.465	38.21
886.631	38.93
886.797	41.46
886.962	44.17
887.128	43.16
887.293	49.7
887.459	46.48
887.625	46.32
887.79	46.53
887.956	45.22
888.121	47.1
888.287	43.94
888.452	44.52
888.618	38.34
888.783	32.71
