Data from 2938087_Reflection_2.txt Node
Date: Sat Jul 11 19:30:45 EDT 2015
User: robert
Spectrometer: USB4E03001
Autoset integration time: false
Trigger mode: 4
Integration Time (sec): 1.000000E-1
Scans to average: 10
Electric dark correction enabled: true
Nonlinearity correction enabled: false
Boxcar width: 5
Stray light correction enabled: false
XAxis mode: Wavelengths
Stop averaging: false
Number of Pixels in Spectrum: 3648
>>>>>Begin Spectral Data<<<<<
177.566	172.4
177.785	104.83
178.005	21.88
178.225	-18.47
178.445	-17.9
178.665	39.05
178.885	-119.84
179.105	374.64
179.324	111.45
179.544	121.28
179.764	104.41
179.984	101.22
180.204	56.63
180.423	30.04
180.643	-8.02
180.863	25.99
181.083	103.58
181.302	158.12
181.522	278.44
181.742	-221.11
181.961	518.53
182.181	190.62
182.401	173.02
182.621	188.23
182.84	338.97
183.06	1231.58
183.279	-255.69
183.499	-384.67
183.719	-367.65
183.938	-72.65
184.158	1.81
184.377	22.94
184.597	-3.01
184.816	-26.13
185.036	-68.29
185.256	-167.88
185.475	-231.26
185.695	-131.86
185.914	-180.37
186.134	-76.57
186.353	-179.25
186.572	-288.15
186.792	-91.9
187.011	-81.93
187.231	-34.49
187.45	-19.97
187.67	8.91
187.889	-16.93
188.108	-60.42
188.328	-127.24
188.547	972.66
188.766	158.28
188.986	98.57
189.205	65.95
189.424	49.07
189.644	63.6
189.863	66.45
190.082	100.67
190.302	100.96
190.521	77.5
190.74	72
190.959	84.75
191.178	102.17
191.398	1654.55
191.617	58.09
191.836	-0
192.055	-281.08
192.274	164.72
192.494	92.25
192.713	100.54
192.932	96.07
193.151	151.46
193.37	166.35
193.589	1470.4
193.808	817.76
194.027	-1741.31
194.246	-4399.44
194.465	-230.29
194.685	-92.76
194.904	-31.16
195.123	-79.15
195.342	5.49
195.561	-34.91
195.78	38.56
195.999	-96.85
196.218	433.33
196.436	21.92
196.655	108.33
196.874	137.91
197.093	114.82
197.312	301.75
197.531	400.64
197.75	964.04
197.969	-11.03
198.188	-69.2
198.407	-18.77
198.625	-34.96
198.844	-82.77
199.063	-50.05
199.282	-11.88
199.501	-30.28
199.719	-14.96
199.938	15.91
200.157	11.96
200.376	-8.2
200.594	123.26
200.813	235.55
201.032	214.71
201.251	232.46
201.469	-9016.13
201.688	-101.84
201.907	-13.13
202.125	7.41
202.344	293.61
202.563	149.47
202.781	1800.5
203	112320
203.218	5936.14
203.437	-677.4
203.656	-152.16
203.874	-130.46
204.093	-42.86
204.311	-39.77
204.53	-83.05
204.748	-71.08
204.967	-89.72
205.185	-43.12
205.404	-25.61
205.622	-51.2
205.841	-77.07
206.059	-125.37
206.278	-111.06
206.496	-675.37
206.715	-204.82
206.933	-64.3
207.151	-114.91
207.37	-119.48
207.588	-236.19
207.806	-585.84
208.025	2682.73
208.243	-239.67
208.461	-150.29
208.68	-146.69
208.898	6.01
209.116	-9.77
209.335	-206.92
209.553	-3470.54
209.771	-487.84
209.989	2879.26
210.208	-183.1
210.426	53.97
210.644	-2208.22
210.862	507.32
211.081	-310.68
211.299	151.65
211.517	149.97
211.735	376.26
211.953	1110.11
212.171	188.09
212.39	-216.99
212.608	-613
212.826	-422.82
213.044	-184.9
213.262	-454.47
213.48	1057.72
213.698	-132.31
213.916	-65.61
214.134	-75.85
214.352	-15.87
214.57	-0.94
214.788	-55.94
215.006	-8.65
215.224	-64.78
215.442	-22.86
215.66	16.6
215.878	12.04
216.096	57.3
216.314	57.71
216.532	40.65
216.75	272.31
216.968	43.41
217.185	18.34
217.403	-2.95
217.621	-777.87
217.839	-445.71
218.057	-257.43
218.275	2245.45
218.492	263.46
218.71	219.51
218.928	168.28
219.146	94
219.363	105.26
219.581	71.18
219.799	44.43
220.017	26.83
220.234	-22.33
220.452	-50.4
220.67	-268.39
220.887	2341.61
221.105	-420.52
221.323	-677.89
221.54	-356.8
221.758	-56.38
221.976	-69.62
222.193	9.77
222.411	-126.39
222.629	-466.86
222.846	-86.28
223.064	-46.85
223.281	-62.55
223.499	-82.77
223.716	-107.48
223.934	-128.74
224.151	-221.39
224.369	-260.3
224.586	-390
224.804	-566
225.021	-389.45
225.239	676.45
225.456	-918.44
225.674	-180.35
225.891	-139.29
226.108	-27.28
226.326	-60.44
226.543	-13.91
226.76	1.16
226.978	-17.39
227.195	-3.35
227.413	1.1
227.63	0.48
227.847	0.41
228.064	-1.25
228.282	-1.17
228.499	6.04
228.716	8.19
228.934	2.35
229.151	1.59
229.368	6.98
229.585	13.25
229.802	13.36
230.02	12.9
230.237	9.25
230.454	9.52
230.671	11.23
230.888	7.26
231.105	6.76
231.323	12.44
231.54	14.41
231.757	12.87
231.974	16.96
232.191	12.12
232.408	0.95
232.625	0.81
232.842	6.35
233.059	3.65
233.276	1.15
233.493	-2.24
233.71	-11.84
233.927	-14.75
234.144	-22.75
234.361	-33.71
234.578	-36.45
234.795	-22
235.012	-22.15
235.229	-26.41
235.446	-31.2
235.663	-19.07
235.879	-20.1
236.096	-14.84
236.313	-17
236.53	-6.4
236.747	-14.34
236.964	-22.06
237.181	-24.65
237.397	-22.07
237.614	-25.03
237.831	-22.11
238.048	-31.36
238.264	-20.76
238.481	-16.75
238.698	-12.29
238.915	-20.96
239.131	-8.23
239.348	-4.37
239.565	-4.01
239.781	-3.42
239.998	-4.86
240.215	3.93
240.431	2.23
240.648	5.53
240.865	5.52
241.081	7.3
241.298	9.3
241.514	5.26
241.731	7.22
241.947	7.64
242.164	5.61
242.38	8.15
242.597	6.1
242.814	7.13
243.03	7.07
243.246	4.69
243.463	4.72
243.679	4.25
243.896	8.71
244.112	9.1
244.329	11.21
244.545	14.99
244.762	13.78
244.978	13.63
245.194	11.65
245.411	8.69
245.627	10.74
245.843	8.79
246.06	9.31
246.276	8.85
246.492	9.04
246.709	8.81
246.925	9.66
247.141	10.87
247.357	11.4
247.574	12.1
247.79	12.23
248.006	12.65
248.222	13.1
248.439	13.47
248.655	12.45
248.871	12
249.087	10.75
249.303	9.75
249.519	8.33
249.736	7.47
249.952	7.8
250.168	8.79
250.384	6.99
250.6	6.04
250.816	4.65
251.032	6.5
251.248	7.01
251.464	9.48
251.68	8.88
251.896	9.87
252.112	7.84
252.328	6.92
252.544	6.07
252.76	8.31
252.976	7
253.192	5.91
253.408	3.66
253.624	4.38
253.84	2.9
254.056	2.63
254.272	2.54
254.487	6.1
254.703	5.78
254.919	9.29
255.135	9.38
255.351	11.13
255.567	11.68
255.782	16.47
255.998	17.82
256.214	18.13
256.43	14.85
256.646	12.13
256.861	9.9
257.077	10.23
257.293	9.49
257.508	8.74
257.724	10.54
257.94	11.17
258.155	10.33
258.371	9.32
258.587	9.59
258.802	11.82
259.018	12.09
259.234	12.15
259.449	11.29
259.665	10.11
259.88	10.18
260.096	10.09
260.312	9.69
260.527	9.02
260.743	8.02
260.958	7.6
261.174	6.4
261.389	5.69
261.605	4.27
261.82	4.06
262.036	3.53
262.251	3.06
262.466	3.13
262.682	1.87
262.897	0.1
263.113	1.23
263.328	0.75
263.543	2.99
263.759	3.06
263.974	4.61
264.189	6.23
264.405	5.27
264.62	5.29
264.835	5.66
265.051	6.14
265.266	10.47
265.481	13.3
265.696	13.65
265.912	13.44
266.127	16.65
266.342	17.42
266.557	13.79
266.773	15.73
266.988	13.72
267.203	11.45
267.418	12.95
267.633	11.93
267.848	9.37
268.064	9.03
268.279	8.27
268.494	4.35
268.709	3.04
268.924	5.42
269.139	3.99
269.354	6.91
269.569	8.14
269.784	6.91
269.999	6.31
270.214	7.15
270.429	6.7
270.644	4.42
270.859	4.55
271.074	5.82
271.289	6.02
271.504	5.16
271.719	4.73
271.934	5.38
272.149	5.46
272.363	4.55
272.578	4.15
272.793	5.03
273.008	6.23
273.223	7.06
273.438	6.73
273.653	7.17
273.867	8.52
274.082	8.31
274.297	7.49
274.512	7.86
274.726	10.57
274.941	9.57
275.156	9.89
275.371	8.88
275.585	9.39
275.8	9.91
276.015	8.3
276.229	8.33
276.444	8.79
276.659	9.96
276.873	8.96
277.088	7.74
277.302	10.19
277.517	8.19
277.732	7.82
277.946	5.53
278.161	4.04
278.375	4.39
278.59	4.71
278.804	4.01
279.019	0.64
279.233	1.85
279.448	2.97
279.662	3
279.877	3.86
280.091	6.68
280.306	8.68
280.52	10.21
280.735	11.16
280.949	10.63
281.163	9.39
281.378	11.07
281.592	10.05
281.806	7.61
282.021	5.94
282.235	7.09
282.449	5.96
282.664	6.8
282.878	6.99
283.092	8.44
283.307	8.14
283.521	8.2
283.735	7.56
283.949	6.55
284.164	7.87
284.378	8.84
284.592	9.47
284.806	10.02
285.02	10.1
285.234	7.91
285.449	5.04
285.663	5.65
285.877	6.16
286.091	5.96
286.305	7.51
286.519	7.23
286.733	7.14
286.947	5.31
287.161	6.41
287.375	6.04
287.589	7.59
287.803	7.49
288.017	7.65
288.231	7.27
288.445	8.97
288.659	8.11
288.873	9.03
289.087	8.67
289.301	11.3
289.515	11.17
289.729	10.03
289.943	10.24
290.157	11.6
290.371	11.32
290.584	13.13
290.798	13.09
291.012	13.31
291.226	12.9
291.44	12.04
291.654	9.96
291.867	8.35
292.081	8.77
292.295	8.69
292.509	9.63
292.722	9.07
292.936	8.18
293.15	6.19
293.364	8.34
293.577	7.38
293.791	8.53
294.005	9.69
294.218	9.33
294.432	11.18
294.645	9.8
294.859	7.74
295.073	7.65
295.286	8.13
295.5	10.29
295.713	8.84
295.927	9.66
296.14	10.23
296.354	10.36
296.568	11.2
296.781	9.64
296.994	11.01
297.208	11.6
297.421	12.2
297.635	12.13
297.848	11.27
298.062	10.8
298.275	10.27
298.489	10.46
298.702	9.97
298.915	9.23
299.129	9.18
299.342	8.91
299.555	8.87
299.769	7.81
299.982	8.65
300.195	8.08
300.409	8.45
300.622	6.98
300.835	7.12
301.048	6.45
301.262	6.87
301.475	7.77
301.688	6.59
301.901	6.68
302.115	7.91
302.328	5.12
302.541	4.59
302.754	3.52
302.967	6.94
303.18	7.23
303.393	7.38
303.607	7.74
303.82	6.17
304.033	6.49
304.246	5.75
304.459	5.51
304.672	6.51
304.885	8.17
305.098	11.57
305.311	11.25
305.524	8.53
305.737	8.95
305.95	8.63
306.163	9.96
306.376	11.27
306.589	12.2
306.802	11.11
307.015	10.57
307.228	9.72
307.44	6.97
307.653	7.73
307.866	7.27
308.079	9.4
308.292	9.7
308.505	8.94
308.718	8.22
308.93	9.65
309.143	9.43
309.356	10.51
309.569	9.2
309.781	11
309.994	9.96
310.207	10.91
310.42	8.7
310.632	10.39
310.845	10.67
311.058	11.67
311.27	11.42
311.483	12.56
311.696	12.01
311.908	13.39
312.121	12.52
312.333	13.12
312.546	14.34
312.759	14.69
312.971	12.86
313.184	12.42
313.396	12.11
313.609	11.84
313.821	11.81
314.034	11.18
314.246	10.69
314.459	10.76
314.671	9.52
314.884	7.35
315.096	6.54
315.309	6.97
315.521	7.7
315.733	8.48
315.946	8.03
316.158	8.58
316.371	9.33
316.583	7.64
316.795	8.62
317.008	11.03
317.22	11.29
317.432	12.8
317.644	13.92
317.857	13.04
318.069	9.83
318.281	8.87
318.494	6.32
318.706	5.65
318.918	8.94
319.13	6.83
319.342	5.08
319.555	8.14
319.767	7.67
319.979	5.57
320.191	7.12
320.403	7.07
320.615	6.83
320.827	9.5
321.039	9.66
321.252	8.29
321.464	8.44
321.676	6.48
321.888	5
322.1	3.71
322.312	4.64
322.524	4.57
322.736	5.27
322.948	5.98
323.16	5.6
323.372	6.84
323.584	6.59
323.796	9.37
324.007	8.81
324.219	8.12
324.431	10.29
324.643	10.2
324.855	11.2
325.067	12.28
325.279	11.18
325.491	11.13
325.702	10.08
325.914	9.78
326.126	8.81
326.338	11.15
326.55	12.21
326.761	11.77
326.973	11.35
327.185	9.02
327.396	8.56
327.608	10.84
327.82	10.67
328.032	11.39
328.243	12.67
328.455	12.54
328.666	11.85
328.878	11.69
329.09	12.4
329.301	13.32
329.513	14.1
329.725	13.95
329.936	12.7
330.148	13.41
330.359	12.71
330.571	12.7
330.782	12.11
330.994	12.53
331.205	13.2
331.417	13.25
331.628	12.08
331.84	11.46
332.051	11.23
332.262	10.11
332.474	10.1
332.685	10.3
332.897	9.19
333.108	8.9
333.319	8.2
333.531	6.14
333.742	6.01
333.953	6.36
334.165	5.53
334.376	6.73
334.587	7.08
334.799	7.31
335.01	8.73
335.221	9.48
335.432	9.17
335.644	9.12
335.855	10.15
336.066	9.11
336.277	8.21
336.488	10.05
336.7	9.84
336.911	11.56
337.122	10.59
337.333	8.41
337.544	8.3
337.755	8.22
337.966	7.18
338.177	8.43
338.388	8.5
338.599	10.35
338.811	10.26
339.022	8.48
339.233	7.1
339.444	7.47
339.655	9
339.866	9.6
340.076	10.27
340.287	12.88
340.498	11.74
340.709	11.65
340.92	10.19
341.131	9.88
341.342	10.98
341.553	11.78
341.764	12.01
341.975	11.22
342.185	11.09
342.396	10.53
342.607	10.55
342.818	9.61
343.029	9.64
343.239	10.41
343.45	10.24
343.661	9.14
343.872	8.54
344.082	7.42
344.293	7.25
344.504	7.17
344.714	7.82
344.925	7.72
345.136	9.4
345.346	9.41
345.557	10.3
345.768	10.76
345.978	11.86
346.189	11.99
346.399	12.93
346.61	13.63
346.821	13.19
347.031	14.14
347.242	12.43
347.452	12.49
347.663	12.74
347.873	11.84
348.084	11.15
348.294	11.67
348.504	11.14
348.715	11.06
348.925	10.38
349.136	10.09
349.346	9.73
349.557	10.53
349.767	9.14
349.977	8.92
350.188	9.68
350.398	10.27
350.608	10.27
350.819	10.77
351.029	10.94
351.239	12.69
351.449	13.12
351.66	11.92
351.87	12.88
352.08	13.63
352.29	14.17
352.501	13.21
352.711	13.63
352.921	12.75
353.131	13.67
353.341	12.91
353.552	13.11
353.762	13.45
353.972	14.17
354.182	13.54
354.392	13.46
354.602	13.81
354.812	14.01
355.022	13.78
355.232	14.23
355.442	13.63
355.652	13.48
355.862	11.25
356.072	9.92
356.282	10.46
356.492	10.48
356.702	10.01
356.912	8.33
357.122	7.95
357.332	6.95
357.542	7.25
357.752	7.19
357.962	8.02
358.171	9.34
358.381	9.7
358.591	7.77
358.801	7.91
359.011	8.51
359.221	10.23
359.43	10.93
359.64	11.93
359.85	11.46
360.06	11.51
360.269	10.68
360.479	9.61
360.689	9.76
360.899	10.65
361.108	10.15
361.318	10.01
361.528	9.44
361.737	9.59
361.947	9.35
362.156	9.12
362.366	8.61
362.576	9.58
362.785	10.24
362.995	10.83
363.204	10.68
363.414	10.1
363.623	10.26
363.833	10.18
364.042	9.92
364.252	9.28
364.461	10.49
364.671	11.67
364.88	11.22
365.09	11.13
365.299	10.98
365.509	11.97
365.718	13.07
365.927	13.18
366.137	13.1
366.346	13
366.555	13.9
366.765	12.72
366.974	11.98
367.183	11.69
367.393	11.62
367.602	10.92
367.811	9.84
368.021	9.51
368.23	9.25
368.439	8.62
368.648	8.1
368.857	8.62
369.067	9.15
369.276	9.66
369.485	10.01
369.694	9.82
369.903	10.18
370.112	10.76
370.321	10.38
370.531	10.7
370.74	11.11
370.949	11.13
371.158	10.29
371.367	9.52
371.576	9.44
371.785	9.18
371.994	9.57
372.203	9.14
372.412	8.53
372.621	9
372.83	7.86
373.039	8.03
373.248	7.66
373.457	7.87
373.666	8.64
373.874	8.39
374.083	8.3
374.292	8.6
374.501	8.55
374.71	8.74
374.919	8.68
375.128	8.98
375.336	8.97
375.545	9.75
375.754	9.35
375.963	9.01
376.171	9.13
376.38	8.77
376.589	8.75
376.798	8.55
377.006	8.84
377.215	8.15
377.424	8.45
377.632	8.96
377.841	8.65
378.05	8.72
378.258	9.22
378.467	8.66
378.675	8.77
378.884	8.46
379.093	9.04
379.301	7.97
379.51	8.26
379.718	7.98
379.927	7.43
380.135	7.94
380.344	7.35
380.552	6.42
380.761	6.58
380.969	6.31
381.177	5.8
381.386	5.78
381.594	6.62
381.803	7.38
382.011	7.8
382.219	7.68
382.428	7.22
382.636	7.84
382.845	7.29
383.053	7.19
383.261	8.37
383.469	8.29
383.678	8.49
383.886	8.22
384.094	7.72
384.302	7.43
384.511	6.76
384.719	6.99
384.927	6.44
385.135	7.74
385.343	7.8
385.552	7
385.76	7.86
385.968	7.27
386.176	6.99
386.384	7.05
386.592	6.67
386.8	7.02
387.008	5.97
387.216	6.13
387.424	5.7
387.633	6.05
387.841	5.94
388.049	5.22
388.257	5.45
388.465	5.57
388.672	5.61
388.88	6.16
389.088	6.61
389.296	7.11
389.504	6.98
389.712	6.79
389.92	6.32
390.128	6.45
390.336	6.57
390.544	5.96
390.751	6.19
390.959	5.85
391.167	5.4
391.375	5.12
391.583	5.21
391.79	5.51
391.998	5.52
392.206	5.37
392.414	5.15
392.621	5.19
392.829	5.46
393.037	5.68
393.244	5.8
393.452	5.93
393.66	5.78
393.867	5.64
394.075	5.32
394.283	5.38
394.49	5.51
394.698	5.66
394.905	5.42
395.113	5.27
395.32	4.65
395.528	4.45
395.735	4.26
395.943	4.52
396.15	4.39
396.358	4.65
396.565	4.52
396.773	4.34
396.98	4.22
397.188	4.55
397.395	4.5
397.602	4.49
397.81	4.77
398.017	4.94
398.225	4.91
398.432	5.1
398.639	5
398.847	5.03
399.054	5.13
399.261	5.36
399.468	5.24
399.676	5.57
399.883	5.74
400.09	5.53
400.297	5.45
400.505	5.26
400.712	4.84
400.919	4.76
401.126	4.51
401.333	4.78
401.54	4.45
401.748	4.14
401.955	4.06
402.162	4.2
402.369	4.27
402.576	4.59
402.783	4.81
402.99	5.34
403.197	5.55
403.404	5.86
403.611	5.48
403.818	5.7
404.025	5.48
404.232	5.22
404.439	5.1
404.646	5.27
404.853	4.9
405.06	4.85
405.267	4.6
405.474	4.32
405.681	4.16
405.887	4.12
406.094	4
406.301	4.15
406.508	4.62
406.715	4.74
406.922	4.53
407.128	4.66
407.335	4.32
407.542	4.44
407.749	4.67
407.955	4.59
408.162	4.59
408.369	4.39
408.575	4.64
408.782	4.14
408.989	4.07
409.195	4.51
409.402	4.34
409.609	4.67
409.815	4.77
410.022	4.88
410.228	4.87
410.435	4.79
410.642	4.77
410.848	4.8
411.055	4.82
411.261	4.69
411.468	4.14
411.674	4.35
411.881	4.17
412.087	3.92
412.294	3.87
412.5	3.79
412.706	4.14
412.913	4.49
413.119	4.31
413.326	4.41
413.532	4.65
413.738	4.8
413.945	4.7
414.151	4.98
414.357	4.96
414.564	4.77
414.77	5
414.976	4.99
415.182	4.96
415.389	4.7
415.595	4.69
415.801	4.68
416.007	4.75
416.214	4.61
416.42	4.38
416.626	4.49
416.832	4.46
417.038	4.27
417.244	4.23
417.45	4.23
417.657	4.47
417.863	4.55
418.069	4.48
418.275	4.54
418.481	4.64
418.687	4.59
418.893	4.48
419.099	4.6
419.305	4.68
419.511	4.68
419.717	4.57
419.923	4.47
420.129	4.51
420.335	4.53
420.541	4.53
420.746	4.53
420.952	4.71
421.158	4.81
421.364	4.76
421.57	4.73
421.776	4.75
421.982	4.79
422.187	4.82
422.393	4.83
422.599	4.91
422.805	4.77
423.01	4.87
423.216	4.67
423.422	4.68
423.628	4.57
423.833	4.59
424.039	4.56
424.245	4.53
424.45	4.63
424.656	4.6
424.862	4.47
425.067	4.72
425.273	4.68
425.478	4.67
425.684	4.69
425.889	4.89
426.095	4.97
426.301	4.98
426.506	4.83
426.712	4.62
426.917	4.51
427.123	4.6
427.328	4.36
427.533	4.44
427.739	4.73
427.944	4.62
428.15	4.56
428.355	4.59
428.561	4.51
428.766	4.48
428.971	4.73
429.177	4.85
429.382	4.58
429.587	4.6
429.793	4.33
429.998	4.31
430.203	4.43
430.408	4.38
430.614	4.3
430.819	4.17
431.024	4.27
431.229	4.2
431.434	4.21
431.64	4.38
431.845	4.32
432.05	4.26
432.255	4
432.46	4.01
432.665	3.94
432.87	3.99
433.076	4.17
433.281	4.15
433.486	4.4
433.691	4.34
433.896	4.36
434.101	4.51
434.306	4.67
434.511	4.75
434.716	4.63
434.921	4.73
435.126	4.71
435.331	4.71
435.535	4.85
435.74	4.56
435.945	4.74
436.15	4.9
436.355	4.79
436.56	4.69
436.765	4.61
436.97	4.63
437.174	4.46
437.379	4.39
437.584	4.39
437.789	4.3
437.993	4.37
438.198	4.09
438.403	3.93
438.608	3.83
438.812	3.9
439.017	3.91
439.222	3.81
439.426	3.87
439.631	3.9
439.836	3.85
440.04	4.08
440.245	4.08
440.45	4.08
440.654	4.07
440.859	4.16
441.063	4.19
441.268	4.17
441.472	4.19
441.677	4.26
441.881	4.19
442.086	4.15
442.29	4.19
442.495	3.96
442.699	4.06
442.904	3.96
443.108	4.04
443.312	3.99
443.517	3.87
443.721	4
443.925	3.98
444.13	4.03
444.334	4.11
444.538	4.17
444.743	4.26
444.947	4.28
445.151	4.37
445.356	4.23
445.56	4.11
445.764	4.24
445.968	4.24
446.173	4.25
446.377	4.23
446.581	4.17
446.785	4.01
446.989	4.12
447.193	4.26
447.398	4.25
447.602	4.42
447.806	4.68
448.01	4.76
448.214	4.7
448.418	4.65
448.622	4.74
448.826	4.76
449.03	4.91
449.234	5.04
449.438	4.77
449.642	4.91
449.846	4.57
450.05	4.51
450.254	4.53
450.458	4.71
450.662	4.78
450.866	4.7
451.069	4.71
451.273	4.29
451.477	4.06
451.681	4.09
451.885	3.94
452.089	4.07
452.292	4.06
452.496	4
452.7	3.9
452.904	3.93
453.107	3.9
453.311	3.85
453.515	4.11
453.719	4.12
453.922	4.28
454.126	4.31
454.33	4.32
454.533	4.15
454.737	3.96
454.94	3.93
455.144	3.83
455.348	3.83
455.551	3.82
455.755	3.64
455.958	3.83
456.162	3.54
456.365	3.53
456.569	3.18
456.772	3.19
456.976	3.38
457.179	3.23
457.383	3.21
457.586	3.43
457.79	3.45
457.993	3.48
458.196	3.63
458.4	3.81
458.603	3.89
458.807	4.18
459.01	4.22
459.213	4.23
459.417	4.27
459.62	4.3
459.823	4.26
460.026	4.34
460.23	4.3
460.433	4.19
460.636	4.25
460.839	4.19
461.042	4.12
461.246	4.11
461.449	4.14
461.652	4.06
461.855	4.1
462.058	3.89
462.261	3.82
462.464	3.99
462.668	3.96
462.871	3.97
463.074	3.92
463.277	3.94
463.48	3.87
463.683	3.64
463.886	3.74
464.089	3.77
464.292	3.89
464.495	3.86
464.698	3.62
464.901	3.72
465.104	3.78
465.306	3.7
465.509	3.84
465.712	3.81
465.915	3.84
466.118	3.87
466.321	3.69
466.524	3.5
466.726	3.64
466.929	3.8
467.132	3.69
467.335	3.45
467.538	3.5
467.74	3.44
467.943	3.58
468.146	3.75
468.348	3.8
468.551	4.04
468.754	4.25
468.956	3.98
469.159	4
469.362	4.06
469.564	4.06
469.767	4.09
469.969	4.03
470.172	4.01
470.375	3.85
470.577	3.8
470.78	3.77
470.982	3.98
471.185	4.32
471.387	4.34
471.59	4.25
471.792	4.29
471.995	4.23
472.197	4.33
472.399	4.28
472.602	4.39
472.804	4.3
473.007	4.31
473.209	4.17
473.411	4.09
473.614	3.99
473.816	3.94
474.018	3.85
474.22	3.83
474.423	3.81
474.625	3.59
474.827	3.64
475.03	3.66
475.232	3.55
475.434	3.51
475.636	3.38
475.838	3.52
476.04	3.7
476.243	3.6
476.445	3.69
476.647	3.8
476.849	3.85
477.051	3.87
477.253	3.98
477.455	4.09
477.657	4.07
477.859	4.12
478.061	4.06
478.263	3.94
478.465	4.17
478.667	4.18
478.869	4.03
479.071	4.24
479.273	4.28
479.475	4.12
479.677	3.93
479.879	4.04
480.081	3.87
480.283	3.99
480.485	4
480.686	3.83
480.888	3.9
481.09	3.97
481.292	3.83
481.494	3.68
481.695	3.87
481.897	4
482.099	4.03
482.301	4.14
482.502	4.13
482.704	4.14
482.906	4.23
483.107	4.33
483.309	4.36
483.511	4.44
483.712	4.47
483.914	4.46
484.115	4.46
484.317	4.41
484.519	4.42
484.72	4.43
484.922	4.42
485.123	4.41
485.325	4.3
485.526	4.36
485.728	4.34
485.929	4.36
486.131	4.35
486.332	4.31
486.534	4.34
486.735	4.37
486.936	4.39
487.138	4.4
487.339	4.35
487.541	4.39
487.742	4.31
487.943	4.31
488.144	4.28
488.346	4.31
488.547	4.33
488.748	4.32
488.95	4.34
489.151	4.33
489.352	4.35
489.553	4.34
489.755	4.37
489.956	4.36
490.157	4.33
490.358	4.39
490.559	4.26
490.76	4.32
490.961	4.37
491.163	4.36
491.364	4.34
491.565	4.29
491.766	4.32
491.967	4.29
492.168	4.28
492.369	4.27
492.57	4.19
492.771	4.32
492.972	4.25
493.173	4.15
493.374	4.17
493.575	4.11
493.776	4.2
493.976	4.31
494.177	4.26
494.378	4.31
494.579	4.34
494.78	4.36
494.981	4.22
495.182	4.26
495.382	4.26
495.583	4.18
495.784	4.3
495.985	4.21
496.185	4.11
496.386	4.05
496.587	4.07
496.788	3.97
496.988	4.02
497.189	4.12
497.39	4.09
497.59	4.07
497.791	4.1
497.992	4.1
498.192	4.14
498.393	4.26
498.593	4.5
498.794	4.61
498.994	4.81
499.195	4.76
499.395	4.67
499.596	4.74
499.796	4.79
499.997	4.78
500.197	4.67
500.398	4.56
500.598	4.48
500.799	4.38
500.999	4.28
501.199	4.21
501.4	4.3
501.6	4.39
501.801	4.51
502.001	4.46
502.201	4.4
502.402	4.37
502.602	4.68
502.802	4.58
503.002	4.65
503.203	4.66
503.403	4.84
503.603	4.78
503.803	4.75
504.003	4.59
504.204	4.62
504.404	4.82
504.604	4.96
504.804	4.84
505.004	4.75
505.204	4.85
505.404	4.76
505.604	4.41
505.804	4.47
506.005	4.52
506.205	4.72
506.405	4.89
506.605	4.67
506.805	4.74
507.005	4.75
507.204	4.88
507.404	4.78
507.604	4.84
507.804	5.02
508.004	4.99
508.204	5.05
508.404	4.85
508.604	4.73
508.804	4.88
509.003	4.9
509.203	4.87
509.403	4.84
509.603	4.87
509.803	4.91
510.002	4.89
510.202	4.98
510.402	4.83
510.602	5.04
510.801	5.06
511.001	5.07
511.201	4.96
511.4	4.94
511.6	4.98
511.8	4.87
511.999	4.82
512.199	4.73
512.398	4.56
512.598	4.59
512.797	4.59
512.997	4.63
513.197	4.53
513.396	4.48
513.596	4.55
513.795	4.53
513.994	4.66
514.194	4.46
514.393	4.53
514.593	4.63
514.792	4.6
514.992	4.47
515.191	4.47
515.39	4.44
515.59	4.56
515.789	4.39
515.988	4.51
516.188	4.42
516.387	4.69
516.586	4.46
516.786	4.43
516.985	4.49
517.184	4.54
517.383	4.42
517.582	4.43
517.782	4.39
517.981	4.46
518.18	4.38
518.379	4.35
518.578	4.31
518.777	4.44
518.976	4.44
519.176	4.52
519.375	4.42
519.574	4.41
519.773	4.54
519.972	4.56
520.171	4.68
520.37	4.74
520.569	4.82
520.768	4.84
520.967	4.8
521.166	4.89
521.365	4.79
521.564	4.91
521.762	4.99
521.961	4.93
522.16	4.93
522.359	4.74
522.558	4.64
522.757	4.73
522.956	4.65
523.154	4.77
523.353	4.78
523.552	4.84
523.751	4.78
523.949	4.8
524.148	4.75
524.347	4.68
524.546	4.8
524.744	4.77
524.943	4.78
525.142	4.84
525.34	4.77
525.539	4.7
525.737	4.72
525.936	4.69
526.135	4.69
526.333	4.75
526.532	4.88
526.73	4.87
526.929	4.94
527.127	4.96
527.326	4.96
527.524	5.07
527.723	5.12
527.921	5.16
528.12	5.16
528.318	5.26
528.516	5.29
528.715	5.22
528.913	5.21
529.112	5.2
529.31	5.13
529.508	5.18
529.707	5.2
529.905	5.28
530.103	5.28
530.301	5.36
530.5	5.27
530.698	5.23
530.896	5.31
531.094	5.31
531.293	5.33
531.491	5.51
531.689	5.49
531.887	5.41
532.085	5.36
532.283	5.23
532.481	5.19
532.68	5.29
532.878	5.38
533.076	5.38
533.274	5.41
533.472	5.48
533.67	5.39
533.868	5.43
534.066	5.44
534.264	5.44
534.462	5.58
534.66	5.6
534.858	5.64
535.056	5.6
535.253	5.66
535.451	5.71
535.649	5.83
535.847	5.79
536.045	5.81
536.243	5.95
536.441	5.95
536.638	5.91
536.836	5.93
537.034	5.81
537.232	5.76
537.43	5.78
537.627	5.68
537.825	5.58
538.023	5.67
538.22	5.67
538.418	5.59
538.616	5.59
538.813	5.53
539.011	5.57
539.209	5.69
539.406	5.64
539.604	5.57
539.801	5.81
539.999	5.85
540.196	5.85
540.394	5.91
540.591	5.91
540.789	5.98
540.986	6.03
541.184	6.06
541.381	6.09
541.579	6.23
541.776	6.29
541.974	6.25
542.171	6.24
542.368	6.26
542.566	6.29
542.763	6.31
542.96	6.37
543.158	6.44
543.355	6.52
543.552	6.55
543.75	6.51
543.947	6.42
544.144	6.46
544.341	6.5
544.539	6.65
544.736	6.63
544.933	6.69
545.13	6.63
545.327	6.6
545.524	6.51
545.722	6.54
545.919	6.62
546.116	6.77
546.313	6.76
546.51	6.73
546.707	6.7
546.904	6.71
547.101	6.73
547.298	6.79
547.495	6.74
547.692	6.69
547.889	6.65
548.086	6.78
548.283	6.78
548.48	6.69
548.677	6.71
548.874	6.63
549.07	6.58
549.267	6.47
549.464	6.44
549.661	6.45
549.858	6.63
550.055	6.71
550.251	6.64
550.448	6.71
550.645	6.99
550.842	7.15
551.038	7.26
551.235	7.38
551.432	7.52
551.628	7.64
551.825	7.82
552.022	7.82
552.218	7.73
552.415	7.76
552.612	7.95
552.808	7.91
553.005	7.8
553.201	7.66
553.398	7.78
553.594	7.8
553.791	7.59
553.987	7.67
554.184	7.79
554.38	7.96
554.577	7.9
554.773	7.85
554.97	7.94
555.166	8.1
555.362	8.38
555.559	8.36
555.755	8.33
555.952	8.5
556.148	8.19
556.344	8.06
556.541	8.06
556.737	8.08
556.933	7.72
557.129	7.7
557.326	7.67
557.522	7.55
557.718	7.45
557.914	7.52
558.11	7.6
558.307	7.89
558.503	7.81
558.699	7.67
558.895	7.62
559.091	7.95
559.287	7.87
559.483	7.64
559.679	7.52
559.876	7.54
560.072	7.48
560.268	7.25
560.464	7.33
560.66	7.51
560.856	7.56
561.052	7.65
561.247	7.51
561.443	7.71
561.639	7.8
561.835	7.98
562.031	7.94
562.227	8.11
562.423	8.45
562.619	8.37
562.815	8.48
563.01	8.7
563.206	8.77
563.402	8.86
563.598	8.72
563.793	8.85
563.989	8.89
564.185	9
564.381	9.12
564.576	8.94
564.772	9.3
564.968	9.09
565.163	9.01
565.359	9.03
565.555	9.07
565.75	8.97
565.946	8.92
566.141	8.92
566.337	8.82
566.532	8.67
566.728	8.85
566.923	8.51
567.119	8.63
567.314	8.45
567.51	8.42
567.705	8.27
567.901	8.54
568.096	8.69
568.292	8.55
568.487	8.71
568.682	8.66
568.878	8.66
569.073	8.75
569.268	9
569.464	9.2
569.659	9.35
569.854	9.43
570.05	9.37
570.245	9.46
570.44	9.59
570.635	9.48
570.831	9.58
571.026	9.53
571.221	9.5
571.416	9.33
571.611	9.29
571.806	9.12
572.002	9.31
572.197	9.32
572.392	9.34
572.587	9.38
572.782	9.56
572.977	9.52
573.172	9.63
573.367	9.87
573.562	9.92
573.757	10
573.952	10.15
574.147	10.07
574.342	10.01
574.537	9.96
574.732	10.03
574.927	10.21
575.121	10.16
575.316	10.09
575.511	10.15
575.706	10.18
575.901	10.15
576.096	10.11
576.29	10.19
576.485	10.02
576.68	9.92
576.875	10
577.069	9.93
577.264	10.08
577.459	9.8
577.654	9.67
577.848	9.56
578.043	9.76
578.238	9.76
578.432	9.71
578.627	9.85
578.821	10.07
579.016	9.84
579.21	9.63
579.405	9.8
579.6	10.15
579.794	9.95
579.989	9.95
580.183	9.78
580.378	9.76
580.572	9.68
580.766	9.8
580.961	9.56
581.155	9.62
581.35	9.51
581.544	9.07
581.738	8.98
581.933	9.1
582.127	9.08
582.321	9.24
582.516	9.15
582.71	9.16
582.904	9.26
583.099	9.37
583.293	9.38
583.487	9.75
583.681	9.99
583.875	10.18
584.07	10.49
584.264	10.44
584.458	10.4
584.652	10.35
584.846	10.2
585.04	10.02
585.234	10.12
585.428	10.19
585.623	9.92
585.817	10.15
586.011	10.06
586.205	9.9
586.399	9.93
586.593	9.98
586.787	10.26
586.981	10.51
587.174	10.55
587.368	10.46
587.562	10.36
587.756	10.45
587.95	10.09
588.144	9.99
588.338	9.73
588.532	9.67
588.725	9.48
588.919	9.05
589.113	8.93
589.307	8.98
589.501	9.2
589.694	9.22
589.888	9.11
590.082	9.23
590.275	9.38
590.469	9.36
590.663	9.52
590.856	9.65
591.05	10
591.244	10.17
591.437	10.13
591.631	9.79
591.824	9.83
592.018	9.84
592.212	10.04
592.405	9.84
592.599	10.18
592.792	10.25
592.986	10.24
593.179	10.32
593.372	10.5
593.566	10.77
593.759	10.85
593.953	10.86
594.146	11.08
594.339	10.87
594.533	10.75
594.726	10.72
594.92	10.55
595.113	10.6
595.306	10.77
595.499	10.59
595.693	10.85
595.886	10.8
596.079	10.81
596.272	10.66
596.466	10.77
596.659	10.96
596.852	10.82
597.045	10.77
597.238	10.72
597.431	10.5
597.624	10.41
597.818	9.94
598.011	10.09
598.204	10.07
598.397	10.01
598.59	9.86
598.783	9.83
598.976	9.81
599.169	9.84
599.362	9.65
599.555	9.5
599.748	9.58
599.941	9.7
600.134	9.49
600.326	9.54
600.519	9.68
600.712	9.87
600.905	10.07
601.098	10.22
601.291	10.15
601.483	10.46
601.676	10.65
601.869	10.56
602.062	10.43
602.255	10.37
602.447	10.27
602.64	10.4
602.833	10.47
603.025	10.5
603.218	10.48
603.411	10.62
603.603	10.42
603.796	10.41
603.989	10.47
604.181	10.53
604.374	10.67
604.566	10.64
604.759	10.51
604.951	10.49
605.144	10.28
605.336	10.15
605.529	10.11
605.721	10.27
605.914	10.27
606.106	10.28
606.299	10.32
606.491	10.34
606.683	10.52
606.876	10.49
607.068	10.37
607.26	10.32
607.453	10.45
607.645	10.43
607.837	10.23
608.03	10.14
608.222	10.14
608.414	10.09
608.606	10.06
608.799	9.87
608.991	9.75
609.183	9.98
609.375	9.95
609.567	9.72
609.759	9.74
609.952	9.87
610.144	9.8
610.336	9.78
610.528	9.75
610.72	9.61
610.912	9.76
611.104	9.87
611.296	9.65
611.488	9.64
611.68	9.9
611.872	9.88
612.064	9.79
612.256	9.97
612.448	10.02
612.64	10
612.832	10.07
613.023	9.97
613.215	10.07
613.407	10.18
613.599	10.36
613.791	10.14
613.983	10.25
614.174	10.32
614.366	10.3
614.558	10.33
614.75	10.29
614.941	10.33
615.133	10.41
615.325	10.18
615.516	10.2
615.708	10.33
615.9	10.65
616.091	10.8
616.283	10.93
616.475	10.98
616.666	10.83
616.858	10.72
617.049	11.14
617.241	11.26
617.432	11.65
617.624	11.43
617.815	11.09
618.007	11.15
618.198	10.88
618.39	10.51
618.581	10.5
618.773	10.49
618.964	10.82
619.155	10.51
619.347	10.42
619.538	10.09
619.729	10.37
619.921	10.85
620.112	10.83
620.303	10.63
620.494	10.61
620.686	10.39
620.877	10.36
621.068	10.34
621.259	10.57
621.451	10.57
621.642	10.95
621.833	11.15
622.024	10.96
622.215	10.71
622.406	10.98
622.597	11.4
622.788	11.64
622.98	11.46
623.171	11.36
623.362	11.04
623.553	10.7
623.744	10.4
623.935	10.05
624.126	10.28
624.317	10.38
624.508	10.35
624.698	10.22
624.889	10.33
625.08	10.64
625.271	10.47
625.462	10.7
625.653	10.72
625.844	10.69
626.034	10.53
626.225	10.03
626.416	9.92
626.607	9.81
626.798	9.64
626.988	9.53
627.179	9.47
627.37	9.44
627.56	9.38
627.751	9.3
627.942	9.4
628.132	9.68
628.323	9.91
628.514	9.97
628.704	10.18
628.895	10.27
629.085	10.36
629.276	10.39
629.466	10.7
629.657	10.48
629.847	10.63
630.038	10.53
630.228	10.11
630.419	9.96
630.609	9.61
630.8	9.56
630.99	9.37
631.181	9.06
631.371	9.35
631.561	9.18
631.752	9.13
631.942	9.46
632.132	9.61
632.323	9.93
632.513	10.16
632.703	10.69
632.893	10.74
633.084	11.04
633.274	11.39
633.464	11.43
633.654	11.5
633.844	11.66
634.034	11.76
634.225	11.75
634.415	11.65
634.605	11.57
634.795	11.48
634.985	11.5
635.175	11.32
635.365	11.06
635.555	10.76
635.745	10.65
635.935	10.57
636.125	10.15
636.315	10.31
636.505	10.48
636.695	10.29
636.885	10.22
637.075	10.17
637.265	10.26
637.455	10.14
637.644	10.26
637.834	10.19
638.024	10.31
638.214	10.35
638.404	9.96
638.593	9.49
638.783	9.71
638.973	9.41
639.163	9.4
639.352	9.46
639.542	9.72
639.732	9.66
639.921	9.81
640.111	10.06
640.301	9.85
640.49	9.58
640.68	9.98
640.87	9.93
641.059	9.87
641.249	9.81
641.438	9.66
641.628	9.81
641.817	9.82
642.007	10.18
642.196	10.31
642.386	10.87
642.575	10.57
642.764	10.51
642.954	10.41
643.143	10.82
643.333	11.04
643.522	11.24
643.711	10.98
643.901	11.22
644.09	10.89
644.279	10.39
644.469	10.21
644.658	10.63
644.847	10.81
645.036	10.91
645.226	10.38
645.415	10.46
645.604	10.37
645.793	10.12
645.982	9.83
646.171	10.18
646.361	9.97
646.55	10.13
646.739	10.76
646.928	10.52
647.117	10.4
647.306	11.08
647.495	10.92
647.684	10.82
647.873	11.34
648.062	11.59
648.251	11.4
648.44	11.69
648.629	11.23
648.818	11.05
649.007	10.81
649.196	11.06
649.384	11.01
649.573	11.21
649.762	11.41
649.951	11.19
650.14	10.58
650.328	10.51
650.517	10.54
650.706	11.16
650.895	11.09
651.083	11.6
651.272	11.45
651.461	11.04
651.65	10.73
651.838	10.88
652.027	10.84
652.216	11.14
652.404	10.98
652.593	10.9
652.781	10.61
652.97	10.45
653.158	9.99
653.347	9.99
653.535	10.42
653.724	10.22
653.912	9.96
654.101	9.91
654.289	10.04
654.478	10.14
654.666	10.25
654.855	10.5
655.043	10.51
655.231	11.3
655.42	11.11
655.608	11.1
655.796	10.94
655.985	10.81
656.173	10.89
656.361	10.57
656.55	10.52
656.738	10.77
656.926	10.11
657.114	10.57
657.302	10.19
657.491	10.01
657.679	9.7
657.867	10.2
658.055	10.05
658.243	10.3
658.431	10.39
658.619	10.27
658.807	9.67
658.996	9.96
659.184	9.36
659.372	9.35
659.56	9.71
659.748	9.9
659.936	9.99
660.124	10.2
660.311	9.86
660.499	9.92
660.687	10.12
660.875	10.63
661.063	11.16
661.251	11.51
661.439	11.49
661.627	11.36
661.814	11.48
662.002	11.07
662.19	11.03
662.378	11.23
662.565	11.25
662.753	10.88
662.941	10.56
663.129	9.63
663.316	9.53
663.504	9.37
663.692	9.68
663.879	9.77
664.067	10.24
664.254	9.98
664.442	9.78
664.63	9.74
664.817	9.86
665.005	10.27
665.192	10.7
665.38	10.3
665.567	10.82
665.755	11.07
665.942	10.86
666.13	10.65
666.317	11.13
666.504	11.78
666.692	11.9
666.879	12.3
667.067	11.89
667.254	11.57
667.441	12.36
667.629	11.8
667.816	11.49
668.003	11.39
668.19	11.07
668.378	11.13
668.565	10.79
668.752	10.83
668.939	10.69
669.127	10.1
669.314	10.1
669.501	10.24
669.688	10.31
669.875	10.29
670.062	10.67
670.249	11.05
670.436	11.45
670.623	11.19
670.81	11.07
670.997	10.37
671.184	11
671.371	11.15
671.558	10.74
671.745	10.8
671.932	10.23
672.119	9.5
672.306	9.34
672.493	8.49
672.68	8.38
672.867	8.08
673.054	8.86
673.24	9.08
673.427	8.91
673.614	8.68
673.801	8.69
673.988	9.15
674.174	10.3
674.361	10.55
674.548	10.54
674.734	10.82
674.921	11.6
675.108	11.57
675.294	11.45
675.481	11.79
675.668	12.11
675.854	12.3
676.041	12.44
676.227	11.37
676.414	10.96
676.601	11.28
676.787	11.17
676.974	10.75
677.16	10.51
677.347	10.56
677.533	10.68
677.719	10.28
677.906	9.9
678.092	9.73
678.279	9.89
678.465	9.96
678.651	10.29
678.838	10.32
679.024	10.57
679.21	11.04
679.397	11.06
679.583	10.93
679.769	11.26
679.955	11.55
680.142	11.66
680.328	11.82
680.514	12.05
680.7	11.74
680.886	11.68
681.073	11.51
681.259	11.4
681.445	11.67
681.631	11.81
681.817	11.62
682.003	11.81
682.189	11.4
682.375	11.34
682.561	11.02
682.747	10.64
682.933	10.26
683.119	10.02
683.305	9.86
683.491	9.44
683.677	9.41
683.863	9.11
684.049	8.68
684.235	8.98
684.42	8.87
684.606	9.3
684.792	9.44
684.978	10.03
685.164	10.22
685.349	10.56
685.535	10.41
685.721	10.63
685.907	11.41
686.092	11.3
686.278	11.09
686.464	11.11
686.649	10.88
686.835	10.72
687.021	10.7
687.206	10.99
687.392	10.62
687.577	11.32
687.763	10.41
687.948	10.03
688.134	10.2
688.319	10.36
688.505	10.37
688.69	10.22
688.876	10.69
689.061	10.75
689.247	10.4
689.432	10.74
689.618	10.34
689.803	11.63
689.988	11.8
690.174	11.74
690.359	12.16
690.544	12.47
690.73	12.68
690.915	12.57
691.1	12.51
691.285	12.55
691.471	12.28
691.656	11.46
691.841	10.58
692.026	10.76
692.211	10.33
692.396	10.36
692.582	10.23
692.767	10.54
692.952	9.98
693.137	9.56
693.322	9.81
693.507	9.42
693.692	9.61
693.877	9.78
694.062	9.4
694.247	10.13
694.432	10.13
694.617	10.17
694.802	10.28
694.987	10.99
695.172	12.19
695.357	12.05
695.541	12.29
695.726	12.68
695.911	13.01
696.096	12.37
696.281	12.68
696.466	12.31
696.65	12.16
696.835	11.28
697.02	11.6
697.204	10.56
697.389	10.25
697.574	10.26
697.759	10.34
697.943	10.25
698.128	10.4
698.312	10.31
698.497	10.34
698.682	9.97
698.866	10.19
699.051	9.83
699.235	10.1
699.42	10.42
699.604	10.98
699.789	11.16
699.973	10.89
700.158	11.1
700.342	11.12
700.527	11.37
700.711	11.93
700.895	11.75
701.08	12.13
701.264	12.3
701.448	12.28
701.633	11.33
701.817	11.59
702.001	12.02
702.186	12.1
702.37	11.71
702.554	11.27
702.738	11.11
702.923	11.59
703.107	10.82
703.291	10.25
703.475	9.94
703.659	10.47
703.843	10.34
704.027	10.29
704.212	9.93
704.396	9.87
704.58	10.24
704.764	10.09
704.948	10.73
705.132	11.06
705.316	11.76
705.5	11.96
705.684	11.22
705.868	10.8
706.052	10.59
706.235	11.55
706.419	12.14
706.603	11.79
706.787	12.42
706.971	12.05
707.155	12.08
707.339	12.25
707.522	12.62
707.706	13.66
707.89	13.53
708.074	14.24
708.257	14.27
708.441	14.28
708.625	14.27
708.808	13.97
708.992	14.01
709.176	14.11
709.359	14.24
709.543	13.48
709.727	12.46
709.91	12.98
710.094	11.75
710.277	10.82
710.461	10.16
710.644	10.07
710.828	10.33
711.011	10.57
711.195	10.45
711.378	9.24
711.562	10.02
711.745	10.15
711.928	9.58
712.112	10.31
712.295	10.34
712.478	10.03
712.662	10.33
712.845	9.36
713.028	8.53
713.212	9.06
713.395	9.63
713.578	9.18
713.761	8.93
713.945	9.2
714.128	8.74
714.311	8.63
714.494	9.35
714.677	9.05
714.86	9.71
715.043	10.68
715.227	10.45
715.41	10.27
715.593	9.61
715.776	9.86
715.959	10.28
716.142	10.59
716.325	11.01
716.508	10.68
716.691	11.31
716.874	11.47
717.057	10.55
717.239	10.88
717.422	11.34
717.605	11.82
717.788	12.08
717.971	12.15
718.154	12.01
718.337	12.06
718.519	12.19
718.702	11.93
718.885	11.7
719.068	12.52
719.25	12.08
719.433	12.12
719.616	12.31
719.798	12.96
719.981	12.04
720.164	12.48
720.346	12.6
720.529	12.75
720.712	12.8
720.894	12.76
721.077	11.31
721.259	10.95
721.442	10.08
721.624	10.66
721.807	9.23
721.989	9.64
722.172	9.12
722.354	8.86
722.537	9.53
722.719	8.97
722.901	8.45
723.084	10.26
723.266	10.57
723.448	10.3
723.631	10.18
723.813	11.36
723.995	11.16
724.178	11.3
724.36	11.18
724.542	9.93
724.724	10.54
724.907	10.86
725.089	8.09
725.271	8.24
725.453	8.41
725.635	8.09
725.817	8.39
725.999	8.16
726.181	7.71
726.364	7.61
726.546	6.94
726.728	6.64
726.91	6.61
727.092	8.56
727.274	7.69
727.456	8.08
727.638	7.77
727.819	8.26
728.001	9.23
728.183	9.97
728.365	9.42
728.547	9.87
728.729	9.73
728.911	9.48
729.093	9.17
729.274	10.01
729.456	9.63
729.638	10.4
729.82	9.74
730.001	9.35
730.183	9.33
730.365	10.22
730.546	11.61
730.728	10.9
730.91	11.91
731.091	12.35
731.273	12.09
731.455	12.85
731.636	12.32
731.818	11.23
731.999	11.76
732.181	11.56
732.362	12.09
732.544	10.98
732.725	10.46
732.907	10.02
733.088	10.39
733.27	10.72
733.451	11.68
733.633	11.18
733.814	11.85
733.995	12.22
734.177	13.1
734.358	12.51
734.539	12.22
734.721	13.82
734.902	14.18
735.083	14.01
735.264	14.66
735.446	13.66
735.627	14.79
735.808	14.21
735.989	13.12
736.17	11.37
736.351	11.11
736.533	11.34
736.714	11.28
736.895	10.91
737.076	10.44
737.257	7.84
737.438	8.21
737.619	7.2
737.8	8.35
737.981	8.31
738.162	8.85
738.343	8.16
738.524	7.85
738.705	7.81
738.886	8.08
739.067	8.08
739.247	8.89
739.428	9.03
739.609	9.21
739.79	10.04
739.971	11.22
740.151	10.17
740.332	10.75
740.513	11.15
740.694	10.87
740.874	10.8
741.055	11.66
741.236	12.87
741.417	11.24
741.597	11.6
741.778	9.49
741.958	8.64
742.139	9.51
742.32	10.62
742.5	11.22
742.681	10.5
742.861	10.39
743.042	10.21
743.222	11.04
743.403	11.64
743.583	11.18
743.764	11.98
743.944	10.55
744.124	11.19
744.305	10.13
744.485	10.83
744.666	11.95
744.846	10.87
745.026	9.76
745.207	9.09
745.387	9.64
745.567	10.82
745.747	9.85
745.928	10.35
746.108	11.07
746.288	11.65
746.468	10.14
746.648	10.21
746.829	10.54
747.009	11.62
747.189	9.99
747.369	10.61
747.549	9.73
747.729	10.98
747.909	11.55
748.089	11.01
748.269	10.43
748.449	11.11
748.629	11.43
748.809	12.03
748.989	12.41
749.169	13.51
749.349	13.38
749.529	13.1
749.709	13.14
749.889	12.81
750.068	13.23
750.248	13.24
750.428	12.71
750.608	11.23
750.788	11.46
750.967	9.03
751.147	8.81
751.327	9.05
751.507	8.89
751.686	8.07
751.866	7.87
752.046	6.84
752.225	7.64
752.405	7.85
752.585	7.82
752.764	6.93
752.944	6.99
753.123	6.51
753.303	4.16
753.482	5.38
753.662	5.36
753.841	4.59
754.021	4.91
754.2	3.62
754.38	4.06
754.559	5.99
754.739	4.92
754.918	5.13
755.097	5.28
755.277	7.97
755.456	8.78
755.635	9.93
755.815	10.1
755.994	9.74
756.173	10.61
756.352	10.66
756.532	10.92
756.711	12.38
756.89	13.89
757.069	13.44
757.248	12.29
757.427	11.62
757.607	12.19
757.786	11.55
757.965	10.7
758.144	10.76
758.323	10.1
758.502	8.17
758.681	8.88
758.86	8.82
759.039	9.62
759.218	7.73
759.397	7.32
759.576	6.93
759.755	7.68
759.934	8.35
760.113	8.08
760.291	8.28
760.47	8.79
760.649	7.44
760.828	6.78
761.007	6.71
761.186	8.08
761.364	7.28
761.543	6.43
761.722	7.98
761.901	8.57
762.079	9.08
762.258	9.98
762.437	9.79
762.615	10.18
762.794	10.47
762.972	9.93
763.151	10.89
763.33	11.36
763.508	11.42
763.687	11.02
763.865	10.61
764.044	10.01
764.222	9.27
764.401	9.81
764.579	9.81
764.758	9.11
764.936	9.02
765.114	8.05
765.293	7.92
765.471	8.67
765.65	7.47
765.828	7.27
766.006	7.7
766.184	7.96
766.363	6.58
766.541	6.76
766.719	8.04
766.898	8.19
767.076	8.29
767.254	6.78
767.432	5.81
767.61	6.38
767.788	6.51
767.967	4.91
768.145	4.35
768.323	5.31
768.501	6.48
768.679	6.59
768.857	7.56
769.035	8.19
769.213	10.59
769.391	11.11
769.569	11.27
769.747	12.25
769.925	14.02
770.103	15.61
770.281	15.87
770.459	14.31
770.636	14.23
770.814	14.05
770.992	12.93
771.17	11.38
771.348	8.68
771.525	7.96
771.703	7.78
771.881	5.89
772.059	4.91
772.236	6.67
772.414	7.67
772.592	7.56
772.769	7.84
772.947	9.53
773.125	8.69
773.302	11.21
773.48	13.71
773.657	11.96
773.835	12.77
774.013	14.07
774.19	12.77
774.368	9.8
774.545	7.78
774.723	6.65
774.9	4.35
775.077	6.79
775.255	7.92
775.432	5.63
775.61	7.21
775.787	8.35
775.964	3.08
776.142	2.28
776.319	7
776.496	10.17
776.674	12.72
776.851	14.08
777.028	10.76
777.205	9.05
777.382	9.54
777.56	9.06
777.737	7.68
777.914	9.51
778.091	10.62
778.268	8.24
778.445	7.49
778.622	7.34
778.8	4.73
778.977	7.85
779.154	7.54
779.331	8.54
779.508	9.59
779.685	11.72
779.862	14.42
780.038	10.78
780.215	11.63
780.392	10.38
780.569	9.92
780.746	11.79
780.923	9.75
781.1	9.63
781.277	9.19
781.453	7.63
781.63	6.9
781.807	6.54
781.984	7.26
782.16	7.5
782.337	8.77
782.514	8.57
782.691	9.2
782.867	11.59
783.044	11.99
783.221	11.76
783.397	13.46
783.574	14.31
783.75	14.08
783.927	19.99
784.103	18.39
784.28	15.67
784.456	12.47
784.633	13.28
784.809	10.91
784.986	10.43
785.162	10.04
785.339	11.74
785.515	9.65
785.692	8.91
785.868	4.54
786.044	5.55
786.221	4.05
786.397	4.55
786.573	3.27
786.749	4.07
786.926	5.95
787.102	7.11
787.278	4.24
787.454	5.46
787.631	8.52
787.807	9.12
787.983	5.3
788.159	7.73
788.335	8.11
788.511	6.59
788.687	8.56
788.863	9.43
789.039	9.23
789.216	10.14
789.392	9.44
789.568	7.13
789.744	6.83
789.919	11.32
790.095	13.01
790.271	13.23
790.447	15.96
790.623	14.47
790.799	9.62
790.975	10.06
791.151	7.62
791.327	8.32
791.502	8.36
791.678	9.34
791.854	6.81
792.03	5.31
792.205	6.52
792.381	6.15
792.557	5.1
792.733	8.84
792.908	7.4
793.084	9.72
793.259	8.23
793.435	4.56
793.611	1.95
793.786	-0.26
793.962	-0.16
794.137	-2.95
794.313	-5.61
794.488	-3.27
794.664	-6.71
794.839	-7.51
795.015	-5.15
795.19	-4.95
795.366	-1.3
795.541	-0.67
795.716	4.67
795.892	4.96
796.067	9.5
796.242	8.49
796.418	6.49
796.593	9.89
796.768	9.13
796.944	7.1
797.119	9.01
797.294	6.05
797.469	5.14
797.644	3.8
797.82	6.33
797.995	0.88
798.17	4.2
798.345	1.89
798.52	1.93
798.695	5.12
798.87	6.12
799.045	5.88
799.22	8.5
799.395	12.56
799.57	12.16
799.745	7.6
799.92	9.92
800.095	5.47
800.27	9.04
800.445	8.99
800.62	6.3
800.795	1.16
800.97	1.79
801.145	1.77
801.319	1.36
801.494	-0.37
801.669	5.31
801.844	6.16
802.018	9.65
802.193	8.21
802.368	2.61
802.543	4.51
802.717	7.61
802.892	4.41
803.067	1.08
803.241	2.81
803.416	3.87
803.59	-3.46
803.765	-3.97
803.94	-2.07
804.114	2.08
804.289	3.35
804.463	5.83
804.638	6.67
804.812	10.75
804.986	13.72
805.161	11.94
805.335	10.67
805.51	13.7
805.684	12.36
805.858	11.69
806.033	13.12
806.207	13.89
806.381	10.14
806.556	10.51
806.73	10.19
806.904	10.85
807.078	6.45
807.253	7.22
807.427	2.55
807.601	4.13
807.775	4.18
807.949	0.37
808.123	1.59
808.298	7.32
808.472	5.59
808.646	0.79
808.82	-2.94
808.994	-2.42
809.168	-2.77
809.342	0.6
809.516	-0.27
809.69	-3.1
809.864	-1.12
810.038	-3.34
810.212	-5.31
810.385	-3.82
810.559	-1.14
810.733	5.22
810.907	5.58
811.081	6.56
811.255	7.31
811.428	8.53
811.602	13.75
811.776	5.35
811.95	8.75
812.123	5.68
812.297	2.95
812.471	1.78
812.644	-3.87
812.818	-0.03
812.992	-6
813.165	-3.59
813.339	-3.18
813.512	-5.76
813.686	4.18
813.86	3.34
814.033	5.74
814.207	3.48
814.38	2.37
814.554	6.13
814.727	-0
814.9	3.17
815.074	0.87
815.247	-0.66
815.421	-1.99
815.594	-4.83
815.767	-6.72
815.941	-6.98
816.114	-2.42
816.287	1.33
816.46	0.38
816.634	3.95
816.807	8.81
816.98	2.16
817.153	4.05
817.327	2.2
817.5	4.09
817.673	5.67
817.846	4.85
818.019	8.29
818.192	11.43
818.365	7.39
818.538	5.64
818.711	-0.03
818.884	7.21
819.057	7.29
819.23	6.32
819.403	5.01
819.576	2.68
819.749	4.73
819.922	3.06
820.095	1.41
820.268	4.27
820.441	8.31
820.614	13.44
820.786	14.77
820.959	13.36
821.132	13.66
821.305	13.89
821.477	15.64
821.65	14.76
821.823	12.76
821.996	12.32
822.168	12.23
822.341	11.99
822.514	11.04
822.686	10.54
822.859	11.15
823.031	11.22
823.204	11.31
823.376	10.66
823.549	10.29
823.722	11.41
823.894	11.23
824.067	11.89
824.239	12.29
824.411	12.64
824.584	12.93
824.756	12.69
824.929	13.02
825.101	14.16
825.273	13.57
825.446	15.85
825.618	15.69
825.79	14.63
825.963	14.82
826.135	14.43
826.307	13.11
826.479	13.81
826.652	14.94
826.824	15.03
826.996	13.09
827.168	15.13
827.34	13.55
827.512	13.42
827.684	13.02
827.856	11.58
828.029	10.6
828.201	11.64
828.373	11.35
828.545	11.42
828.717	11.81
828.889	11.29
829.061	12.23
829.232	13.26
829.404	13.5
829.576	13.97
829.748	14.32
829.92	14.88
830.092	17.61
830.264	13.64
830.436	13.31
830.607	13.11
830.779	15.52
830.951	15.71
831.123	13.3
831.294	13.48
831.466	15.73
831.638	13.76
831.809	13.85
831.981	7.01
832.153	10.16
832.324	8.86
832.496	4.83
832.667	0.9
832.839	-1.56
833.011	4.22
833.182	7.72
833.354	7.42
833.525	10.26
833.697	12.29
833.868	16.01
834.039	19.15
834.211	18.29
834.382	21.76
834.554	22.86
834.725	20.86
834.896	18.45
835.068	15.69
835.239	14.81
835.41	15.83
835.581	13.49
835.753	11.31
835.924	8.8
836.095	7.2
836.266	2.16
836.438	2.6
836.609	5.36
836.78	4.76
836.951	7.59
837.122	9.7
837.293	9.63
837.464	6.08
837.635	4.85
837.806	6.77
837.977	6.31
838.148	7.25
838.319	6.84
838.49	8.24
838.661	6.84
838.832	9.71
839.003	13.74
839.174	11.87
839.345	20.1
839.516	23.2
839.687	17.82
839.857	12.27
840.028	15.49
840.199	15.03
840.37	11.36
840.54	9.66
840.711	0.25
840.882	-6.23
841.053	-2.84
841.223	-3.98
841.394	-5.81
841.564	-9.41
841.735	-5.01
841.906	-5
842.076	-4.41
842.247	-8.34
842.417	-3.5
842.588	3.76
842.758	6.89
842.929	-4.09
843.099	-4.28
843.27	-3.59
843.44	-0
843.611	4.29
843.781	-12.17
843.951	-22.58
844.122	-21.76
844.292	-14.92
844.462	-17.99
844.633	-32.7
844.803	-19.2
844.973	-23.74
845.144	-21.79
845.314	-21.71
845.484	-20.32
845.654	-7.9
845.824	1.37
845.995	-6.82
846.165	-13.29
846.335	-38.55
846.505	-43.87
846.675	-45.05
846.845	-26.18
847.015	-12.39
847.185	-11.52
847.355	5.23
847.525	2.21
847.695	7.22
847.865	22.35
848.035	15.57
848.205	19.6
848.375	18.57
848.545	25.79
848.715	23.35
848.884	6.65
849.054	5.59
849.224	-1.24
849.394	4.77
849.564	-1.13
849.733	-15.09
849.903	-36.62
850.073	-64.25
850.243	-28.39
850.412	-72.68
850.582	-74.46
850.752	-52.53
850.921	-33.6
851.091	-32.04
851.26	-53.92
851.43	-49.56
851.599	-36.09
851.769	-29.4
851.939	-7.57
852.108	-4.11
852.278	5.95
852.447	10.65
852.616	-15.71
852.786	-92.16
852.955	-81.85
853.125	-88.17
853.294	-99.01
853.463	-102.71
853.633	-60.24
853.802	-66.66
853.971	-68.49
854.141	-91.9
854.31	-86.58
854.479	-43.52
854.648	-19.63
854.818	-29.76
854.987	-3.03
855.156	-4.35
855.325	2.72
855.494	-3.92
855.663	-16.89
855.832	-28.83
856.001	-16.61
856.171	-8.47
856.34	-28.1
856.509	-42.23
856.678	-34.44
856.847	-32.74
857.016	-32.59
857.185	-36.24
857.353	-38.22
857.522	-40.58
857.691	-32.2
857.86	-39.61
858.029	-68.33
858.198	-45.71
858.367	-49.13
858.535	-32.03
858.704	-61.63
858.873	-31.57
859.042	-45.45
859.21	-113.67
859.379	-15.03
859.548	-132.19
859.717	-192.59
859.885	1.6
860.054	34.64
860.222	41.09
860.391	-46.66
860.56	85.3
860.728	-289.25
860.897	-296.75
861.065	-131.29
861.234	-338.35
861.402	-105.93
861.571	-73.76
861.739	-112.63
861.908	-81.71
862.076	-59.12
862.244	-55.01
862.413	-38.8
862.581	-24.07
862.749	-14
862.918	3.22
863.086	4.46
863.254	14.25
863.423	15.81
863.591	10.31
863.759	-0.2
863.927	-5.15
864.096	-5.5
864.264	-19.42
864.432	-25.69
864.6	-12.5
864.768	-27.06
864.936	-39.78
865.104	-36.86
865.272	-34.12
865.44	-28.5
865.608	-8
865.776	-25.56
865.944	-40.94
866.112	-32.48
866.28	-24.77
866.448	-37.21
866.616	-9.3
866.784	-4.53
866.952	-43.1
867.12	-98.02
867.288	-18.9
867.455	-48.77
867.623	-39.89
867.791	26.92
867.959	41.71
868.127	59.45
868.294	42.65
868.462	43.79
868.63	35.34
868.797	49
868.965	46.67
869.133	29.08
869.3	16.17
869.468	21.99
869.636	1.19
869.803	9.64
869.971	19.42
870.138	6.51
870.306	-8.98
870.473	-4.83
870.641	-3.38
870.808	1.35
870.975	-11.27
871.143	6.16
871.31	10.84
871.478	1.22
871.645	-21.79
871.812	-59.2
871.98	-64.54
872.147	-89.97
872.314	-100.71
872.482	-151.52
872.649	-155.9
872.816	-69.95
872.983	-80.89
873.15	-151.86
873.318	-149.31
873.485	-95.05
873.652	-69.1
873.819	-77.28
873.986	-62.84
874.153	-87.87
874.32	-61.76
874.487	-73.98
874.654	-123.61
874.821	-142.11
874.988	-85.1
875.155	-99.44
875.322	-136.96
875.489	-326.4
875.656	-214.92
875.823	-283
875.99	-100.63
876.157	-505.26
876.324	-93437.5
876.49	417.18
876.657	452.43
876.824	291.72
876.991	435.06
877.157	1328.93
877.324	799.91
877.491	2320.94
877.658	-314.98
877.824	676.32
877.991	-641.32
878.157	-188.92
878.324	-118.89
878.491	-90.74
878.657	-56.88
878.824	-194.61
878.99	-108.02
879.157	-25.53
879.323	-48.43
879.49	-82.83
879.656	-35.54
879.823	-1.94
879.989	-2.35
880.156	1.89
880.322	5.79
880.488	13.14
880.655	18.71
880.821	18.21
880.987	8.14
881.154	11.17
881.32	17.1
881.486	23.35
881.652	14.79
881.819	15.51
881.985	15.65
882.151	14.94
882.317	9.88
882.483	10.36
882.649	10.48
882.816	13.16
882.982	13.17
883.148	12.19
883.314	12.63
883.48	15.52
883.646	16.91
883.812	16.8
883.978	16.37
884.144	19.05
884.31	17.93
884.476	16.97
884.642	16.68
884.807	15.65
884.973	12.63
885.139	9.04
885.305	8.27
885.471	6.27
885.637	3.04
885.802	-0.82
885.968	-7.82
886.134	-4.86
886.3	-10.85
886.465	-12.37
886.631	-14.94
886.797	-4.47
886.962	-10.19
887.128	-17.58
887.293	-17.07
887.459	-23.35
887.625	-19.48
887.79	-2.76
887.956	-8.6
888.121	4.02
888.287	-1.77
888.452	2.35
888.618	-14.31
888.783	-4.32
