Data from 2938049_Reflection_2.txt Node
Date: Sun Jul 12 14:17:52 EDT 2015
User: robert
Spectrometer: USB4E03001
Autoset integration time: false
Trigger mode: 4
Integration Time (sec): 1.000000E-1
Scans to average: 10
Electric dark correction enabled: true
Nonlinearity correction enabled: false
Boxcar width: 5
Stray light correction enabled: false
XAxis mode: Wavelengths
Stop averaging: false
Number of Pixels in Spectrum: 3648
>>>>>Begin Spectral Data<<<<<
177.566	124.44
177.785	204.23
178.005	-12.87
178.225	15.53
178.445	61.52
178.665	322.73
178.885	1848.15
179.105	-1087.01
179.324	424.08
179.544	127.63
179.764	107.84
179.984	132.73
180.204	116.12
180.423	109.91
180.643	165.93
180.863	142.9
181.083	170.42
181.302	166.62
181.522	187.9
181.742	187.42
181.961	213.26
182.181	192.45
182.401	150.36
182.621	237.8
182.84	125.84
183.06	110.23
183.279	188.48
183.499	281.19
183.719	80.24
183.938	-923.81
184.158	54.37
184.377	231.4
184.597	71.45
184.816	-57.23
185.036	748.87
185.256	294.63
185.475	129.92
185.695	173.92
185.914	164.19
186.134	285.57
186.353	337.05
186.572	714.4
186.792	661.46
187.011	319.94
187.231	355.31
187.45	436.14
187.67	617.35
187.889	2241.07
188.108	1712.23
188.328	496.64
188.547	179.7
188.766	183.24
188.986	187.46
189.205	149.29
189.424	198.07
189.644	191.51
189.863	180.04
190.082	212.86
190.302	194.6
190.521	102.05
190.74	286.16
190.959	354.3
191.178	262.06
191.398	337.19
191.617	197.16
191.836	157.22
192.055	222.26
192.274	218.17
192.494	137.44
192.713	133.72
192.932	134.59
193.151	92.15
193.37	47.35
193.589	41.35
193.808	27
194.027	20.66
194.246	28.75
194.465	21.63
194.685	-42.11
194.904	-16.69
195.123	-26.12
195.342	-423.86
195.561	99.07
195.78	105.01
195.999	148.22
196.218	168.99
196.436	195.36
196.655	156.11
196.874	106.45
197.093	114.13
197.312	102.29
197.531	118.5
197.75	108.19
197.969	110.07
198.188	122.04
198.407	130.72
198.625	79.61
198.844	111.59
199.063	86.65
199.282	214.97
199.501	-502.86
199.719	147.6
199.938	17.82
200.157	352.27
200.376	36.53
200.594	-314.09
200.813	-429.78
201.032	196.58
201.251	224.66
201.469	227.3
201.688	-977.51
201.907	-35.36
202.125	-22.08
202.344	-317.3
202.563	-36.42
202.781	6.47
203	63.05
203.218	47.69
203.437	46.73
203.656	47.57
203.874	66.41
204.093	72.44
204.311	82.4
204.53	88.54
204.748	132.03
204.967	217.91
205.185	193.6
205.404	129.28
205.622	134.09
205.841	197.14
206.059	143.93
206.278	120.66
206.496	176.32
206.715	187.93
206.933	179.1
207.151	211.94
207.37	219.85
207.588	970.17
207.806	1501.58
208.025	468.53
208.243	902.76
208.461	-86.4
208.68	-180.05
208.898	-1.29
209.116	-134.26
209.335	-78.22
209.553	-13
209.771	-291.63
209.989	1419.37
210.208	-413.17
210.426	-435.43
210.644	-306.69
210.862	-5204.57
211.081	3082.24
211.299	756
211.517	314.47
211.735	272.46
211.953	171.18
212.171	137.01
212.39	97.68
212.608	84.14
212.826	84.74
213.044	70.27
213.262	69.55
213.48	72.21
213.698	61.85
213.916	100.31
214.134	139.77
214.352	144.94
214.57	148.69
214.788	139.57
215.006	144.75
215.224	134.22
215.442	128.25
215.66	131.47
215.878	181.39
216.096	200.41
216.314	76.2
216.532	10.12
216.75	-5.47
216.968	1.83
217.185	-8.11
217.403	47.18
217.621	48.59
217.839	45.62
218.057	52.83
218.275	40.16
218.492	46.37
218.71	68.63
218.928	62.51
219.146	55.88
219.363	112.88
219.581	123.77
219.799	154.27
220.017	136.97
220.234	161.21
220.452	147.78
220.67	149.18
220.887	188.26
221.105	225.39
221.323	218.2
221.54	210.4
221.758	115.19
221.976	110.5
222.193	89.38
222.411	96.46
222.629	106.48
222.846	101.05
223.064	88.21
223.281	105.25
223.499	81.35
223.716	77
223.934	70.47
224.151	107.35
224.369	113.03
224.586	116
224.804	120.2
225.021	102.93
225.239	93.18
225.456	107.8
225.674	60.59
225.891	59.67
226.108	73.45
226.326	85.3
226.543	78.74
226.76	69.11
226.978	59.92
227.195	45.86
227.413	36.03
227.63	40.09
227.847	37.97
228.064	35.2
228.282	33.44
228.499	25.51
228.716	26.94
228.934	24.21
229.151	23.41
229.368	25.77
229.585	25.71
229.802	25.84
230.02	23.62
230.237	24.67
230.454	27.37
230.671	26.35
230.888	26.36
231.105	24.58
231.323	20.06
231.54	19.21
231.757	15.94
231.974	16.1
232.191	16.83
232.408	17.72
232.625	19.43
232.842	16.29
233.059	10.83
233.276	11.01
233.493	11.09
233.71	18.77
233.927	17.88
234.144	16.78
234.361	22.81
234.578	19.05
234.795	23.9
235.012	21.85
235.229	20.66
235.446	32.61
235.663	31.51
235.879	35.01
236.096	38.9
236.313	40.53
236.53	40.73
236.747	33.93
236.964	43.27
237.181	36.3
237.397	35.99
237.614	36.1
237.831	28.78
238.048	37.3
238.264	32.15
238.481	33.54
238.698	32.22
238.915	32.09
239.131	34.59
239.348	25.42
239.565	28.58
239.781	29.17
239.998	32.15
240.215	34.53
240.431	33.37
240.648	27.61
240.865	26.78
241.081	24.33
241.298	24.7
241.514	25.17
241.731	25.59
241.947	24.38
242.164	24.6
242.38	22.75
242.597	21.5
242.814	22.18
243.03	21.49
243.246	21.34
243.463	21.64
243.679	21.22
243.896	20.52
244.112	18.82
244.329	18.57
244.545	18.31
244.762	18.84
244.978	16.99
245.194	16.39
245.411	21.11
245.627	19.95
245.843	17.99
246.06	17.23
246.276	15.67
246.492	17.87
246.709	18.23
246.925	15.8
247.141	16.23
247.357	16.58
247.574	15.03
247.79	14.5
248.006	14.03
248.222	15.12
248.439	13.75
248.655	15.28
248.871	14.59
249.087	14.72
249.303	16.37
249.519	15.61
249.736	16.69
249.952	17.6
250.168	17.95
250.384	17.43
250.6	17.39
250.816	22.5
251.032	18.25
251.248	17.91
251.464	16.43
251.68	14.82
251.896	13.43
252.112	12.54
252.328	12.04
252.544	14.04
252.76	15.77
252.976	15.84
253.192	13.88
253.408	17.3
253.624	16.57
253.84	17.32
254.056	17.74
254.272	20.34
254.487	21.17
254.703	23.84
254.919	22.65
255.135	20.63
255.351	19.27
255.567	21.88
255.782	18.72
255.998	19.78
256.214	19.47
256.43	20.87
256.646	22.23
256.861	22.42
257.077	19.06
257.293	17.33
257.508	17.24
257.724	16.18
257.94	13.82
258.155	14.36
258.371	14.63
258.587	13.88
258.802	14.41
259.018	13.43
259.234	13.85
259.449	14.03
259.665	14.49
259.88	15.2
260.096	15.72
260.312	15.85
260.527	15.5
260.743	16.09
260.958	15.82
261.174	15.44
261.389	14.91
261.605	15.11
261.82	16.93
262.036	16.23
262.251	15.55
262.466	13.21
262.682	15.26
262.897	15.61
263.113	14.85
263.328	17.35
263.543	17.82
263.759	18.29
263.974	18.08
264.189	16.59
264.405	18.99
264.62	19.4
264.835	21.98
265.051	19.13
265.266	20.84
265.481	20.2
265.696	18.24
265.912	18.61
266.127	19.66
266.342	17.76
266.557	17.47
266.773	14.07
266.988	12.34
267.203	12.35
267.418	11.77
267.633	7.99
267.848	7.97
268.064	7.46
268.279	5.37
268.494	4.46
268.709	4.13
268.924	3.19
269.139	6.56
269.354	6.95
269.569	6.07
269.784	5.49
269.999	8.84
270.214	8.6
270.429	9.16
270.644	10.57
270.859	10.88
271.074	10.57
271.289	9.94
271.504	8.01
271.719	8.18
271.934	10.25
272.149	12.39
272.363	13.04
272.578	14.36
272.793	14.11
273.008	12.39
273.223	12.9
273.438	13.06
273.653	14.14
273.867	15.93
274.082	18.06
274.297	17.26
274.512	15.52
274.726	13.79
274.941	11.7
275.156	13.83
275.371	16.71
275.585	16.79
275.8	18.31
276.015	17.41
276.229	17.31
276.444	17.08
276.659	16.18
276.873	17.74
277.088	18.51
277.302	20.15
277.517	18.29
277.732	19.42
277.946	19.93
278.161	19.88
278.375	18.35
278.59	17.03
278.804	15.14
279.019	15.75
279.233	13.71
279.448	13.83
279.662	12.53
279.877	13.06
280.091	13.66
280.306	12.74
280.52	12.04
280.735	16.76
280.949	16.98
281.163	19.54
281.378	20.18
281.592	20.62
281.806	19.83
282.021	19.22
282.235	19.24
282.449	17.38
282.664	14.87
282.878	15.88
283.092	14.61
283.307	13.81
283.521	13.08
283.735	13.59
283.949	14.23
284.164	13.1
284.378	11.91
284.592	13.35
284.806	13.9
285.02	15.54
285.234	13.88
285.449	13.68
285.663	13.62
285.877	13.07
286.091	12.57
286.305	12.82
286.519	14.67
286.733	17.37
286.947	15.02
287.161	13.66
287.375	15.15
287.589	15.49
287.803	15.59
288.017	16.95
288.231	16.86
288.445	16.76
288.659	15.92
288.873	14.11
289.087	13.22
289.301	13.14
289.515	14.35
289.729	12.77
289.943	12.26
290.157	11.73
290.371	9.92
290.584	10.22
290.798	9.41
291.012	10.22
291.226	11.17
291.44	10.09
291.654	11.39
291.867	10.24
292.081	10.24
292.295	11.03
292.509	10.25
292.722	13.57
292.936	12.57
293.15	13.45
293.364	14.83
293.577	15
293.791	15.57
294.005	15.31
294.218	14.94
294.432	15.33
294.645	15.21
294.859	16.16
295.073	15.39
295.286	16.42
295.5	17.6
295.713	17.01
295.927	17.69
296.14	17.98
296.354	18.96
296.568	20.09
296.781	19.98
296.994	20.46
297.208	20.47
297.421	18.81
297.635	19.25
297.848	17.66
298.062	17.14
298.275	17.49
298.489	18.23
298.702	17.35
298.915	17.27
299.129	17.92
299.342	17.77
299.555	18.02
299.769	21.4
299.982	20.28
300.195	20.68
300.409	20.37
300.622	18.62
300.835	17.32
301.048	18.07
301.262	18.23
301.475	16.57
301.688	16.68
301.901	16.54
302.115	14.47
302.328	12.99
302.541	14.46
302.754	16.41
302.967	16.75
303.18	17
303.393	15.61
303.607	15.61
303.82	17.16
304.033	16.09
304.246	15.22
304.459	15.55
304.672	18.72
304.885	16.87
305.098	16.63
305.311	17.34
305.524	15.97
305.737	17.49
305.95	17.86
306.163	18.94
306.376	19.77
306.589	21.41
306.802	20.6
307.015	19.75
307.228	19.25
307.44	19.02
307.653	18.32
307.866	21.27
308.079	21.98
308.292	20.99
308.505	19.15
308.718	18.98
308.93	18.34
309.143	18.81
309.356	19.53
309.569	21.8
309.781	20.62
309.994	21.12
310.207	18.68
310.42	17.4
310.632	19.14
310.845	19.83
311.058	20.96
311.27	20.58
311.483	20.53
311.696	19.6
311.908	18.25
312.121	18.87
312.333	18.94
312.546	19
312.759	17.7
312.971	16.38
313.184	15.48
313.396	14.45
313.609	13.43
313.821	12.27
314.034	12.33
314.246	12.68
314.459	12.36
314.671	11.87
314.884	13.15
315.096	15.02
315.309	12.99
315.521	12.63
315.733	12.09
315.946	11.45
316.158	13.23
316.371	12.45
316.583	12.53
316.795	12.18
317.008	11.38
317.22	10.94
317.432	12.43
317.644	14.64
317.857	13.99
318.069	15.11
318.281	16.54
318.494	18.14
318.706	18.26
318.918	18.55
319.13	18.08
319.342	18.16
319.555	16.96
319.767	14.62
319.979	14.12
320.191	16.24
320.403	15.71
320.615	17.63
320.827	15.51
321.039	16.02
321.252	16.69
321.464	17.48
321.676	18.4
321.888	20.63
322.1	20.35
322.312	21.1
322.524	22.17
322.736	23.16
322.948	21.05
323.16	19.69
323.372	20.5
323.584	20.57
323.796	20.07
324.007	19.72
324.219	19.57
324.431	19.98
324.643	19.01
324.855	18.3
325.067	18.44
325.279	17.8
325.491	19
325.702	18.15
325.914	17.27
326.126	16.03
326.338	16.08
326.55	15.3
326.761	15.62
326.973	15.62
327.185	13.59
327.396	13.32
327.608	14.85
327.82	14.94
328.032	14.97
328.243	14.4
328.455	15.36
328.666	15.77
328.878	16.69
329.09	16.91
329.301	16.13
329.513	16.59
329.725	15.94
329.936	15.46
330.148	16.38
330.359	15.19
330.571	16.71
330.782	16.33
330.994	15.85
331.205	16.39
331.417	15.13
331.628	16.64
331.84	16.74
332.051	17.46
332.262	20.23
332.474	21.03
332.685	21.13
332.897	21.54
333.108	21.11
333.319	20.71
333.531	21.02
333.742	22.54
333.953	22.88
334.165	22.5
334.376	22.95
334.587	21.74
334.799	21.27
335.01	21.15
335.221	20.42
335.432	21.43
335.644	20.91
335.855	19
336.066	17.96
336.277	18
336.488	20.32
336.7	19.26
336.911	16.21
337.122	15.31
337.333	16.23
337.544	17.22
337.755	17.74
337.966	18.69
338.177	19.76
338.388	19.83
338.599	17.84
338.811	17.85
339.022	17.78
339.233	20.4
339.444	19.49
339.655	18.59
339.866	18.28
340.076	18.25
340.287	17.72
340.498	17.33
340.709	18.16
340.92	20.47
341.131	18.82
341.342	17.92
341.553	17.12
341.764	17.84
341.975	19.56
342.185	18.08
342.396	16.58
342.607	17.15
342.818	17.6
343.029	17.38
343.239	16.88
343.45	18.41
343.661	20.27
343.872	21.59
344.082	21.3
344.293	20.4
344.504	20.89
344.714	21.53
344.925	22.04
345.136	21.21
345.346	22.01
345.557	22.3
345.768	21.68
345.978	21.37
346.189	21.21
346.399	21.73
346.61	21.3
346.821	20.88
347.031	21.01
347.242	19.54
347.452	19.42
347.663	17.36
347.873	17.91
348.084	16.71
348.294	17.06
348.504	15.71
348.715	14.87
348.925	15.37
349.136	15.49
349.346	15.4
349.557	16.51
349.767	17.15
349.977	19.13
350.188	19.04
350.398	20.29
350.608	19.5
350.819	20.32
351.029	20.59
351.239	19.79
351.449	20.02
351.66	20.27
351.87	19.34
352.08	18.22
352.29	17.25
352.501	16.71
352.711	16
352.921	14.81
353.131	15.83
353.341	15.1
353.552	16.11
353.762	15.62
353.972	15.89
354.182	15.86
354.392	18.05
354.602	17.79
354.812	16.6
355.022	16
355.232	17.1
355.442	15.96
355.652	16.63
355.862	16.86
356.072	17.21
356.282	16.24
356.492	17.12
356.702	15.68
356.912	14.91
357.122	15.63
357.332	16.08
357.542	16.35
357.752	16.96
357.962	17.42
358.171	16.85
358.381	17.01
358.591	17.56
358.801	16.95
359.011	17.79
359.221	19.4
359.43	19.25
359.64	18.86
359.85	19.59
360.06	19.38
360.269	18.36
360.479	18.36
360.689	17.16
360.899	17.85
361.108	17.69
361.318	17.7
361.528	17.39
361.737	17.34
361.947	17.8
362.156	16.45
362.366	16.43
362.576	16.6
362.785	17.55
362.995	18.65
363.204	17.88
363.414	17.75
363.623	17.02
363.833	16.17
364.042	16.44
364.252	16.42
364.461	17.45
364.671	17.4
364.88	17.84
365.09	17.58
365.299	16.67
365.509	16.28
365.718	16.8
365.927	17.4
366.137	17.82
366.346	17.14
366.555	16.49
366.765	15.93
366.974	16.05
367.183	15.69
367.393	14.17
367.602	14.6
367.811	14.31
368.021	14.2
368.23	13.34
368.439	13.5
368.648	13.24
368.857	13.73
369.067	13.95
369.276	12.87
369.485	13.62
369.694	12.27
369.903	12.66
370.112	14.01
370.321	12.87
370.531	13.33
370.74	12.3
370.949	12.05
371.158	11.35
371.367	10.49
371.576	11.61
371.785	11.05
371.994	13.01
372.203	13.14
372.412	12.89
372.621	13.89
372.83	13.69
373.039	14.45
373.248	14.47
373.457	15.28
373.666	15.96
373.874	14.85
374.083	14.8
374.292	14.58
374.501	13.98
374.71	13.56
374.919	13.21
375.128	13.7
375.336	13.36
375.545	13.74
375.754	13.31
375.963	13.23
376.171	13.32
376.38	13.14
376.589	12.79
376.798	12.91
377.006	12.89
377.215	13.32
377.424	13.23
377.632	13.51
377.841	13.69
378.05	13.84
378.258	12.98
378.467	13.1
378.675	13.53
378.884	13.28
379.093	13.16
379.301	13.45
379.51	12.53
379.718	12.21
379.927	11.86
380.135	12.01
380.344	12.07
380.552	12.96
380.761	12.26
380.969	11.59
381.177	11.55
381.386	11.5
381.594	10.81
381.803	10.96
382.011	10.91
382.219	10.76
382.428	9.94
382.636	9.65
382.845	8.65
383.053	9.22
383.261	9.26
383.469	10.08
383.678	9.65
383.886	9.49
384.094	10.05
384.302	9.98
384.511	10.11
384.719	10.52
384.927	10.56
385.135	10.81
385.343	10.86
385.552	11.12
385.76	10.15
385.968	10.82
386.176	10.77
386.384	10.51
386.592	10.41
386.8	10.54
387.008	10.09
387.216	9.44
387.424	9.54
387.633	9.42
387.841	8.96
388.049	9.18
388.257	8.55
388.465	8.25
388.672	8.25
388.88	7.94
389.088	7.52
389.296	7.36
389.504	7.49
389.712	7.61
389.92	7.24
390.128	7.4
390.336	7.57
390.544	7.75
390.751	8.16
390.959	7.89
391.167	8
391.375	8.08
391.583	8.35
391.79	8.42
391.998	8.16
392.206	8.57
392.414	8.82
392.621	8.79
392.829	8.42
393.037	8.6
393.244	8.56
393.452	8.08
393.66	8.16
393.867	7.82
394.075	7.8
394.283	8.15
394.49	8.25
394.698	7.94
394.905	7.73
395.113	8.41
395.32	8.17
395.528	8.4
395.735	8.67
395.943	8.65
396.15	9.11
396.358	9.17
396.565	8.94
396.773	8.61
396.98	8.57
397.188	8.78
397.395	8.34
397.602	8.33
397.81	7.95
398.017	8.24
398.225	8.39
398.432	7.91
398.639	7.98
398.847	8.13
399.054	8.02
399.261	7.85
399.468	7.7
399.676	7.81
399.883	7.74
400.09	7.82
400.297	7.53
400.505	6.79
400.712	7.11
400.919	7.12
401.126	7.01
401.333	7.3
401.54	7.72
401.748	7.79
401.955	7.49
402.162	7.62
402.369	7.55
402.576	7.76
402.783	8.3
402.99	7.92
403.197	7.94
403.404	7.79
403.611	7.37
403.818	6.83
404.025	6.65
404.232	6.62
404.439	6.51
404.646	6.71
404.853	6.51
405.06	6.35
405.267	6.85
405.474	6.68
405.681	6.53
405.887	6.63
406.094	6.96
406.301	6.97
406.508	7
406.715	7.12
406.922	6.67
407.128	6.87
407.335	7.06
407.542	6.67
407.749	6.79
407.955	6.76
408.162	6.45
408.369	6.62
408.575	6.86
408.782	7.22
408.989	7.16
409.195	7.29
409.402	6.93
409.609	6.78
409.815	6.93
410.022	7.12
410.228	7.04
410.435	7.47
410.642	7.1
410.848	7.26
411.055	6.96
411.261	6.62
411.468	6.7
411.674	6.88
411.881	7
412.087	6.73
412.294	6.15
412.5	6.62
412.706	6.31
412.913	6.47
413.119	6.16
413.326	6.47
413.532	6.86
413.738	6.98
413.945	6.79
414.151	6.71
414.357	6.71
414.564	6.87
414.77	6.65
414.976	6.71
415.182	6.51
415.389	6.55
415.595	6.07
415.801	5.84
416.007	5.79
416.214	5.9
416.42	5.77
416.626	6
416.832	6.08
417.038	5.98
417.244	5.98
417.45	6.12
417.657	5.97
417.863	6.16
418.069	6.08
418.275	6.01
418.481	6.27
418.687	6.41
418.893	6.41
419.099	6.31
419.305	6.27
419.511	6.32
419.717	6.27
419.923	6.12
420.129	6.09
420.335	6.27
420.541	6.23
420.746	5.96
420.952	5.79
421.158	5.82
421.364	5.83
421.57	5.84
421.776	5.79
421.982	5.86
422.187	6.12
422.393	6.16
422.599	6.08
422.805	6.18
423.01	6.4
423.216	6.45
423.422	6.26
423.628	6.23
423.833	6.22
424.039	6.18
424.245	6.09
424.45	6.01
424.656	5.98
424.862	6
425.067	6
425.273	5.99
425.478	6.01
425.684	6.17
425.889	6.19
426.095	6.35
426.301	6.37
426.506	6.41
426.712	6.4
426.917	6.33
427.123	6.28
427.328	6.22
427.533	6.01
427.739	5.83
427.944	5.86
428.15	5.99
428.355	5.84
428.561	5.92
428.766	5.69
428.971	5.78
429.177	5.99
429.382	5.96
429.587	5.85
429.793	5.78
429.998	5.87
430.203	6
430.408	5.87
430.614	5.91
430.819	6.03
431.024	6.03
431.229	5.8
431.434	5.73
431.64	5.69
431.845	5.74
432.05	5.68
432.255	5.64
432.46	5.41
432.665	5.54
432.87	5.46
433.076	5.39
433.281	5.47
433.486	5.55
433.691	5.59
433.896	5.5
434.101	5.58
434.306	5.81
434.511	5.85
434.716	5.86
434.921	5.88
435.126	5.88
435.331	5.67
435.535	5.78
435.74	5.82
435.945	5.61
436.15	5.59
436.355	5.44
436.56	5.38
436.765	5.4
436.97	5.63
437.174	5.71
437.379	5.86
437.584	5.94
437.789	5.81
437.993	5.79
438.198	5.82
438.403	5.91
438.608	5.94
438.812	5.83
439.017	5.91
439.222	5.85
439.426	5.82
439.631	5.61
439.836	5.72
440.04	5.96
440.245	5.96
440.45	6.04
440.654	6.06
440.859	6.22
441.063	6.4
441.268	6.37
441.472	6.28
441.677	6.22
441.881	6.24
442.086	6.23
442.29	5.8
442.495	5.76
442.699	5.7
442.904	5.78
443.108	5.55
443.312	5.45
443.517	5.52
443.721	5.51
443.925	5.63
444.13	5.72
444.334	5.73
444.538	6.04
444.743	6.05
444.947	6.08
445.151	5.94
445.356	6.04
445.56	5.98
445.764	5.84
445.968	5.81
446.173	5.63
446.377	5.68
446.581	5.69
446.785	5.59
446.989	5.64
447.193	5.61
447.398	5.7
447.602	5.6
447.806	5.66
448.01	5.74
448.214	5.69
448.418	5.61
448.622	5.57
448.826	5.53
449.03	5.45
449.234	5.36
449.438	5.39
449.642	5.43
449.846	5.56
450.05	5.22
450.254	4.98
450.458	4.95
450.662	5.09
450.866	5.1
451.069	5.1
451.273	5.31
451.477	5.3
451.681	5.27
451.885	5.18
452.089	5.31
452.292	5.45
452.496	5.52
452.7	5.64
452.904	5.54
453.107	5.32
453.311	5.39
453.515	5.2
453.719	5.16
453.922	5.13
454.126	5.23
454.33	4.91
454.533	4.98
454.737	5.03
454.94	5.01
455.144	4.94
455.348	5.12
455.551	5.01
455.755	5.11
455.958	5.14
456.162	5.27
456.365	5.26
456.569	5.45
456.772	5.45
456.976	5.33
457.179	5.36
457.383	5.54
457.586	5.53
457.79	5.54
457.993	5.61
458.196	5.53
458.4	5.48
458.603	5.3
458.807	5.38
459.01	5.59
459.213	5.82
459.417	5.81
459.62	5.85
459.823	5.89
460.026	6.02
460.23	5.91
460.433	5.93
460.636	5.97
460.839	6.19
461.042	6.15
461.246	6.07
461.449	5.78
461.652	5.77
461.855	5.65
462.058	5.65
462.261	5.55
462.464	5.76
462.668	5.88
462.871	5.93
463.074	5.7
463.277	5.56
463.48	5.31
463.683	5.52
463.886	5.4
464.089	5.48
464.292	5.5
464.495	5.47
464.698	5.53
464.901	5.51
465.104	5.54
465.306	5.68
465.509	5.72
465.712	5.94
465.915	5.82
466.118	6.06
466.321	6.13
466.524	5.92
466.726	5.94
466.929	5.77
467.132	5.69
467.335	5.49
467.538	5.52
467.74	5.58
467.943	5.52
468.146	5.51
468.348	5.41
468.551	5.15
468.754	5.35
468.956	5.26
469.159	5.44
469.362	5.62
469.564	5.49
469.767	5.3
469.969	5.22
470.172	5.39
470.375	5.49
470.577	5.58
470.78	5.73
470.982	5.66
471.185	5.53
471.387	5.46
471.59	5.48
471.792	5.79
471.995	5.83
472.197	5.8
472.399	5.65
472.602	5.75
472.804	5.76
473.007	5.79
473.209	5.76
473.411	5.87
473.614	5.88
473.816	5.63
474.018	5.52
474.22	5.73
474.423	5.68
474.625	5.64
474.827	5.55
475.03	5.39
475.232	5.46
475.434	5.58
475.636	5.58
475.838	5.54
476.04	5.57
476.243	5.49
476.445	5.48
476.647	5.38
476.849	5.51
477.051	5.71
477.253	5.65
477.455	5.46
477.657	5.39
477.859	5.12
478.061	5
478.263	5.17
478.465	5.25
478.667	5.09
478.869	5.15
479.071	5.14
479.273	5.11
479.475	5.28
479.677	5.41
479.879	5.34
480.081	5.74
480.283	5.73
480.485	5.78
480.686	5.72
480.888	5.82
481.09	5.86
481.292	5.81
481.494	5.55
481.695	5.5
481.897	5.56
482.099	5.41
482.301	5.36
482.502	5.32
482.704	5.28
482.906	5.35
483.107	5.32
483.309	5.32
483.511	5.3
483.712	5.35
483.914	5.3
484.115	5.22
484.317	5.3
484.519	5.28
484.72	5.29
484.922	5.28
485.123	5.17
485.325	5.19
485.526	5.15
485.728	5.15
485.929	5.2
486.131	5.18
486.332	5.25
486.534	5.27
486.735	5.31
486.936	5.35
487.138	5.28
487.339	5.31
487.541	5.31
487.742	5.36
487.943	5.34
488.144	5.29
488.346	5.33
488.547	5.32
488.748	5.29
488.95	5.24
489.151	5.22
489.352	5.3
489.553	5.34
489.755	5.3
489.956	5.34
490.157	5.3
490.358	5.36
490.559	5.39
490.76	5.27
490.961	5.31
491.163	5.37
491.364	5.4
491.565	5.38
491.766	5.4
491.967	5.36
492.168	5.22
492.369	5.27
492.57	5.26
492.771	5.32
492.972	5.44
493.173	5.43
493.374	5.47
493.575	5.46
493.776	5.34
493.976	5.38
494.177	5.45
494.378	5.75
494.579	5.75
494.78	5.76
494.981	5.55
495.182	5.65
495.382	5.69
495.583	5.68
495.784	5.87
495.985	6.04
496.185	5.9
496.386	5.72
496.587	5.59
496.788	5.63
496.988	5.5
497.189	5.53
497.39	5.32
497.59	5.36
497.791	5.41
497.992	5.34
498.192	5.37
498.393	5.55
498.593	5.7
498.794	5.74
498.994	5.79
499.195	5.93
499.395	5.99
499.596	6.12
499.796	6.1
499.997	5.92
500.197	5.85
500.398	5.8
500.598	5.58
500.799	5.64
500.999	5.61
501.199	5.52
501.4	5.63
501.6	5.71
501.801	5.79
502.001	5.83
502.201	6.01
502.402	6.04
502.602	6
502.802	6.18
503.002	5.99
503.203	5.97
503.403	5.97
503.603	5.9
503.803	5.74
504.003	5.75
504.204	5.71
504.404	5.45
504.604	5.33
504.804	5.37
505.004	5.24
505.204	5.38
505.404	5.6
505.604	5.74
505.804	5.72
506.005	5.79
506.205	5.72
506.405	5.72
506.605	5.88
506.805	6
507.005	6.11
507.204	6.29
507.404	6.34
507.604	6.2
507.804	6.13
508.004	6.16
508.204	6.18
508.404	6
508.604	6.01
508.804	6
509.003	5.95
509.203	5.85
509.403	5.79
509.603	5.71
509.803	5.7
510.002	5.67
510.202	5.69
510.402	5.86
510.602	6.03
510.801	6.07
511.001	5.99
511.201	6.09
511.4	6.18
511.6	6.26
511.8	6.23
511.999	6.23
512.199	6.31
512.398	6.12
512.598	6.02
512.797	5.98
512.997	5.9
513.197	5.94
513.396	5.89
513.596	6.01
513.795	5.88
513.994	5.91
514.194	5.98
514.393	5.98
514.593	6.13
514.792	6.18
514.992	6.2
515.191	6.32
515.39	6.39
515.59	6.44
515.789	6.46
515.988	6.66
516.188	6.79
516.387	6.77
516.586	6.6
516.786	6.5
516.985	6.56
517.184	6.57
517.383	6.66
517.582	6.69
517.782	6.7
517.981	6.61
518.18	6.39
518.379	6.42
518.578	6.31
518.777	6.47
518.976	6.51
519.176	6.45
519.375	6.48
519.574	6.29
519.773	6.37
519.972	6.3
520.171	6.26
520.37	6.4
520.569	6.33
520.768	6.49
520.967	6.47
521.166	6.53
521.365	6.46
521.564	6.61
521.762	6.68
521.961	6.7
522.16	6.74
522.359	6.78
522.558	6.84
522.757	6.93
522.956	6.9
523.154	6.87
523.353	6.83
523.552	6.83
523.751	6.68
523.949	6.74
524.148	6.66
524.347	6.73
524.546	6.73
524.744	6.69
524.943	6.73
525.142	6.63
525.34	6.7
525.539	6.72
525.737	6.8
525.936	6.91
526.135	6.88
526.333	6.96
526.532	7
526.73	7.02
526.929	7.03
527.127	7.1
527.326	7.28
527.524	7.34
527.723	7.32
527.921	7.24
528.12	7.21
528.318	7.25
528.516	7.21
528.715	7.21
528.913	7.2
529.112	7.22
529.31	7.15
529.508	7.06
529.707	6.96
529.905	7
530.103	7.06
530.301	7.07
530.5	7.15
530.698	7.2
530.896	7.22
531.094	7.26
531.293	7.3
531.491	7.35
531.689	7.49
531.887	7.6
532.085	7.67
532.283	7.78
532.481	7.78
532.68	7.68
532.878	7.78
533.076	7.77
533.274	7.73
533.472	7.65
533.67	7.63
533.868	7.51
534.066	7.53
534.264	7.4
534.462	7.41
534.66	7.45
534.858	7.47
535.056	7.33
535.253	7.32
535.451	7.38
535.649	7.5
535.847	7.56
536.045	7.65
536.243	7.58
536.441	7.74
536.638	7.76
536.836	7.8
537.034	7.86
537.232	7.93
537.43	8.02
537.627	8.03
537.825	8.02
538.023	8.09
538.22	8.19
538.418	8.39
538.616	8.45
538.813	8.5
539.011	8.43
539.209	8.42
539.406	8.64
539.604	8.64
539.801	8.68
539.999	8.64
540.196	8.71
540.394	8.7
540.591	8.59
540.789	8.58
540.986	8.52
541.184	8.61
541.381	8.62
541.579	8.5
541.776	8.49
541.974	8.5
542.171	8.51
542.368	8.53
542.566	8.61
542.763	8.74
542.96	8.76
543.158	8.84
543.355	8.85
543.552	8.88
543.75	8.94
543.947	8.96
544.144	9.01
544.341	9.07
544.539	9.07
544.736	8.91
544.933	8.91
545.13	8.94
545.327	8.98
545.524	9.14
545.722	9.21
545.919	9.28
546.116	9.45
546.313	9.48
546.51	9.63
546.707	9.75
546.904	9.91
547.101	9.92
547.298	10.06
547.495	10.17
547.692	10.06
547.889	10.04
548.086	10.13
548.283	10.14
548.48	10.2
548.677	10.29
548.874	10.38
549.07	10.37
549.267	10.55
549.464	10.51
549.661	10.47
549.858	10.67
550.055	10.83
550.251	10.63
550.448	10.56
550.645	10.72
550.842	10.7
551.038	10.75
551.235	11.16
551.432	11.17
551.628	11.33
551.825	11.21
552.022	11.05
552.218	11.25
552.415	11.48
552.612	11.7
552.808	11.69
553.005	11.61
553.201	11.37
553.398	11.18
553.594	11.19
553.791	11.12
553.987	11.24
554.184	11.44
554.38	11.42
554.577	11.43
554.773	11.35
554.97	11.47
555.166	11.69
555.362	11.88
555.559	11.83
555.755	11.75
555.952	11.94
556.148	12.18
556.344	12.27
556.541	12.32
556.737	12.35
556.933	12.53
557.129	12.62
557.326	12.66
557.522	12.66
557.718	12.98
557.914	13.15
558.11	13.02
558.307	12.97
558.503	13.07
558.699	13.03
558.895	13.16
559.091	13.07
559.287	12.96
559.483	12.94
559.679	12.94
559.876	12.76
560.072	12.84
560.268	13.17
560.464	13.15
560.66	13.06
560.856	13.2
561.052	13.21
561.247	13.47
561.443	13.72
561.639	13.87
561.835	13.91
562.031	13.83
562.227	13.85
562.423	13.7
562.619	13.9
562.815	13.95
563.01	13.95
563.206	14.05
563.402	14.02
563.598	13.93
563.793	13.98
563.989	14.11
564.185	14.4
564.381	14.46
564.576	14.6
564.772	14.61
564.968	14.65
565.163	14.79
565.359	14.96
565.555	14.97
565.75	15.02
565.946	15.01
566.141	15.28
566.337	15.31
566.532	15.37
566.728	15.43
566.923	15.42
567.119	15.54
567.314	15.4
567.51	15.52
567.705	15.59
567.901	15.6
568.096	15.83
568.292	15.68
568.487	15.81
568.682	15.85
568.878	15.69
569.073	15.96
569.268	15.8
569.464	16.06
569.659	16.04
569.854	16.11
570.05	16.35
570.245	16.14
570.44	16.32
570.635	16.34
570.831	16.55
571.026	16.75
571.221	16.8
571.416	17.02
571.611	17.06
571.806	16.86
572.002	16.86
572.197	16.76
572.392	16.84
572.587	16.77
572.782	16.93
572.977	16.79
573.172	16.73
573.367	16.64
573.562	16.76
573.757	16.81
573.952	17.13
574.147	17.22
574.342	17.45
574.537	17.56
574.732	17.77
574.927	17.71
575.121	17.66
575.316	17.92
575.511	17.94
575.706	17.68
575.901	17.58
576.096	17.34
576.29	17.44
576.485	17.25
576.68	17.24
576.875	17.11
577.069	16.93
577.264	17.22
577.459	17.31
577.654	17.26
577.848	17.43
578.043	17.45
578.238	17.35
578.432	17.21
578.627	17.19
578.821	17.11
579.016	17.2
579.21	17.54
579.405	17.5
579.6	17.3
579.794	17.28
579.989	17.41
580.183	17.53
580.378	17.73
580.572	18.03
580.766	18.05
580.961	18.28
581.155	18.09
581.35	18.04
581.544	18.14
581.738	18.36
581.933	18.61
582.127	18.69
582.321	18.71
582.516	18.89
582.71	18.64
582.904	18.71
583.099	18.73
583.293	18.97
583.487	19.03
583.681	18.61
583.875	18.45
584.07	18.56
584.264	18.69
584.458	18.73
584.652	18.69
584.846	18.79
585.04	18.79
585.234	19.01
585.428	18.72
585.623	18.89
585.817	19.3
586.011	19.2
586.205	19.02
586.399	18.96
586.593	19.1
586.787	19.1
586.981	19.25
587.174	19.33
587.368	19.06
587.562	19.12
587.756	18.74
587.95	18.57
588.144	18.74
588.338	18.67
588.532	18.59
588.725	18.34
588.919	18.31
589.113	18.28
589.307	18.52
589.501	18.61
589.694	18.8
589.888	18.89
590.082	19.04
590.275	19.09
590.469	19.17
590.663	19.12
590.856	19.35
591.05	19.29
591.244	18.81
591.437	18.72
591.631	18.62
591.824	18.49
592.018	18.59
592.212	18.54
592.405	18.28
592.599	18.24
592.792	18.35
592.986	18.36
593.179	18.49
593.372	18.81
593.566	18.75
593.759	18.37
593.953	18.54
594.146	18.56
594.339	18.65
594.533	19
594.726	19.06
594.92	18.98
595.113	18.99
595.306	19.01
595.499	18.97
595.693	19.04
595.886	19.55
596.079	19.57
596.272	19.47
596.466	19.54
596.659	19.36
596.852	19.26
597.045	19.4
597.238	19.48
597.431	19.58
597.624	19.7
597.818	19.62
598.011	19.53
598.204	19.43
598.397	19.43
598.59	19.32
598.783	19.31
598.976	19.24
599.169	19.3
599.362	19.08
599.555	19.18
599.748	19.17
599.941	19.2
600.134	19.04
600.326	19.44
600.519	19.59
600.712	19.61
600.905	19.72
601.098	20.08
601.291	20.01
601.483	20.27
601.676	19.79
601.869	19.75
602.062	19.83
602.255	19.89
602.447	19.55
602.64	19.59
602.833	19.77
603.025	19.54
603.218	19.6
603.411	19.63
603.603	19.64
603.796	19.89
603.989	20.11
604.181	20.11
604.374	20.25
604.566	20.26
604.759	20.22
604.951	20.14
605.144	20.14
605.336	20.26
605.529	20.2
605.721	19.98
605.914	19.97
606.106	19.79
606.299	19.9
606.491	20.04
606.683	20.15
606.876	20.09
607.068	20.18
607.26	20.31
607.453	20.06
607.645	19.86
607.837	20.15
608.03	19.95
608.222	20.07
608.414	19.88
608.606	19.48
608.799	19.42
608.991	19.64
609.183	19.4
609.375	19.56
609.567	19.35
609.759	19.61
609.952	19.4
610.144	19.7
610.336	19.44
610.528	19.41
610.72	19.67
610.912	19.64
611.104	19.67
611.296	19.69
611.488	19.6
611.68	19.81
611.872	19.61
612.064	19.64
612.256	19.55
612.448	20.01
612.64	20.17
612.832	20.02
613.023	20.3
613.215	20.3
613.407	20.23
613.599	20.33
613.791	20.32
613.983	20.46
614.174	20.65
614.366	20.71
614.558	20.26
614.75	20.1
614.941	20.07
615.133	19.85
615.325	19.66
615.516	20.05
615.708	19.86
615.9	19.83
616.091	19.73
616.283	19.63
616.475	19.33
616.666	19.46
616.858	19.4
617.049	19.59
617.241	19.37
617.432	19.7
617.624	19.36
617.815	19.6
618.007	19.68
618.198	19.74
618.39	19.66
618.581	19.7
618.773	19.78
618.964	19.85
619.155	19.94
619.347	20.05
619.538	19.86
619.729	20.04
619.921	20.2
620.112	20.1
620.303	20.32
620.494	20.52
620.686	20.61
620.877	20.45
621.068	20.31
621.259	20.12
621.451	20.19
621.642	20.06
621.833	20.07
622.024	19.76
622.215	20.11
622.406	19.61
622.597	19.34
622.788	19.52
622.98	19.62
623.171	19.72
623.362	19.83
623.553	19.68
623.744	19.52
623.935	19.63
624.126	19.54
624.317	19.18
624.508	19.61
624.698	19.6
624.889	19.7
625.08	20.01
625.271	20.28
625.462	20.26
625.653	20.22
625.844	20.52
626.034	20.43
626.225	20.65
626.416	20.93
626.607	20.72
626.798	21.09
626.988	21.05
627.179	20.87
627.37	20.68
627.56	20.78
627.751	21.02
627.942	20.97
628.132	21.14
628.323	20.92
628.514	20.59
628.704	20.88
628.895	20.73
629.085	20.52
629.276	20.65
629.466	20.64
629.657	20.61
629.847	20.78
630.038	20.47
630.228	20.24
630.419	20.52
630.609	20.71
630.8	20.45
630.99	20.4
631.181	20.55
631.371	20.35
631.561	20.52
631.752	20.43
631.942	20
632.132	20.23
632.323	20.26
632.513	20
632.703	19.98
632.893	20.06
633.084	20.2
633.274	19.92
633.464	19.96
633.654	19.89
633.844	19.61
634.034	19.58
634.225	19.39
634.415	19.76
634.605	19.67
634.795	19.82
634.985	19.71
635.175	19.47
635.365	19.57
635.555	19.74
635.745	19.72
635.935	19.99
636.125	20.17
636.315	20.32
636.505	20.01
636.695	19.97
636.885	19.99
637.075	20.14
637.265	20.07
637.455	20.14
637.644	19.89
637.834	20.1
638.024	20.07
638.214	20.03
638.404	20.36
638.593	20.07
638.783	20.4
638.973	20.01
639.163	20.12
639.352	20.29
639.542	20.14
639.732	20.27
639.921	20.12
640.111	20.04
640.301	20.19
640.49	20.06
640.68	19.88
640.87	19.7
641.059	20.17
641.249	19.99
641.438	19.84
641.628	19.85
641.817	19.84
642.007	19.76
642.196	19.81
642.386	19.65
642.575	19.1
642.764	19.7
642.954	19.61
643.143	19.17
643.333	19.35
643.522	19.47
643.711	19.69
643.901	19.71
644.09	19.62
644.279	19.71
644.469	19.6
644.658	20
644.847	19.75
645.036	20.02
645.226	20.38
645.415	20.72
645.604	20.72
645.793	20.52
645.982	20.35
646.171	20.52
646.361	20.39
646.55	20.31
646.739	20.28
646.928	20.41
647.117	20.14
647.306	19.81
647.495	19.46
647.684	19.18
647.873	19.27
648.062	19.28
648.251	19.52
648.44	19.94
648.629	19.72
648.818	19.91
649.007	19.92
649.196	20.34
649.384	20.36
649.573	20.51
649.762	20.82
649.951	21.02
650.14	21.55
650.328	21.57
650.517	21.31
650.706	21.83
650.895	21.92
651.083	21.93
651.272	21.64
651.461	22.11
651.65	21.76
651.838	21.51
652.027	21.27
652.216	20.53
652.404	20.04
652.593	20.14
652.781	20.05
652.97	19.92
653.158	19.64
653.347	19.98
653.535	19.24
653.724	19.1
653.912	19.21
654.101	19.23
654.289	19.74
654.478	20.15
654.666	20.05
654.855	20.57
655.043	20.69
655.231	20.93
655.42	20.66
655.608	20.71
655.796	20.79
655.985	20.84
656.173	21.03
656.361	20.86
656.55	21.07
656.738	21.17
656.926	21.09
657.114	20.81
657.302	21.04
657.491	21.02
657.679	21.7
657.867	21.87
658.055	22.01
658.243	21.92
658.431	21.92
658.619	21.82
658.807	22.07
658.996	21.86
659.184	21.97
659.372	21.63
659.56	21.67
659.748	21.52
659.936	21.47
660.124	21.23
660.311	20.78
660.499	20.84
660.687	20.9
660.875	20.59
661.063	20.6
661.251	20.52
661.439	20.76
661.627	21.14
661.814	20.91
662.002	20.85
662.19	20.65
662.378	21.37
662.565	21.63
662.753	21.24
662.941	21.09
663.129	21.16
663.316	21.16
663.504	20.97
663.692	20.88
663.879	21.11
664.067	21.32
664.254	21.93
664.442	21.89
664.63	21.28
664.817	21.16
665.005	21.38
665.192	21.36
665.38	21.4
665.567	21.72
665.755	21.37
665.942	21.14
666.13	20.9
666.317	21.05
666.504	20.77
666.692	20.7
666.879	20.52
667.067	20.22
667.254	20.61
667.441	20.88
667.629	20.66
667.816	20.78
668.003	20.61
668.19	20.96
668.378	20.82
668.565	20.43
668.752	20.66
668.939	20.89
669.127	20.74
669.314	20.3
669.501	20.21
669.688	20.27
669.875	20.04
670.062	20.13
670.249	20.48
670.436	20.27
670.623	21
670.81	21.22
670.997	21.3
671.184	21.68
671.371	22.04
671.558	21.6
671.745	21.7
671.932	21.73
672.119	21.88
672.306	21.69
672.493	22.01
672.68	21.93
672.867	21.99
673.054	22.15
673.24	21.66
673.427	21.02
673.614	21.45
673.801	21.36
673.988	21.32
674.174	21.42
674.361	21.04
674.548	21.15
674.734	20.48
674.921	20.48
675.108	20.37
675.294	20.76
675.481	21.1
675.668	21.07
675.854	21.27
676.041	21.43
676.227	20.72
676.414	20.44
676.601	19.97
676.787	20.55
676.974	20.28
677.16	20.53
677.347	20.52
677.533	20.77
677.719	20.81
677.906	20.3
678.092	20.08
678.279	20.69
678.465	20.85
678.651	21.4
678.838	21.45
679.024	21.22
679.21	21.31
679.397	21.68
679.583	21.5
679.769	21.33
679.955	21.72
680.142	21.77
680.328	21.94
680.514	21.89
680.7	21.47
680.886	21.51
681.073	21.55
681.259	21.09
681.445	20.38
681.631	20.33
681.817	20.65
682.003	20.35
682.189	20.34
682.375	20.17
682.561	20.3
682.747	20.2
682.933	20.13
683.119	20.46
683.305	20.77
683.491	21.18
683.677	21.36
683.863	21.06
684.049	21.45
684.235	21.56
684.42	22.02
684.606	21.97
684.792	22.06
684.978	22.59
685.164	22.53
685.349	22.39
685.535	22.29
685.721	22.02
685.907	21.88
686.092	22.06
686.278	22.26
686.464	21.65
686.649	21.94
686.835	22.07
687.021	20.93
687.206	21.42
687.392	21.66
687.577	21.6
687.763	21.49
687.948	21.26
688.134	20.66
688.319	21.01
688.505	20.83
688.69	20.05
688.876	20.35
689.061	20.51
689.247	19.62
689.432	19.46
689.618	19.6
689.803	19.47
689.988	20.22
690.174	20.62
690.359	19.6
690.544	20.03
690.73	20.7
690.915	20.17
691.1	20.86
691.285	20.92
691.471	20.91
691.656	21.21
691.841	21.64
692.026	21.35
692.211	21.12
692.396	21.74
692.582	21.83
692.767	21.72
692.952	21.67
693.137	21.5
693.322	21.92
693.507	22.03
693.692	21.87
693.877	21.74
694.062	21.78
694.247	21.73
694.432	21.47
694.617	21.15
694.802	21.25
694.987	21.6
695.172	21.32
695.357	21.26
695.541	21.01
695.726	21.02
695.911	21.04
696.096	21.08
696.281	20.72
696.466	21.15
696.65	21.39
696.835	21.23
697.02	21.82
697.204	21.6
697.389	21.9
697.574	22.26
697.759	22.2
697.943	22.55
698.128	22.15
698.312	22.63
698.497	22.54
698.682	22.41
698.866	22.46
699.051	21.95
699.235	22.25
699.42	21.46
699.604	21.27
699.789	21.62
699.973	20.99
700.158	21.04
700.342	20.56
700.527	20.1
700.711	20.47
700.895	20.37
701.08	20.24
701.264	20.18
701.448	20.96
701.633	20.52
701.817	20.56
702.001	21.3
702.186	21.61
702.37	22.22
702.554	21.87
702.738	21.51
702.923	21.59
703.107	21.84
703.291	21.93
703.475	22.45
703.659	23.33
703.843	22.28
704.027	22.7
704.212	21.79
704.396	21.1
704.58	22.19
704.764	22.72
704.948	22.33
705.132	22.47
705.316	22.34
705.5	22.04
705.684	21.46
705.868	22.44
706.052	21.51
706.235	22.19
706.419	22.08
706.603	21.67
706.787	20.84
706.971	21.02
707.155	20.3
707.339	20.28
707.522	19.61
707.706	19.95
707.89	19.11
708.074	19.67
708.257	20.26
708.441	20.08
708.625	21.01
708.808	20.25
708.992	20.32
709.176	20.53
709.359	19.98
709.543	20.56
709.727	20.6
709.91	21.05
710.094	20.67
710.277	20.18
710.461	20.78
710.644	19.93
710.828	20.81
711.011	20.68
711.195	20.7
711.378	21.72
711.562	21.29
711.745	21.68
711.928	21.92
712.112	22.26
712.295	22.02
712.478	22.32
712.662	22.67
712.845	22.54
713.028	23.26
713.212	23.49
713.395	23.03
713.578	23.53
713.761	23.07
713.945	22.46
714.128	22.39
714.311	22.15
714.494	21.48
714.677	20.79
714.86	20.64
715.043	20.42
715.227	20.05
715.41	20.25
715.593	19.7
715.776	19.19
715.959	19.47
716.142	18.93
716.325	19.11
716.508	19.44
716.691	19.95
716.874	20.57
717.057	20.68
717.239	21.71
717.422	20.86
717.605	21.09
717.788	21.67
717.971	21.37
718.154	21.53
718.337	21.81
718.519	21.92
718.702	21.99
718.885	21.71
719.068	20.91
719.25	21.32
719.433	21.52
719.616	21.93
719.798	21.94
719.981	22.48
720.164	22.62
720.346	23.1
720.529	23.16
720.712	22.53
720.894	22.98
721.077	23.63
721.259	21.6
721.442	22.21
721.624	22.76
721.807	23.63
721.989	23.1
722.172	22.76
722.354	22.91
722.537	23.13
722.719	24.26
722.901	23.44
723.084	22.85
723.266	23.12
723.448	22.75
723.631	21.97
723.813	21.17
723.995	20.81
724.178	21.62
724.36	20.98
724.542	19.02
724.724	17.99
724.907	17.21
725.089	18.13
725.271	18.85
725.453	18.64
725.635	19.01
725.817	20.13
725.999	19.69
726.181	19.09
726.364	19.43
726.546	21.83
726.728	22.46
726.91	24.04
727.092	24.74
727.274	23.87
727.456	24.74
727.638	24.7
727.819	23.81
728.001	24.64
728.183	25.1
728.365	24.32
728.547	23.33
728.729	22.5
728.911	21.73
729.093	20.36
729.274	20.72
729.456	20.93
729.638	20.62
729.82	19.98
730.001	20.22
730.183	20.84
730.365	21.54
730.546	20.95
730.728	22.13
730.91	22.72
731.091	22.63
731.273	23.12
731.455	22.62
731.636	22.14
731.818	22.58
731.999	22.37
732.181	21.37
732.362	21.46
732.544	21.94
732.725	21.66
732.907	21.45
733.088	21.3
733.27	20.97
733.451	21.51
733.633	22.4
733.814	23.11
733.995	22.64
734.177	21.95
734.358	21.55
734.539	22.59
734.721	21.07
734.902	20.01
735.083	20.38
735.264	21.39
735.446	19.98
735.627	20.06
735.808	19.13
735.989	19.29
736.17	20.06
736.351	20.77
736.533	19.54
736.714	21.54
736.895	22.02
737.076	22.56
737.257	21.43
737.438	22.45
737.619	20.96
737.8	21.37
737.981	21.47
738.162	21.98
738.343	22.44
738.524	22.24
738.705	21.99
738.886	21.96
739.067	21.55
739.247	21.83
739.428	21.6
739.609	22.41
739.79	20.8
739.971	20.49
740.151	19.5
740.332	19.06
740.513	20.06
740.694	19.98
740.874	21.19
741.055	20.99
741.236	20.36
741.417	20.94
741.597	20.08
741.778	21.22
741.958	21.95
742.139	23.47
742.32	24.58
742.5	24.81
742.681	25.01
742.861	24.58
743.042	24.57
743.222	25.7
743.403	26.1
743.583	26.56
743.764	27.2
743.944	27.14
744.124	26.82
744.305	25.78
744.485	25.21
744.666	25.68
744.846	25.18
745.026	24.12
745.207	24.4
745.387	23.18
745.567	23.61
745.747	23.59
745.928	24.63
746.108	23.33
746.288	22.4
746.468	23.23
746.648	23.14
746.829	23.15
747.009	23.88
747.189	23.8
747.369	23.71
747.549	24.39
747.729	23.54
747.909	22.12
748.089	23.71
748.269	23.85
748.449	24.16
748.629	23.21
748.809	23.15
748.989	24.5
749.169	24.34
749.349	23.87
749.529	23.35
749.709	23.57
749.889	23.49
750.068	21.86
750.248	23.06
750.428	23.17
750.608	23.17
750.788	24.2
750.967	23.73
751.147	23.49
751.327	25.35
751.507	24.6
751.686	24.53
751.866	24.87
752.046	25.94
752.225	24.8
752.405	23.75
752.585	23.43
752.764	23.26
752.944	23.1
753.123	24.47
753.303	23.4
753.482	23.76
753.662	23.21
753.841	23.56
754.021	23.75
754.2	24.2
754.38	23.67
754.559	23.81
754.739	22.55
754.918	22.88
755.097	21.74
755.277	21.88
755.456	21.3
755.635	21.16
755.815	20.36
755.994	20.58
756.173	21.19
756.352	21.52
756.532	21.75
756.711	21.27
756.89	21.17
757.069	20.79
757.248	20.78
757.427	21.58
757.607	23.03
757.786	22.65
757.965	19.83
758.144	19.45
758.323	19.3
758.502	18.34
758.681	18.46
758.86	18.2
759.039	16.89
759.218	18.27
759.397	18.27
759.576	17.5
759.755	17.5
759.934	19.32
760.113	18.68
760.291	18.65
760.47	21.35
760.649	21.56
760.828	22.67
761.007	24.14
761.186	22.58
761.364	22.61
761.543	23.08
761.722	25.15
761.901	25.36
762.079	25.76
762.258	26
762.437	24.14
762.615	25.44
762.794	24.01
762.972	23.46
763.151	23.29
763.33	22.58
763.508	22.46
763.687	21.96
763.865	21.65
764.044	21.58
764.222	22.08
764.401	21.79
764.579	21.33
764.758	21.83
764.936	22.87
765.114	23.31
765.293	24.34
765.471	24.4
765.65	23.4
765.828	22.9
766.006	22.62
766.184	22.05
766.363	23.29
766.541	23.61
766.719	24.08
766.898	23.05
767.076	23.65
767.254	23.16
767.432	22.31
767.61	23.94
767.788	23.06
767.967	23.04
768.145	22.53
768.323	21.24
768.501	20.83
768.679	20.26
768.857	19.34
769.035	15.84
769.213	15.87
769.391	16.38
769.569	14.98
769.747	18.79
769.925	16.96
770.103	18.06
770.281	18.15
770.459	18.14
770.636	16.48
770.814	18.86
770.992	22.22
771.17	22.69
771.348	22.94
771.525	22.54
771.703	20.65
771.881	22.27
772.059	22.04
772.236	23.9
772.414	23.48
772.592	24.77
772.769	24.24
772.947	24.7
773.125	23.02
773.302	23.96
773.48	23.5
773.657	21.78
773.835	21.05
774.013	22.35
774.19	20.53
774.368	19.22
774.545	20.26
774.723	17.97
774.9	16.81
775.077	17.6
775.255	17.48
775.432	19.25
775.61	21.89
775.787	22.98
775.964	22.35
776.142	20.51
776.319	20.9
776.496	19.73
776.674	23.04
776.851	23.6
777.028	24.67
777.205	22.99
777.382	20.93
777.56	20.02
777.737	19.23
777.914	17.7
778.091	16.91
778.268	19.3
778.445	20.17
778.622	19.82
778.8	19.05
778.977	17.45
779.154	19.01
779.331	20.49
779.508	20.62
779.685	20.54
779.862	20.27
780.038	21.25
780.215	21.55
780.392	18.94
780.569	16.26
780.746	16.54
780.923	17.81
781.1	14.51
781.277	14.89
781.453	14.18
781.63	15.22
781.807	16.67
781.984	20.7
782.16	19.31
782.337	23.02
782.514	23.08
782.691	21.05
782.867	21.31
783.044	27.27
783.221	28.4
783.397	31.96
783.574	32.49
783.75	31.12
783.927	27.99
784.103	25.61
784.28	26.47
784.456	28.38
784.633	29.4
784.809	28.1
784.986	27.1
785.162	25.76
785.339	20.75
785.515	19.62
785.692	18.21
785.868	20.17
786.044	22.64
786.221	18.04
786.397	17.2
786.573	18.79
786.749	17.73
786.926	15.02
787.102	11.82
787.278	15.8
787.454	18.32
787.631	20.68
787.807	20.92
787.983	22.1
788.159	22.53
788.335	22.46
788.511	24.11
788.687	27.72
788.863	27.65
789.039	31.16
789.216	29.86
789.392	28.69
789.568	26.32
789.744	26.3
789.919	25.06
790.095	26.73
790.271	29.22
790.447	26.4
790.623	22.72
790.799	24.45
790.975	27.19
791.151	28.02
791.327	25.98
791.502	27.06
791.678	26.33
791.854	25.15
792.03	26.52
792.205	22.59
792.381	22.62
792.557	25.27
792.733	21.97
792.908	19.72
793.084	18.65
793.259	24.41
793.435	23.21
793.611	23.41
793.786	21.58
793.962	20.17
794.137	22.24
794.313	24.12
794.488	24.68
794.664	26.52
794.839	25.76
795.015	28.23
795.19	22.94
795.366	24.48
795.541	21.57
795.716	21.88
795.892	24.23
796.067	23.66
796.242	25.06
796.418	22.87
796.593	20.83
796.768	19.49
796.944	17.09
797.119	17.12
797.294	15.27
797.469	16.72
797.644	18.86
797.82	18.26
797.995	19
798.17	15.55
798.345	16.69
798.52	13.48
798.695	13.54
798.87	12.7
799.045	13.8
799.22	14.75
799.395	14.8
799.57	15.35
799.745	16.84
799.92	14.51
800.095	14.41
800.27	14.44
800.445	20.56
800.62	22.7
800.795	25.62
800.97	28.41
801.145	28.71
801.319	30.48
801.494	30.85
801.669	28.44
801.844	29.26
802.018	28.1
802.193	27.25
802.368	24.69
802.543	21.86
802.717	23.64
802.892	20.23
803.067	22.61
803.241	22.91
803.416	22.32
803.59	20.11
803.765	20.4
803.94	23.71
804.114	28.27
804.289	33.09
804.463	32.59
804.638	28.76
804.812	26.16
804.986	24.72
805.161	27.41
805.335	25.46
805.51	28.83
805.684	26.54
805.858	23.09
806.033	22.62
806.207	19.53
806.381	17.29
806.556	19.86
806.73	24.61
806.904	28.87
807.078	30.33
807.253	31.38
807.427	25.98
807.601	30.33
807.775	37.59
807.949	34.98
808.123	36.53
808.298	39.08
808.472	33.63
808.646	34.64
808.82	29.19
808.994	21.73
809.168	21.14
809.342	24.26
809.516	16.59
809.69	12.47
809.864	11.34
810.038	13.91
810.212	20.21
810.385	23.42
810.559	23.01
810.733	25.67
810.907	27.15
811.081	27.64
811.255	26.19
811.428	34.2
811.602	33.78
811.776	38.53
811.95	35.97
812.123	33.65
812.297	35.3
812.471	37.37
812.644	36.51
812.818	38.39
812.992	38.57
813.165	42.76
813.339	41.32
813.512	38.53
813.686	38.64
813.86	37.62
814.033	32.93
814.207	32.06
814.38	28.09
814.554	28.24
814.727	28.26
814.9	35.5
815.074	35.57
815.247	37.17
815.421	42.43
815.594	36.06
815.767	36.62
815.941	38.34
816.114	38.37
816.287	37
816.46	35.95
816.634	36.88
816.807	31.7
816.98	29.64
817.153	26.92
817.327	24.88
817.5	28.39
817.673	26.7
817.846	24.94
818.019	25.38
818.192	26.78
818.365	27.77
818.538	27.67
818.711	27.74
818.884	27.52
819.057	24.36
819.23	24.1
819.403	22.88
819.576	23.44
819.749	24.81
819.922	23.35
820.095	21.97
820.268	21.96
820.441	20.95
820.614	20.49
820.786	18.64
820.959	21.23
821.132	21.57
821.305	22.87
821.477	22.59
821.65	21.32
821.823	21.21
821.996	21
822.168	21.18
822.341	19.9
822.514	19.8
822.686	20.92
822.859	21.1
823.031	21.33
823.204	21.55
823.376	20.93
823.549	21.27
823.722	21.42
823.894	21.55
824.067	21.59
824.239	22.78
824.411	23.31
824.584	23.43
824.756	23.85
824.929	22.46
825.101	21.84
825.273	23.03
825.446	23.92
825.618	23.78
825.79	25.55
825.963	24.83
826.135	25.03
826.307	24.82
826.479	24.12
826.652	22.63
826.824	23.59
826.996	21.77
827.168	21.41
827.34	20.88
827.512	20.71
827.684	19.85
827.856	20.96
828.029	20.95
828.201	20.85
828.373	21.13
828.545	22.89
828.717	23.89
828.889	24.45
829.061	24.1
829.232	24.12
829.404	24.28
829.576	23.89
829.748	23.75
829.92	23.52
830.092	22.87
830.264	22.38
830.436	18.63
830.607	17.45
830.779	22.99
830.951	24.07
831.123	18.8
831.294	18.06
831.466	20.11
831.638	16.47
831.809	15.91
831.981	17.38
832.153	20.98
832.324	24.42
832.496	26.62
832.667	19.75
832.839	20.56
833.011	27.84
833.182	31.52
833.354	29.96
833.525	31.71
833.697	32
833.868	32.86
834.039	31.72
834.211	31.51
834.382	29.45
834.554	28.18
834.725	27.39
834.896	27.26
835.068	26.92
835.239	25.26
835.41	27.43
835.581	28.75
835.753	27.65
835.924	27.52
836.095	26.77
836.266	29.01
836.438	30.22
836.609	30.1
836.78	27.04
836.951	26.75
837.122	27.18
837.293	20.61
837.464	15.87
837.635	14.57
837.806	12.51
837.977	13.13
838.148	11.39
838.319	13.24
838.49	11.93
838.661	18.06
838.832	19.1
839.003	27.18
839.174	36.35
839.345	39.55
839.516	43.52
839.687	44.43
839.857	52.89
840.028	50.04
840.199	56.01
840.37	58.04
840.54	63.86
840.711	61.35
840.882	59.92
841.053	53.99
841.223	52.74
841.394	53.98
841.564	53.99
841.735	56.21
841.906	53.52
842.076	49.94
842.247	46.1
842.417	44.11
842.588	44.13
842.758	40.98
842.929	36.2
843.099	35.78
843.27	28.22
843.44	36.88
843.611	34.19
843.781	49.13
843.951	61.33
844.122	77.11
844.292	70.36
844.462	67.09
844.633	73.02
844.803	90.05
844.973	97.52
845.144	113.71
845.314	102.68
845.484	97.18
845.654	97.61
845.824	82.47
845.995	67.92
846.165	61.17
846.335	60.92
846.505	52.91
846.675	58.54
846.845	62.03
847.015	54.06
847.185	43.12
847.355	35.45
847.525	32.39
847.695	37.22
847.865	39.07
848.035	56.22
848.205	61.65
848.375	67.6
848.545	47.63
848.715	23.71
848.884	50.12
849.054	54.65
849.224	64.82
849.394	68.32
849.564	70.16
849.733	71.71
849.903	58.12
850.073	47.37
850.243	51.38
850.412	58.3
850.582	64.47
850.752	65.7
850.921	65.69
851.091	65.9
851.26	63.95
851.43	61.02
851.599	46.66
851.769	39.1
851.939	52.43
852.108	57.38
852.278	57.81
852.447	56.9
852.616	41.89
852.786	35.16
852.955	32.26
853.125	20.39
853.294	9.43
853.463	14.08
853.633	42.18
853.802	53.69
853.971	50.85
854.141	59.25
854.31	68.97
854.479	69.56
854.648	74.88
854.818	82.21
854.987	83
855.156	84.69
855.325	84.36
855.494	68.21
855.663	63.82
855.832	81
856.001	68.75
856.171	64.89
856.34	65.26
856.509	67.6
856.678	67.67
856.847	85.61
857.016	79.6
857.185	78.96
857.353	102.76
857.522	88.3
857.691	72.27
857.86	74.11
858.029	79.15
858.198	94.77
858.367	118.54
858.535	96.88
858.704	99.83
858.873	117.48
859.042	117.07
859.21	100.7
859.379	125.86
859.548	128.97
859.717	126.91
859.885	105.3
860.054	101.11
860.222	80.75
860.391	113.17
860.56	86.33
860.728	67.14
860.897	86.28
861.065	90.93
861.234	73.55
861.402	55.08
861.571	51.76
861.739	68.03
861.908	53.47
862.076	36.27
862.244	-6.96
862.413	16.11
862.581	21.89
862.749	10.33
862.918	-0.87
863.086	-0.54
863.254	9.33
863.423	25.17
863.591	40.26
863.759	42.65
863.927	72.72
864.096	80.72
864.264	87.09
864.432	107.53
864.6	117.96
864.768	136.52
864.936	148.23
865.104	151.04
865.272	118
865.44	214.44
865.608	172.96
865.776	143.65
865.944	129.42
866.112	95.5
866.28	88.1
866.448	77.43
866.616	75.78
866.784	81.02
866.952	72.28
867.12	75.55
867.288	63.83
867.455	56.62
867.623	54.84
867.791	75.43
867.959	79.25
868.127	83.91
868.294	86
868.462	80.92
868.63	83.28
868.797	81.78
868.965	129.61
869.133	120.94
869.3	107.59
869.468	140.54
869.636	80.76
869.803	92.36
869.971	96.38
870.138	100.11
870.306	108.38
870.473	91.19
870.641	82.16
870.808	74.87
870.975	74.41
871.143	72.15
871.31	65.51
871.478	57.16
871.645	54.24
871.812	36.5
871.98	46.9
872.147	45.76
872.314	42.39
872.482	56.63
872.649	35.89
872.816	34.53
872.983	60.64
873.15	37.57
873.318	23.45
873.485	18.34
873.652	4.52
873.819	-0.04
873.986	25.79
874.153	5.72
874.32	-11.51
874.487	-0.9
874.654	-12.64
874.821	0.86
874.988	-46.07
875.155	51.08
875.322	65.29
875.489	58.89
875.656	68
875.823	52.16
875.99	72.78
876.157	88.23
876.324	103.82
876.49	74.46
876.657	75.73
876.824	87.34
876.991	70.28
877.157	67.2
877.324	76.1
877.491	75.82
877.658	64.75
877.824	67.93
877.991	44.7
878.157	39.75
878.324	66.67
878.491	53.54
878.657	49.27
878.824	49.56
878.99	35.67
879.157	31.85
879.323	44.4
879.49	62.84
879.656	51.83
879.823	49.21
879.989	43.82
880.156	38.09
880.322	58.37
880.488	58.88
880.655	57.34
880.821	56.31
880.987	53.22
881.154	42.22
881.32	37.66
881.486	38.31
881.652	39.65
881.819	38.64
881.985	36.63
882.151	33.29
882.317	26.34
882.483	29.74
882.649	30.19
882.816	27.03
882.982	25.7
883.148	26.05
883.314	26.97
883.48	27.67
883.646	25.6
883.812	25.65
883.978	26.35
884.144	30.59
884.31	33.11
884.476	31.89
884.642	34.91
884.807	34.67
884.973	33.39
885.139	32.96
885.305	32.76
885.471	31.69
885.637	34.04
885.802	35.11
885.968	32.08
886.134	25.71
886.3	26.71
886.465	26.34
886.631	33.32
886.797	35.14
886.962	33.82
887.128	32.81
887.293	36.68
887.459	31.04
887.625	31.45
887.79	28.83
887.956	36.3
888.121	37.64
888.287	35.07
888.452	20.01
888.618	20.99
888.783	23.01
