Data from 2938120_Reflection_2.txt Node
Date: Sat Jul 11 17:51:18 EDT 2015
User: robert
Spectrometer: USB4E03001
Autoset integration time: false
Trigger mode: 4
Integration Time (sec): 1.000000E-1
Scans to average: 10
Electric dark correction enabled: true
Nonlinearity correction enabled: false
Boxcar width: 5
Stray light correction enabled: false
XAxis mode: Wavelengths
Stop averaging: false
Number of Pixels in Spectrum: 3648
>>>>>Begin Spectral Data<<<<<
177.566	875.93
177.785	-256.12
178.005	-63.96
178.225	-69.91
178.445	10.81
178.665	76.39
178.885	164.84
179.105	188.47
179.324	139.05
179.544	121.25
179.764	150.18
179.984	167.12
180.204	208.59
180.423	169.52
180.643	706.62
180.863	-746.37
181.083	274.69
181.302	371.14
181.522	221.23
181.742	238.94
181.961	260.58
182.181	211.43
182.401	322.78
182.621	1034.48
182.84	685.38
183.06	291.83
183.279	197.27
183.499	161.46
183.719	116.31
183.938	135.88
184.158	235.77
184.377	190.33
184.597	178.64
184.816	177.51
185.036	176.48
185.256	195.58
185.475	203.53
185.695	184.83
185.914	222.17
186.134	193.18
186.353	198.86
186.572	118.81
186.792	129.86
187.011	156.04
187.231	117.98
187.45	111
187.67	111.3
187.889	92.57
188.108	116.09
188.328	121.57
188.547	102.86
188.766	100.17
188.986	118.93
189.205	137.24
189.424	137.9
189.644	140.29
189.863	143.75
190.082	533.28
190.302	219.81
190.521	158.02
190.74	224.49
190.959	-1484.59
191.178	-694.11
191.398	744.22
191.617	226.1
191.836	249.78
192.055	303.7
192.274	289.86
192.494	229.82
192.713	897.7
192.932	693.02
193.151	-6471.13
193.37	-1670.11
193.589	-492.95
193.808	-2300.81
194.027	-1227.95
194.246	749.78
194.465	15001.69
194.685	1349.09
194.904	-2720.43
195.123	589.41
195.342	-798.8
195.561	505.03
195.78	188.09
195.999	181.47
196.218	387.06
196.436	439.91
196.655	365.92
196.874	181.76
197.093	175.29
197.312	134.76
197.531	145.44
197.75	134.48
197.969	133.58
198.188	163.48
198.407	151.05
198.625	157.39
198.844	185.98
199.063	183.09
199.282	271.31
199.501	346.59
199.719	517.47
199.938	406.6
200.157	668.3
200.376	-5255.88
200.594	448.06
200.813	256.24
201.032	184.91
201.251	165.8
201.469	176.01
201.688	138.87
201.907	148.16
202.125	138.71
202.344	106.55
202.563	133.11
202.781	187.74
203	163.28
203.218	135.46
203.437	137.08
203.656	142.84
203.874	109.7
204.093	66.34
204.311	51.63
204.53	53.05
204.748	67.14
204.967	56.88
205.185	40.52
205.404	28.96
205.622	43.87
205.841	44.42
206.059	51.62
206.278	77.95
206.496	121.4
206.715	146.91
206.933	172.7
207.151	308.6
207.37	437
207.588	659.3
207.806	500.09
208.025	828.7
208.243	666.28
208.461	642.08
208.68	-316.81
208.898	507.95
209.116	342.92
209.335	359.32
209.553	878.24
209.771	556.77
209.989	1456.76
210.208	-2292.46
210.426	-1043.69
210.644	-998.23
210.862	292.14
211.081	269.36
211.299	298.44
211.517	370.73
211.735	336.73
211.953	117.27
212.171	97.47
212.39	108.25
212.608	84.97
212.826	71.61
213.044	83.84
213.262	90.73
213.48	70.7
213.698	75.06
213.916	96.65
214.134	97.84
214.352	113.44
214.57	116.35
214.788	111.92
215.006	119.47
215.224	112.68
215.442	100.12
215.66	100.93
215.878	100.44
216.096	81.6
216.314	67.19
216.532	55.9
216.75	69.54
216.968	62.08
217.185	61.02
217.403	83.1
217.621	118.61
217.839	147.97
218.057	115.27
218.275	149.89
218.492	208.39
218.71	182.86
218.928	205.01
219.146	258.67
219.363	229.93
219.581	339.32
219.799	-440.02
220.017	-4447.42
220.234	-116.65
220.452	-32.94
220.67	-148.23
220.887	219.66
221.105	251.86
221.323	155.66
221.54	89.67
221.758	83.86
221.976	82.11
222.193	71.38
222.411	62.38
222.629	61.57
222.846	70.39
223.064	70.52
223.281	71.51
223.499	80.6
223.716	73.27
223.934	73.69
224.151	79.76
224.369	86.64
224.586	91.72
224.804	85.64
225.021	88.54
225.239	81.17
225.456	76.18
225.674	73.12
225.891	56.76
226.108	65.91
226.326	74.04
226.543	55.1
226.76	43.07
226.978	35.2
227.195	42.78
227.413	44.82
227.63	43.21
227.847	44.75
228.064	38.9
228.282	37.37
228.499	32.17
228.716	26.92
228.934	31.53
229.151	33.79
229.368	34.17
229.585	31.42
229.802	31.1
230.02	27.71
230.237	25.06
230.454	26.92
230.671	25.91
230.888	24.5
231.105	26.72
231.323	24.99
231.54	23.26
231.757	24.59
231.974	27.92
232.191	29.57
232.408	32.54
232.625	33.98
232.842	38.77
233.059	39.35
233.276	41.31
233.493	39.85
233.71	41.72
233.927	39.43
234.144	37.59
234.361	38.81
234.578	34.23
234.795	28.88
235.012	25.57
235.229	16.44
235.446	21.1
235.663	21.4
235.879	22.71
236.096	19.56
236.313	21.39
236.53	21.66
236.747	24.82
236.964	30.45
237.181	39.43
237.397	43.31
237.614	51.25
237.831	45.16
238.048	48.72
238.264	45.99
238.481	51.67
238.698	52.26
238.915	48.68
239.131	42.19
239.348	38.97
239.565	34.23
239.781	35.59
239.998	35.82
240.215	38.63
240.431	38.07
240.648	36.93
240.865	31.86
241.081	30.26
241.298	31.37
241.514	29.47
241.731	29.25
241.947	28.81
242.164	26.68
242.38	23.6
242.597	21.33
242.814	21.17
243.03	22.19
243.246	21.67
243.463	21
243.679	20.97
243.896	22.96
244.112	22.47
244.329	22.74
244.545	25.24
244.762	27.55
244.978	29.95
245.194	30.4
245.411	28.84
245.627	28.84
245.843	27.9
246.06	25.59
246.276	23.43
246.492	22.51
246.709	22.16
246.925	21.13
247.141	19.43
247.357	18.83
247.574	18.52
247.79	19.21
248.006	19.29
248.222	19.71
248.439	19.51
248.655	19.09
248.871	19.36
249.087	19.78
249.303	18.84
249.519	20.23
249.736	20.13
249.952	19.23
250.168	18.89
250.384	20.22
250.6	19.89
250.816	19.94
251.032	21.53
251.248	21.06
251.464	21.31
251.68	20.19
251.896	17.68
252.112	16.91
252.328	15.09
252.544	14.4
252.76	16.66
252.976	15.92
253.192	18.63
253.408	18.37
253.624	17.38
253.84	17.07
254.056	18.73
254.272	21.74
254.487	21.87
254.703	25.96
254.919	27.6
255.135	24.16
255.351	24.99
255.567	22.31
255.782	24.86
255.998	24.06
256.214	23.46
256.43	22.25
256.646	19.2
256.861	21.02
257.077	17.79
257.293	17.73
257.508	14.4
257.724	14.83
257.94	13.34
258.155	12.08
258.371	15.79
258.587	14.57
258.802	14.67
259.018	14.54
259.234	13.84
259.449	13.26
259.665	12.21
259.88	13.58
260.096	12.89
260.312	12.78
260.527	12.79
260.743	11.81
260.958	12.66
261.174	12.8
261.389	12.1
261.605	12.03
261.82	12.79
262.036	13.53
262.251	12.58
262.466	13.37
262.682	15.77
262.897	15.5
263.113	15.21
263.328	13.73
263.543	14.87
263.759	17.33
263.974	18.78
264.189	18.29
264.405	18.95
264.62	17.97
264.835	17.33
265.051	17.75
265.266	16.77
265.481	15.54
265.696	15.38
265.912	16.1
266.127	16.73
266.342	12.94
266.557	12.77
266.773	11.28
266.988	11.92
267.203	13.13
267.418	10.46
267.633	12.12
267.848	13.08
268.064	14.48
268.279	14.06
268.494	13.85
268.709	15.6
268.924	16.47
269.139	16.63
269.354	17.76
269.569	17.29
269.784	17.65
269.999	17.18
270.214	16.65
270.429	15.11
270.644	14.6
270.859	15.85
271.074	14.87
271.289	14.16
271.504	13.25
271.719	13.53
271.934	14.41
272.149	15.01
272.363	14.71
272.578	14.55
272.793	14.94
273.008	15.46
273.223	14.12
273.438	14.7
273.653	16.31
273.867	18.06
274.082	18.79
274.297	17.09
274.512	17.96
274.726	17.42
274.941	17.41
275.156	19.08
275.371	16.89
275.585	18.68
275.8	18.96
276.015	17.85
276.229	18.62
276.444	16.69
276.659	16.61
276.873	15.14
277.088	16
277.302	16.4
277.517	14.57
277.732	13.96
277.946	11.36
278.161	12.33
278.375	11.57
278.59	10.53
278.804	12.83
279.019	13.94
279.233	15.36
279.448	14.57
279.662	16.68
279.877	15.87
280.091	15.87
280.306	16.92
280.52	15.91
280.735	14.59
280.949	14.2
281.163	12.86
281.378	11.67
281.592	12.2
281.806	13.23
282.021	13.6
282.235	14.68
282.449	16.85
282.664	17.19
282.878	18.95
283.092	20.43
283.307	20.75
283.521	19.44
283.735	19.43
283.949	18.33
284.164	17.88
284.378	17.07
284.592	16.19
284.806	15.59
285.02	15.34
285.234	13.72
285.449	12.59
285.663	12.59
285.877	13.11
286.091	14.18
286.305	14.02
286.519	13.23
286.733	12.91
286.947	13.98
287.161	13.13
287.375	11.73
287.589	11.77
287.803	14.12
288.017	13.3
288.231	14.13
288.445	14.02
288.659	15.6
288.873	17.96
289.087	17.54
289.301	15.98
289.515	16.99
289.729	18.91
289.943	19.35
290.157	18.32
290.371	19.55
290.584	18.86
290.798	18.02
291.012	16.11
291.226	14.74
291.44	15.88
291.654	15.42
291.867	15.26
292.081	14.31
292.295	14.06
292.509	13.02
292.722	10.99
292.936	11.15
293.15	11.7
293.364	13.89
293.577	13.95
293.791	13.84
294.005	14.23
294.218	12.74
294.432	13.27
294.645	13.89
294.859	15.56
295.073	15.37
295.286	15.98
295.5	16.55
295.713	15.77
295.927	15.81
296.14	15.12
296.354	16.17
296.568	16.86
296.781	17.1
296.994	15.75
297.208	14.86
297.421	15.63
297.635	15.25
297.848	14.8
298.062	15.39
298.275	15.03
298.489	15.66
298.702	15.59
298.915	15.73
299.129	15.6
299.342	16.86
299.555	17.32
299.769	18.76
299.982	20.42
300.195	21.5
300.409	21.51
300.622	23.37
300.835	22.44
301.048	21.68
301.262	22.57
301.475	22.39
301.688	22.36
301.901	23.35
302.115	22.42
302.328	20.57
302.541	19.63
302.754	18.54
302.967	18.05
303.18	17.71
303.393	20.81
303.607	21.07
303.82	20.78
304.033	20.04
304.246	19.59
304.459	20.19
304.672	21.25
304.885	21.7
305.098	21.53
305.311	20.55
305.524	21.16
305.737	18.82
305.95	18.51
306.163	18.72
306.376	19.2
306.589	17.69
306.802	15.51
307.015	15.51
307.228	15.28
307.44	16.4
307.653	17.84
307.866	18.42
308.079	18.77
308.292	16.64
308.505	15.46
308.718	15.51
308.93	16.66
309.143	17.59
309.356	16.24
309.569	15.86
309.781	16.25
309.994	15.86
310.207	16.29
310.42	15.03
310.632	16.7
310.845	15.8
311.058	15.43
311.27	14.36
311.483	13.79
311.696	14.75
311.908	15.44
312.121	14.9
312.333	14.6
312.546	12.69
312.759	14.08
312.971	13.6
313.184	15.06
313.396	14.48
313.609	15.67
313.821	17.73
314.034	17.84
314.246	17.37
314.459	18.07
314.671	17.53
314.884	18.08
315.096	17.56
315.309	17.78
315.521	17.34
315.733	18.42
315.946	18.09
316.158	14.97
316.371	14.7
316.583	15.53
316.795	15.25
317.008	15.38
317.22	16.14
317.432	16.66
317.644	17.51
317.857	18.73
318.069	18.65
318.281	20.2
318.494	22.95
318.706	22.41
318.918	20.7
319.13	18.92
319.342	19.75
319.555	19.8
319.767	19.33
319.979	17.75
320.191	17.43
320.403	17.53
320.615	16.23
320.827	15.52
321.039	16.67
321.252	17
321.464	18.11
321.676	16.8
321.888	16.09
322.1	15.19
322.312	15.03
322.524	15.14
322.736	14.64
322.948	13.64
323.16	13.62
323.372	13.37
323.584	13.66
323.796	14.3
324.007	13.79
324.219	13.83
324.431	14.31
324.643	15.13
324.855	14.61
325.067	16.08
325.279	17.12
325.491	17.74
325.702	17.67
325.914	17.54
326.126	16.88
326.338	15.8
326.55	16.6
326.761	17.14
326.973	17.32
327.185	17.4
327.396	16.45
327.608	15.16
327.82	15.32
328.032	16.08
328.243	17.06
328.455	18.09
328.666	19.88
328.878	18.45
329.09	17.23
329.301	15.25
329.513	15.59
329.725	14.41
329.936	16.7
330.148	18.58
330.359	16.63
330.571	15.15
330.782	13.91
330.994	15.14
331.205	16.45
331.417	18.05
331.628	18.08
331.84	17.36
332.051	18.75
332.262	17.03
332.474	14.04
332.685	15.47
332.897	15.41
333.108	15.04
333.319	15.51
333.531	16.74
333.742	16.75
333.953	17.91
334.165	19.53
334.376	19.59
334.587	19.92
334.799	20.4
335.01	19.31
335.221	20.12
335.432	20.72
335.644	19.42
335.855	18.17
336.066	18.2
336.277	17.61
336.488	16.41
336.7	15
336.911	15.48
337.122	15.5
337.333	17.12
337.544	16.71
337.755	16.03
337.966	15.85
338.177	14.77
338.388	13.34
338.599	14.18
338.811	13.96
339.022	13.97
339.233	14.42
339.444	14.4
339.655	12.89
339.866	13.41
340.076	13.81
340.287	14.05
340.498	14.33
340.709	15.55
340.92	16.13
341.131	16.17
341.342	17.81
341.553	17.69
341.764	19.44
341.975	20.52
342.185	20.97
342.396	21.47
342.607	21.62
342.818	23.66
343.029	23.3
343.239	22.63
343.45	22.63
343.661	22.58
343.872	21.11
344.082	19.79
344.293	19.46
344.504	17.85
344.714	17.69
344.925	17.63
345.136	15.88
345.346	16.6
345.557	16.85
345.768	17.16
345.978	16.58
346.189	17.46
346.399	17.1
346.61	17.06
346.821	17.81
347.031	17.2
347.242	17.76
347.452	18.15
347.663	17.37
347.873	17.17
348.084	17.75
348.294	17.87
348.504	17.09
348.715	17.18
348.925	17.34
349.136	17.7
349.346	17.99
349.557	15.09
349.767	15
349.977	14.44
350.188	14.56
350.398	13.87
350.608	12.46
350.819	12.32
351.029	12.15
351.239	11.81
351.449	11.48
351.66	11.85
351.87	14.3
352.08	14.1
352.29	14.74
352.501	15.1
352.711	14.58
352.921	15.16
353.131	15.46
353.341	16.08
353.552	15.83
353.762	14.46
353.972	15.22
354.182	14.7
354.392	14.62
354.602	14.71
354.812	13.54
355.022	13.07
355.232	13.02
355.442	14.11
355.652	14.91
355.862	14.76
356.072	15.59
356.282	13.68
356.492	14.08
356.702	14.87
356.912	14.7
357.122	15.17
357.332	16.6
357.542	16.26
357.752	15.75
357.962	14.41
358.171	14.29
358.381	15.72
358.591	16.27
358.801	16.58
359.011	16.61
359.221	16.35
359.43	15.88
359.64	14.9
359.85	14.12
360.06	13.81
360.269	13.87
360.479	13.64
360.689	12.36
360.899	12.47
361.108	11.74
361.318	11.95
361.528	12.02
361.737	12.25
361.947	12.58
362.156	13.23
362.366	13.72
362.576	13.3
362.785	13.52
362.995	14.08
363.204	14
363.414	13.49
363.623	13.41
363.833	13.02
364.042	13.36
364.252	13.36
364.461	13.7
364.671	12.77
364.88	13.56
365.09	13.53
365.299	14.32
365.509	14.31
365.718	14.72
365.927	13.8
366.137	14.87
366.346	13.91
366.555	13.43
366.765	13.05
366.974	12.53
367.183	12.74
367.393	12.56
367.602	12.31
367.811	11.52
368.021	11.97
368.23	12.54
368.439	11.73
368.648	13.03
368.857	14.11
369.067	14.04
369.276	14.12
369.485	13.71
369.694	13.73
369.903	12.24
370.112	12.39
370.321	13.13
370.531	12.57
370.74	12.96
370.949	13.01
371.158	12.27
371.367	12.15
371.576	13.08
371.785	12.88
371.994	12.54
372.203	13.32
372.412	13.6
372.621	13.24
372.83	13.09
373.039	12.9
373.248	11.75
373.457	11.76
373.666	12.13
373.874	11.65
374.083	11.71
374.292	12.29
374.501	11.22
374.71	11.61
374.919	11.06
375.128	10.96
375.336	10.95
375.545	11.54
375.754	10.95
375.963	10.6
376.171	10.99
376.38	10.49
376.589	10.47
376.798	10.55
377.006	9.9
377.215	10.11
377.424	10.09
377.632	10.7
377.841	10.25
378.05	10.14
378.258	10.26
378.467	10
378.675	9.86
378.884	9.18
379.093	9.16
379.301	9.67
379.51	9.64
379.718	9.71
379.927	8.66
380.135	8.75
380.344	9.36
380.552	9.9
380.761	9.41
380.969	9.42
381.177	9.78
381.386	9.96
381.594	9.24
381.803	9.72
382.011	9.76
382.219	9.64
382.428	9.91
382.636	8.85
382.845	7.94
383.053	8.46
383.261	8.91
383.469	8.59
383.678	8.5
383.886	9.41
384.094	8.99
384.302	8.86
384.511	9.51
384.719	9.18
384.927	9.19
385.135	9.86
385.343	9.83
385.552	9.98
385.76	10.24
385.968	10.82
386.176	10.27
386.384	9.9
386.592	9.68
386.8	9.38
387.008	9.18
387.216	9.65
387.424	9.19
387.633	9.06
387.841	8.79
388.049	8.28
388.257	7.58
388.465	7.31
388.672	7.46
388.88	7.99
389.088	7.72
389.296	7.47
389.504	7.42
389.712	7.2
389.92	6.95
390.128	6.71
390.336	7.47
390.544	7.39
390.751	7.31
390.959	6.71
391.167	6.26
391.375	6.31
391.583	6.41
391.79	6.2
391.998	6.65
392.206	6.67
392.414	6.78
392.621	6.27
392.829	6.28
393.037	6.85
393.244	7.18
393.452	6.94
393.66	7.03
393.867	6.62
394.075	6.55
394.283	6.27
394.49	6.09
394.698	6.09
394.905	5.99
395.113	5.88
395.32	5.32
395.528	5.36
395.735	5.11
395.943	5
396.15	5.42
396.358	5.38
396.565	5.34
396.773	5.65
396.98	5.52
397.188	5.64
397.395	5.76
397.602	5.7
397.81	5.34
398.017	5.77
398.225	5.66
398.432	5.96
398.639	6.2
398.847	6.26
399.054	6.1
399.261	5.95
399.468	5.71
399.676	5.53
399.883	5.47
400.09	5.37
400.297	5.44
400.505	5.18
400.712	4.94
400.919	4.82
401.126	4.88
401.333	4.91
401.54	5.3
401.748	5.44
401.955	5.72
402.162	5.96
402.369	6.16
402.576	6.11
402.783	6.36
402.99	6.33
403.197	5.96
403.404	5.58
403.611	5.39
403.818	5.28
404.025	5.37
404.232	5.31
404.439	5.39
404.646	5.41
404.853	5.36
405.06	5.54
405.267	5.24
405.474	5.5
405.681	5.52
405.887	5.49
406.094	5.38
406.301	5.59
406.508	5.51
406.715	5.4
406.922	5.45
407.128	5.52
407.335	5.17
407.542	5.49
407.749	5.5
407.955	5.89
408.162	6.04
408.369	6.11
408.575	6.06
408.782	6.2
408.989	6.03
409.195	6.11
409.402	5.99
409.609	6.02
409.815	5.95
410.022	5.82
410.228	5.79
410.435	5.86
410.642	5.64
410.848	5.71
411.055	6
411.261	6.18
411.468	6.09
411.674	5.98
411.881	5.68
412.087	5.57
412.294	5.65
412.5	5.32
412.706	5.64
412.913	5.6
413.119	5.32
413.326	4.88
413.532	4.74
413.738	4.86
413.945	4.9
414.151	5.13
414.357	5.17
414.564	5.05
414.77	5.15
414.976	5.05
415.182	5.31
415.389	5.43
415.595	5.41
415.801	5.38
416.007	5.32
416.214	5.26
416.42	5.16
416.626	5.28
416.832	5.61
417.038	5.45
417.244	5.47
417.45	5.44
417.657	4.99
417.863	5.01
418.069	5.17
418.275	5.29
418.481	5.22
418.687	5.34
418.893	5.16
419.099	5.01
419.305	4.95
419.511	4.65
419.717	4.51
419.923	4.6
420.129	4.55
420.335	4.39
420.541	4.37
420.746	4.46
420.952	4.36
421.158	4.42
421.364	4.3
421.57	4.35
421.776	4.39
421.982	4.46
422.187	4.55
422.393	4.52
422.599	4.51
422.805	4.34
423.01	4.33
423.216	4.36
423.422	4.4
423.628	4.58
423.833	4.54
424.039	4.58
424.245	4.72
424.45	4.76
424.656	4.8
424.862	4.79
425.067	4.93
425.273	4.98
425.478	5.07
425.684	5.07
425.889	4.98
426.095	5.03
426.301	5.03
426.506	4.87
426.712	5
426.917	5.14
427.123	5.09
427.328	4.91
427.533	4.85
427.739	4.85
427.944	4.89
428.15	5.07
428.355	5.12
428.561	5.07
428.766	4.8
428.971	4.81
429.177	4.78
429.382	4.84
429.587	4.89
429.793	4.96
429.998	4.79
430.203	4.5
430.408	4.18
430.614	4.17
430.819	4.2
431.024	4.64
431.229	4.5
431.434	4.39
431.64	4.54
431.845	4.62
432.05	4.74
432.255	4.83
432.46	5.01
432.665	5.06
432.87	5.07
433.076	5.07
433.281	4.85
433.486	4.83
433.691	4.89
433.896	4.83
434.101	4.77
434.306	4.57
434.511	4.47
434.716	4.38
434.921	4.52
435.126	4.53
435.331	4.44
435.535	4.46
435.74	4.33
435.945	4.33
436.15	4.36
436.355	4.29
436.56	4.38
436.765	4.49
436.97	4.56
437.174	4.38
437.379	4.44
437.584	4.36
437.789	4.42
437.993	4.48
438.198	4.49
438.403	4.31
438.608	4.42
438.812	4.26
439.017	4.11
439.222	3.94
439.426	3.89
439.631	3.8
439.836	3.72
440.04	3.7
440.245	3.92
440.45	3.69
440.654	3.84
440.859	3.74
441.063	3.75
441.268	3.81
441.472	3.87
441.677	4.01
441.881	3.98
442.086	3.99
442.29	4.08
442.495	3.75
442.699	3.87
442.904	3.8
443.108	3.93
443.312	4.11
443.517	4.13
443.721	4.24
443.925	4.08
444.13	4.33
444.334	4.39
444.538	4.15
444.743	4.34
444.947	4.28
445.151	4.25
445.356	4.21
445.56	4.22
445.764	4.18
445.968	4.21
446.173	4.14
446.377	4.03
446.581	4.1
446.785	4.1
446.989	4.01
447.193	4.11
447.398	3.97
447.602	3.96
447.806	3.97
448.01	4.24
448.214	4.14
448.418	4.34
448.622	4.44
448.826	4.6
449.03	4.73
449.234	4.75
449.438	4.62
449.642	4.81
449.846	4.73
450.05	4.64
450.254	4.43
450.458	4.47
450.662	4.23
450.866	4.06
451.069	4.14
451.273	4.02
451.477	3.97
451.681	3.94
451.885	3.99
452.089	4.02
452.292	3.99
452.496	3.96
452.7	4.12
452.904	4.06
453.107	3.98
453.311	3.7
453.515	3.72
453.719	3.91
453.922	4.07
454.126	4.02
454.33	4.07
454.533	4.14
454.737	4.02
454.94	4.08
455.144	4.29
455.348	4.35
455.551	4.37
455.755	4.5
455.958	4.48
456.162	4.34
456.365	4.43
456.569	4.26
456.772	4.19
456.976	4.36
457.179	4.3
457.383	4.39
457.586	4.14
457.79	4.22
457.993	4.11
458.196	3.93
458.4	3.99
458.603	3.87
458.807	3.91
459.01	4.11
459.213	3.96
459.417	3.78
459.62	3.74
459.823	4.06
460.026	3.96
460.23	4.09
460.433	4.22
460.636	4.21
460.839	4.21
461.042	4.42
461.246	4.28
461.449	4.31
461.652	4.35
461.855	4.22
462.058	4.12
462.261	4.14
462.464	3.88
462.668	3.9
462.871	3.92
463.074	4.07
463.277	3.87
463.48	3.82
463.683	3.95
463.886	3.87
464.089	4.09
464.292	4.04
464.495	4.01
464.698	4.07
464.901	3.97
465.104	3.93
465.306	3.76
465.509	3.65
465.712	3.71
465.915	3.71
466.118	3.81
466.321	3.88
466.524	3.75
466.726	3.93
466.929	4.18
467.132	4.11
467.335	4.19
467.538	4.18
467.74	4.3
467.943	4.15
468.146	4.06
468.348	4.13
468.551	4.11
468.754	4.27
468.956	4.19
469.159	4.1
469.362	4.24
469.564	4.32
469.767	4.34
469.969	4.16
470.172	4.42
470.375	4.48
470.577	4.47
470.78	4.35
470.982	4.13
471.185	4.29
471.387	4.2
471.59	4.12
471.792	4
471.995	4.09
472.197	4.07
472.399	3.93
472.602	3.87
472.804	3.88
473.007	3.79
473.209	3.91
473.411	3.73
473.614	3.65
473.816	3.65
474.018	3.56
474.22	3.51
474.423	3.73
474.625	3.97
474.827	3.95
475.03	3.78
475.232	3.83
475.434	3.91
475.636	4.02
475.838	4.05
476.04	4.08
476.243	4.2
476.445	4.34
476.647	4.15
476.849	3.91
477.051	3.99
477.253	4.05
477.455	3.99
477.657	3.92
477.859	3.74
478.061	3.85
478.263	3.93
478.465	3.83
478.667	3.9
478.869	4.12
479.071	4.17
479.273	4.03
479.475	4.08
479.677	4.13
479.879	4.01
480.081	4.03
480.283	4.06
480.485	4.05
480.686	4.23
480.888	4.01
481.09	3.89
481.292	3.86
481.494	3.9
481.695	3.85
481.897	3.9
482.099	4.03
482.301	3.97
482.502	3.85
482.704	3.65
482.906	3.54
483.107	3.53
483.309	3.51
483.511	3.48
483.712	3.44
483.914	3.45
484.115	3.42
484.317	3.36
484.519	3.33
484.72	3.33
484.922	3.34
485.123	3.32
485.325	3.33
485.526	3.37
485.728	3.38
485.929	3.33
486.131	3.3
486.332	3.28
486.534	3.2
486.735	3.25
486.936	3.23
487.138	3.28
487.339	3.26
487.541	3.27
487.742	3.23
487.943	3.23
488.144	3.31
488.346	3.37
488.547	3.39
488.748	3.51
488.95	3.5
489.151	3.59
489.352	3.6
489.553	3.59
489.755	3.53
489.956	3.64
490.157	3.69
490.358	3.64
490.559	3.61
490.76	3.56
490.961	3.5
491.163	3.53
491.364	3.47
491.565	3.42
491.766	3.52
491.967	3.64
492.168	3.58
492.369	3.5
492.57	3.53
492.771	3.44
492.972	3.47
493.173	3.52
493.374	3.55
493.575	3.65
493.776	3.74
493.976	3.82
494.177	3.76
494.378	3.76
494.579	3.94
494.78	4.03
494.981	4.23
495.182	4.33
495.382	4.3
495.583	4.36
495.784	4.15
495.985	4.15
496.185	4.18
496.386	4.11
496.587	4.31
496.788	4.13
496.988	4.15
497.189	4.01
497.39	3.88
497.59	3.87
497.791	3.73
497.992	3.9
498.192	3.91
498.393	3.87
498.593	3.98
498.794	3.76
498.994	3.75
499.195	3.65
499.395	3.73
499.596	3.86
499.796	3.85
499.997	3.93
500.197	3.97
500.398	3.9
500.598	3.83
500.799	3.95
500.999	4
501.199	3.92
501.4	4.02
501.6	4.08
501.801	4.19
502.001	4.24
502.201	4.38
502.402	4.23
502.602	4.36
502.802	4.22
503.002	4.07
503.203	4.05
503.403	4.2
503.603	4.09
503.803	3.89
504.003	3.79
504.204	3.66
504.404	3.6
504.604	3.79
504.804	3.68
505.004	3.74
505.204	3.82
505.404	3.84
505.604	3.93
505.804	3.98
506.005	4.18
506.205	4.26
506.405	4.49
506.605	4.41
506.805	4.29
507.005	4.28
507.204	4.34
507.404	4.26
507.604	4.17
507.804	4.21
508.004	4.33
508.204	4.3
508.404	4.21
508.604	4.19
508.804	4.24
509.003	4.28
509.203	4.23
509.403	4.14
509.603	4.09
509.803	4.26
510.002	4.28
510.202	4.17
510.402	4.33
510.602	4.29
510.801	4.22
511.001	4.1
511.201	4.1
511.4	4.19
511.6	4.23
511.8	4.23
511.999	4.13
512.199	3.99
512.398	4.03
512.598	3.8
512.797	3.84
512.997	3.8
513.197	3.86
513.396	3.77
513.596	3.86
513.795	3.88
513.994	3.99
514.194	3.94
514.393	4.01
514.593	4.05
514.792	4.09
514.992	3.97
515.191	4
515.39	4.13
515.59	4.2
515.789	4.1
515.988	4.27
516.188	4.19
516.387	3.98
516.586	3.94
516.786	3.92
516.985	3.88
517.184	4.09
517.383	4.17
517.582	4.01
517.782	4
517.981	4.07
518.18	3.96
518.379	4.01
518.578	4.17
518.777	4.29
518.976	4.3
519.176	4.2
519.375	4.14
519.574	3.95
519.773	4.01
519.972	4.06
520.171	4.01
520.37	4.05
520.569	4.02
520.768	4.1
520.967	4.11
521.166	4.17
521.365	4.38
521.564	4.54
521.762	4.82
521.961	4.96
522.16	4.95
522.359	4.88
522.558	4.71
522.757	4.78
522.956	4.78
523.154	4.63
523.353	4.6
523.552	4.45
523.751	4.12
523.949	4.06
524.148	3.95
524.347	4.04
524.546	4.11
524.744	4.12
524.943	4.11
525.142	4.04
525.34	4.08
525.539	4.06
525.737	4.17
525.936	4.28
526.135	4.19
526.333	4.11
526.532	4.03
526.73	3.99
526.929	4.14
527.127	4.14
527.326	4.23
527.524	4.29
527.723	4.3
527.921	4.29
528.12	4.38
528.318	4.44
528.516	4.48
528.715	4.43
528.913	4.45
529.112	4.37
529.31	4.39
529.508	4.3
529.707	4.27
529.905	4.32
530.103	4.33
530.301	4.27
530.5	4.29
530.698	4.33
530.896	4.44
531.094	4.51
531.293	4.59
531.491	4.62
531.689	4.81
531.887	4.86
532.085	4.82
532.283	4.87
532.481	4.8
532.68	4.78
532.878	4.74
533.076	4.71
533.274	4.63
533.472	4.53
533.67	4.52
533.868	4.43
534.066	4.42
534.264	4.43
534.462	4.33
534.66	4.41
534.858	4.45
535.056	4.56
535.253	4.53
535.451	4.71
535.649	4.94
535.847	4.93
536.045	4.97
536.243	4.91
536.441	4.96
536.638	5.08
536.836	5.06
537.034	5.1
537.232	4.97
537.43	5.12
537.627	5
537.825	4.96
538.023	5.01
538.22	5.14
538.418	5.22
538.616	5.2
538.813	5.19
539.011	5.26
539.209	5.2
539.406	5.22
539.604	5.22
539.801	5.32
539.999	5.34
540.196	5.26
540.394	5.13
540.591	5.11
540.789	5.05
540.986	5.11
541.184	5.07
541.381	5.15
541.579	5.27
541.776	5.2
541.974	5.18
542.171	5.2
542.368	5.25
542.566	5.3
542.763	5.38
542.96	5.48
543.158	5.41
543.355	5.45
543.552	5.45
543.75	5.41
543.947	5.41
544.144	5.41
544.341	5.37
544.539	5.47
544.736	5.5
544.933	5.55
545.13	5.47
545.327	5.6
545.524	5.72
545.722	5.72
545.919	5.74
546.116	5.99
546.313	6.14
546.51	6.16
546.707	6.13
546.904	6.16
547.101	6.3
547.298	6.39
547.495	6.38
547.692	6.35
547.889	6.45
548.086	6.45
548.283	6.29
548.48	6.29
548.677	6.37
548.874	6.61
549.07	6.77
549.267	6.55
549.464	6.69
549.661	6.81
549.858	6.83
550.055	6.88
550.251	6.97
550.448	7.24
550.645	7.17
550.842	7.29
551.038	7.08
551.235	7.26
551.432	7.09
551.628	7.11
551.825	7.14
552.022	7.1
552.218	6.98
552.415	7.07
552.612	6.86
552.808	7
553.005	6.87
553.201	6.9
553.398	6.76
553.594	7
553.791	7.18
553.987	7.26
554.184	7.56
554.38	7.79
554.577	7.66
554.773	7.84
554.97	7.77
555.166	7.89
555.362	7.97
555.559	8.03
555.755	8.17
555.952	7.97
556.148	7.84
556.344	7.58
556.541	7.57
556.737	7.69
556.933	7.7
557.129	7.81
557.326	8.05
557.522	7.9
557.718	8.04
557.914	8.08
558.11	8.25
558.307	8.55
558.503	8.99
558.699	8.92
558.895	9.1
559.091	9.32
559.287	9.35
559.483	9.31
559.679	9.51
559.876	9.55
560.072	9.71
560.268	9.62
560.464	9.25
560.66	8.87
560.856	8.83
561.052	8.8
561.247	8.8
561.443	8.83
561.639	9.13
561.835	9.07
562.031	8.95
562.227	8.64
562.423	8.77
562.619	9.12
562.815	9.64
563.01	9.64
563.206	9.59
563.402	9.57
563.598	9.59
563.793	9.41
563.989	9.56
564.185	9.58
564.381	9.86
564.576	9.89
564.772	9.91
564.968	9.54
565.163	9.71
565.359	9.67
565.555	9.69
565.75	9.65
565.946	9.61
566.141	9.54
566.337	9.68
566.532	9.64
566.728	9.62
566.923	9.53
567.119	9.62
567.314	9.71
567.51	9.97
567.705	9.89
567.901	9.91
568.096	10.1
568.292	10.13
568.487	10.13
568.682	10.15
568.878	10.15
569.073	10.25
569.268	10.29
569.464	10.2
569.659	10.35
569.854	10.55
570.05	10.73
570.245	10.53
570.44	10.6
570.635	10.76
570.831	10.77
571.026	10.84
571.221	10.82
571.416	10.79
571.611	10.95
571.806	10.87
572.002	10.96
572.197	10.72
572.392	10.83
572.587	10.87
572.782	10.75
572.977	10.78
573.172	10.69
573.367	10.89
573.562	11.07
573.757	10.91
573.952	10.84
574.147	10.78
574.342	11.03
574.537	11.11
574.732	11.19
574.927	11.09
575.121	11.15
575.316	11.17
575.511	11.04
575.706	10.98
575.901	11.02
576.096	10.97
576.29	10.89
576.485	10.92
576.68	10.78
576.875	10.72
577.069	10.7
577.264	10.85
577.459	11.02
577.654	11.08
577.848	11.18
578.043	11.11
578.238	11.16
578.432	11.25
578.627	11.18
578.821	11.26
579.016	11.49
579.21	11.73
579.405	11.53
579.6	11.48
579.794	11.68
579.989	11.77
580.183	11.9
580.378	12.04
580.572	12.06
580.766	12.33
580.961	12.65
581.155	12.45
581.35	12.62
581.544	12.4
581.738	12.31
581.933	12.17
582.127	12.03
582.321	12
582.516	11.9
582.71	12.02
582.904	11.86
583.099	11.55
583.293	11.46
583.487	11.5
583.681	12.12
583.875	12.32
584.07	12.49
584.264	12.56
584.458	12.92
584.652	12.88
584.846	12.61
585.04	12.27
585.234	12.22
585.428	12.38
585.623	12.05
585.817	11.8
586.011	11.7
586.205	11.48
586.399	11.22
586.593	11.1
586.787	11.3
586.981	11.47
587.174	11.95
587.368	12.02
587.562	12.08
587.756	12.11
587.95	11.93
588.144	12.08
588.338	12.23
588.532	12.39
588.725	12.52
588.919	12.61
589.113	12.67
589.307	12.66
589.501	12.73
589.694	12.82
589.888	12.87
590.082	12.97
590.275	13
590.469	12.99
590.663	13.18
590.856	12.96
591.05	12.82
591.244	12.84
591.437	13.02
591.631	13.07
591.824	13.07
592.018	13.39
592.212	13.28
592.405	13.08
592.599	13.02
592.792	12.75
592.986	12.79
593.179	12.74
593.372	12.82
593.566	12.7
593.759	12.7
593.953	12.84
594.146	12.56
594.339	12.95
594.533	13.11
594.726	12.94
594.92	13.31
595.113	13.38
595.306	13.3
595.499	13.25
595.693	13.1
595.886	13.33
596.079	13.12
596.272	13.1
596.466	12.76
596.659	12.7
596.852	12.93
597.045	12.9
597.238	12.77
597.431	12.75
597.624	12.73
597.818	12.8
598.011	12.66
598.204	12.35
598.397	12.47
598.59	12.53
598.783	12.55
598.976	12.53
599.169	12.47
599.362	12.53
599.555	12.73
599.748	12.83
599.941	12.61
600.134	12.26
600.326	12.77
600.519	12.82
600.712	12.82
600.905	13.14
601.098	13.12
601.291	13.08
601.483	13.03
601.676	12.76
601.869	12.7
602.062	12.77
602.255	13.1
602.447	13.19
602.64	13.07
602.833	13.04
603.025	13
603.218	12.95
603.411	12.86
603.603	12.81
603.796	13
603.989	12.92
604.181	12.84
604.374	12.75
604.566	12.62
604.759	12.77
604.951	12.93
605.144	12.6
605.336	12.53
605.529	12.56
605.721	12.6
605.914	12.71
606.106	12.8
606.299	13.03
606.491	13.18
606.683	13.3
606.876	13.16
607.068	13.16
607.26	13.37
607.453	13.69
607.645	13.74
607.837	13.79
608.03	13.67
608.222	13.8
608.414	13.69
608.606	13.49
608.799	13.51
608.991	13.7
609.183	13.52
609.375	13.67
609.567	13.49
609.759	13.54
609.952	13.73
610.144	13.41
610.336	13.06
610.528	13.06
610.72	13.09
610.912	12.69
611.104	12.59
611.296	12.6
611.488	12.56
611.68	12.59
611.872	12.48
612.064	12.16
612.256	12.33
612.448	12.51
612.64	12.56
612.832	12.7
613.023	13.17
613.215	13.05
613.407	13.19
613.599	12.83
613.791	12.68
613.983	12.37
614.174	12.55
614.366	12.88
614.558	12.76
614.75	13
614.941	13.06
615.133	12.9
615.325	13.02
615.516	12.79
615.708	13.06
615.9	13.28
616.091	13.56
616.283	13.56
616.475	13.56
616.666	14.03
616.858	13.85
617.049	13.62
617.241	13.78
617.432	13.87
617.624	14.19
617.815	14.45
618.007	14.36
618.198	14.38
618.39	14.24
618.581	14.07
618.773	13.73
618.964	13.72
619.155	13.89
619.347	13.56
619.538	13.44
619.729	13.32
619.921	13.15
620.112	13.09
620.303	12.97
620.494	13.11
620.686	13.11
620.877	13.03
621.068	13.04
621.259	13.18
621.451	13.17
621.642	13.2
621.833	13.45
622.024	13.28
622.215	13.34
622.406	13.39
622.597	13.25
622.788	13.33
622.98	13.58
623.171	13.57
623.362	13.67
623.553	13.87
623.744	13.61
623.935	13.5
624.126	13.8
624.317	13.69
624.508	13.88
624.698	13.89
624.889	13.91
625.08	13.46
625.271	13.53
625.462	13.29
625.653	13.18
625.844	13.43
626.034	13.42
626.225	13.47
626.416	13.5
626.607	13.58
626.798	13.66
626.988	13.74
627.179	14.12
627.37	14.09
627.56	14.33
627.751	14.44
627.942	14.32
628.132	14.46
628.323	14.27
628.514	14.13
628.704	13.88
628.895	13.77
629.085	13.67
629.276	13.65
629.466	13.73
629.657	13.32
629.847	13.52
630.038	13.64
630.228	13.47
630.419	13.34
630.609	13.57
630.8	13.68
630.99	13.62
631.181	13.6
631.371	13.8
631.561	13.29
631.752	13.6
631.942	13.28
632.132	13.35
632.323	13.15
632.513	13.34
632.703	13.05
632.893	12.93
633.084	12.91
633.274	12.92
633.464	12.69
633.654	13.09
633.844	12.75
634.034	13.12
634.225	13.09
634.415	13.03
634.605	12.98
634.795	13.26
634.985	13.47
635.175	13.9
635.365	14.01
635.555	13.95
635.745	14.29
635.935	14.38
636.125	13.78
636.315	13.97
636.505	13.92
636.695	14
636.885	14.16
637.075	14.2
637.265	14.19
637.455	14.12
637.644	14.13
637.834	13.64
638.024	13.49
638.214	14.26
638.404	13.97
638.593	14.12
638.783	13.83
638.973	13.61
639.163	13.48
639.352	13.34
639.542	13.26
639.732	13.38
639.921	13.26
640.111	13.55
640.301	12.73
640.49	12.72
640.68	13.16
640.87	13.48
641.059	13.42
641.249	13.76
641.438	14.25
641.628	13.97
641.817	14.14
642.007	14.58
642.196	14.45
642.386	15.22
642.575	15.25
642.764	15.22
642.954	14.94
643.143	14.9
643.333	15.17
643.522	14.59
643.711	14.89
643.901	14.55
644.09	14.48
644.279	15.19
644.469	14.5
644.658	14.61
644.847	14.34
645.036	14.5
645.226	14.88
645.415	14.33
645.604	14.15
645.793	13.64
645.982	13.53
646.171	13.71
646.361	13.29
646.55	13.42
646.739	13.16
646.928	13.2
647.117	13.09
647.306	12.81
647.495	13.12
647.684	13.34
647.873	13.55
648.062	13.83
648.251	13.7
648.44	13.43
648.629	13.74
648.818	13.75
649.007	13.84
649.196	13.58
649.384	13.6
649.573	13.76
649.762	13.95
649.951	14.09
650.14	13.94
650.328	14.01
650.517	14.08
650.706	13.8
650.895	13.86
651.083	13.72
651.272	14.13
651.461	14.8
651.65	14.33
651.838	13.88
652.027	13.85
652.216	13.76
652.404	13.5
652.593	13.74
652.781	13.98
652.97	13.87
653.158	13.85
653.347	13.7
653.535	13.21
653.724	13.19
653.912	13.47
654.101	13.88
654.289	13.93
654.478	14.63
654.666	14.74
654.855	14.67
655.043	14.92
655.231	14.77
655.42	14.41
655.608	13.98
655.796	14.46
655.985	14.35
656.173	14.07
656.361	14.53
656.55	14
656.738	13.91
656.926	14.15
657.114	13.91
657.302	14
657.491	14.49
657.679	14.82
657.867	14.19
658.055	14.27
658.243	14.6
658.431	14.51
658.619	14.5
658.807	14.22
658.996	13.94
659.184	14.16
659.372	14.19
659.56	14.09
659.748	13.65
659.936	13.91
660.124	13.62
660.311	13.54
660.499	13.21
660.687	13.27
660.875	13.27
661.063	13.36
661.251	13.29
661.439	13.15
661.627	13.05
661.814	13.81
662.002	13.73
662.19	14.44
662.378	14.15
662.565	14.39
662.753	14.43
662.941	14.28
663.129	14.63
663.316	15.06
663.504	15.34
663.692	15.72
663.879	15.46
664.067	15.62
664.254	15.41
664.442	15.58
664.63	15.7
664.817	15.99
665.005	16.22
665.192	16.06
665.38	15.6
665.567	15.16
665.755	15.4
665.942	15.16
666.13	14.99
666.317	14.92
666.504	14.77
666.692	14.85
666.879	14.1
667.067	14.92
667.254	14.81
667.441	14.9
667.629	15
667.816	14.59
668.003	15.04
668.19	14.92
668.378	15.01
668.565	15.32
668.752	15.27
668.939	15.29
669.127	14.48
669.314	14.39
669.501	14.53
669.688	14.88
669.875	14.78
670.062	14.91
670.249	14.8
670.436	14.23
670.623	14.23
670.81	13.99
670.997	14.06
671.184	13.89
671.371	14.13
671.558	14.08
671.745	14.07
671.932	14.4
672.119	14.61
672.306	15.11
672.493	15.05
672.68	15.35
672.867	15.27
673.054	15.84
673.24	15.9
673.427	16.08
673.614	15.72
673.801	15.71
673.988	15.54
674.174	15.08
674.361	14.64
674.548	14.79
674.734	14.57
674.921	14.42
675.108	14.55
675.294	14.9
675.481	14.33
675.668	14.77
675.854	14.89
676.041	14.47
676.227	14.04
676.414	14.01
676.601	14.74
676.787	14.71
676.974	14.66
677.16	14.21
677.347	14.18
677.533	14.86
677.719	14.68
677.906	14.7
678.092	15.25
678.279	15.61
678.465	15.83
678.651	14.96
678.838	14.91
679.024	15.2
679.21	15.4
679.397	15.16
679.583	14.72
679.769	14.49
679.955	14.73
680.142	14.67
680.328	15.02
680.514	14.74
680.7	15.34
680.886	15.01
681.073	15.26
681.259	14.72
681.445	14.54
681.631	14.54
681.817	14.64
682.003	14.37
682.189	14.3
682.375	14.09
682.561	14.34
682.747	14.21
682.933	14.43
683.119	14.26
683.305	14.6
683.491	15.25
683.677	15.43
683.863	15.63
684.049	15.4
684.235	15.67
684.42	15.56
684.606	15.23
684.792	15.05
684.978	14.63
685.164	14.73
685.349	14.99
685.535	14.59
685.721	13.87
685.907	13.6
686.092	13.54
686.278	13.51
686.464	13.58
686.649	14.25
686.835	14.59
687.021	15.07
687.206	14.62
687.392	14.62
687.577	15.2
687.763	15.58
687.948	16.15
688.134	16.56
688.319	16.65
688.505	16.75
688.69	16.75
688.876	16.92
689.061	16.94
689.247	17.64
689.432	17.29
689.618	16.82
689.803	17.01
689.988	16.99
690.174	17.37
690.359	17.33
690.544	16.66
690.73	16.75
690.915	16.83
691.1	16.68
691.285	16.55
691.471	16.83
691.656	16.91
691.841	16.95
692.026	16.25
692.211	15.55
692.396	14.99
692.582	15.76
692.767	15.41
692.952	15.34
693.137	15.45
693.322	15.28
693.507	15.51
693.692	15.53
693.877	15.36
694.062	16.3
694.247	16.38
694.432	17.06
694.617	16.93
694.802	16.81
694.987	16.44
695.172	16.75
695.357	16.4
695.541	16.28
695.726	16.55
695.911	16.76
696.096	16.19
696.281	16.62
696.466	16.35
696.65	16.23
696.835	15.91
697.02	15.73
697.204	15.6
697.389	15.21
697.574	15.19
697.759	15.2
697.943	15.05
698.128	15.21
698.312	15.22
698.497	15.13
698.682	15.01
698.866	15.48
699.051	15.59
699.235	15.58
699.42	15.78
699.604	15.81
699.789	15.59
699.973	15.68
700.158	15.86
700.342	15.42
700.527	15.66
700.711	15.36
700.895	14.95
701.08	15.04
701.264	14.86
701.448	15.41
701.633	15.83
701.817	16.09
702.001	16.2
702.186	16.16
702.37	16.49
702.554	16.16
702.738	17.03
702.923	17.51
703.107	17.18
703.291	17.71
703.475	17.41
703.659	16.3
703.843	16.57
704.027	16.64
704.212	16.43
704.396	16.66
704.58	16.77
704.764	16.58
704.948	16.17
705.132	16.23
705.316	16.09
705.5	16.38
705.684	17.37
705.868	17.44
706.052	17.3
706.235	17.76
706.419	18.35
706.603	18.67
706.787	18.35
706.971	19.14
707.155	19.63
707.339	19.6
707.522	19.09
707.706	18.66
707.89	18.43
708.074	18.41
708.257	17.67
708.441	16.65
708.625	16.05
708.808	16.12
708.992	16.43
709.176	15.77
709.359	15.26
709.543	15.59
709.727	15.57
709.91	15.42
710.094	16.06
710.277	16.7
710.461	16.24
710.644	16.24
710.828	16.28
711.011	15.72
711.195	16
711.378	16.99
711.562	17.2
711.745	17.25
711.928	16.49
712.112	16.51
712.295	15.65
712.478	16.3
712.662	17.03
712.845	17.07
713.028	17.08
713.212	16.88
713.395	16.95
713.578	16.84
713.761	16.16
713.945	17.01
714.128	15.83
714.311	16.04
714.494	15.7
714.677	14.86
714.86	15.17
715.043	15.43
715.227	16.2
715.41	15.47
715.593	15.66
715.776	16.42
715.959	16.35
716.142	16.94
716.325	17.89
716.508	17.98
716.691	18.22
716.874	18.01
717.057	17.96
717.239	17.53
717.422	17.42
717.605	17.08
717.788	17.04
717.971	16.81
718.154	16.98
718.337	15.96
718.519	15.45
718.702	15.38
718.885	14.91
719.068	13.94
719.25	14.5
719.433	14.14
719.616	15.34
719.798	15.5
719.981	16.55
720.164	16.27
720.346	16.46
720.529	17.65
720.712	17.66
720.894	17.6
721.077	18.19
721.259	17.58
721.442	18.03
721.624	15.96
721.807	15.48
721.989	14.88
722.172	14.9
722.354	16.14
722.537	16.43
722.719	17.01
722.901	18.44
723.084	18.44
723.266	18.14
723.448	18.31
723.631	19.74
723.813	19.92
723.995	18.99
724.178	19.88
724.36	19.56
724.542	20.02
724.724	19.66
724.907	18.29
725.089	19.62
725.271	20.18
725.453	20.19
725.635	20.14
725.817	19.82
725.999	20.25
726.181	19.68
726.364	18.19
726.546	16.54
726.728	16.13
726.91	17.84
727.092	16.74
727.274	16.6
727.456	15.73
727.638	15.6
727.819	15.49
728.001	15.28
728.183	15.04
728.365	15.58
728.547	15.93
728.729	17
728.911	16.03
729.093	15.63
729.274	16.13
729.456	17.12
729.638	16.98
729.82	17.85
730.001	17.58
730.183	17.56
730.365	18.37
730.546	19.26
730.728	18.99
730.91	18.92
731.091	19.02
731.273	17.73
731.455	17.87
731.636	17.94
731.818	18.43
731.999	19.62
732.181	20.34
732.362	19.44
732.544	19.17
732.725	19.37
732.907	19.98
733.088	20.9
733.27	21.82
733.451	22.12
733.633	21.53
733.814	21.09
733.995	20.3
734.177	20.54
734.358	21.79
734.539	21.55
734.721	21.68
734.902	21.2
735.083	20.98
735.264	21.7
735.446	21.38
735.627	22.4
735.808	22.05
735.989	22.64
736.17	21.2
736.351	20.28
736.533	21.1
736.714	21.55
736.895	21.31
737.076	21.7
737.257	20.88
737.438	19.91
737.619	19.16
737.8	19.1
737.981	19.48
738.162	19.99
738.343	19.94
738.524	19.29
738.705	18.15
738.886	17.72
739.067	16.41
739.247	16.17
739.428	15.37
739.609	15.45
739.79	14.09
739.971	13.2
740.151	13.11
740.332	13.27
740.513	12.26
740.694	11.6
740.874	11.74
741.055	12.14
741.236	12.93
741.417	15.43
741.597	15.55
741.778	17.26
741.958	18.04
742.139	18.69
742.32	18.02
742.5	19.47
742.681	20.14
742.861	21.28
743.042	20.93
743.222	20.16
743.403	18.52
743.583	20.64
743.764	19.64
743.944	18.9
744.124	18.51
744.305	18
744.485	18
744.666	17.26
744.846	17.57
745.026	18.5
745.207	18.7
745.387	19.18
745.567	18.26
745.747	19.87
745.928	19.82
746.108	20.4
746.288	22.05
746.468	21.9
746.648	24.01
746.829	23.53
747.009	22.66
747.189	22.64
747.369	23.27
747.549	23.35
747.729	22.88
747.909	23.18
748.089	23.16
748.269	22.61
748.449	23.08
748.629	22.21
748.809	20.9
748.989	21.43
749.169	21.51
749.349	21.94
749.529	21.06
749.709	21.02
749.889	19.91
750.068	19.33
750.248	19.86
750.428	18.22
750.608	18.32
750.788	20.06
750.967	20.17
751.147	19.95
751.327	18.76
751.507	19.06
751.686	18.41
751.866	18.98
752.046	20.28
752.225	20.67
752.405	21.43
752.585	21.12
752.764	19.26
752.944	18.87
753.123	18.78
753.303	19.42
753.482	19.22
753.662	20.21
753.841	20.87
754.021	20.05
754.2	19.64
754.38	20.1
754.559	20.63
754.739	21.99
754.918	22.38
755.097	21.64
755.277	21.17
755.456	20.5
755.635	20.25
755.815	21.21
755.994	20.58
756.173	19.18
756.352	18.66
756.532	18.5
756.711	18.88
756.89	18.72
757.069	19.97
757.248	21.16
757.427	21.45
757.607	21.25
757.786	18.68
757.965	18.97
758.144	19.89
758.323	19.1
758.502	19.51
758.681	18.7
758.86	18.7
759.039	19.96
759.218	19.03
759.397	20.08
759.576	18.25
759.755	19.09
759.934	18.21
760.113	18.57
760.291	18.69
760.47	18.87
760.649	20.36
760.828	19.89
761.007	19.18
761.186	19.5
761.364	18.28
761.543	19.63
761.722	19.66
761.901	19.54
762.079	18.79
762.258	19.43
762.437	18.03
762.615	17.71
762.794	18.37
762.972	17.6
763.151	16.79
763.33	16.61
763.508	16.15
763.687	16.39
763.865	16.72
764.044	17.12
764.222	17.23
764.401	17.39
764.579	16.37
764.758	15.89
764.936	15.52
765.114	16.29
765.293	16.66
765.471	16.42
765.65	16.56
765.828	16.41
766.006	16.32
766.184	16.15
766.363	16.5
766.541	16.6
766.719	15.82
766.898	16.57
767.076	15.85
767.254	15.98
767.432	17.19
767.61	17.51
767.788	18.75
767.967	19.35
768.145	18.83
768.323	18.52
768.501	18.45
768.679	19.5
768.857	20.45
769.035	22.29
769.213	23.75
769.391	23.2
769.569	23.5
769.747	23.34
769.925	22.17
770.103	23.16
770.281	24.06
770.459	24.73
770.636	23.56
770.814	22.41
770.992	21.67
771.17	18.91
771.348	19.21
771.525	18.83
771.703	19.19
771.881	20.85
772.059	20.59
772.236	20.17
772.414	18.64
772.592	19.52
772.769	19.85
772.947	20.25
773.125	19.84
773.302	20.28
773.48	22.08
773.657	22.35
773.835	22.33
774.013	20.87
774.19	22.49
774.368	23.97
774.545	25.35
774.723	26.32
774.9	26.65
775.077	27.63
775.255	28.54
775.432	25.24
775.61	23.07
775.787	23.16
775.964	24.48
776.142	21.97
776.319	23.65
776.496	22.46
776.674	21.45
776.851	17.39
777.028	19.09
777.205	19.03
777.382	22.72
777.56	24.17
777.737	24.6
777.914	25.61
778.091	27.47
778.268	26.31
778.445	27.15
778.622	27.47
778.8	29.5
778.977	28.24
779.154	27.51
779.331	25.87
779.508	25.39
779.685	24.71
779.862	26.18
780.038	26.37
780.215	24.42
780.392	24.62
780.569	22.97
780.746	23.7
780.923	23.9
781.1	25.14
781.277	24.86
781.453	25.18
781.63	25.84
781.807	22.42
781.984	20.73
782.16	24.73
782.337	25.96
782.514	28.84
782.691	28.33
782.867	29.7
783.044	29.43
783.221	29.72
783.397	29.63
783.574	30.8
783.75	31.88
783.927	31.22
784.103	30.79
784.28	29.51
784.456	27.43
784.633	27.33
784.809	24.87
784.986	24.49
785.162	22.93
785.339	21.96
785.515	19.67
785.692	17.54
785.868	17.1
786.044	15.86
786.221	16.97
786.397	18.14
786.573	21.43
786.749	22.94
786.926	19.2
787.102	21.62
787.278	22.43
787.454	23.17
787.631	24.73
787.807	25.06
787.983	22.35
788.159	22.52
788.335	20.87
788.511	17.76
788.687	18.31
788.863	22.1
789.039	21.92
789.216	22.2
789.392	20.33
789.568	20.6
789.744	23.11
789.919	25.3
790.095	22.04
790.271	23.18
790.447	25.41
790.623	24.65
790.799	22.4
790.975	20.43
791.151	20.47
791.327	22.93
791.502	22.99
791.678	22.41
791.854	24.42
792.03	27.51
792.205	28.63
792.381	25.66
792.557	26.57
792.733	28.56
792.908	32.1
793.084	32.01
793.259	29.92
793.435	30.18
793.611	29.41
793.786	28.67
793.962	26.43
794.137	25.64
794.313	25.22
794.488	24.35
794.664	23.53
794.839	20.7
795.015	21.22
795.19	19.5
795.366	21.86
795.541	22.58
795.716	18.53
795.892	17.83
796.067	19.57
796.242	21.63
796.418	21.73
796.593	22.34
796.768	24.78
796.944	26.5
797.119	27.8
797.294	24.21
797.469	24.08
797.644	28.33
797.82	29.8
797.995	28.61
798.17	30.37
798.345	30.56
798.52	27.93
798.695	27.6
798.87	24.62
799.045	27.95
799.22	30.21
799.395	29.02
799.57	26.4
799.745	25.99
799.92	25.54
800.095	21.01
800.27	21.2
800.445	23.35
800.62	21.34
800.795	20.33
800.97	19.75
801.145	17.82
801.319	20.62
801.494	25.62
801.669	27.74
801.844	27.13
802.018	30.5
802.193	32.84
802.368	29.79
802.543	32.14
802.717	36.57
802.892	34.89
803.067	36.11
803.241	33.4
803.416	30.27
803.59	29.01
803.765	30.35
803.94	25.89
804.114	25.9
804.289	30.87
804.463	28.74
804.638	25.54
804.812	25.11
804.986	22.07
805.161	21.91
805.335	19.93
805.51	20.36
805.684	18.19
805.858	25.55
806.033	21.21
806.207	18.74
806.381	20.32
806.556	21.32
806.73	21.32
806.904	20.99
807.078	22.05
807.253	24.87
807.427	22.04
807.601	23.03
807.775	18.75
807.949	24.62
808.123	27.89
808.298	27.04
808.472	27.01
808.646	25.04
808.82	24.39
808.994	24.29
809.168	23.88
809.342	27.66
809.516	25.85
809.69	25.49
809.864	22.96
810.038	17.94
810.212	18.01
810.385	18.01
810.559	19.9
810.733	23.1
810.907	23.84
811.081	23.25
811.255	25.39
811.428	28.56
811.602	31.09
811.776	34.14
811.95	34.8
812.123	38.46
812.297	37.75
812.471	37.57
812.644	39.15
812.818	40.65
812.992	40.62
813.165	39.9
813.339	41.57
813.512	36.27
813.686	34.59
813.86	32.12
814.033	29.45
814.207	33.93
814.38	33.95
814.554	36.88
814.727	37.18
814.9	40.58
815.074	40.64
815.247	38.65
815.421	43.76
815.594	39.65
815.767	44.97
815.941	45.52
816.114	43.41
816.287	45.64
816.46	44.12
816.634	42.08
816.807	41.24
816.98	40.3
817.153	42.45
817.327	38.78
817.5	43.67
817.673	39.95
817.846	39.82
818.019	36.9
818.192	33.16
818.365	33.49
818.538	34
818.711	31.18
818.884	28.26
819.057	27.78
819.23	30.31
819.403	28.49
819.576	30.35
819.749	29.74
819.922	30.48
820.095	31.84
820.268	30.05
820.441	30.56
820.614	29.86
820.786	31.02
820.959	28.93
821.132	26.85
821.305	26.03
821.477	24
821.65	23
821.823	22.02
821.996	21.26
822.168	20.38
822.341	19.99
822.514	19.78
822.686	19.37
822.859	18.87
823.031	19.05
823.204	18.54
823.376	18.08
823.549	17.37
823.722	17.24
823.894	17.51
824.067	18.28
824.239	17.72
824.411	17.75
824.584	17.2
824.756	18
824.929	17.14
825.101	17.94
825.273	19.46
825.446	20.72
825.618	21.69
825.79	21.34
825.963	20.68
826.135	20.59
826.307	21.77
826.479	20.93
826.652	20.04
826.824	20.41
826.996	20.16
827.168	19.21
827.34	19.13
827.512	19.4
827.684	20.06
827.856	20.06
828.029	21.45
828.201	19.89
828.373	20.38
828.545	20.86
828.717	20.61
828.889	21.78
829.061	21.94
829.232	21.62
829.404	20.2
829.576	20.59
829.748	20.1
829.92	20.76
830.092	21.19
830.264	23.51
830.436	24.49
830.607	27.57
830.779	25.81
830.951	28.42
831.123	30.65
831.294	30.89
831.466	30.13
831.638	31.55
831.809	27.78
831.981	25.28
832.153	24.16
832.324	26.54
832.496	26.85
832.667	27.78
832.839	25.74
833.011	23.17
833.182	23.85
833.354	23.87
833.525	22.36
833.697	21.33
833.868	23.15
834.039	23.95
834.211	22.09
834.382	21.09
834.554	21.54
834.725	19.49
834.896	18.58
835.068	20.01
835.239	19.72
835.41	22
835.581	23.39
835.753	25.13
835.924	25.06
836.095	23.24
836.266	20.52
836.438	19.87
836.609	20.84
836.78	23.94
836.951	22.57
837.122	22.34
837.293	20.4
837.464	20.83
837.635	20.03
837.806	22.85
837.977	25.39
838.148	32.22
838.319	34.42
838.49	41.85
838.661	48.86
838.832	53.09
839.003	52.49
839.174	56.26
839.345	54.92
839.516	56
839.687	56.99
839.857	57.21
840.028	46.18
840.199	42.68
840.37	41.8
840.54	31.68
840.711	26.79
840.882	28.64
841.053	25.29
841.223	28.87
841.394	25.44
841.564	22.52
841.735	23.26
841.906	28.26
842.076	32.99
842.247	29.64
842.417	29.13
842.588	33.74
842.758	33.84
842.929	38.21
843.099	40.97
843.27	40.2
843.44	40.38
843.611	38.43
843.781	36.84
843.951	31.53
844.122	39.88
844.292	41.55
844.462	44.23
844.633	44.97
844.803	40.76
844.973	39.96
845.144	44.78
845.314	41.21
845.484	44.41
845.654	39.95
845.824	37.93
845.995	29.72
846.165	35.02
846.335	32.62
846.505	45.45
846.675	57.49
846.845	50.79
847.015	65.12
847.185	57.84
847.355	48.5
847.525	60.82
847.695	65.87
847.865	70.16
848.035	68.94
848.205	63.59
848.375	58.99
848.545	42.45
848.715	43.41
848.884	37.35
849.054	55.02
849.224	65.15
849.394	87.53
849.564	76.93
849.733	77.52
849.903	75.18
850.073	85.1
850.243	86.83
850.412	110.01
850.582	130.57
850.752	133.1
850.921	152.38
851.091	159.97
851.26	117.49
851.43	118.67
851.599	109.88
851.769	127.08
851.939	114.13
852.108	112.97
852.278	103.03
852.447	85.09
852.616	94.21
852.786	85.6
852.955	77.45
853.125	78.02
853.294	78.44
853.463	83.45
853.633	77.89
853.802	85.45
853.971	92.88
854.141	85.97
854.31	76.85
854.479	81.32
854.648	72.39
854.818	62.01
854.987	69.3
855.156	63.21
855.325	61.58
855.494	52.61
855.663	49.85
855.832	39.09
856.001	47.21
856.171	60.52
856.34	56.77
856.509	58.61
856.678	59.29
856.847	42.87
857.016	44.04
857.185	38.43
857.353	37.36
857.522	34.11
857.691	50.15
857.86	48.92
858.029	43.53
858.198	33.18
858.367	30.47
858.535	28.97
858.704	40.87
858.873	54.18
859.042	53.42
859.21	88.14
859.379	98.54
859.548	100.8
859.717	82.65
859.885	74.81
860.054	66.87
860.222	80.21
860.391	76.74
860.56	86.98
860.728	66.55
860.897	71.29
861.065	47.02
861.234	47.44
861.402	25.99
861.571	26.69
861.739	32.41
861.908	45.57
862.076	39.92
862.244	32.78
862.413	31.51
862.581	42.81
862.749	42.74
862.918	42.2
863.086	43.23
863.254	52.7
863.423	64.47
863.591	60.89
863.759	64.88
863.927	55.71
864.096	63.92
864.264	66.11
864.432	64.68
864.6	73.66
864.768	77.92
864.936	59.51
865.104	78.31
865.272	60.87
865.44	68.69
865.608	56.14
865.776	77.59
865.944	93.33
866.112	94.82
866.28	100.43
866.448	77.38
866.616	80.34
866.784	110.96
866.952	80.57
867.12	94.56
867.288	86.81
867.455	92.85
867.623	79.8
867.791	57.22
867.959	52.28
868.127	49.65
868.294	62.26
868.462	60.41
868.63	59.25
868.797	61.18
868.965	52.94
869.133	42.43
869.3	51.37
869.468	59.53
869.636	66.2
869.803	67.82
869.971	61.77
870.138	69.98
870.306	77.08
870.473	61.34
870.641	48.08
870.808	60.67
870.975	71.27
871.143	70.7
871.31	63.99
871.478	70.77
871.645	78.68
871.812	86.01
871.98	77.22
872.147	66.62
872.314	72.84
872.482	87.2
872.649	78.76
872.816	69.19
872.983	65.53
873.15	59.68
873.318	56.86
873.485	50.05
873.652	44.25
873.819	43.29
873.986	37.18
874.153	43.94
874.32	43.85
874.487	35.92
874.654	29.44
874.821	37.84
874.988	39.19
875.155	38.87
875.322	31.1
875.489	49.92
875.656	43.59
875.823	46.88
875.99	38.82
876.157	32.36
876.324	36.67
876.49	36.12
876.657	13.53
876.824	10.7
876.991	18.22
877.157	16.55
877.324	6.34
877.491	17.48
877.658	29.89
877.824	20.92
877.991	14.09
878.157	15.78
878.324	36.23
878.491	56.43
878.657	64.06
878.824	63.19
878.99	55.25
879.157	62.44
879.323	52.09
879.49	38.5
879.656	55.97
879.823	63.31
879.989	62.82
880.156	57.83
880.322	56.06
880.488	54.29
880.655	53.51
880.821	66.1
880.987	63.69
881.154	51.04
881.32	53.52
881.486	46.16
881.652	45.65
881.819	37.43
881.985	32.97
882.151	33.43
882.317	35.52
882.483	37.77
882.649	34.44
882.816	32.58
882.982	33.88
883.148	33.2
883.314	33.69
883.48	32.35
883.646	32.42
883.812	33.63
883.978	32.97
884.144	29.48
884.31	26.27
884.476	27.84
884.642	27.66
884.807	30.66
884.973	31.2
885.139	32.18
885.305	32.68
885.471	32.04
885.637	29.6
885.802	31.83
885.968	36.41
886.134	44.06
886.3	46.75
886.465	46.62
886.631	41.77
886.797	41.37
886.962	39.39
887.128	37.42
887.293	42.16
887.459	47.51
887.625	46.8
887.79	43.69
887.956	31.76
888.121	28.89
888.287	28.13
888.452	32.06
888.618	34.52
888.783	40.3
