Data from 2938045_Reflection_2.txt Node
Date: Sun Jul 12 14:28:31 EDT 2015
User: robert
Spectrometer: USB4E03001
Autoset integration time: false
Trigger mode: 4
Integration Time (sec): 1.000000E-1
Scans to average: 10
Electric dark correction enabled: true
Nonlinearity correction enabled: false
Boxcar width: 5
Stray light correction enabled: false
XAxis mode: Wavelengths
Stop averaging: false
Number of Pixels in Spectrum: 3648
>>>>>Begin Spectral Data<<<<<
177.566	52.13
177.785	-187.53
178.005	217.94
178.225	18.88
178.445	68.32
178.665	40.69
178.885	72.95
179.105	179.03
179.324	236.06
179.544	248.29
179.764	384.84
179.984	210.28
180.204	-141.86
180.423	-51.29
180.643	-78.22
180.863	-147.3
181.083	-806.01
181.302	113300
181.522	-234.73
181.742	-184.75
181.961	-140.29
182.181	-478.65
182.401	-1313.11
182.621	538.14
182.84	753
183.06	-273.71
183.279	-261.79
183.499	-194.61
183.719	33.16
183.938	8.12
184.158	-15.29
184.377	-34.62
184.597	12.54
184.816	16.03
185.036	30.92
185.256	-7.39
185.475	-161.67
185.695	-129.08
185.914	-112.55
186.134	-157.93
186.353	-326.68
186.572	-135.24
186.792	-165.74
187.011	-195.41
187.231	-179.66
187.45	-641.28
187.67	-622.71
187.889	-339.24
188.108	-262.16
188.328	-458.71
188.547	-487.61
188.766	-241.99
188.986	-477.69
189.205	-148.49
189.424	-100.35
189.644	-77.69
189.863	-11.2
190.082	-31.64
190.302	-20.59
190.521	-23.69
190.74	0.22
190.959	11.51
191.178	-2.81
191.398	13.81
191.617	-0.62
191.836	-181.73
192.055	-607.37
192.274	472.91
192.494	153.31
192.713	1625.99
192.932	292.86
193.151	-543.85
193.37	-509.09
193.589	-60.39
193.808	435.03
194.027	-221.62
194.246	31.01
194.465	17.96
194.685	22.83
194.904	4.56
195.123	-59.08
195.342	-84.69
195.561	-65.36
195.78	-82.94
195.999	-247.48
196.218	-236.29
196.436	-848.29
196.655	896.92
196.874	386.08
197.093	301.29
197.312	480.62
197.531	-616.79
197.75	-555.34
197.969	-3653.15
198.188	-3785.4
198.407	-1512.09
198.625	-206.88
198.844	-113.85
199.063	-53.99
199.282	-52.96
199.501	-16.28
199.719	5.34
199.938	-12.44
200.157	13.85
200.376	-5.89
200.594	26.22
200.813	48.03
201.032	60.71
201.251	54.79
201.469	53.43
201.688	16.2
201.907	-4.79
202.125	3.9
202.344	-6.85
202.563	-32.51
202.781	-29.27
203	6.38
203.218	-20.71
203.437	-4.01
203.656	22.77
203.874	-27.47
204.093	-143.69
204.311	-83.91
204.53	29.79
204.748	-122.88
204.967	-55.66
205.185	-67.03
205.404	11453.12
205.622	-469
205.841	-340.76
206.059	-386.49
206.278	-269.14
206.496	-200.73
206.715	-9.7
206.933	-30.27
207.151	4.8
207.37	58.36
207.588	10.76
207.806	123.53
208.025	138.93
208.243	101.59
208.461	67.41
208.68	48.84
208.898	58.61
209.116	11.82
209.335	14.97
209.553	38.2
209.771	35.08
209.989	19.36
210.208	8.61
210.426	-35.24
210.644	-31.37
210.862	-28.21
211.081	-36.34
211.299	-77.74
211.517	-18.41
211.735	-7.8
211.953	-16.02
212.171	-25.91
212.39	12.15
212.608	-12.73
212.826	158.55
213.044	47.47
213.262	1696.97
213.48	-595.52
213.698	104.32
213.916	83.41
214.134	74.01
214.352	32.34
214.57	54.94
214.788	40.64
215.006	60.54
215.224	64.99
215.442	84.57
215.66	79.69
215.878	64.86
216.096	64.09
216.314	62.52
216.532	53.54
216.75	65.15
216.968	57.51
217.185	55.16
217.403	28.87
217.621	18.03
217.839	2.54
218.057	1.8
218.275	-36.07
218.492	-34.33
218.71	-28.61
218.928	-64.99
219.146	-103.53
219.363	-59.26
219.581	-50.67
219.799	-42.44
220.017	-44.07
220.234	-104.43
220.452	-30.63
220.67	-20.21
220.887	-42.1
221.105	-90.86
221.323	-31.41
221.54	-14.48
221.758	-74.21
221.976	-119.85
222.193	-74.56
222.411	-58.35
222.629	-46.7
222.846	-84.19
223.064	-100.07
223.281	-79.93
223.499	-63.88
223.716	-100.61
223.934	-159.34
224.151	-129.68
224.369	-80.59
224.586	-70.36
224.804	-64.58
225.021	-47.25
225.239	-41.84
225.456	-12.65
225.674	-8.35
225.891	-7.79
226.108	2.79
226.326	11.32
226.543	14.76
226.76	6.8
226.978	2.26
227.195	1.47
227.413	2.89
227.63	5.08
227.847	7.08
228.064	7.07
228.282	1.01
228.499	6.66
228.716	9.72
228.934	8.89
229.151	7.25
229.368	8.4
229.585	9.72
229.802	8.35
230.02	4.82
230.237	3.62
230.454	4.29
230.671	9.12
230.888	6.89
231.105	4.23
231.323	1.72
231.54	6.1
231.757	1.69
231.974	1.27
232.191	1.71
232.408	9.02
232.625	2.43
232.842	2.51
233.059	2.34
233.276	0.1
233.493	3.16
233.71	4.23
233.927	-2.78
234.144	1.1
234.361	2.6
234.578	4.21
234.795	1.62
235.012	4.91
235.229	7.02
235.446	6.52
235.663	7.54
235.879	5.02
236.096	7.52
236.313	5.32
236.53	10.69
236.747	10.87
236.964	9.41
237.181	12.69
237.397	10.58
237.614	7.38
237.831	7.15
238.048	5.01
238.264	4.39
238.481	4.66
238.698	6.24
238.915	5.81
239.131	1.25
239.348	2.6
239.565	2.45
239.781	7.15
239.998	8.73
240.215	6.74
240.431	8.51
240.648	5.27
240.865	2.05
241.081	6.02
241.298	4.58
241.514	5.36
241.731	5.36
241.947	6.8
242.164	6.65
242.38	6.2
242.597	6.91
242.814	6.24
243.03	5.93
243.246	7.67
243.463	6
243.679	6.43
243.896	7.06
244.112	6.72
244.329	3.15
244.545	3.24
244.762	3.77
244.978	4.21
245.194	4.53
245.411	6.31
245.627	7.59
245.843	9.34
246.06	6.91
246.276	7.7
246.492	8.17
246.709	8.82
246.925	9.23
247.141	8.98
247.357	9.22
247.574	8.54
247.79	7.78
248.006	7.14
248.222	6.46
248.439	6.62
248.655	6
248.871	6.06
249.087	6.31
249.303	4.75
249.519	3.96
249.736	2.08
249.952	1.29
250.168	3.21
250.384	1.42
250.6	2.32
250.816	3.43
251.032	4.2
251.248	3.01
251.464	0.53
251.68	2.13
251.896	2.17
252.112	4.49
252.328	6.41
252.544	6.33
252.76	8.75
252.976	7.56
253.192	7.38
253.408	5.25
253.624	6.31
253.84	7.97
254.056	4.12
254.272	5.67
254.487	6.19
254.703	7.37
254.919	5.38
255.135	2.77
255.351	2.56
255.567	2.7
255.782	3.15
255.998	-1.06
256.214	0.48
256.43	1.47
256.646	0.74
256.861	-0.37
257.077	-2.19
257.293	-2.13
257.508	-0.82
257.724	0.58
257.94	2.36
258.155	2.62
258.371	3.65
258.587	3.72
258.802	5.99
259.018	4.49
259.234	4.81
259.449	4.89
259.665	6.09
259.88	5.74
260.096	5.67
260.312	5.61
260.527	6.02
260.743	6.46
260.958	6.07
261.174	4.97
261.389	6.33
261.605	5.03
261.82	4.68
262.036	4.18
262.251	4.23
262.466	4.12
262.682	2.42
262.897	2.91
263.113	2.24
263.328	2.71
263.543	3.7
263.759	3.66
263.974	5.05
264.189	4.17
264.405	1.57
264.62	0.99
264.835	1.69
265.051	3.42
265.266	3.78
265.481	4.95
265.696	4.64
265.912	4.26
266.127	3.81
266.342	3.85
266.557	4.44
266.773	5.48
266.988	4.95
267.203	5.41
267.418	5.33
267.633	5.14
267.848	4.54
268.064	3.88
268.279	3.24
268.494	3.93
268.709	4.94
268.924	4.51
269.139	5.51
269.354	6.17
269.569	5.59
269.784	5.8
269.999	5.49
270.214	5.46
270.429	5.9
270.644	6.7
270.859	6.07
271.074	5.12
271.289	5.48
271.504	5.24
271.719	5.77
271.934	4.84
272.149	4.82
272.363	4.35
272.578	3.98
272.793	4.13
273.008	4.45
273.223	4.7
273.438	4.59
273.653	4.49
273.867	3.15
274.082	2.89
274.297	3.01
274.512	2.43
274.726	3.37
274.941	3.08
275.156	2.41
275.371	3.37
275.585	1.41
275.8	0.65
276.015	1.03
276.229	2.95
276.444	1.86
276.659	2.08
276.873	1.71
277.088	0.56
277.302	0.47
277.517	0.65
277.732	-1.2
277.946	1.06
278.161	2.28
278.375	2.77
278.59	1.99
278.804	1.92
279.019	1.86
279.233	1.55
279.448	2.48
279.662	2.99
279.877	3.26
280.091	3.31
280.306	2.54
280.52	1.3
280.735	1.88
280.949	2.22
281.163	2.84
281.378	4.2
281.592	4.49
281.806	3.39
282.021	3.77
282.235	2.96
282.449	3.76
282.664	4.51
282.878	6.12
283.092	5.6
283.307	4.77
283.521	5.32
283.735	4.94
283.949	5.51
284.164	6.32
284.378	6.19
284.592	6.2
284.806	6.39
285.02	6.03
285.234	5.47
285.449	5.24
285.663	5.62
285.877	5.54
286.091	5.09
286.305	5.45
286.519	5.88
286.733	6.55
286.947	6.79
287.161	7
287.375	5.62
287.589	5.67
287.803	6.24
288.017	7.44
288.231	7.62
288.445	8.69
288.659	7.42
288.873	6.88
289.087	5.97
289.301	7.37
289.515	6.9
289.729	8.82
289.943	8.96
290.157	7.56
290.371	5.91
290.584	6.64
290.798	6.37
291.012	8.04
291.226	7.79
291.44	8.47
291.654	7.87
291.867	7.8
292.081	7.07
292.295	5.45
292.509	5.92
292.722	8.27
292.936	7.21
293.15	6.22
293.364	5.01
293.577	3.91
293.791	3.91
294.005	3.59
294.218	3.54
294.432	4.16
294.645	5.08
294.859	5.88
295.073	5.07
295.286	4.49
295.5	4.82
295.713	4.72
295.927	5.57
296.14	4.47
296.354	4.92
296.568	4.49
296.781	5.42
296.994	6.45
297.208	5.98
297.421	5.47
297.635	5.78
297.848	5.85
298.062	6.45
298.275	6.15
298.489	6.78
298.702	5.62
298.915	6.2
299.129	3.99
299.342	3.01
299.555	4.44
299.769	3.94
299.982	4.68
300.195	4.79
300.409	4.67
300.622	6.3
300.835	5.33
301.048	6.08
301.262	5.15
301.475	8.03
301.688	8.62
301.901	7.23
302.115	8.21
302.328	7.14
302.541	7.75
302.754	6.57
302.967	5.55
303.18	5.83
303.393	6.61
303.607	6.3
303.82	3.12
304.033	3.23
304.246	3.7
304.459	3.6
304.672	5.06
304.885	4.23
305.098	5.75
305.311	5.27
305.524	5.76
305.737	4.23
305.95	4.06
306.163	5.48
306.376	5.83
306.589	5.12
306.802	5.45
307.015	3.8
307.228	2.72
307.44	1.92
307.653	3.35
307.866	3.88
308.079	5.06
308.292	6.93
308.505	4.7
308.718	4.75
308.93	4.85
309.143	4.34
309.356	6.03
309.569	6.08
309.781	6.31
309.994	6.51
310.207	6.4
310.42	6.96
310.632	6.75
310.845	8.83
311.058	8.24
311.27	9.32
311.483	8.43
311.696	7.48
311.908	7.55
312.121	6.91
312.333	5.98
312.546	5.57
312.759	4.87
312.971	4.57
313.184	3.91
313.396	3.2
313.609	1.34
313.821	2.41
314.034	1.92
314.246	3.1
314.459	4.93
314.671	4.54
314.884	4.44
315.096	4.3
315.309	4.18
315.521	3.65
315.733	4.82
315.946	6.76
316.158	7.68
316.371	6.78
316.583	6.66
316.795	5.84
317.008	5.41
317.22	5.7
317.432	5.98
317.644	5.6
317.857	5.65
318.069	5.81
318.281	4.67
318.494	4.39
318.706	6.12
318.918	6.31
319.13	6.2
319.342	6.85
319.555	6.48
319.767	6.18
319.979	6.15
320.191	7.73
320.403	5.65
320.615	5.32
320.827	4.97
321.039	5.38
321.252	4.98
321.464	5.4
321.676	6.5
321.888	5.67
322.1	5.24
322.312	6.05
322.524	4.75
322.736	5.44
322.948	4.82
323.16	4.22
323.372	3.68
323.584	3.19
323.796	2
324.007	1.54
324.219	2.3
324.431	2.99
324.643	2.38
324.855	3.52
325.067	4.42
325.279	5.09
325.491	4.94
325.702	4.75
325.914	4.08
326.126	4.36
326.338	3.49
326.55	4.26
326.761	3.96
326.973	4.32
327.185	4.12
327.396	4.11
327.608	3.64
327.82	4.43
328.032	4.58
328.243	5.5
328.455	5.18
328.666	5.92
328.878	6.9
329.09	7.71
329.301	8.14
329.513	5.55
329.725	5.15
329.936	5.22
330.148	6.68
330.359	7.59
330.571	8.31
330.782	8.02
330.994	6.68
331.205	5.55
331.417	4.91
331.628	5.48
331.84	6.08
332.051	6.94
332.262	7.08
332.474	5.37
332.685	5.59
332.897	4.85
333.108	5.84
333.319	7.36
333.531	6.61
333.742	6.43
333.953	4.95
334.165	6.01
334.376	6.35
334.587	7.23
334.799	7.6
335.01	7.85
335.221	8.03
335.432	7.7
335.644	7.63
335.855	8.68
336.066	8.9
336.277	8.45
336.488	8.1
336.7	6.69
336.911	7.11
337.122	7.12
337.333	4.59
337.544	5.03
337.755	4.76
337.966	4.69
338.177	5.37
338.388	5.24
338.599	6.2
338.811	6.47
339.022	6.85
339.233	5.9
339.444	6.03
339.655	7.31
339.866	6.84
340.076	5.58
340.287	5.99
340.498	4.08
340.709	3.52
340.92	3.64
341.131	3.89
341.342	4.1
341.553	4.92
341.764	3.91
341.975	3.55
342.185	3.46
342.396	4.98
342.607	3.85
342.818	4.29
343.029	6.39
343.239	6.74
343.45	6.97
343.661	6.31
343.872	5.44
344.082	5.7
344.293	6.08
344.504	5.6
344.714	5.24
344.925	5.54
345.136	5.53
345.346	3.64
345.557	2.18
345.768	2.37
345.978	2.73
346.189	3.43
346.399	4.13
346.61	4.81
346.821	5.21
347.031	4.92
347.242	5.09
347.452	5.13
347.663	5
347.873	5.83
348.084	4.66
348.294	5.35
348.504	5.64
348.715	5.62
348.925	5.29
349.136	5.61
349.346	6.13
349.557	5.77
349.767	5.95
349.977	6.84
350.188	6.43
350.398	7.58
350.608	7.02
350.819	6.54
351.029	6.65
351.239	6.34
351.449	5.79
351.66	5.54
351.87	6.27
352.08	5.45
352.29	5.29
352.501	6.47
352.711	5.95
352.921	5.4
353.131	5.21
353.341	4.38
353.552	4.82
353.762	5.06
353.972	6.11
354.182	5.58
354.392	6.97
354.602	7.01
354.812	6.68
355.022	6.76
355.232	7.61
355.442	7
355.652	7.19
355.862	6.49
356.072	6.45
356.282	5.92
356.492	5.93
356.702	5.33
356.912	4.88
357.122	4.11
357.332	3.73
357.542	4.06
357.752	4.53
357.962	4.61
358.171	5.75
358.381	5.64
358.591	5.6
358.801	4.98
359.011	5.5
359.221	6.21
359.43	6.4
359.64	6.29
359.85	5.62
360.06	5.84
360.269	5.6
360.479	4.79
360.689	4.72
360.899	4.15
361.108	5.58
361.318	5.15
361.528	4.75
361.737	4.95
361.947	4.61
362.156	4.38
362.366	4.01
362.576	3.96
362.785	3.68
362.995	3.64
363.204	4.01
363.414	3.81
363.623	3.99
363.833	4.01
364.042	3.86
364.252	5.13
364.461	4.95
364.671	4.78
364.88	4.97
365.09	5.64
365.299	5.65
365.509	5.95
365.718	5.09
365.927	5.02
366.137	5.53
366.346	6
366.555	4.89
366.765	4.91
366.974	5.17
367.183	5
367.393	4.41
367.602	4.6
367.811	4.22
368.021	4.15
368.23	4.12
368.439	2.98
368.648	2.34
368.857	2.6
369.067	2
369.276	2.38
369.485	2.99
369.694	2.72
369.903	3.04
370.112	3.92
370.321	3.99
370.531	4.01
370.74	4.46
370.949	5.16
371.158	5.14
371.367	6
371.576	5.42
371.785	4.84
371.994	4.92
372.203	5.28
372.412	4.61
372.621	4.32
372.83	4.14
373.039	4.49
373.248	3.6
373.457	4.02
373.666	3.55
373.874	3.11
374.083	2.7
374.292	2.65
374.501	1.85
374.71	1.57
374.919	1.81
375.128	1.68
375.336	1.38
375.545	2.31
375.754	2.46
375.963	2.68
376.171	3.13
376.38	3.99
376.589	4.53
376.798	4.8
377.006	4.83
377.215	5.16
377.424	5.43
377.632	5.62
377.841	5.75
378.05	4.77
378.258	4.73
378.467	5.24
378.675	4.39
378.884	3.68
379.093	3.48
379.301	3.55
379.51	3.16
379.718	3.06
379.927	2.63
380.135	2
380.344	2.78
380.552	2.82
380.761	1.88
380.969	2.05
381.177	2.47
381.386	2.33
381.594	2.27
381.803	2.22
382.011	2.14
382.219	2.14
382.428	2.39
382.636	2
382.845	2.02
383.053	2.31
383.261	2.64
383.469	2.38
383.678	1.99
383.886	1.82
384.094	2.12
384.302	1.45
384.511	1.83
384.719	1.57
384.927	1.72
385.135	1.84
385.343	1.44
385.552	1.56
385.76	1.61
385.968	2.22
386.176	2.4
386.384	2.07
386.592	2.83
386.8	2.57
387.008	2.67
387.216	2.73
387.424	2.52
387.633	3.19
387.841	3.03
388.049	3.32
388.257	3.25
388.465	3.42
388.672	3.74
388.88	3.36
389.088	3.29
389.296	3.07
389.504	3.23
389.712	3.69
389.92	3.56
390.128	3.47
390.336	3.2
390.544	3.05
390.751	3.12
390.959	2.76
391.167	3.03
391.375	3.14
391.583	3.35
391.79	3.15
391.998	3.08
392.206	2.88
392.414	2.99
392.621	3.2
392.829	3.1
393.037	2.97
393.244	3.29
393.452	3.15
393.66	2.99
393.867	3.09
394.075	3.14
394.283	2.77
394.49	2.92
394.698	2.59
394.905	2.29
395.113	2.45
395.32	2.41
395.528	2.13
395.735	2.48
395.943	2.56
396.15	2.4
396.358	2.21
396.565	2.2
396.773	2.23
396.98	2.29
397.188	1.99
397.395	2.1
397.602	1.86
397.81	2.33
398.017	1.8
398.225	2.14
398.432	2.35
398.639	2.22
398.847	2.51
399.054	2.76
399.261	2.99
399.468	3.47
399.676	3.03
399.883	2.95
400.09	2.31
400.297	2.41
400.505	2.5
400.712	2.22
400.919	2.24
401.126	2.23
401.333	2.16
401.54	2.09
401.748	1.74
401.955	1.92
402.162	2.08
402.369	2.6
402.576	2.7
402.783	2.18
402.99	1.92
403.197	2.38
403.404	2.04
403.611	1.87
403.818	1.98
404.025	2.18
404.232	2.25
404.439	2.28
404.646	1.95
404.853	1.74
405.06	1.97
405.267	2.13
405.474	2.1
405.681	2.31
405.887	2.25
406.094	2.37
406.301	2.23
406.508	2.19
406.715	2.21
406.922	2.37
407.128	2.71
407.335	2.65
407.542	2.95
407.749	2.45
407.955	2.57
408.162	2.67
408.369	2.68
408.575	2.91
408.782	2.82
408.989	3.09
409.195	2.95
409.402	2.79
409.609	2.94
409.815	2.93
410.022	3.19
410.228	3.18
410.435	2.79
410.642	2.75
410.848	3.09
411.055	3.09
411.261	2.53
411.468	2.99
411.674	2.95
411.881	2.44
412.087	1.96
412.294	1.8
412.5	1.55
412.706	1.8
412.913	1.61
413.119	1.21
413.326	1.35
413.532	1.38
413.738	1.21
413.945	0.95
414.151	1.34
414.357	1.28
414.564	1.36
414.77	1.47
414.976	1.28
415.182	1.73
415.389	1.53
415.595	1.52
415.801	1.87
416.007	1.98
416.214	2.24
416.42	2.08
416.626	2.13
416.832	2.35
417.038	2.45
417.244	2.69
417.45	2.48
417.657	2.62
417.863	2.63
418.069	2.61
418.275	2.32
418.481	2.27
418.687	2.25
418.893	2.49
419.099	2.38
419.305	2.48
419.511	2.5
419.717	2.38
419.923	2.45
420.129	2.46
420.335	2.41
420.541	2.39
420.746	2.45
420.952	2.54
421.158	2.65
421.364	2.6
421.57	2.41
421.776	2.41
421.982	2.44
422.187	2.43
422.393	2.37
422.599	2.4
422.805	2.39
423.01	2.43
423.216	2.42
423.422	2.31
423.628	2.4
423.833	2.42
424.039	2.32
424.245	2.25
424.45	2.21
424.656	2.23
424.862	2.18
425.067	2.23
425.273	2.12
425.478	2.02
425.684	1.91
425.889	1.77
426.095	1.82
426.301	1.9
426.506	1.86
426.712	1.86
426.917	1.79
427.123	1.56
427.328	1.58
427.533	1.55
427.739	1.77
427.944	1.75
428.15	1.84
428.355	1.51
428.561	1.26
428.766	1.29
428.971	1.39
429.177	1.51
429.382	1.63
429.587	1.65
429.793	1.51
429.998	1.43
430.203	1.54
430.408	1.41
430.614	1.7
430.819	1.93
431.024	2.04
431.229	1.65
431.434	1.66
431.64	1.66
431.845	1.8
432.05	2.01
432.255	2.07
432.46	1.98
432.665	2
432.87	2.13
433.076	2.22
433.281	2.16
433.486	2.4
433.691	2.15
433.896	2.29
434.101	2.1
434.306	2.17
434.511	1.93
434.716	2
434.921	2.08
435.126	1.87
435.331	1.65
435.535	1.68
435.74	1.58
435.945	1.83
436.15	1.74
436.355	1.75
436.56	1.59
436.765	1.64
436.97	1.59
437.174	1.42
437.379	1.63
437.584	1.61
437.789	1.63
437.993	1.7
438.198	1.55
438.403	1.66
438.608	1.77
438.812	1.87
439.017	1.83
439.222	1.74
439.426	1.92
439.631	1.82
439.836	1.86
440.04	1.92
440.245	1.84
440.45	1.75
440.654	1.72
440.859	1.64
441.063	1.66
441.268	1.8
441.472	1.89
441.677	1.82
441.881	1.77
442.086	1.79
442.29	1.62
442.495	1.56
442.699	1.75
442.904	1.67
443.108	1.67
443.312	1.67
443.517	1.46
443.721	1.35
443.925	1.27
444.13	1.27
444.334	1.31
444.538	1.33
444.743	1.47
444.947	1.5
445.151	1.55
445.356	1.67
445.56	1.58
445.764	1.69
445.968	1.74
446.173	1.78
446.377	1.98
446.581	1.93
446.785	1.88
446.989	1.76
447.193	1.78
447.398	1.74
447.602	1.55
447.806	1.6
448.01	1.55
448.214	1.64
448.418	1.61
448.622	1.51
448.826	1.52
449.03	1.69
449.234	1.78
449.438	1.79
449.642	2
449.846	2.01
450.05	1.88
450.254	1.93
450.458	1.81
450.662	1.82
450.866	1.71
451.069	1.88
451.273	1.88
451.477	1.93
451.681	2.1
451.885	1.93
452.089	2.04
452.292	2.21
452.496	2.17
452.7	2.18
452.904	2.24
453.107	2.29
453.311	2.28
453.515	2.27
453.719	2.28
453.922	2.33
454.126	2.36
454.33	2.38
454.533	2.28
454.737	2.34
454.94	2.54
455.144	2.38
455.348	2.19
455.551	2.26
455.755	2.34
455.958	2.27
456.162	2.11
456.365	1.84
456.569	1.86
456.772	1.91
456.976	1.85
457.179	1.6
457.383	1.9
457.586	2.07
457.79	1.93
457.993	1.88
458.196	2
458.4	1.86
458.603	2.07
458.807	2
459.01	1.94
459.213	1.9
459.417	2.04
459.62	2
459.823	2
460.026	1.94
460.23	1.87
460.433	1.78
460.636	1.89
460.839	1.86
461.042	1.9
461.246	1.97
461.449	2
461.652	1.84
461.855	1.77
462.058	1.78
462.261	1.72
462.464	1.79
462.668	1.72
462.871	1.47
463.074	1.41
463.277	1.55
463.48	1.55
463.683	1.9
463.886	2.03
464.089	1.98
464.292	2
464.495	2.14
464.698	2.25
464.901	2.31
465.104	2.5
465.306	2.63
465.509	2.41
465.712	2.19
465.915	1.85
466.118	1.76
466.321	1.65
466.524	1.69
466.726	1.7
466.929	1.68
467.132	1.69
467.335	1.72
467.538	1.65
467.74	1.75
467.943	1.82
468.146	1.94
468.348	2.11
468.551	2.3
468.754	2.08
468.956	2.13
469.159	2.05
469.362	2.32
469.564	2.2
469.767	2.33
469.969	2.26
470.172	2.36
470.375	2.44
470.577	2.4
470.78	2.24
470.982	2.49
471.185	2.42
471.387	2.47
471.59	2.4
471.792	2.35
471.995	2.17
472.197	2.1
472.399	2.19
472.602	2.06
472.804	2.19
473.007	2.27
473.209	2.12
473.411	1.99
473.614	2.09
473.816	1.95
474.018	2.02
474.22	2.11
474.423	2.15
474.625	1.93
474.827	1.95
475.03	1.69
475.232	1.87
475.434	1.91
475.636	2.04
475.838	1.75
476.04	1.85
476.243	1.72
476.445	1.74
476.647	1.75
476.849	1.86
477.051	1.93
477.253	2.08
477.455	2.02
477.657	1.96
477.859	1.85
478.061	1.93
478.263	1.97
478.465	1.95
478.667	1.99
478.869	2.1
479.071	1.95
479.273	1.92
479.475	1.9
479.677	1.83
479.879	1.92
480.081	2.1
480.283	2.15
480.485	1.87
480.686	1.97
480.888	2.03
481.09	2.06
481.292	2.12
481.494	2.04
481.695	1.87
481.897	1.92
482.099	1.93
482.301	1.88
482.502	1.68
482.704	1.76
482.906	1.74
483.107	1.63
483.309	1.6
483.511	1.67
483.712	1.68
483.914	1.73
484.115	1.74
484.317	1.71
484.519	1.66
484.72	1.76
484.922	1.77
485.123	1.79
485.325	1.84
485.526	1.85
485.728	1.82
485.929	1.77
486.131	1.76
486.332	1.76
486.534	1.81
486.735	1.88
486.936	1.89
487.138	1.93
487.339	1.92
487.541	1.98
487.742	1.99
487.943	2.01
488.144	2.05
488.346	2.05
488.547	2.01
488.748	1.98
488.95	1.9
489.151	1.8
489.352	1.71
489.553	1.73
489.755	1.67
489.956	1.6
490.157	1.5
490.358	1.59
490.559	1.56
490.76	1.59
490.961	1.55
491.163	1.63
491.364	1.7
491.565	1.7
491.766	1.7
491.967	1.67
492.168	1.76
492.369	1.84
492.57	1.76
492.771	1.73
492.972	1.71
493.173	1.64
493.374	1.69
493.575	1.69
493.776	1.79
493.976	1.85
494.177	1.85
494.378	1.79
494.579	1.66
494.78	1.66
494.981	1.72
495.182	1.76
495.382	1.93
495.583	1.74
495.784	1.73
495.985	1.59
496.185	1.41
496.386	1.54
496.587	1.44
496.788	1.53
496.988	1.58
497.189	1.57
497.39	1.56
497.59	1.66
497.791	1.77
497.992	1.87
498.192	1.88
498.393	2.02
498.593	1.81
498.794	1.95
498.994	2.03
499.195	2.02
499.395	2.02
499.596	1.92
499.796	1.77
499.997	1.85
500.197	1.91
500.398	2
500.598	1.93
500.799	2.09
500.999	2.08
501.199	2.03
501.4	2.22
501.6	2.32
501.801	2.53
502.001	2.57
502.201	2.54
502.402	2.36
502.602	2.34
502.802	2.34
503.002	2.31
503.203	2.19
503.403	2.22
503.603	1.97
503.803	1.83
504.003	1.66
504.204	1.67
504.404	1.65
504.604	1.81
504.804	1.7
505.004	1.7
505.204	1.6
505.404	1.8
505.604	1.67
505.804	1.89
506.005	1.96
506.205	1.96
506.405	1.98
506.605	2
506.805	1.8
507.005	1.69
507.204	1.81
507.404	1.79
507.604	1.82
507.804	1.89
508.004	1.84
508.204	1.81
508.404	1.88
508.604	1.81
508.804	1.61
509.003	1.51
509.203	1.62
509.403	1.65
509.603	1.66
509.803	1.46
510.002	1.49
510.202	1.38
510.402	1.48
510.602	1.57
510.801	1.54
511.001	1.67
511.201	1.76
511.4	1.84
511.6	1.79
511.8	1.92
511.999	2.04
512.199	1.92
512.398	1.96
512.598	1.94
512.797	1.9
512.997	1.94
513.197	1.85
513.396	1.89
513.596	1.89
513.795	1.95
513.994	1.89
514.194	1.96
514.393	2.18
514.593	2.09
514.792	2.08
514.992	2.04
515.191	1.86
515.39	1.85
515.59	1.92
515.789	1.9
515.988	1.7
516.188	1.78
516.387	1.63
516.586	1.46
516.786	1.63
516.985	1.68
517.184	1.63
517.383	1.89
517.582	2.01
517.782	2
517.981	2.01
518.18	2.02
518.379	2.04
518.578	2.19
518.777	2.22
518.976	2.21
519.176	2.18
519.375	2.21
519.574	2.18
519.773	2.16
519.972	2.13
520.171	2.08
520.37	2.09
520.569	1.95
520.768	1.94
520.967	1.89
521.166	1.89
521.365	1.76
521.564	1.74
521.762	1.78
521.961	1.83
522.16	1.88
522.359	1.97
522.558	2.15
522.757	2.17
522.956	1.89
523.154	2.06
523.353	2.1
523.552	2.24
523.751	2.2
523.949	2.23
524.148	2.16
524.347	2.16
524.546	2.15
524.744	2.04
524.943	2.07
525.142	2.13
525.34	2.06
525.539	2.12
525.737	2.15
525.936	2.25
526.135	2.23
526.333	2.29
526.532	2.31
526.73	2.38
526.929	2.43
527.127	2.35
527.326	2.44
527.524	2.49
527.723	2.46
527.921	2.44
528.12	2.42
528.318	2.37
528.516	2.33
528.715	2.3
528.913	2.28
529.112	2.32
529.31	2.42
529.508	2.35
529.707	2.29
529.905	2.29
530.103	2.26
530.301	2.3
530.5	2.32
530.698	2.28
530.896	2.36
531.094	2.38
531.293	2.25
531.491	2.26
531.689	2.34
531.887	2.38
532.085	2.37
532.283	2.42
532.481	2.35
532.68	2.44
532.878	2.54
533.076	2.47
533.274	2.5
533.472	2.59
533.67	2.64
533.868	2.68
534.066	2.65
534.264	2.65
534.462	2.71
534.66	2.73
534.858	2.74
535.056	2.82
535.253	2.91
535.451	2.94
535.649	2.96
535.847	2.87
536.045	2.85
536.243	2.89
536.441	2.94
536.638	2.97
536.836	3.06
537.034	3.08
537.232	3.06
537.43	3.01
537.627	2.99
537.825	3.11
538.023	3.14
538.22	3.1
538.418	3.08
538.616	3.14
538.813	3.16
539.011	3.21
539.209	3.09
539.406	3.16
539.604	3.35
539.801	3.33
539.999	3.25
540.196	3.27
540.394	3.46
540.591	3.61
540.789	3.54
540.986	3.51
541.184	3.42
541.381	3.52
541.579	3.5
541.776	3.41
541.974	3.4
542.171	3.41
542.368	3.44
542.566	3.38
542.763	3.28
542.96	3.29
543.158	3.32
543.355	3.31
543.552	3.23
543.75	3.23
543.947	3.28
544.144	3.33
544.341	3.27
544.539	3.29
544.736	3.22
544.933	3.31
545.13	3.32
545.327	3.35
545.524	3.39
545.722	3.47
545.919	3.51
546.116	3.47
546.313	3.56
546.51	3.61
546.707	3.73
546.904	3.87
547.101	3.86
547.298	3.87
547.495	3.77
547.692	3.78
547.889	3.94
548.086	3.95
548.283	4.1
548.48	3.95
548.677	3.99
548.874	3.62
549.07	3.82
549.267	3.94
549.464	3.98
549.661	4.1
549.858	4.25
550.055	4.16
550.251	4.08
550.448	3.95
550.645	4.21
550.842	4.36
551.038	4.57
551.235	4.43
551.432	4.45
551.628	4.56
551.825	4.63
552.022	4.89
552.218	4.84
552.415	5.07
552.612	5.15
552.808	5.06
553.005	5.19
553.201	5.34
553.398	5.26
553.594	5.32
553.791	5.36
553.987	5.39
554.184	5.16
554.38	5.23
554.577	5.04
554.773	5.29
554.97	5.3
555.166	5.12
555.362	5.03
555.559	5.24
555.755	5.19
555.952	5.12
556.148	5
556.344	5.22
556.541	5.18
556.737	5.37
556.933	5.23
557.129	5.48
557.326	5.45
557.522	5.67
557.718	5.72
557.914	5.77
558.11	5.78
558.307	5.93
558.503	5.78
558.699	5.87
558.895	5.78
559.091	5.92
559.287	5.84
559.483	6.04
559.679	6.15
559.876	6.16
560.072	6.31
560.268	6.33
560.464	6.59
560.66	6.93
560.856	6.85
561.052	6.97
561.247	7.05
561.443	7.1
561.639	7.21
561.835	6.88
562.031	6.79
562.227	6.72
562.423	6.79
562.619	6.57
562.815	6.28
563.01	6.29
563.206	6.38
563.402	6.26
563.598	6.28
563.793	6.07
563.989	6.33
564.185	6.52
564.381	6.66
564.576	6.9
564.772	7.18
564.968	7.32
565.163	7.43
565.359	7.44
565.555	7.49
565.75	7.58
565.946	7.66
566.141	7.62
566.337	7.64
566.532	7.7
566.728	7.63
566.923	7.45
567.119	7.52
567.314	7.76
567.51	7.75
567.705	7.78
567.901	7.84
568.096	7.95
568.292	8.09
568.487	8.09
568.682	8.1
568.878	8.41
569.073	8.48
569.268	8.63
569.464	8.45
569.659	8.54
569.854	8.4
570.05	8.53
570.245	8.72
570.44	8.77
570.635	8.6
570.831	8.52
571.026	8.26
571.221	8.36
571.416	8.16
571.611	8.22
571.806	8.13
572.002	8.18
572.197	8.1
572.392	8.07
572.587	8.05
572.782	8.34
572.977	8.41
573.172	8.62
573.367	8.72
573.562	8.9
573.757	9.03
573.952	9.06
574.147	9.25
574.342	9.26
574.537	9.12
574.732	9.25
574.927	9.21
575.121	9.03
575.316	8.92
575.511	8.93
575.706	8.91
575.901	8.66
576.096	8.68
576.29	8.79
576.485	8.85
576.68	9.08
576.875	9.04
577.069	9.18
577.264	9.37
577.459	9.35
577.654	9
577.848	9.08
578.043	9.27
578.238	9.31
578.432	9.34
578.627	9.28
578.821	9.22
579.016	9.17
579.21	8.78
579.405	8.83
579.6	8.86
579.794	9.36
579.989	9.34
580.183	8.87
580.378	9.01
580.572	8.83
580.766	8.98
580.961	9.18
581.155	9.3
581.35	9.29
581.544	9.54
581.738	9.66
581.933	9.42
582.127	9.47
582.321	10.21
582.516	10.14
582.71	10.22
582.904	10.17
583.099	9.83
583.293	9.75
583.487	10.2
583.681	9.99
583.875	9.88
584.07	10.01
584.264	10.01
584.458	9.82
584.652	9.79
584.846	9.86
585.04	9.75
585.234	9.73
585.428	9.84
585.623	9.7
585.817	9.8
586.011	9.59
586.205	9.35
586.399	9.14
586.593	9.11
586.787	9.3
586.981	9.23
587.174	9.14
587.368	9.21
587.562	9.14
587.756	9.09
587.95	8.85
588.144	9.16
588.338	9.44
588.532	9.49
588.725	9.75
588.919	9.52
589.113	9.38
589.307	9.54
589.501	9.64
589.694	9.58
589.888	9.71
590.082	10.02
590.275	9.94
590.469	9.83
590.663	9.83
590.856	9.69
591.05	9.9
591.244	10.01
591.437	9.92
591.631	9.74
591.824	10.05
592.018	9.87
592.212	9.47
592.405	9.42
592.599	9.24
592.792	9.27
592.986	9.31
593.179	9.15
593.372	9.04
593.566	9.15
593.759	8.91
593.953	8.7
594.146	8.78
594.339	8.76
594.533	8.79
594.726	8.92
594.92	9.18
595.113	9.12
595.306	9.2
595.499	9.21
595.693	9.39
595.886	9.6
596.079	9.61
596.272	9.61
596.466	9.64
596.659	9.67
596.852	9.85
597.045	9.53
597.238	9.49
597.431	9.38
597.624	9.46
597.818	9.32
598.011	9.47
598.204	9.28
598.397	9.27
598.59	9.4
598.783	9.39
598.976	9.54
599.169	9.76
599.362	9.75
599.555	10
599.748	9.94
599.941	9.81
600.134	9.69
600.326	9.94
600.519	9.88
600.712	9.97
600.905	9.99
601.098	9.66
601.291	9.62
601.483	9.72
601.676	9.77
601.869	9.94
602.062	10
602.255	10.01
602.447	9.76
602.64	9.8
602.833	9.82
603.025	9.74
603.218	9.75
603.411	9.86
603.603	9.92
603.796	9.87
603.989	9.69
604.181	9.75
604.374	9.71
604.566	9.79
604.759	9.57
604.951	9.57
605.144	9.64
605.336	9.68
605.529	9.56
605.721	9.64
605.914	9.64
606.106	9.81
606.299	9.88
606.491	10.1
606.683	10.25
606.876	10.64
607.068	10.68
607.26	10.96
607.453	10.83
607.645	10.95
607.837	10.83
608.03	10.87
608.222	10.8
608.414	10.47
608.606	10.48
608.799	10.39
608.991	10.53
609.183	10.28
609.375	10.02
609.567	10.08
609.759	10.25
609.952	10.42
610.144	10.66
610.336	10.56
610.528	10.75
610.72	10.37
610.912	10.38
611.104	10.13
611.296	10.32
611.488	10.09
611.68	10.2
611.872	9.94
612.064	9.84
612.256	9.75
612.448	9.87
612.64	9.84
612.832	10.18
613.023	10.15
613.215	10.09
613.407	10.15
613.599	10.42
613.791	10.42
613.983	10.1
614.174	9.9
614.366	9.64
614.558	9.71
614.75	9.73
614.941	9.66
615.133	9.65
615.325	9.89
615.516	9.93
615.708	9.96
615.9	9.72
616.091	9.99
616.283	9.96
616.475	9.91
616.666	9.94
616.858	10.05
617.049	9.88
617.241	10.31
617.432	10.21
617.624	10.05
617.815	10.21
618.007	10.28
618.198	10.38
618.39	10.56
618.581	10.5
618.773	10.43
618.964	10.48
619.155	10.63
619.347	10.37
619.538	10.58
619.729	10.59
619.921	10.49
620.112	10.61
620.303	10.45
620.494	10.3
620.686	10.42
620.877	10.47
621.068	10.38
621.259	10.26
621.451	10.39
621.642	9.93
621.833	10.22
622.024	10.22
622.215	10.43
622.406	10.44
622.597	10.39
622.788	10.35
622.98	10.52
623.171	10.56
623.362	10.62
623.553	10.46
623.744	10.82
623.935	10.58
624.126	10.71
624.317	10.42
624.508	10.48
624.698	10.64
624.889	10.53
625.08	10.27
625.271	10.25
625.462	10.19
625.653	10.11
625.844	9.82
626.034	9.78
626.225	9.7
626.416	9.72
626.607	9.76
626.798	9.68
626.988	9.81
627.179	10.01
627.37	9.86
627.56	9.85
627.751	9.94
627.942	10.1
628.132	10.23
628.323	10.14
628.514	10.29
628.704	10.3
628.895	10.39
629.085	10.13
629.276	10.1
629.466	10.35
629.657	10.51
629.847	10.67
630.038	10.6
630.228	10.52
630.419	10.51
630.609	10.34
630.8	10.53
630.99	10.31
631.181	10.47
631.371	10.21
631.561	10.21
631.752	10.26
631.942	10.12
632.132	10.2
632.323	10.32
632.513	10.66
632.703	10.73
632.893	10.73
633.084	10.96
633.274	10.63
633.464	10.59
633.654	10.58
633.844	10.61
634.034	10.38
634.225	10.34
634.415	10.24
634.605	10
634.795	10.07
634.985	9.74
635.175	9.73
635.365	10.02
635.555	10.11
635.745	9.92
635.935	9.53
636.125	9.81
636.315	9.85
636.505	9.82
636.695	10.05
636.885	9.79
637.075	10.14
637.265	10.1
637.455	10.28
637.644	10.2
637.834	10.09
638.024	10.63
638.214	10.58
638.404	10.28
638.593	9.95
638.783	9.61
638.973	9.89
639.163	9.76
639.352	9.49
639.542	9.06
639.732	9.32
639.921	9.37
640.111	8.95
640.301	9.08
640.49	9.78
640.68	10.14
640.87	10.19
641.059	10.46
641.249	10.26
641.438	10.34
641.628	10.45
641.817	10.56
642.007	10.65
642.196	10.8
642.386	11.01
642.575	10.23
642.764	10.11
642.954	10.21
643.143	9.96
643.333	9.69
643.522	9.89
643.711	10.1
643.901	9.65
644.09	9.51
644.279	9.62
644.469	9.08
644.658	9.49
644.847	9.5
645.036	9.41
645.226	9.23
645.415	9.55
645.604	9.31
645.793	9.53
645.982	9.48
646.171	9.48
646.361	9.65
646.55	9.61
646.739	9.42
646.928	9.46
647.117	9.08
647.306	9.29
647.495	9.39
647.684	9.36
647.873	8.89
648.062	9.18
648.251	9.07
648.44	8.94
648.629	9.07
648.818	9.24
649.007	9.21
649.196	8.87
649.384	8.38
649.573	8.21
649.762	8.23
649.951	8.54
650.14	8.59
650.328	8.86
650.517	8.42
650.706	8.39
650.895	8.8
651.083	9.44
651.272	10.25
651.461	10.73
651.65	11.09
651.838	11.63
652.027	11.18
652.216	10.99
652.404	11.13
652.593	11.49
652.781	11.46
652.97	11.24
653.158	10.77
653.347	10.45
653.535	10
653.724	9.61
653.912	9.12
654.101	9.48
654.289	9.3
654.478	8.93
654.666	8.78
654.855	8.61
655.043	8.37
655.231	8.29
655.42	8.08
655.608	8.24
655.796	8.69
655.985	8.4
656.173	8.83
656.361	8.98
656.55	9.53
656.738	9.61
656.926	9.66
657.114	9.82
657.302	9.83
657.491	10.11
657.679	10.17
657.867	9.77
658.055	9.64
658.243	9.45
658.431	9.45
658.619	9.45
658.807	9.62
658.996	9.86
659.184	9.75
659.372	9.4
659.56	8.99
659.748	8.85
659.936	8.93
660.124	9.56
660.311	9.86
660.499	10.03
660.687	9.57
660.875	9.8
661.063	9.82
661.251	10.09
661.439	10.79
661.627	11.03
661.814	11.28
662.002	11.54
662.19	10.81
662.378	10.29
662.565	10.1
662.753	10.86
662.941	10.41
663.129	10.39
663.316	9.89
663.504	9.38
663.692	9.54
663.879	9.59
664.067	8.9
664.254	9.57
664.442	9.35
664.63	9.67
664.817	9.25
665.005	9.58
665.192	9.51
665.38	10.06
665.567	10.35
665.755	10.33
665.942	10.64
666.13	11.11
666.317	10.89
666.504	11.46
666.692	11.23
666.879	11.51
667.067	11.73
667.254	11.58
667.441	11.41
667.629	11.27
667.816	11.36
668.003	11.18
668.19	11.3
668.378	11.48
668.565	11.19
668.752	11.59
668.939	11.36
669.127	10.67
669.314	10.88
669.501	10.73
669.688	10.68
669.875	10.75
670.062	10.43
670.249	10.02
670.436	9.72
670.623	9.85
670.81	9.79
670.997	9.17
671.184	9.24
671.371	9.09
671.558	8.67
671.745	9.37
671.932	9.56
672.119	10.13
672.306	10.72
672.493	10.68
672.68	10.75
672.867	10.29
673.054	10.71
673.24	10.77
673.427	10.69
673.614	10.9
673.801	10.43
673.988	10.65
674.174	9.97
674.361	9.85
674.548	9.88
674.734	9.64
674.921	9.71
675.108	9.61
675.294	9.79
675.481	10.29
675.668	10.72
675.854	10.73
676.041	10.3
676.227	10.23
676.414	10.2
676.601	10.63
676.787	11.09
676.974	11.53
677.16	11.6
677.347	11.8
677.533	11.33
677.719	10.59
677.906	10.24
678.092	10.17
678.279	10.16
678.465	10.27
678.651	10.02
678.838	9.97
679.024	10.11
679.21	10.18
679.397	10.02
679.583	10
679.769	10.51
679.955	10.68
680.142	10.93
680.328	10.88
680.514	10.21
680.7	10.22
680.886	9.83
681.073	9.41
681.259	9.35
681.445	9.21
681.631	9.25
681.817	9.1
682.003	9.1
682.189	8.79
682.375	9.14
682.561	9.8
682.747	9.88
682.933	10.2
683.119	10.24
683.305	10.07
683.491	9.92
683.677	9.7
683.863	9.93
684.049	9.52
684.235	9.74
684.42	9.75
684.606	9.34
684.792	9.09
684.978	8.86
685.164	8.99
685.349	9.09
685.535	9.66
685.721	9.42
685.907	9.23
686.092	9.4
686.278	8.98
686.464	8.86
686.649	8.75
686.835	8.93
687.021	8.92
687.206	8.88
687.392	9.22
687.577	8.74
687.763	9.47
687.948	9.37
688.134	9.66
688.319	10.02
688.505	10.02
688.69	9.99
688.876	10.21
689.061	10.35
689.247	10.12
689.432	9.81
689.618	9.66
689.803	9.77
689.988	10.08
690.174	9.93
690.359	9.91
690.544	9.54
690.73	9.35
690.915	9.09
691.1	8.82
691.285	9.34
691.471	9.01
691.656	9.33
691.841	9.47
692.026	9.86
692.211	10.25
692.396	10.48
692.582	11.37
692.767	12.01
692.952	11.65
693.137	11.22
693.322	10.67
693.507	11.19
693.692	10.39
693.877	10.27
694.062	9.53
694.247	9.32
694.432	9.18
694.617	8.94
694.802	9.28
694.987	9.07
695.172	9.66
695.357	9.53
695.541	9.4
695.726	10.01
695.911	9.01
696.096	8.94
696.281	8.84
696.466	8.33
696.65	8.52
696.835	7.47
697.02	8.16
697.204	8.51
697.389	9.28
697.574	8.81
697.759	9.26
697.943	9.59
698.128	9.68
698.312	10.03
698.497	10.38
698.682	10.34
698.866	10.78
699.051	10.72
699.235	10.52
699.42	9.58
699.604	10.04
699.789	9.62
699.973	9.65
700.158	9.86
700.342	9.29
700.527	9.27
700.711	9.38
700.895	9.31
701.08	9.27
701.264	9.16
701.448	9.51
701.633	9.37
701.817	9.82
702.001	10.42
702.186	10.2
702.37	10.09
702.554	9.9
702.738	8.91
702.923	8.58
703.107	8.7
703.291	9.23
703.475	9.94
703.659	10.2
703.843	10.26
704.027	9.98
704.212	10.14
704.396	10.48
704.58	10.64
704.764	11.14
704.948	12.42
705.132	12.5
705.316	11.94
705.5	11.96
705.684	11.97
705.868	11.84
706.052	11.73
706.235	11.61
706.419	11.76
706.603	12.06
706.787	11.83
706.971	10.93
707.155	10.25
707.339	10.21
707.522	10.41
707.706	9.98
707.89	9.95
708.074	9.95
708.257	9.73
708.441	9.49
708.625	8.68
708.808	8.79
708.992	9.24
709.176	9.53
709.359	9.53
709.543	9.04
709.727	9.95
709.91	9.71
710.094	9.88
710.277	10.43
710.461	11.52
710.644	11.6
710.828	10.97
711.011	10.28
711.195	10.11
711.378	9.89
711.562	9.97
711.745	9.22
711.928	9.11
712.112	8.82
712.295	8.16
712.478	7.29
712.662	8.21
712.845	9.02
713.028	9.32
713.212	9.51
713.395	9.32
713.578	9.71
713.761	9.94
713.945	10.87
714.128	10.58
714.311	10.45
714.494	10.57
714.677	10.9
714.86	11.37
715.043	11.49
715.227	11.59
715.41	12.09
715.593	12.63
715.776	12.69
715.959	11.34
716.142	11.54
716.325	12.4
716.508	12.12
716.691	11.7
716.874	11.23
717.057	11.44
717.239	12.35
717.422	12.57
717.605	11.83
717.788	11.38
717.971	12.14
718.154	12.41
718.337	11.68
718.519	11.67
718.702	11.38
718.885	11.48
719.068	11.53
719.25	10.42
719.433	11.26
719.616	11.48
719.798	11.69
719.981	12.42
720.164	13.43
720.346	13.92
720.529	14.99
720.712	15.01
720.894	15.15
721.077	14.56
721.259	14.21
721.442	13.64
721.624	13.62
721.807	13.86
721.989	13.49
722.172	12.99
722.354	12.55
722.537	11.44
722.719	11.47
722.901	10.92
723.084	12
723.266	12.45
723.448	11.97
723.631	11.38
723.813	11.51
723.995	11.57
724.178	10.78
724.36	11.65
724.542	12.15
724.724	11.4
724.907	11.66
725.089	11.52
725.271	11.33
725.453	11.41
725.635	12.41
725.817	11.97
725.999	11.87
726.181	12.41
726.364	11.27
726.546	11.23
726.728	11.97
726.91	12.44
727.092	11.68
727.274	12.87
727.456	13.05
727.638	11.98
727.819	11.63
728.001	11.63
728.183	11.8
728.365	12.23
728.547	11.12
728.729	10.14
728.911	8.96
729.093	8.73
729.274	8
729.456	7.79
729.638	8.69
729.82	8.97
730.001	9.44
730.183	9.16
730.365	8.89
730.546	9.35
730.728	9.79
730.91	10.41
731.091	11.24
731.273	11.28
731.455	11.71
731.636	10.98
731.818	11.37
731.999	9.25
732.181	8.63
732.362	8.3
732.544	8.83
732.725	9.56
732.907	10.36
733.088	10.06
733.27	10.47
733.451	9.79
733.633	10.37
733.814	10.72
733.995	12.64
734.177	13.38
734.358	14.15
734.539	13.33
734.721	11.95
734.902	10.86
735.083	10.56
735.264	9.85
735.446	10.65
735.627	10.78
735.808	10.34
735.989	9.03
736.17	9.29
736.351	9.08
736.533	9.78
736.714	10.6
736.895	11.19
737.076	10.97
737.257	10.89
737.438	11.39
737.619	11.16
737.8	11.06
737.981	12.33
738.162	11.52
738.343	12.16
738.524	12.8
738.705	11.16
738.886	10.44
739.067	10.37
739.247	9.49
739.428	8.19
739.609	7.34
739.79	5.97
739.971	6.11
740.151	5.12
740.332	4.25
740.513	3.33
740.694	5.88
740.874	7.61
741.055	8.41
741.236	8.23
741.417	7.12
741.597	7.45
741.778	10.01
741.958	9.04
742.139	9.9
742.32	11.08
742.5	11.36
742.681	11.04
742.861	10.75
743.042	10.03
743.222	12.5
743.403	13.13
743.583	13.67
743.764	13.54
743.944	14.13
744.124	14.4
744.305	12.96
744.485	13.14
744.666	13.36
744.846	13.52
745.026	13.55
745.207	12.46
745.387	12.68
745.567	11.09
745.747	9.06
745.928	8.97
746.108	9.02
746.288	9.46
746.468	8.64
746.648	7.71
746.829	5.34
747.009	5.29
747.189	3.9
747.369	5.19
747.549	5.35
747.729	6.45
747.909	5.62
748.089	5.4
748.269	5.5
748.449	8.1
748.629	9.17
748.809	9.63
748.989	10.57
749.169	11.89
749.349	11.41
749.529	12.98
749.709	12
749.889	12.15
750.068	11.68
750.248	11.27
750.428	8.57
750.608	8.02
750.788	8.43
750.967	8.25
751.147	7.32
751.327	7.56
751.507	7.01
751.686	7.57
751.866	9.22
752.046	9.01
752.225	9.11
752.405	10.87
752.585	10.51
752.764	10.45
752.944	10.41
753.123	11.98
753.303	11.7
753.482	10.75
753.662	11.17
753.841	10.43
754.021	10.33
754.2	10.33
754.38	9.81
754.559	9.58
754.739	9.86
754.918	9.8
755.097	8.16
755.277	8.79
755.456	11.13
755.635	11.56
755.815	10.87
755.994	11.11
756.173	9.68
756.352	9.24
756.532	9.88
756.711	9.53
756.89	9.52
757.069	9.59
757.248	7.42
757.427	5.1
757.607	4.74
757.786	4.64
757.965	5.34
758.144	6.55
758.323	7.13
758.502	7.11
758.681	7.54
758.86	7.56
759.039	8.05
759.218	9.83
759.397	11.83
759.576	12.17
759.755	12.09
759.934	12.05
760.113	11.85
760.291	10.98
760.47	10.86
760.649	11.24
760.828	10.21
761.007	9.95
761.186	9.49
761.364	8.43
761.543	7.14
761.722	8.01
761.901	7.96
762.079	9.16
762.258	10.23
762.437	10.87
762.615	11
762.794	11.51
762.972	11.53
763.151	10.73
763.33	10.04
763.508	10.26
763.687	10.95
763.865	11.04
764.044	10.39
764.222	10.32
764.401	10.1
764.579	8.72
764.758	8.61
764.936	8.78
765.114	10.24
765.293	11.52
765.471	11.78
765.65	10.79
765.828	11.05
766.006	11.44
766.184	10.86
766.363	10.98
766.541	11.44
766.719	11.7
766.898	10.9
767.076	9.74
767.254	9.23
767.432	9.01
767.61	9.79
767.788	8.68
767.967	8.23
768.145	6.94
768.323	5.43
768.501	4.58
768.679	5.95
768.857	6.41
769.035	5.3
769.213	4.6
769.391	5.99
769.569	3.3
769.747	5.05
769.925	5.53
770.103	6.98
770.281	8.94
770.459	11.86
770.636	12.03
770.814	13
770.992	15.56
771.17	16.01
771.348	16.19
771.525	16.82
771.703	16.18
771.881	16.81
772.059	16.92
772.236	16.17
772.414	15.68
772.592	14.35
772.769	13.92
772.947	12.4
773.125	10.31
773.302	10.61
773.48	10.87
773.657	9.06
773.835	9.42
774.013	10.63
774.19	11.2
774.368	6.85
774.545	6.54
774.723	6.84
774.9	6.8
775.077	8.19
775.255	7.15
775.432	9.09
775.61	10.67
775.787	9.99
775.964	9.61
776.142	10.21
776.319	12.31
776.496	12.3
776.674	11.62
776.851	10.84
777.028	10.19
777.205	8.71
777.382	8.49
777.56	8.59
777.737	7.57
777.914	5.64
778.091	3
778.268	4.75
778.445	6.49
778.622	7.07
778.8	8.45
778.977	9.67
779.154	12.96
779.331	12.99
779.508	14.56
779.685	15.56
779.862	16.59
780.038	17.35
780.215	18.09
780.392	15.85
780.569	13.95
780.746	14.89
780.923	14.46
781.1	10.83
781.277	9.21
781.453	5.11
781.63	4.46
781.807	3.86
781.984	4.41
782.16	3.38
782.337	4.48
782.514	5.45
782.691	2.45
782.867	3.13
783.044	4.64
783.221	3.51
783.397	4.69
783.574	3.03
783.75	4.13
783.927	4.31
784.103	5.42
784.28	7.36
784.456	7.96
784.633	9.49
784.809	8.82
784.986	6.93
785.162	7.05
785.339	8.64
785.515	10.89
785.692	10.67
785.868	10.91
786.044	12.38
786.221	10.92
786.397	12.88
786.573	11.95
786.749	11.11
786.926	13.76
787.102	15.05
787.278	15.58
787.454	16.52
787.631	15.15
787.807	12.64
787.983	10.83
788.159	9.76
788.335	10.87
788.511	12.42
788.687	12.23
788.863	13.23
789.039	11.44
789.216	11.73
789.392	8.3
789.568	10.91
789.744	12.61
789.919	13.62
790.095	13.32
790.271	11.94
790.447	10.71
790.623	11.95
790.799	9.43
790.975	11.85
791.151	10.16
791.327	12.28
791.502	10.75
791.678	11.24
791.854	11.48
792.03	13.31
792.205	12.47
792.381	12.88
792.557	13.56
792.733	13.82
792.908	13.38
793.084	13.9
793.259	15.67
793.435	14.88
793.611	14.24
793.786	14.19
793.962	12.37
794.137	12.62
794.313	13.52
794.488	13.04
794.664	14.08
794.839	11.92
795.015	13.64
795.19	13.35
795.366	12.16
795.541	14.83
795.716	13.85
795.892	13.17
796.067	13.76
796.242	12.11
796.418	8.97
796.593	6.62
796.768	7.97
796.944	6.34
797.119	4.8
797.294	5.68
797.469	1.76
797.644	3.19
797.82	6.33
797.995	5.55
798.17	6.42
798.345	7.97
798.52	9.03
798.695	12.51
798.87	12.27
799.045	9.31
799.22	13
799.395	15.37
799.57	11.2
799.745	9.13
799.92	8.75
800.095	9.05
800.27	9.33
800.445	7.07
800.62	5.65
800.795	4.39
800.97	8.1
801.145	4.26
801.319	3.3
801.494	4.21
801.669	4.58
801.844	2.28
802.018	5.32
802.193	4.95
802.368	9.31
802.543	7.66
802.717	10.75
802.892	11.62
803.067	13.65
803.241	12.88
803.416	14.9
803.59	13.11
803.765	16.67
803.94	14.68
804.114	12.18
804.289	10.83
804.463	9.71
804.638	8.07
804.812	6.76
804.986	4.82
805.161	4.94
805.335	0.89
805.51	4.58
805.684	4.74
805.858	2.67
806.033	6.73
806.207	6.14
806.381	8.02
806.556	8.31
806.73	10.37
806.904	9.22
807.078	7.95
807.253	9.46
807.427	8.09
807.601	9.62
807.775	9.44
807.949	7.39
808.123	4.87
808.298	6.61
808.472	9.63
808.646	6.88
808.82	6.97
808.994	10.15
809.168	8.75
809.342	6.39
809.516	2.83
809.69	5.21
809.864	5.44
810.038	11.13
810.212	10.09
810.385	6.01
810.559	2.43
810.733	0.32
810.907	-1.39
811.081	4.53
811.255	6.82
811.428	6.83
811.602	5.53
811.776	9.78
811.95	9.6
812.123	7.22
812.297	10.09
812.471	10.92
812.644	16.76
812.818	20.56
812.992	18.8
813.165	18.28
813.339	18.26
813.512	17.43
813.686	12.72
813.86	9.52
814.033	9.77
814.207	11.85
814.38	18.38
814.554	13.36
814.727	11.55
814.9	13.63
815.074	10.89
815.247	7.42
815.421	4.48
815.594	5.48
815.767	4.49
815.941	7.5
816.114	2.37
816.287	-2.97
816.46	-0.61
816.634	-5.92
816.807	-11.51
816.98	-9.07
817.153	-5.36
817.327	-2.92
817.5	-4.21
817.673	-3.32
817.846	-4.59
818.019	-0.56
818.192	4.02
818.365	4.51
818.538	5.84
818.711	9.44
818.884	11.17
819.057	12.08
819.23	11.88
819.403	18.56
819.576	18.78
819.749	17.9
819.922	18.16
820.095	14.35
820.268	14.74
820.441	14.44
820.614	12.92
820.786	11.37
820.959	10.68
821.132	12.78
821.305	8.9
821.477	11.6
821.65	11.88
821.823	11.1
821.996	11.37
822.168	11.36
822.341	11.6
822.514	12.45
822.686	12.73
822.859	13.54
823.031	12.5
823.204	12.76
823.376	12.02
823.549	11.56
823.722	11.98
823.894	12.15
824.067	11.71
824.239	11.86
824.411	11.86
824.584	11.97
824.756	10.81
824.929	10.98
825.101	11.2
825.273	9.97
825.446	9.71
825.618	9.08
825.79	8.78
825.963	9.23
826.135	9.06
826.307	8.81
826.479	9.66
826.652	11.21
826.824	12.02
826.996	13.59
827.168	14.03
827.34	15
827.512	14.82
827.684	13.97
827.856	14.22
828.029	15.43
828.201	13.48
828.373	12.03
828.545	10.63
828.717	8.97
828.889	6.2
829.061	5.65
829.232	5.12
829.404	1.8
829.576	3.68
829.748	0.85
829.92	-1.2
830.092	2.39
830.264	0.97
830.436	1.64
830.607	4
830.779	1.56
830.951	0
831.123	-2.04
831.294	1.74
831.466	0.99
831.638	2.35
831.809	2.03
831.981	-1.54
832.153	-1.58
832.324	-0.13
832.496	0.8
832.667	1.35
832.839	3.42
833.011	5.41
833.182	5.73
833.354	6.37
833.525	6.97
833.697	7.04
833.868	5.8
834.039	7.56
834.211	7.44
834.382	6.04
834.554	7.86
834.725	8.24
834.896	9.99
835.068	9.67
835.239	7.32
835.41	9.35
835.581	7.87
835.753	9.74
835.924	8.34
836.095	4.73
836.266	3.59
836.438	3.94
836.609	4.56
836.78	2.07
836.951	1.48
837.122	1.2
837.293	3.2
837.464	7.93
837.635	5.37
837.806	4.15
837.977	5.93
838.148	4.45
838.319	7.93
838.49	9.62
838.661	9.3
838.832	11.49
839.003	15.69
839.174	8.45
839.345	5.34
839.516	7.04
839.687	12.71
839.857	19.71
840.028	21.69
840.199	20.3
840.37	18.99
840.54	20.35
840.711	17.77
840.882	14.56
841.053	16.52
841.223	18.08
841.394	22.27
841.564	14.13
841.735	6.99
841.906	9.63
842.076	8.74
842.247	6.69
842.417	2.09
842.588	4.22
842.758	-0.87
842.929	-6.04
843.099	-12.89
843.27	-15.41
843.44	-0.14
843.611	2.23
843.781	6.7
843.951	2.4
844.122	6.61
844.292	3.63
844.462	2.55
844.633	10.65
844.803	13.54
844.973	11.77
845.144	12.12
845.314	-2.43
845.484	2.9
845.654	-13.75
845.824	-18.39
845.995	-20.11
846.165	-5.42
846.335	-7.92
846.505	12.46
846.675	10.68
846.845	9.27
847.015	18.24
847.185	24.82
847.355	21.71
847.525	39.64
847.695	43.49
847.865	43.48
848.035	49.46
848.205	51.2
848.375	45.64
848.545	52.57
848.715	53.54
848.884	50.88
849.054	55.4
849.224	63.03
849.394	56.87
849.564	63.77
849.733	64.39
849.903	56.57
850.073	56.54
850.243	61.17
850.412	46.45
850.582	48.98
850.752	41.87
850.921	32.24
851.091	12.35
851.26	11.74
851.43	1.24
851.599	-10.12
851.769	-12.03
851.939	-5.01
852.108	-3.64
852.278	-12.61
852.447	-10.89
852.616	-15.41
852.786	-2.87
852.955	8.97
853.125	13
853.294	23.01
853.463	20.09
853.633	24.36
853.802	3.24
853.971	-10.26
854.141	10.23
854.31	1.59
854.479	1.24
854.648	-13.5
854.818	-13.88
854.987	-32.12
855.156	-43.53
855.325	-35.08
855.494	-29.37
855.663	-5.94
855.832	10.26
856.001	-4.18
856.171	-8.49
856.34	14.18
856.509	18.82
856.678	9.39
856.847	13.73
857.016	8.79
857.185	4.14
857.353	-2.21
857.522	-14.35
857.691	-22.8
857.86	-15.34
858.029	-7.42
858.198	-35.25
858.367	-39.91
858.535	-31.78
858.704	-26.04
858.873	-50.25
859.042	-41.97
859.21	-36.15
859.379	-20.87
859.548	-31.57
859.717	-8.79
859.885	-5.28
860.054	10.53
860.222	6.09
860.391	-5.29
860.56	3.88
860.728	16.9
860.897	8.49
861.065	14.71
861.234	14.29
861.402	8.34
861.571	11.15
861.739	4.98
861.908	6.25
862.076	8.73
862.244	17.52
862.413	4.59
862.581	-5.15
862.749	-1.9
862.918	-13.22
863.086	-30.3
863.254	-6.63
863.423	-16.69
863.591	-8.65
863.759	-13.69
863.927	-20.06
864.096	-14.97
864.264	-4.66
864.432	15.5
864.6	14.82
864.768	17.92
864.936	18.72
865.104	9.9
865.272	13.57
865.44	20.49
865.608	16.54
865.776	28.09
865.944	20.34
866.112	14.91
866.28	10.97
866.448	17.33
866.616	7.81
866.784	3.7
866.952	0.68
867.12	0.3
867.288	-17.71
867.455	-2.31
867.623	-22.23
867.791	-22.04
867.959	-31.73
868.127	-52.7
868.294	-66.46
868.462	-82.83
868.63	-75
868.797	-68.98
868.965	-61.75
869.133	-60.38
869.3	-90.06
869.468	-58.56
869.636	-79.62
869.803	-29.08
869.971	-33.16
870.138	-36.82
870.306	-37.79
870.473	-40.2
870.641	-17.91
870.808	-37.54
870.975	-40.57
871.143	-38.38
871.31	-71.45
871.478	-74.47
871.645	-78.16
871.812	-58.7
871.98	-58.88
872.147	-35.03
872.314	-48.1
872.482	-51.62
872.649	-60.73
872.816	-74.23
872.983	-62.36
873.15	-46.63
873.318	-51.24
873.485	-49.8
873.652	-11.95
873.819	-9.61
873.986	-10.52
874.153	-10.93
874.32	-30.54
874.487	-28.18
874.654	-17.2
874.821	-19.98
874.988	-9.19
875.155	3.27
875.322	-19.47
875.489	-69.82
875.656	-87.03
875.823	-94.27
875.99	-64.76
876.157	-58.62
876.324	-45.94
876.49	-45.2
876.657	-26.16
876.824	-52.7
876.991	-68.46
877.157	-48.83
877.324	-35.82
877.491	-26.93
877.658	-36.28
877.824	-27.86
877.991	-23.57
878.157	-31.24
878.324	-26.26
878.491	-38.26
878.657	-16.52
878.824	-7.86
878.99	-6.34
879.157	-0.08
879.323	-3.43
879.49	7.18
879.656	2.34
879.823	6.98
879.989	9.39
880.156	-1.53
880.322	-8.72
880.488	1.13
880.655	-6.77
880.821	1.79
880.987	0.98
881.154	9.95
881.32	11.37
881.486	6.7
881.652	3.33
881.819	8.4
881.985	12.43
882.151	9.92
882.317	8.37
882.483	11.47
882.649	9.48
882.816	9.31
882.982	10.07
883.148	9.15
883.314	11.08
883.48	8.34
883.646	5.89
883.812	4.87
883.978	6.18
884.144	4.84
884.31	3.91
884.476	4.04
884.642	2.02
884.807	-0.4
884.973	-3.74
885.139	-7.54
885.305	-1.5
885.471	-0.96
885.637	2.69
885.802	3.34
885.968	0.97
886.134	-3.55
886.3	-4.99
886.465	-3.56
886.631	-4.49
886.797	-0.36
886.962	-3.81
887.128	-13.4
887.293	-16.23
887.459	-20.56
887.625	-21.59
887.79	-22
887.956	-20.68
888.121	-23.67
888.287	-24.81
888.452	-34.58
888.618	-49.6
888.783	-25.79
