Data from 2938033_Reflection_1.txt Node
Date: Sun Jul 12 14:56:18 EDT 2015
User: robert
Spectrometer: USB4E03001
Autoset integration time: false
Trigger mode: 4
Integration Time (sec): 1.000000E-1
Scans to average: 10
Electric dark correction enabled: true
Nonlinearity correction enabled: false
Boxcar width: 5
Stray light correction enabled: false
XAxis mode: Wavelengths
Stop averaging: false
Number of Pixels in Spectrum: 3648
>>>>>Begin Spectral Data<<<<<
177.566	-652.01
177.785	227.7
178.005	1307.86
178.225	-224.88
178.445	19.68
178.665	-12.22
178.885	-37.61
179.105	-97.6
179.324	-140.98
179.544	-2753.27
179.764	458.28
179.984	-736.59
180.204	175.31
180.423	247.83
180.643	396.43
180.863	12200
181.083	365.75
181.302	262.79
181.522	256.56
181.742	290.7
181.961	3114.61
182.181	468.51
182.401	177.41
182.621	176.75
182.84	184.03
183.06	210.24
183.279	182.91
183.499	162.41
183.719	152.74
183.938	173.79
184.158	167.51
184.377	142.58
184.597	107.59
184.816	166.93
185.036	203.33
185.256	99.44
185.475	91.04
185.695	89.39
185.914	109.03
186.134	124.19
186.353	99.08
186.572	90.2
186.792	87.98
187.011	118.67
187.231	87.89
187.45	92.67
187.67	123.08
187.889	133.82
188.108	106.89
188.328	95.61
188.547	122.11
188.766	157.53
188.986	240.49
189.205	215.96
189.424	584.2
189.644	342.95
189.863	1885.05
190.082	689.48
190.302	292.7
190.521	391.89
190.74	1240.15
190.959	754.05
191.178	571.64
191.398	-635.8
191.617	2623.87
191.836	2201.23
192.055	-773.36
192.274	267.66
192.494	177.92
192.713	240.88
192.932	215.9
193.151	147.47
193.37	130.96
193.589	154.38
193.808	98.95
194.027	103.47
194.246	119.14
194.465	76.74
194.685	111.48
194.904	104.67
195.123	69.5
195.342	80.34
195.561	84.29
195.78	79.17
195.999	77.69
196.218	45.71
196.436	51
196.655	60.28
196.874	109.7
197.093	44.15
197.312	27.41
197.531	111.93
197.75	37.53
197.969	73.32
198.188	91.81
198.407	47.24
198.625	79.68
198.844	81.89
199.063	68.52
199.282	25.22
199.501	35.87
199.719	58.56
199.938	40.24
200.157	44.49
200.376	15.62
200.594	13.3
200.813	21.41
201.032	22.58
201.251	0.86
201.469	6.36
201.688	41.54
201.907	22.77
202.125	-9.49
202.344	-15.04
202.563	-20.25
202.781	-4.4
203	45.75
203.218	98.57
203.437	-1555.81
203.656	106.5
203.874	47.83
204.093	69.48
204.311	74.57
204.53	59.42
204.748	99.91
204.967	107.58
205.185	90.61
205.404	80.79
205.622	57.24
205.841	44.6
206.059	-48.44
206.278	13.84
206.496	4.36
206.715	11.21
206.933	12.47
207.151	10.39
207.37	27.61
207.588	41.83
207.806	47.42
208.025	49.83
208.243	73.11
208.461	67.12
208.68	84.02
208.898	77.75
209.116	84.4
209.335	74.66
209.553	61.54
209.771	38.49
209.989	44.65
210.208	34.37
210.426	66.78
210.644	2.76
210.862	50.98
211.081	20.48
211.299	90.87
211.517	105.09
211.735	139.16
211.953	203.42
212.171	173.66
212.39	193.47
212.608	176.49
212.826	99.48
213.044	91.06
213.262	122.58
213.48	174.77
213.698	65.96
213.916	70.17
214.134	77.31
214.352	89.4
214.57	72.51
214.788	70
215.006	56.8
215.224	81.34
215.442	77.63
215.66	54.65
215.878	42.98
216.096	41.48
216.314	60.4
216.532	73.48
216.75	62.48
216.968	76.08
217.185	70.66
217.403	84.93
217.621	64.01
217.839	86.04
218.057	85.64
218.275	121.96
218.492	127.82
218.71	169.73
218.928	187.01
219.146	156.49
219.363	156.51
219.581	199.25
219.799	122.65
220.017	176.1
220.234	144.17
220.452	138.09
220.67	78.55
220.887	67.35
221.105	50.44
221.323	40.71
221.54	24.45
221.758	12.84
221.976	40.77
222.193	48.83
222.411	27.44
222.629	26.1
222.846	35.11
223.064	63.84
223.281	72.15
223.499	53.04
223.716	54.39
223.934	73.75
224.151	103.07
224.369	79.27
224.586	82.18
224.804	95.81
225.021	86.96
225.239	79.27
225.456	52.9
225.674	49.35
225.891	45.35
226.108	47.98
226.326	25.68
226.543	15.54
226.76	18.16
226.978	10.73
227.195	12.46
227.413	9.37
227.63	13.81
227.847	19.28
228.064	19.76
228.282	16.9
228.499	15.81
228.716	17.9
228.934	19.9
229.151	18.25
229.368	19.76
229.585	18.95
229.802	21.63
230.02	21.63
230.237	21.57
230.454	20.76
230.671	21.87
230.888	22.3
231.105	24.26
231.323	18.77
231.54	19.97
231.757	21.53
231.974	21.25
232.191	18.54
232.408	14.24
232.625	10.95
232.842	10.82
233.059	15.03
233.276	14.79
233.493	13.74
233.71	15.69
233.927	9.5
234.144	6.71
234.361	8.77
234.578	10.31
234.795	12.01
235.012	11.09
235.229	10.27
235.446	11.32
235.663	9.26
235.879	14.31
236.096	19.59
236.313	21.37
236.53	21.89
236.747	23.19
236.964	23.77
237.181	27.73
237.397	33.69
237.614	36.29
237.831	37.37
238.048	41.43
238.264	35.14
238.481	32.92
238.698	35.63
238.915	35.7
239.131	33.68
239.348	33.09
239.565	30.76
239.781	25.56
239.998	22.32
240.215	16.96
240.431	13.3
240.648	14.26
240.865	12.2
241.081	11.59
241.298	13.39
241.514	13.95
241.731	13.07
241.947	11.36
242.164	13.97
242.38	14.03
242.597	14.77
242.814	15.82
243.03	17.18
243.246	17.06
243.463	16.47
243.679	17.25
243.896	16.11
244.112	16.35
244.329	18.53
244.545	17.25
244.762	18.06
244.978	16.93
245.194	15.34
245.411	13.13
245.627	12.21
245.843	12.79
246.06	12.48
246.276	12.51
246.492	12.38
246.709	10.97
246.925	10
247.141	9.77
247.357	10.32
247.574	10.17
247.79	9.51
248.006	10.13
248.222	10.11
248.439	8.41
248.655	8.79
248.871	8.53
249.087	8.3
249.303	10.41
249.519	10.14
249.736	10.51
249.952	11.31
250.168	12.46
250.384	11.22
250.6	12.14
250.816	14.29
251.032	13.3
251.248	13.41
251.464	12.87
251.68	9.67
251.896	8.96
252.112	8.61
252.328	7.48
252.544	7.27
252.76	7.93
252.976	6.73
253.192	6.35
253.408	5.22
253.624	4.72
253.84	4.72
254.056	3.77
254.272	5.67
254.487	6.07
254.703	8.88
254.919	9.56
255.135	9.33
255.351	12.3
255.567	11.9
255.782	12.06
255.998	13.32
256.214	12.48
256.43	11.93
256.646	10.42
256.861	9.47
257.077	6.9
257.293	4.8
257.508	7.08
257.724	5.67
257.94	6.83
258.155	9.09
258.371	8.65
258.587	9.05
258.802	10.01
259.018	11.59
259.234	10.91
259.449	11.15
259.665	11.2
259.88	10.6
260.096	10.27
260.312	10.54
260.527	10.24
260.743	10.32
260.958	10.48
261.174	10.59
261.389	9.7
261.605	10.13
261.82	10.35
262.036	11.69
262.251	10.94
262.466	13.05
262.682	12.66
262.897	12.86
263.113	13.74
263.328	14.75
263.543	15.35
263.759	13.74
263.974	12.51
264.189	12.92
264.405	13.2
264.62	15.17
264.835	11.58
265.051	11.85
265.266	13.57
265.481	13.22
265.696	12.51
265.912	13.04
266.127	13.92
266.342	15.66
266.557	14.44
266.773	11.5
266.988	11.37
267.203	11.37
267.418	10.68
267.633	8.69
267.848	7.33
268.064	7.42
268.279	5.62
268.494	5.8
268.709	4.81
268.924	5.81
269.139	6.73
269.354	6.38
269.569	6.59
269.784	6.55
269.999	7.36
270.214	8.99
270.429	8.91
270.644	9.45
270.859	10.43
271.074	10.2
271.289	9.56
271.504	10
271.719	9.89
271.934	10.42
272.149	10.1
272.363	9.25
272.578	9.55
272.793	9.16
273.008	9.3
273.223	7.74
273.438	7.6
273.653	7.24
273.867	6.37
274.082	6.07
274.297	6.26
274.512	7.33
274.726	7.9
274.941	8.02
275.156	8.58
275.371	8.15
275.585	8.81
275.8	9.37
276.015	9.23
276.229	8.95
276.444	9.05
276.659	7.5
276.873	6.78
277.088	7.64
277.302	6.31
277.517	5.73
277.732	6.96
277.946	7.99
278.161	7.92
278.375	8.37
278.59	10.13
278.804	10.56
279.019	12.99
279.233	12.24
279.448	11.9
279.662	12.12
279.877	12.47
280.091	11.02
280.306	10.48
280.52	10.58
280.735	9.71
280.949	9.82
281.163	10.49
281.378	9.74
281.592	10.75
281.806	10.11
282.021	10.18
282.235	8.95
282.449	9.89
282.664	9.39
282.878	9.19
283.092	10.83
283.307	10.99
283.521	10.72
283.735	10.38
283.949	8.45
284.164	7.62
284.378	6.94
284.592	8.05
284.806	7.84
285.02	9.6
285.234	9.58
285.449	8.65
285.663	8.53
285.877	7.59
286.091	8.55
286.305	9.7
286.519	10.59
286.733	11.66
286.947	11.44
287.161	11.6
287.375	10.94
287.589	10.66
287.803	10.98
288.017	11.12
288.231	11.02
288.445	10.4
288.659	9.39
288.873	9.58
289.087	7.19
289.301	7.38
289.515	6.94
289.729	6.96
289.943	8.41
290.157	8.42
290.371	8.43
290.584	8.38
290.798	8.21
291.012	10.36
291.226	9.6
291.44	10.49
291.654	10.52
291.867	10.79
292.081	9.01
292.295	8.12
292.509	7.97
292.722	7.43
292.936	8.43
293.15	8.38
293.364	7.53
293.577	8.72
293.791	9.29
294.005	11.13
294.218	10.79
294.432	11.86
294.645	11.81
294.859	12.14
295.073	13.07
295.286	13.6
295.5	12.69
295.713	11.89
295.927	11.96
296.14	12.4
296.354	10.75
296.568	10.36
296.781	10.97
296.994	11.4
297.208	11.21
297.421	10.59
297.635	10.49
297.848	10.44
298.062	11.06
298.275	10.17
298.489	10.51
298.702	10.98
298.915	11.16
299.129	10.62
299.342	10.01
299.555	10.44
299.769	10.84
299.982	9.94
300.195	10.45
300.409	10.45
300.622	11.49
300.835	10.73
301.048	11.55
301.262	11.29
301.475	11.79
301.688	12.01
301.901	11.86
302.115	10.72
302.328	11.13
302.541	10.73
302.754	9.87
302.967	10.36
303.18	10.1
303.393	8.95
303.607	8.51
303.82	8.89
304.033	8.74
304.246	8.36
304.459	10.16
304.672	10.65
304.885	11.69
305.098	11.92
305.311	10.84
305.524	10.85
305.737	10.71
305.95	11.85
306.163	11.09
306.376	11.22
306.589	10.89
306.802	9.75
307.015	7.79
307.228	6.83
307.44	6.36
307.653	6.3
307.866	5.29
308.079	5.71
308.292	6.21
308.505	7.15
308.718	8.77
308.93	9.25
309.143	9.33
309.356	11.58
309.569	11.49
309.781	11.84
309.994	12
310.207	12.96
310.42	13.76
310.632	12.85
310.845	13
311.058	11.49
311.27	10.88
311.483	11.04
311.696	11.24
311.908	11.24
312.121	11.26
312.333	10.94
312.546	10.26
312.759	9.3
312.971	10.43
313.184	10.07
313.396	10.05
313.609	10.55
313.821	10.06
314.034	8.97
314.246	10.64
314.459	12.29
314.671	12.8
314.884	12.72
315.096	14.46
315.309	15.14
315.521	15.33
315.733	16.79
315.946	17.36
316.158	17.48
316.371	17.25
316.583	16.31
316.795	15.51
317.008	15.26
317.22	16.91
317.432	15.67
317.644	15.43
317.857	15.38
318.069	14.1
318.281	13.47
318.494	15.36
318.706	15.8
318.918	16.62
319.13	15.42
319.342	15.09
319.555	14.81
319.767	13.11
319.979	11.46
320.191	11.84
320.403	13.65
320.615	12.71
320.827	11.61
321.039	9.63
321.252	9.86
321.464	9.86
321.676	10.98
321.888	10.67
322.1	13.72
322.312	14.7
322.524	13.47
322.736	11.46
322.948	11.11
323.16	10.15
323.372	11.79
323.584	10.16
323.796	11
324.007	9.38
324.219	8.23
324.431	7.84
324.643	7.15
324.855	7.33
325.067	8.32
325.279	10.99
325.491	11.18
325.702	9.85
325.914	9.98
326.126	9.65
326.338	11.36
326.55	11.74
326.761	10.92
326.973	11.4
327.185	11.94
327.396	10.84
327.608	9.28
327.82	9.66
328.032	10.58
328.243	11.33
328.455	11.85
328.666	10.45
328.878	11.46
329.09	12.55
329.301	12.29
329.513	13.4
329.725	15.04
329.936	15.53
330.148	15.58
330.359	16.28
330.571	16.93
330.782	15.48
330.994	17.41
331.205	17.01
331.417	16.61
331.628	16.85
331.84	16.98
332.051	15.31
332.262	15.29
332.474	15.99
332.685	14.7
332.897	14.15
333.108	16.07
333.319	15.38
333.531	15.26
333.742	15.53
333.953	15.91
334.165	14.35
334.376	14.81
334.587	14.4
334.799	13.94
335.01	14.53
335.221	15.04
335.432	13.18
335.644	13.78
335.855	12.64
336.066	12.92
336.277	12.07
336.488	12.63
336.7	12.77
336.911	13.27
337.122	13.66
337.333	14.04
337.544	13.39
337.755	14.39
337.966	13.14
338.177	14.12
338.388	13.25
338.599	13.66
338.811	14.23
339.022	14.71
339.233	14.94
339.444	14.91
339.655	14.28
339.866	14.59
340.076	15.4
340.287	16.72
340.498	17.58
340.709	17.21
340.92	17.9
341.131	18.1
341.342	19.35
341.553	17.9
341.764	17.71
341.975	17.37
342.185	17.14
342.396	16.29
342.607	15.97
342.818	15.47
343.029	16.57
343.239	14.98
343.45	13.78
343.661	12.21
343.872	12.96
344.082	12.95
344.293	13.63
344.504	14.06
344.714	13.27
344.925	12.34
345.136	11.26
345.346	10.91
345.557	10.9
345.768	10.37
345.978	11.08
346.189	11.28
346.399	11
346.61	11.19
346.821	10.34
347.031	10.68
347.242	10.24
347.452	11.59
347.663	10.51
347.873	11.42
348.084	12.03
348.294	12.11
348.504	11.75
348.715	11.23
348.925	11.46
349.136	11.62
349.346	11.04
349.557	12.3
349.767	11.86
349.977	12.69
350.188	13.06
350.398	13.56
350.608	13.03
350.819	13.28
351.029	13.36
351.239	13.1
351.449	13.44
351.66	14.67
351.87	15.01
352.08	15.04
352.29	14.29
352.501	15.01
352.711	14.83
352.921	14.69
353.131	14.33
353.341	14.45
353.552	14.12
353.762	14.27
353.972	13.51
354.182	13.25
354.392	13.25
354.602	14.37
354.812	13.25
355.022	12.69
355.232	11.59
355.442	12.52
355.652	13.02
355.862	13.14
356.072	12.61
356.282	13.52
356.492	13.47
356.702	12.94
356.912	12.37
357.122	12.36
357.332	13.51
357.542	14.79
357.752	14.4
357.962	13.54
358.171	13.77
358.381	13.86
358.591	13.64
358.801	13.34
359.011	14.43
359.221	14.64
359.43	14.62
359.64	13.32
359.85	13.1
360.06	12.99
360.269	14.11
360.479	13.69
360.689	14.66
360.899	13.87
361.108	13.73
361.318	13.17
361.528	13.61
361.737	13.57
361.947	13.76
362.156	13.21
362.366	13.32
362.576	12.59
362.785	12.72
362.995	12.37
363.204	12.91
363.414	13.56
363.623	13.57
363.833	12.55
364.042	12.24
364.252	12.82
364.461	12.33
364.671	11.82
364.88	11.05
365.09	10.87
365.299	10.34
365.509	9.71
365.718	8.41
365.927	8.39
366.137	8.57
366.346	8.8
366.555	7.94
366.765	8.24
366.974	8.3
367.183	8.34
367.393	8.54
367.602	8.75
367.811	8.89
368.021	9.64
368.23	9.95
368.439	9.99
368.648	10.65
368.857	11.03
369.067	10.88
369.276	10.59
369.485	10.91
369.694	10.54
369.903	10.46
370.112	11.21
370.321	10.62
370.531	9.67
370.74	9.29
370.949	8.67
371.158	8.5
371.367	9.46
371.576	9.5
371.785	10.22
371.994	10.69
372.203	10.78
372.412	10.33
372.621	11.46
372.83	11.55
373.039	12.14
373.248	12.12
373.457	11.96
373.666	11.46
373.874	11.53
374.083	10.7
374.292	10.4
374.501	9.52
374.71	9.31
374.919	8.82
375.128	9.07
375.336	8.69
375.545	8.74
375.754	8.4
375.963	8.3
376.171	8.49
376.38	9.19
376.589	8.94
376.798	9.86
377.006	9.78
377.215	9.36
377.424	9.42
377.632	9.66
377.841	9.05
378.05	9.6
378.258	9.85
378.467	9.96
378.675	9.54
378.884	9.71
379.093	9.33
379.301	9.3
379.51	9.42
379.718	9.4
379.927	9.22
380.135	9.7
380.344	9.4
380.552	9.9
380.761	9.47
380.969	9.28
381.177	8.8
381.386	8.84
381.594	9.26
381.803	9.43
382.011	9.01
382.219	8.92
382.428	8.88
382.636	9.05
382.845	8.38
383.053	8.2
383.261	8.68
383.469	9
383.678	8.92
383.886	8.53
384.094	8.28
384.302	8.67
384.511	8.77
384.719	8.77
384.927	8.15
385.135	7.94
385.343	8.19
385.552	7.95
385.76	7.99
385.968	7.85
386.176	7.99
386.384	8.16
386.592	7.71
386.8	7.42
387.008	7.1
387.216	7.7
387.424	7.76
387.633	7.56
387.841	7.81
388.049	7.93
388.257	7.86
388.465	7.89
388.672	7.4
388.88	7.87
389.088	7.7
389.296	8.3
389.504	8.22
389.712	8.09
389.92	8.13
390.128	7.41
390.336	7.1
390.544	7.08
390.751	7.1
390.959	7.61
391.167	7.42
391.375	7.8
391.583	7.49
391.79	7.35
391.998	7.51
392.206	7.67
392.414	8.45
392.621	8.36
392.829	8.18
393.037	7.82
393.244	7.48
393.452	7.81
393.66	7.99
393.867	7.74
394.075	7.87
394.283	7.84
394.49	7.55
394.698	7.09
394.905	7.17
395.113	7.21
395.32	7.27
395.528	7.41
395.735	6.93
395.943	7.08
396.15	7.2
396.358	7.02
396.565	6.88
396.773	7.33
396.98	7.63
397.188	7.67
397.395	8.15
397.602	8.01
397.81	8.07
398.017	8.47
398.225	7.71
398.432	7.84
398.639	7.88
398.847	7.72
399.054	7.57
399.261	7.28
399.468	7.33
399.676	6.8
399.883	6.91
400.09	6.81
400.297	6.71
400.505	7.42
400.712	7.26
400.919	7.39
401.126	7.38
401.333	7.23
401.54	7.11
401.748	7.09
401.955	7.28
402.162	7.34
402.369	7.11
402.576	7.27
402.783	6.71
402.99	6.48
403.197	6.11
403.404	6.08
403.611	6.06
403.818	5.89
404.025	5.92
404.232	5.82
404.439	6.04
404.646	6.19
404.853	5.77
405.06	5.58
405.267	5.82
405.474	5.92
405.681	6.21
405.887	6.28
406.094	6.71
406.301	6.6
406.508	6.65
406.715	6.31
406.922	6.31
407.128	6.25
407.335	6.53
407.542	6.64
407.749	6.65
407.955	6.45
408.162	6.1
408.369	5.72
408.575	5.68
408.782	5.21
408.989	5.38
409.195	5.05
409.402	5.09
409.609	5.25
409.815	5.3
410.022	5.31
410.228	5.43
410.435	5.78
410.642	6.2
410.848	6.2
411.055	6.5
411.261	6.54
411.468	6.5
411.674	6.57
411.881	6.36
412.087	6.28
412.294	6.22
412.5	6.31
412.706	6.49
412.913	6.25
413.119	6.53
413.326	6.47
413.532	6.36
413.738	6.59
413.945	6.6
414.151	6.79
414.357	6.72
414.564	6.73
414.77	6.49
414.976	6.23
415.182	5.97
415.389	5.81
415.595	5.92
415.801	5.78
416.007	5.55
416.214	5.26
416.42	5.11
416.626	5.21
416.832	5.26
417.038	5.19
417.244	5.17
417.45	5.36
417.657	5.28
417.863	5.37
418.069	5.36
418.275	5.54
418.481	5.86
418.687	5.69
418.893	5.7
419.099	5.67
419.305	5.82
419.511	5.72
419.717	5.67
419.923	5.62
420.129	5.49
420.335	5.4
420.541	5.36
420.746	5.24
420.952	5.32
421.158	5.28
421.364	5.37
421.57	5.16
421.776	5.23
421.982	5.25
422.187	5.28
422.393	5.25
422.599	5.44
422.805	5.46
423.01	5.31
423.216	5.26
423.422	5.15
423.628	5.01
423.833	5.13
424.039	5.09
424.245	5.04
424.45	4.96
424.656	5.02
424.862	5.02
425.067	4.97
425.273	5.18
425.478	5.25
425.684	5.15
425.889	5.14
426.095	5.07
426.301	5.09
426.506	5.14
426.712	5.17
426.917	5.08
427.123	4.96
427.328	5.03
427.533	4.9
427.739	4.75
427.944	4.96
428.15	4.81
428.355	4.88
428.561	4.77
428.766	4.6
428.971	4.77
429.177	4.65
429.382	4.54
429.587	4.38
429.793	4.36
429.998	4.61
430.203	4.37
430.408	4.49
430.614	4.41
430.819	4.43
431.024	4.52
431.229	4.37
431.434	4.58
431.64	4.7
431.845	4.83
432.05	4.88
432.255	4.71
432.46	4.79
432.665	4.97
432.87	5.02
433.076	4.98
433.281	4.84
433.486	4.85
433.691	4.97
433.896	5.01
434.101	4.89
434.306	4.95
434.511	4.97
434.716	5.02
434.921	4.95
435.126	5.13
435.331	5.25
435.535	5.39
435.74	5.25
435.945	5.23
436.15	5.06
436.355	5.25
436.56	5.12
436.765	5.14
436.97	5.17
437.174	5.13
437.379	5.02
437.584	5.06
437.789	4.87
437.993	5.17
438.198	5.05
438.403	5.19
438.608	5.04
438.812	5
439.017	4.93
439.222	5.07
439.426	5.06
439.631	4.78
439.836	4.66
440.04	4.85
440.245	4.68
440.45	4.73
440.654	4.65
440.859	4.64
441.063	4.82
441.268	4.8
441.472	4.68
441.677	4.73
441.881	4.78
442.086	4.79
442.29	4.72
442.495	4.79
442.699	4.77
442.904	4.78
443.108	4.93
443.312	4.91
443.517	5.03
443.721	4.88
443.925	4.87
444.13	4.99
444.334	4.95
444.538	4.99
444.743	4.8
444.947	4.82
445.151	4.75
445.356	4.64
445.56	4.57
445.764	4.53
445.968	4.65
446.173	4.53
446.377	4.54
446.581	4.63
446.785	4.64
446.989	4.73
447.193	4.73
447.398	4.67
447.602	4.74
447.806	4.79
448.01	4.85
448.214	4.77
448.418	4.86
448.622	4.85
448.826	4.83
449.03	4.84
449.234	4.93
449.438	5.06
449.642	5.18
449.846	5.16
450.05	5.02
450.254	4.93
450.458	5.13
450.662	5.09
450.866	5.08
451.069	5.16
451.273	5.1
451.477	5.05
451.681	4.86
451.885	4.83
452.089	4.66
452.292	4.76
452.496	4.81
452.7	4.64
452.904	4.71
453.107	4.63
453.311	4.55
453.515	4.69
453.719	4.6
453.922	4.61
454.126	4.65
454.33	4.72
454.533	4.57
454.737	4.48
454.94	4.56
455.144	4.75
455.348	4.91
455.551	4.93
455.755	4.75
455.958	4.7
456.162	4.49
456.365	4.3
456.569	4.21
456.772	4.38
456.976	4.51
457.179	4.47
457.383	4.19
457.586	4.14
457.79	4.08
457.993	4.14
458.196	4.26
458.4	4.44
458.603	4.63
458.807	4.55
459.01	4.55
459.213	4.57
459.417	4.56
459.62	4.7
459.823	4.85
460.026	4.88
460.23	4.79
460.433	4.74
460.636	4.68
460.839	4.82
461.042	4.96
461.246	4.93
461.449	4.79
461.652	4.84
461.855	4.68
462.058	4.42
462.261	4.43
462.464	4.53
462.668	4.45
462.871	4.54
463.074	4.23
463.277	4.33
463.48	4.52
463.683	4.7
463.886	4.6
464.089	4.7
464.292	4.79
464.495	4.82
464.698	4.84
464.901	5.05
465.104	4.92
465.306	4.86
465.509	4.77
465.712	4.45
465.915	4.43
466.118	4.5
466.321	4.22
466.524	4.1
466.726	4.07
466.929	3.94
467.132	3.92
467.335	4
467.538	4.27
467.74	4.29
467.943	4.56
468.146	4.52
468.348	4.56
468.551	4.77
468.754	4.93
468.956	4.85
469.159	5.04
469.362	4.96
469.564	4.98
469.767	4.92
469.969	4.97
470.172	4.79
470.375	4.76
470.577	4.69
470.78	4.68
470.982	4.75
471.185	4.91
471.387	4.73
471.59	4.58
471.792	4.47
471.995	4.33
472.197	4.15
472.399	4.32
472.602	4.32
472.804	4.27
473.007	4.33
473.209	3.99
473.411	4.03
473.614	4.24
473.816	4.33
474.018	4.62
474.22	4.79
474.423	4.96
474.625	4.87
474.827	5.02
475.03	5.02
475.232	5.08
475.434	5.38
475.636	5.03
475.838	4.95
476.04	5.08
476.243	4.94
476.445	4.91
476.647	4.85
476.849	4.74
477.051	4.76
477.253	4.83
477.455	4.74
477.657	4.74
477.859	4.87
478.061	4.8
478.263	4.88
478.465	4.91
478.667	4.92
478.869	4.96
479.071	5.03
479.273	4.88
479.475	4.72
479.677	4.74
479.879	4.57
480.081	4.84
480.283	4.92
480.485	4.77
480.686	4.58
480.888	4.55
481.09	4.53
481.292	4.47
481.494	4.55
481.695	4.73
481.897	4.76
482.099	4.89
482.301	4.69
482.502	4.68
482.704	4.63
482.906	4.62
483.107	4.57
483.309	4.48
483.511	4.49
483.712	4.42
483.914	4.34
484.115	4.28
484.317	4.24
484.519	4.21
484.72	4.17
484.922	4.2
485.123	4.21
485.325	4.19
485.526	4.2
485.728	4.19
485.929	4.23
486.131	4.24
486.332	4.28
486.534	4.25
486.735	4.3
486.936	4.29
487.138	4.21
487.339	4.21
487.541	4.21
487.742	4.22
487.943	4.23
488.144	4.29
488.346	4.28
488.547	4.28
488.748	4.24
488.95	4.23
489.151	4.26
489.352	4.3
489.553	4.32
489.755	4.37
489.956	4.51
490.157	4.4
490.358	4.28
490.559	4.21
490.76	4.22
490.961	4.4
491.163	4.42
491.364	4.35
491.565	4.3
491.766	4.34
491.967	4.36
492.168	4.29
492.369	4.34
492.57	4.41
492.771	4.56
492.972	4.51
493.173	4.48
493.374	4.55
493.575	4.65
493.776	4.76
493.976	4.83
494.177	4.73
494.378	4.79
494.579	4.82
494.78	4.72
494.981	4.75
495.182	4.71
495.382	4.62
495.583	4.65
495.784	4.56
495.985	4.34
496.185	4.19
496.386	4.31
496.587	4.18
496.788	4.15
496.988	4.3
497.189	4.24
497.39	4.38
497.59	4.31
497.791	4.08
497.992	4.2
498.192	4.39
498.393	4.53
498.593	4.46
498.794	4.41
498.994	4.67
499.195	4.54
499.395	4.48
499.596	4.62
499.796	4.59
499.997	4.63
500.197	4.64
500.398	4.62
500.598	4.55
500.799	4.59
500.999	4.82
501.199	4.53
501.4	4.69
501.6	4.81
501.801	4.69
502.001	4.83
502.201	4.97
502.402	4.83
502.602	4.89
502.802	4.8
503.002	4.86
503.203	4.81
503.403	4.9
503.603	4.96
503.803	4.96
504.003	4.94
504.204	4.96
504.404	4.83
504.604	4.83
504.804	4.65
505.004	4.58
505.204	4.51
505.404	4.47
505.604	4.52
505.804	4.55
506.005	4.51
506.205	4.5
506.405	4.52
506.605	4.74
506.805	4.85
507.005	5.11
507.204	5.23
507.404	5.19
507.604	5.14
507.804	4.96
508.004	4.92
508.204	4.94
508.404	4.85
508.604	4.77
508.804	4.71
509.003	4.69
509.203	4.62
509.403	4.64
509.603	4.82
509.803	4.79
510.002	5
510.202	4.89
510.402	4.96
510.602	5.06
510.801	5.07
511.001	5.02
511.201	4.96
511.4	4.87
511.6	4.9
511.8	4.77
511.999	4.73
512.199	4.67
512.398	4.61
512.598	4.4
512.797	4.43
512.997	4.46
513.197	4.47
513.396	4.56
513.596	4.68
513.795	4.76
513.994	4.75
514.194	4.85
514.393	4.75
514.593	4.76
514.792	4.84
514.992	4.81
515.191	4.7
515.39	4.91
515.59	4.82
515.789	4.85
515.988	4.64
516.188	4.69
516.387	4.81
516.586	4.94
516.786	5.18
516.985	5.22
517.184	5.3
517.383	5.44
517.582	5.38
517.782	5.4
517.981	5.32
518.18	5.36
518.379	5.4
518.578	5.34
518.777	5.36
518.976	5.2
519.176	5.29
519.375	5.21
519.574	5.23
519.773	5.23
519.972	5.38
520.171	5.48
520.37	5.44
520.569	5.47
520.768	5.49
520.967	5.55
521.166	5.57
521.365	5.46
521.564	5.42
521.762	5.42
521.961	5.42
522.16	5.21
522.359	5.21
522.558	5.38
522.757	5.43
522.956	5.44
523.154	5.45
523.353	5.52
523.552	5.53
523.751	5.69
523.949	5.66
524.148	5.78
524.347	5.89
524.546	5.93
524.744	5.87
524.943	5.8
525.142	5.74
525.34	5.71
525.539	5.69
525.737	5.7
525.936	5.63
526.135	5.74
526.333	5.64
526.532	5.61
526.73	5.55
526.929	5.6
527.127	5.59
527.326	5.58
527.524	5.48
527.723	5.51
527.921	5.49
528.12	5.56
528.318	5.51
528.516	5.56
528.715	5.55
528.913	5.59
529.112	5.59
529.31	5.61
529.508	5.78
529.707	5.83
529.905	5.84
530.103	5.91
530.301	5.89
530.5	5.9
530.698	5.89
530.896	5.96
531.094	5.98
531.293	6.01
531.491	5.96
531.689	5.88
531.887	5.9
532.085	5.92
532.283	5.94
532.481	5.95
532.68	5.95
532.878	5.89
533.076	5.96
533.274	5.91
533.472	5.94
533.67	6
533.868	5.97
534.066	6.03
534.264	6
534.462	5.98
534.66	5.97
534.858	5.98
535.056	6.11
535.253	6.12
535.451	6.2
535.649	6.14
535.847	6.26
536.045	6.23
536.243	6.27
536.441	6.33
536.638	6.3
536.836	6.39
537.034	6.4
537.232	6.32
537.43	6.31
537.627	6.38
537.825	6.46
538.023	6.32
538.22	6.45
538.418	6.38
538.616	6.41
538.813	6.4
539.011	6.48
539.209	6.64
539.406	6.78
539.604	6.83
539.801	6.67
539.999	6.75
540.196	6.84
540.394	6.79
540.591	6.77
540.789	6.82
540.986	6.94
541.184	6.81
541.381	6.79
541.579	6.69
541.776	6.71
541.974	6.84
542.171	6.83
542.368	6.79
542.566	6.92
542.763	6.98
542.96	6.95
543.158	6.96
543.355	7.06
543.552	7.13
543.75	7.3
543.947	7.27
544.144	7.21
544.341	7.25
544.539	7.39
544.736	7.21
544.933	7.22
545.13	7.41
545.327	7.45
545.524	7.55
545.722	7.56
545.919	7.61
546.116	7.67
546.313	7.85
546.51	7.88
546.707	7.89
546.904	8.06
547.101	8.07
547.298	7.94
547.495	8.06
547.692	8.15
547.889	8.17
548.086	8.08
548.283	8.18
548.48	8.04
548.677	8.06
548.874	8.2
549.07	8.09
549.267	8.39
549.464	8.64
549.661	8.52
549.858	8.46
550.055	8.47
550.251	8.54
550.448	8.28
550.645	8.48
550.842	8.55
551.038	8.55
551.235	8.64
551.432	8.62
551.628	8.56
551.825	8.49
552.022	8.46
552.218	8.47
552.415	8.47
552.612	8.76
552.808	8.84
553.005	8.85
553.201	8.98
553.398	9.24
553.594	9.33
553.791	9.47
553.987	9.71
554.184	9.78
554.38	9.93
554.577	10.09
554.773	10.1
554.97	10.01
555.166	10.05
555.362	9.93
555.559	9.64
555.755	9.58
555.952	9.48
556.148	9.52
556.344	9.53
556.541	9.4
556.737	9.44
556.933	9.59
557.129	9.55
557.326	9.71
557.522	9.94
557.718	10.02
557.914	9.89
558.11	9.84
558.307	9.92
558.503	9.9
558.699	10.06
558.895	10.2
559.091	10.08
559.287	10.32
559.483	10.32
559.679	10.12
559.876	10.23
560.072	10.35
560.268	10.51
560.464	10.52
560.66	10.73
560.856	10.82
561.052	10.84
561.247	10.89
561.443	10.87
561.639	10.89
561.835	11.08
562.031	11.06
562.227	10.99
562.423	11.1
562.619	11.12
562.815	11.03
563.01	11.09
563.206	11.11
563.402	11.25
563.598	11.22
563.793	11.24
563.989	11.13
564.185	11.18
564.381	11.41
564.576	11.27
564.772	11.3
564.968	11.47
565.163	11.55
565.359	11.59
565.555	11.58
565.75	11.72
565.946	11.73
566.141	11.77
566.337	12.01
566.532	11.84
566.728	12.01
566.923	12.12
567.119	12.1
567.314	12.03
567.51	12.06
567.705	12.04
567.901	11.94
568.096	12.04
568.292	11.99
568.487	11.85
568.682	11.98
568.878	11.96
569.073	11.77
569.268	11.73
569.464	11.96
569.659	11.71
569.854	11.69
570.05	11.76
570.245	11.96
570.44	12.17
570.635	12.31
570.831	12.35
571.026	12.27
571.221	12.41
571.416	12.46
571.611	12.36
571.806	12.57
572.002	12.63
572.197	12.76
572.392	12.45
572.587	12.35
572.782	12.21
572.977	12.27
573.172	12.51
573.367	12.55
573.562	12.64
573.757	12.75
573.952	12.78
574.147	13.05
574.342	13.17
574.537	13.46
574.732	13.48
574.927	13.71
575.121	13.73
575.316	13.62
575.511	13.66
575.706	13.85
575.901	13.85
576.096	13.92
576.29	13.7
576.485	13.5
576.68	13.46
576.875	13.65
577.069	13.49
577.264	13.5
577.459	13.58
577.654	13.62
577.848	13.33
578.043	13.24
578.238	13.01
578.432	13.28
578.627	13.37
578.821	13.38
579.016	13.5
579.21	13.58
579.405	13.57
579.6	13.79
579.794	13.81
579.989	13.83
580.183	13.94
580.378	14.2
580.572	14.22
580.766	14.42
580.961	14.65
581.155	14.35
581.35	14.41
581.544	14.55
581.738	14.51
581.933	14.89
582.127	15
582.321	14.99
582.516	15.17
582.71	14.88
582.904	14.57
583.099	14.52
583.293	14.76
583.487	14.63
583.681	14.6
583.875	14.21
584.07	14.15
584.264	14.25
584.458	14.23
584.652	14.02
584.846	14.19
585.04	14.45
585.234	14.23
585.428	14.1
585.623	14.27
585.817	14.13
586.011	14.45
586.205	14.18
586.399	14.24
586.593	14.21
586.787	14.26
586.981	14.38
587.174	14.43
587.368	14.4
587.562	14.65
587.756	14.71
587.95	14.9
588.144	14.91
588.338	15.1
588.532	15.03
588.725	15.27
588.919	15.48
589.113	15.52
589.307	15.52
589.501	15.37
589.694	15.17
589.888	15.17
590.082	15.46
590.275	15.45
590.469	15.32
590.663	15.31
590.856	15.06
591.05	14.98
591.244	14.84
591.437	14.68
591.631	14.61
591.824	14.71
592.018	14.74
592.212	14.48
592.405	14.57
592.599	14.5
592.792	14.77
592.986	14.77
593.179	15.05
593.372	15.04
593.566	15.1
593.759	15.39
593.953	15.29
594.146	15.48
594.339	15.51
594.533	15.39
594.726	15.44
594.92	15.2
595.113	15.21
595.306	15.03
595.499	15.43
595.693	15.55
595.886	15.65
596.079	15.69
596.272	15.42
596.466	15.57
596.659	15.55
596.852	15.47
597.045	15.56
597.238	15.78
597.431	15.74
597.624	15.61
597.818	15.6
598.011	15.43
598.204	15.57
598.397	15.79
598.59	15.7
598.783	15.81
598.976	16.16
599.169	16.26
599.362	16.33
599.555	16.26
599.748	16.23
599.941	16.34
600.134	16.71
600.326	16.69
600.519	16.47
600.712	16.28
600.905	16.37
601.098	16.29
601.291	16.09
601.483	16.03
601.676	16.19
601.869	16.4
602.062	16.13
602.255	16.02
602.447	15.92
602.64	16.05
602.833	16.01
603.025	16.06
603.218	16.14
603.411	16.14
603.603	15.97
603.796	15.79
603.989	15.35
604.181	15.49
604.374	15.43
604.566	15.62
604.759	15.59
604.951	15.61
605.144	15.56
605.336	15.57
605.529	15.58
605.721	15.73
605.914	15.81
606.106	16.1
606.299	16.14
606.491	16.13
606.683	15.97
606.876	16.13
607.068	16.39
607.26	16.43
607.453	16.22
607.645	16.23
607.837	16.26
608.03	16.52
608.222	16.41
608.414	16.43
608.606	16.57
608.799	16.58
608.991	16.4
609.183	16.26
609.375	16.25
609.567	16.13
609.759	16.11
609.952	15.86
610.144	15.68
610.336	15.89
610.528	15.68
610.72	15.57
610.912	15.58
611.104	15.69
611.296	15.85
611.488	15.95
611.68	16.23
611.872	16.47
612.064	16.6
612.256	16.71
612.448	16.41
612.64	16.64
612.832	16.68
613.023	16.65
613.215	16.55
613.407	16.53
613.599	16.33
613.791	16.16
613.983	15.95
614.174	16.36
614.366	16.33
614.558	16.28
614.75	16.1
614.941	15.91
615.133	16.2
615.325	16.59
615.516	16.84
615.708	16.95
615.9	16.88
616.091	16.9
616.283	16.59
616.475	16.73
616.666	16.85
616.858	17.38
617.049	17.57
617.241	17.28
617.432	16.97
617.624	16.52
617.815	16.33
618.007	16.59
618.198	16.65
618.39	16.67
618.581	16.68
618.773	16.89
618.964	16.48
619.155	16.49
619.347	16.56
619.538	16.3
619.729	16.54
619.921	17.13
620.112	17.13
620.303	17.05
620.494	17.34
620.686	17.22
620.877	17.39
621.068	17.63
621.259	17.87
621.451	17.68
621.642	17.88
621.833	17.77
622.024	17.23
622.215	17.04
622.406	17.17
622.597	16.92
622.788	16.77
622.98	16.49
623.171	16.22
623.362	16.05
623.553	16
623.744	16.01
623.935	16.26
624.126	16.69
624.317	16.78
624.508	16.6
624.698	16.36
624.889	16.46
625.08	16.53
625.271	16.94
625.462	16.95
625.653	17.42
625.844	17.57
626.034	17.26
626.225	17.17
626.416	17.24
626.607	17.34
626.798	17.92
626.988	17.81
627.179	17.78
627.37	17.87
627.56	17.76
627.751	17.32
627.942	17.25
628.132	17.39
628.323	17.02
628.514	16.91
628.704	16.98
628.895	16.62
629.085	16.7
629.276	16.68
629.466	16.46
629.657	16.43
629.847	16.69
630.038	16.67
630.228	16.86
630.419	17.12
630.609	17.45
630.8	17.48
630.99	17.51
631.181	17.28
631.371	17.66
631.561	17.63
631.752	17.83
631.942	17.87
632.132	17.73
632.323	17.52
632.513	17.61
632.703	17.55
632.893	17.33
633.084	17.48
633.274	17.8
633.464	17.57
633.654	17.62
633.844	17.68
634.034	17.47
634.225	17.78
634.415	17.88
634.605	17.77
634.795	17.73
634.985	17.76
635.175	17.68
635.365	17.88
635.555	18.03
635.745	18.12
635.935	18.18
636.125	18.52
636.315	18.25
636.505	18.2
636.695	18.15
636.885	17.98
637.075	18.37
637.265	18.43
637.455	18.29
637.644	17.85
637.834	17.99
638.024	18
638.214	18.18
638.404	18.57
638.593	18.72
638.783	18.83
638.973	18.99
639.163	18.71
639.352	18.64
639.542	18.26
639.732	18.57
639.921	18.07
640.111	18.02
640.301	17.73
640.49	17.41
640.68	17.03
640.87	17.34
641.059	16.95
641.249	17.1
641.438	17.08
641.628	17.77
641.817	17.97
642.007	18.09
642.196	17.89
642.386	17.91
642.575	18.09
642.764	18.03
642.954	17.95
643.143	18.51
643.333	18.5
643.522	18.62
643.711	18.62
643.901	18.86
644.09	19
644.279	19.44
644.469	19.59
644.658	19.9
644.847	20.02
645.036	19.8
645.226	19.48
645.415	19.44
645.604	18.88
645.793	18.54
645.982	17.94
646.171	18.14
646.361	17.85
646.55	17.95
646.739	18.01
646.928	17.92
647.117	18.05
647.306	18.45
647.495	18.95
647.684	19.17
647.873	19.38
648.062	19.61
648.251	19.53
648.44	19.38
648.629	19.21
648.818	18.79
649.007	18.89
649.196	18.68
649.384	18.11
649.573	17.43
649.762	17.58
649.951	17.29
650.14	17.14
650.328	17.02
650.517	17.23
650.706	17.34
650.895	17.25
651.083	17.48
651.272	17.81
651.461	17.96
651.65	18.34
651.838	18.53
652.027	18.57
652.216	18.53
652.404	18.79
652.593	18.54
652.781	18.5
652.97	18.59
653.158	18.43
653.347	18.32
653.535	18.06
653.724	17.59
653.912	17.51
654.101	17.77
654.289	17.81
654.478	17.77
654.666	18.29
654.855	18.46
655.043	18.56
655.231	18.55
655.42	18.77
655.608	19.07
655.796	19.49
655.985	19.1
656.173	19.08
656.361	19.2
656.55	19.32
656.738	18.79
656.926	18.96
657.114	18.72
657.302	18.93
657.491	18.85
657.679	19.18
657.867	19.23
658.055	19.64
658.243	19.16
658.431	19.16
658.619	18.87
658.807	18.86
658.996	18.63
659.184	19.18
659.372	19.28
659.56	19.14
659.748	19.01
659.936	18.83
660.124	18.56
660.311	18.91
660.499	18.74
660.687	18.75
660.875	18.98
661.063	19.11
661.251	18.58
661.439	18.43
661.627	18.69
661.814	19.07
662.002	19.07
662.19	19.21
662.378	19.04
662.565	19.09
662.753	19.09
662.941	18.64
663.129	18.45
663.316	18.78
663.504	19.18
663.692	19.1
663.879	19.16
664.067	19.15
664.254	19.58
664.442	19.74
664.63	19.98
664.817	19.98
665.005	20.07
665.192	19.96
665.38	19.8
665.567	19.78
665.755	19.66
665.942	19.39
666.13	19.44
666.317	18.98
666.504	18.92
666.692	18.37
666.879	18.5
667.067	18.57
667.254	18.71
667.441	19.22
667.629	19.36
667.816	19.42
668.003	19.64
668.19	19.59
668.378	19.89
668.565	20.3
668.752	20.9
668.939	20.91
669.127	21.55
669.314	21.29
669.501	20.97
669.688	20.65
669.875	20.6
670.062	20.3
670.249	20.26
670.436	20.23
670.623	19.83
670.81	19.78
670.997	19.89
671.184	19.2
671.371	19.39
671.558	19.62
671.745	19.38
671.932	19.12
672.119	18.59
672.306	18.95
672.493	18.97
672.68	18.92
672.867	18.83
673.054	18.3
673.24	18.81
673.427	19.25
673.614	18.88
673.801	19.1
673.988	19.08
674.174	20.22
674.361	20.01
674.548	20.3
674.734	20.78
674.921	20.97
675.108	21.56
675.294	21.44
675.481	21.26
675.668	21.39
675.854	21.61
676.041	21.57
676.227	21.19
676.414	20.91
676.601	20.68
676.787	20.16
676.974	19.99
677.16	19.88
677.347	20.27
677.533	19.95
677.719	19.92
677.906	19.22
678.092	19.67
678.279	18.99
678.465	19.46
678.651	19.55
678.838	19.48
679.024	19.96
679.21	19.88
679.397	19.24
679.583	19.43
679.769	19.88
679.955	20.32
680.142	20.32
680.328	20.57
680.514	20.68
680.7	20.46
680.886	20.83
681.073	20.38
681.259	20.5
681.445	20.78
681.631	20.82
681.817	20.53
682.003	20.63
682.189	20.58
682.375	20.5
682.561	20.21
682.747	20.56
682.933	20.58
683.119	20.64
683.305	20.75
683.491	20.94
683.677	20.61
683.863	20.41
684.049	20.09
684.235	19.94
684.42	20.14
684.606	20.43
684.792	19.86
684.978	19.94
685.164	19.84
685.349	19.51
685.535	19.82
685.721	19.89
685.907	20.22
686.092	20.3
686.278	20.41
686.464	20.2
686.649	20.36
686.835	20.53
687.021	20.55
687.206	20.08
687.392	20.2
687.577	19.89
687.763	20.17
687.948	19.93
688.134	20.4
688.319	20.32
688.505	20.97
688.69	20.65
688.876	20.32
689.061	20.02
689.247	20.74
689.432	21.08
689.618	21.09
689.803	21.23
689.988	21.39
690.174	20.92
690.359	21.35
690.544	21.19
690.73	21.34
690.915	21.75
691.1	21.9
691.285	21.91
691.471	21.96
691.656	21.79
691.841	22.02
692.026	21.58
692.211	21.74
692.396	21.39
692.582	21.09
692.767	21.26
692.952	21.44
693.137	21.44
693.322	21.57
693.507	21.59
693.692	20.98
693.877	20.7
694.062	21.25
694.247	21.09
694.432	20.85
694.617	20.83
694.802	21.02
694.987	20.68
695.172	21.08
695.357	21.03
695.541	20.56
695.726	20.95
695.911	21.54
696.096	21.41
696.281	21.82
696.466	21.98
696.65	22.44
696.835	21.85
697.02	22.34
697.204	21.32
697.389	21.31
697.574	21.48
697.759	22.09
697.943	21.15
698.128	20.99
698.312	20.56
698.497	20.42
698.682	20.14
698.866	20.38
699.051	20.35
699.235	21.15
699.42	21.22
699.604	21.19
699.789	20.69
699.973	21.08
700.158	21.11
700.342	21.45
700.527	21.88
700.711	22.23
700.895	22.15
701.08	21.87
701.264	21.85
701.448	21.54
701.633	21.23
701.817	21.08
702.001	20.54
702.186	20.54
702.37	20.32
702.554	20.53
702.738	20.1
702.923	20.22
703.107	20.81
703.291	20.37
703.475	20.55
703.659	21.13
703.843	21.99
704.027	22.2
704.212	22.31
704.396	22.57
704.58	22.28
704.764	22.32
704.948	22.06
705.132	22.06
705.316	22.09
705.5	22.04
705.684	21.38
705.868	20.63
706.052	20.61
706.235	20.27
706.419	20.37
706.603	20.43
706.787	20.5
706.971	20.71
707.155	20.35
707.339	19.97
707.522	20.35
707.706	21.14
707.89	21.5
708.074	21.94
708.257	22.24
708.441	22.16
708.625	22.03
708.808	22.32
708.992	22.19
709.176	22.17
709.359	22.19
709.543	21.9
709.727	21.6
709.91	21.89
710.094	22.35
710.277	22.68
710.461	22.44
710.644	22.7
710.828	22.55
711.011	22.71
711.195	22.58
711.378	23.45
711.562	23.43
711.745	22.86
711.928	22.96
712.112	22.65
712.295	22.53
712.478	22.74
712.662	21.99
712.845	21.92
713.028	22.23
713.212	22.59
713.395	21.84
713.578	21.36
713.761	21.95
713.945	22.01
714.128	22.01
714.311	21.75
714.494	21.33
714.677	21.74
714.86	21.38
715.043	20.75
715.227	20.44
715.41	20.54
715.593	20.86
715.776	21.17
715.959	20.89
716.142	20.42
716.325	20.53
716.508	20.85
716.691	20.82
716.874	20.39
717.057	21.05
717.239	21.38
717.422	22.08
717.605	22.59
717.788	22.24
717.971	21.61
718.154	21.89
718.337	21.79
718.519	21.46
718.702	21.87
718.885	22.64
719.068	22.32
719.25	22.91
719.433	22.16
719.616	21.8
719.798	21.92
719.981	22.03
720.164	21.54
720.346	22.5
720.529	23.35
720.712	23.12
720.894	23.13
721.077	22.45
721.259	21.68
721.442	22.42
721.624	22.14
721.807	21.88
721.989	21.91
722.172	22.86
722.354	21.7
722.537	21.43
722.719	21.57
722.901	23.21
723.084	24.24
723.266	24.22
723.448	23.49
723.631	24.63
723.813	25.44
723.995	26.18
724.178	25.39
724.36	26.38
724.542	25.74
724.724	25.06
724.907	23.64
725.089	23.17
725.271	23.13
725.453	23.47
725.635	23.27
725.817	22.45
725.999	21.94
726.181	23.13
726.364	23.6
726.546	24.85
726.728	25.57
726.91	26.18
727.092	26.21
727.274	26.38
727.456	26.4
727.638	25.8
727.819	26.05
728.001	26.85
728.183	25.9
728.365	24.24
728.547	23.3
728.729	22.92
728.911	22.26
729.093	21.32
729.274	21.13
729.456	21.12
729.638	20.41
729.82	19.95
730.001	19.64
730.183	20
730.365	20.56
730.546	20.57
730.728	20.97
730.91	21.24
731.091	22.83
731.273	22.54
731.455	22.25
731.636	23.06
731.818	23.08
731.999	23.57
732.181	23.9
732.362	23.87
732.544	23.71
732.725	23.16
732.907	22.57
733.088	22.54
733.27	22.62
733.451	22.51
733.633	22.8
733.814	23.15
733.995	22.11
734.177	21.69
734.358	21.56
734.539	21.88
734.721	22.18
734.902	23.03
735.083	23.38
735.264	24.02
735.446	24.1
735.627	24.03
735.808	23.91
735.989	24.48
736.17	24.88
736.351	25.81
736.533	26.7
736.714	27.38
736.895	27.06
737.076	25.62
737.257	25.25
737.438	26.19
737.619	25.62
737.8	25.62
737.981	24.8
738.162	25.29
738.343	24.78
738.524	24.01
738.705	22.45
738.886	23.1
739.067	23.76
739.247	23.25
739.428	22.21
739.609	21.53
739.79	21.51
739.971	22.47
740.151	21.15
740.332	21.4
740.513	22.34
740.694	23.21
740.874	22.82
741.055	22.65
741.236	22.26
741.417	22.65
741.597	23.56
741.778	24.45
741.958	24.76
742.139	25.53
742.32	24.55
742.5	23.67
742.681	23.76
742.861	23.84
743.042	24.28
743.222	25.52
743.403	25.09
743.583	25.11
743.764	24.42
743.944	24.64
744.124	23.59
744.305	23.69
744.485	23.69
744.666	23.66
744.846	24.02
745.026	22.94
745.207	22.18
745.387	22.36
745.567	23.25
745.747	23.03
745.928	22.17
746.108	22.06
746.288	22.78
746.468	22.34
746.648	22.23
746.829	22.22
747.009	23.73
747.189	24.47
747.369	25.68
747.549	25.97
747.729	26.96
747.909	28.6
748.089	29.49
748.269	30.38
748.449	29.83
748.629	30.34
748.809	30.54
748.989	30.91
749.169	29.26
749.349	28.38
749.529	27.24
749.709	27.68
749.889	26.45
750.068	26.09
750.248	26.29
750.428	26.81
750.608	26.53
750.788	24.97
750.967	25.37
751.147	26.6
751.327	25.2
751.507	23.84
751.686	22.6
751.866	22.6
752.046	23.28
752.225	21.4
752.405	21.31
752.585	21.61
752.764	21.96
752.944	19.88
753.123	20.59
753.303	20.98
753.482	22.36
753.662	23.22
753.841	23.36
754.021	23.9
754.2	25.51
754.38	25.77
754.559	24.54
754.739	24.67
754.918	23.96
755.097	22.82
755.277	24.34
755.456	23.73
755.635	23.74
755.815	22.94
755.994	23.14
756.173	22.45
756.352	22.5
756.532	23.94
756.711	25.86
756.89	26.97
757.069	28.45
757.248	27.42
757.427	27.84
757.607	27.85
757.786	28.73
757.965	27.56
758.144	29.02
758.323	28.34
758.502	27.02
758.681	25.59
758.86	26.47
759.039	25
759.218	26.1
759.397	25.77
759.576	25.52
759.755	25.32
759.934	26.65
760.113	24.61
760.291	25.23
760.47	25.57
760.649	25.81
760.828	26.43
761.007	27.29
761.186	26.25
761.364	26.59
761.543	25.5
761.722	25.47
761.901	24.71
762.079	25.95
762.258	26.45
762.437	27.56
762.615	27.59
762.794	26.79
762.972	25.89
763.151	25.91
763.33	26.43
763.508	27.28
763.687	26.51
763.865	25.96
764.044	25.45
764.222	25.38
764.401	25.08
764.579	25.22
764.758	24.9
764.936	25.54
765.114	27.43
765.293	26.46
765.471	26.07
765.65	27.21
765.828	27.67
766.006	27.04
766.184	26.8
766.363	26.87
766.541	25.49
766.719	25.12
766.898	25.27
767.076	23.05
767.254	23.88
767.432	23.91
767.61	22.83
767.788	23.86
767.967	24.57
768.145	24.47
768.323	24.04
768.501	24.9
768.679	23.97
768.857	24.71
769.035	25.22
769.213	26.55
769.391	25.1
769.569	26.06
769.747	24.95
769.925	24.68
770.103	25.29
770.281	25.8
770.459	25.95
770.636	27.51
770.814	26.69
770.992	27.04
771.17	27.56
771.348	29.37
771.525	30.21
771.703	31.42
771.881	32.49
772.059	32.54
772.236	31.07
772.414	32.39
772.592	33.91
772.769	35.28
772.947	35.14
773.125	34.81
773.302	34.73
773.48	35.4
773.657	33.51
773.835	32.24
774.013	31.33
774.19	33.34
774.368	31.96
774.545	30.55
774.723	30.06
774.9	30.9
775.077	29.6
775.255	32.19
775.432	29.52
775.61	29.05
775.787	30.48
775.964	30.6
776.142	29.92
776.319	29.8
776.496	31.62
776.674	31.05
776.851	30.86
777.028	30.08
777.205	26.52
777.382	28.25
777.56	29.52
777.737	28.18
777.914	27.82
778.091	27.35
778.268	27.48
778.445	25.89
778.622	22.2
778.8	20.83
778.977	20.76
779.154	21.89
779.331	19.44
779.508	22.12
779.685	23.63
779.862	23.3
780.038	23.93
780.215	25.45
780.392	23.9
780.569	27.2
780.746	27.2
780.923	27.94
781.1	29.66
781.277	29.73
781.453	27.01
781.63	25.95
781.807	26.64
781.984	26.58
782.16	25.68
782.337	26.79
782.514	23.82
782.691	22.78
782.867	20.14
783.044	19.66
783.221	19.64
783.397	18.21
783.574	19.05
783.75	19.36
783.927	20.64
784.103	19.22
784.28	19.91
784.456	24.29
784.633	28.21
784.809	29.92
784.986	27.74
785.162	28
785.339	30.55
785.515	30.14
785.692	31.43
785.868	29.39
786.044	28.55
786.221	27.43
786.397	27.11
786.573	24.59
786.749	22.55
786.926	24.75
787.102	24.75
787.278	22.16
787.454	19.89
787.631	19.56
787.807	19.48
787.983	20.61
788.159	22.34
788.335	21.44
788.511	21.2
788.687	23.45
788.863	20.74
789.039	22.28
789.216	24.93
789.392	26.69
789.568	26.6
789.744	27.76
789.919	30.24
790.095	29.68
790.271	29.74
790.447	32.3
790.623	31.85
790.799	33.86
790.975	33.62
791.151	32.29
791.327	34.2
791.502	35.05
791.678	34.02
791.854	30.25
792.03	30.45
792.205	29.31
792.381	25.8
792.557	24.96
792.733	26.86
792.908	26.48
793.084	26.21
793.259	23.48
793.435	23.06
793.611	24.19
793.786	25.35
793.962	25.27
794.137	26.88
794.313	28.11
794.488	30.95
794.664	29.46
794.839	29.05
795.015	29.7
795.19	27.71
795.366	29.51
795.541	29.37
795.716	30.55
795.892	28.11
796.067	24.32
796.242	24.22
796.418	21.47
796.593	20.13
796.768	19.49
796.944	21.69
797.119	24.83
797.294	20.99
797.469	20.33
797.644	20.83
797.82	23.58
797.995	26.16
798.17	29.2
798.345	29.38
798.52	27.54
798.695	30.04
798.87	27.65
799.045	26.86
799.22	26.15
799.395	27.33
799.57	24.43
799.745	23.87
799.92	25.96
800.095	24.27
800.27	23.88
800.445	25.87
800.62	27.71
800.795	27.82
800.97	25.51
801.145	26.41
801.319	26.53
801.494	30.37
801.669	33.07
801.844	30.28
802.018	31.01
802.193	30.48
802.368	30.73
802.543	28.41
802.717	29.7
802.892	32.41
803.067	33.15
803.241	32.91
803.416	27.07
803.59	23.98
803.765	24.84
803.94	19.75
804.114	22.45
804.289	22.02
804.463	17.35
804.638	14.73
804.812	14.9
804.986	16.16
805.161	18.7
805.335	21.9
805.51	23.16
805.684	21.9
805.858	24.66
806.033	24.08
806.207	25.29
806.381	27.66
806.556	30.28
806.73	32.59
806.904	34.28
807.078	33.83
807.253	35.87
807.427	34.47
807.601	40.36
807.775	39.83
807.949	41.12
808.123	38.9
808.298	42.84
808.472	42.32
808.646	36.88
808.82	34.86
808.994	34.64
809.168	32.21
809.342	34.65
809.516	33.19
809.69	30.86
809.864	33.12
810.038	35.57
810.212	32.68
810.385	34.95
810.559	39.75
810.733	37.8
810.907	36.68
811.081	34.21
811.255	30.6
811.428	28.74
811.602	29.7
811.776	27.44
811.95	30.3
812.123	32.28
812.297	27.52
812.471	27.73
812.644	27.16
812.818	26.46
812.992	27.71
813.165	28.52
813.339	29.07
813.512	28.83
813.686	24.71
813.86	22.4
814.033	19.58
814.207	21.85
814.38	20.36
814.554	23.53
814.727	25.64
814.9	31.66
815.074	30.89
815.247	26.02
815.421	23.29
815.594	24.98
815.767	25.15
815.941	29.3
816.114	30.3
816.287	30.59
816.46	27.44
816.634	24.1
816.807	18.56
816.98	16.76
817.153	17.74
817.327	21.32
817.5	22.2
817.673	20.36
817.846	20.02
818.019	21.29
818.192	19.92
818.365	17.45
818.538	16.83
818.711	19.54
818.884	23.15
819.057	25.13
819.23	26
819.403	30.05
819.576	26.52
819.749	23.8
819.922	20.11
820.095	22.85
820.268	26.34
820.441	29.85
820.614	29.59
820.786	29.06
820.959	28.39
821.132	27.06
821.305	24.77
821.477	26.67
821.65	27.19
821.823	27.09
821.996	26.54
822.168	26.48
822.341	25.86
822.514	25.99
822.686	25.26
822.859	25.27
823.031	25.34
823.204	25.72
823.376	25.31
823.549	25.3
823.722	25.62
823.894	25.75
824.067	25.25
824.239	24.64
824.411	24.02
824.584	24.14
824.756	24.11
824.929	24.34
825.101	24.09
825.273	24.64
825.446	23.91
825.618	25.04
825.79	24.98
825.963	24.94
826.135	26.22
826.307	26.48
826.479	27.31
826.652	26.92
826.824	27.74
826.996	27.36
827.168	27.36
827.34	27.6
827.512	27.62
827.684	26.68
827.856	28.54
828.029	27.3
828.201	28.14
828.373	29.34
828.545	30.16
828.717	30.8
828.889	32.56
829.061	32.12
829.232	32.12
829.404	32.34
829.576	32.93
829.748	31.95
829.92	33.48
830.092	33.56
830.264	30.07
830.436	29.21
830.607	27.59
830.779	28.8
830.951	30.64
831.123	31.94
831.294	32.78
831.466	33.82
831.638	33.04
831.809	32.3
831.981	31.44
832.153	36.1
832.324	34.27
832.496	33.6
832.667	30.85
832.839	28.47
833.011	28.39
833.182	25.85
833.354	23.42
833.525	25.33
833.697	26.6
833.868	26.27
834.039	21.07
834.211	20.97
834.382	19.85
834.554	17.97
834.725	19.69
834.896	21.82
835.068	20.53
835.239	22.46
835.41	20.46
835.581	23.94
835.753	25.36
835.924	26.38
836.095	27.42
836.266	29.54
836.438	31.25
836.609	32.41
836.78	27.98
836.951	29.31
837.122	30.72
837.293	32.12
837.464	26.06
837.635	22.55
837.806	26.35
837.977	29.22
838.148	32.03
838.319	30.66
838.49	28.44
838.661	33.64
838.832	33.89
839.003	35.7
839.174	36.86
839.345	41.41
839.516	46.88
839.687	45.64
839.857	47.12
840.028	36.85
840.199	40.02
840.37	49.02
840.54	48.76
840.711	48.86
840.882	45.69
841.053	44.56
841.223	37.3
841.394	37.14
841.564	38.47
841.735	37.22
841.906	49.25
842.076	50.48
842.247	42.87
842.417	40.99
842.588	42.73
842.758	43.33
842.929	47.38
843.099	56.49
843.27	53.98
843.44	50.08
843.611	44.44
843.781	38.13
843.951	33.72
844.122	29.16
844.292	36.32
844.462	34.34
844.633	30.52
844.803	26.49
844.973	24.59
845.144	23.99
845.314	29.82
845.484	36.08
845.654	38.75
845.824	41.53
845.995	43.31
846.165	24.22
846.335	23.89
846.505	37.01
846.675	50.09
846.845	56.91
847.015	53.27
847.185	54.71
847.355	52.62
847.525	45.82
847.695	40.85
847.865	44.74
848.035	55.64
848.205	56.56
848.375	49.34
848.545	39.1
848.715	33.81
848.884	36.14
849.054	22.62
849.224	25.8
849.394	35.02
849.564	49.07
849.733	36.81
849.903	26.03
850.073	36.21
850.243	40.15
850.412	47.05
850.582	43.17
850.752	48.03
850.921	52.58
851.091	58.67
851.26	54.87
851.43	50.05
851.599	58.53
851.769	49.57
851.939	44.72
852.108	39.43
852.278	34.81
852.447	27.37
852.616	26.38
852.786	15.05
852.955	3.63
853.125	9.28
853.294	22.11
853.463	29.18
853.633	33.52
853.802	40.67
853.971	42.86
854.141	45.12
854.31	62.29
854.479	70.03
854.648	82.23
854.818	90.13
854.987	89.9
855.156	114.18
855.325	105.01
855.494	108.25
855.663	97.71
855.832	106.17
856.001	100.96
856.171	90.71
856.34	78.95
856.509	85.36
856.678	76.48
856.847	77.09
857.016	57.04
857.185	58.87
857.353	56.87
857.522	46.35
857.691	38.45
857.86	46.73
858.029	44.86
858.198	43.61
858.367	41.22
858.535	46.75
858.704	60.62
858.873	61.04
859.042	61.58
859.21	53.58
859.379	57.29
859.548	49.7
859.717	42.53
859.885	48.06
860.054	49.43
860.222	33.14
860.391	32.89
860.56	27.35
860.728	39.33
860.897	36.55
861.065	30.57
861.234	37.74
861.402	53.64
861.571	63.54
861.739	64
861.908	61.98
862.076	69.91
862.244	69.12
862.413	66.67
862.581	63.54
862.749	54.53
862.918	64.89
863.086	66.57
863.254	62.33
863.423	58.02
863.591	46.72
863.759	49.28
863.927	50.01
864.096	47.21
864.264	41.32
864.432	48.63
864.6	61.68
864.768	59.4
864.936	31.23
865.104	29.1
865.272	24.31
865.44	34.48
865.608	33.45
865.776	41.57
865.944	64.71
866.112	80.04
866.28	67.82
866.448	57.86
866.616	67.14
866.784	94.41
866.952	92.18
867.12	86.87
867.288	91.01
867.455	87.95
867.623	81.5
867.791	67.66
867.959	51.04
868.127	55.87
868.294	60.77
868.462	53.98
868.63	55.93
868.797	53.7
868.965	58.33
869.133	50.99
869.3	59.14
869.468	54.93
869.636	46.56
869.803	47.95
869.971	49.81
870.138	49.12
870.306	44.31
870.473	32.41
870.641	59.43
870.808	62.38
870.975	71.8
871.143	59.67
871.31	64.83
871.478	82.56
871.645	87.31
871.812	88.24
871.98	84.21
872.147	92.24
872.314	85.5
872.482	77.87
872.649	67.38
872.816	60.13
872.983	67.03
873.15	65.37
873.318	61.07
873.485	62.05
873.652	62.1
873.819	57.48
873.986	55.81
874.153	55.25
874.32	40.95
874.487	55.43
874.654	77.78
874.821	64.22
874.988	74.07
875.155	61.72
875.322	54.46
875.489	51.47
875.656	58.09
875.823	51.2
875.99	62.7
876.157	65.66
876.324	57.24
876.49	30.39
876.657	35.24
876.824	18.96
876.991	28.84
877.157	38.5
877.324	34.32
877.491	32.26
877.658	42.39
877.824	47.05
877.991	41.89
878.157	53.42
878.324	73.61
878.491	75.17
878.657	89.32
878.824	106.82
878.99	96.94
879.157	109.84
879.323	90.59
879.49	77.67
879.656	72.57
879.823	74.5
879.989	71.67
880.156	85.5
880.322	98.78
880.488	81.73
880.655	49.27
880.821	46.69
880.987	52.72
881.154	50.82
881.32	53.22
881.486	42.57
881.652	45.31
881.819	47.83
881.985	39.38
882.151	39.4
882.317	39.16
882.483	47.65
882.649	48.6
882.816	47.82
882.982	45.58
883.148	42.67
883.314	39.25
883.48	37.94
883.646	35.48
883.812	34.33
883.978	33.24
884.144	34
884.31	31.17
884.476	27.3
884.642	26.69
884.807	28.06
884.973	27.45
885.139	28.73
885.305	28.43
885.471	31.29
885.637	32.6
885.802	33.5
885.968	34.91
886.134	36.1
886.3	41.5
886.465	44.71
886.631	44.04
886.797	49.04
886.962	50.55
887.128	52.34
887.293	51.5
887.459	48.67
887.625	46.13
887.79	41.84
887.956	34.23
888.121	29.64
888.287	21.39
888.452	20.79
888.618	10.46
888.783	5.99
