Data from 2938049_Reflection_3.txt Node
Date: Sun Jul 12 14:18:09 EDT 2015
User: robert
Spectrometer: USB4E03001
Autoset integration time: false
Trigger mode: 4
Integration Time (sec): 1.000000E-1
Scans to average: 10
Electric dark correction enabled: true
Nonlinearity correction enabled: false
Boxcar width: 5
Stray light correction enabled: false
XAxis mode: Wavelengths
Stop averaging: false
Number of Pixels in Spectrum: 3648
>>>>>Begin Spectral Data<<<<<
177.566	794.29
177.785	2064.02
178.005	309.05
178.225	171.16
178.445	331.35
178.665	790.91
178.885	2077.78
179.105	-1015.58
179.324	310.24
179.544	125.41
179.764	164.95
179.984	291.08
180.204	328.61
180.423	283.03
180.643	290.67
180.863	280.19
181.083	307.95
181.302	234.42
181.522	257.37
181.742	376.86
181.961	345.39
182.181	250.44
182.401	216.6
182.621	310.17
182.84	290.36
183.06	237.98
183.279	341.1
183.499	439.73
183.719	-213.49
183.938	-3184.13
184.158	43.26
184.377	106.89
184.597	89.86
184.816	-18.05
185.036	-28.38
185.256	-41
185.475	-18.72
185.695	46.13
185.914	32.5
186.134	29.55
186.353	71.9
186.572	220.42
186.792	296.54
187.011	165.79
187.231	196.72
187.45	404.23
187.67	506.27
187.889	1672.45
188.108	1132.3
188.328	445.9
188.547	211.4
188.766	164.43
188.986	180.06
189.205	138.45
189.424	233.43
189.644	249.97
189.863	183.62
190.082	163.56
190.302	179.32
190.521	117.28
190.74	273.48
190.959	287.12
191.178	288.79
191.398	308.26
191.617	221.01
191.836	98.41
192.055	202.25
192.274	171.28
192.494	204.46
192.713	269.52
192.932	229.57
193.151	195.09
193.37	215.96
193.589	241.42
193.808	257.71
194.027	260.34
194.246	297.25
194.465	225.81
194.685	235.96
194.904	291.89
195.123	276.98
195.342	2641.62
195.561	1069.91
195.78	324.87
195.999	343.4
196.218	291.14
196.436	245.16
196.655	173.51
196.874	119.99
197.093	133.51
197.312	111.59
197.531	108.91
197.75	109.68
197.969	107.29
198.188	113.18
198.407	82.08
198.625	24.71
198.844	69.71
199.063	51.7
199.282	202.32
199.501	20.48
199.719	84.74
199.938	162.18
200.157	43.41
200.376	19.66
200.594	-10.32
200.813	-214.17
201.032	41.72
201.251	52.17
201.469	20.5
201.688	-118.47
201.907	83.71
202.125	83.34
202.344	55.19
202.563	72.47
202.781	83.86
203	77.64
203.218	94.04
203.437	69.99
203.656	51.46
203.874	45.1
204.093	50.87
204.311	53.29
204.53	62.79
204.748	83.78
204.967	83.34
205.185	120.32
205.404	103.59
205.622	88.03
205.841	95.88
206.059	82.32
206.278	86.44
206.496	139.93
206.715	215.73
206.933	182.05
207.151	198.43
207.37	243.67
207.588	1170.67
207.806	1942.48
208.025	818.53
208.243	1695.4
208.461	-652.53
208.68	-668.15
208.898	-787.53
209.116	-410.42
209.335	-278.77
209.553	-230.42
209.771	-523.78
209.989	1461.94
210.208	-303.23
210.426	-294.43
210.644	-200.31
210.862	-3047.03
211.081	2185.52
211.299	552.93
211.517	228.09
211.735	281.31
211.953	158.92
212.171	167.6
212.39	153.38
212.608	127.17
212.826	110.06
213.044	91.34
213.262	96.32
213.48	115.37
213.698	80.52
213.916	134.32
214.134	107.59
214.352	107.62
214.57	115.69
214.788	101.44
215.006	98.19
215.224	67.64
215.442	65.87
215.66	77.16
215.878	53.02
216.096	87.65
216.314	-21.44
216.532	-42.39
216.75	-74.64
216.968	-56.39
217.185	-49.31
217.403	3.63
217.621	45.28
217.839	53.4
218.057	70.68
218.275	73.82
218.492	59.49
218.71	86.54
218.928	111.7
219.146	117.76
219.363	123.58
219.581	114.94
219.799	125.59
220.017	84.92
220.234	98.64
220.452	105.82
220.67	97.26
220.887	89.79
221.105	61.05
221.323	54.98
221.54	9.06
221.758	-7.23
221.976	35.18
222.193	35.02
222.411	49.85
222.629	45.98
222.846	40.32
223.064	48.29
223.281	67.87
223.499	70.66
223.716	60.99
223.934	78.14
224.151	93.75
224.369	57.38
224.586	76.27
224.804	52.66
225.021	60.53
225.239	51.14
225.456	66.47
225.674	53.59
225.891	34.9
226.108	46.26
226.326	26.35
226.543	27.58
226.76	38.09
226.978	30.43
227.195	41.31
227.413	22.63
227.63	28.56
227.847	14.21
228.064	18.53
228.282	17.86
228.499	12.82
228.716	16.21
228.934	17.3
229.151	12.47
229.368	11.82
229.585	7.9
229.802	10.16
230.02	8.13
230.237	13.15
230.454	8.92
230.671	9.45
230.888	10.69
231.105	11.59
231.323	11.14
231.54	14.62
231.757	14.32
231.974	21.95
232.191	23
232.408	22.71
232.625	19.9
232.842	25.79
233.059	23.65
233.276	23.48
233.493	26.63
233.71	25.45
233.927	28.94
234.144	32.9
234.361	34.69
234.578	35.21
234.795	34.99
235.012	25.32
235.229	15.53
235.446	16.55
235.663	23.72
235.879	21.87
236.096	27.57
236.313	20.28
236.53	22.65
236.747	12.26
236.964	12.53
237.181	10.26
237.397	26.26
237.614	27.96
237.831	31.39
238.048	30.86
238.264	30.22
238.481	24.85
238.698	32.86
238.915	25.87
239.131	30.91
239.348	25.4
239.565	26.11
239.781	17.93
239.998	26
240.215	25.99
240.431	23.03
240.648	22.64
240.865	23.6
241.081	20.37
241.298	21.82
241.514	20.17
241.731	20.85
241.947	19.36
242.164	20.3
242.38	17
242.597	16.32
242.814	17.98
243.03	16.33
243.246	14.95
243.463	13.5
243.679	12.68
243.896	11.73
244.112	10.42
244.329	8.11
244.545	9.24
244.762	10.91
244.978	10.54
245.194	8.04
245.411	12.58
245.627	11.53
245.843	13.09
246.06	14.19
246.276	15.6
246.492	14.67
246.709	16.01
246.925	13.35
247.141	13.37
247.357	13.69
247.574	12.02
247.79	11.01
248.006	10.94
248.222	10.64
248.439	9.73
248.655	8.84
248.871	9.22
249.087	8.7
249.303	10.84
249.519	9.91
249.736	9.82
249.952	12.39
250.168	13.47
250.384	13.72
250.6	15.67
250.816	17.56
251.032	17.46
251.248	16.67
251.464	14.77
251.68	11.18
251.896	10.4
252.112	10.1
252.328	9.17
252.544	7.27
252.76	9.25
252.976	8.76
253.192	8.22
253.408	8.69
253.624	7.62
253.84	8.15
254.056	9.98
254.272	11.22
254.487	15.79
254.703	16.45
254.919	18.26
255.135	16.12
255.351	14.73
255.567	13.09
255.782	16.93
255.998	19.01
256.214	18.81
256.43	21.46
256.646	19.09
256.861	15.04
257.077	13.4
257.293	12.77
257.508	10.61
257.724	9.2
257.94	10.6
258.155	5.89
258.371	5.16
258.587	6.93
258.802	6.58
259.018	8.67
259.234	7.53
259.449	7.66
259.665	7.39
259.88	8.2
260.096	8.76
260.312	7.69
260.527	8.71
260.743	9.88
260.958	8.88
261.174	7.5
261.389	6.74
261.605	7.9
261.82	8.35
262.036	8.33
262.251	8.32
262.466	6.64
262.682	9
262.897	8.22
263.113	8.26
263.328	9.83
263.543	10.8
263.759	12.21
263.974	10.41
264.189	10.24
264.405	12.92
264.62	11.91
264.835	13.97
265.051	11.93
265.266	12.42
265.481	11.17
265.696	10.93
265.912	10.45
266.127	9.6
266.342	6.83
266.557	7.95
266.773	4.68
266.988	3.55
267.203	3.74
267.418	4.39
267.633	3.37
267.848	4.28
268.064	4.64
268.279	5.2
268.494	3.95
268.709	5.84
268.924	4.96
269.139	7.74
269.354	11.26
269.569	10.17
269.784	8.44
269.999	10.75
270.214	10.23
270.429	9.48
270.644	10.37
270.859	12.54
271.074	12.57
271.289	11.28
271.504	8.76
271.719	6.08
271.934	6.41
272.149	7.56
272.363	7.83
272.578	8.44
272.793	8.01
273.008	6.27
273.223	5.09
273.438	5.77
273.653	8.09
273.867	9.03
274.082	11.47
274.297	13.42
274.512	13.97
274.726	12.68
274.941	11.02
275.156	12.33
275.371	14.44
275.585	15.36
275.8	13.21
276.015	11.18
276.229	12.76
276.444	11.61
276.659	9.82
276.873	8.62
277.088	10.02
277.302	12.76
277.517	11.93
277.732	11.14
277.946	10.81
278.161	13.45
278.375	12.69
278.59	11.59
278.804	11.96
279.019	12.38
279.233	9.82
279.448	8.56
279.662	2.92
279.877	1.91
280.091	1.51
280.306	0.42
280.52	-0.7
280.735	1.25
280.949	2.03
281.163	2.09
281.378	3
281.592	6.14
281.806	6.7
282.021	6.98
282.235	8.57
282.449	9.29
282.664	8.92
282.878	9.31
283.092	9.68
283.307	7.91
283.521	7.32
283.735	6.64
283.949	8.14
284.164	6.34
284.378	7.56
284.592	6.32
284.806	5.68
285.02	7.01
285.234	7
285.449	6.3
285.663	6.96
285.877	7.27
286.091	8.75
286.305	7.19
286.519	7.79
286.733	8.72
286.947	8.56
287.161	8.59
287.375	9.65
287.589	9.56
287.803	10.7
288.017	11.51
288.231	11.71
288.445	9.77
288.659	10.1
288.873	9.92
289.087	9.03
289.301	9.61
289.515	10.52
289.729	8.98
289.943	8.64
290.157	7.58
290.371	7.79
290.584	9.37
290.798	10.03
291.012	9.97
291.226	10.65
291.44	10.66
291.654	11.05
291.867	9.87
292.081	11.02
292.295	11.49
292.509	11.85
292.722	13.03
292.936	11.72
293.15	9.46
293.364	10.76
293.577	12.03
293.791	13.68
294.005	15.59
294.218	16.59
294.432	14.43
294.645	16.01
294.859	16.93
295.073	15.64
295.286	17.05
295.5	18.35
295.713	17.75
295.927	17.24
296.14	16.87
296.354	15.05
296.568	14.68
296.781	16.16
296.994	14.68
297.208	13.72
297.421	14.64
297.635	14.04
297.848	13.91
298.062	14.12
298.275	14.58
298.489	12.88
298.702	13.05
298.915	13.01
299.129	13.4
299.342	13.55
299.555	14.62
299.769	14.3
299.982	13.15
300.195	15.37
300.409	12.92
300.622	11.86
300.835	12.87
301.048	12.9
301.262	14.72
301.475	12.82
301.688	13.99
301.901	13.66
302.115	13.35
302.328	13.96
302.541	13.42
302.754	16.61
302.967	16.72
303.18	17.63
303.393	18.82
303.607	16.74
303.82	18.45
304.033	16.44
304.246	16.72
304.459	17.04
304.672	18.44
304.885	17.82
305.098	17.98
305.311	18.22
305.524	17.38
305.737	15.5
305.95	15.45
306.163	15.7
306.376	18.45
306.589	17.54
306.802	16.77
307.015	16.62
307.228	14.31
307.44	13.33
307.653	12.74
307.866	14.37
308.079	17.17
308.292	16.86
308.505	15.57
308.718	15.99
308.93	15.68
309.143	14.43
309.356	12.42
309.569	15.37
309.781	15.76
309.994	16.91
310.207	17.68
310.42	16.48
310.632	18.71
310.845	18.89
311.058	19.08
311.27	20.22
311.483	21.85
311.696	22.63
311.908	21.71
312.121	21.75
312.333	21.3
312.546	20.55
312.759	19.65
312.971	17.92
313.184	18.45
313.396	15.99
313.609	14.2
313.821	12.94
314.034	11.59
314.246	12.71
314.459	12.27
314.671	12.35
314.884	11.3
315.096	12.64
315.309	12.99
315.521	13.33
315.733	15.61
315.946	16.96
316.158	18.19
316.371	18.75
316.583	17.88
316.795	18.97
317.008	19.21
317.22	19.04
317.432	20.01
317.644	22.35
317.857	21.8
318.069	20.47
318.281	21.18
318.494	22.72
318.706	21.41
318.918	22.57
319.13	22.1
319.342	22.63
319.555	21.43
319.767	19.12
319.979	17.07
320.191	17.44
320.403	18.23
320.615	15.83
320.827	12.41
321.039	15.19
321.252	13.54
321.464	14.71
321.676	15.92
321.888	18.46
322.1	18.82
322.312	20.25
322.524	19.49
322.736	19.79
322.948	21.62
323.16	21.69
323.372	21.53
323.584	22.47
323.796	21.07
324.007	19.06
324.219	17.5
324.431	18.68
324.643	19.33
324.855	21
325.067	22.14
325.279	21.88
325.491	23.09
325.702	24.17
325.914	24.79
326.126	24.41
326.338	25.21
326.55	25.59
326.761	26.63
326.973	25.25
327.185	24.27
327.396	22.79
327.608	23.83
327.82	23.73
328.032	22.87
328.243	22.8
328.455	24.06
328.666	27.23
328.878	28.79
329.09	29.2
329.301	30.01
329.513	29.96
329.725	31.64
329.936	32.19
330.148	33.19
330.359	33.59
330.571	34.22
330.782	35.84
330.994	34.67
331.205	36.64
331.417	36.39
331.628	36.36
331.84	37.85
332.051	38.78
332.262	39.71
332.474	41.19
332.685	43.34
332.897	44.28
333.108	44.22
333.319	45.4
333.531	46.52
333.742	47.91
333.953	49.49
334.165	49.74
334.376	49.33
334.587	50.1
334.799	51.8
335.01	50.77
335.221	50.61
335.432	50.97
335.644	50.5
335.855	49.22
336.066	50.38
336.277	51.01
336.488	51.58
336.7	52.77
336.911	51.86
337.122	50.52
337.333	51.23
337.544	51.49
337.755	51.57
337.966	51.5
338.177	52.35
338.388	51.41
338.599	50.85
338.811	52.55
339.022	52.91
339.233	55.15
339.444	55.21
339.655	56.59
339.866	56.35
340.076	56.91
340.287	57.43
340.498	56.32
340.709	56.85
340.92	57.22
341.131	56.37
341.342	56.35
341.553	55.53
341.764	55.8
341.975	54.88
342.185	55.76
342.396	55.29
342.607	55.99
342.818	57.8
343.029	58.24
343.239	59.28
343.45	59.05
343.661	59.45
343.872	59.87
344.082	60.2
344.293	59.92
344.504	60.58
344.714	61.62
344.925	61.96
345.136	61.3
345.346	60.85
345.557	60.69
345.768	61.24
345.978	60.6
346.189	61
346.399	61.21
346.61	62.49
346.821	61.88
347.031	61.9
347.242	60.5
347.452	59.77
347.663	59.91
347.873	59.48
348.084	58.71
348.294	59.09
348.504	57.13
348.715	56.53
348.925	56.18
349.136	55.76
349.346	55.31
349.557	55.53
349.767	56.97
349.977	56.31
350.188	57.37
350.398	58.35
350.608	57.98
350.819	58.83
351.029	58.9
351.239	57.44
351.449	57.97
351.66	57.88
351.87	57.39
352.08	56.02
352.29	55.55
352.501	54.27
352.711	53.66
352.921	53.75
353.131	54.23
353.341	53.93
353.552	55.51
353.762	56.46
353.972	57.01
354.182	57.59
354.392	58.59
354.602	59.85
354.812	60.91
355.022	61.29
355.232	61.17
355.442	61.75
355.652	61.4
355.862	60.95
356.072	60.31
356.282	60
356.492	60.52
356.702	60.29
356.912	59.92
357.122	58.86
357.332	59.56
357.542	60.24
357.752	59.72
357.962	60.96
358.171	61.41
358.381	60.99
358.591	61.81
358.801	61.64
359.011	62.22
359.221	62.11
359.43	62.55
359.64	61.4
359.85	61.41
360.06	61.29
360.269	60.68
360.479	60.18
360.689	59.84
360.899	58.9
361.108	59.08
361.318	58.54
361.528	58.75
361.737	58.46
361.947	58.27
362.156	57.2
362.366	56.69
362.576	56.92
362.785	56.72
362.995	57.17
363.204	57.2
363.414	56.23
363.623	56.13
363.833	54.97
364.042	55.3
364.252	55.78
364.461	56.8
364.671	56.43
364.88	55.69
365.09	55.86
365.299	55.72
365.509	55.71
365.718	55.75
365.927	55.47
366.137	56.31
366.346	56.13
366.555	56.05
366.765	54.83
366.974	55.4
367.183	56.07
367.393	55.58
367.602	55.03
367.811	53.85
368.021	54.47
368.23	54.33
368.439	54.49
368.648	53.43
368.857	52.49
369.067	52.82
369.276	52.15
369.485	51.43
369.694	51.11
369.903	51.56
370.112	51.97
370.321	50.87
370.531	50.38
370.74	49.48
370.949	49.01
371.158	49.21
371.367	48.97
371.576	49.1
371.785	48.73
371.994	48.32
372.203	47.92
372.412	48.06
372.621	48.82
372.83	48.21
373.039	48.01
373.248	48.25
373.457	48.11
373.666	48.47
373.874	47.58
374.083	47.11
374.292	47.15
374.501	46.97
374.71	46.73
374.919	46.54
375.128	46.77
375.336	47.57
375.545	47.53
375.754	47.35
375.963	47.18
376.171	47.29
376.38	47.96
376.589	48.23
376.798	47.85
377.006	48.1
377.215	47.45
377.424	48.23
377.632	47.62
377.841	46.99
378.05	47.63
378.258	46.86
378.467	47.18
378.675	46.59
378.884	46
379.093	46.3
379.301	45.25
379.51	45.27
379.718	44.62
379.927	44.64
380.135	45.23
380.344	44.69
380.552	44.78
380.761	44.45
380.969	44.55
381.177	45.02
381.386	44.44
381.594	44.83
381.803	44.42
382.011	44
382.219	43.27
382.428	42.82
382.636	42.15
382.845	42.01
383.053	41.86
383.261	41.22
383.469	41.03
383.678	40.52
383.886	39.98
384.094	40.11
384.302	39.78
384.511	39.41
384.719	39.31
384.927	39.48
385.135	39.06
385.343	38.86
385.552	38.86
385.76	38.07
385.968	38.08
386.176	37.94
386.384	37.14
386.592	36.85
386.8	37.09
387.008	36.76
387.216	35.95
387.424	36.03
387.633	35.76
387.841	35.39
388.049	35.51
388.257	35.51
388.465	35.44
388.672	35.8
388.88	36.07
389.088	35.85
389.296	35.65
389.504	35.83
389.712	35.68
389.92	35.33
390.128	35.63
390.336	35.41
390.544	35.35
390.751	34.86
390.959	34.66
391.167	34.58
391.375	34.46
391.583	34.58
391.79	34.41
391.998	34.49
392.206	34.84
392.414	34.41
392.621	34.54
392.829	34.48
393.037	34.97
393.244	34.94
393.452	34.81
393.66	34.69
393.867	34.59
394.075	34.79
394.283	34.93
394.49	34.94
394.698	34.84
394.905	34.39
395.113	34.36
395.32	33.73
395.528	33.83
395.735	33.82
395.943	33.91
396.15	33.89
396.358	33.71
396.565	33.46
396.773	33.18
396.98	33.3
397.188	33.6
397.395	33.35
397.602	33.84
397.81	33.68
398.017	33.53
398.225	33.66
398.432	33.47
398.639	33.48
398.847	33.62
399.054	33.19
399.261	32.95
399.468	33.02
399.676	33.24
399.883	33.17
400.09	33.2
400.297	33.46
400.505	33.06
400.712	33.25
400.919	33.35
401.126	33.12
401.333	33.35
401.54	33.54
401.748	33.64
401.955	33.39
402.162	33.54
402.369	33.46
402.576	33.18
402.783	33.83
402.99	33.58
403.197	33.63
403.404	33.56
403.611	33.74
403.818	33.67
404.025	33.46
404.232	33.61
404.439	33.64
404.646	33.61
404.853	33.6
405.06	33.32
405.267	33.69
405.474	33.51
405.681	33.55
405.887	33.63
406.094	33.53
406.301	33.55
406.508	33.2
406.715	32.84
406.922	32.66
407.128	32.77
407.335	32.78
407.542	32.71
407.749	32.61
407.955	32.69
408.162	32.33
408.369	32.65
408.575	32.69
408.782	32.76
408.989	33.02
409.195	33.01
409.402	32.91
409.609	32.72
409.815	32.52
410.022	32.95
410.228	32.86
410.435	33.04
410.642	32.64
410.848	32.6
411.055	32.52
411.261	32.52
411.468	32.78
411.674	33.01
411.881	32.95
412.087	33.15
412.294	32.63
412.5	32.48
412.706	32.57
412.913	32.91
413.119	32.95
413.326	33.18
413.532	33.04
413.738	32.68
413.945	32.03
414.151	31.84
414.357	31.56
414.564	31.85
414.77	31.98
414.976	31.76
415.182	31.68
415.389	31.61
415.595	31.53
415.801	31.47
416.007	31.63
416.214	31.97
416.42	31.83
416.626	31.92
416.832	31.72
417.038	31.43
417.244	31.56
417.45	31.38
417.657	31.13
417.863	31.3
418.069	31.41
418.275	31.22
418.481	31.12
418.687	31.22
418.893	31
419.099	30.89
419.305	30.92
419.511	30.76
419.717	30.87
419.923	30.88
420.129	30.64
420.335	30.58
420.541	30.61
420.746	30.49
420.952	30.56
421.158	30.58
421.364	30.68
421.57	30.52
421.776	30.46
421.982	30.45
422.187	30.4
422.393	30.48
422.599	30.35
422.805	30.36
423.01	30.46
423.216	30.52
423.422	30.39
423.628	30.28
423.833	30.39
424.039	30.41
424.245	30.35
424.45	30.39
424.656	30.28
424.862	30.34
425.067	30.32
425.273	30.31
425.478	30.12
425.684	30.21
425.889	30.16
426.095	30.3
426.301	30.22
426.506	30.11
426.712	30.14
426.917	30.05
427.123	30.03
427.328	29.95
427.533	29.96
427.739	29.97
427.944	29.87
428.15	29.96
428.355	29.67
428.561	29.77
428.766	29.71
428.971	29.77
429.177	29.85
429.382	29.7
429.587	29.84
429.793	29.64
429.998	29.85
430.203	30.18
430.408	30.15
430.614	30.24
430.819	30.37
431.024	30.32
431.229	30.1
431.434	30.09
431.64	30.17
431.845	30.01
432.05	30.21
432.255	30.02
432.46	29.77
432.665	29.71
432.87	29.74
433.076	29.45
433.281	29.62
433.486	29.84
433.691	29.95
433.896	29.73
434.101	29.84
434.306	29.67
434.511	29.7
434.716	29.75
434.921	29.81
435.126	29.84
435.331	29.84
435.535	29.94
435.74	29.7
435.945	29.59
436.15	29.58
436.355	29.33
436.56	29.31
436.765	29.25
436.97	29.3
437.174	29.61
437.379	29.77
437.584	29.78
437.789	29.34
437.993	29.44
438.198	29.61
438.403	29.76
438.608	29.79
438.812	29.97
439.017	29.96
439.222	29.84
439.426	29.61
439.631	29.31
439.836	29.39
440.04	29.65
440.245	29.63
440.45	29.43
440.654	29.37
440.859	29.5
441.063	29.34
441.268	29.37
441.472	29.33
441.677	29.32
441.881	29.47
442.086	29.39
442.29	29.22
442.495	29.27
442.699	29.3
442.904	29.46
443.108	29.45
443.312	29.63
443.517	29.51
443.721	29.5
443.925	29.53
444.13	29.45
444.334	29.3
444.538	29.45
444.743	29.23
444.947	29.28
445.151	29.25
445.356	29.21
445.56	29.15
445.764	29.13
445.968	29.17
446.173	29.12
446.377	29.1
446.581	29.29
446.785	29.18
446.989	29.27
447.193	29.21
447.398	29.16
447.602	29.06
447.806	29.02
448.01	28.96
448.214	28.82
448.418	28.71
448.622	28.67
448.826	28.58
449.03	28.53
449.234	28.38
449.438	28.34
449.642	28.13
449.846	28.34
450.05	28.21
450.254	28.29
450.458	28.35
450.662	28.28
450.866	28.27
451.069	28.15
451.273	28.21
451.477	28.34
451.681	28.3
451.885	28.49
452.089	28.34
452.292	28.37
452.496	28.41
452.7	28.53
452.904	28.63
453.107	28.43
453.311	28.48
453.515	28.36
453.719	28.19
453.922	28.25
454.126	28.12
454.33	28.08
454.533	27.97
454.737	27.71
454.94	27.71
455.144	27.73
455.348	27.91
455.551	28.02
455.755	28.08
455.958	28.19
456.162	28.28
456.365	28.43
456.569	28.43
456.772	28.53
456.976	28.8
457.179	28.67
457.383	28.53
457.586	28.48
457.79	28.28
457.993	28.37
458.196	28.34
458.4	28.35
458.603	28.15
458.807	28.18
459.01	28.33
459.213	28.36
459.417	28.33
459.62	28.59
459.823	28.62
460.026	28.74
460.23	28.68
460.433	28.68
460.636	28.6
460.839	28.78
461.042	28.72
461.246	28.65
461.449	28.53
461.652	28.6
461.855	28.31
462.058	28.19
462.261	28.1
462.464	28.12
462.668	28.4
462.871	28.43
463.074	28.33
463.277	28.45
463.48	28.16
463.683	28.32
463.886	28.41
464.089	28.45
464.292	28.53
464.495	28.64
464.698	28.72
464.901	28.47
465.104	28.52
465.306	28.68
465.509	28.57
465.712	28.82
465.915	28.63
466.118	28.54
466.321	28.7
466.524	28.83
466.726	28.9
466.929	28.93
467.132	28.96
467.335	28.89
467.538	28.96
467.74	29.09
467.943	28.97
468.146	29
468.348	29.07
468.551	28.88
468.754	28.88
468.956	28.61
469.159	28.47
469.362	28.63
469.564	28.68
469.767	28.52
469.969	28.48
470.172	28.73
470.375	28.83
470.577	28.94
470.78	29.22
470.982	29.28
471.185	29.29
471.387	29.53
471.59	29.58
471.792	29.64
471.995	29.67
472.197	29.71
472.399	29.5
472.602	29.69
472.804	29.55
473.007	29.39
473.209	29.32
473.411	29.54
473.614	29.5
473.816	29.33
474.018	29.28
474.22	29.38
474.423	29.39
474.625	29.38
474.827	29.15
475.03	29.22
475.232	29.28
475.434	29.32
475.636	29.22
475.838	29.24
476.04	29.13
476.243	29.15
476.445	29.15
476.647	29.06
476.849	29.38
477.051	29.57
477.253	29.5
477.455	29.3
477.657	29.33
477.859	29.28
478.061	29.2
478.263	29.39
478.465	29.36
478.667	29.36
478.869	29.55
479.071	29.48
479.273	29.42
479.475	29.49
479.677	29.61
479.879	29.43
480.081	29.55
480.283	29.63
480.485	29.73
480.686	29.72
480.888	29.46
481.09	29.35
481.292	29.31
481.494	29.2
481.695	29.1
481.897	29.02
482.099	29.03
482.301	29
482.502	28.91
482.704	28.8
482.906	28.75
483.107	28.74
483.309	28.71
483.511	28.69
483.712	28.71
483.914	28.67
484.115	28.71
484.317	28.73
484.519	28.74
484.72	28.66
484.922	28.65
485.123	28.62
485.325	28.66
485.526	28.65
485.728	28.64
485.929	28.65
486.131	28.71
486.332	28.78
486.534	28.75
486.735	28.69
486.936	28.78
487.138	28.83
487.339	28.91
487.541	28.91
487.742	28.95
487.943	29
488.144	28.93
488.346	28.9
488.547	28.87
488.748	28.94
488.95	28.94
489.151	28.93
489.352	28.94
489.553	28.83
489.755	28.89
489.956	28.82
490.157	28.78
490.358	28.94
490.559	28.94
490.76	28.94
490.961	28.89
491.163	28.95
491.364	28.99
491.565	28.92
491.766	29
491.967	28.94
492.168	28.89
492.369	28.9
492.57	28.85
492.771	28.98
492.972	28.94
493.173	29.01
493.374	29
493.575	29.09
493.776	29.11
493.976	29.19
494.177	29.26
494.378	29.61
494.579	29.61
494.78	29.67
494.981	29.63
495.182	29.74
495.382	29.88
495.583	29.82
495.784	29.96
495.985	29.99
496.185	30
496.386	29.99
496.587	29.87
496.788	29.84
496.988	29.96
497.189	29.86
497.39	29.67
497.59	29.5
497.791	29.63
497.992	29.57
498.192	29.6
498.393	29.71
498.593	29.73
498.794	29.75
498.994	29.85
499.195	29.68
499.395	29.86
499.596	30.08
499.796	30.08
499.997	30.21
500.197	30.11
500.398	30.31
500.598	30.22
500.799	30.35
500.999	30.42
501.199	30.47
501.4	30.68
501.6	30.59
501.801	30.67
502.001	30.86
502.201	30.8
502.402	30.96
502.602	30.82
502.802	30.91
503.002	31.16
503.203	31.3
503.403	31.51
503.603	31.48
503.803	31.7
504.003	31.83
504.204	31.91
504.404	31.89
504.604	32.05
504.804	32.2
505.004	32.21
505.204	32.21
505.404	32.25
505.604	32.32
505.804	32.54
506.005	32.65
506.205	32.64
506.405	32.72
506.605	32.87
506.805	32.82
507.005	32.93
507.204	33.22
507.404	33.08
507.604	33.03
507.804	33.06
508.004	33.11
508.204	32.95
508.404	32.91
508.604	32.98
508.804	33.1
509.003	33.26
509.203	33.32
509.403	33.23
509.603	33.4
509.803	33.44
510.002	33.48
510.202	33.56
510.402	33.76
510.602	33.93
510.801	34.08
511.001	33.99
511.201	33.99
511.4	34.03
511.6	34.25
511.8	34.25
511.999	34.52
512.199	34.6
512.398	34.55
512.598	34.62
512.797	34.91
512.997	35.04
513.197	35.19
513.396	35.28
513.596	35.33
513.795	35.2
513.994	35.31
514.194	35.33
514.393	35.28
514.593	35.48
514.792	35.77
514.992	35.64
515.191	35.38
515.39	35.39
515.59	35.47
515.789	35.68
515.988	35.99
516.188	36.11
516.387	36.17
516.586	36.26
516.786	36.21
516.985	36.27
517.184	36.34
517.383	36.53
517.582	36.73
517.782	36.68
517.981	36.71
518.18	36.61
518.379	36.58
518.578	36.66
518.777	36.86
518.976	36.95
519.176	36.86
519.375	36.95
519.574	36.98
519.773	37.1
519.972	37.25
520.171	37.36
520.37	37.44
520.569	37.57
520.768	37.63
520.967	37.46
521.166	37.49
521.365	37.63
521.564	37.64
521.762	37.76
521.961	37.77
522.16	37.81
522.359	37.69
522.558	37.87
522.757	37.99
522.956	38.03
523.154	38.2
523.353	38.35
523.552	38.31
523.751	38.42
523.949	38.58
524.148	38.66
524.347	38.84
524.546	39.02
524.744	38.95
524.943	38.94
525.142	38.99
525.34	39.08
525.539	39.02
525.737	38.94
525.936	38.86
526.135	38.72
526.333	38.68
526.532	38.73
526.73	38.76
526.929	38.85
527.127	38.97
527.326	39
527.524	39.08
527.723	39.23
527.921	39.33
528.12	39.4
528.318	39.56
528.516	39.6
528.715	39.6
528.913	39.55
529.112	39.61
529.31	39.63
529.508	39.69
529.707	39.7
529.905	39.68
530.103	39.71
530.301	39.73
530.5	39.72
530.698	39.82
530.896	39.84
531.094	40.01
531.293	40.01
531.491	39.99
531.689	40.04
531.887	40.1
532.085	40.01
532.283	40.05
532.481	40.25
532.68	40.27
532.878	40.31
533.076	40.36
533.274	40.37
533.472	40.48
533.67	40.53
533.868	40.46
534.066	40.56
534.264	40.7
534.462	40.73
534.66	40.62
534.858	40.67
535.056	40.57
535.253	40.64
535.451	40.6
535.649	40.61
535.847	40.58
536.045	40.68
536.243	40.6
536.441	40.67
536.638	40.78
536.836	40.94
537.034	40.93
537.232	41.05
537.43	41.08
537.627	41.19
537.825	41.13
538.023	41.2
538.22	41.33
538.418	41.39
538.616	41.34
538.813	41.44
539.011	41.44
539.209	41.54
539.406	41.47
539.604	41.42
539.801	41.49
539.999	41.5
540.196	41.5
540.394	41.52
540.591	41.48
540.789	41.42
540.986	41.32
541.184	41.26
541.381	41.27
541.579	41.3
541.776	41.2
541.974	41.16
542.171	41.11
542.368	41.14
542.566	41.1
542.763	41.12
542.96	41.25
543.158	41.3
543.355	41.44
543.552	41.45
543.75	41.56
543.947	41.7
544.144	41.76
544.341	41.85
544.539	41.93
544.736	42.02
544.933	42.14
545.13	42.14
545.327	42.26
545.524	42.28
545.722	42.29
545.919	42.12
546.116	42.12
546.313	42.19
546.51	42.34
546.707	42.39
546.904	42.37
547.101	42.3
547.298	42.31
547.495	42.21
547.692	42.12
547.889	42.15
548.086	42.37
548.283	42.47
548.48	42.48
548.677	42.39
548.874	42.39
549.07	42.22
549.267	42.41
549.464	42.3
549.661	42.37
549.858	42.56
550.055	42.42
550.251	42.24
550.448	42.34
550.645	42.34
550.842	42.31
551.038	42.32
551.235	42.64
551.432	42.5
551.628	42.58
551.825	42.63
552.022	42.31
552.218	42.44
552.415	42.37
552.612	42.16
552.808	42.23
553.005	42.33
553.201	42.34
553.398	42.27
553.594	42.31
553.791	42.38
553.987	42.44
554.184	42.72
554.38	42.65
554.577	42.79
554.773	43.03
554.97	43.02
555.166	43.03
555.362	42.98
555.559	43
555.755	42.86
555.952	42.97
556.148	43.09
556.344	43.13
556.541	43.27
556.737	43.31
556.933	43.28
557.129	43.39
557.326	43.5
557.522	43.61
557.718	43.47
557.914	43.49
558.11	43.59
558.307	43.56
558.503	43.62
558.699	43.74
558.895	43.93
559.091	43.93
559.287	43.77
559.483	43.59
559.679	43.42
559.876	43.47
560.072	43.67
560.268	43.48
560.464	43.07
560.66	42.81
560.856	42.78
561.052	42.55
561.247	42.45
561.443	42.5
561.639	42.62
561.835	42.98
562.031	42.92
562.227	42.84
562.423	42.99
562.619	43.23
562.815	43.22
563.01	43.11
563.206	43.15
563.402	43.35
563.598	43.43
563.793	43.5
563.989	43.29
564.185	43.31
564.381	43.43
564.576	43.12
564.772	43.25
564.968	43.19
565.163	43.17
565.359	43.31
565.555	43.2
565.75	43.22
565.946	43.1
566.141	43.15
566.337	43.18
566.532	43.16
566.728	43.31
566.923	43.29
567.119	43.53
567.314	43.65
567.51	43.54
567.705	43.67
567.901	43.56
568.096	43.75
568.292	43.65
568.487	43.82
568.682	43.84
568.878	43.89
569.073	43.97
569.268	43.89
569.464	43.82
569.659	43.93
569.854	44
570.05	44.11
570.245	43.87
570.44	43.89
570.635	43.79
570.831	43.94
571.026	44.01
571.221	43.94
571.416	43.85
571.611	44.09
571.806	44.13
572.002	44.24
572.197	44.36
572.392	44.42
572.587	44.42
572.782	44.38
572.977	44.33
573.172	44.22
573.367	44.15
573.562	44.5
573.757	44.39
573.952	44.39
574.147	44.15
574.342	44.19
574.537	44.18
574.732	44.31
574.927	44.45
575.121	44.49
575.316	44.45
575.511	44.55
575.706	44.12
575.901	43.92
576.096	43.7
576.29	43.68
576.485	43.59
576.68	43.73
576.875	43.67
577.069	43.59
577.264	43.5
577.459	43.63
577.654	43.57
577.848	43.62
578.043	43.99
578.238	44.2
578.432	44.22
578.627	44.14
578.821	43.93
579.016	43.93
579.21	43.92
579.405	43.82
579.6	43.82
579.794	43.83
579.989	44.18
580.183	44.07
580.378	44.06
580.572	44.16
580.766	44.25
580.961	44.37
581.155	44.49
581.35	44.53
581.544	44.62
581.738	44.53
581.933	44.65
582.127	44.66
582.321	44.39
582.516	44.24
582.71	44.23
582.904	44.21
583.099	44.39
583.293	44.43
583.487	44.53
583.681	44.45
583.875	44.6
584.07	44.71
584.264	44.73
584.458	45.06
584.652	45.12
584.846	44.91
585.04	44.55
585.234	44.59
585.428	44.67
585.623	44.69
585.817	44.89
586.011	44.87
586.205	44.78
586.399	44.62
586.593	44.67
586.787	44.83
586.981	45.04
587.174	45.24
587.368	45.12
587.562	44.8
587.756	44.76
587.95	44.7
588.144	44.4
588.338	44.35
588.532	44.06
588.725	43.96
588.919	44.16
589.113	44.38
589.307	44.35
589.501	44.24
589.694	44.43
589.888	44.3
590.082	44.45
590.275	44.86
590.469	44.7
590.663	45.13
590.856	45.02
591.05	44.66
591.244	44.31
591.437	44.48
591.631	44.57
591.824	44.55
592.018	44.72
592.212	44.34
592.405	44.29
592.599	44.42
592.792	44.24
592.986	44.44
593.179	44.42
593.372	44.7
593.566	44.61
593.759	44.38
593.953	44.33
594.146	44.43
594.339	44.64
594.533	44.7
594.726	44.89
594.92	44.95
595.113	44.98
595.306	45.1
595.499	44.93
595.693	45.13
595.886	45.32
596.079	45.35
596.272	45.19
596.466	45.15
596.659	44.82
596.852	44.69
597.045	44.73
597.238	44.6
597.431	44.61
597.624	44.41
597.818	44.11
598.011	43.94
598.204	43.83
598.397	43.99
598.59	44.07
598.783	44.2
598.976	44.11
599.169	44.05
599.362	44.25
599.555	44.37
599.748	44.45
599.941	44.83
600.134	44.92
600.326	45.37
600.519	45.14
600.712	45.02
600.905	45.18
601.098	45.31
601.291	45.22
601.483	44.91
601.676	44.78
601.869	45.07
602.062	45
602.255	44.9
602.447	44.72
602.64	44.87
602.833	44.83
603.025	44.82
603.218	44.88
603.411	44.89
603.603	45
603.796	44.98
603.989	44.88
604.181	44.92
604.374	45.2
604.566	44.89
604.759	44.82
604.951	44.96
605.144	44.85
605.336	45.05
605.529	45.04
605.721	44.94
605.914	44.87
606.106	45.09
606.299	45.1
606.491	44.93
606.683	45.15
606.876	45.2
607.068	44.96
607.26	45.05
607.453	44.87
607.645	44.88
607.837	44.92
608.03	45.03
608.222	45.06
608.414	45.17
608.606	45.15
608.799	45.36
608.991	45.42
609.183	45.53
609.375	45.72
609.567	45.45
609.759	45.36
609.952	45.5
610.144	45.41
610.336	44.99
610.528	44.63
610.72	44.73
610.912	44.33
611.104	44.42
611.296	44.4
611.488	44.14
611.68	44.25
611.872	44.51
612.064	44.35
612.256	44.62
612.448	45
612.64	45.55
612.832	45.39
613.023	45.74
613.215	45.61
613.407	45.64
613.599	45.56
613.791	45.91
613.983	45.73
614.174	45.99
614.366	45.7
614.558	45.48
614.75	45.08
614.941	45.14
615.133	45.16
615.325	45.13
615.516	45.23
615.708	45.47
615.9	44.92
616.091	44.86
616.283	44.78
616.475	44.72
616.666	44.95
616.858	45.22
617.049	45.52
617.241	45.34
617.432	45.72
617.624	45.85
617.815	45.98
618.007	46.3
618.198	46.54
618.39	46.5
618.581	46.8
618.773	46.63
618.964	46.28
619.155	45.8
619.347	45.85
619.538	45.75
619.729	45.56
619.921	45.28
620.112	45.19
620.303	45.11
620.494	44.97
620.686	45.18
620.877	44.86
621.068	44.96
621.259	45.29
621.451	45.37
621.642	45.26
621.833	45.18
622.024	45.19
622.215	45.02
622.406	44.76
622.597	44.81
622.788	44.44
622.98	44.75
623.171	44.87
623.362	44.68
623.553	44.71
623.744	44.63
623.935	44.89
624.126	44.78
624.317	44.88
624.508	45.25
624.698	45.3
624.889	45.29
625.08	45.65
625.271	45.77
625.462	46.17
625.653	45.91
625.844	45.83
626.034	45.77
626.225	45.59
626.416	45.41
626.607	44.98
626.798	45.09
626.988	45.26
627.179	44.96
627.37	44.76
627.56	44.7
627.751	45.04
627.942	44.89
628.132	44.79
628.323	45.24
628.514	45.27
628.704	45.73
628.895	45.42
629.085	45.34
629.276	45.4
629.466	45.53
629.657	45.42
629.847	45.29
630.038	45.32
630.228	45.2
630.419	45.36
630.609	45.51
630.8	45.2
630.99	45.32
631.181	45.5
631.371	45.51
631.561	45.35
631.752	45.36
631.942	45.29
632.132	45.36
632.323	45.31
632.513	45.01
632.703	45.23
632.893	45.41
633.084	45.61
633.274	45.34
633.464	45.35
633.654	45.46
633.844	45.12
634.034	44.94
634.225	44.74
634.415	44.75
634.605	44.72
634.795	44.42
634.985	44.46
635.175	44.17
635.365	44.41
635.555	44.54
635.745	44.38
635.935	44.44
636.125	44.54
636.315	44.77
636.505	44.84
636.695	45.05
636.885	45.41
637.075	45.51
637.265	45.74
637.455	45.55
637.644	45.43
637.834	45.7
638.024	45.52
638.214	45.44
638.404	45.47
638.593	45.33
638.783	44.95
638.973	44.47
639.163	44.63
639.352	44.7
639.542	44.81
639.732	44.96
639.921	45.1
640.111	45.45
640.301	45.42
640.49	45.35
640.68	45.53
640.87	45.63
641.059	46.09
641.249	45.53
641.438	45.74
641.628	45.35
641.817	45.09
642.007	44.65
642.196	44.51
642.386	44.92
642.575	44.81
642.764	45
642.954	44.95
643.143	44.95
643.333	45.44
643.522	45.19
643.711	45.31
643.901	45.39
644.09	45.65
644.279	45.94
644.469	45.88
644.658	46.16
644.847	46.2
645.036	46.14
645.226	45.98
645.415	45.85
645.604	45.61
645.793	46
645.982	45.92
646.171	45.79
646.361	45.72
646.55	45.86
646.739	45.72
646.928	45.68
647.117	45.53
647.306	45.75
647.495	45.99
647.684	46.25
647.873	46.35
648.062	46.42
648.251	46.52
648.44	46.54
648.629	45.81
648.818	45.82
649.007	45.36
649.196	45.62
649.384	45.52
649.573	45.24
649.762	45.14
649.951	45.1
650.14	45.25
650.328	45.51
650.517	45.51
650.706	45.73
650.895	45.29
651.083	45.44
651.272	45.63
651.461	45.56
651.65	45.49
651.838	45.5
652.027	44.99
652.216	44.53
652.404	44
652.593	43.94
652.781	43.89
652.97	44.7
653.158	44.69
653.347	44.49
653.535	44.45
653.724	44.48
653.912	44.38
654.101	44.37
654.289	44.72
654.478	44.77
654.666	44.41
654.855	44.58
655.043	43.63
655.231	43.8
655.42	44.21
655.608	44.18
655.796	43.84
655.985	43.45
656.173	44.07
656.361	44.07
656.55	44.16
656.738	44.61
656.926	44.96
657.114	45.82
657.302	45.91
657.491	45.76
657.679	46.02
657.867	46.47
658.055	46.63
658.243	46.59
658.431	46.43
658.619	46.66
658.807	46.54
658.996	46.2
659.184	45.82
659.372	45.66
659.56	45.36
659.748	45.29
659.936	44.96
660.124	45.19
660.311	44.56
660.499	44.91
660.687	44.99
660.875	45.3
661.063	45.36
661.251	45.73
661.439	45.95
661.627	46.41
661.814	46.07
662.002	46.15
662.19	45.93
662.378	46.68
662.565	46.82
662.753	46.47
662.941	46.02
663.129	46.19
663.316	45.9
663.504	45.59
663.692	45.4
663.879	46.05
664.067	45.8
664.254	46.26
664.442	46.06
664.63	45.49
664.817	45.74
665.005	45.6
665.192	45.36
665.38	45
665.567	45.09
665.755	45.29
665.942	45.13
666.13	45.15
666.317	45.04
666.504	44.86
666.692	45.17
666.879	45.02
667.067	44.98
667.254	44.93
667.441	45.21
667.629	44.8
667.816	44.66
668.003	44.43
668.19	44.86
668.378	44.93
668.565	44.8
668.752	44.68
668.939	44.6
669.127	44.39
669.314	44.83
669.501	45.14
669.688	45.42
669.875	45.68
670.062	45.21
670.249	45.44
670.436	44.75
670.623	45.28
670.81	45.43
670.997	45.57
671.184	45.87
671.371	45.93
671.558	45.83
671.745	46.35
671.932	46.21
672.119	46.81
672.306	46.64
672.493	47.08
672.68	46.92
672.867	46.8
673.054	46.13
673.24	45.74
673.427	45.68
673.614	45.65
673.801	45.15
673.988	44.56
674.174	44.67
674.361	44.06
674.548	44.15
674.734	43.89
674.921	43.5
675.108	43.97
675.294	44.69
675.481	44.34
675.668	43.79
675.854	43.93
676.041	44.04
676.227	43.55
676.414	43.72
676.601	43.59
676.787	43.74
676.974	43.71
677.16	43.48
677.347	43.31
677.533	43.74
677.719	43.93
677.906	43.67
678.092	44.12
678.279	44.12
678.465	44.66
678.651	45.22
678.838	45.02
679.024	45.78
679.21	45.72
679.397	45.73
679.583	45.21
679.769	45.56
679.955	46.18
680.142	46.19
680.328	46.4
680.514	45.85
680.7	45.48
680.886	45.48
681.073	44.88
681.259	45.15
681.445	44.56
681.631	44.75
681.817	44.54
682.003	43.89
682.189	43.19
682.375	43.13
682.561	43.59
682.747	43.04
682.933	43.09
683.119	43.25
683.305	42.91
683.491	43.24
683.677	43.66
683.863	43.89
684.049	44.47
684.235	45.45
684.42	45.97
684.606	46
684.792	46.19
684.978	46.52
685.164	46.5
685.349	46.94
685.535	46.91
685.721	46.17
685.907	45.83
686.092	45.52
686.278	45.02
686.464	43.93
686.649	44.13
686.835	44.28
687.021	44.17
687.206	44.52
687.392	44.18
687.577	44.7
687.763	44.96
687.948	44.84
688.134	44.94
688.319	45.12
688.505	45.4
688.69	44.66
688.876	45.19
689.061	45.13
689.247	44.39
689.432	44.09
689.618	43.66
689.803	43.58
689.988	43.81
690.174	43.84
690.359	43.66
690.544	44.16
690.73	44.95
690.915	44.8
691.1	44.77
691.285	45.22
691.471	45.81
691.656	46.06
691.841	46.39
692.026	46.32
692.211	46.35
692.396	46.5
692.582	46.49
692.767	45.92
692.952	45.59
693.137	45.41
693.322	44.93
693.507	44.79
693.692	44.92
693.877	44.82
694.062	44.85
694.247	44.35
694.432	43.72
694.617	43.58
694.802	43.71
694.987	44
695.172	43.74
695.357	44.45
695.541	44.53
695.726	44.5
695.911	44.61
696.096	44.53
696.281	44.39
696.466	44.98
696.65	44.78
696.835	44.86
697.02	44.83
697.204	45.43
697.389	44.98
697.574	45.1
697.759	45.41
697.943	45.66
698.128	46.07
698.312	46.24
698.497	46.26
698.682	46.16
698.866	45.74
699.051	45.74
699.235	45.58
699.42	45.25
699.604	45.51
699.789	45.54
699.973	44.96
700.158	44.67
700.342	44.48
700.527	44.36
700.711	44.67
700.895	45.13
701.08	44.81
701.264	45.04
701.448	45.81
701.633	44.87
701.817	44.4
702.001	45.04
702.186	45.17
702.37	45.81
702.554	45.56
702.738	44.94
702.923	44.95
703.107	45.03
703.291	44.48
703.475	44.34
703.659	45.84
703.843	45.81
704.027	45.64
704.212	45.45
704.396	44.99
704.58	45.1
704.764	45.51
704.948	45.31
705.132	45.58
705.316	45.14
705.5	45.65
705.684	45.13
705.868	45.39
706.052	45.11
706.235	44.93
706.419	44.93
706.603	44.55
706.787	44.62
706.971	45.51
707.155	45.31
707.339	45.82
707.522	46.15
707.706	45.92
707.89	45.14
708.074	45.42
708.257	45.24
708.441	44.65
708.625	45.23
708.808	44.33
708.992	43.5
709.176	43.85
709.359	44.04
709.543	43.31
709.727	43.29
709.91	44.16
710.094	43.69
710.277	44.02
710.461	44.96
710.644	44.4
710.828	44.81
711.011	44.69
711.195	44.26
711.378	44.75
711.562	44.81
711.745	44.68
711.928	44.46
712.112	45.01
712.295	44.95
712.478	44.5
712.662	45.11
712.845	45.39
713.028	45.42
713.212	46.36
713.395	45.68
713.578	45.37
713.761	45.5
713.945	44.97
714.128	44.65
714.311	44.49
714.494	44.64
714.677	44.41
714.86	44.33
715.043	44.56
715.227	44.09
715.41	44.17
715.593	43.57
715.776	43.28
715.959	44.16
716.142	44.04
716.325	44.37
716.508	44.21
716.691	44.01
716.874	44.14
717.057	43.81
717.239	43.68
717.422	43.6
717.605	44.83
717.788	45.13
717.971	44.85
718.154	45.6
718.337	44.84
718.519	44.94
718.702	45
718.885	45.49
719.068	45.29
719.25	46.03
719.433	45.82
719.616	45.42
719.798	45.21
719.981	46.03
720.164	45.46
720.346	46.79
720.529	46.39
720.712	47.09
720.894	47.05
721.077	47.57
721.259	46.43
721.442	46.49
721.624	46.13
721.807	46.53
721.989	45.07
722.172	44.48
722.354	44.34
722.537	44.64
722.719	44.42
722.901	43.33
723.084	42.83
723.266	42.69
723.448	41.69
723.631	41.13
723.813	41.27
723.995	41.21
724.178	41.52
724.36	40.85
724.542	40.73
724.724	40.8
724.907	41.14
725.089	42.14
725.271	42.71
725.453	43.53
725.635	44.69
725.817	44.35
725.999	44.05
726.181	44.19
726.364	44.24
726.546	45.05
726.728	44.35
726.91	44.61
727.092	45.38
727.274	44.71
727.456	45.55
727.638	45.68
727.819	46.66
728.001	47.35
728.183	47.75
728.365	47.27
728.547	46.85
728.729	46.8
728.911	47.04
729.093	45.7
729.274	45.51
729.456	45.7
729.638	46.01
729.82	45.84
730.001	46.6
730.183	46.5
730.365	47.25
730.546	46.86
730.728	47.42
730.91	48.74
731.091	48.51
731.273	49.78
731.455	48.66
731.636	48.02
731.818	47.19
731.999	47.1
732.181	47.75
732.362	47.56
732.544	48.39
732.725	48.56
732.907	46.73
733.088	46.41
733.27	46.74
733.451	47.33
733.633	47.85
733.814	48.11
733.995	47.15
734.177	46.52
734.358	46.37
734.539	46.4
734.721	44.89
734.902	45.29
735.083	46.24
735.264	45.2
735.446	44.56
735.627	44
735.808	43.98
735.989	43.31
736.17	42.79
736.351	41.73
736.533	40.49
736.714	42.08
736.895	41.49
737.076	40.81
737.257	41.49
737.438	42.47
737.619	41.4
737.8	41.37
737.981	41.52
738.162	41.75
738.343	42.81
738.524	42.33
738.705	42.42
738.886	41.98
739.067	42.23
739.247	42.05
739.428	41.17
739.609	42.59
739.79	41.71
739.971	42.58
740.151	41.7
740.332	42.52
740.513	43.25
740.694	43.37
740.874	44.56
741.055	44.61
741.236	43.61
741.417	44.18
741.597	44.46
741.778	45.09
741.958	44.74
742.139	46.34
742.32	45.36
742.5	45.53
742.681	45.06
742.861	45.68
743.042	46.67
743.222	47.15
743.403	47.44
743.583	46.78
743.764	46.64
743.944	45.81
744.124	45.77
744.305	46.52
744.485	47.59
744.666	47.57
744.846	46.55
745.026	45.7
745.207	45.65
745.387	45.2
745.567	45.52
745.747	46.19
745.928	48.68
746.108	47.72
746.288	47.94
746.468	47.76
746.648	47.19
746.829	46.93
747.009	46.81
747.189	46.21
747.369	46.67
747.549	46.87
747.729	45.98
747.909	44.67
748.089	44.37
748.269	42.91
748.449	42.88
748.629	43.66
748.809	45.09
748.989	45.03
749.169	45.95
749.349	44.53
749.529	44.15
749.709	44.84
749.889	44.86
750.068	45.26
750.248	46.84
750.428	46.84
750.608	46.25
750.788	45.36
750.967	44.84
751.147	44.74
751.327	46.59
751.507	45.65
751.686	43.85
751.866	43.9
752.046	43.74
752.225	42.82
752.405	42.54
752.585	42.33
752.764	42.52
752.944	42.73
753.123	43.36
753.303	42.54
753.482	42.91
753.662	43.13
753.841	43
754.021	42.7
754.2	43.45
754.38	43.39
754.559	43.07
754.739	43.04
754.918	43.75
755.097	43.11
755.277	42.51
755.456	42.9
755.635	44.75
755.815	45.67
755.994	45.38
756.173	44.64
756.352	45.09
756.532	45.29
756.711	44.73
756.89	44.78
757.069	43.07
757.248	43.94
757.427	43.37
757.607	42.39
757.786	40.33
757.965	38.75
758.144	39.19
758.323	38.52
758.502	38.28
758.681	38.76
758.86	39.41
759.039	40.6
759.218	41.32
759.397	42.13
759.576	41.85
759.755	43.22
759.934	45.52
760.113	44.92
760.291	45.11
760.47	46.41
760.649	46.4
760.828	45.21
761.007	45.69
761.186	44.38
761.364	43.98
761.543	45.98
761.722	46.38
761.901	46.4
762.079	46.78
762.258	46.23
762.437	45.22
762.615	45.02
762.794	45.05
762.972	44.46
763.151	44.96
763.33	44.65
763.508	43.32
763.687	42.84
763.865	42.85
764.044	42.92
764.222	43.17
764.401	43.71
764.579	43.95
764.758	43.01
764.936	44.11
765.114	44.18
765.293	44.46
765.471	45.1
765.65	45.09
765.828	44.49
766.006	43.81
766.184	42.82
766.363	42.6
766.541	42.32
766.719	44.2
766.898	42.69
767.076	41.91
767.254	41.78
767.432	41.18
767.61	41.42
767.788	40.71
767.967	41.5
768.145	42.83
768.323	41.8
768.501	40.94
768.679	40.72
768.857	41.04
769.035	41.28
769.213	42.55
769.391	41.42
769.569	39.76
769.747	42.3
769.925	40.89
770.103	40.35
770.281	41.46
770.459	40.81
770.636	38.35
770.814	37.13
770.992	36.86
771.17	33.98
771.348	35.99
771.525	37.39
771.703	36.88
771.881	38.04
772.059	39.04
772.236	40.59
772.414	41.27
772.592	43.21
772.769	45.27
772.947	44.93
773.125	45.89
773.302	44.51
773.48	43.6
773.657	42.16
773.835	42.26
774.013	42.26
774.19	40.12
774.368	40.9
774.545	41.95
774.723	39.78
774.9	41.88
775.077	42.99
775.255	44.24
775.432	45.64
775.61	47.17
775.787	46.35
775.964	46.12
776.142	47.11
776.319	47.72
776.496	44.01
776.674	44.86
776.851	43.47
777.028	43.39
777.205	43.06
777.382	42.7
777.56	41.88
777.737	41.77
777.914	40.13
778.091	37.72
778.268	38.54
778.445	40.93
778.622	42.27
778.8	42.53
778.977	43.69
779.154	43.27
779.331	42.14
779.508	40.99
779.685	40.72
779.862	42
780.038	43.31
780.215	42.28
780.392	41.87
780.569	40.33
780.746	40.13
780.923	40.6
781.1	40.25
781.277	41.01
781.453	40.64
781.63	40.58
781.807	42.71
781.984	44.33
782.16	43.68
782.337	42.92
782.514	43.58
782.691	43.12
782.867	41.33
783.044	42.04
783.221	44.12
783.397	45.51
783.574	45.64
783.75	41.16
783.927	38.37
784.103	38.63
784.28	40.61
784.456	38.78
784.633	38.55
784.809	35.5
784.986	36.51
785.162	34.38
785.339	32.04
785.515	31.49
785.692	34.57
785.868	36.49
786.044	36.7
786.221	35.07
786.397	36.65
786.573	36.16
786.749	39.12
786.926	38.86
787.102	39.77
787.278	43.12
787.454	46.62
787.631	47.4
787.807	48.24
787.983	49.51
788.159	48.34
788.335	48.21
788.511	51.19
788.687	53.54
788.863	52.63
789.039	50.94
789.216	49.95
789.392	49.1
789.568	48.62
789.744	49.03
789.919	47.58
790.095	49.78
790.271	52.17
790.447	49.5
790.623	45.74
790.799	44.2
790.975	46.83
791.151	47.54
791.327	47.4
791.502	48.81
791.678	47.93
791.854	47.22
792.03	47.86
792.205	44.82
792.381	47.27
792.557	49.11
792.733	51.3
792.908	52.51
793.084	51.9
793.259	52.36
793.435	50.74
793.611	49.13
793.786	49.86
793.962	48.45
794.137	50.38
794.313	50.4
794.488	47.47
794.664	47.86
794.839	47.97
795.015	49.04
795.19	46.87
795.366	46.7
795.541	45.36
795.716	46.06
795.892	45.81
796.067	43.8
796.242	45.66
796.418	49.21
796.593	48.14
796.768	44.46
796.944	42.97
797.119	42.68
797.294	41.07
797.469	43.22
797.644	44.91
797.82	44.97
797.995	48.42
798.17	45.24
798.345	41.74
798.52	41.95
798.695	45.15
798.87	48.5
799.045	45.87
799.22	45.86
799.395	44.36
799.57	42.81
799.745	44.88
799.92	42.09
800.095	43.15
800.27	44.98
800.445	45.98
800.62	42.45
800.795	37.4
800.97	42.2
801.145	43.36
801.319	45.37
801.494	45.62
801.669	44.2
801.844	46.34
802.018	47.45
802.193	46.69
802.368	45.96
802.543	46.72
802.717	49.46
802.892	52.85
803.067	53.18
803.241	54.05
803.416	53.61
803.59	53.67
803.765	53.31
803.94	52.77
804.114	56.14
804.289	58.94
804.463	55.38
804.638	52.76
804.812	46.31
804.986	43.25
805.161	41.86
805.335	43.37
805.51	46.66
805.684	45.69
805.858	40.71
806.033	38.89
806.207	35.13
806.381	37.69
806.556	38.36
806.73	43.37
806.904	44.92
807.078	44.95
807.253	44.35
807.427	39
807.601	40.54
807.775	45.09
807.949	43.86
808.123	41.42
808.298	42.12
808.472	44.66
808.646	42.15
808.82	39.8
808.994	34.64
809.168	31
809.342	32.26
809.516	27.83
809.69	26.89
809.864	31.12
810.038	36.47
810.212	37.36
810.385	33.34
810.559	31.71
810.733	35.2
810.907	40.64
811.081	40.82
811.255	41.85
811.428	42.34
811.602	42.58
811.776	39.92
811.95	37.11
812.123	36.24
812.297	38.51
812.471	40.92
812.644	36.92
812.818	37.25
812.992	42.2
813.165	41.99
813.339	46.16
813.512	46.55
813.686	44.6
813.86	47.46
814.033	47.08
814.207	47.31
814.38	46.7
814.554	45.82
814.727	46.07
814.9	44.31
815.074	47.95
815.247	49.9
815.421	49.81
815.594	53.08
815.767	50.76
815.941	49.49
816.114	49.49
816.287	48.86
816.46	52.48
816.634	53.4
816.807	53.94
816.98	49.7
817.153	47.04
817.327	47.87
817.5	46.32
817.673	46.12
817.846	46.39
818.019	46.82
818.192	46.81
818.365	51.3
818.538	49.54
818.711	46.81
818.884	42.63
819.057	41
819.23	40.04
819.403	39.69
819.576	42.28
819.749	43.82
819.922	42.88
820.095	43.96
820.268	41.14
820.441	40.35
820.614	43.7
820.786	45.01
820.959	46.87
821.132	46.14
821.305	45.32
821.477	43.98
821.65	43.38
821.823	43.6
821.996	42.97
822.168	43.76
822.341	43.47
822.514	41.89
822.686	41.67
822.859	41.42
823.031	41.27
823.204	42.43
823.376	42.15
823.549	41.5
823.722	41.12
823.894	41.23
824.067	40.82
824.239	40.79
824.411	41.27
824.584	41.49
824.756	40.57
824.929	39.95
825.101	39.43
825.273	38.94
825.446	41.23
825.618	41.54
825.79	40.72
825.963	40.14
826.135	40.65
826.307	40.33
826.479	40.72
826.652	41.82
826.824	42.77
826.996	40.79
827.168	41.17
827.34	38.69
827.512	38.83
827.684	40.09
827.856	41.26
828.029	41.71
828.201	42.69
828.373	42.76
828.545	42.24
828.717	43.5
828.889	44.64
829.061	45.55
829.232	46.58
829.404	46.45
829.576	46.58
829.748	43.44
829.92	45.09
830.092	43.31
830.264	44.08
830.436	42.77
830.607	40.81
830.779	40.35
830.951	41.69
831.123	41.16
831.294	39.9
831.466	39.29
831.638	43.56
831.809	40.88
831.981	42.12
832.153	41.1
832.324	41.85
832.496	43.71
832.667	44.48
832.839	42.85
833.011	40.1
833.182	42.2
833.354	42.78
833.525	41.22
833.697	39.61
833.868	40.6
834.039	40.2
834.211	38.58
834.382	38.47
834.554	38.33
834.725	39.89
834.896	42.66
835.068	41.33
835.239	38.89
835.41	39.68
835.581	41.37
835.753	41.77
835.924	42.81
836.095	45.64
836.266	45.75
836.438	44.8
836.609	43.26
836.78	41.67
836.951	42.63
837.122	43.67
837.293	42.51
837.464	38.76
837.635	40.35
837.806	37.01
837.977	33.71
838.148	29.66
838.319	31.98
838.49	29
838.661	28.13
838.832	28.52
839.003	38.48
839.174	41.03
839.345	46.39
839.516	46.83
839.687	49.55
839.857	49.33
840.028	58.53
840.199	59.31
840.37	63.03
840.54	66.99
840.711	65.29
840.882	62.48
841.053	58.24
841.223	55.53
841.394	51.9
841.564	47.29
841.735	52.67
841.906	46.34
842.076	43.48
842.247	37.74
842.417	33.1
842.588	35.74
842.758	43.15
842.929	39.12
843.099	44.28
843.27	39.62
843.44	54.56
843.611	60.91
843.781	64.47
843.951	69.07
844.122	78.08
844.292	77.91
844.462	77.3
844.633	63.66
844.803	79.52
844.973	81.47
845.144	102.42
845.314	91.58
845.484	78.16
845.654	94.63
845.824	98.04
845.995	83.92
846.165	85.61
846.335	75.81
846.505	76.12
846.675	74.71
846.845	78.3
847.015	69.28
847.185	59.57
847.355	57.74
847.525	41.72
847.695	26.81
847.865	18.82
848.035	27.77
848.205	41.16
848.375	33.61
848.545	23.62
848.715	11.08
848.884	25.16
849.054	30.92
849.224	33.72
849.394	34.24
849.564	37.33
849.733	46.07
849.903	39.5
850.073	29.03
850.243	30.67
850.412	40.1
850.582	44.59
850.752	41.02
850.921	39.96
851.091	46.88
851.26	77.17
851.43	94.3
851.599	74.06
851.769	70.94
851.939	74.97
852.108	87.21
852.278	87.02
852.447	85.81
852.616	81.36
852.786	93.12
852.955	90.87
853.125	68.88
853.294	52.22
853.463	67.39
853.633	91.69
853.802	96.84
853.971	85.95
854.141	82.34
854.31	92.76
854.479	98.28
854.648	89.58
854.818	78.86
854.987	73.53
855.156	85.43
855.325	97.54
855.494	96.73
855.663	102.72
855.832	119.31
856.001	114.66
856.171	108.39
856.34	111.32
856.509	102.51
856.678	108.93
856.847	135.93
857.016	142.85
857.185	129.94
857.353	130.09
857.522	113.46
857.691	101.47
857.86	93.78
858.029	97.75
858.198	86.18
858.367	107.47
858.535	97.1
858.704	84.66
858.873	68.65
859.042	68.76
859.21	60.99
859.379	64.35
859.548	48.84
859.717	63.58
859.885	56.58
860.054	63.28
860.222	48.53
860.391	60.25
860.56	49.97
860.728	66.36
860.897	78.86
861.065	73.21
861.234	79.64
861.402	91.3
861.571	72.91
861.739	71.87
861.908	71.52
862.076	96.96
862.244	90.64
862.413	106.27
862.581	93.34
862.749	74.92
862.918	92.05
863.086	98.77
863.254	96.18
863.423	122.29
863.591	128.91
863.759	145.33
863.927	123.2
864.096	120.9
864.264	128.34
864.432	147.72
864.6	171.64
864.768	147.45
864.936	128.26
865.104	142.68
865.272	134.34
865.44	211.14
865.608	140.83
865.776	117.12
865.944	126.37
866.112	102.04
866.28	105.08
866.448	86.74
866.616	81.48
866.784	84.63
866.952	85.44
867.12	89.08
867.288	87.18
867.455	92.64
867.623	104.13
867.791	115.94
867.959	115.6
868.127	114.5
868.294	117.16
868.462	125.47
868.63	139.2
868.797	158.42
868.965	151.92
869.133	124.24
869.3	57.78
869.468	67.47
869.636	20.94
869.803	39.83
869.971	37.99
870.138	45.43
870.306	59.14
870.473	63.94
870.641	25.14
870.808	33.02
870.975	43.58
871.143	74.36
871.31	60.24
871.478	71.84
871.645	79.19
871.812	56.27
871.98	57.99
872.147	48.35
872.314	47.46
872.482	67.44
872.649	52.3
872.816	44.93
872.983	42.79
873.15	27.9
873.318	25.22
873.485	2.97
873.652	-12.05
873.819	-8.67
873.986	26.17
874.153	20.12
874.32	15.24
874.487	16.92
874.654	-8.27
874.821	14.36
874.988	28.57
875.155	73.01
875.322	68.26
875.489	57.92
875.656	58.99
875.823	55.91
875.99	42.66
876.157	38.08
876.324	42.99
876.49	35.1
876.657	20.85
876.824	37.71
876.991	25.3
877.157	24.8
877.324	38.17
877.491	46.25
877.658	36.68
877.824	60.27
877.991	71.98
878.157	62.91
878.324	88.26
878.491	86.2
878.657	69.51
878.824	69.94
878.99	77.05
879.157	79.16
879.323	75.68
879.49	66.04
879.656	82.86
879.823	88.19
879.989	118
880.156	98.57
880.322	104.49
880.488	80.35
880.655	66.03
880.821	57.25
880.987	60.08
881.154	55.64
881.32	57.08
881.486	44.59
881.652	46.27
881.819	40.49
881.985	42.94
882.151	40.4
882.317	43
882.483	45.62
882.649	44.04
882.816	38.43
882.982	36.62
883.148	38.21
883.314	42.17
883.48	41.43
883.646	40.43
883.812	37.71
883.978	40.08
884.144	40.43
884.31	42.06
884.476	43.16
884.642	44.9
884.807	45.74
884.973	44.2
885.139	45.5
885.305	44.68
885.471	44.5
885.637	46.44
885.802	44.66
885.968	40.74
886.134	38.92
886.3	40.12
886.465	40.92
886.631	40.15
886.797	44.85
886.962	43.89
887.128	45.87
887.293	46.73
887.459	43.3
887.625	47.73
887.79	52.4
887.956	70.72
888.121	76.35
888.287	78.2
888.452	91.55
888.618	77.75
888.783	69.34
