Data from 2938046_Reflection_2.txt Node
Date: Sun Jul 12 14:25:31 EDT 2015
User: robert
Spectrometer: USB4E03001
Autoset integration time: false
Trigger mode: 4
Integration Time (sec): 1.000000E-1
Scans to average: 10
Electric dark correction enabled: true
Nonlinearity correction enabled: false
Boxcar width: 5
Stray light correction enabled: false
XAxis mode: Wavelengths
Stop averaging: false
Number of Pixels in Spectrum: 3648
>>>>>Begin Spectral Data<<<<<
177.566	-64.67
177.785	-117.8
178.005	-129.07
178.225	-41.45
178.445	-14.31
178.665	9.37
178.885	17.45
179.105	-368.67
179.324	138.74
179.544	126.59
179.764	164.28
179.984	222.35
180.204	270.58
180.423	159.36
180.643	152.74
180.863	107.96
181.083	126.23
181.302	88.79
181.522	88.19
181.742	92.12
181.961	83.64
182.181	85.17
182.401	79.17
182.621	69.31
182.84	78.41
183.06	61.6
183.279	58.04
183.499	48.1
183.719	58.87
183.938	66.12
184.158	94.66
184.377	105.96
184.597	113.7
184.816	109.94
185.036	169.54
185.256	188.7
185.475	145.98
185.695	155.48
185.914	186.32
186.134	177.73
186.353	160.03
186.572	104.7
186.792	98.04
187.011	100.37
187.231	112.13
187.45	101.89
187.67	97.18
187.889	96.92
188.108	98.98
188.328	96.78
188.547	86.81
188.766	82.64
188.986	90.4
189.205	73.02
189.424	95.27
189.644	130.92
189.863	145.26
190.082	124.37
190.302	154.55
190.521	138.18
190.74	159.03
190.959	215.59
191.178	161.14
191.398	220.97
191.617	230.7
191.836	332.2
192.055	269.9
192.274	329.4
192.494	1400.34
192.713	367.72
192.932	265.22
193.151	203.33
193.37	153.56
193.589	201.21
193.808	182.71
194.027	248.36
194.246	182.05
194.465	177.92
194.685	177.88
194.904	174.25
195.123	205.19
195.342	236.38
195.561	274.11
195.78	393.61
195.999	251.57
196.218	185.79
196.436	173.64
196.655	228.86
196.874	170.44
197.093	134.99
197.312	118.02
197.531	116.8
197.75	82.97
197.969	102.39
198.188	104.57
198.407	129.09
198.625	148.21
198.844	131.28
199.063	110.42
199.282	100.35
199.501	94.78
199.719	91.23
199.938	107.08
200.157	156.06
200.376	128.44
200.594	130.31
200.813	114.42
201.032	108.51
201.251	122.99
201.469	131.07
201.688	148.17
201.907	144.09
202.125	141.31
202.344	113.27
202.563	129.58
202.781	140.16
203	112.89
203.218	105.62
203.437	120.44
203.656	114.87
203.874	100.03
204.093	73.62
204.311	63.99
204.53	63.08
204.748	90.05
204.967	62.72
205.185	46.32
205.404	90.1
205.622	88.31
205.841	77.63
206.059	59.29
206.278	82.73
206.496	84.7
206.715	102.85
206.933	115.23
207.151	122.22
207.37	109.07
207.588	125.53
207.806	88.86
208.025	90.86
208.243	93.57
208.461	113.94
208.68	125.81
208.898	167.95
209.116	164.24
209.335	160.59
209.553	112.09
209.771	127.46
209.989	100.75
210.208	138.39
210.426	169.98
210.644	126.68
210.862	105.23
211.081	95.81
211.299	90.21
211.517	84.95
211.735	84.06
211.953	71.15
212.171	68.5
212.39	60.76
212.608	68.61
212.826	61.37
213.044	70.69
213.262	73.68
213.48	76.12
213.698	78.86
213.916	87.02
214.134	86.78
214.352	100.19
214.57	105.94
214.788	120.12
215.006	111.12
215.224	123.22
215.442	154.5
215.66	158.99
215.878	119.84
216.096	102.42
216.314	103.04
216.532	100.5
216.75	86.19
216.968	88.01
217.185	92.94
217.403	82.18
217.621	76.57
217.839	76.79
218.057	72.26
218.275	86.71
218.492	93.29
218.71	73.88
218.928	78.38
219.146	86.89
219.363	88.8
219.581	91.66
219.799	93.16
220.017	86.28
220.234	70.79
220.452	64.46
220.67	54.6
220.887	53.29
221.105	60.79
221.323	63.12
221.54	56.77
221.758	50.2
221.976	40.87
222.193	39.55
222.411	42.26
222.629	45.98
222.846	46.3
223.064	66.28
223.281	41.04
223.499	40.98
223.716	37.94
223.934	34.34
224.151	34.97
224.369	35.86
224.586	52.87
224.804	67.37
225.021	69.6
225.239	71.45
225.456	63.74
225.674	71.29
225.891	59.98
226.108	66.36
226.326	65.66
226.543	59.34
226.76	56.06
226.978	52.69
227.195	45.86
227.413	37.02
227.63	36.2
227.847	30.08
228.064	25.52
228.282	25.34
228.499	19.43
228.716	19.28
228.934	21.28
229.151	20.41
229.368	19.14
229.585	19.16
229.802	23.82
230.02	20.91
230.237	22.73
230.454	23.2
230.671	22.41
230.888	26.11
231.105	26.65
231.323	24.09
231.54	26.16
231.757	24.26
231.974	25.83
232.191	21.39
232.408	19.53
232.625	20.07
232.842	23.94
233.059	33.47
233.276	31.07
233.493	29.35
233.71	30.22
233.927	32.98
234.144	36.66
234.361	32.29
234.578	34.17
234.795	34.62
235.012	31.86
235.229	26.25
235.446	22.28
235.663	22.09
235.879	23.35
236.096	25.45
236.313	27.49
236.53	19.98
236.747	26.51
236.964	24.37
237.181	25.12
237.397	26.73
237.614	30.5
237.831	28.87
238.048	28.57
238.264	32.39
238.481	34.01
238.698	27.75
238.915	31.14
239.131	24.42
239.348	29.74
239.565	32.97
239.781	32.26
239.998	32.81
240.215	34.32
240.431	36.73
240.648	32.26
240.865	30.92
241.081	31.16
241.298	28.66
241.514	29.25
241.731	25.53
241.947	22.89
242.164	22.3
242.38	20.05
242.597	18.63
242.814	16.69
243.03	17.82
243.246	15.54
243.463	13.93
243.679	14.45
243.896	14.5
244.112	14.83
244.329	16.76
244.545	17.79
244.762	21.64
244.978	19.44
245.194	20.12
245.411	18.26
245.627	19.74
245.843	20.9
246.06	19.35
246.276	16.81
246.492	15.49
246.709	15.37
246.925	15.02
247.141	13.61
247.357	13.41
247.574	13.27
247.79	13.81
248.006	14.34
248.222	13.23
248.439	14.69
248.655	16.46
248.871	16.38
249.087	16.24
249.303	16.61
249.519	17.58
249.736	19.65
249.952	19.33
250.168	20.72
250.384	20.48
250.6	19.62
250.816	17.81
251.032	15.21
251.248	15.63
251.464	17.03
251.68	15.18
251.896	15.91
252.112	13.77
252.328	14.31
252.544	11.87
252.76	9.58
252.976	11.67
253.192	12.28
253.408	12.15
253.624	14.29
253.84	10.84
254.056	14.02
254.272	12.54
254.487	17.17
254.703	15.97
254.919	18.1
255.135	17.43
255.351	17.51
255.567	18.52
255.782	22.3
255.998	20.23
256.214	19.1
256.43	18.6
256.646	17.63
256.861	13.76
257.077	15.66
257.293	15.18
257.508	17.07
257.724	17.64
257.94	15.98
258.155	14.46
258.371	16.74
258.587	18.08
258.802	16.36
259.018	15.49
259.234	15.27
259.449	14.45
259.665	14.18
259.88	14.67
260.096	14.39
260.312	14.27
260.527	13.92
260.743	12.81
260.958	12.15
261.174	11.82
261.389	12.32
261.605	13.47
261.82	14.79
262.036	15
262.251	15.22
262.466	15.11
262.682	15.41
262.897	15.33
263.113	15.52
263.328	15.78
263.543	15.67
263.759	17.06
263.974	14.75
264.189	13.12
264.405	11.96
264.62	10.46
264.835	11.74
265.051	10.94
265.266	12.68
265.481	15.68
265.696	17.12
265.912	18.65
266.127	17.88
266.342	17.38
266.557	17.29
266.773	17.71
266.988	17.4
267.203	15.45
267.418	14.99
267.633	14.79
267.848	14.06
268.064	13.29
268.279	12.88
268.494	11.39
268.709	12.77
268.924	14.05
269.139	14.16
269.354	15.04
269.569	16.03
269.784	15.74
269.999	14.4
270.214	12.34
270.429	14.23
270.644	14.99
270.859	17.16
271.074	15.42
271.289	15.16
271.504	15.7
271.719	16.22
271.934	15.5
272.149	16.56
272.363	17.54
272.578	17.61
272.793	17.79
273.008	17.65
273.223	16.94
273.438	18.29
273.653	17.33
273.867	17.46
274.082	16.44
274.297	17.51
274.512	17.18
274.726	17.28
274.941	16.51
275.156	15.22
275.371	14.46
275.585	15.25
275.8	14.86
276.015	15.17
276.229	14.72
276.444	16.32
276.659	16.62
276.873	16.75
277.088	16.68
277.302	17.65
277.517	16.46
277.732	16.56
277.946	13.25
278.161	11.98
278.375	11.77
278.59	13.75
278.804	13.1
279.019	12.71
279.233	12.94
279.448	10.39
279.662	11.44
279.877	12.28
280.091	14.09
280.306	17.23
280.52	15.88
280.735	15.65
280.949	14.67
281.163	13.51
281.378	12.23
281.592	13.31
281.806	14.03
282.021	12.88
282.235	13.21
282.449	13.81
282.664	13.68
282.878	15.83
283.092	16.15
283.307	16.47
283.521	17.13
283.735	17.41
283.949	15.49
284.164	15.88
284.378	15.93
284.592	16.35
284.806	13.83
285.02	12.9
285.234	11.85
285.449	12.51
285.663	12.69
285.877	12.73
286.091	14.19
286.305	14.99
286.519	15.97
286.733	16.38
286.947	16.01
287.161	18.53
287.375	18.55
287.589	20.08
287.803	18.84
288.017	18.9
288.231	18.81
288.445	17.87
288.659	17.44
288.873	16.46
289.087	17.61
289.301	17.67
289.515	13.72
289.729	13.67
289.943	13.75
290.157	13.91
290.371	13.76
290.584	13.08
290.798	13.5
291.012	14.21
291.226	13.81
291.44	13.16
291.654	14.15
291.867	16.45
292.081	17.28
292.295	17.98
292.509	19.86
292.722	19.4
292.936	21.42
293.15	21.03
293.364	20.22
293.577	21.55
293.791	20.7
294.005	19.59
294.218	19.47
294.432	18.48
294.645	17.73
294.859	16.75
295.073	16.92
295.286	15.06
295.5	15.81
295.713	15.82
295.927	12.95
296.14	13.2
296.354	14.29
296.568	12.61
296.781	12.12
296.994	12.16
297.208	11.95
297.421	12.2
297.635	12.12
297.848	11.13
298.062	11.39
298.275	12.57
298.489	11.7
298.702	10.31
298.915	11.69
299.129	12.91
299.342	12.71
299.555	13.16
299.769	12.32
299.982	13.15
300.195	14.27
300.409	14.83
300.622	15.98
300.835	18.14
301.048	18.77
301.262	19.83
301.475	20.51
301.688	20.38
301.901	20.67
302.115	19.76
302.328	19.88
302.541	18.34
302.754	17.19
302.967	16.9
303.18	17.45
303.393	17.6
303.607	15.91
303.82	16.04
304.033	16.58
304.246	15.46
304.459	17.2
304.672	18.07
304.885	20.38
305.098	21.45
305.311	21.73
305.524	20.84
305.737	20.82
305.95	20.87
306.163	21.14
306.376	20.07
306.589	21.07
306.802	21.13
307.015	20.22
307.228	17.17
307.44	16.89
307.653	16.24
307.866	15.39
308.079	17.78
308.292	17.35
308.505	16.88
308.718	17.29
308.93	17.57
309.143	16.68
309.356	16.51
309.569	19.11
309.781	18.85
309.994	19.85
310.207	20.21
310.42	17.81
310.632	19.33
310.845	18.32
311.058	17.83
311.27	17.39
311.483	16.1
311.696	14.95
311.908	14.64
312.121	14.84
312.333	14.71
312.546	14.21
312.759	13.59
312.971	13.64
313.184	13.64
313.396	14.39
313.609	14.18
313.821	15.36
314.034	16.01
314.246	14.63
314.459	13.57
314.671	14.55
314.884	13.86
315.096	15.09
315.309	14.44
315.521	15.32
315.733	15.95
315.946	17.83
316.158	18.06
316.371	19.16
316.583	18.71
316.795	20.79
317.008	20.67
317.22	20.9
317.432	19.43
317.644	19.1
317.857	18.88
318.069	16.73
318.281	15.03
318.494	17.33
318.706	18.4
318.918	18.45
319.13	17.4
319.342	15.87
319.555	16.44
319.767	16.9
319.979	16.4
320.191	15.92
320.403	17.18
320.615	16.89
320.827	15.29
321.039	15.55
321.252	17.37
321.464	17.31
321.676	18.31
321.888	18.72
322.1	18.63
322.312	18.73
322.524	19.81
322.736	20.63
322.948	19.9
323.16	19.56
323.372	17.04
323.584	15.65
323.796	16.72
324.007	15.99
324.219	15.91
324.431	16.18
324.643	16.66
324.855	15.87
325.067	15.75
325.279	15.52
325.491	15.45
325.702	16.45
325.914	17.48
326.126	15.26
326.338	14.56
326.55	14.58
326.761	14.33
326.973	15.02
327.185	15.89
327.396	14.46
327.608	15.12
327.82	15.16
328.032	14.99
328.243	14.88
328.455	16.21
328.666	16.49
328.878	16.27
329.09	17.08
329.301	14.87
329.513	14.14
329.725	13.8
329.936	14.98
330.148	14.91
330.359	15.29
330.571	15.64
330.782	14.24
330.994	14.95
331.205	14.7
331.417	15.35
331.628	16.72
331.84	16.8
332.051	18.97
332.262	16.79
332.474	17.17
332.685	15.93
332.897	15.51
333.108	17.35
333.319	16.46
333.531	16.33
333.742	15.7
333.953	15.84
334.165	16.2
334.376	15.18
334.587	16.11
334.799	15.6
335.01	16.14
335.221	16.04
335.432	15.62
335.644	16.68
335.855	17.18
336.066	18.46
336.277	18.35
336.488	17.27
336.7	18.09
336.911	17.94
337.122	18.64
337.333	20.23
337.544	20.31
337.755	20.01
337.966	19.2
338.177	19.99
338.388	18.42
338.599	18.17
338.811	18.23
339.022	17.11
339.233	17.56
339.444	17.71
339.655	15.06
339.866	15.36
340.076	16.19
340.287	17.1
340.498	17.18
340.709	16.8
340.92	17.15
341.131	18.01
341.342	17.97
341.553	18.41
341.764	17.93
341.975	19.44
342.185	18.41
342.396	17.91
342.607	17.65
342.818	16.29
343.029	16.8
343.239	16.51
343.45	15.98
343.661	16.53
343.872	15.76
344.082	15.25
344.293	13.26
344.504	13.77
344.714	12.9
344.925	13.28
345.136	13.46
345.346	13.05
345.557	12.36
345.768	11.17
345.978	10.88
346.189	11.13
346.399	11.67
346.61	13.19
346.821	13.65
347.031	14.21
347.242	13.83
347.452	13.93
347.663	14.52
347.873	16.2
348.084	17.92
348.294	18.7
348.504	18.7
348.715	17.73
348.925	18.07
349.136	17.76
349.346	16.7
349.557	16.2
349.767	17.08
349.977	17.58
350.188	16.1
350.398	15.41
350.608	14.73
350.819	14.48
351.029	14.88
351.239	14.91
351.449	16.54
351.66	16.91
351.87	17.13
352.08	15.44
352.29	16.2
352.501	16.41
352.711	16.25
352.921	15.73
353.131	15.26
353.341	14.54
353.552	13.88
353.762	13.01
353.972	13
354.182	12.85
354.392	13.57
354.602	12.21
354.812	11.86
355.022	13.49
355.232	13.06
355.442	13.04
355.652	14.17
355.862	15.03
356.072	14.17
356.282	15
356.492	14.59
356.702	14.53
356.912	13.8
357.122	13.96
357.332	12.84
357.542	13.54
357.752	14.34
357.962	14.2
358.171	13.08
358.381	13.27
358.591	11.53
358.801	11.75
359.011	11.64
359.221	12.28
359.43	11.93
359.64	12.23
359.85	12.97
360.06	13.24
360.269	13.1
360.479	13.3
360.689	12.42
360.899	13.43
361.108	13
361.318	13.2
361.528	12.19
361.737	12.74
361.947	12.46
362.156	11.9
362.366	11.02
362.576	11.37
362.785	10.93
362.995	11.96
363.204	11.96
363.414	12.72
363.623	12.29
363.833	12.7
364.042	12.69
364.252	12.95
364.461	12.81
364.671	12.66
364.88	12.09
365.09	12.72
365.299	12.27
365.509	12.09
365.718	11.68
365.927	12.1
366.137	13.44
366.346	13.9
366.555	13.24
366.765	14.47
366.974	14.68
367.183	13.84
367.393	14
367.602	13.09
367.811	13.38
368.021	13.8
368.23	13.25
368.439	12.86
368.648	12.39
368.857	12.64
369.067	11.61
369.276	11.58
369.485	12.46
369.694	12.11
369.903	13.41
370.112	13
370.321	12.54
370.531	13.7
370.74	13.51
370.949	13.33
371.158	13.92
371.367	13.11
371.576	13.29
371.785	12.95
371.994	13.87
372.203	13.51
372.412	13.6
372.621	14.11
372.83	13.61
373.039	13.51
373.248	13.55
373.457	12.78
373.666	13.39
373.874	12.79
374.083	12.98
374.292	11.83
374.501	11.7
374.71	11.42
374.919	10.19
375.128	9.87
375.336	9.62
375.545	9.27
375.754	9.27
375.963	8.81
376.171	9.25
376.38	8.78
376.589	9.02
376.798	8.88
377.006	8.91
377.215	9.43
377.424	9.71
377.632	10.12
377.841	10.09
378.05	10.1
378.258	9.84
378.467	10.05
378.675	9.76
378.884	9.72
379.093	9.97
379.301	10.43
379.51	10.33
379.718	9.29
379.927	8.77
380.135	9.2
380.344	9.14
380.552	9.49
380.761	8.76
380.969	9.65
381.177	9.45
381.386	9.2
381.594	8.98
381.803	8.85
382.011	8.94
382.219	9.3
382.428	8.15
382.636	7.83
382.845	7.81
383.053	8.37
383.261	7.85
383.469	7.19
383.678	7.01
383.886	6.87
384.094	6.66
384.302	7.65
384.511	7.68
384.719	8.45
384.927	8.5
385.135	8.41
385.343	8.36
385.552	8.65
385.76	9.22
385.968	9.72
386.176	9.54
386.384	9.98
386.592	9.44
386.8	8.97
387.008	8.72
387.216	8.87
387.424	8.43
387.633	8.1
387.841	7.87
388.049	7.68
388.257	7.1
388.465	6.69
388.672	6.35
388.88	6.34
389.088	6.17
389.296	6.1
389.504	6.08
389.712	6.04
389.92	5.78
390.128	5.51
390.336	5.22
390.544	5.42
390.751	5.8
390.959	5.19
391.167	5.04
391.375	5.67
391.583	5.82
391.79	5.6
391.998	5.79
392.206	6.09
392.414	6.02
392.621	6.14
392.829	5.91
393.037	6.01
393.244	6.8
393.452	6.46
393.66	5.82
393.867	5.5
394.075	5.94
394.283	5.73
394.49	5.66
394.698	5.76
394.905	5.93
395.113	5.9
395.32	5.9
395.528	5.53
395.735	5.84
395.943	6.36
396.15	6.69
396.358	6.31
396.565	6.48
396.773	6.33
396.98	6.77
397.188	6.64
397.395	6.39
397.602	6.4
397.81	6.05
398.017	5.94
398.225	5.6
398.432	5.78
398.639	5.87
398.847	5.84
399.054	5.64
399.261	5.35
399.468	5.37
399.676	5.86
399.883	5.76
400.09	6.01
400.297	5.92
400.505	5.72
400.712	5.32
400.919	5.17
401.126	5.3
401.333	5.89
401.54	5.75
401.748	5.64
401.955	5.58
402.162	5.53
402.369	5.8
402.576	5.64
402.783	5.73
402.99	5.62
403.197	5.39
403.404	5.55
403.611	5.13
403.818	4.96
404.025	5
404.232	4.8
404.439	4.8
404.646	4.57
404.853	5.05
405.06	5.04
405.267	5.13
405.474	5.35
405.681	5.17
405.887	5.32
406.094	5.26
406.301	5.28
406.508	5.28
406.715	5.19
406.922	5.17
407.128	4.9
407.335	4.87
407.542	4.82
407.749	5.15
407.955	4.83
408.162	4.82
408.369	4.86
408.575	4.74
408.782	4.66
408.989	4.71
409.195	4.69
409.402	4.81
409.609	4.75
409.815	4.9
410.022	4.45
410.228	4.53
410.435	4.7
410.642	4.81
410.848	4.86
411.055	4.86
411.261	5.12
411.468	5
411.674	4.91
411.881	5.01
412.087	4.99
412.294	5.15
412.5	5.29
412.706	5.22
412.913	5.53
413.119	5.44
413.326	5.38
413.532	4.95
413.738	5.2
413.945	5.17
414.151	5.41
414.357	5.36
414.564	5.32
414.77	5.4
414.976	5.08
415.182	4.75
415.389	4.89
415.595	5.05
415.801	5.15
416.007	4.89
416.214	4.84
416.42	4.52
416.626	4.43
416.832	4.58
417.038	4.43
417.244	4.47
417.45	4.44
417.657	4.47
417.863	4.34
418.069	4.29
418.275	4.37
418.481	4.4
418.687	4.49
418.893	4.61
419.099	4.52
419.305	4.48
419.511	4.58
419.717	4.51
419.923	4.18
420.129	4.11
420.335	4.14
420.541	4.06
420.746	3.98
420.952	3.92
421.158	3.85
421.364	3.71
421.57	3.74
421.776	3.72
421.982	3.81
422.187	4.01
422.393	4
422.599	3.72
422.805	3.67
423.01	3.85
423.216	4
423.422	3.9
423.628	3.92
423.833	3.81
424.039	3.62
424.245	3.64
424.45	3.69
424.656	3.78
424.862	3.88
425.067	4.07
425.273	3.83
425.478	3.73
425.684	3.65
425.889	3.63
426.095	3.64
426.301	3.83
426.506	3.68
426.712	3.64
426.917	3.5
427.123	3.73
427.328	3.47
427.533	3.53
427.739	3.21
427.944	3.38
428.15	3.4
428.355	3.38
428.561	3.33
428.766	3.34
428.971	3.34
429.177	3.63
429.382	3.8
429.587	4.2
429.793	4.34
429.998	4.46
430.203	4.23
430.408	4.28
430.614	4.4
430.819	4.22
431.024	4.13
431.229	4.17
431.434	4.03
431.64	3.67
431.845	3.46
432.05	3.58
432.255	3.58
432.46	3.79
432.665	3.75
432.87	3.68
433.076	3.8
433.281	3.95
433.486	3.97
433.691	3.83
433.896	3.94
434.101	3.96
434.306	3.8
434.511	3.89
434.716	4
434.921	4
435.126	4.11
435.331	4.03
435.535	3.88
435.74	3.86
435.945	3.82
436.15	3.75
436.355	3.58
436.56	3.54
436.765	3.55
436.97	3.48
437.174	3.56
437.379	3.43
437.584	3.38
437.789	3.55
437.993	3.47
438.198	3.68
438.403	3.65
438.608	3.71
438.812	3.6
439.017	3.56
439.222	3.35
439.426	3.26
439.631	3.28
439.836	3.37
440.04	3.28
440.245	3.33
440.45	3.38
440.654	3.39
440.859	3.33
441.063	3.47
441.268	3.49
441.472	3.58
441.677	3.65
441.881	3.59
442.086	3.57
442.29	3.79
442.495	3.79
442.699	3.75
442.904	3.75
443.108	3.73
443.312	3.69
443.517	3.57
443.721	3.48
443.925	3.41
444.13	3.65
444.334	3.66
444.538	3.4
444.743	3.24
444.947	3.24
445.151	3.23
445.356	3.29
445.56	3.28
445.764	3.33
445.968	3.34
446.173	3.38
446.377	3.22
446.581	3.26
446.785	3.21
446.989	3.2
447.193	3.16
447.398	3.22
447.602	3.22
447.806	3.22
448.01	3.35
448.214	3.34
448.418	3.32
448.622	3.56
448.826	3.44
449.03	3.46
449.234	3.39
449.438	3.24
449.642	3.34
449.846	3.57
450.05	3.62
450.254	3.63
450.458	3.68
450.662	3.72
450.866	3.46
451.069	3.61
451.273	3.7
451.477	3.89
451.681	3.98
451.885	3.81
452.089	3.5
452.292	3.28
452.496	3.03
452.7	3.04
452.904	3.05
453.107	3.04
453.311	3.01
453.515	3.16
453.719	3.09
453.922	3.09
454.126	3.15
454.33	3.22
454.533	3.49
454.737	3.54
454.94	3.55
455.144	3.51
455.348	3.55
455.551	3.51
455.755	3.54
455.958	3.59
456.162	3.66
456.365	3.58
456.569	3.6
456.772	3.5
456.976	3.49
457.179	3.53
457.383	3.4
457.586	3.41
457.79	3.24
457.993	2.92
458.196	2.86
458.4	2.83
458.603	2.85
458.807	2.89
459.01	2.96
459.213	2.92
459.417	2.96
459.62	3.03
459.823	3.16
460.026	3.33
460.23	3.42
460.433	3.47
460.636	3.5
460.839	3.54
461.042	3.59
461.246	3.65
461.449	3.81
461.652	3.81
461.855	3.74
462.058	3.62
462.261	3.44
462.464	3.58
462.668	3.54
462.871	3.61
463.074	3.61
463.277	3.58
463.48	3.56
463.683	3.41
463.886	3.45
464.089	3.72
464.292	3.64
464.495	3.74
464.698	3.64
464.901	3.79
465.104	3.66
465.306	3.61
465.509	3.47
465.712	3.25
465.915	3.45
466.118	3.31
466.321	3.11
466.524	3.22
466.726	3.22
466.929	3.23
467.132	3.27
467.335	3.29
467.538	3.36
467.74	3.36
467.943	3.44
468.146	3.39
468.348	3.47
468.551	3.6
468.754	3.52
468.956	3.39
469.159	3.3
469.362	3.29
469.564	3.39
469.767	3.44
469.969	3.62
470.172	3.64
470.375	3.68
470.577	3.53
470.78	3.55
470.982	3.57
471.185	3.71
471.387	3.86
471.59	3.8
471.792	3.84
471.995	3.79
472.197	3.65
472.399	3.55
472.602	3.51
472.804	3.51
473.007	3.54
473.209	3.5
473.411	3.75
473.614	3.78
473.816	3.78
474.018	3.64
474.22	3.65
474.423	3.61
474.625	3.84
474.827	3.86
475.03	3.78
475.232	3.73
475.434	3.8
475.636	3.66
475.838	3.7
476.04	3.65
476.243	3.74
476.445	3.69
476.647	3.78
476.849	3.75
477.051	3.62
477.253	3.91
477.455	3.73
477.657	3.85
477.859	3.84
478.061	3.7
478.263	3.71
478.465	3.86
478.667	3.85
478.869	3.83
479.071	3.69
479.273	3.84
479.475	3.72
479.677	3.82
479.879	3.74
480.081	3.65
480.283	3.69
480.485	3.78
480.686	3.71
480.888	3.78
481.09	3.78
481.292	3.75
481.494	3.66
481.695	3.62
481.897	3.61
482.099	3.55
482.301	3.45
482.502	3.31
482.704	3.17
482.906	3.07
483.107	2.97
483.309	2.97
483.511	2.95
483.712	2.95
483.914	3.01
484.115	2.98
484.317	2.92
484.519	2.96
484.72	2.99
484.922	2.99
485.123	3.01
485.325	3
485.526	3.01
485.728	3.05
485.929	3
486.131	2.91
486.332	2.9
486.534	2.98
486.735	2.94
486.936	2.99
487.138	3.03
487.339	3.01
487.541	2.99
487.742	3.02
487.943	3.02
488.144	3.13
488.346	3.08
488.547	3.16
488.748	3.14
488.95	3.2
489.151	3.18
489.352	3.11
489.553	3.15
489.755	3.19
489.956	3.12
490.157	3.19
490.358	3.04
490.559	3.18
490.76	3.14
490.961	3.14
491.163	3.18
491.364	3.12
491.565	3.23
491.766	3.23
491.967	3.28
492.168	3.29
492.369	3.27
492.57	3.34
492.771	3.33
492.972	3.33
493.173	3.3
493.374	3.14
493.575	3.23
493.776	3.24
493.976	3.29
494.177	3.36
494.378	3.39
494.579	3.38
494.78	3.41
494.981	3.37
495.182	3.35
495.382	3.47
495.583	3.68
495.784	3.64
495.985	3.43
496.185	3.31
496.386	3.34
496.587	3.4
496.788	3.48
496.988	3.46
497.189	3.53
497.39	3.56
497.59	3.45
497.791	3.49
497.992	3.55
498.192	3.64
498.393	3.66
498.593	3.43
498.794	3.44
498.994	3.34
499.195	3.37
499.395	3.35
499.596	3.43
499.796	3.55
499.997	3.51
500.197	3.46
500.398	3.52
500.598	3.54
500.799	3.75
500.999	3.58
501.199	3.64
501.4	3.69
501.6	3.61
501.801	3.49
502.001	3.61
502.201	3.61
502.402	3.52
502.602	3.47
502.802	3.5
503.002	3.54
503.203	3.67
503.403	3.75
503.603	3.85
503.803	3.76
504.003	3.77
504.204	3.84
504.404	3.82
504.604	3.98
504.804	4.05
505.004	4.18
505.204	4.01
505.404	3.94
505.604	3.7
505.804	3.48
506.005	3.6
506.205	3.62
506.405	3.48
506.605	3.52
506.805	3.38
507.005	3.54
507.204	3.37
507.404	3.45
507.604	3.47
507.804	3.64
508.004	3.75
508.204	3.71
508.404	3.83
508.604	3.73
508.804	3.67
509.003	3.76
509.203	3.62
509.403	3.71
509.603	3.68
509.803	3.74
510.002	3.8
510.202	3.8
510.402	3.94
510.602	3.78
510.801	3.9
511.001	3.98
511.201	3.93
511.4	3.88
511.6	3.81
511.8	3.83
511.999	3.91
512.199	3.79
512.398	3.88
512.598	3.95
512.797	4.04
512.997	4.06
513.197	3.98
513.396	4.06
513.596	4.09
513.795	4.19
513.994	4.24
514.194	4.16
514.393	4.26
514.593	4.17
514.792	4.12
514.992	4.08
515.191	4.11
515.39	4.07
515.59	3.97
515.789	4.04
515.988	3.95
516.188	3.86
516.387	3.91
516.586	3.84
516.786	3.83
516.985	3.83
517.184	3.69
517.383	3.57
517.582	3.65
517.782	3.73
517.981	3.68
518.18	3.76
518.379	3.81
518.578	3.71
518.777	3.69
518.976	3.66
519.176	3.66
519.375	3.78
519.574	3.85
519.773	3.82
519.972	3.72
520.171	3.8
520.37	3.75
520.569	3.68
520.768	3.79
520.967	3.8
521.166	3.78
521.365	3.74
521.564	3.69
521.762	3.61
521.961	3.65
522.16	3.74
522.359	3.6
522.558	3.57
522.757	3.71
522.956	3.8
523.154	3.89
523.353	4.06
523.552	4.09
523.751	4.1
523.949	4.16
524.148	4.17
524.347	4.14
524.546	4.27
524.744	4.29
524.943	4.29
525.142	4.25
525.34	4.26
525.539	4.18
525.737	4.18
525.936	4.17
526.135	4.11
526.333	4.04
526.532	4.13
526.73	4.1
526.929	4.05
527.127	4.02
527.326	3.93
527.524	3.84
527.723	3.83
527.921	3.83
528.12	3.82
528.318	3.94
528.516	3.97
528.715	3.92
528.913	3.91
529.112	3.95
529.31	3.95
529.508	4.02
529.707	4.12
529.905	4.19
530.103	4.19
530.301	4.25
530.5	4.2
530.698	4.22
530.896	4.25
531.094	4.34
531.293	4.41
531.491	4.46
531.689	4.41
531.887	4.44
532.085	4.39
532.283	4.49
532.481	4.53
532.68	4.44
532.878	4.53
533.076	4.6
533.274	4.51
533.472	4.62
533.67	4.67
533.868	4.78
534.066	4.74
534.264	4.79
534.462	4.74
534.66	4.75
534.858	4.83
535.056	4.64
535.253	4.63
535.451	4.59
535.649	4.48
535.847	4.46
536.045	4.41
536.243	4.42
536.441	4.45
536.638	4.39
536.836	4.44
537.034	4.5
537.232	4.63
537.43	4.61
537.627	4.74
537.825	4.73
538.023	4.64
538.22	4.59
538.418	4.64
538.616	4.67
538.813	4.84
539.011	4.89
539.209	5
539.406	5.07
539.604	5.05
539.801	5.17
539.999	5.28
540.196	5.45
540.394	5.5
540.591	5.43
540.789	5.3
540.986	5.29
541.184	5.26
541.381	5.28
541.579	5.37
541.776	5.4
541.974	5.45
542.171	5.4
542.368	5.39
542.566	5.4
542.763	5.45
542.96	5.61
543.158	5.63
543.355	5.74
543.552	5.71
543.75	5.66
543.947	5.86
544.144	5.83
544.341	5.94
544.539	5.96
544.736	6.08
544.933	6.2
545.13	6.21
545.327	6.39
545.524	6.43
545.722	6.48
545.919	6.49
546.116	6.35
546.313	6.37
546.51	6.42
546.707	6.37
546.904	6.32
547.101	6.44
547.298	6.47
547.495	6.35
547.692	6.39
547.889	6.4
548.086	6.42
548.283	6.59
548.48	6.68
548.677	6.69
548.874	6.89
549.07	7.01
549.267	6.8
549.464	6.78
549.661	6.89
549.858	6.83
550.055	7.04
550.251	7.12
550.448	7.2
550.645	7.14
550.842	7.05
551.038	7.33
551.235	7.5
551.432	7.53
551.628	7.69
551.825	7.7
552.022	7.8
552.218	7.71
552.415	7.86
552.612	7.74
552.808	8.02
553.005	8.29
553.201	7.96
553.398	7.95
553.594	8.18
553.791	8.21
553.987	8.29
554.184	8.2
554.38	8.3
554.577	8.2
554.773	8.18
554.97	7.91
555.166	7.69
555.362	7.73
555.559	7.45
555.755	7.36
555.952	7.66
556.148	7.56
556.344	7.63
556.541	7.68
556.737	7.84
556.933	8.03
557.129	8.29
557.326	8.59
557.522	8.77
557.718	8.99
557.914	8.98
558.11	8.73
558.307	8.77
558.503	8.88
558.699	8.79
558.895	8.71
559.091	8.67
559.287	8.57
559.483	8.45
559.679	8.62
559.876	8.8
560.072	8.81
560.268	8.85
560.464	8.91
560.66	8.77
560.856	8.95
561.052	9.2
561.247	9.45
561.443	9.75
561.639	9.78
561.835	9.74
562.031	9.64
562.227	9.83
562.423	9.93
562.619	10.27
562.815	10.25
563.01	10.14
563.206	10.08
563.402	9.96
563.598	9.84
563.793	9.96
563.989	9.65
564.185	9.68
564.381	9.46
564.576	9.45
564.772	9.12
564.968	9.4
565.163	9.49
565.359	9.6
565.555	9.73
565.75	9.65
565.946	9.68
566.141	10.06
566.337	10.03
566.532	10.19
566.728	10.06
566.923	10.23
567.119	10.03
567.314	10.06
567.51	10.09
567.705	10.01
567.901	10.16
568.096	10.07
568.292	10.01
568.487	10.1
568.682	10.05
568.878	10.38
569.073	10.52
569.268	10.98
569.464	10.96
569.659	10.94
569.854	11.12
570.05	11.09
570.245	11.2
570.44	11.3
570.635	11.28
570.831	11.47
571.026	11.31
571.221	11.17
571.416	11.17
571.611	11.26
571.806	11.33
572.002	11.33
572.197	11.31
572.392	11.45
572.587	11.34
572.782	11.51
572.977	11.59
573.172	11.64
573.367	11.89
573.562	11.85
573.757	11.92
573.952	12.02
574.147	12
574.342	12.17
574.537	12.14
574.732	12.2
574.927	12.08
575.121	12.04
575.316	12.14
575.511	12.02
575.706	12.01
575.901	12.17
576.096	12.12
576.29	12.11
576.485	12.15
576.68	12.06
576.875	12.18
577.069	12.34
577.264	12.13
577.459	12.11
577.654	12.05
577.848	12.04
578.043	11.95
578.238	11.98
578.432	12.09
578.627	11.83
578.821	11.89
579.016	11.84
579.21	11.76
579.405	12.1
579.6	12.13
579.794	12.37
579.989	12.35
580.183	12.36
580.378	12.34
580.572	12.38
580.766	12.42
580.961	12.53
581.155	12.64
581.35	12.71
581.544	12.48
581.738	12.55
581.933	12.36
582.127	12.47
582.321	12.35
582.516	12.56
582.71	12.53
582.904	12.76
583.099	12.67
583.293	12.52
583.487	12.78
583.681	13.12
583.875	13.19
584.07	13.31
584.264	13.48
584.458	13.71
584.652	13.43
584.846	13.44
585.04	13.2
585.234	13.49
585.428	13.73
585.623	13.46
585.817	13.39
586.011	13.4
586.205	13.3
586.399	13.2
586.593	12.87
586.787	13.2
586.981	13.02
587.174	13.24
587.368	13.16
587.562	12.97
587.756	13.12
587.95	12.93
588.144	12.7
588.338	12.97
588.532	12.63
588.725	12.83
588.919	12.83
589.113	13.18
589.307	13.23
589.501	13.03
589.694	13.06
589.888	12.81
590.082	12.89
590.275	12.97
590.469	12.83
590.663	13.19
590.856	13.34
591.05	13.18
591.244	12.87
591.437	12.73
591.631	12.77
591.824	12.53
592.018	12.73
592.212	12.95
592.405	13.19
592.599	13.21
592.792	13.08
592.986	12.95
593.179	12.79
593.372	13.03
593.566	13.18
593.759	13.15
593.953	13.59
594.146	13.54
594.339	13.24
594.533	13.29
594.726	13.07
594.92	13.11
595.113	13.14
595.306	13.43
595.499	13.32
595.693	13.4
595.886	13.48
596.079	13.31
596.272	13.55
596.466	13.75
596.659	13.54
596.852	13.66
597.045	13.84
597.238	13.91
597.431	13.79
597.624	14.01
597.818	13.93
598.011	14.05
598.204	14.1
598.397	13.93
598.59	14.13
598.783	14.23
598.976	14.41
599.169	14.28
599.362	14.16
599.555	14.32
599.748	14.22
599.941	14
600.134	13.94
600.326	14.19
600.519	14.2
600.712	13.93
600.905	13.66
601.098	13.51
601.291	13.4
601.483	13.37
601.676	13.26
601.869	13.17
602.062	13.59
602.255	13.52
602.447	13.25
602.64	13.29
602.833	13.36
603.025	13.58
603.218	13.53
603.411	13.68
603.603	13.81
603.796	13.84
603.989	13.7
604.181	13.71
604.374	13.85
604.566	14.02
604.759	14.02
604.951	14.1
605.144	14.03
605.336	14.25
605.529	14.22
605.721	14.19
605.914	14.15
606.106	14.44
606.299	14.31
606.491	14.29
606.683	14.04
606.876	14.06
607.068	13.91
607.26	14.17
607.453	14.02
607.645	14.01
607.837	13.88
608.03	14.23
608.222	14.2
608.414	14.09
608.606	14.2
608.799	14.34
608.991	14.2
609.183	14.38
609.375	14.13
609.567	14.09
609.759	14.14
609.952	14.27
610.144	14.02
610.336	13.86
610.528	13.97
610.72	13.97
610.912	13.92
611.104	14.24
611.296	14.13
611.488	14.27
611.68	14.38
611.872	14.47
612.064	14.41
612.256	14.32
612.448	14.52
612.64	14.66
612.832	14.19
613.023	14.13
613.215	14.07
613.407	14.32
613.599	14.22
613.791	14.06
613.983	13.92
614.174	13.86
614.366	13.81
614.558	13.73
614.75	13.55
614.941	13.56
615.133	13.66
615.325	13.44
615.516	13.25
615.708	13.45
615.9	13.49
616.091	13.58
616.283	13.51
616.475	13.75
616.666	13.64
616.858	13.98
617.049	14.41
617.241	14.36
617.432	14.49
617.624	14.46
617.815	14.55
618.007	14.51
618.198	14.59
618.39	14.61
618.581	14.37
618.773	14.26
618.964	13.82
619.155	13.58
619.347	13.61
619.538	13.42
619.729	13.61
619.921	13.41
620.112	13.67
620.303	13.61
620.494	13.76
620.686	14.15
620.877	14.6
621.068	14.76
621.259	14.91
621.451	15.09
621.642	15.01
621.833	14.64
622.024	14.43
622.215	14.31
622.406	14.07
622.597	13.96
622.788	13.91
622.98	13.67
623.171	13.43
623.362	13.75
623.553	13.68
623.744	14.26
623.935	14.37
624.126	14.99
624.317	15
624.508	15.31
624.698	15.46
624.889	15.31
625.08	15.57
625.271	15.71
625.462	15.53
625.653	15.46
625.844	14.89
626.034	15.03
626.225	14.8
626.416	14.89
626.607	14.72
626.798	14.48
626.988	14.47
627.179	14.25
627.37	14.37
627.56	14.58
627.751	14.52
627.942	14.64
628.132	14.47
628.323	14.54
628.514	14.51
628.704	14.56
628.895	14.61
629.085	14.6
629.276	14.43
629.466	14.28
629.657	13.77
629.847	13.59
630.038	13.71
630.228	13.73
630.419	13.57
630.609	13.65
630.8	13.77
630.99	14.38
631.181	14.32
631.371	14.43
631.561	14.5
631.752	14.5
631.942	14.52
632.132	14.49
632.323	14.44
632.513	14.52
632.703	14.33
632.893	14.03
633.084	13.68
633.274	13.98
633.464	14.04
633.654	14.35
633.844	14.52
634.034	14.7
634.225	14.79
634.415	15.08
634.605	15.18
634.795	15.05
634.985	15.15
635.175	15.3
635.365	14.89
635.555	15.19
635.745	15.24
635.935	15.31
636.125	15.24
636.315	15.26
636.505	15.28
636.695	15.25
636.885	15.35
637.075	15.69
637.265	15.75
637.455	15.94
637.644	15.8
637.834	15.94
638.024	16.05
638.214	15.86
638.404	15.91
638.593	15.63
638.783	15.3
638.973	15.21
639.163	14.98
639.352	14.31
639.542	14.21
639.732	14.37
639.921	14
640.111	14.02
640.301	14.48
640.49	14.05
640.68	14.26
640.87	14.31
641.059	14.77
641.249	14.65
641.438	15.21
641.628	15.48
641.817	15.24
642.007	15.21
642.196	15.11
642.386	15.04
642.575	15.22
642.764	14.7
642.954	15.09
643.143	14.88
643.333	15.01
643.522	14.86
643.711	15.03
643.901	15.11
644.09	14.64
644.279	14.54
644.469	14.7
644.658	15
644.847	15.34
645.036	15.03
645.226	14.96
645.415	14.95
645.604	14.75
645.793	14.54
645.982	14.52
646.171	15.01
646.361	14.69
646.55	14.81
646.739	14.91
646.928	14.67
647.117	14.57
647.306	14.51
647.495	14.26
647.684	14.8
647.873	14.62
648.062	14.42
648.251	13.87
648.44	14.35
648.629	13.99
648.818	13.92
649.007	13.93
649.196	14.2
649.384	14.33
649.573	14.5
649.762	14.3
649.951	14.44
650.14	14.52
650.328	15.45
650.517	15.25
650.706	15.59
650.895	15.07
651.083	15.46
651.272	15.32
651.461	15.21
651.65	15
651.838	14.99
652.027	15.28
652.216	15.52
652.404	15.17
652.593	15.4
652.781	15.16
652.97	15.93
653.158	15.89
653.347	16.23
653.535	16.65
653.724	16.89
653.912	16.66
654.101	16.16
654.289	16.03
654.478	15.71
654.666	15.21
654.855	15.26
655.043	14.89
655.231	14.8
655.42	14.6
655.608	14.39
655.796	14.66
655.985	15.16
656.173	15.53
656.361	15.3
656.55	15.58
656.738	15.89
656.926	16.2
657.114	16.14
657.302	15.78
657.491	15.93
657.679	15.61
657.867	15.29
658.055	15.14
658.243	14.99
658.431	15.02
658.619	14.75
658.807	14.88
658.996	14.81
659.184	14.63
659.372	15.11
659.56	15.15
659.748	15.39
659.936	15.19
660.124	14.98
660.311	14.89
660.499	14.83
660.687	14.97
660.875	14.77
661.063	14.61
661.251	14.9
661.439	14.48
661.627	14.12
661.814	13.82
662.002	14.18
662.19	14.04
662.378	14.58
662.565	14.73
662.753	14.94
662.941	14.91
663.129	14.9
663.316	14.62
663.504	14.58
663.692	14.53
663.879	14.9
664.067	15.21
664.254	15.45
664.442	14.59
664.63	14.88
664.817	14.68
665.005	14.88
665.192	14.69
665.38	15.04
665.567	15.54
665.755	15.72
665.942	15.31
666.13	14.89
666.317	14.79
666.504	15.53
666.692	15.11
666.879	15.1
667.067	15.15
667.254	15.22
667.441	14.94
667.629	14.57
667.816	14.49
668.003	14.51
668.19	14.98
668.378	14.84
668.565	14.53
668.752	14.95
668.939	15.3
669.127	14.84
669.314	15.2
669.501	15.43
669.688	15.55
669.875	15.45
670.062	15.79
670.249	14.89
670.436	15.22
670.623	15.06
670.81	14.75
670.997	14.25
671.184	14.67
671.371	14.37
671.558	13.75
671.745	13.91
671.932	13.9
672.119	13.83
672.306	14.56
672.493	14.39
672.68	14.29
672.867	14.44
673.054	14.7
673.24	14.41
673.427	14.14
673.614	14.35
673.801	14.06
673.988	14.2
674.174	13.98
674.361	14.32
674.548	14.64
674.734	15.01
674.921	14.88
675.108	14.64
675.294	15.12
675.481	15.46
675.668	15.76
675.854	16.1
676.041	15.88
676.227	15.61
676.414	14.88
676.601	14.82
676.787	14.92
676.974	15.14
677.16	14.95
677.347	14.64
677.533	14.49
677.719	14.68
677.906	14.32
678.092	14.47
678.279	14.79
678.465	15.08
678.651	14.78
678.838	14.49
679.024	14.1
679.21	14.63
679.397	14.5
679.583	14.82
679.769	14.51
679.955	14.87
680.142	15.18
680.328	14.85
680.514	15.01
680.7	15.05
680.886	15.3
681.073	15.71
681.259	15.59
681.445	15.52
681.631	15.47
681.817	15.71
682.003	15.59
682.189	15.58
682.375	15.89
682.561	15.82
682.747	16.07
682.933	16.07
683.119	15.74
683.305	15.99
683.491	16.68
683.677	16.42
683.863	16.51
684.049	16.91
684.235	17.17
684.42	17.38
684.606	17.13
684.792	16.92
684.978	16.91
685.164	16.99
685.349	16.52
685.535	15.94
685.721	16.08
685.907	16.05
686.092	15.88
686.278	15.24
686.464	15.01
686.649	14.91
686.835	15.02
687.021	14.94
687.206	14.48
687.392	14.57
687.577	14.71
687.763	14.71
687.948	14.59
688.134	14.05
688.319	14.12
688.505	14.03
688.69	14.07
688.876	14.09
689.061	13.82
689.247	14.38
689.432	14.75
689.618	15.34
689.803	15.48
689.988	15.86
690.174	16.31
690.359	16.45
690.544	17.02
690.73	17.51
690.915	17.56
691.1	17.96
691.285	18.35
691.471	18.13
691.656	17.66
691.841	17.35
692.026	17.05
692.211	17.38
692.396	17.36
692.582	17.17
692.767	16.38
692.952	16.29
693.137	16.22
693.322	15.77
693.507	16.06
693.692	15.91
693.877	15.86
694.062	16.02
694.247	15.44
694.432	15.47
694.617	15.63
694.802	16.36
694.987	16.49
695.172	16.45
695.357	16.75
695.541	16.71
695.726	17.48
695.911	17.97
696.096	17.66
696.281	17.69
696.466	17.53
696.65	17.25
696.835	17.59
697.02	17.64
697.204	17.36
697.389	17.2
697.574	16.74
697.759	16.05
697.943	16.1
698.128	16.23
698.312	16.35
698.497	16.52
698.682	16.64
698.866	16.26
699.051	16.34
699.235	16.16
699.42	16.13
699.604	16.55
699.789	16.82
699.973	16.79
700.158	16.87
700.342	16.55
700.527	16.65
700.711	16.52
700.895	16.68
701.08	16.73
701.264	16.64
701.448	16.64
701.633	16.78
701.817	16.93
702.001	16.8
702.186	16.16
702.37	16.41
702.554	16.32
702.738	16.76
702.923	16.29
703.107	16.54
703.291	17.27
703.475	17.34
703.659	16.98
703.843	16.47
704.027	16.82
704.212	17.24
704.396	17.4
704.58	17.71
704.764	17.94
704.948	17.35
705.132	17.31
705.316	17.02
705.5	18.15
705.684	18.7
705.868	19.34
706.052	19.51
706.235	19.81
706.419	19.65
706.603	19.3
706.787	18.38
706.971	19.33
707.155	19.03
707.339	19.37
707.522	18.03
707.706	16.53
707.89	16.63
708.074	15.9
708.257	15.99
708.441	15.53
708.625	15.57
708.808	16.74
708.992	16.79
709.176	16.94
709.359	17.31
709.543	17.85
709.727	19.15
709.91	19.2
710.094	19.74
710.277	19.71
710.461	19.9
710.644	19.61
710.828	19
711.011	19.1
711.195	18.81
711.378	18.61
711.562	18.47
711.745	17.89
711.928	17.24
712.112	16.97
712.295	16.55
712.478	17.03
712.662	16.78
712.845	16.98
713.028	16.85
713.212	16.83
713.395	17.11
713.578	17.13
713.761	17.45
713.945	18.04
714.128	18.64
714.311	19.02
714.494	18.77
714.677	20.19
714.86	19.36
715.043	19.18
715.227	19.39
715.41	19.61
715.593	19.23
715.776	18.58
715.959	18.03
716.142	17.6
716.325	17.16
716.508	17.56
716.691	15.85
716.874	16.69
717.057	17.45
717.239	17.76
717.422	17.05
717.605	17.72
717.788	17.96
717.971	18.5
718.154	18.88
718.337	18.75
718.519	18.67
718.702	19.32
718.885	18.94
719.068	18.89
719.25	18.34
719.433	18.7
719.616	18.96
719.798	18.64
719.981	18.69
720.164	17.74
720.346	18.55
720.529	19.01
720.712	18.93
720.894	18.6
721.077	17.98
721.259	18.12
721.442	17.49
721.624	16.97
721.807	18.38
721.989	17.27
722.172	17.43
722.354	17.77
722.537	16.92
722.719	17.63
722.901	16.99
723.084	17.15
723.266	17.45
723.448	17.94
723.631	17.18
723.813	16.58
723.995	17.01
724.178	16.16
724.36	15.61
724.542	16.03
724.724	15.25
724.907	15.66
725.089	15.61
725.271	14.79
725.453	14.52
725.635	15.18
725.817	15.33
725.999	15.53
726.181	16.6
726.364	16.25
726.546	15.2
726.728	17.17
726.91	18.13
727.092	17.63
727.274	18.64
727.456	19.47
727.638	19.83
727.819	20.01
728.001	19.6
728.183	20.07
728.365	20.57
728.547	21.14
728.729	19.92
728.911	19.39
729.093	19.4
729.274	18.01
729.456	16.78
729.638	16.68
729.82	16.08
730.001	16.68
730.183	16.2
730.365	16.82
730.546	16.27
730.728	15.33
730.91	15.63
731.091	15.88
731.273	15.96
731.455	16.27
731.636	16.11
731.818	16.6
731.999	16.12
732.181	16.56
732.362	15.9
732.544	16.88
732.725	17.68
732.907	18.05
733.088	18.88
733.27	19.45
733.451	19.8
733.633	19.94
733.814	20.54
733.995	20.56
734.177	20.37
734.358	20.61
734.539	21.22
734.721	20.92
734.902	20.62
735.083	20.1
735.264	21
735.446	21.28
735.627	21.2
735.808	20.55
735.989	21.4
736.17	20.81
736.351	20.38
736.533	18.81
736.714	18.44
736.895	18
737.076	17.98
737.257	17.52
737.438	17.32
737.619	17.05
737.8	16.98
737.981	16.69
738.162	16.83
738.343	17.02
738.524	17.62
738.705	18.2
738.886	18.91
739.067	19.39
739.247	19.4
739.428	19.93
739.609	19.62
739.79	19.38
739.971	19.96
740.151	20.48
740.332	20.78
740.513	21.82
740.694	23.12
740.874	23.16
741.055	23.17
741.236	22.86
741.417	22.38
741.597	22.13
741.778	22.1
741.958	20.37
742.139	19.59
742.32	18.7
742.5	17.47
742.681	16.94
742.861	16.69
743.042	16.45
743.222	14.93
743.403	15.43
743.583	16.8
743.764	16.44
743.944	17.59
744.124	18.67
744.305	19.69
744.485	19.61
744.666	18.68
744.846	17.48
745.026	17.1
745.207	18.63
745.387	19.27
745.567	19.54
745.747	20.11
745.928	19.49
746.108	19.05
746.288	20.04
746.468	20.08
746.648	20.16
746.829	20.2
747.009	19.86
747.189	20.19
747.369	19.9
747.549	20.13
747.729	20.78
747.909	22.02
748.089	21.55
748.269	21.1
748.449	22.4
748.629	21.63
748.809	21.51
748.989	22.84
749.169	23.02
749.349	22.28
749.529	21.6
749.709	20.92
749.889	20.43
750.068	20.17
750.248	19
750.428	18.1
750.608	19.17
750.788	19.87
750.967	17.38
751.147	16.81
751.327	17.1
751.507	16.43
751.686	16.59
751.866	17.51
752.046	18.83
752.225	19.71
752.405	19.87
752.585	21.33
752.764	21.12
752.944	22.1
753.123	22.28
753.303	22.8
753.482	22.72
753.662	21.43
753.841	20.86
754.021	20.24
754.2	20.74
754.38	20.26
754.559	19.32
754.739	18.81
754.918	19.62
755.097	20.53
755.277	19.95
755.456	20.6
755.635	21.74
755.815	21.05
755.994	21.31
756.173	20.48
756.352	19.41
756.532	17.96
756.711	18.65
756.89	18.16
757.069	17.64
757.248	17.24
757.427	17.38
757.607	18.24
757.786	18.35
757.965	16.73
758.144	16.63
758.323	17.19
758.502	18.46
758.681	19.26
758.86	19.72
759.039	19.54
759.218	19.62
759.397	18.94
759.576	17.77
759.755	17.89
759.934	18.99
760.113	17.81
760.291	18.39
760.47	17.86
760.649	17.08
760.828	18.4
761.007	18.66
761.186	17.87
761.364	19.27
761.543	19.47
761.722	17.87
761.901	17.59
762.079	18.94
762.258	19.51
762.437	19.92
762.615	20.63
762.794	19.12
762.972	18.24
763.151	18.49
763.33	18.08
763.508	18.18
763.687	19.66
763.865	20.09
764.044	19.81
764.222	18.99
764.401	18.96
764.579	18.73
764.758	18.58
764.936	19.37
765.114	20.33
765.293	20.76
765.471	20.15
765.65	20.25
765.828	20.19
766.006	20.54
766.184	22.04
766.363	23.02
766.541	22.61
766.719	22.72
766.898	21.76
767.076	22.38
767.254	20.57
767.432	20.55
767.61	21.11
767.788	20.68
767.967	20.32
768.145	18.88
768.323	17.28
768.501	16.81
768.679	17.91
768.857	18.86
769.035	17.79
769.213	18.74
769.391	18.77
769.569	18.1
769.747	20.72
769.925	22.23
770.103	21.04
770.281	22.22
770.459	22.97
770.636	21.76
770.814	23.07
770.992	22.37
771.17	22.68
771.348	24
771.525	24.88
771.703	22.98
771.881	21.38
772.059	23.43
772.236	24.16
772.414	24.58
772.592	25.52
772.769	24.1
772.947	22.55
773.125	24.1
773.302	26.69
773.48	23.97
773.657	26.29
773.835	26.98
774.013	27.04
774.19	27.17
774.368	27.78
774.545	27.41
774.723	28.3
774.9	30.02
775.077	28.91
775.255	27.36
775.432	29.92
775.61	28.67
775.787	28.09
775.964	28.16
776.142	25.05
776.319	24.86
776.496	23.73
776.674	24.11
776.851	24.23
777.028	25.52
777.205	25.53
777.382	25.88
777.56	26.69
777.737	27.79
777.914	27.67
778.091	28.87
778.268	28.77
778.445	31.45
778.622	30.7
778.8	31.23
778.977	29.83
779.154	28.02
779.331	27.55
779.508	27
779.685	27.3
779.862	25.77
780.038	25.74
780.215	25.8
780.392	24.6
780.569	25.29
780.746	22.61
780.923	21.05
781.1	24.15
781.277	23.2
781.453	21.69
781.63	20.36
781.807	21.36
781.984	20.7
782.16	19.31
782.337	18.18
782.514	17.08
782.691	21.3
782.867	22.75
783.044	19.82
783.221	21.96
783.397	21.08
783.574	20.68
783.75	21.52
783.927	24.34
784.103	25.93
784.28	26.44
784.456	27.58
784.633	27.52
784.809	26.84
784.986	27.72
785.162	24.72
785.339	24.14
785.515	24.45
785.692	25.22
785.868	23.89
786.044	24.68
786.221	25.6
786.397	24.8
786.573	24.36
786.749	27.72
786.926	27.75
787.102	27.43
787.278	27.96
787.454	29.61
787.631	29.6
787.807	28.28
787.983	26.96
788.159	25.69
788.335	26.99
788.511	23.09
788.687	20.37
788.863	19.25
789.039	22.84
789.216	21.97
789.392	20.76
789.568	16.61
789.744	16.6
789.919	16.49
790.095	17.66
790.271	17.87
790.447	20.38
790.623	20.23
790.799	20.26
790.975	17.3
791.151	21.05
791.327	20.88
791.502	24.38
791.678	25.99
791.854	26.36
792.03	26.48
792.205	26.01
792.381	27.82
792.557	29.7
792.733	31.35
792.908	32.85
793.084	29.09
793.259	29.71
793.435	30.67
793.611	32.18
793.786	33.84
793.962	33.77
794.137	32.72
794.313	31.89
794.488	30.22
794.664	30.83
794.839	29.49
795.015	33.03
795.19	31.01
795.366	28.9
795.541	26.01
795.716	23.93
795.892	24
796.067	21.68
796.242	19.76
796.418	23.94
796.593	22.49
796.768	22.81
796.944	21.73
797.119	23.5
797.294	25.88
797.469	24.93
797.644	25.08
797.82	24.82
797.995	25.77
798.17	26.18
798.345	22.22
798.52	24.22
798.695	22.9
798.87	25.01
799.045	25.52
799.22	22.86
799.395	26.55
799.57	27.71
799.745	28.45
799.92	28.85
800.095	29.28
800.27	29.36
800.445	28.34
800.62	29.96
800.795	28.48
800.97	29.13
801.145	28.48
801.319	25.36
801.494	21.67
801.669	17.72
801.844	18.15
802.018	19.98
802.193	19.83
802.368	16.67
802.543	18.17
802.717	17.83
802.892	15.58
803.067	21.65
803.241	21.95
803.416	26.19
803.59	28.66
803.765	29.47
803.94	28.34
804.114	30.05
804.289	31.85
804.463	31.42
804.638	31.86
804.812	33.72
804.986	28.67
805.161	29.68
805.335	28.91
805.51	28.12
805.684	28.67
805.858	26.34
806.033	25.32
806.207	25.1
806.381	23.67
806.556	23.94
806.73	25.75
806.904	29.58
807.078	29.76
807.253	32.81
807.427	30.77
807.601	32.75
807.775	37.18
807.949	37.32
808.123	38.27
808.298	39.36
808.472	37.02
808.646	34.98
808.82	30.01
808.994	29.81
809.168	24.15
809.342	31.67
809.516	26.77
809.69	28.33
809.864	28.92
810.038	27.06
810.212	32.82
810.385	34.22
810.559	32.54
810.733	36.36
810.907	38.46
811.081	38.26
811.255	36.37
811.428	40.49
811.602	33.63
811.776	32.6
811.95	30.25
812.123	24.62
812.297	26.17
812.471	28.27
812.644	26
812.818	24.76
812.992	26.45
813.165	26.34
813.339	24.91
813.512	26.89
813.686	30.93
813.86	35.67
814.033	34.74
814.207	34.44
814.38	30.56
814.554	31.43
814.727	31.58
814.9	32.77
815.074	30.59
815.247	31.04
815.421	33.98
815.594	33.49
815.767	33.05
815.941	33.05
816.114	28.51
816.287	31.5
816.46	31.17
816.634	34.02
816.807	34.94
816.98	35.33
817.153	34.21
817.327	30.6
817.5	27.87
817.673	25.82
817.846	27.02
818.019	30.82
818.192	28.79
818.365	28.85
818.538	24.95
818.711	23.95
818.884	24.05
819.057	24.15
819.23	25.7
819.403	24.8
819.576	27.17
819.749	26.3
819.922	22.2
820.095	24.18
820.268	25.76
820.441	22.73
820.614	22.3
820.786	22.18
820.959	21.36
821.132	20.26
821.305	19.8
821.477	20.25
821.65	19.02
821.823	19.62
821.996	19.14
822.168	18.19
822.341	18.94
822.514	18.5
822.686	18.64
822.859	18.98
823.031	18.8
823.204	19
823.376	18.6
823.549	19.18
823.722	19.04
823.894	18.96
824.067	19.04
824.239	19.98
824.411	20.2
824.584	19.21
824.756	19.4
824.929	20.41
825.101	19.84
825.273	20.12
825.446	19.03
825.618	20.17
825.79	20.62
825.963	20.02
826.135	19.42
826.307	21.23
826.479	22.14
826.652	21.46
826.824	19.83
826.996	20.57
827.168	19.75
827.34	20.41
827.512	20.14
827.684	19.65
827.856	20.48
828.029	21.95
828.201	19.6
828.373	20.37
828.545	21.3
828.717	22.35
828.889	22.91
829.061	24.1
829.232	25.13
829.404	27.19
829.576	27.93
829.748	28.02
829.92	22.92
830.092	22.68
830.264	21.62
830.436	22.88
830.607	21.65
830.779	22.59
830.951	19.76
831.123	19.57
831.294	15.61
831.466	14.74
831.638	14.96
831.809	20.12
831.981	23.01
832.153	23.83
832.324	19.75
832.496	26.85
832.667	24.39
832.839	25.13
833.011	25.39
833.182	27.17
833.354	24.97
833.525	26.82
833.697	25.68
833.868	26.84
834.039	26.05
834.211	27.18
834.382	25.05
834.554	25.32
834.725	25.05
834.896	25.15
835.068	26.52
835.239	29.48
835.41	30.62
835.581	30.18
835.753	30.53
835.924	31.74
836.095	29.99
836.266	28.63
836.438	27.44
836.609	30.51
836.78	31.02
836.951	28.21
837.122	28.45
837.293	28.55
837.464	29.04
837.635	30.42
837.806	29.53
837.977	32.86
838.148	38.41
838.319	39.23
838.49	36.76
838.661	37.69
838.832	38.37
839.003	41.81
839.174	38.53
839.345	42.32
839.516	36.71
839.687	39.08
839.857	40.44
840.028	33.61
840.199	39.04
840.37	38.5
840.54	40.19
840.711	39.39
840.882	34.43
841.053	31.38
841.223	32.34
841.394	33.19
841.564	30.56
841.735	30.79
841.906	29.9
842.076	24.29
842.247	28.86
842.417	26.73
842.588	23.33
842.758	33.55
842.929	40.08
843.099	40.33
843.27	38.28
843.44	38.32
843.611	36.92
843.781	42.56
843.951	41.9
844.122	42.19
844.292	45.54
844.462	53.21
844.633	43.47
844.803	34.57
844.973	30.99
845.144	37.35
845.314	38.14
845.484	34.51
845.654	30.27
845.824	34.84
845.995	29.78
846.165	24
846.335	19.67
846.505	35.12
846.675	40.19
846.845	37.3
847.015	25.52
847.185	26.98
847.355	22.95
847.525	34.83
847.695	36.68
847.865	37.88
848.035	41.37
848.205	39.01
848.375	40.43
848.545	46.83
848.715	48.5
848.884	59.24
849.054	62.72
849.224	70.92
849.394	66.25
849.564	66.6
849.733	68.87
849.903	62.15
850.073	67.55
850.243	63.27
850.412	74.48
850.582	80.46
850.752	87.51
850.921	75.04
851.091	69.56
851.26	64.6
851.43	57.43
851.599	55.43
851.769	56.6
851.939	57.29
852.108	51.19
852.278	44.77
852.447	42.81
852.616	41.22
852.786	38.24
852.955	43.34
853.125	44.12
853.294	54.22
853.463	54.96
853.633	59.6
853.802	54.44
853.971	58.21
854.141	69.99
854.31	73.71
854.479	67.19
854.648	67.41
854.818	59.22
854.987	66.86
855.156	66.94
855.325	58.68
855.494	55.99
855.663	59.01
855.832	63.17
856.001	40.5
856.171	41.81
856.34	46.21
856.509	55.42
856.678	59.87
856.847	55.66
857.016	65.58
857.185	74.11
857.353	72.92
857.522	79.69
857.691	68.63
857.86	77.13
858.029	65.69
858.198	65.57
858.367	55.01
858.535	54.27
858.704	59.53
858.873	50.64
859.042	47.1
859.21	51.66
859.379	33.29
859.548	44.96
859.717	52.22
859.885	54.94
860.054	58.05
860.222	62.54
860.391	71.15
860.56	62.05
860.728	62.78
860.897	63.74
861.065	44.68
861.234	63.27
861.402	64.03
861.571	48.73
861.739	64.45
861.908	58.05
862.076	68.33
862.244	56.58
862.413	55.99
862.581	49.6
862.749	52.68
862.918	70.66
863.086	70.34
863.254	69.21
863.423	78.43
863.591	74.55
863.759	73.44
863.927	59.9
864.096	68.12
864.264	71.13
864.432	70.78
864.6	67.67
864.768	64.67
864.936	61.53
865.104	59.85
865.272	62.63
865.44	62.56
865.608	65.16
865.776	74.65
865.944	64.96
866.112	64.02
866.28	68.14
866.448	64.44
866.616	58.21
866.784	61.16
866.952	68.74
867.12	60.58
867.288	59.24
867.455	52.42
867.623	43.47
867.791	50.77
867.959	45.84
868.127	43.29
868.294	42.2
868.462	58.52
868.63	55.17
868.797	63.08
868.965	60.18
869.133	56.17
869.3	48.11
869.468	51.35
869.636	48.01
869.803	60.2
869.971	67.9
870.138	67.99
870.306	63.22
870.473	66.23
870.641	44.93
870.808	46.64
870.975	54.49
871.143	69.89
871.31	67.76
871.478	68.99
871.645	70.63
871.812	62.9
871.98	56.83
872.147	59.75
872.314	61.67
872.482	69.28
872.649	77.78
872.816	64.5
872.983	62.21
873.15	69.05
873.318	56.08
873.485	56.57
873.652	62.35
873.819	65.87
873.986	57.64
874.153	50.48
874.32	38.52
874.487	37.16
874.654	42.15
874.821	42.13
874.988	42.39
875.155	56.93
875.322	50.08
875.489	48.09
875.656	50.17
875.823	56.33
875.99	61.68
876.157	83.96
876.324	87.29
876.49	89.51
876.657	92.41
876.824	81.31
876.991	82.99
877.157	82.23
877.324	90.39
877.491	90.78
877.658	80.05
877.824	76.6
877.991	71.78
878.157	59.78
878.324	58.71
878.491	54.32
878.657	57.87
878.824	58.97
878.99	54
879.157	32.32
879.323	31.85
879.49	56.52
879.656	65.8
879.823	65.98
879.989	77.82
880.156	88.4
880.322	87.89
880.488	86.54
880.655	77.41
880.821	77.04
880.987	79.35
881.154	77.56
881.32	69.95
881.486	59.51
881.652	52.84
881.819	45.47
881.985	38.15
882.151	33.81
882.317	34.39
882.483	36.53
882.649	36.12
882.816	36.01
882.982	31.05
883.148	27.49
883.314	26.07
883.48	23.76
883.646	24.86
883.812	22.6
883.978	23.13
884.144	24.09
884.31	21.44
884.476	22.06
884.642	20.94
884.807	22.82
884.973	21.85
885.139	23.87
885.305	28.66
885.471	28.32
885.637	30.4
885.802	33.1
885.968	30.11
886.134	32.47
886.3	33.02
886.465	33.63
886.631	33.16
886.797	33.92
886.962	31.65
887.128	28.72
887.293	33.18
887.459	34.56
887.625	24.42
887.79	27.4
887.956	26.13
888.121	23.36
888.287	19.69
888.452	17.41
888.618	26.37
888.783	31.89
