Data from 2938028_Reflection_2.txt Node
Date: Sun Jul 12 15:08:38 EDT 2015
User: robert
Spectrometer: USB4E03001
Autoset integration time: false
Trigger mode: 4
Integration Time (sec): 1.000000E-1
Scans to average: 10
Electric dark correction enabled: true
Nonlinearity correction enabled: false
Boxcar width: 5
Stray light correction enabled: false
XAxis mode: Wavelengths
Stop averaging: false
Number of Pixels in Spectrum: 3648
>>>>>Begin Spectral Data<<<<<
177.566	36.46
177.785	3.64
178.005	-16.73
178.225	77.88
178.445	68.58
178.665	89.88
178.885	191.44
179.105	44.88
179.324	54.71
179.544	44.27
179.764	40.44
179.984	90.12
180.204	86.59
180.423	51.93
180.643	67.29
180.863	67.17
181.083	63.42
181.302	40.4
181.522	49.25
181.742	40.93
181.961	38.25
182.181	68.81
182.401	28.13
182.621	47.68
182.84	95.45
183.06	53.09
183.279	54.79
183.499	83.74
183.719	135.16
183.938	112.46
184.158	152.63
184.377	156.63
184.597	68.9
184.816	80.87
185.036	70.54
185.256	57.36
185.475	105.98
185.695	83.24
185.914	90.56
186.134	75.7
186.353	85.23
186.572	25.67
186.792	111.2
187.011	237.28
187.231	128.89
187.45	84.53
187.67	70.29
187.889	29.26
188.108	33.89
188.328	19.5
188.547	50.2
188.766	40.75
188.986	44.58
189.205	44.93
189.424	60.43
189.644	98.98
189.863	101.04
190.082	112.4
190.302	108.57
190.521	112.75
190.74	120.89
190.959	88.41
191.178	98.15
191.398	86.93
191.617	80.14
191.836	67.77
192.055	38.28
192.274	49.35
192.494	56.18
192.713	53.22
192.932	45.18
193.151	34.75
193.37	30.23
193.589	16
193.808	25.36
194.027	19.39
194.246	15.42
194.465	55.63
194.685	73.67
194.904	119.2
195.123	110.32
195.342	118.31
195.561	126.38
195.78	338.17
195.999	-36535
196.218	1196.2
196.436	719.56
196.655	395.44
196.874	-3078.57
197.093	179.6
197.312	147.84
197.531	174.54
197.75	185.65
197.969	214.42
198.188	190.19
198.407	168.39
198.625	319.11
198.844	152.91
199.063	114.97
199.282	146.64
199.501	108.12
199.719	113.96
199.938	111.57
200.157	102.07
200.376	108.66
200.594	78.73
200.813	96.67
201.032	83.25
201.251	88.38
201.469	98.49
201.688	100.11
201.907	109.24
202.125	61.36
202.344	57.57
202.563	71.98
202.781	55.28
203	42.38
203.218	-10.45
203.437	9.89
203.656	2.34
203.874	-57.69
204.093	-57.81
204.311	-34.16
204.53	-5.6
204.748	-39.41
204.967	-29.22
205.185	66.87
205.404	130.05
205.622	347.06
205.841	-1015.35
206.059	-530.05
206.278	847.81
206.496	710.15
206.715	476.17
206.933	-92871.43
207.151	728.92
207.37	332.29
207.588	222.33
207.806	154.96
208.025	156.76
208.243	128.41
208.461	117.75
208.68	101.76
208.898	111.45
209.116	128.93
209.335	119.93
209.553	105.62
209.771	89.67
209.989	89.43
210.208	99.32
210.426	101.22
210.644	111.64
210.862	116.45
211.081	159.54
211.299	189.42
211.517	146.7
211.735	89.6
211.953	147.41
212.171	163.63
212.39	233.8
212.608	243.98
212.826	194.06
213.044	149.51
213.262	119.6
213.48	106.52
213.698	98.66
213.916	110.86
214.134	123.35
214.352	111.01
214.57	106.97
214.788	106.71
215.006	91.79
215.224	-7.49
215.442	186.75
215.66	108.34
215.878	39.04
216.096	298.84
216.314	51.37
216.532	171.32
216.75	181.96
216.968	37.68
217.185	54.45
217.403	72.01
217.621	80.09
217.839	74.08
218.057	78.35
218.275	78.58
218.492	65.93
218.71	74.34
218.928	63.46
219.146	57.31
219.363	64.2
219.581	47.57
219.799	49.32
220.017	58.96
220.234	44.65
220.452	30.85
220.67	9.74
220.887	15.7
221.105	6.03
221.323	18.01
221.54	23.09
221.758	49.34
221.976	50.74
222.193	37.54
222.411	25.9
222.629	48.36
222.846	47.55
223.064	45.16
223.281	36.41
223.499	37.59
223.716	19.08
223.934	19.64
224.151	11.51
224.369	13.12
224.586	14.43
224.804	30.04
225.021	26.33
225.239	40.7
225.456	30.11
225.674	33.93
225.891	32.64
226.108	37.14
226.326	33.04
226.543	30.12
226.76	35.38
226.978	42.85
227.195	22.68
227.413	14.13
227.63	12.28
227.847	26.68
228.064	23.57
228.282	24.78
228.499	27.96
228.716	28.32
228.934	26.09
229.151	22.85
229.368	19.55
229.585	21.94
229.802	25.78
230.02	24.09
230.237	20.36
230.454	20.13
230.671	19.04
230.888	13.09
231.105	9.41
231.323	7.52
231.54	10.26
231.757	10.94
231.974	12.44
232.191	7.9
232.408	6.31
232.625	9.93
232.842	13.93
233.059	14.99
233.276	22.07
233.493	19.06
233.71	18.31
233.927	16.62
234.144	19.64
234.361	15.95
234.578	16.81
234.795	16.43
235.012	13.73
235.229	12.96
235.446	14.68
235.663	10
235.879	13.82
236.096	17.34
236.313	21.75
236.53	21.75
236.747	25.4
236.964	23.29
237.181	26.45
237.397	25.54
237.614	21.71
237.831	21.59
238.048	25.54
238.264	23.32
238.481	20.09
238.698	15.18
238.915	14.34
239.131	11.72
239.348	10.16
239.565	12.85
239.781	17.44
239.998	18.93
240.215	15.8
240.431	16.08
240.648	17.95
240.865	17.68
241.081	18.83
241.298	15.65
241.514	16.88
241.731	18.06
241.947	16.33
242.164	13.07
242.38	14.42
242.597	14.83
242.814	13.44
243.03	11.9
243.246	11.65
243.463	9.91
243.679	11.38
243.896	8.28
244.112	7.99
244.329	5.95
244.545	7.46
244.762	4.8
244.978	4.95
245.194	8.82
245.411	8.05
245.627	8.11
245.843	10.95
246.06	10.94
246.276	10.5
246.492	10.72
246.709	10.83
246.925	10.37
247.141	11.07
247.357	11.24
247.574	9.81
247.79	11.52
248.006	11.63
248.222	10.43
248.439	10.07
248.655	11
248.871	8.21
249.087	8.38
249.303	8.6
249.519	7.18
249.736	6.36
249.952	5.95
250.168	3.35
250.384	3.01
250.6	3.7
250.816	4.35
251.032	6.18
251.248	10.38
251.464	11.05
251.68	9.13
251.896	9.97
252.112	10.47
252.328	10.69
252.544	10.65
252.76	10.64
252.976	9.4
253.192	8.27
253.408	6.15
253.624	7.35
253.84	7.74
254.056	9.52
254.272	9
254.487	7.19
254.703	6.13
254.919	7.06
255.135	6.54
255.351	5.63
255.567	8.6
255.782	8.75
255.998	6.08
256.214	7.81
256.43	7.15
256.646	6.72
256.861	5.33
257.077	5.62
257.293	5.04
257.508	5.04
257.724	8.43
257.94	8.01
258.155	8.24
258.371	9.88
258.587	8.35
258.802	8.33
259.018	7.48
259.234	8.09
259.449	8.52
259.665	8.4
259.88	9.18
260.096	8.39
260.312	8.15
260.527	8.15
260.743	7.65
260.958	7.55
261.174	6.63
261.389	8.25
261.605	9.23
261.82	9.55
262.036	10.29
262.251	9.33
262.466	10.12
262.682	10.62
262.897	10.69
263.113	9
263.328	7.99
263.543	8.75
263.759	7.65
263.974	6.38
264.189	6.44
264.405	4.88
264.62	5.95
264.835	5.45
265.051	6
265.266	6.01
265.481	8.83
265.696	9.97
265.912	11.11
266.127	10.69
266.342	10.71
266.557	11.32
266.773	11.47
266.988	11.05
267.203	11.09
267.418	9.77
267.633	10.24
267.848	10.11
268.064	10.64
268.279	11.19
268.494	10.33
268.709	8.73
268.924	5.73
269.139	5.65
269.354	5.29
269.569	5.49
269.784	5.52
269.999	3.91
270.214	2.23
270.429	1.26
270.644	2.12
270.859	4.84
271.074	6.92
271.289	9.02
271.504	10.19
271.719	10.24
271.934	9.71
272.149	9.56
272.363	9.99
272.578	10.82
272.793	10.98
273.008	11.02
273.223	10.2
273.438	9.69
273.653	9.12
273.867	8.46
274.082	9.23
274.297	8.82
274.512	9.34
274.726	8.82
274.941	8.86
275.156	9.11
275.371	8.29
275.585	7.97
275.8	8.59
276.015	8.89
276.229	8.19
276.444	7.5
276.659	7.27
276.873	7.5
277.088	9.88
277.302	10.38
277.517	8.95
277.732	8.53
277.946	8.13
278.161	8.02
278.375	6.3
278.59	6.02
278.804	5.41
279.019	6.49
279.233	7.13
279.448	5.54
279.662	3.35
279.877	4.92
280.091	5.68
280.306	4.45
280.52	4.35
280.735	5.34
280.949	5.82
281.163	6.57
281.378	6.04
281.592	6.02
281.806	7.09
282.021	8.92
282.235	9.79
282.449	9.91
282.664	12.16
282.878	11.18
283.092	12.48
283.307	12.74
283.521	13.06
283.735	13.74
283.949	12.55
284.164	11.78
284.378	10.52
284.592	10.55
284.806	9.83
285.02	8.67
285.234	8.96
285.449	8.1
285.663	7.36
285.877	7.34
286.091	6.89
286.305	7.81
286.519	7.25
286.733	8.04
286.947	9.33
287.161	9.05
287.375	9.12
287.589	8.9
287.803	9.31
288.017	8.65
288.231	7.55
288.445	7.75
288.659	7.11
288.873	7.51
289.087	6.23
289.301	3.37
289.515	3.52
289.729	4.49
289.943	4.46
290.157	4.33
290.371	5.71
290.584	4.82
290.798	4.96
291.012	6.1
291.226	5.55
291.44	6.13
291.654	6.48
291.867	7.38
292.081	7.41
292.295	8.44
292.509	8.68
292.722	9.8
292.936	12.27
293.15	9.86
293.364	8.19
293.577	8.43
293.791	8.23
294.005	8.23
294.218	7.29
294.432	6.85
294.645	6.26
294.859	6.66
295.073	5.57
295.286	4.59
295.5	6.34
295.713	6.62
295.927	6.25
296.14	6.84
296.354	6.91
296.568	7.55
296.781	5.93
296.994	5.92
297.208	5.67
297.421	6.6
297.635	6.64
297.848	7.26
298.062	7.19
298.275	8.56
298.489	8.4
298.702	9.1
298.915	7.9
299.129	9.93
299.342	10.23
299.555	9.12
299.769	8.36
299.982	8.72
300.195	8.15
300.409	9.6
300.622	8.32
300.835	7.46
301.048	7.62
301.262	10.28
301.475	9.07
301.688	8.09
301.901	9.19
302.115	8.05
302.328	8.04
302.541	7.88
302.754	6.95
302.967	8.18
303.18	10.34
303.393	9.64
303.607	8.22
303.82	9.2
304.033	10.68
304.246	10.56
304.459	11.87
304.672	11.93
304.885	11.78
305.098	12.74
305.311	12.65
305.524	12.14
305.737	12.09
305.95	12.14
306.163	12.31
306.376	12.39
306.589	12.92
306.802	13.76
307.015	14.74
307.228	14.99
307.44	12.92
307.653	13.2
307.866	13.72
308.079	13.61
308.292	14.06
308.505	12.79
308.718	12.89
308.93	12.25
309.143	10.96
309.356	10.46
309.569	10.71
309.781	11.61
309.994	9.95
310.207	8.9
310.42	8.81
310.632	8.21
310.845	8.01
311.058	8.69
311.27	9.61
311.483	9.86
311.696	9.22
311.908	9.57
312.121	8.67
312.333	8.86
312.546	9.25
312.759	8.81
312.971	9.4
313.184	10.96
313.396	10.11
313.609	8.25
313.821	7.17
314.034	8.31
314.246	7.69
314.459	8.05
314.671	8.3
314.884	8.8
315.096	8.43
315.309	9.39
315.521	7.99
315.733	9.06
315.946	10.35
316.158	12.74
316.371	11.25
316.583	11.03
316.795	11.62
317.008	11.59
317.22	11.39
317.432	11.7
317.644	9.39
317.857	10.18
318.069	7.8
318.281	8.65
318.494	7.93
318.706	9.28
318.918	8.57
319.13	8.02
319.342	8.13
319.555	7.27
319.767	8.56
319.979	9.26
320.191	7.88
320.403	8.3
320.615	6.51
320.827	5
321.039	5.21
321.252	7.02
321.464	7.79
321.676	9.94
321.888	8.98
322.1	8.14
322.312	7.18
322.524	8.08
322.736	7.11
322.948	9.44
323.16	10.14
323.372	7.85
323.584	6.88
323.796	8.25
324.007	7.02
324.219	7.79
324.431	7.72
324.643	9.69
324.855	9.52
325.067	11.47
325.279	12.41
325.491	12.48
325.702	13.85
325.914	14.21
326.126	13.53
326.338	12.21
326.55	12.63
326.761	11.5
326.973	10.74
327.185	9.7
327.396	8.69
327.608	6.53
327.82	5.8
328.032	5.14
328.243	5.58
328.455	4.02
328.666	4.68
328.878	4.97
329.09	5.81
329.301	4.94
329.513	5.26
329.725	4.99
329.936	4.18
330.148	4.03
330.359	5.55
330.571	6.36
330.782	7
330.994	8.34
331.205	9.14
331.417	10.94
331.628	10.99
331.84	11.57
332.051	11.09
332.262	14.93
332.474	15.49
332.685	16.36
332.897	16.23
333.108	15.18
333.319	15.15
333.531	14.71
333.742	14.51
333.953	15.96
334.165	16.43
334.376	17.79
334.587	17.35
334.799	18.8
335.01	17.6
335.221	16.23
335.432	17.61
335.644	17.09
335.855	17.22
336.066	17.79
336.277	17.2
336.488	18.84
336.7	18.51
336.911	16.7
337.122	14.98
337.333	15.43
337.544	16.14
337.755	18.53
337.966	19.01
338.177	20.22
338.388	20.16
338.599	21.34
338.811	21.21
339.022	22.59
339.233	22.78
339.444	23.36
339.655	22.69
339.866	23.23
340.076	20.61
340.287	21.33
340.498	20.44
340.709	19.91
340.92	19.34
341.131	17.65
341.342	17
341.553	17.34
341.764	18.07
341.975	18.19
342.185	18.68
342.396	20.08
342.607	19.7
342.818	18.77
343.029	18.57
343.239	18.35
343.45	19.78
343.661	19.75
343.872	19.3
344.082	19.55
344.293	19.93
344.504	19.4
344.714	18.19
344.925	18.53
345.136	18.52
345.346	19.44
345.557	20.52
345.768	19.88
345.978	18.33
346.189	18.38
346.399	18.11
346.61	17.28
346.821	17.17
347.031	18.02
347.242	17.18
347.452	17.72
347.663	16.9
347.873	17.35
348.084	17.64
348.294	19
348.504	18.97
348.715	18.03
348.925	19.95
349.136	20.16
349.346	18.81
349.557	20.26
349.767	19.3
349.977	20.52
350.188	18.84
350.398	19.22
350.608	18.44
350.819	17.73
351.029	18.73
351.239	17.74
351.449	17.04
351.66	17.7
351.87	15.46
352.08	15.74
352.29	14.67
352.501	13.83
352.711	13.28
352.921	13.77
353.131	14.46
353.341	14.4
353.552	13.95
353.762	13.8
353.972	13.11
354.182	14
354.392	14.64
354.602	15.59
354.812	16.8
355.022	16.5
355.232	15.77
355.442	15.65
355.652	15.83
355.862	16.95
356.072	16.87
356.282	18.04
356.492	18.55
356.702	18.02
356.912	17.77
357.122	17.33
357.332	17.57
357.542	18.81
357.752	19.11
357.962	18.6
358.171	18.06
358.381	18.94
358.591	18.16
358.801	18.49
359.011	18.9
359.221	18.77
359.43	19.09
359.64	19.22
359.85	18.36
360.06	18.21
360.269	17.3
360.479	17.26
360.689	16.38
360.899	17.2
361.108	16.34
361.318	16.16
361.528	15.18
361.737	15.42
361.947	14.95
362.156	14.64
362.366	14.29
362.576	15.16
362.785	15.01
362.995	15.19
363.204	14.29
363.414	15.17
363.623	14.66
363.833	15.36
364.042	14.64
364.252	15.56
364.461	16.47
364.671	17.29
364.88	16.58
365.09	16.36
365.299	16.31
365.509	16.67
365.718	15.52
365.927	16.01
366.137	15.66
366.346	16.42
366.555	15.95
366.765	15.49
366.974	15
367.183	14.16
367.393	13.76
367.602	14.21
367.811	14.25
368.021	14.63
368.23	14.99
368.439	14.46
368.648	14.03
368.857	13.57
369.067	13.68
369.276	13.88
369.485	15.57
369.694	15.85
369.903	16.13
370.112	15.97
370.321	15.84
370.531	15.34
370.74	15.85
370.949	15.82
371.158	15.54
371.367	14.79
371.576	14.53
371.785	13.9
371.994	13.94
372.203	13.1
372.412	13
372.621	12.65
372.83	13.1
373.039	12.88
373.248	12.82
373.457	12.51
373.666	12.88
373.874	13.18
374.083	13.26
374.292	13.5
374.501	13.92
374.71	13.77
374.919	13.49
375.128	13.48
375.336	13.7
375.545	13.91
375.754	14.44
375.963	14.55
376.171	14.28
376.38	14.51
376.589	14.35
376.798	14.14
377.006	14.59
377.215	14.97
377.424	14.74
377.632	15.12
377.841	15.04
378.05	15.04
378.258	14.93
378.467	15.5
378.675	15.2
378.884	15.21
379.093	14.86
379.301	14.14
379.51	14.23
379.718	14.3
379.927	14.24
380.135	14.48
380.344	14.26
380.552	14.61
380.761	14.18
380.969	14.14
381.177	14.34
381.386	14.06
381.594	13.99
381.803	14.07
382.011	13.64
382.219	13.27
382.428	12.32
382.636	12.15
382.845	12.12
383.053	11.21
383.261	10.93
383.469	11.4
383.678	11.55
383.886	11.99
384.094	11.47
384.302	12.25
384.511	12.42
384.719	12.58
384.927	12.78
385.135	12.51
385.343	12.77
385.552	13.14
385.76	12.56
385.968	12.68
386.176	12.41
386.384	12.81
386.592	12.01
386.8	11.56
387.008	11.58
387.216	11.59
387.424	11.7
387.633	11.8
387.841	11.6
388.049	11.73
388.257	11.46
388.465	11.62
388.672	11.59
388.88	11.74
389.088	11.73
389.296	11.68
389.504	11.31
389.712	11.4
389.92	11.46
390.128	11.42
390.336	10.83
390.544	11.13
390.751	11.18
390.959	10.75
391.167	10.79
391.375	10.82
391.583	11.06
391.79	11.46
391.998	11.37
392.206	11.18
392.414	10.92
392.621	10.98
392.829	10.72
393.037	10.08
393.244	10.3
393.452	10.02
393.66	9.82
393.867	9.64
394.075	9.44
394.283	9.38
394.49	9.35
394.698	9.45
394.905	9.43
395.113	9.47
395.32	9.63
395.528	9.3
395.735	9.27
395.943	9.55
396.15	9.61
396.358	9.27
396.565	9.08
396.773	9.27
396.98	9.28
397.188	9.32
397.395	9.31
397.602	9.41
397.81	9.73
398.017	9.64
398.225	9.36
398.432	9.11
398.639	9.22
398.847	9.35
399.054	8.92
399.261	8.89
399.468	8.87
399.676	8.56
399.883	8.78
400.09	8.76
400.297	8.84
400.505	8.68
400.712	8.73
400.919	8.8
401.126	8.69
401.333	8.95
401.54	9.11
401.748	9.01
401.955	9.29
402.162	9.34
402.369	9.48
402.576	9.11
402.783	9.18
402.99	9.12
403.197	9
403.404	9.01
403.611	8.81
403.818	8.74
404.025	8.89
404.232	9.03
404.439	8.95
404.646	9.09
404.853	9.55
405.06	9.78
405.267	9.71
405.474	9.91
405.681	9.99
405.887	10.23
406.094	10.12
406.301	9.89
406.508	9.94
406.715	10.02
406.922	9.5
407.128	9.31
407.335	9.18
407.542	9.3
407.749	9.13
407.955	8.86
408.162	8.81
408.369	8.92
408.575	8.89
408.782	8.86
408.989	8.51
409.195	8.54
409.402	8.75
409.609	8.78
409.815	8.77
410.022	8.82
410.228	8.7
410.435	8.74
410.642	8.51
410.848	8.7
411.055	8.27
411.261	8.32
411.468	8.37
411.674	8.18
411.881	8.23
412.087	8
412.294	7.86
412.5	8.02
412.706	7.81
412.913	7.74
413.119	7.72
413.326	7.85
413.532	8.12
413.738	8.19
413.945	8.26
414.151	8.08
414.357	8.37
414.564	8.5
414.77	8.54
414.976	8.55
415.182	8.7
415.389	8.67
415.595	8.59
415.801	8.4
416.007	8.45
416.214	8.28
416.42	8.23
416.626	8.12
416.832	8.04
417.038	8.02
417.244	8.12
417.45	8.28
417.657	8.37
417.863	8.46
418.069	8.45
418.275	8.23
418.481	8.35
418.687	8.53
418.893	8.77
419.099	8.84
419.305	8.98
419.511	9.08
419.717	8.97
419.923	8.91
420.129	8.87
420.335	8.89
420.541	9
420.746	9.02
420.952	8.95
421.158	8.75
421.364	8.74
421.57	8.5
421.776	8.35
421.982	8.4
422.187	8.35
422.393	8.28
422.599	8.34
422.805	8.18
423.01	8.02
423.216	8.08
423.422	8.1
423.628	8.01
423.833	8.06
424.039	8.18
424.245	8.16
424.45	8.14
424.656	8.21
424.862	8.24
425.067	8.35
425.273	8.4
425.478	8.32
425.684	8.28
425.889	8.33
426.095	8.32
426.301	8.09
426.506	8.01
426.712	8.06
426.917	8.28
427.123	8.27
427.328	8.33
427.533	8.4
427.739	8.39
427.944	8.4
428.15	8.2
428.355	8.23
428.561	8.29
428.766	8.29
428.971	8.45
429.177	8.42
429.382	8.23
429.587	8.36
429.793	8.28
429.998	8.23
430.203	8.16
430.408	8.33
430.614	8.31
430.819	8.44
431.024	8.54
431.229	8.48
431.434	8.23
431.64	8.14
431.845	7.96
432.05	8.31
432.255	8.39
432.46	8.28
432.665	8.33
432.87	8.48
433.076	8.52
433.281	8.37
433.486	8.29
433.691	8.45
433.896	8.42
434.101	8.42
434.306	8.15
434.511	7.95
434.716	8.12
434.921	7.89
435.126	8.02
435.331	7.77
435.535	7.84
435.74	7.7
435.945	7.46
436.15	7.64
436.355	7.77
436.56	7.81
436.765	7.89
436.97	7.83
437.174	7.74
437.379	7.45
437.584	7.58
437.789	7.59
437.993	7.74
438.198	7.79
438.403	7.85
438.608	7.85
438.812	7.91
439.017	8.1
439.222	8
439.426	8.17
439.631	8.21
439.836	8.38
440.04	8.47
440.245	8.4
440.45	8.46
440.654	8.3
440.859	8.28
441.063	8.2
441.268	7.9
441.472	8.07
441.677	8.19
441.881	8.1
442.086	7.88
442.29	7.72
442.495	7.77
442.699	7.75
442.904	7.79
443.108	7.68
443.312	7.66
443.517	7.87
443.721	7.78
443.925	7.72
444.13	7.8
444.334	7.82
444.538	7.92
444.743	7.89
444.947	7.79
445.151	7.87
445.356	7.83
445.56	7.75
445.764	7.78
445.968	7.75
446.173	7.74
446.377	7.89
446.581	7.95
446.785	7.91
446.989	7.96
447.193	8.04
447.398	7.93
447.602	7.97
447.806	8.1
448.01	8.08
448.214	8.07
448.418	7.94
448.622	7.82
448.826	7.87
449.03	7.86
449.234	7.87
449.438	7.83
449.642	7.86
449.846	7.78
450.05	7.7
450.254	7.78
450.458	7.88
450.662	8.07
450.866	8.01
451.069	7.84
451.273	7.84
451.477	7.79
451.681	7.77
451.885	7.82
452.089	8.08
452.292	8.14
452.496	7.91
452.7	7.77
452.904	8.01
453.107	8.12
453.311	8.25
453.515	8.29
453.719	8.03
453.922	8.1
454.126	8.1
454.33	7.93
454.533	7.78
454.737	7.8
454.94	7.77
455.144	7.48
455.348	7.36
455.551	7.34
455.755	7.27
455.958	7.43
456.162	7.07
456.365	6.98
456.569	7.01
456.772	6.98
456.976	7.17
457.179	7.17
457.383	7.21
457.586	7.12
457.79	7.11
457.993	7.28
458.196	7.46
458.4	7.72
458.603	7.78
458.807	7.67
459.01	7.86
459.213	7.71
459.417	7.89
459.62	7.89
459.823	7.86
460.026	7.89
460.23	7.75
460.433	7.6
460.636	7.59
460.839	7.61
461.042	7.65
461.246	7.59
461.449	7.82
461.652	7.71
461.855	7.72
462.058	8.08
462.261	8.12
462.464	8.2
462.668	8.32
462.871	8.36
463.074	8.19
463.277	8.19
463.48	8.2
463.683	8.1
463.886	8.12
464.089	8.12
464.292	7.98
464.495	7.86
464.698	7.97
464.901	7.96
465.104	7.87
465.306	7.94
465.509	7.93
465.712	7.86
465.915	7.72
466.118	7.65
466.321	7.51
466.524	7.19
466.726	7.42
466.929	7.32
467.132	7.28
467.335	7.35
467.538	7.41
467.74	7.46
467.943	7.5
468.146	7.52
468.348	7.59
468.551	7.82
468.754	8.03
468.956	7.89
469.159	7.88
469.362	7.9
469.564	7.88
469.767	7.94
469.969	7.97
470.172	7.97
470.375	8.03
470.577	8.16
470.78	7.95
470.982	8.11
471.185	8.09
471.387	8.15
471.59	8.21
471.792	8.27
471.995	8.15
472.197	8.15
472.399	8.17
472.602	8.14
472.804	8
473.007	7.99
473.209	7.75
473.411	7.71
473.614	7.7
473.816	7.94
474.018	7.97
474.22	7.91
474.423	8
474.625	8.17
474.827	8.11
475.03	8.1
475.232	8.22
475.434	8.05
475.636	8.06
475.838	7.93
476.04	7.78
476.243	7.77
476.445	7.97
476.647	7.74
476.849	7.65
477.051	7.73
477.253	7.73
477.455	7.59
477.657	7.83
477.859	7.86
478.061	7.97
478.263	7.98
478.465	8.01
478.667	7.77
478.869	7.92
479.071	8.01
479.273	7.94
479.475	7.84
479.677	8.03
479.879	7.98
480.081	7.92
480.283	7.81
480.485	7.83
480.686	7.75
480.888	7.91
481.09	7.75
481.292	7.66
481.494	7.61
481.695	7.64
481.897	7.36
482.099	7.32
482.301	7.36
482.502	7.38
482.704	7.36
482.906	7.39
483.107	7.39
483.309	7.45
483.511	7.4
483.712	7.48
483.914	7.53
484.115	7.64
484.317	7.72
484.519	7.76
484.72	7.79
484.922	7.82
485.123	7.84
485.325	7.85
485.526	7.86
485.728	7.88
485.929	7.85
486.131	7.76
486.332	7.79
486.534	7.73
486.735	7.69
486.936	7.73
487.138	7.67
487.339	7.65
487.541	7.74
487.742	7.71
487.943	7.69
488.144	7.83
488.346	7.89
488.547	7.81
488.748	7.87
488.95	7.86
489.151	7.82
489.352	7.85
489.553	7.89
489.755	7.85
489.956	7.9
490.157	8
490.358	7.81
490.559	7.86
490.76	7.94
490.961	7.8
491.163	7.78
491.364	7.76
491.565	7.73
491.766	7.67
491.967	7.6
492.168	7.62
492.369	7.63
492.57	7.72
492.771	7.67
492.972	7.61
493.173	7.79
493.374	7.79
493.575	7.79
493.776	7.84
493.976	7.81
494.177	7.85
494.378	7.8
494.579	7.62
494.78	7.49
494.981	7.62
495.182	7.75
495.382	7.55
495.583	7.56
495.784	7.63
495.985	7.63
496.185	7.79
496.386	7.82
496.587	7.82
496.788	8.03
496.988	7.99
497.189	7.98
497.39	7.86
497.59	8
497.791	8.11
497.992	8.05
498.192	8.13
498.393	8.04
498.593	8.1
498.794	8.26
498.994	8.14
499.195	8.28
499.395	8.19
499.596	8.33
499.796	8.27
499.997	8.22
500.197	8.23
500.398	8.15
500.598	8.12
500.799	7.96
500.999	7.86
501.199	8.02
501.4	8.1
501.6	8.11
501.801	7.95
502.001	7.93
502.201	7.98
502.402	8.24
502.602	8.27
502.802	8.4
503.002	8.56
503.203	8.46
503.403	8.37
503.603	8.38
503.803	8.35
504.003	8.54
504.204	8.58
504.404	8.44
504.604	8.17
504.804	8.23
505.004	8.23
505.204	8.18
505.404	8.08
505.604	8.05
505.804	7.84
506.005	8
506.205	7.87
506.405	7.8
506.605	8
506.805	8.01
507.005	7.87
507.204	7.98
507.404	8.04
507.604	8.31
507.804	8.33
508.004	8.4
508.204	8.35
508.404	8.37
508.604	8.33
508.804	8.23
509.003	8.47
509.203	8.47
509.403	8.25
509.603	8.13
509.803	8.1
510.002	8.1
510.202	8.04
510.402	8.01
510.602	8.01
510.801	8.03
511.001	8.06
511.201	8
511.4	8.03
511.6	8.07
511.8	8.29
511.999	8.26
512.199	8.29
512.398	8.4
512.598	8.41
512.797	8.37
512.997	8.47
513.197	8.36
513.396	8.31
513.596	8.44
513.795	8.51
513.994	8.42
514.194	8.32
514.393	8.36
514.593	8.35
514.792	8.35
514.992	8.44
515.191	8.41
515.39	8.47
515.59	8.39
515.789	8.43
515.988	8.43
516.188	8.37
516.387	8.42
516.586	8.47
516.786	8.41
516.985	8.46
517.184	8.57
517.383	8.44
517.582	8.47
517.782	8.53
517.981	8.51
518.18	8.42
518.379	8.42
518.578	8.43
518.777	8.42
518.976	8.38
519.176	8.37
519.375	8.35
519.574	8.43
519.773	8.48
519.972	8.44
520.171	8.33
520.37	8.39
520.569	8.49
520.768	8.42
520.967	8.37
521.166	8.42
521.365	8.44
521.564	8.37
521.762	8.37
521.961	8.39
522.16	8.46
522.359	8.64
522.558	8.83
522.757	8.76
522.956	8.79
523.154	8.83
523.353	8.87
523.552	8.74
523.751	8.73
523.949	8.78
524.148	8.65
524.347	8.63
524.546	8.6
524.744	8.55
524.943	8.52
525.142	8.52
525.34	8.55
525.539	8.56
525.737	8.66
525.936	8.68
526.135	8.63
526.333	8.59
526.532	8.58
526.73	8.54
526.929	8.59
527.127	8.69
527.326	8.74
527.524	8.72
527.723	8.78
527.921	8.74
528.12	8.73
528.318	8.76
528.516	8.83
528.715	8.9
528.913	8.96
529.112	8.88
529.31	8.87
529.508	8.92
529.707	8.91
529.905	8.9
530.103	8.97
530.301	9.06
530.5	9.09
530.698	9.13
530.896	9.1
531.094	8.99
531.293	9.05
531.491	9.05
531.689	8.99
531.887	9.11
532.085	9.22
532.283	9.21
532.481	9.14
532.68	9.12
532.878	9.11
533.076	9.11
533.274	9.27
533.472	9.3
533.67	9.34
533.868	9.43
534.066	9.34
534.264	9.3
534.462	9.33
534.66	9.39
534.858	9.43
535.056	9.43
535.253	9.45
535.451	9.44
535.649	9.41
535.847	9.46
536.045	9.45
536.243	9.57
536.441	9.59
536.638	9.58
536.836	9.57
537.034	9.5
537.232	9.51
537.43	9.5
537.627	9.45
537.825	9.55
538.023	9.49
538.22	9.41
538.418	9.39
538.616	9.33
538.813	9.33
539.011	9.35
539.209	9.54
539.406	9.65
539.604	9.65
539.801	9.79
539.999	9.76
540.196	9.7
540.394	9.78
540.591	9.76
540.789	9.81
540.986	9.87
541.184	9.83
541.381	9.9
541.579	9.98
541.776	10.05
541.974	10.03
542.171	10.02
542.368	10.12
542.566	10.13
542.763	10.15
542.96	10.2
543.158	10.21
543.355	10.26
543.552	10.21
543.75	10.13
543.947	10.22
544.144	10.2
544.341	10.2
544.539	10.23
544.736	10.19
544.933	10.28
545.13	10.14
545.327	10.22
545.524	10.25
545.722	10.25
545.919	10.33
546.116	10.27
546.313	10.37
546.51	10.6
546.707	10.6
546.904	10.71
547.101	10.74
547.298	10.86
547.495	10.83
547.692	10.89
547.889	11.09
548.086	11.11
548.283	11.13
548.48	10.91
548.677	10.88
548.874	10.97
549.07	11.01
549.267	10.84
549.464	10.78
549.661	10.79
549.858	10.75
550.055	10.56
550.251	10.54
550.448	10.54
550.645	10.81
550.842	10.78
551.038	10.99
551.235	10.71
551.432	10.87
551.628	11.04
551.825	11.06
552.022	11.1
552.218	11.1
552.415	10.96
552.612	11.01
552.808	10.97
553.005	10.89
553.201	10.61
553.398	10.91
553.594	10.9
553.791	10.95
553.987	10.99
554.184	11.19
554.38	11.37
554.577	11.52
554.773	11.51
554.97	11.59
555.166	11.65
555.362	11.7
555.559	11.65
555.755	11.8
555.952	11.98
556.148	12.08
556.344	12.05
556.541	12.1
556.737	11.98
556.933	12.14
557.129	12.28
557.326	12.41
557.522	12.57
557.718	12.65
557.914	12.68
558.11	12.53
558.307	12.41
558.503	12.56
558.699	12.59
558.895	12.63
559.091	12.59
559.287	12.64
559.483	12.59
559.679	12.57
559.876	12.66
560.072	12.83
560.268	12.86
560.464	12.82
560.66	12.82
560.856	12.83
561.052	13.02
561.247	12.98
561.443	13.07
561.639	13.27
561.835	13.41
562.031	13.28
562.227	13.23
562.423	13.24
562.619	13.38
562.815	13.47
563.01	13.72
563.206	13.82
563.402	13.93
563.598	14
563.793	13.94
563.989	13.91
564.185	14.21
564.381	14.18
564.576	14.32
564.772	14.26
564.968	14.23
565.163	13.99
565.359	13.98
565.555	14.08
565.75	14.01
565.946	14
566.141	14.14
566.337	13.99
566.532	14.1
566.728	14.21
566.923	14.35
567.119	14.29
567.314	14.49
567.51	14.49
567.705	14.49
567.901	14.76
568.096	14.92
568.292	14.72
568.487	14.83
568.682	14.91
568.878	14.87
569.073	15.02
569.268	15
569.464	14.94
569.659	15.11
569.854	15.2
570.05	14.98
570.245	15.05
570.44	15.23
570.635	15.4
570.831	15.33
571.026	15.56
571.221	15.4
571.416	15.62
571.611	15.57
571.806	15.71
572.002	15.77
572.197	15.88
572.392	15.88
572.587	16.02
572.782	15.91
572.977	16.12
573.172	15.93
573.367	15.97
573.562	15.97
573.757	15.98
573.952	15.88
574.147	15.9
574.342	15.97
574.537	16.02
574.732	16.12
574.927	16.51
575.121	16.49
575.316	16.42
575.511	16.66
575.706	16.65
575.901	16.7
576.096	16.66
576.29	16.76
576.485	16.81
576.68	16.91
576.875	16.93
577.069	16.81
577.264	16.76
577.459	17
577.654	16.73
577.848	16.67
578.043	16.91
578.238	16.98
578.432	17.02
578.627	16.97
578.821	16.95
579.016	17
579.21	16.81
579.405	16.99
579.6	16.97
579.794	17.25
579.989	17.51
580.183	17.61
580.378	17.66
580.572	17.68
580.766	17.64
580.961	17.68
581.155	17.62
581.35	17.8
581.544	17.91
581.738	17.97
581.933	18
582.127	17.86
582.321	17.75
582.516	17.69
582.71	17.67
582.904	17.51
583.099	17.23
583.293	17.28
583.487	17.11
583.681	16.77
583.875	16.47
584.07	16.27
584.264	16.4
584.458	16.56
584.652	16.65
584.846	16.45
585.04	16.53
585.234	16.74
585.428	16.79
585.623	16.93
585.817	17.17
586.011	17.59
586.205	17.9
586.399	18.08
586.593	17.73
586.787	18.02
586.981	18.3
587.174	18.62
587.368	18.61
587.562	18.39
587.756	18.21
587.95	18.44
588.144	18.25
588.338	18.27
588.532	18.14
588.725	18.38
588.919	18.08
589.113	17.87
589.307	17.95
589.501	17.97
589.694	18.03
589.888	18.23
590.082	18.17
590.275	18.34
590.469	18.47
590.663	18.49
590.856	18.54
591.05	18.8
591.244	18.95
591.437	18.84
591.631	18.98
591.824	19.16
592.018	18.96
592.212	18.95
592.405	18.88
592.599	18.82
592.792	18.64
592.986	18.9
593.179	18.79
593.372	18.93
593.566	18.81
593.759	18.81
593.953	18.57
594.146	18.78
594.339	18.82
594.533	18.82
594.726	18.58
594.92	18.64
595.113	18.44
595.306	18.54
595.499	18.47
595.693	18.51
595.886	18.36
596.079	18.4
596.272	18.47
596.466	18.48
596.659	18.47
596.852	18.66
597.045	18.85
597.238	18.85
597.431	18.68
597.624	18.87
597.818	18.94
598.011	19.04
598.204	19.31
598.397	19.28
598.59	19.13
598.783	19.19
598.976	19.08
599.169	19.1
599.362	18.82
599.555	18.83
599.748	18.56
599.941	18.56
600.134	18.72
600.326	18.35
600.519	18.37
600.712	18.44
600.905	18.71
601.098	18.73
601.291	18.46
601.483	18.79
601.676	19.02
601.869	19.32
602.062	19.44
602.255	19.3
602.447	19.62
602.64	19.67
602.833	19.66
603.025	19.57
603.218	19.64
603.411	19.88
603.603	20.05
603.796	19.94
603.989	19.66
604.181	19.56
604.374	19.74
604.566	19.69
604.759	19.55
604.951	19.5
605.144	19.45
605.336	19.35
605.529	19.3
605.721	19.31
605.914	19.44
606.106	19.48
606.299	19.45
606.491	19.35
606.683	19.23
606.876	19.54
607.068	19.52
607.26	19.42
607.453	19.69
607.645	19.73
607.837	19.43
608.03	19.52
608.222	19.66
608.414	19.79
608.606	19.75
608.799	19.88
608.991	19.71
609.183	19.73
609.375	19.94
609.567	19.9
609.759	19.86
609.952	19.89
610.144	19.9
610.336	19.86
610.528	19.93
610.72	19.9
610.912	19.89
611.104	19.81
611.296	19.81
611.488	19.68
611.68	19.69
611.872	19.67
612.064	19.66
612.256	19.32
612.448	19.32
612.64	19
612.832	18.92
613.023	19.06
613.215	19.3
613.407	19.34
613.599	19.23
613.791	19.16
613.983	18.84
614.174	19.03
614.366	19.11
614.558	19.11
614.75	19.43
614.941	19.86
615.133	19.75
615.325	19.58
615.516	19.68
615.708	19.77
615.9	19.83
616.091	20.36
616.283	20.51
616.475	20.92
616.666	21.02
616.858	20.96
617.049	20.49
617.241	20.53
617.432	20.76
617.624	20.74
617.815	20.86
618.007	20.93
618.198	20.79
618.39	20.62
618.581	20.35
618.773	20.41
618.964	20.35
619.155	20.69
619.347	20.68
619.538	20.41
619.729	20.3
619.921	20.49
620.112	20.56
620.303	20.45
620.494	20.32
620.686	20.28
620.877	20.21
621.068	20.35
621.259	20.14
621.451	20.09
621.642	20.07
621.833	20.44
622.024	20.24
622.215	20.07
622.406	20.22
622.597	20.08
622.788	20.11
622.98	20.04
623.171	20.1
623.362	20.23
623.553	20.22
623.744	20.56
623.935	20.57
624.126	20.32
624.317	20.37
624.508	20.3
624.698	20.3
624.889	20.26
625.08	20.04
625.271	19.93
625.462	20.17
625.653	20.42
625.844	20.23
626.034	20.19
626.225	20.52
626.416	20.41
626.607	20.44
626.798	20.58
626.988	20.67
627.179	21.11
627.37	20.99
627.56	20.91
627.751	20.84
627.942	21.13
628.132	20.85
628.323	20.53
628.514	20.54
628.704	20.51
628.895	20.48
629.085	20.44
629.276	20.15
629.466	20.23
629.657	20.18
629.847	20.33
630.038	20.14
630.228	20.43
630.419	20.62
630.609	20.88
630.8	21.39
630.99	21.49
631.181	21.48
631.371	21.63
631.561	21.56
631.752	21.4
631.942	21.09
632.132	21.03
632.323	20.93
632.513	20.92
632.703	20.76
632.893	20.13
633.084	20.29
633.274	20.24
633.464	20.07
633.654	20.56
633.844	20.48
634.034	20.62
634.225	20.43
634.415	20.51
634.605	20.47
634.795	20.4
634.985	20.6
635.175	20.69
635.365	20.58
635.555	20.85
635.745	20.64
635.935	20.81
636.125	20.87
636.315	21.01
636.505	21.03
636.695	21.11
636.885	21.14
637.075	21.19
637.265	21.24
637.455	21.81
637.644	21.6
637.834	21.5
638.024	21.59
638.214	21.36
638.404	21.48
638.593	21.25
638.783	20.82
638.973	20.91
639.163	20.84
639.352	20.43
639.542	19.92
639.732	19.91
639.921	19.96
640.111	19.75
640.301	20.05
640.49	19.97
640.68	20.49
640.87	20.75
641.059	20.62
641.249	20.53
641.438	20.49
641.628	20.84
641.817	21.12
642.007	20.73
642.196	20.96
642.386	20.4
642.575	20.45
642.764	19.9
642.954	20.26
643.143	20.28
643.333	20.46
643.522	20.55
643.711	20.38
643.901	20.08
644.09	20.6
644.279	20.93
644.469	21.06
644.658	20.95
644.847	21.19
645.036	21.5
645.226	21.6
645.415	21.44
645.604	21.6
645.793	21.66
645.982	21.78
646.171	21.77
646.361	20.98
646.55	21.22
646.739	21.19
646.928	21.07
647.117	20.94
647.306	20.61
647.495	20.91
647.684	20.66
647.873	20.72
648.062	20.24
648.251	20.06
648.44	20.29
648.629	20.47
648.818	20.62
649.007	20.93
649.196	20.68
649.384	21.35
649.573	20.92
649.762	21.32
649.951	21.41
650.14	22.12
650.328	22.17
650.517	22.14
650.706	22.17
650.895	22.24
651.083	22.06
651.272	22.07
651.461	21.79
651.65	22.07
651.838	21.79
652.027	21.38
652.216	20.97
652.404	21.19
652.593	21.83
652.781	21.45
652.97	21.64
653.158	21.74
653.347	21.45
653.535	21.61
653.724	21.56
653.912	21.6
654.101	21.96
654.289	22.12
654.478	21.6
654.666	21.22
654.855	21.65
655.043	21.22
655.231	20.92
655.42	21.38
655.608	21.35
655.796	21.33
655.985	21.32
656.173	21.41
656.361	21.39
656.55	21.86
656.738	21.81
656.926	21.6
657.114	21.85
657.302	21.68
657.491	21.38
657.679	21.33
657.867	21.3
658.055	21.41
658.243	21.35
658.431	21.33
658.619	21.2
658.807	21.27
658.996	21.5
659.184	21.52
659.372	21.77
659.56	22.09
659.748	22.01
659.936	22.15
660.124	22.13
660.311	21.91
660.499	21.76
660.687	21.56
660.875	21.3
661.063	21.01
661.251	21.11
661.439	21.25
661.627	21.11
661.814	20.91
662.002	20.81
662.19	20.96
662.378	21.05
662.565	21.95
662.753	21.82
662.941	22.21
663.129	22.2
663.316	22.46
663.504	22.54
663.692	22.71
663.879	22.93
664.067	23.18
664.254	22.98
664.442	22.98
664.63	22.2
664.817	22.67
665.005	22.56
665.192	22.52
665.38	21.6
665.567	21.47
665.755	21
665.942	20.85
666.13	20.71
666.317	21.1
666.504	21.37
666.692	21.91
666.879	22.19
667.067	21.85
667.254	21.88
667.441	22.43
667.629	22.53
667.816	22.81
668.003	23.14
668.19	23.22
668.378	22.36
668.565	22.67
668.752	22.53
668.939	22.34
669.127	22.55
669.314	22.49
669.501	22.39
669.688	22.22
669.875	22.28
670.062	22.16
670.249	22.48
670.436	22.98
670.623	22.84
670.81	23.1
670.997	22.95
671.184	22.86
671.371	22.93
671.558	23
671.745	22.97
671.932	23.23
672.119	23.35
672.306	23.12
672.493	23.23
672.68	23.2
672.867	22.89
673.054	22.92
673.24	23.38
673.427	23.99
673.614	24.34
673.801	24.61
673.988	23.97
674.174	24.45
674.361	24.23
674.548	24.16
674.734	23.92
674.921	23.79
675.108	23.63
675.294	23.91
675.481	23.09
675.668	22.88
675.854	22.65
676.041	22.95
676.227	22.34
676.414	22.41
676.601	22.23
676.787	22.29
676.974	22.2
677.16	21.79
677.347	21.12
677.533	21.39
677.719	21.47
677.906	21.52
678.092	21.59
678.279	21.9
678.465	21.63
678.651	21.6
678.838	22.01
679.024	22.37
679.21	23.25
679.397	23.35
679.583	23.76
679.769	23.25
679.955	23.22
680.142	22.98
680.328	22.44
680.514	22.47
680.7	22.37
680.886	22.38
681.073	22.22
681.259	21.94
681.445	22.27
681.631	22.13
681.817	21.95
682.003	22.19
682.189	22.31
682.375	22.71
682.561	23.17
682.747	23.74
682.933	23.49
683.119	23.68
683.305	23.93
683.491	23.47
683.677	23.17
683.863	23.53
684.049	23.28
684.235	22.86
684.42	23.34
684.606	22.99
684.792	22.75
684.978	22.57
685.164	22.23
685.349	22.01
685.535	22.45
685.721	22.87
685.907	23.39
686.092	23.53
686.278	23.86
686.464	23.44
686.649	23.73
686.835	23.45
687.021	23.35
687.206	23.2
687.392	23.48
687.577	22.78
687.763	22.62
687.948	22.12
688.134	22.27
688.319	21.9
688.505	22.03
688.69	21.36
688.876	21.42
689.061	21.86
689.247	21.98
689.432	21.68
689.618	22.16
689.803	21.89
689.988	21.8
690.174	21.42
690.359	22.23
690.544	22.33
690.73	23.13
690.915	23.13
691.1	22.84
691.285	23.3
691.471	23.58
691.656	23.33
691.841	23.95
692.026	24.4
692.211	25.06
692.396	24.96
692.582	25.25
692.767	24.87
692.952	25.07
693.137	25.13
693.322	24.56
693.507	24.47
693.692	24.58
693.877	24.63
694.062	24.69
694.247	24.52
694.432	24.08
694.617	23.39
694.802	23.64
694.987	23.89
695.172	23.55
695.357	23.91
695.541	23.3
695.726	23.64
695.911	23.45
696.096	22.8
696.281	22.21
696.466	22.46
696.65	22.45
696.835	22.32
697.02	21.98
697.204	21.99
697.389	22.37
697.574	22.96
697.759	22.95
697.943	22.52
698.128	22.91
698.312	23.24
698.497	23.04
698.682	22.88
698.866	23.11
699.051	23.34
699.235	23.58
699.42	23.4
699.604	23.38
699.789	22.97
699.973	23.05
700.158	23.14
700.342	23.01
700.527	23.31
700.711	23.37
700.895	23.18
701.08	23.2
701.264	23.28
701.448	22.98
701.633	22.58
701.817	23.21
702.001	23.52
702.186	23.12
702.37	22.97
702.554	23.06
702.738	23.39
702.923	23.53
703.107	24.01
703.291	24.46
703.475	24.91
703.659	25.1
703.843	24.38
704.027	23.74
704.212	23.62
704.396	24.17
704.58	24.06
704.764	24.02
704.948	24.11
705.132	22.48
705.316	21.07
705.5	21.22
705.684	21.35
705.868	21.96
706.052	23.07
706.235	23.35
706.419	22.98
706.603	23.39
706.787	24.15
706.971	23.96
707.155	25.16
707.339	25.4
707.522	25.32
707.706	25.3
707.89	24.76
708.074	24.2
708.257	23.95
708.441	23.95
708.625	23.59
708.808	22.64
708.992	23.26
709.176	22.89
709.359	23.59
709.543	23.79
709.727	23.94
709.91	24.66
710.094	24.34
710.277	25
710.461	25.29
710.644	25.52
710.828	26.15
711.011	25.33
711.195	24.89
711.378	24.64
711.562	23.85
711.745	23.84
711.928	23.93
712.112	23.96
712.295	23.49
712.478	22.73
712.662	22.21
712.845	21.69
713.028	21.76
713.212	22.11
713.395	23.11
713.578	23.09
713.761	22.9
713.945	22.94
714.128	23.62
714.311	23.97
714.494	24.5
714.677	25.48
714.86	25.87
715.043	25.57
715.227	25.4
715.41	24.63
715.593	25.58
715.776	25.39
715.959	24.67
716.142	24.51
716.325	24.27
716.508	24.5
716.691	23.84
716.874	23.64
717.057	24.01
717.239	24.37
717.422	24.15
717.605	23.24
717.788	23
717.971	24.34
718.154	24.28
718.337	23.95
718.519	24.13
718.702	23.97
718.885	24.12
719.068	24.17
719.25	24.48
719.433	25.01
719.616	24.89
719.798	24.65
719.981	23.82
720.164	24.01
720.346	25.18
720.529	24.72
720.712	24.96
720.894	24.69
721.077	25.21
721.259	25.62
721.442	25.62
721.624	26.4
721.807	28.09
721.989	28.12
722.172	27.49
722.354	26.99
722.537	26.45
722.719	26.55
722.901	27.13
723.084	26.45
723.266	25.67
723.448	24.98
723.631	24.17
723.813	22.92
723.995	22.03
724.178	22.45
724.36	21.94
724.542	22.11
724.724	22.72
724.907	22.69
725.089	22.28
725.271	22.99
725.453	23.23
725.635	23.65
725.817	24.41
725.999	25.14
726.181	25.02
726.364	25.63
726.546	26.51
726.728	25.76
726.91	25.08
727.092	25.01
727.274	24.09
727.456	23.43
727.638	22.73
727.819	22.85
728.001	23.17
728.183	23.71
728.365	23.75
728.547	23.27
728.729	23.69
728.911	23.2
729.093	24.54
729.274	25.53
729.456	26.53
729.638	26.29
729.82	24.82
730.001	24.06
730.183	23.48
730.365	22.87
730.546	23.52
730.728	23.01
730.91	22.9
731.091	21.84
731.273	21.48
731.455	21.67
731.636	21.4
731.818	22
731.999	22.51
732.181	22.33
732.362	22.96
732.544	22.15
732.725	22.43
732.907	24.32
733.088	24.79
733.27	24.4
733.451	24.28
733.633	25.76
733.814	26.33
733.995	25.13
734.177	25.28
734.358	24.46
734.539	24.8
734.721	24.33
734.902	23.28
735.083	23.13
735.264	22.92
735.446	22.64
735.627	22.65
735.808	21.78
735.989	22.28
736.17	22.18
736.351	23.06
736.533	22.63
736.714	23.16
736.895	24.01
737.076	24.25
737.257	24.66
737.438	24.96
737.619	25.27
737.8	24.68
737.981	25.12
738.162	25.16
738.343	25.21
738.524	25.81
738.705	26.15
738.886	25.12
739.067	25.74
739.247	26.52
739.428	27.14
739.609	26.25
739.79	27.49
739.971	28.35
740.151	27.99
740.332	26.59
740.513	26.21
740.694	24.67
740.874	25.68
741.055	24.29
741.236	23.07
741.417	20.96
741.597	20.93
741.778	21.26
741.958	20.67
742.139	21.74
742.32	23.59
742.5	24.28
742.681	26.07
742.861	25.89
743.042	26.16
743.222	27.23
743.403	27.94
743.583	29.2
743.764	30.14
743.944	29.37
744.124	29.85
744.305	29.19
744.485	28.78
744.666	28.25
744.846	26.82
745.026	26.91
745.207	27.59
745.387	28.6
745.567	27.07
745.747	26.31
745.928	26.82
746.108	26.39
746.288	25.46
746.468	25.16
746.648	25.36
746.829	25.64
747.009	25.93
747.189	24.61
747.369	23.99
747.549	24.1
747.729	23.86
747.909	24.75
748.089	24.49
748.269	25.77
748.449	25.99
748.629	26.26
748.809	27.11
748.989	25.79
749.169	25.33
749.349	25.93
749.529	27.13
749.709	26.43
749.889	24.58
750.068	23.41
750.248	22.52
750.428	22.05
750.608	20.58
750.788	20.72
750.967	21.67
751.147	21.84
751.327	22.16
751.507	22.33
751.686	23.69
751.866	24
752.046	24.38
752.225	24.77
752.405	25.69
752.585	26.8
752.764	26.91
752.944	27.74
753.123	28.67
753.303	27.49
753.482	27.13
753.662	26.38
753.841	27.47
754.021	27.87
754.2	27.79
754.38	27.38
754.559	27.68
754.739	27.17
754.918	26.99
755.097	26.95
755.277	27.14
755.456	26.75
755.635	27.67
755.815	27.2
755.994	26.58
756.173	26.11
756.352	26.45
756.532	24.39
756.711	23
756.89	22.03
757.069	21.2
757.248	21.41
757.427	21.92
757.607	20.59
757.786	20.79
757.965	22.7
758.144	24.76
758.323	24.43
758.502	25.7
758.681	26.93
758.86	27.24
759.039	26.96
759.218	26.87
759.397	26.61
759.576	26.86
759.755	27.05
759.934	25.27
760.113	23.54
760.291	22.96
760.47	24.29
760.649	23.83
760.828	23.8
761.007	23.84
761.186	24.21
761.364	24.19
761.543	24.2
761.722	25.31
761.901	26.31
762.079	27.87
762.258	26.54
762.437	25.46
762.615	26.23
762.794	26.38
762.972	25.99
763.151	25.14
763.33	25.52
763.508	24.62
763.687	24.17
763.865	23.61
764.044	23.16
764.222	24.32
764.401	24.9
764.579	24.38
764.758	23.04
764.936	23.45
765.114	24.63
765.293	24.18
765.471	25.71
765.65	25.14
765.828	25.56
766.006	25.24
766.184	24.67
766.363	23.47
766.541	23.82
766.719	26.46
766.898	27.01
767.076	26.14
767.254	25.64
767.432	24.74
767.61	25.57
767.788	25.12
767.967	23.9
768.145	25.58
768.323	25.88
768.501	25.87
768.679	25.74
768.857	24.75
769.035	24.17
769.213	23.55
769.391	24.29
769.569	23.43
769.747	24.15
769.925	25.18
770.103	24.29
770.281	26.45
770.459	26.85
770.636	25.03
770.814	26.11
770.992	28.34
771.17	30.08
771.348	30.46
771.525	31.83
771.703	31.54
771.881	32.23
772.059	31.67
772.236	29.69
772.414	28.17
772.592	28.86
772.769	29.91
772.947	27.9
773.125	28.13
773.302	27.68
773.48	26.69
773.657	26.14
773.835	26.15
774.013	26.95
774.19	27.51
774.368	30.44
774.545	30.71
774.723	29.38
774.9	30.1
775.077	31.34
775.255	31.93
775.432	32.47
775.61	32.96
775.787	32.12
775.964	32.18
776.142	34.16
776.319	33.31
776.496	31.59
776.674	31.5
776.851	30.64
777.028	30.76
777.205	31.29
777.382	32.22
777.56	33.67
777.737	34.92
777.914	34.23
778.091	33.02
778.268	30.6
778.445	32.58
778.622	32.45
778.8	33.72
778.977	33.55
779.154	31.33
779.331	28.91
779.508	26.58
779.685	25.72
779.862	27.03
780.038	25.74
780.215	25.53
780.392	25.72
780.569	26.88
780.746	24.93
780.923	25.36
781.1	25.87
781.277	26.03
781.453	26.6
781.63	26.97
781.807	26.23
781.984	25.37
782.16	25.05
782.337	22.21
782.514	20.94
782.691	22.8
782.867	20.61
783.044	19.99
783.221	19.4
783.397	21.66
783.574	20.12
783.75	22.24
783.927	24.06
784.103	27.26
784.28	30.61
784.456	34.82
784.633	36.59
784.809	37.82
784.986	39.06
785.162	40.48
785.339	37.24
785.515	38.14
785.692	34.13
785.868	33.79
786.044	33.17
786.221	32.89
786.397	31.17
786.573	29.47
786.749	26.52
786.926	27.03
787.102	26.95
787.278	27.94
787.454	28.21
787.631	30.79
787.807	31.33
787.983	30.04
788.159	28.61
788.335	25.36
788.511	23.83
788.687	23.95
788.863	24.77
789.039	23.37
789.216	23.83
789.392	22.57
789.568	22.79
789.744	22.15
789.919	24.72
790.095	25.19
790.271	24.9
790.447	25.19
790.623	27.04
790.799	26.42
790.975	25.36
791.151	23.81
791.327	23.27
791.502	20.98
791.678	21.64
791.854	21.5
792.03	20.95
792.205	24.42
792.381	24.85
792.557	23.77
792.733	21.78
792.908	20.83
793.084	21.83
793.259	22.55
793.435	24.68
793.611	22.35
793.786	20.75
793.962	23.35
794.137	20.42
794.313	21.3
794.488	20.6
794.664	20.63
794.839	26.55
795.015	27.61
795.19	27.3
795.366	27.76
795.541	27.78
795.716	26.2
795.892	23.84
796.067	24.85
796.242	21.07
796.418	22.23
796.593	20.47
796.768	19.25
796.944	15.72
797.119	17.91
797.294	15.91
797.469	15.83
797.644	19.37
797.82	17.32
797.995	13.4
798.17	15.51
798.345	17.74
798.52	20.35
798.695	18.97
798.87	21.32
799.045	18.96
799.22	20.88
799.395	23.78
799.57	19.53
799.745	19.78
799.92	23.27
800.095	22.62
800.27	20.21
800.445	19.05
800.62	19.57
800.795	21.24
800.97	21.84
801.145	21.68
801.319	17.44
801.494	20.06
801.669	19.14
801.844	21.49
802.018	21.46
802.193	21.02
802.368	21.16
802.543	19.58
802.717	15.04
802.892	15.86
803.067	18.26
803.241	20.1
803.416	23.23
803.59	26.16
803.765	27.28
803.94	30.27
804.114	30.01
804.289	29.07
804.463	33.22
804.638	35.62
804.812	35.64
804.986	33.04
805.161	36.36
805.335	34.53
805.51	35.63
805.684	32.66
805.858	32.65
806.033	29.72
806.207	33.95
806.381	30.5
806.556	31.68
806.73	30.51
806.904	30.17
807.078	29.59
807.253	25.45
807.427	24.66
807.601	27.55
807.775	27.95
807.949	33.04
808.123	28.15
808.298	27.84
808.472	28.5
808.646	30.75
808.82	27.46
808.994	27.57
809.168	29.38
809.342	31.03
809.516	29.39
809.69	30.32
809.864	26.57
810.038	25.04
810.212	29.04
810.385	26.38
810.559	27.49
810.733	32.62
810.907	27.38
811.081	22.38
811.255	24.93
811.428	27.38
811.602	25.36
811.776	26.49
811.95	28.24
812.123	23.21
812.297	26.34
812.471	22.31
812.644	22.52
812.818	25.55
812.992	29.58
813.165	29.24
813.339	25.15
813.512	24.27
813.686	24.63
813.86	29.09
814.033	33.64
814.207	34.08
814.38	34.65
814.554	35.3
814.727	35.14
814.9	33.25
815.074	33.48
815.247	37.93
815.421	40.63
815.594	41.19
815.767	37.78
815.941	37.35
816.114	35.48
816.287	38.73
816.46	37.96
816.634	34.97
816.807	36.53
816.98	33.83
817.153	32.64
817.327	29.41
817.5	29.1
817.673	29.45
817.846	29.69
818.019	28.52
818.192	29.59
818.365	21.21
818.538	22.08
818.711	26.11
818.884	27.62
819.057	24.47
819.23	26.24
819.403	22.37
819.576	25.13
819.749	23.96
819.922	23.23
820.095	22.25
820.268	24.1
820.441	22.44
820.614	24.33
820.786	24.89
820.959	25.12
821.132	24.23
821.305	26.57
821.477	26.27
821.65	26.5
821.823	26.85
821.996	26.01
822.168	27.04
822.341	28.67
822.514	28.52
822.686	27.95
822.859	28.31
823.031	29.22
823.204	28.73
823.376	28.46
823.549	28.3
823.722	28.22
823.894	28.17
824.067	28.05
824.239	26.06
824.411	25.12
824.584	25
824.756	24.71
824.929	23.84
825.101	23.98
825.273	24.67
825.446	23.23
825.618	22.08
825.79	21.57
825.963	21.79
826.135	24.15
826.307	25.1
826.479	25.34
826.652	24.46
826.824	22.18
826.996	23.22
827.168	22.46
827.34	23.99
827.512	26.09
827.684	26.38
827.856	26.25
828.029	25.25
828.201	23.89
828.373	23.79
828.545	24.73
828.717	28.45
828.889	26.44
829.061	27.35
829.232	27.27
829.404	26.6
829.576	28.32
829.748	28.39
829.92	29.4
830.092	30.72
830.264	28.82
830.436	27.84
830.607	25.87
830.779	24.18
830.951	22.15
831.123	16.78
831.294	15.93
831.466	13.15
831.638	12.4
831.809	11.83
831.981	14.29
832.153	14.72
832.324	18.61
832.496	21.73
832.667	23.84
832.839	23.14
833.011	29.3
833.182	29.98
833.354	27.9
833.525	31.08
833.697	28.92
833.868	25.49
834.039	26.68
834.211	28.04
834.382	27.43
834.554	29.87
834.725	28.5
834.896	27.31
835.068	26.82
835.239	27.49
835.41	25.11
835.581	27.53
835.753	30.25
835.924	30.2
836.095	26.49
836.266	26.4
836.438	23.11
836.609	24.61
836.78	25.81
836.951	24.69
837.122	29.67
837.293	29.64
837.464	31.43
837.635	27.47
837.806	26.56
837.977	31.83
838.148	31.31
838.319	36.51
838.49	37.58
838.661	35.01
838.832	38.76
839.003	34.9
839.174	37.22
839.345	33.59
839.516	31.72
839.687	32.29
839.857	29.08
840.028	33.92
840.199	33.49
840.37	36.52
840.54	38.84
840.711	34.19
840.882	34.49
841.053	27.61
841.223	24.91
841.394	24.76
841.564	25.55
841.735	23.15
841.906	22.21
842.076	19.82
842.247	22.08
842.417	21.79
842.588	18.53
842.758	22.47
842.929	30.87
843.099	33.84
843.27	44.72
843.44	41.47
843.611	46.84
843.781	38.08
843.951	37.39
844.122	22.78
844.292	39.68
844.462	53.84
844.633	43.79
844.803	33.73
844.973	31.98
845.144	35.75
845.314	39
845.484	33.81
845.654	23.5
845.824	14.93
845.995	28.07
846.165	21.63
846.335	21.11
846.505	34.32
846.675	40.24
846.845	36.62
847.015	26.86
847.185	35.28
847.355	52.83
847.525	74.74
847.695	89.67
847.865	76.03
848.035	70.6
848.205	81.03
848.375	67.54
848.545	55.57
848.715	60.67
848.884	76.32
849.054	74.15
849.224	49.59
849.394	39.09
849.564	31.92
849.733	37.57
849.903	36.57
850.073	6.57
850.243	-2.43
850.412	19.53
850.582	31.28
850.752	39.05
850.921	40.37
851.091	57.97
851.26	57.42
851.43	73.24
851.599	74.74
851.769	78.33
851.939	89.49
852.108	89.46
852.278	75.42
852.447	74.83
852.616	66.57
852.786	73.59
852.955	62.56
853.125	64.12
853.294	64.32
853.463	49.99
853.633	40.26
853.802	41.41
853.971	49.19
854.141	49.63
854.31	48.73
854.479	49.5
854.648	39.24
854.818	40.55
854.987	35.48
855.156	28.98
855.325	43.05
855.494	52.34
855.663	58.46
855.832	58.37
856.001	66.01
856.171	56.59
856.34	54.35
856.509	59.22
856.678	51.92
856.847	50.71
857.016	57.81
857.185	57.93
857.353	52.03
857.522	45.95
857.691	45.78
857.86	41.65
858.029	55.26
858.198	51.45
858.367	54.92
858.535	67.33
858.704	79.48
858.873	60.04
859.042	64.38
859.21	69.93
859.379	77.77
859.548	66.01
859.717	66.35
859.885	62.68
860.054	54.58
860.222	42.23
860.391	41.96
860.56	35.83
860.728	48.83
860.897	44.32
861.065	46.58
861.234	31.15
861.402	54.16
861.571	55.24
861.739	54.47
861.908	70.55
862.076	83.75
862.244	108.75
862.413	83.3
862.581	60.35
862.749	54.65
862.918	59.13
863.086	57.89
863.254	43.53
863.423	35.26
863.591	31.01
863.759	21.91
863.927	29.03
864.096	15.68
864.264	21.35
864.432	45.54
864.6	49.17
864.768	33.14
864.936	20.98
865.104	31.22
865.272	26.18
865.44	25.63
865.608	30.22
865.776	8.51
865.944	13.67
866.112	17.87
866.28	1.06
866.448	-6.42
866.616	-2.22
866.784	25.37
866.952	31.69
867.12	44.3
867.288	46.85
867.455	65
867.623	91.39
867.791	81.54
867.959	105.26
868.127	121.58
868.294	104.84
868.462	99.23
868.63	96.22
868.797	91.34
868.965	88.88
869.133	87.89
869.3	80.74
869.468	66.46
869.636	71.87
869.803	44.37
869.971	54.5
870.138	64.26
870.306	52.48
870.473	57.36
870.641	59.35
870.808	67.3
870.975	63.11
871.143	52.4
871.31	48.06
871.478	42.65
871.645	57.68
871.812	41.24
871.98	18.57
872.147	32.03
872.314	-2.15
872.482	-4.97
872.649	-27.18
872.816	-39.73
872.983	-22.54
873.15	-25.62
873.318	-16.76
873.485	-10.55
873.652	3.75
873.819	27.77
873.986	32.89
874.153	39.88
874.32	47.82
874.487	51.78
874.654	77.04
874.821	80.92
874.988	85.98
875.155	71.34
875.322	85.53
875.489	91.74
875.656	78.59
875.823	71.34
875.99	72.15
876.157	67.65
876.324	71.11
876.49	35.84
876.657	36.51
876.824	37.2
876.991	46.82
877.157	44.78
877.324	35.55
877.491	42.61
877.658	34.74
877.824	35.6
877.991	30.78
878.157	30.49
878.324	48.13
878.491	46.94
878.657	32.52
878.824	33.7
878.99	28.35
879.157	37.37
879.323	41.6
879.49	49.31
879.656	51.17
879.823	59.06
879.989	51.52
880.156	39.25
880.322	36.77
880.488	54.58
880.655	45.58
880.821	48.38
880.987	40.62
881.154	41.13
881.32	47.21
881.486	47.14
881.652	42.97
881.819	46.09
881.985	42.94
882.151	43.9
882.317	39.2
882.483	43.02
882.649	42.28
882.816	41.96
882.982	38.51
883.148	33.44
883.314	30.23
883.48	30.11
883.646	25.47
883.812	27.49
883.978	27.38
884.144	27.78
884.31	25.96
884.476	21.91
884.642	20.98
884.807	22.6
884.973	21.34
885.139	22.39
885.305	22.17
885.471	26.42
885.637	27.85
885.802	28.84
885.968	32.67
886.134	34.89
886.3	40.1
886.465	43.09
886.631	43.55
886.797	49.88
886.962	57.18
887.128	58.27
887.293	54.89
887.459	55.15
887.625	45.79
887.79	37.8
887.956	31.96
888.121	29.17
888.287	27.97
888.452	21.35
888.618	23.22
888.783	0.97
