Data from 2938022_Reflection_3.txt Node
Date: Sun Jul 12 15:25:08 EDT 2015
User: robert
Spectrometer: USB4E03001
Autoset integration time: false
Trigger mode: 4
Integration Time (sec): 1.000000E-1
Scans to average: 10
Electric dark correction enabled: true
Nonlinearity correction enabled: false
Boxcar width: 5
Stray light correction enabled: false
XAxis mode: Wavelengths
Stop averaging: false
Number of Pixels in Spectrum: 3648
>>>>>Begin Spectral Data<<<<<
177.566	-213.08
177.785	-232.67
178.005	-352.75
178.225	744.76
178.445	-124.48
178.665	-184.3
178.885	-82.42
179.105	-150.84
179.324	-203.87
179.544	-228.26
179.764	-111.57
179.984	-66.45
180.204	3046.75
180.423	-623.04
180.643	638.69
180.863	-247.94
181.083	-3023.73
181.302	179.79
181.522	183.68
181.742	-1179.79
181.961	-244.9
182.181	-848.59
182.401	868.85
182.621	3005.15
182.84	-1893.37
183.06	-57.26
183.279	-385.88
183.499	-243.3
183.719	-111.81
183.938	-267.41
184.158	-165.95
184.377	-6406.67
184.597	-158.48
184.816	-37.18
185.036	-172.65
185.256	3821.83
185.475	373.61
185.695	-1250
185.914	-625.49
186.134	-336.71
186.353	-97.57
186.572	-9017.5
186.792	-107.34
187.011	-1566.28
187.231	2916.91
187.45	-78.33
187.67	-69.83
187.889	-62.33
188.108	-75.91
188.328	-49.37
188.547	-66.16
188.766	4.85
188.986	-39.98
189.205	-57.01
189.424	-272.3
189.644	-462.91
189.863	-234.91
190.082	1182.1
190.302	8230.19
190.521	-2887.6
190.74	3441.3
190.959	189.85
191.178	37.41
191.398	15.24
191.617	7.24
191.836	-140.77
192.055	-354.38
192.274	700
192.494	649.9
192.713	330.34
192.932	256.37
193.151	198.34
193.37	95.04
193.589	101.38
193.808	93.91
194.027	97.75
194.246	96.5
194.465	111.3
194.685	147.07
194.904	129.51
195.123	92.62
195.342	102.91
195.561	93.98
195.78	82
195.999	44.61
196.218	-9.75
196.436	14.45
196.655	1.21
196.874	-0.14
197.093	-36.61
197.312	-39.7
197.531	-79.55
197.75	-79.05
197.969	-104.76
198.188	119.22
198.407	12.52
198.625	3.51
198.844	-26.65
199.063	-82.16
199.282	-42.98
199.501	10.01
199.719	-9.05
199.938	29.45
200.157	8.9
200.376	-111.15
200.594	208.83
200.813	106.31
201.032	50.78
201.251	-10.69
201.469	-101.68
201.688	1025
201.907	-79.7
202.125	-190.66
202.344	-1087.5
202.563	-211.19
202.781	-75.48
203	265.34
203.218	-198.37
203.437	-15.39
203.656	60.6
203.874	45.14
204.093	75.48
204.311	159.24
204.53	136.3
204.748	141.19
204.967	92.94
205.185	150.25
205.404	85.85
205.622	72.88
205.841	-184.64
206.059	39.55
206.278	31.69
206.496	4.68
206.715	-50.56
206.933	133.47
207.151	67.47
207.37	25.23
207.588	62.62
207.806	136.82
208.025	1116.72
208.243	-7.65
208.461	141.3
208.68	-37.69
208.898	23.37
209.116	-337.33
209.335	-75.82
209.553	-196.26
209.771	-95.57
209.989	-47.38
210.208	-75.39
210.426	-129.45
210.644	774.01
210.862	-934.76
211.081	-140.37
211.299	-70.59
211.517	88.24
211.735	594.52
211.953	211.72
212.171	9748
212.39	-246.31
212.608	249.42
212.826	192.15
213.044	133.43
213.262	118.05
213.48	123
213.698	164.91
213.916	140.58
214.134	168.28
214.352	126.35
214.57	99.9
214.788	89.73
215.006	77.03
215.224	92.94
215.442	124.17
215.66	118.82
215.878	122.13
216.096	103.97
216.314	131.25
216.532	105.98
216.75	260.81
216.968	253.24
217.185	218.35
217.403	258.8
217.621	269.2
217.839	210.58
218.057	201.28
218.275	160.22
218.492	411.31
218.71	-226.15
218.928	1129.05
219.146	102.23
219.363	109.36
219.581	112.44
219.799	55.43
220.017	-1.18
220.234	-166.37
220.452	-130.42
220.67	39.63
220.887	19.12
221.105	21.74
221.323	3.11
221.54	37.31
221.758	64.75
221.976	5.12
222.193	-5.36
222.411	36.71
222.629	39.9
222.846	24.66
223.064	6.64
223.281	-6.14
223.499	-17.83
223.716	-25.06
223.934	-18.71
224.151	-37.15
224.369	3.26
224.586	0.93
224.804	-6.49
225.021	-2.69
225.239	3.99
225.456	23.11
225.674	25.93
225.891	37.08
226.108	28.06
226.326	20.2
226.543	14.51
226.76	8.26
226.978	20.56
227.195	17.82
227.413	25.42
227.63	20.55
227.847	9.53
228.064	11.58
228.282	6.84
228.499	15.85
228.716	15.85
228.934	18.15
229.151	17.42
229.368	15.4
229.585	14.42
229.802	12.39
230.02	13.97
230.237	14.22
230.454	13.66
230.671	15.09
230.888	9.62
231.105	14.31
231.323	11.3
231.54	13.44
231.757	10.73
231.974	15.96
232.191	19.3
232.408	20.18
232.625	24.18
232.842	26.91
233.059	27.91
233.276	30.86
233.493	22.19
233.71	25.22
233.927	25.66
234.144	24.37
234.361	23.07
234.578	18.41
234.795	16.99
235.012	21.45
235.229	22.91
235.446	29.29
235.663	28.39
235.879	30.54
236.096	28.36
236.313	28.13
236.53	30.36
236.747	28.05
236.964	31.12
237.181	34.89
237.397	36.38
237.614	38.84
237.831	35.46
238.048	30.99
238.264	32.93
238.481	35.96
238.698	32.33
238.915	30.04
239.131	28.73
239.348	30.53
239.565	30.84
239.781	26.18
239.998	19.39
240.215	16.67
240.431	18.21
240.648	17.93
240.865	14.99
241.081	14.3
241.298	13.45
241.514	13.33
241.731	13.3
241.947	11.54
242.164	12.72
242.38	12.19
242.597	12.84
242.814	13.01
243.03	11.02
243.246	10.99
243.463	9.71
243.679	9.6
243.896	9.36
244.112	7.54
244.329	8.06
244.545	5.98
244.762	7.61
244.978	8.62
245.194	9.22
245.411	10.94
245.627	12.28
245.843	13.95
246.06	16.48
246.276	16.93
246.492	16.67
246.709	17.28
246.925	17.12
247.141	17.3
247.357	16.98
247.574	17.08
247.79	17.4
248.006	16.54
248.222	16.73
248.439	15.21
248.655	14.93
248.871	14.32
249.087	13.5
249.303	12.8
249.519	10.38
249.736	9.32
249.952	5.94
250.168	5.19
250.384	3.78
250.6	4.48
250.816	6.49
251.032	6.84
251.248	6.21
251.464	7.59
251.68	8.33
251.896	10.29
252.112	11.01
252.328	12.3
252.544	11.34
252.76	12.32
252.976	10.82
253.192	9.22
253.408	10.26
253.624	12.84
253.84	11.06
254.056	12.46
254.272	12.1
254.487	10.76
254.703	9.29
254.919	9.82
255.135	8.92
255.351	8.77
255.567	10.97
255.782	10.83
255.998	12.55
256.214	12.56
256.43	12.08
256.646	14.64
256.861	17.29
257.077	19.56
257.293	21.83
257.508	21.3
257.724	21.67
257.94	20.32
258.155	19.98
258.371	18.17
258.587	18.59
258.802	16.53
259.018	14.32
259.234	13.67
259.449	12.91
259.665	11.43
259.88	11.91
260.096	11.37
260.312	11.62
260.527	11.15
260.743	10.56
260.958	10.27
261.174	10.63
261.389	11.14
261.605	10.82
261.82	12.16
262.036	12.2
262.251	12.36
262.466	13.56
262.682	13.05
262.897	14.51
263.113	14.36
263.328	13.21
263.543	13.49
263.759	13.24
263.974	12.63
264.189	9.51
264.405	10.73
264.62	10.39
264.835	9.15
265.051	8.44
265.266	6.09
265.481	8.3
265.696	7.95
265.912	8.64
266.127	8.75
266.342	9.48
266.557	11.93
266.773	11.7
266.988	11.55
267.203	11.18
267.418	11.7
267.633	10.71
267.848	11.11
268.064	11.67
268.279	11.03
268.494	11.66
268.709	11.27
268.924	8.99
269.139	8.82
269.354	8.45
269.569	9.87
269.784	9
269.999	8.97
270.214	8.05
270.429	8.48
270.644	8.8
270.859	8.64
271.074	9.2
271.289	9.8
271.504	10.62
271.719	10.61
271.934	10.28
272.149	10.16
272.363	11.48
272.578	11.32
272.793	11.03
273.008	11.18
273.223	11.75
273.438	12.3
273.653	12.62
273.867	13.44
274.082	13.63
274.297	12.52
274.512	13.19
274.726	11.7
274.941	12.36
275.156	12.1
275.371	11.24
275.585	11.08
275.8	9.66
276.015	9.38
276.229	9.56
276.444	11.13
276.659	12.71
276.873	12.16
277.088	12.54
277.302	12.27
277.517	12.76
277.732	13.77
277.946	12.93
278.161	14.81
278.375	15.73
278.59	13.57
278.804	11.55
279.019	10.97
279.233	12.2
279.448	13.11
279.662	12.15
279.877	12.57
280.091	11.46
280.306	12.7
280.52	11.29
280.735	12.37
280.949	11.87
281.163	13.57
281.378	14.86
281.592	13.23
281.806	13.73
282.021	14.34
282.235	13.67
282.449	15.75
282.664	15.55
282.878	15.29
283.092	13.91
283.307	14.99
283.521	13.53
283.735	12.52
283.949	13.52
284.164	13.12
284.378	12.86
284.592	13.38
284.806	11.05
285.02	10.27
285.234	10.2
285.449	10.32
285.663	9.55
285.877	9.93
286.091	10.7
286.305	10.69
286.519	11.57
286.733	12.58
286.947	12.9
287.161	12.58
287.375	13.62
287.589	13.83
287.803	14.27
288.017	14.75
288.231	14.43
288.445	14.32
288.659	16.05
288.873	15.18
289.087	13.07
289.301	13.01
289.515	13.62
289.729	12.65
289.943	12.58
290.157	13.09
290.371	13.68
290.584	12.99
290.798	13.01
291.012	11.82
291.226	11.07
291.44	12.81
291.654	12.73
291.867	13.6
292.081	13.96
292.295	13.75
292.509	14.03
292.722	13.62
292.936	14.75
293.15	13.66
293.364	13.72
293.577	13.75
293.791	12.68
294.005	13.83
294.218	14.31
294.432	15.34
294.645	16.12
294.859	15.76
295.073	16.66
295.286	17.89
295.5	17.79
295.713	17.25
295.927	17.31
296.14	17.34
296.354	15.4
296.568	13.97
296.781	12.15
296.994	11.92
297.208	11.32
297.421	10.84
297.635	9.72
297.848	10.64
298.062	10.7
298.275	10.67
298.489	11.28
298.702	11.83
298.915	13.1
299.129	14.91
299.342	15.42
299.555	16.33
299.769	16.69
299.982	17.87
300.195	17.6
300.409	18.72
300.622	18.08
300.835	16.47
301.048	17.12
301.262	16.64
301.475	15.29
301.688	14.64
301.901	15.26
302.115	14.18
302.328	13.53
302.541	13.68
302.754	13.82
302.967	15.82
303.18	17.02
303.393	16.83
303.607	18.33
303.82	20.04
304.033	17.87
304.246	17.42
304.459	17.9
304.672	19.06
304.885	19.88
305.098	19.08
305.311	17.99
305.524	18
305.737	18.31
305.95	16.95
306.163	15
306.376	18.29
306.589	17.82
306.802	18.57
307.015	18.16
307.228	16.21
307.44	16.09
307.653	16.15
307.866	15.55
308.079	16.14
308.292	17.03
308.505	17.95
308.718	17.92
308.93	17.78
309.143	17.49
309.356	17.2
309.569	17.03
309.781	17.17
309.994	17.27
310.207	17.01
310.42	16.09
310.632	16.77
310.845	16.86
311.058	15.61
311.27	16.22
311.483	15.2
311.696	15.19
311.908	16.35
312.121	17.22
312.333	16.89
312.546	18.86
312.759	19.38
312.971	18.27
313.184	18.48
313.396	19.04
313.609	18.78
313.821	19.8
314.034	20.6
314.246	20.26
314.459	18.97
314.671	18.77
314.884	16.73
315.096	16.77
315.309	16.98
315.521	17.58
315.733	19.18
315.946	18.73
316.158	20.22
316.371	19.35
316.583	19.13
316.795	18.35
317.008	19.35
317.22	18.81
317.432	18.51
317.644	19.57
317.857	18.74
318.069	16.56
318.281	16.9
318.494	16.76
318.706	17.09
318.918	16.35
319.13	18.31
319.342	18.22
319.555	19.41
319.767	18.71
319.979	16.94
320.191	16.31
320.403	18.04
320.615	17.96
320.827	18.1
321.039	18.53
321.252	18.98
321.464	19.06
321.676	19.91
321.888	20.6
322.1	22.79
322.312	23.94
322.524	24.55
322.736	24.22
322.948	24.74
323.16	23.93
323.372	23.53
323.584	23.79
323.796	22.8
324.007	22.1
324.219	21.75
324.431	21.46
324.643	20.61
324.855	20.64
325.067	20.7
325.279	19.95
325.491	20.46
325.702	21.31
325.914	22.13
326.126	23.24
326.338	25.16
326.55	26.53
326.761	27.43
326.973	28.01
327.185	28.81
327.396	29.67
327.608	31.59
327.82	32.16
328.032	31.15
328.243	30.23
328.455	30.67
328.666	30.1
328.878	29.19
329.09	27.22
329.301	28.22
329.513	27.9
329.725	27.91
329.936	27.09
330.148	27.07
330.359	30.05
330.571	30.49
330.782	31.29
330.994	31.37
331.205	32.84
331.417	34.47
331.628	34.14
331.84	35.67
332.051	37.42
332.262	37.87
332.474	38.36
332.685	37.05
332.897	37.41
333.108	36.03
333.319	36.29
333.531	35.1
333.742	35.59
333.953	38.12
334.165	38.19
334.376	37.98
334.587	38.52
334.799	38.06
335.01	38.59
335.221	39.73
335.432	40.83
335.644	40.78
335.855	41.49
336.066	41.67
336.277	41.04
336.488	40.22
336.7	40.28
336.911	40.63
337.122	42.19
337.333	43.69
337.544	43.28
337.755	43.58
337.966	43.64
338.177	43.86
338.388	44.25
338.599	44.74
338.811	45.27
339.022	45.02
339.233	45.16
339.444	44.67
339.655	43.89
339.866	44.76
340.076	45.33
340.287	46.31
340.498	47.66
340.709	47.65
340.92	47.3
341.131	48.42
341.342	49.39
341.553	48.53
341.764	48.4
341.975	48.09
342.185	49.02
342.396	48.68
342.607	48.65
342.818	48.35
343.029	48.78
343.239	47.73
343.45	47.35
343.661	46.54
343.872	47.29
344.082	48.35
344.293	48.61
344.504	47.95
344.714	48.42
344.925	48.22
345.136	47.97
345.346	46.11
345.557	46.82
345.768	46.79
345.978	47.02
346.189	48.32
346.399	47.08
346.61	46.78
346.821	46.85
347.031	46.55
347.242	46.65
347.452	46.22
347.663	47.5
347.873	47.32
348.084	47.1
348.294	47.07
348.504	45.99
348.715	46.38
348.925	46.64
349.136	46.5
349.346	46.29
349.557	45.95
349.767	47.65
349.977	48.6
350.188	49.6
350.398	49.63
350.608	49.37
350.819	49.99
351.029	50.09
351.239	50.07
351.449	49.87
351.66	49.28
351.87	50.2
352.08	49.01
352.29	49.29
352.501	47.59
352.711	49.11
352.921	49.87
353.131	49.13
353.341	49.26
353.552	49.64
353.762	50.04
353.972	51.28
354.182	51.14
354.392	51.7
354.602	50.35
354.812	51.06
355.022	50.07
355.232	49.58
355.442	49.88
355.652	49.64
355.862	49.41
356.072	48.16
356.282	48.07
356.492	48
356.702	47.88
356.912	48.9
357.122	48.56
357.332	47.62
357.542	47.69
357.752	47.13
357.962	46.99
358.171	47.07
358.381	48.04
358.591	47.29
358.801	47.01
359.011	46.05
359.221	45.28
359.43	46.15
359.64	47.48
359.85	47.74
360.06	47.29
360.269	47.09
360.479	45.98
360.689	45.75
360.899	46.17
361.108	45.72
361.318	46.33
361.528	46.93
361.737	46.15
361.947	45.74
362.156	45.31
362.366	45.84
362.576	45.84
362.785	46.46
362.995	46.12
363.204	45.74
363.414	46.08
363.623	46.36
363.833	45.64
364.042	45.7
364.252	45.79
364.461	45.8
364.671	44.97
364.88	44.65
365.09	43.63
365.299	44.15
365.509	43.46
365.718	43.05
365.927	41.74
366.137	41.5
366.346	41.01
366.555	40.9
366.765	41.53
366.974	42.72
367.183	43.19
367.393	43.4
367.602	42.87
367.811	43.74
368.021	42.9
368.23	42.67
368.439	42.5
368.648	42.57
368.857	41.52
369.067	39.91
369.276	39
369.485	38.64
369.694	39.34
369.903	39.05
370.112	39.31
370.321	40.33
370.531	40.95
370.74	41.49
370.949	41.76
371.158	41.82
371.367	42.66
371.576	42.36
371.785	41.95
371.994	41.44
372.203	41.41
372.412	41.08
372.621	40.95
372.83	40.61
373.039	39.54
373.248	39.39
373.457	39.76
373.666	39.46
373.874	39.01
374.083	38.99
374.292	37.89
374.501	37.6
374.71	37.29
374.919	37.19
375.128	37.18
375.336	37.96
375.545	37.41
375.754	37.29
375.963	36.93
376.171	36.84
376.38	37.19
376.589	37.97
376.798	37.59
377.006	37.32
377.215	37.38
377.424	37.44
377.632	37.31
377.841	37.36
378.05	37.11
378.258	36.98
378.467	37.32
378.675	36.79
378.884	37.08
379.093	37.31
379.301	37.24
379.51	36.6
379.718	35.85
379.927	35.48
380.135	35.6
380.344	34.98
380.552	34.81
380.761	34.54
380.969	34.38
381.177	33.77
381.386	34.02
381.594	33.93
381.803	33.58
382.011	33.8
382.219	33.69
382.428	33.17
382.636	33.81
382.845	33.88
383.053	33.34
383.261	33.3
383.469	33
383.678	32.37
383.886	32.28
384.094	32.41
384.302	32.44
384.511	32.19
384.719	32.64
384.927	32.08
385.135	31.74
385.343	31.87
385.552	31.66
385.76	31.47
385.968	31.36
386.176	30.98
386.384	31.16
386.592	30.74
386.8	30.26
387.008	29.73
387.216	29.42
387.424	29.27
387.633	28.86
387.841	28.75
388.049	28.75
388.257	28.55
388.465	28.52
388.672	28.06
388.88	28.23
389.088	28.15
389.296	27.64
389.504	27.45
389.712	27.49
389.92	27.43
390.128	27.55
390.336	27.17
390.544	27.25
390.751	27.31
390.959	27.47
391.167	26.91
391.375	27.11
391.583	27.33
391.79	27
391.998	26.87
392.206	26.82
392.414	26.55
392.621	26.73
392.829	26.69
393.037	26.55
393.244	26.23
393.452	26.36
393.66	26.45
393.867	26.37
394.075	26.71
394.283	26.77
394.49	26.7
394.698	26.44
394.905	26.46
395.113	26.39
395.32	25.97
395.528	25.94
395.735	25.84
395.943	25.71
396.15	25.68
396.358	25.13
396.565	24.96
396.773	24.54
396.98	24.57
397.188	24.35
397.395	24.49
397.602	24.35
397.81	24.03
398.017	23.99
398.225	23.87
398.432	24.01
398.639	24.1
398.847	23.69
399.054	23.69
399.261	23.35
399.468	23.22
399.676	23.03
399.883	23.22
400.09	23.39
400.297	23.53
400.505	23.26
400.712	23.32
400.919	23.87
401.126	24.16
401.333	24.41
401.54	25
401.748	24.94
401.955	24.98
402.162	25.13
402.369	24.76
402.576	24.72
402.783	24.68
402.99	24.37
403.197	23.78
403.404	23.88
403.611	23.78
403.818	23.64
404.025	23.66
404.232	23.66
404.439	23.35
404.646	23.48
404.853	23.23
405.06	23.19
405.267	23.16
405.474	23.41
405.681	23.31
405.887	23.55
406.094	23.1
406.301	23.05
406.508	23.13
406.715	23.33
406.922	23.6
407.128	23.65
407.335	23.52
407.542	23.24
407.749	22.95
407.955	22.83
408.162	22.58
408.369	22.92
408.575	23.1
408.782	22.71
408.989	22.53
409.195	22.5
409.402	22.67
409.609	22.75
409.815	23.07
410.022	23.3
410.228	23.34
410.435	23.49
410.642	23.38
410.848	23.21
411.055	23.12
411.261	23.24
411.468	22.96
411.674	22.64
411.881	22.85
412.087	22.94
412.294	22.89
412.5	22.77
412.706	22.88
412.913	22.84
413.119	23.03
413.326	23.53
413.532	23.33
413.738	23.5
413.945	23.91
414.151	23.88
414.357	23.61
414.564	23.43
414.77	23.23
414.976	23.03
415.182	23.3
415.389	23.08
415.595	22.86
415.801	23.07
416.007	23.1
416.214	22.85
416.42	22.44
416.626	22.34
416.832	22.61
417.038	22.78
417.244	22.51
417.45	22.18
417.657	22.25
417.863	22.31
418.069	22.23
418.275	22.1
418.481	22.16
418.687	22.27
418.893	22.33
419.099	22.14
419.305	22.05
419.511	21.98
419.717	22.06
419.923	21.97
420.129	21.86
420.335	21.74
420.541	21.62
420.746	21.6
420.952	21.55
421.158	21.55
421.364	21.5
421.57	21.54
421.776	21.67
421.982	21.62
422.187	21.66
422.393	21.71
422.599	21.76
422.805	21.77
423.01	21.71
423.216	21.87
423.422	21.77
423.628	21.81
423.833	21.82
424.039	21.72
424.245	21.79
424.45	21.86
424.656	21.73
424.862	21.7
425.067	21.87
425.273	21.74
425.478	21.74
425.684	21.92
425.889	21.9
426.095	21.93
426.301	22.06
426.506	22.04
426.712	22.04
426.917	22.06
427.123	22.03
427.328	21.82
427.533	21.99
427.739	21.82
427.944	21.51
428.15	21.53
428.355	21.18
428.561	21.25
428.766	21.28
428.971	21.03
429.177	20.81
429.382	20.98
429.587	20.87
429.793	20.66
429.998	20.59
430.203	20.72
430.408	20.78
430.614	21.02
430.819	21.08
431.024	20.93
431.229	21
431.434	21.11
431.64	21.02
431.845	21.27
432.05	21.28
432.255	21.23
432.46	21.16
432.665	21.13
432.87	20.94
433.076	20.82
433.281	20.87
433.486	20.92
433.691	21.08
433.896	21.08
434.101	20.9
434.306	20.92
434.511	21.18
434.716	21.45
434.921	21.5
435.126	21.6
435.331	21.46
435.535	21.55
435.74	21.48
435.945	21.47
436.15	21.43
436.355	21.65
436.56	21.78
436.765	21.6
436.97	21.32
437.174	21.48
437.379	21.64
437.584	21.69
437.789	21.6
437.993	21.74
438.198	21.7
438.403	21.7
438.608	21.7
438.812	21.68
439.017	21.72
439.222	21.87
439.426	21.59
439.631	21.48
439.836	21.62
440.04	21.51
440.245	21.57
440.45	21.45
440.654	21.56
440.859	21.51
441.063	21.47
441.268	21.47
441.472	21.39
441.677	21.45
441.881	21.5
442.086	21.41
442.29	21.46
442.495	21.38
442.699	21.62
442.904	21.56
443.108	21.39
443.312	21.4
443.517	21.35
443.721	21.22
443.925	21.33
444.13	21.41
444.334	21.47
444.538	21.52
444.743	21.44
444.947	21.38
445.151	21.4
445.356	21.51
445.56	21.56
445.764	21.48
445.968	21.5
446.173	21.45
446.377	21.33
446.581	21.34
446.785	21.36
446.989	21.45
447.193	21.41
447.398	21.43
447.602	21.33
447.806	21.27
448.01	21.4
448.214	21.6
448.418	21.54
448.622	21.67
448.826	21.61
449.03	21.69
449.234	21.56
449.438	21.44
449.642	21.47
449.846	21.67
450.05	21.57
450.254	21.61
450.458	21.42
450.662	21.48
450.866	21.37
451.069	21.39
451.273	21.28
451.477	21.5
451.681	21.58
451.885	21.32
452.089	21.24
452.292	21.27
452.496	21.19
452.7	21.08
452.904	21.07
453.107	21.14
453.311	21.05
453.515	20.83
453.719	20.58
453.922	20.64
454.126	20.86
454.33	20.8
454.533	20.96
454.737	20.97
454.94	21.13
455.144	21.17
455.348	20.99
455.551	21.1
455.755	21.3
455.958	21.6
456.162	21.49
456.365	21.55
456.569	21.59
456.772	21.59
456.976	21.67
457.179	21.76
457.383	21.61
457.586	21.63
457.79	21.58
457.993	21.69
458.196	21.43
458.4	21.38
458.603	21.28
458.807	21.23
459.01	21.1
459.213	21.07
459.417	20.95
459.62	20.99
459.823	20.96
460.026	20.93
460.23	20.9
460.433	21.06
460.636	21.08
460.839	21.18
461.042	21.33
461.246	21.51
461.449	21.44
461.652	21.65
461.855	21.62
462.058	21.79
462.261	22.08
462.464	22.09
462.668	21.99
462.871	22.04
463.074	21.94
463.277	21.75
463.48	21.94
463.683	22.14
463.886	21.99
464.089	22.06
464.292	21.9
464.495	21.78
464.698	21.56
464.901	21.59
465.104	21.57
465.306	21.31
465.509	21.37
465.712	20.88
465.915	20.73
466.118	20.82
466.321	20.8
466.524	21.01
466.726	20.88
466.929	21.14
467.132	21.01
467.335	20.99
467.538	21.22
467.74	21.28
467.943	21.53
468.146	21.55
468.348	21.3
468.551	21.27
468.754	21.21
468.956	21.28
469.159	21.19
469.362	21.28
469.564	21.3
469.767	21.28
469.969	21.29
470.172	21.29
470.375	21.26
470.577	21.58
470.78	21.58
470.982	21.55
471.185	21.57
471.387	21.65
471.59	21.69
471.792	21.72
471.995	21.69
472.197	21.72
472.399	21.52
472.602	21.73
472.804	21.61
473.007	21.62
473.209	21.69
473.411	21.59
473.614	21.49
473.816	21.57
474.018	21.67
474.22	21.81
474.423	21.7
474.625	21.85
474.827	21.84
475.03	21.82
475.232	21.83
475.434	21.62
475.636	21.72
475.838	21.79
476.04	21.84
476.243	21.86
476.445	21.83
476.647	21.77
476.849	21.62
477.051	21.64
477.253	21.56
477.455	21.57
477.657	21.76
477.859	21.7
478.061	21.65
478.263	21.67
478.465	21.68
478.667	21.74
478.869	21.68
479.071	21.74
479.273	21.58
479.475	21.58
479.677	21.68
479.879	21.65
480.081	21.67
480.283	21.62
480.485	21.44
480.686	21.44
480.888	21.28
481.09	21.54
481.292	21.71
481.494	21.66
481.695	21.67
481.897	21.73
482.099	21.7
482.301	21.62
482.502	21.61
482.704	21.51
482.906	21.42
483.107	21.47
483.309	21.37
483.511	21.25
483.712	21.3
483.914	21.41
484.115	21.33
484.317	21.39
484.519	21.38
484.72	21.36
484.922	21.37
485.123	21.34
485.325	21.31
485.526	21.38
485.728	21.45
485.929	21.52
486.131	21.35
486.332	21.37
486.534	21.26
486.735	21.33
486.936	21.36
487.138	21.39
487.339	21.44
487.541	21.46
487.742	21.46
487.943	21.43
488.144	21.35
488.346	21.43
488.547	21.46
488.748	21.48
488.95	21.49
489.151	21.51
489.352	21.48
489.553	21.52
489.755	21.52
489.956	21.5
490.157	21.58
490.358	21.52
490.559	21.42
490.76	21.4
490.961	21.42
491.163	21.3
491.364	21.24
491.565	21.29
491.766	21.3
491.967	21.26
492.168	21.26
492.369	21.25
492.57	21.25
492.771	21.31
492.972	21.31
493.173	21.27
493.374	21.45
493.575	21.49
493.776	21.56
493.976	21.5
494.177	21.6
494.378	21.55
494.579	21.65
494.78	21.71
494.981	21.71
495.182	21.63
495.382	21.65
495.583	21.38
495.784	21.37
495.985	21.17
496.185	21.31
496.386	21.31
496.587	21.21
496.788	21.2
496.988	21.2
497.189	21.2
497.39	21.39
497.59	21.5
497.791	21.65
497.992	21.79
498.192	21.79
498.393	21.72
498.593	21.83
498.794	22
498.994	22.02
499.195	22.09
499.395	22.16
499.596	22.18
499.796	22.15
499.997	22.23
500.197	22.19
500.398	22.57
500.598	22.57
500.799	22.57
500.999	22.52
501.199	22.53
501.4	22.42
501.6	22.46
501.801	22.34
502.001	22.5
502.201	22.33
502.402	22.44
502.602	22.42
502.802	22.63
503.002	22.63
503.203	22.83
503.403	22.91
503.603	23.24
503.803	23.29
504.003	23.35
504.204	23.26
504.404	23.34
504.604	23.34
504.804	23.3
505.004	23.1
505.204	23.02
505.404	23.09
505.604	23.09
505.804	22.89
506.005	22.92
506.205	22.96
506.405	22.95
506.605	23.2
506.805	23.21
507.005	23.23
507.204	23.43
507.404	23.6
507.604	23.62
507.804	23.54
508.004	23.66
508.204	23.7
508.404	23.75
508.604	23.84
508.804	23.65
509.003	23.61
509.203	23.79
509.403	23.81
509.603	23.8
509.803	23.84
510.002	23.92
510.202	23.99
510.402	24.02
510.602	24.06
510.801	24.08
511.001	24.29
511.201	24.37
511.4	24.08
511.6	24.09
511.8	24.01
511.999	24.01
512.199	24.14
512.398	24.09
512.598	24.22
512.797	24.19
512.997	24.23
513.197	24.19
513.396	24.22
513.596	24.5
513.795	24.51
513.994	24.58
514.194	24.45
514.393	24.29
514.593	24.39
514.792	24.47
514.992	24.57
515.191	24.52
515.39	24.62
515.59	24.64
515.789	24.66
515.988	24.66
516.188	24.77
516.387	24.92
516.586	25
516.786	25.03
516.985	25.08
517.184	24.98
517.383	25.07
517.582	25.07
517.782	25.04
517.981	25.05
518.18	24.98
518.379	24.95
518.578	25.05
518.777	25.05
518.976	25.08
519.176	24.97
519.375	25.11
519.574	25.19
519.773	25.26
519.972	25.3
520.171	25.34
520.37	25.46
520.569	25.51
520.768	25.41
520.967	25.64
521.166	25.68
521.365	25.66
521.564	25.77
521.762	25.75
521.961	25.87
522.16	26.01
522.359	26.05
522.558	26.19
522.757	26.31
522.956	26.32
523.154	26.1
523.353	26.14
523.552	26.24
523.751	26.28
523.949	26.27
524.148	26.13
524.347	26.2
524.546	26.16
524.744	26.11
524.943	26.13
525.142	26.17
525.34	26.31
525.539	26.33
525.737	26.35
525.936	26.39
526.135	26.48
526.333	26.61
526.532	26.58
526.73	26.65
526.929	26.84
527.127	26.84
527.326	26.79
527.524	26.85
527.723	26.83
527.921	26.84
528.12	26.82
528.318	26.8
528.516	26.81
528.715	26.77
528.913	26.83
529.112	26.77
529.31	26.72
529.508	26.77
529.707	26.76
529.905	26.73
530.103	26.76
530.301	26.69
530.5	26.7
530.698	26.73
530.896	26.78
531.094	26.67
531.293	26.72
531.491	26.82
531.689	26.94
531.887	26.98
532.085	27.16
532.283	27.25
532.481	27.38
532.68	27.3
532.878	27.26
533.076	27.33
533.274	27.43
533.472	27.41
533.67	27.43
533.868	27.38
534.066	27.31
534.264	27.23
534.462	27.2
534.66	27.14
534.858	27.27
535.056	27.33
535.253	27.24
535.451	27.29
535.649	27.29
535.847	27.25
536.045	27.21
536.243	27.27
536.441	27.18
536.638	27.11
536.836	27.18
537.034	27.15
537.232	26.97
537.43	27.03
537.627	27.02
537.825	26.96
538.023	26.92
538.22	27.14
538.418	27.15
538.616	27.4
538.813	27.56
539.011	27.58
539.209	27.73
539.406	27.87
539.604	28
539.801	27.98
539.999	28.24
540.196	28.39
540.394	28.29
540.591	28.26
540.789	28.25
540.986	28.16
541.184	28.09
541.381	28.07
541.579	28.07
541.776	28.05
541.974	28.03
542.171	27.86
542.368	27.79
542.566	27.78
542.763	27.88
542.96	27.81
543.158	27.87
543.355	27.92
543.552	27.84
543.75	27.86
543.947	27.71
544.144	27.73
544.341	27.87
544.539	27.89
544.736	27.82
544.933	27.91
545.13	27.98
545.327	27.96
545.524	27.94
545.722	28.05
545.919	27.91
546.116	28.03
546.313	28.14
546.51	28.18
546.707	28.21
546.904	28.26
547.101	28.11
547.298	27.98
547.495	28.03
547.692	28.04
547.889	27.97
548.086	28.2
548.283	28.27
548.48	28.23
548.677	28.3
548.874	28.39
549.07	28.38
549.267	28.42
549.464	28.58
549.661	28.48
549.858	28.54
550.055	28.49
550.251	28.46
550.448	28.68
550.645	28.63
550.842	28.4
551.038	28.5
551.235	28.59
551.432	28.47
551.628	28.64
551.825	28.63
552.022	28.64
552.218	28.8
552.415	29.03
552.612	28.83
552.808	28.84
553.005	28.85
553.201	28.86
553.398	28.94
553.594	29.02
553.791	28.84
553.987	28.89
554.184	28.87
554.38	28.93
554.577	28.84
554.773	28.84
554.97	28.8
555.166	28.79
555.362	28.7
555.559	28.67
555.755	28.74
555.952	28.72
556.148	28.74
556.344	28.83
556.541	28.7
556.737	28.68
556.933	28.73
557.129	28.91
557.326	28.97
557.522	29.16
557.718	29.21
557.914	29.19
558.11	29.41
558.307	29.49
558.503	29.46
558.699	29.56
558.895	29.5
559.091	29.61
559.287	29.64
559.483	29.75
559.679	29.73
559.876	29.77
560.072	29.87
560.268	29.75
560.464	29.62
560.66	29.76
560.856	29.8
561.052	29.65
561.247	29.73
561.443	29.78
561.639	29.59
561.835	29.57
562.031	29.52
562.227	29.29
562.423	29.49
562.619	29.69
562.815	29.59
563.01	29.67
563.206	29.93
563.402	29.81
563.598	29.67
563.793	29.73
563.989	29.38
564.185	29.63
564.381	29.83
564.576	29.74
564.772	29.83
564.968	29.91
565.163	30.01
565.359	30.15
565.555	30.35
565.75	30.45
565.946	30.45
566.141	30.69
566.337	30.46
566.532	30.43
566.728	30.55
566.923	30.49
567.119	30.55
567.314	30.44
567.51	30.38
567.705	30.3
567.901	30.23
568.096	30.41
568.292	30.56
568.487	30.62
568.682	30.66
568.878	30.38
569.073	30.33
569.268	30.35
569.464	30.19
569.659	30.08
569.854	30.04
570.05	30.07
570.245	29.92
570.44	29.96
570.635	30.17
570.831	30.4
571.026	30.63
571.221	30.7
571.416	30.73
571.611	30.77
571.806	30.88
572.002	30.93
572.197	30.88
572.392	31
572.587	30.98
572.782	30.91
572.977	30.92
573.172	30.87
573.367	30.96
573.562	31.13
573.757	31.3
573.952	31.15
574.147	31.19
574.342	31.29
574.537	31.26
574.732	31.38
574.927	31.39
575.121	31.38
575.316	31.43
575.511	31.34
575.706	31.03
575.901	31.03
576.096	31.14
576.29	31.17
576.485	31.21
576.68	31.26
576.875	30.93
577.069	30.85
577.264	30.84
577.459	30.67
577.654	30.57
577.848	30.82
578.043	30.91
578.238	30.74
578.432	30.69
578.627	30.77
578.821	30.58
579.016	30.84
579.21	31.11
579.405	30.83
579.6	30.98
579.794	31.09
579.989	30.88
580.183	30.97
580.378	31.26
580.572	31.27
580.766	31.35
580.961	31.72
581.155	31.87
581.35	31.65
581.544	31.83
581.738	31.97
581.933	31.87
582.127	31.94
582.321	31.82
582.516	31.82
582.71	31.72
582.904	31.63
583.099	31.57
583.293	31.36
583.487	31.2
583.681	31.16
583.875	31.04
584.07	31.16
584.264	31.3
584.458	31.3
584.652	31.46
584.846	31.75
585.04	31.65
585.234	31.43
585.428	31.18
585.623	31.42
585.817	31.44
586.011	31.52
586.205	31.66
586.399	31.74
586.593	31.46
586.787	31.22
586.981	31.21
587.174	31.1
587.368	31.45
587.562	31.91
587.756	31.84
587.95	31.99
588.144	32.05
588.338	32.14
588.532	32.06
588.725	32.32
588.919	32.4
589.113	32.12
589.307	32.3
589.501	32.1
589.694	31.99
589.888	32.05
590.082	32.31
590.275	32.4
590.469	32.44
590.663	32.38
590.856	32.34
591.05	32.49
591.244	32.51
591.437	32.65
591.631	32.73
591.824	32.53
592.018	32.55
592.212	32.29
592.405	31.98
592.599	31.69
592.792	31.65
592.986	31.79
593.179	31.72
593.372	32.19
593.566	32.25
593.759	32.32
593.953	32.64
594.146	32.66
594.339	32.77
594.533	33.07
594.726	33.09
594.92	33.43
595.113	33.24
595.306	33.22
595.499	32.94
595.693	32.71
595.886	32.75
596.079	32.79
596.272	32.84
596.466	32.73
596.659	32.61
596.852	32.67
597.045	32.42
597.238	32.85
597.431	32.93
597.624	32.92
597.818	33.08
598.011	33.12
598.204	32.85
598.397	33.04
598.59	33.04
598.783	33.08
598.976	33.27
599.169	33.49
599.362	33.17
599.555	33.2
599.748	33.2
599.941	33.08
600.134	33.31
600.326	33.62
600.519	33.42
600.712	33.68
600.905	33.6
601.098	33.58
601.291	33.7
601.483	33.61
601.676	33.43
601.869	33.7
602.062	33.71
602.255	33.44
602.447	33.38
602.64	33.37
602.833	33.39
603.025	33.63
603.218	33.55
603.411	33.34
603.603	33.67
603.796	33.73
603.989	33.75
604.181	33.85
604.374	33.9
604.566	33.92
604.759	33.97
604.951	33.93
605.144	33.72
605.336	33.84
605.529	33.97
605.721	33.93
605.914	33.94
606.106	34
606.299	34.02
606.491	34.02
606.683	33.93
606.876	33.88
607.068	34.1
607.26	34.54
607.453	34.51
607.645	34.47
607.837	34.28
608.03	34.34
608.222	34.17
608.414	34.15
608.606	34.15
608.799	34.17
608.991	34.22
609.183	33.86
609.375	33.66
609.567	33.51
609.759	33.62
609.952	33.55
610.144	33.73
610.336	33.49
610.528	33.63
610.72	33.51
610.912	33.56
611.104	33.56
611.296	33.64
611.488	33.55
611.68	33.77
611.872	33.67
612.064	33.78
612.256	33.49
612.448	33.89
612.64	33.67
612.832	33.49
613.023	33.48
613.215	33.61
613.407	33.53
613.599	33.72
613.791	33.36
613.983	33.12
614.174	33.25
614.366	33.23
614.558	33.07
614.75	33.16
614.941	33.43
615.133	33.47
615.325	33.6
615.516	33.38
615.708	33.28
615.9	33.46
616.091	33.57
616.283	33.43
616.475	33.47
616.666	33.49
616.858	33.36
617.049	33.53
617.241	33.48
617.432	33.1
617.624	33.48
617.815	33.48
618.007	33.68
618.198	33.61
618.39	33.58
618.581	33.53
618.773	33.58
618.964	33.62
619.155	33.64
619.347	33.82
619.538	33.88
619.729	33.58
619.921	33.68
620.112	33.5
620.303	33.5
620.494	33.66
620.686	33.94
620.877	33.98
621.068	33.88
621.259	33.58
621.451	33.24
621.642	33.26
621.833	33.39
622.024	33.24
622.215	33.26
622.406	33.3
622.597	32.88
622.788	32.6
622.98	32.69
623.171	32.62
623.362	32.65
623.553	32.86
623.744	32.92
623.935	32.85
624.126	33.1
624.317	33.3
624.508	33.24
624.698	33.49
624.889	33.6
625.08	33.6
625.271	33.84
625.462	33.85
625.653	33.82
625.844	33.92
626.034	34.28
626.225	33.99
626.416	33.88
626.607	33.85
626.798	33.74
626.988	33.79
627.179	33.64
627.37	33.61
627.56	33.71
627.751	33.71
627.942	33.66
628.132	33.6
628.323	33.93
628.514	34.04
628.704	34.4
628.895	34.62
629.085	34.37
629.276	34.43
629.466	34.43
629.657	34.37
629.847	34.41
630.038	34.28
630.228	34.13
630.419	34.09
630.609	33.74
630.8	33.56
630.99	33.27
631.181	33.72
631.371	33.81
631.561	33.6
631.752	33.98
631.942	34.02
632.132	33.91
632.323	33.95
632.513	33.74
632.703	34.07
632.893	33.9
633.084	34.19
633.274	34.19
633.464	33.99
633.654	34.06
633.844	34.05
634.034	33.97
634.225	34.17
634.415	34.4
634.605	34.57
634.795	34.73
634.985	35.07
635.175	34.76
635.365	34.85
635.555	34.7
635.745	34.64
635.935	34.52
636.125	34.52
636.315	34.56
636.505	34.39
636.695	34.28
636.885	34.16
637.075	33.94
637.265	34.29
637.455	33.81
637.644	33.94
637.834	33.96
638.024	33.53
638.214	33.63
638.404	33.44
638.593	33.4
638.783	33.12
638.973	33.16
639.163	33.21
639.352	33.45
639.542	33.44
639.732	33.56
639.921	33.72
640.111	34.13
640.301	34.2
640.49	33.98
640.68	34.18
640.87	34.64
641.059	34.23
641.249	34.48
641.438	33.98
641.628	34.39
641.817	34.5
642.007	34.41
642.196	34.53
642.386	34.6
642.575	34.71
642.764	34.49
642.954	34.31
643.143	34.28
643.333	33.85
643.522	33.8
643.711	33.7
643.901	33.62
644.09	34.16
644.279	34.03
644.469	33.5
644.658	33.57
644.847	33.48
645.036	33.37
645.226	33.63
645.415	33.85
645.604	33.82
645.793	33.36
645.982	33.21
646.171	33.05
646.361	32.95
646.55	33.42
646.739	33.49
646.928	33.7
647.117	33.82
647.306	33.74
647.495	33.52
647.684	33.51
647.873	33.72
648.062	33.72
648.251	33.72
648.44	33.79
648.629	33.52
648.818	33.38
649.007	33.36
649.196	33.73
649.384	33.66
649.573	34.02
649.762	34.32
649.951	34.65
650.14	34.89
650.328	34.48
650.517	34.43
650.706	34.71
650.895	35.61
651.083	35.4
651.272	34.95
651.461	35.05
651.65	34.87
651.838	34.7
652.027	34.85
652.216	35.32
652.404	35.46
652.593	35.37
652.781	35.53
652.97	34.85
653.158	35.08
653.347	35
653.535	35.15
653.724	34.83
653.912	35.06
654.101	34.49
654.289	34.12
654.478	33.93
654.666	34.04
654.855	33.84
655.043	33.66
655.231	33.08
655.42	33.15
655.608	32.86
655.796	33.24
655.985	33.07
656.173	33.04
656.361	32.71
656.55	32.91
656.738	33.01
656.926	33
657.114	33.27
657.302	33.53
657.491	33.53
657.679	33.7
657.867	33.87
658.055	34.05
658.243	34.35
658.431	34.36
658.619	34.32
658.807	34.43
658.996	34.3
659.184	34.46
659.372	34.4
659.56	34.2
659.748	34.19
659.936	34.55
660.124	34.65
660.311	34.3
660.499	34.23
660.687	34.17
660.875	34.12
661.063	34.05
661.251	33.73
661.439	33.59
661.627	34.07
661.814	34.12
662.002	33.33
662.19	33.24
662.378	33.71
662.565	33.82
662.753	34.07
662.941	34
663.129	34.75
663.316	34.93
663.504	35.33
663.692	35.39
663.879	35.61
664.067	35.83
664.254	36.01
664.442	36.01
664.63	36.49
664.817	36.57
665.005	36.46
665.192	35.39
665.38	35.79
665.567	36.2
665.755	35.7
665.942	35.53
666.13	35.4
666.317	34.87
666.504	34.51
666.692	34.64
666.879	34.51
667.067	34.59
667.254	35.08
667.441	34.9
667.629	34.7
667.816	34.89
668.003	35.05
668.19	34.96
668.378	35.17
668.565	35.45
668.752	34.66
668.939	34.47
669.127	35
669.314	35.16
669.501	35
669.688	35.02
669.875	34.92
670.062	34.54
670.249	34.49
670.436	34.84
670.623	35.1
670.81	35.28
670.997	35.47
671.184	35.09
671.371	34.95
671.558	35.29
671.745	34.97
671.932	35.37
672.119	35.75
672.306	36.38
672.493	35.96
672.68	35.36
672.867	35.22
673.054	35.17
673.24	35.37
673.427	35.17
673.614	34.57
673.801	34.16
673.988	33.65
674.174	33.43
674.361	33.52
674.548	33.82
674.734	33.89
674.921	34.08
675.108	34.3
675.294	33.73
675.481	33.84
675.668	34.16
675.854	34.64
676.041	34.52
676.227	34.96
676.414	34.03
676.601	33.84
676.787	33.51
676.974	33.37
677.16	33.36
677.347	33.46
677.533	33.45
677.719	33.24
677.906	33.41
678.092	34.32
678.279	34.01
678.465	34.78
678.651	34.91
678.838	35.05
679.024	35.04
679.21	34.16
679.397	34.5
679.583	34.09
679.769	34.22
679.955	33.87
680.142	33.17
680.328	33.19
680.514	32.79
680.7	32.51
680.886	32.65
681.073	32.5
681.259	33.02
681.445	32.77
681.631	33.55
681.817	33.28
682.003	33.69
682.189	33.54
682.375	33.56
682.561	33.87
682.747	34.17
682.933	34.22
683.119	34.28
683.305	34.85
683.491	34.84
683.677	34.27
683.863	34.15
684.049	33.62
684.235	34.1
684.42	34.01
684.606	33.59
684.792	33.32
684.978	32.9
685.164	33.35
685.349	32.62
685.535	32.93
685.721	33.11
685.907	33.98
686.092	34.17
686.278	34.83
686.464	35.22
686.649	35.31
686.835	35.03
687.021	35.61
687.206	35.68
687.392	35.79
687.577	35.74
687.763	35.83
687.948	35.41
688.134	35.34
688.319	34.88
688.505	34.67
688.69	34.87
688.876	35.07
689.061	34.75
689.247	34.04
689.432	34.53
689.618	34.02
689.803	34.21
689.988	34
690.174	34.13
690.359	33.92
690.544	33.9
690.73	33.96
690.915	34.15
691.1	34.6
691.285	34.69
691.471	33.62
691.656	33.84
691.841	34.29
692.026	34.59
692.211	34.84
692.396	34.81
692.582	34.97
692.767	35.4
692.952	34.7
693.137	34.61
693.322	35.27
693.507	35.98
693.692	36.14
693.877	35.16
694.062	35.46
694.247	34.85
694.432	34.47
694.617	33.91
694.802	32.89
694.987	33.51
695.172	33.26
695.357	32.81
695.541	32.99
695.726	32.8
695.911	32.64
696.096	32.26
696.281	32.77
696.466	33.12
696.65	33.17
696.835	33.59
697.02	33.63
697.204	33.68
697.389	33.78
697.574	33.57
697.759	34.01
697.943	34.43
698.128	34.55
698.312	34.46
698.497	34.22
698.682	34.12
698.866	34.07
699.051	34.26
699.235	34.1
699.42	34.01
699.604	34.47
699.789	34.34
699.973	34.43
700.158	34.16
700.342	34
700.527	34.36
700.711	34.09
700.895	33.84
701.08	33.66
701.264	33.7
701.448	33.88
701.633	33.53
701.817	33.66
702.001	33.62
702.186	33.4
702.37	33.54
702.554	33.73
702.738	34.24
702.923	34.46
703.107	34.02
703.291	33.97
703.475	33.37
703.659	32.86
703.843	32.5
704.027	31.61
704.212	32.72
704.396	32.99
704.58	32.4
704.764	32.53
704.948	32.52
705.132	32.93
705.316	33.19
705.5	33.35
705.684	33.5
705.868	32.8
706.052	33.65
706.235	33.12
706.419	32.99
706.603	32.58
706.787	33.09
706.971	33.3
707.155	33.3
707.339	32.91
707.522	33.72
707.706	33.61
707.89	34.3
708.074	33.52
708.257	33.77
708.441	34.03
708.625	34.38
708.808	33.93
708.992	34.08
709.176	34.25
709.359	34.63
709.543	33.73
709.727	33.58
709.91	33.66
710.094	33.92
710.277	33.22
710.461	32.8
710.644	33.01
710.828	33.06
711.011	32.48
711.195	32.78
711.378	32.13
711.562	32.92
711.745	33.58
711.928	33.33
712.112	33.59
712.295	33.62
712.478	33.91
712.662	33.76
712.845	33.47
713.028	33.92
713.212	33.13
713.395	33.97
713.578	33.3
713.761	32.81
713.945	33.24
714.128	33
714.311	33.15
714.494	33.44
714.677	33.91
714.86	33.96
715.043	34.37
715.227	34.63
715.41	34.55
715.593	34.86
715.776	34.63
715.959	33.9
716.142	33.99
716.325	34.25
716.508	34.29
716.691	34.41
716.874	34.46
717.057	33.98
717.239	34.23
717.422	33.98
717.605	33.85
717.788	34.1
717.971	34.97
718.154	34.53
718.337	34.77
718.519	34.29
718.702	33.13
718.885	32.55
719.068	32.62
719.25	32.46
719.433	32.61
719.616	33.93
719.798	33.97
719.981	33.12
720.164	34.18
720.346	34.18
720.529	33.28
720.712	33.34
720.894	34.52
721.077	33.76
721.259	33.81
721.442	32.3
721.624	30.84
721.807	30.66
721.989	30.35
722.172	30.03
722.354	29.84
722.537	31.42
722.719	31.1
722.901	31.3
723.084	32.04
723.266	30.99
723.448	32.78
723.631	32.41
723.813	32.31
723.995	32.58
724.178	32.46
724.36	32.81
724.542	32.59
724.724	33.72
724.907	33.3
725.089	33.09
725.271	32.18
725.453	31.37
725.635	31.39
725.817	31.86
725.999	32.72
726.181	33.03
726.364	32.18
726.546	31.71
726.728	31.66
726.91	32.24
727.092	32.26
727.274	34.58
727.456	35.09
727.638	35.33
727.819	35.08
728.001	34.91
728.183	34.81
728.365	35.39
728.547	35.27
728.729	35.67
728.911	35.12
729.093	35.28
729.274	34.76
729.456	34.84
729.638	35.34
729.82	35.95
730.001	35.1
730.183	34.55
730.365	34.58
730.546	34.34
730.728	33.27
730.91	32.59
731.091	32.33
731.273	32.05
731.455	32.05
731.636	31.91
731.818	30.81
731.999	31.41
732.181	32.2
732.362	30.86
732.544	32.25
732.725	31.6
732.907	32.61
733.088	32.41
733.27	31.84
733.451	31.74
733.633	32.39
733.814	33.55
733.995	33.43
734.177	32.19
734.358	33.85
734.539	33.53
734.721	33.82
734.902	33.12
735.083	32.8
735.264	34.49
735.446	34.48
735.627	33.04
735.808	32.01
735.989	32.77
736.17	33.49
736.351	32.21
736.533	31.28
736.714	31.89
736.895	31.12
737.076	32.44
737.257	31.21
737.438	31.13
737.619	31.42
737.8	32.72
737.981	31.96
738.162	32.48
738.343	33.33
738.524	35.07
738.705	35.84
738.886	36.52
739.067	36.01
739.247	36.15
739.428	36.66
739.609	37.57
739.79	36.13
739.971	36.79
740.151	36.35
740.332	35.15
740.513	33.97
740.694	33.39
740.874	34.4
741.055	34.05
741.236	33.51
741.417	34.18
741.597	33.45
741.778	34.4
741.958	34.53
742.139	35.27
742.32	35.26
742.5	35.36
742.681	36.29
742.861	34.77
743.042	36.03
743.222	37.48
743.403	34.27
743.583	33.71
743.764	32.93
743.944	32.12
744.124	30.64
744.305	31.55
744.485	30.52
744.666	29.63
744.846	28.65
745.026	27.67
745.207	27.99
745.387	30.33
745.567	30.56
745.747	30.97
745.928	31.52
746.108	31.55
746.288	31.17
746.468	31.77
746.648	32.09
746.829	34.26
747.009	33.91
747.189	32.91
747.369	32.71
747.549	33.57
747.729	33.24
747.909	33.41
748.089	34.28
748.269	34.16
748.449	34.94
748.629	34.69
748.809	34.26
748.989	33.95
749.169	33.3
749.349	34.19
749.529	35.02
749.709	35.23
749.889	34.72
750.068	34.85
750.248	35.44
750.428	35.06
750.608	35.44
750.788	35.78
750.967	36.51
751.147	37.83
751.327	36.54
751.507	36.13
751.686	34.84
751.866	35.07
752.046	34.42
752.225	33.59
752.405	33.93
752.585	33.63
752.764	33.49
752.944	33.18
753.123	32.28
753.303	33.92
753.482	33.36
753.662	33.73
753.841	33.52
754.021	34.3
754.2	34.86
754.38	34.33
754.559	35.27
754.739	35.42
754.918	35.24
755.097	35
755.277	33.24
755.456	32.17
755.635	31.57
755.815	30.24
755.994	29.64
756.173	29.36
756.352	28.8
756.532	28.24
756.711	28.34
756.89	29.1
757.069	28.57
757.248	29.93
757.427	30.21
757.607	31.13
757.786	32.21
757.965	32.14
758.144	33.09
758.323	32.97
758.502	32.74
758.681	31.59
758.86	31.27
759.039	32.31
759.218	30.98
759.397	31.1
759.576	32.11
759.755	31.78
759.934	31.79
760.113	31.74
760.291	32.43
760.47	31.36
760.649	33.59
760.828	33.62
761.007	33.1
761.186	33.06
761.364	33.36
761.543	32.97
761.722	33.51
761.901	33.89
762.079	33.54
762.258	32.87
762.437	34.52
762.615	32.85
762.794	32.3
762.972	33.63
763.151	35.18
763.33	34.96
763.508	35.74
763.687	35.43
763.865	35.43
764.044	35.75
764.222	35.91
764.401	36.03
764.579	36.62
764.758	37.68
764.936	36.37
765.114	36.48
765.293	37.64
765.471	38.22
765.65	38.14
765.828	38.38
766.006	38.55
766.184	39.2
766.363	38.58
766.541	37.42
766.719	37
766.898	37.39
767.076	36.72
767.254	35.49
767.432	33.93
767.61	34.07
767.788	33.51
767.967	33.29
768.145	33.16
768.323	32.7
768.501	33.43
768.679	34.67
768.857	34.34
769.035	33.34
769.213	33.89
769.391	33.87
769.569	35.66
769.747	35.73
769.925	34.63
770.103	34.64
770.281	34.61
770.459	35.95
770.636	36.24
770.814	38.07
770.992	38.27
771.17	37.38
771.348	36.53
771.525	35.17
771.703	35.28
771.881	36.7
772.059	36.48
772.236	36.91
772.414	37.03
772.592	35.2
772.769	34.15
772.947	34.39
773.125	31.37
773.302	32.41
773.48	33
773.657	33.37
773.835	33.09
774.013	32.05
774.19	31.89
774.368	29.94
774.545	30.15
774.723	30.25
774.9	29.87
775.077	34.71
775.255	33.97
775.432	34.35
775.61	34.58
775.787	36.31
775.964	38.21
776.142	37.72
776.319	39.22
776.496	38.91
776.674	39.33
776.851	40.94
777.028	39.89
777.205	40.83
777.382	41.31
777.56	41.71
777.737	38.31
777.914	38.22
778.091	38.44
778.268	37.8
778.445	38.71
778.622	38.41
778.8	39.39
778.977	39.59
779.154	38.87
779.331	37.82
779.508	36.06
779.685	37.67
779.862	37.79
780.038	39.73
780.215	41.28
780.392	40.52
780.569	39.31
780.746	37.09
780.923	36.89
781.1	38.14
781.277	37.45
781.453	36.55
781.63	35.84
781.807	35.66
781.984	34.07
782.16	32.97
782.337	31.58
782.514	32.46
782.691	31.41
782.867	31.75
783.044	30.5
783.221	31.47
783.397	33.4
783.574	34.26
783.75	33.25
783.927	34.19
784.103	33.14
784.28	32.65
784.456	33
784.633	33.37
784.809	33.69
784.986	31.89
785.162	31.54
785.339	31.78
785.515	31.68
785.692	32.81
785.868	32.04
786.044	32.52
786.221	33.94
786.397	33.47
786.573	35.18
786.749	36.75
786.926	38.71
787.102	37.18
787.278	34.7
787.454	32.45
787.631	30.2
787.807	30.66
787.983	32.22
788.159	32.11
788.335	30.73
788.511	30.58
788.687	30.05
788.863	29.92
789.039	33.26
789.216	34.81
789.392	37.16
789.568	39.47
789.744	38.79
789.919	36.97
790.095	35.73
790.271	40.22
790.447	40.13
790.623	38.37
790.799	39
790.975	39.07
791.151	38.82
791.327	37.45
791.502	36.82
791.678	39.01
791.854	38.75
792.03	41.42
792.205	37.48
792.381	36.24
792.557	36.08
792.733	37.46
792.908	35.39
793.084	38.89
793.259	38.91
793.435	41.08
793.611	36.14
793.786	35.9
793.962	35.05
794.137	37.83
794.313	39.36
794.488	40.97
794.664	37.75
794.839	35.81
795.015	31.11
795.19	33.21
795.366	31.67
795.541	33.37
795.716	34.86
795.892	35.12
796.067	34.99
796.242	35.48
796.418	35.84
796.593	37.16
796.768	39.34
796.944	37.7
797.119	36.42
797.294	33.42
797.469	36.1
797.644	34.79
797.82	35.91
797.995	33.26
798.17	33.76
798.345	30.38
798.52	30.98
798.695	27.67
798.87	32.56
799.045	30.95
799.22	33.68
799.395	31.63
799.57	30.85
799.745	29.42
799.92	29.16
800.095	29.85
800.27	33.2
800.445	33.69
800.62	35.83
800.795	34.84
800.97	34.57
801.145	29.95
801.319	31.53
801.494	32.92
801.669	34.26
801.844	35.94
802.018	33.65
802.193	32.54
802.368	34.28
802.543	31.73
802.717	28.95
802.892	31.45
803.067	37.18
803.241	37.26
803.416	36.77
803.59	36.05
803.765	35.63
803.94	35.74
804.114	33.33
804.289	30.69
804.463	33.99
804.638	35.84
804.812	35.59
804.986	31.97
805.161	28.4
805.335	25.6
805.51	27.72
805.684	31
805.858	27.72
806.033	31.8
806.207	32.71
806.381	32.04
806.556	30.18
806.73	30.65
806.904	35.62
807.078	37.25
807.253	39.36
807.427	38.65
807.601	35.06
807.775	38.75
807.949	37.37
808.123	36.11
808.298	34.76
808.472	35.12
808.646	32.95
808.82	30.02
808.994	30.06
809.168	32.25
809.342	30.77
809.516	28.92
809.69	27.69
809.864	28.69
810.038	27.68
810.212	30.84
810.385	29.81
810.559	28.72
810.733	25.97
810.907	26.43
811.081	30.54
811.255	25.15
811.428	29.7
811.602	29.94
811.776	31.32
811.95	31.53
812.123	27.96
812.297	28.54
812.471	34.7
812.644	33.75
812.818	34.55
812.992	28.34
813.165	30.1
813.339	28.27
813.512	28.78
813.686	27.31
813.86	30.73
814.033	28.79
814.207	31.99
814.38	26.94
814.554	30.47
814.727	26.23
814.9	27.03
815.074	28.52
815.247	29.35
815.421	27.85
815.594	28.08
815.767	25.11
815.941	31.86
816.114	25.56
816.287	32.33
816.46	28.84
816.634	33.04
816.807	39.13
816.98	40.31
817.153	40.39
817.327	40.77
817.5	43.66
817.673	43.95
817.846	42.71
818.019	43.06
818.192	35.42
818.365	37.91
818.538	36.47
818.711	31.04
818.884	29.1
819.057	26.74
819.23	25.03
819.403	25.42
819.576	26.32
819.749	24.54
819.922	27.93
820.095	31.58
820.268	32.58
820.441	35.92
820.614	36.3
820.786	36.86
820.959	35.83
821.132	35.13
821.305	33.09
821.477	32.2
821.65	32.26
821.823	32.88
821.996	33.57
822.168	34.05
822.341	33.21
822.514	33.39
822.686	33.66
822.859	34.06
823.031	34.94
823.204	35.45
823.376	35.95
823.549	35.63
823.722	34.88
823.894	34.45
824.067	35.1
824.239	35.41
824.411	36.06
824.584	36.69
824.756	37.27
824.929	38.04
825.101	39.42
825.273	39.26
825.446	40.97
825.618	41.63
825.79	43.21
825.963	42.41
826.135	41.6
826.307	42.06
826.479	40.62
826.652	40.75
826.824	39.4
826.996	37.32
827.168	36.78
827.34	37.06
827.512	37.57
827.684	36.05
827.856	35.98
828.029	35.94
828.201	33.84
828.373	33.89
828.545	33.25
828.717	32.95
828.889	33.82
829.061	34.48
829.232	32.47
829.404	32.73
829.576	32.25
829.748	31.62
829.92	31.41
830.092	32.62
830.264	32.5
830.436	32.38
830.607	34.1
830.779	34.81
830.951	33.98
831.123	34.98
831.294	35.31
831.466	36.06
831.638	34.44
831.809	38.26
831.981	37.44
832.153	37.26
832.324	39.79
832.496	39.2
832.667	35.95
832.839	36.04
833.011	35.14
833.182	33.78
833.354	32.82
833.525	36.22
833.697	34.09
833.868	35.65
834.039	35.66
834.211	34.69
834.382	35.75
834.554	35.6
834.725	37.09
834.896	38.6
835.068	38.37
835.239	38.28
835.41	36.57
835.581	38.45
835.753	35.92
835.924	39.13
836.095	42.87
836.266	42.58
836.438	43.92
836.609	42.94
836.78	42.6
836.951	43.39
837.122	43.59
837.293	42.12
837.464	41.41
837.635	44.88
837.806	44.81
837.977	34.22
838.148	33.06
838.319	35.79
838.49	34.31
838.661	34.17
838.832	36.39
839.003	42.35
839.174	45.55
839.345	52.3
839.516	55.16
839.687	55.94
839.857	59.62
840.028	55.77
840.199	53.25
840.37	56.06
840.54	51.04
840.711	50.6
840.882	43
841.053	42.19
841.223	35.08
841.394	32.72
841.564	27.35
841.735	24.75
841.906	28.25
842.076	31.17
842.247	26.4
842.417	21.89
842.588	20.54
842.758	18.46
842.929	25.86
843.099	30.88
843.27	26.79
843.44	25.51
843.611	22.47
843.781	18.94
843.951	19.54
844.122	26.88
844.292	27.89
844.462	34.86
844.633	43.4
844.803	36.65
844.973	36.78
845.144	38.84
845.314	38.49
845.484	52.39
845.654	55.31
845.824	48.44
845.995	35.14
846.165	32.16
846.335	17.43
846.505	24.33
846.675	22.62
846.845	22.18
847.015	24.2
847.185	25.44
847.355	27.52
847.525	27.7
847.695	25.92
847.865	33.34
848.035	33.43
848.205	36.99
848.375	42.63
848.545	29.58
848.715	20.24
848.884	23.23
849.054	29.4
849.224	20.9
849.394	17.93
849.564	18.93
849.733	24.75
849.903	34.99
850.073	50.05
850.243	39.83
850.412	65.57
850.582	81.88
850.752	92.73
850.921	70.44
851.091	71.04
851.26	91.2
851.43	86.76
851.599	90.94
851.769	112.23
851.939	109.4
852.108	78.16
852.278	69.97
852.447	62.53
852.616	61.98
852.786	69.6
852.955	65.82
853.125	46.31
853.294	44.74
853.463	47.31
853.633	44.37
853.802	42.53
853.971	56.85
854.141	34.26
854.31	22.63
854.479	21.49
854.648	10.57
854.818	24.37
854.987	17.02
855.156	9.23
855.325	-4.69
855.494	-1.04
855.663	5.86
855.832	-4.68
856.001	13.32
856.171	17.13
856.34	31.1
856.509	40.38
856.678	30.01
856.847	30
857.016	47.34
857.185	65.21
857.353	45.19
857.522	27.44
857.691	33.82
857.86	39.8
858.029	-18.42
858.198	-352.16
858.367	-143.03
858.535	-134.78
858.704	-57.31
858.873	-1.25
859.042	-1.27
859.21	44.11
859.379	52.38
859.548	69.18
859.717	57.69
859.885	68.98
860.054	85.41
860.222	77.48
860.391	78.83
860.56	86.67
860.728	86.93
860.897	92.58
861.065	106.79
861.234	91.97
861.402	63.8
861.571	67.75
861.739	102.87
861.908	89.35
862.076	106.4
862.244	117.75
862.413	89.95
862.581	84.14
862.749	102.62
862.918	79.39
863.086	76.61
863.254	94.73
863.423	95.46
863.591	80.57
863.759	86.99
863.927	88.77
864.096	82.23
864.264	70.98
864.432	79.68
864.6	78.15
864.768	73.26
864.936	78.77
865.104	60.33
865.272	36.63
865.44	13.03
865.608	-7.26
865.776	-52.09
865.944	4.07
866.112	-1.41
866.28	-12.1
866.448	-35.31
866.616	-6.23
866.784	14.53
866.952	27.86
867.12	62.16
867.288	71.86
867.455	88.09
867.623	33.01
867.791	38.7
867.959	40.59
868.127	5.93
868.294	28.47
868.462	18.21
868.63	26.41
868.797	28.49
868.965	30.26
869.133	30.49
869.3	43.62
869.468	88.17
869.636	42.23
869.803	27.93
869.971	50.42
870.138	36.79
870.306	23.15
870.473	9.49
870.641	0.6
870.808	-31.54
870.975	-8.39
871.143	-39.32
871.31	-83.88
871.478	-8.8
871.645	-3.22
871.812	14.53
871.98	53.02
872.147	60.74
872.314	57.87
872.482	59.46
872.649	66.77
872.816	69.83
872.983	71.19
873.15	61.25
873.318	60.94
873.485	86.55
873.652	100.6
873.819	82.56
873.986	88.14
874.153	98.88
874.32	84.86
874.487	79.21
874.654	68.87
874.821	65.27
874.988	67.45
875.155	73.93
875.322	56.24
875.489	43.66
875.656	32.98
875.823	-0.71
875.99	-16.51
876.157	-34.42
876.324	-60.19
876.49	-71.93
876.657	-83.31
876.824	-43.8
876.991	-161.41
877.157	-100.55
877.324	-323.38
877.491	-139.37
877.658	-68.18
877.824	7.55
877.991	33.42
878.157	26.16
878.324	42.59
878.491	29.56
878.657	15.8
878.824	27.63
878.99	39.3
879.157	45.78
879.323	36.48
879.49	35.84
879.656	31.05
879.823	20.12
879.989	9.67
880.156	25.61
880.322	33.88
880.488	23.83
880.655	17.69
880.821	22.56
880.987	19.38
881.154	22.15
881.32	29.68
881.486	26.55
881.652	32.82
881.819	40.32
881.985	28.78
882.151	28.65
882.317	32.78
882.483	37.07
882.649	32.05
882.816	29.28
882.982	30.11
883.148	25.41
883.314	30.07
883.48	31.59
883.646	32.5
883.812	33.85
883.978	36.02
884.144	33.4
884.31	33.82
884.476	32.44
884.642	34.31
884.807	35.93
884.973	35.68
885.139	35.93
885.305	35.77
885.471	38.32
885.637	43.14
885.802	44.63
885.968	47.53
886.134	47.05
886.3	51.35
886.465	50.37
886.631	48.66
886.797	54.85
886.962	51.42
887.128	49.28
887.293	50.11
887.459	32.3
887.625	9.7
887.79	19.37
887.956	13.55
888.121	7.95
888.287	12.39
888.452	8.26
888.618	-10.9
888.783	-46.04
