Data from 2938091_Reflection_1.txt Node
Date: Sat Jul 11 19:16:49 EDT 2015
User: robert
Spectrometer: USB4E03001
Autoset integration time: false
Trigger mode: 4
Integration Time (sec): 1.000000E-1
Scans to average: 10
Electric dark correction enabled: true
Nonlinearity correction enabled: false
Boxcar width: 5
Stray light correction enabled: false
XAxis mode: Wavelengths
Stop averaging: false
Number of Pixels in Spectrum: 3648
>>>>>Begin Spectral Data<<<<<
177.566	53.09
177.785	47.14
178.005	89.05
178.225	92.36
178.445	39.7
178.665	48.53
178.885	10.79
179.105	32.07
179.324	31.49
179.544	16.02
179.764	36.83
179.984	28.65
180.204	29.66
180.423	67.5
180.643	40.34
180.863	13.84
181.083	3
181.302	-6.76
181.522	-295.31
181.742	-102.01
181.961	-75.29
182.181	-116.43
182.401	15.5
182.621	-0.8
182.84	-8.18
183.06	3.96
183.279	5.09
183.499	19.15
183.719	28.53
183.938	57.17
184.158	53.8
184.377	74.96
184.597	36.12
184.816	36.48
185.036	29.33
185.256	32.31
185.475	46.63
185.695	37.31
185.914	27.58
186.134	20.95
186.353	14.26
186.572	20.06
186.792	-3.07
187.011	36.13
187.231	22.7
187.45	22.87
187.67	49.33
187.889	21.6
188.108	35.95
188.328	44.57
188.547	24.42
188.766	2.19
188.986	-11.37
189.205	22.46
189.424	-0.4
189.644	1.71
189.863	19.39
190.082	-21.89
190.302	-16.58
190.521	-39.58
190.74	-19.65
190.959	-12.49
191.178	-46.97
191.398	-69.63
191.617	-51.57
191.836	-18.3
192.055	-6.67
192.274	-27.66
192.494	-31.23
192.713	-27.83
192.932	-16.28
193.151	-84.11
193.37	-64.46
193.589	0.6
193.808	-19.09
194.027	-33.26
194.246	-9410.2
194.465	896.8
194.685	252.16
194.904	571.91
195.123	665.14
195.342	392.6
195.561	-504.81
195.78	-322.85
195.999	-440.96
196.218	-235.27
196.436	-264.95
196.655	-188.93
196.874	-122.51
197.093	-79.53
197.312	-145.07
197.531	-196.24
197.75	-134.59
197.969	-261.07
198.188	-323.15
198.407	-1640.8
198.625	-1176.23
198.844	-311.38
199.063	-267.17
199.282	-199.39
199.501	-337.27
199.719	-46.8
199.938	-38.99
200.157	-70.05
200.376	-18.39
200.594	-1.73
200.813	-0.98
201.032	0.11
201.251	11.96
201.469	5.68
201.688	-6.17
201.907	-0.17
202.125	-31.98
202.344	-26.73
202.563	-34.84
202.781	-58.86
203	-66.89
203.218	-81.25
203.437	-112.11
203.656	-133.52
203.874	-78.5
204.093	-96.75
204.311	-57.14
204.53	-57.16
204.748	-101.09
204.967	-58.66
205.185	-41.11
205.404	-31.63
205.622	15.46
205.841	34.3
206.059	53.87
206.278	-16.5
206.496	-18.54
206.715	-24.3
206.933	-10.87
207.151	4.35
207.37	12.3
207.588	7.83
207.806	6.99
208.025	16.82
208.243	19.45
208.461	-3.67
208.68	20.7
208.898	25.6
209.116	22.07
209.335	12.78
209.553	12.87
209.771	-9.7
209.989	-21.64
210.208	-68.02
210.426	-870.82
210.644	-2494.03
210.862	-145.68
211.081	-182.13
211.299	-167.08
211.517	-151.09
211.735	-281.81
211.953	-375.05
212.171	-306.01
212.39	-350.66
212.608	-228.68
212.826	-182
213.044	-143.07
213.262	-122.62
213.48	-205.74
213.698	2250
213.916	-245.55
214.134	-49.91
214.352	-51.33
214.57	-26.8
214.788	-0.82
215.006	-9.42
215.224	-29.9
215.442	-25.45
215.66	-22.54
215.878	-19.26
216.096	-11.27
216.314	-28.78
216.532	-44.11
216.75	-65.35
216.968	-80.6
217.185	-48.6
217.403	-41.75
217.621	-54.46
217.839	-34.02
218.057	-28.58
218.275	-37.91
218.492	-66.59
218.71	-63.24
218.928	-73.31
219.146	-66.75
219.363	-36.76
219.581	-55.84
219.799	-36.73
220.017	-46.22
220.234	-74.54
220.452	-103.95
220.67	-40.11
220.887	-28.56
221.105	-53.49
221.323	-14.71
221.54	-50.73
221.758	-77.77
221.976	-173.88
222.193	-1392.97
222.411	-169.59
222.629	-247.46
222.846	-166.49
223.064	-140.66
223.281	-93.83
223.499	-74.62
223.716	-86.46
223.934	-50.56
224.151	-28.16
224.369	-8.63
224.586	-2.28
224.804	3.08
225.021	14.48
225.239	0.23
225.456	-14.47
225.674	-9.57
225.891	-14.73
226.108	-15.78
226.326	-23.15
226.543	-28.99
226.76	-34.17
226.978	-28.89
227.195	-25.37
227.413	-27.6
227.63	-13.02
227.847	-4.34
228.064	0.86
228.282	6.46
228.499	10.99
228.716	13.3
228.934	11.37
229.151	15.1
229.368	15.15
229.585	13.11
229.802	12.12
230.02	10.07
230.237	8.69
230.454	5.39
230.671	1.22
230.888	-3.58
231.105	-3.65
231.323	-1.66
231.54	-7.54
231.757	-7.66
231.974	-3.13
232.191	-4.21
232.408	-2.15
232.625	-6.9
232.842	-6.2
233.059	-3.52
233.276	-2.01
233.493	-2.35
233.71	-10.35
233.927	-11.06
234.144	-15.11
234.361	-25.79
234.578	-28.66
234.795	-27.51
235.012	-24.67
235.229	-20.53
235.446	-15.39
235.663	-17.26
235.879	-18.79
236.096	-15.65
236.313	-13.59
236.53	-13.31
236.747	-0.06
236.964	2.09
237.181	10.41
237.397	12.55
237.614	13.11
237.831	14.15
238.048	21.9
238.264	22.06
238.481	18.51
238.698	20.9
238.915	22.11
239.131	20.59
239.348	15.39
239.565	11.81
239.781	9.72
239.998	11.18
240.215	5.62
240.431	-3.13
240.648	-6.21
240.865	-1.41
241.081	1.12
241.298	4.51
241.514	2.79
241.731	4.42
241.947	1.59
242.164	4.86
242.38	2.52
242.597	5.17
242.814	8.09
243.03	9.2
243.246	10.59
243.463	9.21
243.679	8.9
243.896	7.5
244.112	6.39
244.329	7.53
244.545	5.45
244.762	6.78
244.978	4.78
245.194	2.06
245.411	2.6
245.627	2.44
245.843	1.66
246.06	1.11
246.276	3.32
246.492	4.76
246.709	5.66
246.925	6.15
247.141	6.75
247.357	7.68
247.574	8.06
247.79	8.3
248.006	8.29
248.222	9.42
248.439	9.42
248.655	7.92
248.871	7.09
249.087	6.92
249.303	6.7
249.519	4.59
249.736	2.37
249.952	0.75
250.168	-2.35
250.384	-4.4
250.6	-6.88
250.816	-6.61
251.032	-3.83
251.248	-4.02
251.464	-3.75
251.68	-4.42
251.896	-2.92
252.112	-3.23
252.328	0.48
252.544	-0.02
252.76	-0.35
252.976	0.73
253.192	0.68
253.408	-0.04
253.624	1.05
253.84	-0.72
254.056	0.54
254.272	2.54
254.487	6.12
254.703	5.82
254.919	10.19
255.135	9.95
255.351	10.28
255.567	8.6
255.782	5.31
255.998	1.29
256.214	0.94
256.43	-2.46
256.646	-7.6
256.861	-7.63
257.077	-9.71
257.293	-8.83
257.508	-6.67
257.724	-6.31
257.94	-6.42
258.155	-3.91
258.371	0.25
258.587	0.55
258.802	1.99
259.018	3.98
259.234	3.38
259.449	3.84
259.665	4
259.88	4.82
260.096	3.97
260.312	5.47
260.527	6.07
260.743	5.89
260.958	5.94
261.174	6.51
261.389	7.04
261.605	7.62
261.82	7.81
262.036	9.03
262.251	8.42
262.466	9.61
262.682	8.02
262.897	7.56
263.113	7.33
263.328	8.15
263.543	7.58
263.759	5.95
263.974	4.94
264.189	3.6
264.405	1.83
264.62	2.87
264.835	2.21
265.051	2.1
265.266	3.77
265.481	4.31
265.696	5.01
265.912	6.03
266.127	5.36
266.342	7.42
266.557	8.4
266.773	7.64
266.988	7.18
267.203	7.44
267.418	9.69
267.633	8.67
267.848	9.28
268.064	6.58
268.279	6.91
268.494	5.82
268.709	4.01
268.924	2.87
269.139	3.88
269.354	4.75
269.569	5.54
269.784	3.28
269.999	3.64
270.214	5.07
270.429	7.05
270.644	6.7
270.859	8.37
271.074	8.42
271.289	9.24
271.504	8.52
271.719	9.09
271.934	9.55
272.149	11.07
272.363	11.48
272.578	9.81
272.793	10.22
273.008	9.12
273.223	9.04
273.438	7.66
273.653	6.91
273.867	6.48
274.082	3.83
274.297	3.08
274.512	2.6
274.726	1.73
274.941	1.48
275.156	0.6
275.371	1.5
275.585	0.73
275.8	2.01
276.015	3.73
276.229	4.58
276.444	5.57
276.659	4.45
276.873	4.09
277.088	3.39
277.302	3.4
277.517	5.17
277.732	5.25
277.946	4.81
278.161	5.44
278.375	4.16
278.59	4.54
278.804	4.35
279.019	4.25
279.233	4.45
279.448	2.91
279.662	3.62
279.877	2.77
280.091	1.24
280.306	2.25
280.52	3.26
280.735	3.22
280.949	3.53
281.163	2.71
281.378	3.55
281.592	2.48
281.806	3.75
282.021	2.21
282.235	1.59
282.449	3.13
282.664	3.07
282.878	2.56
283.092	3.06
283.307	1.83
283.521	2.73
283.735	2.5
283.949	2.38
284.164	4.11
284.378	5.29
284.592	5.81
284.806	4.59
285.02	5.34
285.234	5.66
285.449	5.77
285.663	6.27
285.877	7.47
286.091	8.44
286.305	7.4
286.519	8
286.733	8.75
286.947	8.2
287.161	9.14
287.375	9.24
287.589	9.28
287.803	9.68
288.017	9.78
288.231	9.46
288.445	8.87
288.659	10.49
288.873	7.9
289.087	6.46
289.301	7.27
289.515	7.91
289.729	8.03
289.943	7.63
290.157	6.91
290.371	7.53
290.584	6.37
290.798	5.86
291.012	5.55
291.226	6.25
291.44	6.02
291.654	6.22
291.867	5.17
292.081	3.3
292.295	2.17
292.509	2.45
292.722	0.75
292.936	1.49
293.15	1.38
293.364	-0.79
293.577	0.16
293.791	1.07
294.005	0.18
294.218	0.67
294.432	1.83
294.645	4.43
294.859	4.39
295.073	6.2
295.286	5.21
295.5	4.57
295.713	6.76
295.927	7.24
296.14	7.09
296.354	7.83
296.568	8.32
296.781	7.56
296.994	5.98
297.208	6.59
297.421	6.7
297.635	8.12
297.848	9.51
298.062	9.48
298.275	8.44
298.489	8.77
298.702	8.99
298.915	8.36
299.129	8.91
299.342	11.21
299.555	10.44
299.769	9.93
299.982	10.34
300.195	9.98
300.409	8.66
300.622	8.55
300.835	7.8
301.048	7.64
301.262	7.89
301.475	8.3
301.688	8.3
301.901	8.86
302.115	8.84
302.328	6.6
302.541	7.07
302.754	9.37
302.967	10.4
303.18	12.88
303.393	12.89
303.607	13.17
303.82	13.48
304.033	12.12
304.246	11.96
304.459	11.66
304.672	11.77
304.885	11.18
305.098	9.5
305.311	8.83
305.524	6.7
305.737	6.2
305.95	5.22
306.163	4.83
306.376	5.12
306.589	4.71
306.802	5.46
307.015	6.7
307.228	7.28
307.44	7.98
307.653	8.56
307.866	7.6
308.079	7.47
308.292	8.43
308.505	8.22
308.718	7.33
308.93	8.43
309.143	6.21
309.356	6.19
309.569	3.7
309.781	5.33
309.994	5.12
310.207	7.65
310.42	7.4
310.632	8.79
310.845	10.52
311.058	12.4
311.27	10.86
311.483	11.75
311.696	11
311.908	12.21
312.121	11.79
312.333	11.14
312.546	11.02
312.759	12.56
312.971	10.92
313.184	10.89
313.396	9.58
313.609	11.47
313.821	11.84
314.034	12.83
314.246	14.23
314.459	14.45
314.671	15.3
314.884	13.17
315.096	12.54
315.309	12.31
315.521	9.95
315.733	7.38
315.946	7.43
316.158	7.77
316.371	7.82
316.583	5.88
316.795	4.24
317.008	4.69
317.22	6.12
317.432	5.43
317.644	6.31
317.857	5.73
318.069	7.48
318.281	7.01
318.494	5.11
318.706	5.13
318.918	6.43
319.13	6.58
319.342	6.28
319.555	3.77
319.767	3.06
319.979	2.07
320.191	3.61
320.403	3.13
320.615	0.22
320.827	2.02
321.039	-0.11
321.252	-0.78
321.464	1.58
321.676	2.11
321.888	3.49
322.1	3.22
322.312	2.78
322.524	2.45
322.736	3.33
322.948	3.53
323.16	2.77
323.372	3.99
323.584	3.38
323.796	0.23
324.007	-0.52
324.219	-1.18
324.431	-2.16
324.643	-1.3
324.855	-1.78
325.067	-1.37
325.279	0.47
325.491	1.84
325.702	2.34
325.914	4.21
326.126	5.7
326.338	5.65
326.55	6.14
326.761	8.61
326.973	9.68
327.185	10.75
327.396	10.31
327.608	10.22
327.82	9.02
328.032	8.34
328.243	6.42
328.455	6.03
328.666	6.65
328.878	6.1
329.09	3.88
329.301	0.9
329.513	0.03
329.725	0.62
329.936	-0.75
330.148	0.49
330.359	1.79
330.571	2.13
330.782	1.65
330.994	1.44
331.205	2.36
331.417	3.32
331.628	5.15
331.84	5.13
332.051	3.22
332.262	3.8
332.474	3.8
332.685	2.73
332.897	3.72
333.108	5.38
333.319	5.7
333.531	7.18
333.742	9.11
333.953	7.44
334.165	9.03
334.376	10.3
334.587	10.46
334.799	10.26
335.01	9.92
335.221	9.47
335.432	7.13
335.644	7.44
335.855	6.79
336.066	5.18
336.277	6.21
336.488	5.36
336.7	5.37
336.911	5.73
337.122	5.6
337.333	6.34
337.544	6.31
337.755	8.13
337.966	8.51
338.177	7.81
338.388	7.39
338.599	7.23
338.811	6.91
339.022	7.19
339.233	7.33
339.444	6.09
339.655	5.93
339.866	5.72
340.076	5.05
340.287	3.83
340.498	2.88
340.709	2.86
340.92	2.45
341.131	3.54
341.342	2.76
341.553	2.88
341.764	4.38
341.975	4.04
342.185	4.32
342.396	4.01
342.607	4.09
342.818	6.55
343.029	8.42
343.239	8.57
343.45	8.28
343.661	9.76
343.872	9.79
344.082	9.59
344.293	9.28
344.504	9.94
344.714	10.15
344.925	11.13
345.136	8.49
345.346	6.65
345.557	7.34
345.768	6.51
345.978	5.39
346.189	6.39
346.399	6.97
346.61	7.35
346.821	7.95
347.031	9.47
347.242	9.57
347.452	10.72
347.663	11.62
347.873	10.27
348.084	10.8
348.294	10.68
348.504	7.55
348.715	6.52
348.925	6.64
349.136	4.83
349.346	4.28
349.557	4.33
349.767	4.62
349.977	4.75
350.188	4.38
350.398	5.3
350.608	4.72
350.819	5.97
351.029	6.67
351.239	7.4
351.449	8.26
351.66	8.28
351.87	7.46
352.08	6.85
352.29	5.38
352.501	7.35
352.711	5.96
352.921	6.73
353.131	6.64
353.341	5.51
353.552	5.11
353.762	3.47
353.972	2.46
354.182	2.74
354.392	3.02
354.602	3.68
354.812	3.71
355.022	4.14
355.232	4.81
355.442	5.85
355.652	5.82
355.862	6.67
356.072	7.09
356.282	7.74
356.492	7.31
356.702	8.05
356.912	8.47
357.122	7.68
357.332	7.27
357.542	5.47
357.752	5.2
357.962	5.53
358.171	4.04
358.381	5.68
358.591	5.16
358.801	5.39
359.011	4.44
359.221	4.81
359.43	5.3
359.64	5.7
359.85	7.51
360.06	7.1
360.269	7.78
360.479	8.42
360.689	7.37
360.899	7.22
361.108	6.82
361.318	7.39
361.528	6.83
361.737	6.82
361.947	6.87
362.156	6.22
362.366	5.77
362.576	4.96
362.785	5.03
362.995	5.35
363.204	5.6
363.414	5.42
363.623	4.79
363.833	4.82
364.042	4.33
364.252	3.38
364.461	2.26
364.671	2.69
364.88	3.35
365.09	2.8
365.299	2.39
365.509	2.67
365.718	3.72
365.927	4.03
366.137	4.23
366.346	4.64
366.555	4.97
366.765	6.13
366.974	5.97
367.183	5.69
367.393	5.48
367.602	5.55
367.811	5.02
368.021	3.75
368.23	3.34
368.439	3.26
368.648	3.16
368.857	4.25
369.067	5.11
369.276	5.7
369.485	5.46
369.694	5.26
369.903	5.38
370.112	5.1
370.321	5.67
370.531	6.63
370.74	6.27
370.949	6.33
371.158	5.75
371.367	4.96
371.576	4.71
371.785	5.48
371.994	5.73
372.203	5.52
372.412	6.05
372.621	5.59
372.83	4.58
373.039	5.55
373.248	6.08
373.457	5.9
373.666	5.27
373.874	4.79
374.083	3.6
374.292	3.73
374.501	4.39
374.71	3.22
374.919	4.4
375.128	4.97
375.336	3.81
375.545	3.54
375.754	3.95
375.963	4.38
376.171	4.35
376.38	3.87
376.589	3.32
376.798	2.77
377.006	3.53
377.215	2.86
377.424	2.34
377.632	2.94
377.841	2.66
378.05	2.54
378.258	3.08
378.467	2.9
378.675	3.71
378.884	3.61
379.093	3.74
379.301	3.98
379.51	3.79
379.718	3.85
379.927	3.19
380.135	2.88
380.344	1.75
380.552	0.09
380.761	0.26
380.969	0.19
381.177	0.39
381.386	0.69
381.594	0.54
381.803	1.07
382.011	1.2
382.219	1.67
382.428	2.36
382.636	3.18
382.845	4.24
383.053	4.64
383.261	4.35
383.469	4.24
383.678	3.62
383.886	3.97
384.094	4.04
384.302	4.47
384.511	4.39
384.719	3.92
384.927	3.96
385.135	3.83
385.343	3.48
385.552	4.32
385.76	4.67
385.968	4.87
386.176	4.23
386.384	3.7
386.592	3.25
386.8	2.95
387.008	2.91
387.216	2.74
387.424	2.89
387.633	2.86
387.841	2.28
388.049	2.56
388.257	2.48
388.465	2.64
388.672	2.53
388.88	2.38
389.088	3.14
389.296	2.82
389.504	3.07
389.712	3.1
389.92	3.18
390.128	3.05
390.336	3.16
390.544	3.43
390.751	3.22
390.959	3.35
391.167	3.41
391.375	2.65
391.583	3.21
391.79	3.16
391.998	3.24
392.206	3.34
392.414	3.63
392.621	3.4
392.829	3.07
393.037	3.15
393.244	3.22
393.452	3.44
393.66	3.76
393.867	3.55
394.075	3.57
394.283	3.19
394.49	3.54
394.698	3.27
394.905	2.99
395.113	3.16
395.32	2.88
395.528	2.97
395.735	3.04
395.943	3.13
396.15	2.98
396.358	2.96
396.565	3.05
396.773	2.53
396.98	2.79
397.188	3.05
397.395	3.1
397.602	3.61
397.81	3.18
398.017	2.63
398.225	2.07
398.432	2.19
398.639	2.13
398.847	2.31
399.054	2.34
399.261	2.11
399.468	2.08
399.676	1.67
399.883	1.54
400.09	1.64
400.297	1.76
400.505	2.06
400.712	2.08
400.919	1.58
401.126	1.76
401.333	1.86
401.54	1.94
401.748	1.68
401.955	2.02
402.162	1.93
402.369	2.2
402.576	2.47
402.783	2.91
402.99	2.74
403.197	2.52
403.404	2.09
403.611	2.23
403.818	2.07
404.025	2.3
404.232	2.25
404.439	2.05
404.646	1.99
404.853	1.72
405.06	1.54
405.267	1.72
405.474	2.31
405.681	2.47
405.887	2.14
406.094	2.2
406.301	1.94
406.508	1.86
406.715	1.71
406.922	1.65
407.128	1.69
407.335	1.68
407.542	1.63
407.749	1.53
407.955	1.48
408.162	1.58
408.369	1.44
408.575	1.62
408.782	1.59
408.989	1.86
409.195	1.49
409.402	1.54
409.609	1.47
409.815	1.42
410.022	1.32
410.228	1.13
410.435	1.32
410.642	1.7
410.848	1.79
411.055	1.76
411.261	1.85
411.468	2.2
411.674	2.44
411.881	2.21
412.087	1.85
412.294	1.77
412.5	1.72
412.706	1.72
412.913	2.01
413.119	1.71
413.326	1.85
413.532	2
413.738	1.5
413.945	1.35
414.151	1.5
414.357	1.74
414.564	2.05
414.77	2.46
414.976	2.45
415.182	1.81
415.389	1.73
415.595	1.79
415.801	1.73
416.007	2.08
416.214	2.13
416.42	1.95
416.626	2.06
416.832	1.99
417.038	1.76
417.244	1.74
417.45	1.81
417.657	2.11
417.863	2.01
418.069	2.24
418.275	2.36
418.481	2.45
418.687	2.42
418.893	2.39
419.099	2.42
419.305	2.31
419.511	2.19
419.717	2.28
419.923	2.27
420.129	2.26
420.335	2.13
420.541	1.92
420.746	1.97
420.952	2
421.158	2.01
421.364	1.98
421.57	2.14
421.776	2.23
421.982	2.19
422.187	2.1
422.393	2.04
422.599	2
422.805	2.06
423.01	2.02
423.216	2.05
423.422	1.98
423.628	1.91
423.833	2.03
424.039	1.98
424.245	2.07
424.45	2.12
424.656	2.16
424.862	2.23
425.067	2.4
425.273	2.31
425.478	2.33
425.684	2.37
425.889	2.41
426.095	2.34
426.301	2.29
426.506	2.18
426.712	2.18
426.917	2.1
427.123	1.91
427.328	1.68
427.533	1.48
427.739	1.43
427.944	1.41
428.15	1.55
428.355	1.2
428.561	1.33
428.766	1.17
428.971	1.22
429.177	1.5
429.382	1.52
429.587	1.49
429.793	1.54
429.998	1.56
430.203	1.71
430.408	1.53
430.614	1.69
430.819	1.66
431.024	1.56
431.229	1.62
431.434	1.61
431.64	1.45
431.845	1.66
432.05	1.81
432.255	1.88
432.46	1.92
432.665	2.01
432.87	2.02
433.076	2.08
433.281	2.13
433.486	2.04
433.691	1.86
433.896	2
434.101	1.98
434.306	1.87
434.511	1.79
434.716	1.64
434.921	1.51
435.126	1.57
435.331	1.42
435.535	1.31
435.74	1.39
435.945	1.2
436.15	1.12
436.355	1.22
436.56	1.19
436.765	0.98
436.97	1.01
437.174	1.08
437.379	1.06
437.584	1.1
437.789	1.25
437.993	1.05
438.198	1.35
438.403	1.35
438.608	1.01
438.812	0.91
439.017	0.89
439.222	1.08
439.426	1.04
439.631	1.08
439.836	1.24
440.04	1.34
440.245	1.35
440.45	1.45
440.654	1.43
440.859	1.69
441.063	1.81
441.268	2.08
441.472	1.9
441.677	2
441.881	2.06
442.086	1.89
442.29	1.86
442.495	2
442.699	1.92
442.904	1.95
443.108	1.88
443.312	1.85
443.517	1.77
443.721	1.76
443.925	1.73
444.13	1.54
444.334	1.66
444.538	1.6
444.743	1.56
444.947	1.57
445.151	1.6
445.356	1.48
445.56	1.61
445.764	1.7
445.968	1.74
446.173	1.71
446.377	1.79
446.581	1.75
446.785	1.69
446.989	1.71
447.193	1.64
447.398	1.79
447.602	1.81
447.806	1.72
448.01	1.73
448.214	1.71
448.418	1.63
448.622	1.61
448.826	1.56
449.03	1.62
449.234	1.45
449.438	1.49
449.642	1.43
449.846	1.68
450.05	1.59
450.254	1.38
450.458	1.43
450.662	1.46
450.866	1.3
451.069	1.21
451.273	1.24
451.477	1.54
451.681	1.55
451.885	1.37
452.089	1.04
452.292	1.25
452.496	1.32
452.7	1.4
452.904	1.42
453.107	1.56
453.311	1.67
453.515	1.45
453.719	1.2
453.922	1.12
454.126	1.09
454.33	1.15
454.533	1
454.737	0.85
454.94	0.78
455.144	0.84
455.348	0.76
455.551	0.87
455.755	1.11
455.958	1.25
456.162	1.42
456.365	1.52
456.569	1.64
456.772	1.72
456.976	1.7
457.179	1.76
457.383	1.72
457.586	1.84
457.79	1.76
457.993	1.82
458.196	1.68
458.4	1.6
458.603	1.61
458.807	1.66
459.01	1.73
459.213	1.76
459.417	1.68
459.62	1.61
459.823	1.59
460.026	1.57
460.23	1.48
460.433	1.6
460.636	1.61
460.839	1.6
461.042	1.54
461.246	1.4
461.449	1.42
461.652	1.42
461.855	1.64
462.058	1.73
462.261	1.78
462.464	1.92
462.668	1.9
462.871	1.79
463.074	1.66
463.277	1.72
463.48	1.8
463.683	1.71
463.886	1.85
464.089	1.71
464.292	1.49
464.495	1.29
464.698	1.32
464.901	1.27
465.104	1.6
465.306	1.74
465.509	1.7
465.712	1.8
465.915	1.89
466.118	1.62
466.321	1.49
466.524	1.59
466.726	1.73
466.929	1.69
467.132	1.72
467.335	1.41
467.538	1.33
467.74	1.36
467.943	1.28
468.146	1.39
468.348	1.53
468.551	1.59
468.754	1.38
468.956	1.25
469.159	1.31
469.362	1.29
469.564	1.17
469.767	1.11
469.969	1.11
470.172	1.06
470.375	0.94
470.577	0.7
470.78	0.87
470.982	1.16
471.185	1.06
471.387	0.9
471.59	0.94
471.792	1.28
471.995	1.47
472.197	1.39
472.399	1.26
472.602	1.24
472.804	1.29
473.007	0.99
473.209	0.81
473.411	0.93
473.614	0.87
473.816	0.71
474.018	0.74
474.22	0.72
474.423	0.75
474.625	0.85
474.827	0.92
475.03	1.04
475.232	1.22
475.434	1.21
475.636	1.36
475.838	1.44
476.04	1.49
476.243	1.47
476.445	1.51
476.647	1.54
476.849	1.58
477.051	1.5
477.253	1.63
477.455	1.53
477.657	1.71
477.859	1.66
478.061	1.67
478.263	1.73
478.465	1.65
478.667	1.62
478.869	1.72
479.071	1.7
479.273	1.65
479.475	1.68
479.677	1.78
479.879	1.71
480.081	1.82
480.283	1.87
480.485	1.89
480.686	1.72
480.888	1.67
481.09	1.47
481.292	1.5
481.494	1.69
481.695	1.62
481.897	1.6
482.099	1.64
482.301	1.45
482.502	1.42
482.704	1.45
482.906	1.6
483.107	1.69
483.309	1.72
483.511	1.74
483.712	1.72
483.914	1.69
484.115	1.71
484.317	1.73
484.519	1.75
484.72	1.78
484.922	1.75
485.123	1.71
485.325	1.59
485.526	1.61
485.728	1.58
485.929	1.58
486.131	1.57
486.332	1.56
486.534	1.48
486.735	1.53
486.936	1.53
487.138	1.56
487.339	1.55
487.541	1.66
487.742	1.61
487.943	1.58
488.144	1.6
488.346	1.62
488.547	1.61
488.748	1.63
488.95	1.66
489.151	1.65
489.352	1.58
489.553	1.55
489.755	1.54
489.956	1.56
490.157	1.61
490.358	1.53
490.559	1.55
490.76	1.53
490.961	1.56
491.163	1.59
491.364	1.61
491.565	1.65
491.766	1.71
491.967	1.66
492.168	1.73
492.369	1.67
492.57	1.75
492.771	1.71
492.972	1.71
493.173	1.62
493.374	1.53
493.575	1.51
493.776	1.62
493.976	1.62
494.177	1.64
494.378	1.57
494.579	1.58
494.78	1.51
494.981	1.61
495.182	1.54
495.382	1.46
495.583	1.47
495.784	1.34
495.985	1.21
496.185	1.22
496.386	1.13
496.587	1.06
496.788	1.1
496.988	1.16
497.189	1.07
497.39	1.31
497.59	1.4
497.791	1.39
497.992	1.42
498.192	1.45
498.393	1.45
498.593	1.48
498.794	1.48
498.994	1.55
499.195	1.43
499.395	1.51
499.596	1.36
499.796	1.32
499.997	1.38
500.197	1.39
500.398	1.45
500.598	1.27
500.799	1.34
500.999	1.54
501.199	1.64
501.4	1.74
501.6	1.67
501.801	1.7
502.001	1.79
502.201	1.75
502.402	1.82
502.602	1.85
502.802	1.99
503.002	1.98
503.203	1.81
503.403	1.78
503.603	1.62
503.803	1.65
504.003	1.53
504.204	1.58
504.404	1.73
504.604	1.5
504.804	1.36
505.004	1.37
505.204	1.24
505.404	1.4
505.604	1.21
505.804	1.33
506.005	1.31
506.205	1.37
506.405	1.26
506.605	1.1
506.805	1.29
507.005	1.28
507.204	1.32
507.404	1.44
507.604	1.35
507.804	1.34
508.004	1.38
508.204	1.33
508.404	1.31
508.604	1.44
508.804	1.41
509.003	1.48
509.203	1.51
509.403	1.48
509.603	1.47
509.803	1.54
510.002	1.61
510.202	1.68
510.402	1.88
510.602	2.1
510.801	2.1
511.001	2.29
511.201	2.17
511.4	2.26
511.6	2.27
511.8	2.19
511.999	2.18
512.199	2.11
512.398	1.92
512.598	1.66
512.797	1.66
512.997	1.66
513.197	1.55
513.396	1.68
513.596	1.46
513.795	1.27
513.994	1.33
514.194	1.15
514.393	1.09
514.593	1.38
514.792	1.37
514.992	1.14
515.191	1.04
515.39	1.05
515.59	1.03
515.789	1.24
515.988	1.56
516.188	1.59
516.387	1.76
516.586	1.94
516.786	1.82
516.985	1.97
517.184	1.92
517.383	1.97
517.582	1.97
517.782	2.04
517.981	2.01
518.18	1.93
518.379	1.89
518.578	1.87
518.777	1.96
518.976	2.06
519.176	2.07
519.375	2.21
519.574	2.21
519.773	2.13
519.972	2.06
520.171	2.03
520.37	2.11
520.569	2.02
520.768	2.07
520.967	1.91
521.166	1.69
521.365	1.67
521.564	1.51
521.762	1.5
521.961	1.43
522.16	1.42
522.359	1.5
522.558	1.3
522.757	1.52
522.956	1.5
523.154	1.62
523.353	1.8
523.552	1.86
523.751	1.86
523.949	1.83
524.148	1.98
524.347	2.11
524.546	2.06
524.744	2.16
524.943	2.19
525.142	2.11
525.34	2.11
525.539	2.18
525.737	2.1
525.936	2.14
526.135	2.21
526.333	2.25
526.532	2.29
526.73	2.28
526.929	2.34
527.127	2.35
527.326	2.33
527.524	2.26
527.723	2.25
527.921	2.3
528.12	2.31
528.318	2.32
528.516	2.31
528.715	2.2
528.913	2.23
529.112	2.17
529.31	2.15
529.508	2.21
529.707	2.27
529.905	2.26
530.103	2.3
530.301	2.32
530.5	2.31
530.698	2.3
530.896	2.35
531.094	2.43
531.293	2.47
531.491	2.52
531.689	2.51
531.887	2.52
532.085	2.45
532.283	2.44
532.481	2.43
532.68	2.42
532.878	2.44
533.076	2.46
533.274	2.42
533.472	2.5
533.67	2.54
533.868	2.58
534.066	2.51
534.264	2.5
534.462	2.46
534.66	2.55
534.858	2.57
535.056	2.63
535.253	2.61
535.451	2.66
535.649	2.56
535.847	2.47
536.045	2.55
536.243	2.61
536.441	2.58
536.638	2.69
536.836	2.68
537.034	2.64
537.232	2.59
537.43	2.71
537.627	2.77
537.825	2.84
538.023	2.92
538.22	2.88
538.418	2.85
538.616	2.96
538.813	2.76
539.011	2.71
539.209	2.74
539.406	2.7
539.604	2.75
539.801	2.64
539.999	2.68
540.196	2.75
540.394	2.75
540.591	2.79
540.789	2.88
540.986	3
541.184	3.06
541.381	3.09
541.579	3.12
541.776	3.06
541.974	3.09
542.171	3.09
542.368	3.01
542.566	3.04
542.763	3.05
542.96	3.1
543.158	3.08
543.355	3.06
543.552	3.06
543.75	3
543.947	2.98
544.144	3
544.341	3.06
544.539	3.15
544.736	3.07
544.933	3.2
545.13	3.1
545.327	3.17
545.524	3.15
545.722	3.27
545.919	3.32
546.116	3.37
546.313	3.37
546.51	3.42
546.707	3.53
546.904	3.67
547.101	3.72
547.298	3.81
547.495	3.76
547.692	3.93
547.889	3.87
548.086	4.09
548.283	4.15
548.48	4.28
548.677	4.25
548.874	4.22
549.07	4.27
549.267	4.18
549.464	4.13
549.661	4.29
549.858	4.18
550.055	4.2
550.251	4.19
550.448	4.36
550.645	4.25
550.842	4.24
551.038	4.13
551.235	4.23
551.432	4.45
551.628	4.57
551.825	4.68
552.022	4.59
552.218	4.6
552.415	4.67
552.612	4.88
552.808	4.94
553.005	5.09
553.201	5.36
553.398	5.29
553.594	5.14
553.791	5.09
553.987	4.96
554.184	5.12
554.38	5.35
554.577	5.25
554.773	5.11
554.97	5.09
555.166	5.07
555.362	4.87
555.559	4.8
555.755	5
555.952	5.06
556.148	5.35
556.344	5.31
556.541	5.18
556.737	5.29
556.933	5.19
557.129	5.41
557.326	5.39
557.522	5.64
557.718	5.77
557.914	5.59
558.11	5.66
558.307	5.55
558.503	5.64
558.699	5.77
558.895	5.91
559.091	6.11
559.287	5.93
559.483	5.85
559.679	5.67
559.876	5.61
560.072	5.58
560.268	5.58
560.464	5.44
560.66	5.52
560.856	5.61
561.052	5.51
561.247	5.35
561.443	5.43
561.639	5.56
561.835	5.53
562.031	5.81
562.227	6.03
562.423	6.07
562.619	6.22
562.815	6.17
563.01	6.09
563.206	6.2
563.402	6.34
563.598	6.52
563.793	6.47
563.989	6.71
564.185	6.57
564.381	6.59
564.576	6.56
564.772	6.58
564.968	6.58
565.163	6.75
565.359	6.75
565.555	6.89
565.75	6.94
565.946	7.03
566.141	7.04
566.337	7.19
566.532	7.05
566.728	7.12
566.923	7.16
567.119	7.48
567.314	7.39
567.51	7.59
567.705	7.48
567.901	7.58
568.096	7.57
568.292	7.62
568.487	7.51
568.682	7.83
568.878	7.83
569.073	8
569.268	7.93
569.464	8
569.659	7.79
569.854	7.92
570.05	7.8
570.245	8.04
570.44	7.92
570.635	8.09
570.831	8.02
571.026	8.06
571.221	8.02
571.416	8.19
571.611	8.31
571.806	8.46
572.002	8.32
572.197	8.42
572.392	8.32
572.587	8.5
572.782	8.5
572.977	8.44
573.172	8.63
573.367	8.64
573.562	8.71
573.757	8.8
573.952	8.82
574.147	8.94
574.342	8.83
574.537	8.92
574.732	8.95
574.927	9.03
575.121	9.16
575.316	9.07
575.511	9.04
575.706	8.78
575.901	8.7
576.096	8.81
576.29	8.81
576.485	8.85
576.68	8.92
576.875	9.21
577.069	9.11
577.264	9.23
577.459	9.23
577.654	9.21
577.848	9.29
578.043	9.31
578.238	9.26
578.432	9.37
578.627	9.28
578.821	9.11
579.016	8.64
579.21	8.58
579.405	8.4
579.6	8.41
579.794	8.6
579.989	8.7
580.183	8.57
580.378	8.37
580.572	8.27
580.766	8.24
580.961	8.35
581.155	8.44
581.35	8.64
581.544	8.9
581.738	8.88
581.933	8.95
582.127	8.97
582.321	9.07
582.516	9.33
582.71	9.33
582.904	9.63
583.099	9.77
583.293	9.85
583.487	9.98
583.681	9.52
583.875	9.49
584.07	9.48
584.264	9.44
584.458	9.64
584.652	9.25
584.846	9.3
585.04	9.27
585.234	9.29
585.428	9.04
585.623	8.94
585.817	9.14
586.011	9.27
586.205	9.03
586.399	8.86
586.593	8.56
586.787	8.73
586.981	8.94
587.174	8.91
587.368	8.94
587.562	9.12
587.756	9.16
587.95	9.43
588.144	9.59
588.338	9.77
588.532	9.93
588.725	10.25
588.919	10.49
589.113	10.3
589.307	10.3
589.501	10.22
589.694	9.94
589.888	9.77
590.082	9.71
590.275	9.72
590.469	9.68
590.663	9.56
590.856	9.36
591.05	9.34
591.244	9.39
591.437	9.55
591.631	9.54
591.824	9.64
592.018	9.82
592.212	9.5
592.405	9.35
592.599	9.33
592.792	9.3
592.986	9.45
593.179	9.27
593.372	9.51
593.566	9.48
593.759	9.25
593.953	9.64
594.146	9.48
594.339	9.89
594.533	9.88
594.726	9.95
594.92	9.69
595.113	9.73
595.306	9.79
595.499	9.85
595.693	9.83
595.886	10.21
596.079	10.22
596.272	10.21
596.466	10.28
596.659	10.35
596.852	10.54
597.045	10.83
597.238	10.72
597.431	10.9
597.624	10.78
597.818	10.73
598.011	10.78
598.204	10.47
598.397	10.71
598.59	10.65
598.783	10.65
598.976	10.65
599.169	10.6
599.362	10.86
599.555	10.6
599.748	10.62
599.941	10.53
600.134	10.46
600.326	10.86
600.519	10.72
600.712	10.48
600.905	10.28
601.098	9.93
601.291	10.18
601.483	10.09
601.676	10.15
601.869	9.97
602.062	10.06
602.255	10.01
602.447	10.03
602.64	9.91
602.833	10.01
603.025	10.28
603.218	10.54
603.411	10.35
603.603	10.33
603.796	10.45
603.989	10.45
604.181	10.85
604.374	10.96
604.566	10.97
604.759	11.26
604.951	11.28
605.144	11.16
605.336	11.19
605.529	11.13
605.721	11.17
605.914	10.94
606.106	11.16
606.299	10.89
606.491	10.63
606.683	10.48
606.876	10.2
607.068	10.13
607.26	10.2
607.453	10.07
607.645	10.35
607.837	10.55
608.03	10.81
608.222	10.62
608.414	10.47
608.606	10.23
608.799	10.21
608.991	10.01
609.183	10.19
609.375	10.07
609.567	9.88
609.759	9.85
609.952	9.75
610.144	9.57
610.336	9.78
610.528	9.76
610.72	10.07
610.912	10.05
611.104	10.21
611.296	10.05
611.488	10.15
611.68	10.43
611.872	10.6
612.064	10.62
612.256	10.69
612.448	10.82
612.64	10.91
612.832	10.9
613.023	11.18
613.215	11.24
613.407	11.24
613.599	11.13
613.791	11.14
613.983	10.99
614.174	10.71
614.366	10.63
614.558	10.21
614.75	10.03
614.941	10.06
615.133	10.02
615.325	9.93
615.516	10.19
615.708	10.22
615.9	9.74
616.091	9.56
616.283	9.79
616.475	10.26
616.666	10.47
616.858	10.64
617.049	10.32
617.241	10.23
617.432	10.49
617.624	10.3
617.815	10.51
618.007	10.78
618.198	10.91
618.39	10.68
618.581	10.45
618.773	10.22
618.964	10.07
619.155	10.61
619.347	10.68
619.538	10.61
619.729	10.46
619.921	10.29
620.112	10.59
620.303	10.66
620.494	10.53
620.686	10.3
620.877	10.54
621.068	10.67
621.259	10.32
621.451	10.2
621.642	9.91
621.833	9.89
622.024	9.78
622.215	9.6
622.406	9.61
622.597	10.06
622.788	10.59
622.98	10.63
623.171	10.58
623.362	10.51
623.553	10.56
623.744	10.47
623.935	10.69
624.126	10.92
624.317	10.77
624.508	10.54
624.698	10.35
624.889	10.09
625.08	10.12
625.271	10.33
625.462	10.44
625.653	10.05
625.844	10.25
626.034	10.39
626.225	10.36
626.416	10.3
626.607	10.56
626.798	10.54
626.988	10.44
627.179	10.47
627.37	10.57
627.56	10.62
627.751	10.75
627.942	11.05
628.132	10.95
628.323	11.02
628.514	11.16
628.704	10.97
628.895	10.95
629.085	10.92
629.276	10.49
629.466	10.28
629.657	10.24
629.847	10.52
630.038	10.13
630.228	9.96
630.419	9.97
630.609	9.88
630.8	9.62
630.99	9.57
631.181	9.82
631.371	10.27
631.561	10.17
631.752	10.12
631.942	10.12
632.132	10.15
632.323	10.4
632.513	10.15
632.703	10.21
632.893	10.47
633.084	10.57
633.274	10.33
633.464	10.22
633.654	10.31
633.844	10.37
634.034	10.31
634.225	10.59
634.415	10.41
634.605	10.45
634.795	10.49
634.985	10.47
635.175	10.47
635.365	10.68
635.555	10.69
635.745	10.64
635.935	10.71
636.125	10.38
636.315	9.97
636.505	10.43
636.695	10.72
636.885	10.17
637.075	10.26
637.265	10.52
637.455	10.91
637.644	10.91
637.834	11.16
638.024	10.79
638.214	10.97
638.404	11.02
638.593	10.58
638.783	10.47
638.973	11.14
639.163	11.31
639.352	10.89
639.542	10.38
639.732	10.26
639.921	10.27
640.111	10.45
640.301	10.71
640.49	11.13
640.68	11.08
640.87	11.15
641.059	11.22
641.249	11.07
641.438	11.11
641.628	11.29
641.817	11.19
642.007	11.16
642.196	11.39
642.386	11.35
642.575	11.05
642.764	11.07
642.954	10.83
643.143	10.53
643.333	10.25
643.522	10.08
643.711	9.4
643.901	9.8
644.09	9.7
644.279	9.62
644.469	9.8
644.658	9.75
644.847	10.06
645.036	10.1
645.226	10.55
645.415	10.46
645.604	10.62
645.793	11
645.982	10.76
646.171	10.54
646.361	10.27
646.55	9.98
646.739	9.96
646.928	9.69
647.117	9.83
647.306	9.34
647.495	9.63
647.684	9.9
647.873	9.76
648.062	9.68
648.251	10.04
648.44	10.46
648.629	10.78
648.818	11.06
649.007	10.66
649.196	10.32
649.384	10.22
649.573	10.13
649.762	10.27
649.951	10.57
650.14	10.71
650.328	10.39
650.517	10.24
650.706	9.85
650.895	9.93
651.083	10.02
651.272	10.3
651.461	10.76
651.65	10.6
651.838	10.63
652.027	10.41
652.216	10.56
652.404	11.03
652.593	10.9
652.781	11.22
652.97	11.04
653.158	11.53
653.347	11.42
653.535	11.78
653.724	12.03
653.912	11.83
654.101	12.05
654.289	12.24
654.478	11.74
654.666	11.89
654.855	11.88
655.043	11.55
655.231	11.26
655.42	11.31
655.608	10.4
655.796	10.38
655.985	10.26
656.173	10.01
656.361	9.95
656.55	10.69
656.738	10.34
656.926	9.96
657.114	10.36
657.302	10.42
657.491	10.32
657.679	10.37
657.867	10.73
658.055	10.61
658.243	11.04
658.431	10.68
658.619	10.1
658.807	10.63
658.996	10.77
659.184	10.94
659.372	11.06
659.56	11.43
659.748	11.81
659.936	11.71
660.124	12.22
660.311	12.03
660.499	12.56
660.687	12.87
660.875	12.63
661.063	12.79
661.251	12.4
661.439	12.79
661.627	12.62
661.814	12.51
662.002	12.24
662.19	11.58
662.378	11.68
662.565	10.71
662.753	10.58
662.941	10.61
663.129	10.43
663.316	10.26
663.504	9.49
663.692	9.2
663.879	9.34
664.067	9.79
664.254	10.39
664.442	10.27
664.63	10.54
664.817	10.7
665.005	10.86
665.192	11.16
665.38	11.58
665.567	11.7
665.755	11.92
665.942	11.46
666.13	11.1
666.317	11.15
666.504	11.28
666.692	11.15
666.879	10.48
667.067	10.63
667.254	10.32
667.441	10.51
667.629	10.45
667.816	10.31
668.003	10.66
668.19	10.95
668.378	10.93
668.565	10.83
668.752	11.57
668.939	11.99
669.127	12.06
669.314	12.36
669.501	11.92
669.688	12.51
669.875	12.91
670.062	13.04
670.249	12.49
670.436	12.08
670.623	12.26
670.81	12.01
670.997	12.21
671.184	11.88
671.371	11.67
671.558	11.69
671.745	11.4
671.932	11.21
672.119	11.55
672.306	12.02
672.493	12.23
672.68	12.12
672.867	11.9
673.054	11.32
673.24	11.59
673.427	10.98
673.614	11.32
673.801	11.49
673.988	11.39
674.174	10.6
674.361	10.63
674.548	10.52
674.734	10.18
674.921	10.51
675.108	10.64
675.294	10.31
675.481	10.86
675.668	11.39
675.854	11.18
676.041	11.3
676.227	11.05
676.414	10.45
676.601	10.53
676.787	10.83
676.974	10.58
677.16	10.71
677.347	10.94
677.533	10.87
677.719	10.54
677.906	10.87
678.092	11.06
678.279	11.61
678.465	11.92
678.651	11.93
678.838	12.29
679.024	12.43
679.21	12.45
679.397	12.1
679.583	11.95
679.769	11.61
679.955	11.87
680.142	11.71
680.328	11.53
680.514	11.81
680.7	11.85
680.886	11.55
681.073	11.52
681.259	11.29
681.445	11.66
681.631	12.04
681.817	12.16
682.003	11.48
682.189	11.49
682.375	11.44
682.561	11.37
682.747	11.29
682.933	11.21
683.119	11.01
683.305	11.63
683.491	11.6
683.677	11.09
683.863	10.89
684.049	11.35
684.235	11.09
684.42	11.3
684.606	10.9
684.792	10.67
684.978	10.03
685.164	10.05
685.349	9.42
685.535	9.34
685.721	9.93
685.907	10.37
686.092	9.97
686.278	10.53
686.464	10.65
686.649	10.56
686.835	10.47
687.021	10.88
687.206	10.66
687.392	10.92
687.577	10.44
687.763	10.27
687.948	10.08
688.134	10.4
688.319	10.69
688.505	10.69
688.69	11.1
688.876	11.43
689.061	12.1
689.247	12.15
689.432	12.28
689.618	12.58
689.803	12.65
689.988	12.55
690.174	12.78
690.359	12.22
690.544	12.11
690.73	12.11
690.915	12.46
691.1	12.34
691.285	12.32
691.471	12.34
691.656	12.56
691.841	13.19
692.026	13.38
692.211	12.32
692.396	12.61
692.582	12.44
692.767	12.19
692.952	11.77
693.137	11.15
693.322	11.71
693.507	11.71
693.692	11.38
693.877	10.37
694.062	10.49
694.247	11.63
694.432	11.03
694.617	10.2
694.802	10.34
694.987	10.6
695.172	11.08
695.357	10.48
695.541	11.33
695.726	11.68
695.911	12.03
696.096	12.06
696.281	11.15
696.466	11.22
696.65	12.28
696.835	12.78
697.02	12.29
697.204	12.24
697.389	12.8
697.574	12.04
697.759	12.05
697.943	12.1
698.128	12.24
698.312	12.23
698.497	12.11
698.682	12.04
698.866	11.68
699.051	11.4
699.235	11.21
699.42	10.91
699.604	10.79
699.789	10.87
699.973	11.04
700.158	11
700.342	11.42
700.527	11.57
700.711	11.55
700.895	11.99
701.08	12.37
701.264	12.94
701.448	13.51
701.633	13.8
701.817	13.11
702.001	13.26
702.186	12.67
702.37	12.15
702.554	12.24
702.738	11.89
702.923	11.36
703.107	11.98
703.291	11.39
703.475	10.96
703.659	10.83
703.843	11.71
704.027	10.58
704.212	10.39
704.396	10.36
704.58	10.76
704.764	11.15
704.948	10.87
705.132	10.49
705.316	10.67
705.5	10.33
705.684	10.06
705.868	9.94
706.052	10.2
706.235	10.48
706.419	10.87
706.603	10.59
706.787	10.49
706.971	10.63
707.155	10.31
707.339	10.42
707.522	10.44
707.706	10.6
707.89	10.43
708.074	11
708.257	11.12
708.441	11.24
708.625	11.32
708.808	11.98
708.992	12.06
709.176	12.75
709.359	12.2
709.543	13.21
709.727	14.01
709.91	13.91
710.094	13.87
710.277	13.48
710.461	13.14
710.644	13.23
710.828	12.61
711.011	13.63
711.195	13.52
711.378	13.93
711.562	13.57
711.745	12.92
711.928	12.91
712.112	12.57
712.295	12.78
712.478	12.72
712.662	12.1
712.845	12.02
713.028	10.99
713.212	11.02
713.395	10.92
713.578	10.67
713.761	10.74
713.945	10.59
714.128	10.97
714.311	10.94
714.494	10.73
714.677	11.18
714.86	11.46
715.043	11.31
715.227	10.52
715.41	10.56
715.593	10.95
715.776	10.54
715.959	10.92
716.142	10.66
716.325	10.57
716.508	10.98
716.691	10.92
716.874	10.26
717.057	9.92
717.239	10.28
717.422	10.24
717.605	9.53
717.788	10.38
717.971	10.6
718.154	10.31
718.337	10.12
718.519	10.28
718.702	10.51
718.885	11.37
719.068	11.56
719.25	12.04
719.433	11.7
719.616	11.41
719.798	11.68
719.981	11.79
720.164	12.17
720.346	12.86
720.529	13.38
720.712	13.4
720.894	13.28
721.077	13.59
721.259	13.18
721.442	12.3
721.624	12.09
721.807	12.01
721.989	11.22
722.172	11.5
722.354	11.18
722.537	10.36
722.719	9.67
722.901	9.77
723.084	9.21
723.266	9.17
723.448	11.09
723.631	11.3
723.813	10.93
723.995	10.68
724.178	10.45
724.36	10.99
724.542	10.48
724.724	10.06
724.907	9.41
725.089	10.29
725.271	11.02
725.453	10.33
725.635	11.3
725.817	10.91
725.999	10.94
726.181	10.91
726.364	11.17
726.546	11.39
726.728	12.28
726.91	12.66
727.092	12.62
727.274	11.86
727.456	12.1
727.638	11.91
727.819	11.63
728.001	10.75
728.183	10.78
728.365	10.53
728.547	10.79
728.729	10.33
728.911	10.17
729.093	10.66
729.274	11.11
729.456	10.92
729.638	12.03
729.82	13.22
730.001	14.02
730.183	13.96
730.365	13.98
730.546	13.45
730.728	13.94
730.91	13.62
731.091	12.64
731.273	12
731.455	11.77
731.636	10.36
731.818	9.16
731.999	10.39
732.181	10.75
732.362	10.38
732.544	11.27
732.725	11.04
732.907	11.31
733.088	11.84
733.27	12.6
733.451	12.52
733.633	12.37
733.814	12.59
733.995	11.84
734.177	11.02
734.358	10.4
734.539	10.56
734.721	11.39
734.902	11.63
735.083	12.05
735.264	11.3
735.446	12.21
735.627	12.05
735.808	12.05
735.989	12.31
736.17	13.6
736.351	15.27
736.533	14.39
736.714	13.27
736.895	13.91
737.076	13.47
737.257	14.19
737.438	12.19
737.619	13.18
737.8	13.48
737.981	13.83
738.162	12.53
738.343	10.77
738.524	11.19
738.705	11.95
738.886	11.51
739.067	11.53
739.247	11.28
739.428	12.28
739.609	11.19
739.79	11.13
739.971	9.89
740.151	10.2
740.332	10.61
740.513	9.91
740.694	8.45
740.874	9.22
741.055	9.35
741.236	10.13
741.417	9.45
741.597	9.7
741.778	8.45
741.958	9.4
742.139	10.14
742.32	9.5
742.5	9.58
742.681	9.67
742.861	8.56
743.042	7.18
743.222	5.16
743.403	6.12
743.583	6.38
743.764	6.47
743.944	6.71
744.124	7.21
744.305	8.56
744.485	8.5
744.666	9.4
744.846	8.33
745.026	9.01
745.207	9.54
745.387	8.32
745.567	8.29
745.747	8.29
745.928	6.97
746.108	6.53
746.288	6.7
746.468	7.65
746.648	6.93
746.829	7.96
747.009	7.8
747.189	7.45
747.369	8.61
747.549	8.4
747.729	9.28
747.909	9.92
748.089	9.46
748.269	7.74
748.449	7.01
748.629	7.32
748.809	6.41
748.989	7.06
749.169	6.67
749.349	6.86
749.529	7.43
749.709	6.5
749.889	6.03
750.068	5.44
750.248	7.27
750.428	7.86
750.608	7.51
750.788	9.09
750.967	9.33
751.147	10.26
751.327	10.39
751.507	9.58
751.686	10.74
751.866	10.59
752.046	10.96
752.225	10.29
752.405	10.62
752.585	12.57
752.764	11.85
752.944	11.45
753.123	11.43
753.303	11.73
753.482	12.02
753.662	12.01
753.841	12.84
754.021	12.73
754.2	14.84
754.38	15.46
754.559	15.06
754.739	14.73
754.918	14.99
755.097	15.29
755.277	14.64
755.456	15.65
755.635	16.02
755.815	15.5
755.994	15.23
756.173	13.17
756.352	11.81
756.532	10.48
756.711	10.06
756.89	9.94
757.069	10.15
757.248	11.1
757.427	10.46
757.607	9.75
757.786	9.86
757.965	9.69
758.144	9.82
758.323	11.15
758.502	12.56
758.681	14.2
758.86	14.52
759.039	14.99
759.218	13.85
759.397	13.18
759.576	12.86
759.755	13.28
759.934	13.33
760.113	13.42
760.291	11.45
760.47	11.27
760.649	11.24
760.828	10.14
761.007	8.45
761.186	8.13
761.364	8.41
761.543	9.6
761.722	9.49
761.901	9.97
762.079	9.57
762.258	10.76
762.437	10.01
762.615	10.01
762.794	10.08
762.972	11.37
763.151	12.41
763.33	12.08
763.508	12.16
763.687	11.83
763.865	11.59
764.044	12.4
764.222	11.87
764.401	11.92
764.579	11.74
764.758	11.56
764.936	11.19
765.114	10.94
765.293	11.38
765.471	11.2
765.65	11.43
765.828	11.5
766.006	11.24
766.184	11.06
766.363	11.73
766.541	11.64
766.719	12.94
766.898	13.34
767.076	12.54
767.254	12.36
767.432	12.06
767.61	12.42
767.788	12.48
767.967	11.81
768.145	11.91
768.323	10.82
768.501	9.35
768.679	8.63
768.857	7.22
769.035	8.4
769.213	9.11
769.391	8.88
769.569	8.5
769.747	9.14
769.925	9.11
770.103	10.07
770.281	9.81
770.459	10.75
770.636	10.09
770.814	9.91
770.992	11.34
771.17	9.14
771.348	10.31
771.525	10.53
771.703	9.68
771.881	10.52
772.059	9.6
772.236	10.74
772.414	8.65
772.592	10.12
772.769	12.26
772.947	11.18
773.125	14.39
773.302	13.16
773.48	13.97
773.657	14.1
773.835	14.53
774.013	15.2
774.19	16.79
774.368	20
774.545	20.68
774.723	20.52
774.9	20.72
775.077	18.85
775.255	18.42
775.432	18.21
775.61	17.92
775.787	14.14
775.964	12.81
776.142	9.22
776.319	8.85
776.496	8.73
776.674	7.84
776.851	6.62
777.028	6.61
777.205	5.96
777.382	4.98
777.56	5.5
777.737	9.15
777.914	9.15
778.091	11.61
778.268	10.58
778.445	7.91
778.622	6.57
778.8	5.74
778.977	5.2
779.154	5.7
779.331	5
779.508	4.67
779.685	4.36
779.862	7.01
780.038	6.09
780.215	7.53
780.392	8.13
780.569	6.86
780.746	7.02
780.923	8.06
781.1	9.04
781.277	9.73
781.453	9.66
781.63	7.14
781.807	4.84
781.984	5.16
782.16	4.18
782.337	2.68
782.514	5.52
782.691	7.44
782.867	9.44
783.044	9.6
783.221	12.22
783.397	10.46
783.574	12.57
783.75	9.96
783.927	12.71
784.103	12.43
784.28	15.64
784.456	16.56
784.633	15.55
784.809	15.03
784.986	12.53
785.162	10.32
785.339	11.98
785.515	8.77
785.692	13.65
785.868	13
786.044	13.01
786.221	11.2
786.397	11.54
786.573	11.46
786.749	10.38
786.926	11.84
787.102	9.1
787.278	8.12
787.454	11
787.631	10.47
787.807	9.3
787.983	9.49
788.159	10.63
788.335	6.11
788.511	7.28
788.687	5.45
788.863	4.34
789.039	6.7
789.216	5.76
789.392	3.8
789.568	1.87
789.744	1.92
789.919	0.87
790.095	1.3
790.271	2.75
790.447	3.21
790.623	3.63
790.799	3.43
790.975	4.41
791.151	7.93
791.327	8.03
791.502	6.31
791.678	3.81
791.854	5.69
792.03	2.3
792.205	2.57
792.381	0.71
792.557	-0.31
792.733	1.79
792.908	-2.97
793.084	-2.68
793.259	1.9
793.435	5.76
793.611	7.51
793.786	3.66
793.962	7.39
794.137	9.03
794.313	10.41
794.488	8.52
794.664	6.51
794.839	7.93
795.015	4.74
795.19	-1.91
795.366	-3.19
795.541	-5.27
795.716	-5.45
795.892	-7.1
796.067	-7.22
796.242	-7.46
796.418	-5.34
796.593	-3.96
796.768	-4.73
796.944	-2.19
797.119	-0.03
797.294	1.59
797.469	4.01
797.644	3.84
797.82	7.12
797.995	8.34
798.17	4.98
798.345	9.71
798.52	7.98
798.695	8.2
798.87	7.37
799.045	8.6
799.22	9.68
799.395	9.17
799.57	12.04
799.745	7.82
799.92	8.67
800.095	11.76
800.27	8.27
800.445	10.04
800.62	13.78
800.795	14.41
800.97	13.88
801.145	11.49
801.319	10.64
801.494	9.95
801.669	11.5
801.844	10.83
802.018	12.68
802.193	10.86
802.368	6.69
802.543	2.65
802.717	4.51
802.892	5.7
803.067	1.61
803.241	1.33
803.416	2.68
803.59	5.78
803.765	4.85
803.94	4.1
804.114	8.37
804.289	12.11
804.463	13.84
804.638	11.64
804.812	13.92
804.986	16.33
805.161	17.22
805.335	15.98
805.51	12.27
805.684	11.31
805.858	8.6
806.033	3.55
806.207	5
806.381	4.38
806.556	2.57
806.73	0.38
806.904	-3.29
807.078	-2.69
807.253	-1.12
807.427	-0.31
807.601	0.25
807.775	3.04
807.949	6.09
808.123	4.42
808.298	4.45
808.472	3.97
808.646	6.57
808.82	12.95
808.994	10.26
809.168	10.98
809.342	14.53
809.516	15.8
809.69	17.59
809.864	17.26
810.038	17.46
810.212	17.26
810.385	21.89
810.559	22.16
810.733	21.77
810.907	25.6
811.081	24.97
811.255	24.41
811.428	22.2
811.602	16.8
811.776	20.28
811.95	21.34
812.123	19.68
812.297	20.94
812.471	16.34
812.644	14.6
812.818	14.32
812.992	11.86
813.165	12.41
813.339	13.79
813.512	18.29
813.686	11.15
813.86	8.21
814.033	5.03
814.207	4.15
814.38	7.31
814.554	12.18
814.727	11.92
814.9	12.9
815.074	10.57
815.247	9.05
815.421	10.58
815.594	13.89
815.767	14.62
815.941	19.48
816.114	18.2
816.287	16.2
816.46	12.46
816.634	10.04
816.807	7.97
816.98	8.92
817.153	11.65
817.327	10.01
817.5	9.35
817.673	7.18
817.846	7.79
818.019	2.79
818.192	3.24
818.365	0.12
818.538	-1.62
818.711	1.09
818.884	-2.77
819.057	-5.66
819.23	-6.37
819.403	-3.71
819.576	0.38
819.749	-1.22
819.922	-0.71
820.095	1.06
820.268	4.73
820.441	7.21
820.614	4.98
820.786	8.84
820.959	9.81
821.132	11.33
821.305	10.17
821.477	10.77
821.65	12.55
821.823	13.7
821.996	13.79
822.168	13.14
822.341	13.3
822.514	13.75
822.686	12.55
822.859	12.51
823.031	12.52
823.204	13.04
823.376	13.64
823.549	12.71
823.722	12.57
823.894	11.44
824.067	10.98
824.239	10.63
824.411	10.65
824.584	12.27
824.756	12.5
824.929	11.5
825.101	11.28
825.273	10.2
825.446	11.69
825.618	11.96
825.79	13.95
825.963	15.51
826.135	16.59
826.307	15.85
826.479	14.48
826.652	16.01
826.824	16.53
826.996	16.24
827.168	15
827.34	13.92
827.512	13.59
827.684	12.97
827.856	12.65
828.029	10.77
828.201	12.88
828.373	13.39
828.545	12.17
828.717	11.59
828.889	12.19
829.061	14.29
829.232	13.51
829.404	13.59
829.576	13.27
829.748	15.72
829.92	16.36
830.092	14.59
830.264	12.97
830.436	12.16
830.607	10.61
830.779	9.29
830.951	6.32
831.123	6.63
831.294	6.57
831.466	6.76
831.638	2.6
831.809	-1.61
831.981	1.97
832.153	4.43
832.324	3.08
832.496	6.59
832.667	9.45
832.839	10.32
833.011	12.04
833.182	12.33
833.354	12.26
833.525	10.75
833.697	11.45
833.868	6.97
834.039	6.16
834.211	6.25
834.382	5.4
834.554	4.55
834.725	6.43
834.896	5.4
835.068	3.67
835.239	4.03
835.41	3.17
835.581	3.54
835.753	6.65
835.924	6.97
836.095	7.16
836.266	6.84
836.438	4.77
836.609	1.99
836.78	2.95
836.951	5.06
837.122	2.07
837.293	-0.36
837.464	0.74
837.635	0.79
837.806	0.2
837.977	-1.83
838.148	-1.84
838.319	-5.47
838.49	-6.67
838.661	-6.98
838.832	-12.97
839.003	-11.09
839.174	-6.15
839.345	-7.16
839.516	-13.19
839.687	-11.4
839.857	-8.54
840.028	-11.35
840.199	-6.37
840.37	-0.32
840.54	-8.67
840.711	0.11
840.882	2.5
841.053	2.68
841.223	4.91
841.394	8.44
841.564	9.76
841.735	9.33
841.906	7.74
842.076	9.59
842.247	2.56
842.417	8.25
842.588	0.25
842.758	-8.02
842.929	-15.04
843.099	-15.4
843.27	-13.4
843.44	-36
843.611	-36.1
843.781	-20.08
843.951	-28.48
844.122	-15.4
844.292	-10.67
844.462	-0.23
844.633	14.8
844.803	19.54
844.973	18.81
845.144	3.08
845.314	16.38
845.484	12.48
845.654	12.78
845.824	8.93
845.995	0.59
846.165	-2.12
846.335	-8.69
846.505	-23.84
846.675	-27.71
846.845	-48.18
847.015	-33.65
847.185	-39.91
847.355	-32.21
847.525	-34.96
847.695	-16.83
847.865	-16.88
848.035	-5.62
848.205	-2.87
848.375	3.37
848.545	-12.27
848.715	-9.91
848.884	-17.99
849.054	-19.87
849.224	-5.09
849.394	-18.76
849.564	-25.02
849.733	-16.49
849.903	-23.28
850.073	-46.32
850.243	-71.1
850.412	-41.56
850.582	-21.22
850.752	-11.53
850.921	-10.51
851.091	-16.76
851.26	-8.08
851.43	-6.55
851.599	-9.01
851.769	-23.51
851.939	-9.27
852.108	-3.39
852.278	-30.62
852.447	-37.52
852.616	-38.01
852.786	-59.95
852.955	-45.44
853.125	-43.59
853.294	-46.06
853.463	-60.23
853.633	-31.81
853.802	-17.56
853.971	-5.39
854.141	11.61
854.31	5.16
854.479	-2.29
854.648	8.79
854.818	5.71
854.987	2.32
855.156	-1.1
855.325	4.46
855.494	-13.48
855.663	-19.33
855.832	-18.41
856.001	-53.2
856.171	-76.64
856.34	-71.41
856.509	-104.73
856.678	-140.3
856.847	-143.07
857.016	-102.52
857.185	-149.77
857.353	-97.63
857.522	-132.84
857.691	-99.84
857.86	-76.86
858.029	-70.21
858.198	-57.49
858.367	-42.19
858.535	-11.4
858.704	-4.27
858.873	-7.77
859.042	-5.05
859.21	2.05
859.379	14.34
859.548	13.21
859.717	22.22
859.885	29.58
860.054	26.35
860.222	9.54
860.391	-16.64
860.56	-22.7
860.728	-30.1
860.897	-3.26
861.065	-25.99
861.234	-25.77
861.402	-11.5
861.571	-15.79
861.739	-18.88
861.908	-19.09
862.076	-2
862.244	14.49
862.413	15.08
862.581	12.96
862.749	-3.76
862.918	0.43
863.086	-0.96
863.254	-13.61
863.423	-19.88
863.591	-10.17
863.759	-10.1
863.927	-10.61
864.096	-20.26
864.264	-24.05
864.432	-23.6
864.6	-9.56
864.768	-10.04
864.936	-17.04
865.104	0.78
865.272	3.85
865.44	7.78
865.608	-0.29
865.776	3.07
865.944	-15.4
866.112	-12.19
866.28	-15.13
866.448	-17.91
866.616	-1.63
866.784	-8.22
866.952	-21.31
867.12	-20.17
867.288	-12.81
867.455	-9.43
867.623	-11.68
867.791	-0.47
867.959	7.01
868.127	4.59
868.294	7.39
868.462	12.57
868.63	17.65
868.797	20.01
868.965	22.84
869.133	7.91
869.3	11.82
869.468	20.16
869.636	7.7
869.803	-13.05
869.971	-14.74
870.138	-19.41
870.306	-42.25
870.473	-15.55
870.641	-2.48
870.808	-25.79
870.975	-3.35
871.143	-0.82
871.31	-13.52
871.478	1.65
871.645	3.89
871.812	8.38
871.98	14.5
872.147	13.38
872.314	-1.98
872.482	2.23
872.649	11.18
872.816	-1.38
872.983	-4.81
873.15	-1.44
873.318	2.79
873.485	10.9
873.652	2.92
873.819	-21.76
873.986	-8.39
874.153	-2.59
874.32	-2.54
874.487	-0.27
874.654	14.57
874.821	8.5
874.988	10.38
875.155	11.61
875.322	11.15
875.489	12.09
875.656	20.93
875.823	12.57
875.99	20.26
876.157	13.54
876.324	12.62
876.49	-0.35
876.657	4.06
876.824	-1.67
876.991	-3.13
877.157	1.8
877.324	-0.27
877.491	-1.87
877.658	2.53
877.824	-2.41
877.991	-7.59
878.157	-12.68
878.324	-2.74
878.491	-3.87
878.657	-4.95
878.824	-26.48
878.99	-32.42
879.157	-17.55
879.323	-26.62
879.49	-29.5
879.656	-26.57
879.823	-15.19
879.989	-0.35
880.156	-2.27
880.322	-20.96
880.488	-19.89
880.655	-14.25
880.821	-15.3
880.987	-23.51
881.154	-18.34
881.32	3.06
881.486	2.9
881.652	-6.24
881.819	-12.46
881.985	-12.08
882.151	-3.62
882.317	1.64
882.483	8.66
882.649	10.8
882.816	12.74
882.982	15.52
883.148	8.65
883.314	8.66
883.48	12.69
883.646	13.98
883.812	14.64
883.978	16.66
884.144	17.84
884.31	15.15
884.476	14.34
884.642	13.92
884.807	10.34
884.973	14.55
885.139	13.42
885.305	10.75
885.471	8.72
885.637	9.8
885.802	9.81
885.968	5.9
886.134	5.46
886.3	5.72
886.465	1.93
886.631	7.18
886.797	2.88
886.962	6.97
887.128	5.23
887.293	2.69
887.459	-6.2
887.625	-9.59
887.79	-10.34
887.956	-7.77
888.121	-8.88
888.287	-2.17
888.452	-11.02
888.618	-12.4
888.783	-37.24
