Data from 2938087_Reflection_1.txt Node
Date: Sat Jul 11 19:30:29 EDT 2015
User: robert
Spectrometer: USB4E03001
Autoset integration time: false
Trigger mode: 4
Integration Time (sec): 1.000000E-1
Scans to average: 10
Electric dark correction enabled: true
Nonlinearity correction enabled: false
Boxcar width: 5
Stray light correction enabled: false
XAxis mode: Wavelengths
Stop averaging: false
Number of Pixels in Spectrum: 3648
>>>>>Begin Spectral Data<<<<<
177.566	97.81
177.785	58.4
178.005	21.3
178.225	34.86
178.445	55.57
178.665	23.5
178.885	-52.85
179.105	300.29
179.324	122.79
179.544	176.59
179.764	132.99
179.984	89.82
180.204	60.42
180.423	78.57
180.643	91.55
180.863	92.67
181.083	84.16
181.302	160.64
181.522	227.56
181.742	-26.02
181.961	109.74
182.181	85.7
182.401	152.72
182.621	189.8
182.84	344.84
183.06	1314.14
183.279	-316.46
183.499	-716.85
183.719	-140.11
183.938	-96.84
184.158	-40.93
184.377	-3.1
184.597	-11.92
184.816	-20.37
185.036	-27.51
185.256	-128.71
185.475	-148.2
185.695	-105.45
185.914	-178.35
186.134	-151.61
186.353	-200.91
186.572	-316.91
186.792	-102.95
187.011	-60.93
187.231	-26.89
187.45	-6.87
187.67	27.29
187.889	-5.23
188.108	-39.81
188.328	-138.54
188.547	1292.09
188.766	162.47
188.986	86.07
189.205	44.08
189.424	35.26
189.644	41.25
189.863	53.18
190.082	38.76
190.302	7.5
190.521	-40.86
190.74	-51.42
190.959	-228.64
191.178	-491.62
191.398	-6815.91
191.617	194.79
191.836	129.08
192.055	217.42
192.274	7.86
192.494	68.54
192.713	129.17
192.932	132.88
193.151	137.84
193.37	215.09
193.589	1853.28
193.808	857.7
194.027	-1835.17
194.246	-5106.78
194.465	-445.85
194.685	-325.72
194.904	-295.43
195.123	-285.46
195.342	-113.47
195.561	-344.17
195.78	-405.3
195.999	196.78
196.218	11794.44
196.436	123.03
196.655	173.23
196.874	-11.42
197.093	10.92
197.312	-12.04
197.531	-0.96
197.75	552.53
197.969	2.07
198.188	-31.3
198.407	-16.12
198.625	-77.02
198.844	-132.61
199.063	-64.17
199.282	-60.42
199.501	-26.83
199.719	-36.05
199.938	-19.33
200.157	39.57
200.376	4.81
200.594	3.85
200.813	-43.71
201.032	-21.69
201.251	103.25
201.469	3577.42
201.688	129.44
201.907	84.57
202.125	176.03
202.344	964.49
202.563	543.72
202.781	4064.5
203	126700
203.218	7851.81
203.437	-653.96
203.656	-140.49
203.874	-144.39
204.093	-29.56
204.311	-45.52
204.53	-39.62
204.748	-44.57
204.967	-53.59
205.185	-0.06
205.404	27.32
205.622	35.12
205.841	39.71
206.059	25.49
206.278	68.35
206.496	-192.68
206.715	-58.39
206.933	0.5
207.151	-22.62
207.37	-38.4
207.588	-76
207.806	-369.7
208.025	2093.03
208.243	-308.56
208.461	-179
208.68	-206.11
208.898	-33.21
209.116	-11.31
209.335	-196.19
209.553	-4066.07
209.771	-316.7
209.989	3777.78
210.208	-762.25
210.426	-80.87
210.644	-6808.22
210.862	1019.24
211.081	-444.86
211.299	169.05
211.517	129.49
211.735	541.42
211.953	1213.48
212.171	492.68
212.39	-288.97
212.608	-409.56
212.826	-375.29
213.044	-155.11
213.262	-512.93
213.48	1209.62
213.698	-72.78
213.916	-45.57
214.134	-19.17
214.352	-3.98
214.57	24.73
214.788	-46.96
215.006	-1.1
215.224	-53.32
215.442	-33.13
215.66	12.38
215.878	-11.47
216.096	-62.44
216.314	-187.9
216.532	-179.05
216.75	-494.84
216.968	218.46
217.185	367.12
217.403	475.17
217.621	5086.07
217.839	1107.62
218.057	833.52
218.275	-5886.87
218.492	-408.47
218.71	-257.06
218.928	-226.79
219.146	-137.02
219.363	-140.09
219.581	-55.19
219.799	-31.65
220.017	-60.63
220.234	-55.24
220.452	-208.73
220.67	-673.16
220.887	3716.77
221.105	-402.29
221.323	-594.88
221.54	-310.4
221.758	-95.15
221.976	-108.83
222.193	-63.28
222.411	-119.73
222.629	-318.71
222.846	15.35
223.064	-2.94
223.281	-11.38
223.499	-43.14
223.716	-94.78
223.934	-139.82
224.151	-208.73
224.369	-290.67
224.586	-520.23
224.804	-717.13
225.021	-740.75
225.239	1632.31
225.456	-2641.56
225.674	-801.68
225.891	-1808.82
226.108	-272.96
226.326	-110.71
226.543	-39.12
226.76	4.48
226.978	-3.92
227.195	2.53
227.413	14.1
227.63	14.33
227.847	13.87
228.064	8.8
228.282	12.87
228.499	16.91
228.716	15.37
228.934	9.45
229.151	5.1
229.368	5.56
229.585	9.82
229.802	7.93
230.02	7.65
230.237	3.47
230.454	4.54
230.671	3.72
230.888	-0.34
231.105	0.61
231.323	1.58
231.54	0.38
231.757	8.05
231.974	4.6
232.191	2.6
232.408	-0.11
232.625	1.05
232.842	5.34
233.059	12.38
233.276	7.97
233.493	3.3
233.71	-2.54
233.927	-3.36
234.144	-14.65
234.361	-20.37
234.578	-22.24
234.795	-16.2
235.012	-21.58
235.229	-25.87
235.446	-32.64
235.663	-23.35
235.879	-26.82
236.096	-16
236.313	-13.01
236.53	2.85
236.747	-0.47
236.964	3.24
237.181	-5.74
237.397	-0.85
237.614	-0.31
237.831	-3.81
238.048	-14.25
238.264	-8.69
238.481	-10.46
238.698	-7.64
238.915	-21.54
239.131	-12.52
239.348	-11.15
239.565	-9.47
239.781	-6.27
239.998	-11.2
240.215	-4.75
240.431	-2.21
240.648	-1.38
240.865	1.77
241.081	2.09
241.298	4.43
241.514	6.03
241.731	4
241.947	7.59
242.164	9.71
242.38	13.19
242.597	12.89
242.814	13.3
243.03	12.97
243.246	12.02
243.463	14.18
243.679	15.36
243.896	14.88
244.112	16.34
244.329	15.05
244.545	12.24
244.762	9.81
244.978	6.21
245.194	4.57
245.411	5.43
245.627	4.27
245.843	2.02
246.06	2.56
246.276	4.08
246.492	6
246.709	6.65
246.925	8.05
247.141	9.43
247.357	10.3
247.574	11.22
247.79	10.05
248.006	10.87
248.222	10.69
248.439	10.83
248.655	10.12
248.871	9.94
249.087	10.14
249.303	10.25
249.519	9.31
249.736	10.61
249.952	10.82
250.168	14.87
250.384	14.77
250.6	16.25
250.816	12.96
251.032	14.32
251.248	15.03
251.464	14.91
251.68	11.8
251.896	10.54
252.112	8.93
252.328	7.91
252.544	4.82
252.76	5.5
252.976	5.08
253.192	5.74
253.408	4.57
253.624	3.14
253.84	0.78
254.056	1.46
254.272	3.06
254.487	2.42
254.703	1.41
254.919	1.01
255.135	1.71
255.351	3.63
255.567	5.9
255.782	8.97
255.998	9.5
256.214	5.5
256.43	5.42
256.646	2.26
256.861	5.17
257.077	5.22
257.293	7.13
257.508	5.41
257.724	4.3
257.94	4.01
258.155	3.99
258.371	4.85
258.587	8.84
258.802	9.57
259.018	9.95
259.234	10.59
259.449	10.3
259.665	10.66
259.88	10.69
260.096	10.96
260.312	10.81
260.527	10.26
260.743	9.29
260.958	8.81
261.174	9.13
261.389	8.85
261.605	7.25
261.82	7.39
262.036	5.86
262.251	6.13
262.466	6.23
262.682	5.57
262.897	3.98
263.113	4.09
263.328	4.01
263.543	3.57
263.759	3.2
263.974	4.11
264.189	6.39
264.405	6.03
264.62	6.85
264.835	5.67
265.051	5.95
265.266	7.2
265.481	9.39
265.696	9.47
265.912	9.27
266.127	11.6
266.342	10.32
266.557	7.08
266.773	9.22
266.988	8.2
267.203	6.82
267.418	8.06
267.633	9.27
267.848	7.42
268.064	6.67
268.279	6.86
268.494	6.32
268.709	5.33
268.924	4.5
269.139	2.94
269.354	2.94
269.569	4.49
269.784	4.12
269.999	0.56
270.214	0.37
270.429	1.31
270.644	0.57
270.859	0.06
271.074	3.16
271.289	3.91
271.504	4.32
271.719	3.21
271.934	2.02
272.149	2.12
272.363	3.95
272.578	4.24
272.793	4.39
273.008	4.87
273.223	5.05
273.438	4.23
273.653	5.94
273.867	5.64
274.082	7.42
274.297	8.68
274.512	7.71
274.726	8.56
274.941	9.32
275.156	9.25
275.371	8.58
275.585	9.92
275.8	9.02
276.015	7.37
276.229	7.72
276.444	7.49
276.659	8.24
276.873	8.27
277.088	8.39
277.302	9.1
277.517	9.8
277.732	8.73
277.946	6.38
278.161	6.37
278.375	7.75
278.59	6.58
278.804	6.11
279.019	3.85
279.233	3.9
279.448	5.95
279.662	6.05
279.877	6.08
280.091	8.02
280.306	11.02
280.52	11.98
280.735	11.54
280.949	11.61
281.163	8.77
281.378	9.81
281.592	9.48
281.806	6.25
282.021	5.38
282.235	5.2
282.449	3.81
282.664	1.65
282.878	2.36
283.092	5.15
283.307	4.89
283.521	7.22
283.735	8.47
283.949	7.86
284.164	8.53
284.378	9.44
284.592	9.54
284.806	12.03
285.02	12.57
285.234	10.75
285.449	7.91
285.663	8.36
285.877	8.77
286.091	6.98
286.305	6.85
286.519	8.05
286.733	6.17
286.947	5.34
287.161	4.69
287.375	3.74
287.589	5.2
287.803	6.52
288.017	8.22
288.231	7.5
288.445	7.86
288.659	9.91
288.873	8.01
289.087	9.63
289.301	9.61
289.515	9.51
289.729	10.65
289.943	9.91
290.157	9.31
290.371	8.17
290.584	9.37
290.798	10.26
291.012	10.41
291.226	10.44
291.44	9.55
291.654	10.87
291.867	10.73
292.081	11.06
292.295	11.23
292.509	12.06
292.722	13.13
292.936	13.37
293.15	13.76
293.364	14.4
293.577	14.75
293.791	14.93
294.005	14.1
294.218	13
294.432	12.77
294.645	11.26
294.859	10.61
295.073	9.32
295.286	10.14
295.5	11.51
295.713	10.46
295.927	11.65
296.14	11.57
296.354	10.77
296.568	11.78
296.781	11.9
296.994	14.16
297.208	14.37
297.421	14.19
297.635	12.96
297.848	11.35
298.062	11.1
298.275	10.38
298.489	12.12
298.702	12.45
298.915	11.31
299.129	11.09
299.342	10.32
299.555	9.48
299.769	10.18
299.982	12.36
300.195	12.8
300.409	12.53
300.622	11.82
300.835	11.28
301.048	11.2
301.262	12.5
301.475	13.24
301.688	11.48
301.901	10.56
302.115	10.4
302.328	7.61
302.541	7.07
302.754	7.24
302.967	9.48
303.18	10.18
303.393	10.97
303.607	9.25
303.82	7.4
304.033	7.35
304.246	8.74
304.459	9.6
304.672	10.92
304.885	10.03
305.098	10.01
305.311	10.2
305.524	8.82
305.737	7.91
305.95	8.48
306.163	11.2
306.376	11.85
306.589	12.54
306.802	10.74
307.015	7.75
307.228	9.12
307.44	10.61
307.653	9.39
307.866	6.91
308.079	9.68
308.292	12.32
308.505	9.81
308.718	9.49
308.93	9.17
309.143	8.94
309.356	11.27
309.569	9.68
309.781	9.61
309.994	8.74
310.207	9.77
310.42	8.69
310.632	7.32
310.845	6.82
311.058	8.5
311.27	9.98
311.483	11.7
311.696	11.43
311.908	12.69
312.121	11.52
312.333	12.13
312.546	12.54
312.759	11.02
312.971	12.14
313.184	12.69
313.396	12.9
313.609	11.07
313.821	10.71
314.034	10.84
314.246	10.16
314.459	10.83
314.671	12.17
314.884	10.7
315.096	12.31
315.309	10.5
315.521	11.3
315.733	11.17
315.946	10.96
316.158	10.87
316.371	12.48
316.583	12.63
316.795	13.54
317.008	12.03
317.22	12.73
317.432	14.62
317.644	15.37
317.857	16.29
318.069	14.44
318.281	15.45
318.494	13.43
318.706	12.34
318.918	15.02
319.13	13.16
319.342	12.52
319.555	14.64
319.767	12.26
319.979	13.07
320.191	13.31
320.403	13.78
320.615	14.69
320.827	16.6
321.039	15.59
321.252	13.28
321.464	14.47
321.676	15.23
321.888	15.37
322.1	15.12
322.312	13.77
322.524	12.77
322.736	13.28
322.948	12.62
323.16	13.13
323.372	13.76
323.584	13.51
323.796	13.91
324.007	12.87
324.219	13.24
324.431	13.15
324.643	12.62
324.855	12.07
325.067	11.53
325.279	11.83
325.491	10.88
325.702	10.24
325.914	9.63
326.126	10.3
326.338	11.11
326.55	10.86
326.761	10.99
326.973	10.98
327.185	11.95
327.396	12.42
327.608	12.35
327.82	13.1
328.032	13.65
328.243	15.6
328.455	15.71
328.666	15.48
328.878	14.14
329.09	14.51
329.301	16.02
329.513	15.3
329.725	14.23
329.936	12.5
330.148	12.05
330.359	10.47
330.571	10.86
330.782	9.16
330.994	11.52
331.205	13.89
331.417	14.41
331.628	12.93
331.84	13.69
332.051	15.04
332.262	15.52
332.474	14.6
332.685	16.32
332.897	15.33
333.108	16.25
333.319	14.33
333.531	13.18
333.742	13.04
333.953	13.21
334.165	12.4
334.376	12.88
334.587	13.95
334.799	14.9
335.01	15.54
335.221	16.42
335.432	15.49
335.644	15.43
335.855	14.83
336.066	14.56
336.277	14.24
336.488	14.48
336.7	14.05
336.911	15.06
337.122	15.13
337.333	12.52
337.544	12.24
337.755	13.13
337.966	12.82
338.177	13.08
338.388	12.8
338.599	13.17
338.811	13.28
339.022	11.81
339.233	10.02
339.444	10.15
339.655	12.56
339.866	12.44
340.076	12.43
340.287	13.7
340.498	13.25
340.709	13.26
340.92	13.62
341.131	12.98
341.342	15.1
341.553	15.42
341.764	14.57
341.975	14.18
342.185	13.91
342.396	12.04
342.607	12.02
342.818	12.71
343.029	13.08
343.239	12.74
343.45	12.88
343.661	11.34
343.872	10.82
344.082	10.99
344.293	10.79
344.504	10.51
344.714	10.57
344.925	10.97
345.136	11.46
345.346	11.68
345.557	12.82
345.768	13.45
345.978	14.27
346.189	14.23
346.399	15.08
346.61	15.27
346.821	15.74
347.031	18.1
347.242	16.09
347.452	15.85
347.663	16.32
347.873	15.76
348.084	15.19
348.294	14.32
348.504	15.21
348.715	14.2
348.925	14.1
349.136	14.95
349.346	14.32
349.557	15.93
349.767	16.1
349.977	15.12
350.188	16.06
350.398	15.94
350.608	16.84
350.819	15.85
351.029	15.71
351.239	15.75
351.449	14.97
351.66	14.14
351.87	13.14
352.08	12.72
352.29	13.6
352.501	11.96
352.711	12.76
352.921	13.08
353.131	13.95
353.341	14.96
353.552	16.23
353.762	15.93
353.972	15.7
354.182	17.71
354.392	18.02
354.602	15.95
354.812	15.2
355.022	15.43
355.232	14.64
355.442	14.2
355.652	13.72
355.862	11.32
356.072	10.96
356.282	10.44
356.492	8.78
356.702	8.05
356.912	8.47
357.122	9.64
357.332	8.8
357.542	8.02
357.752	7.98
357.962	8.17
358.171	10.35
358.381	10.48
358.591	11.26
358.801	11.73
359.011	11.11
359.221	12.58
359.43	12.45
359.64	12.46
359.85	12.5
360.06	12.56
360.269	12.4
360.479	11.03
360.689	10.85
360.899	11.27
361.108	11.22
361.318	11.69
361.528	11.14
361.737	11.36
361.947	11.26
362.156	11.76
362.366	11.16
362.576	11.54
362.785	11.72
362.995	12.38
363.204	12.86
363.414	12.01
363.623	11.26
363.833	11.16
364.042	11.22
364.252	11.64
364.461	11.84
364.671	13.16
364.88	11.99
365.09	12.29
365.299	11.86
365.509	10.69
365.718	11.54
365.927	12.48
366.137	12.67
366.346	12.68
366.555	12.67
366.765	12.55
366.974	11.74
367.183	12.41
367.393	12.6
367.602	12.21
367.811	12.3
368.021	12.04
368.23	11.94
368.439	11.69
368.648	10.84
368.857	11.54
369.067	11.87
369.276	12.08
369.485	12.32
369.694	12.36
369.903	12.13
370.112	11.69
370.321	12.23
370.531	12.02
370.74	12.2
370.949	11.87
371.158	11.44
371.367	11.08
371.576	10.65
371.785	10.85
371.994	10.44
372.203	10.94
372.412	10.84
372.621	10.86
372.83	10.42
373.039	10.48
373.248	10.56
373.457	10.68
373.666	10.99
373.874	11.75
374.083	10.91
374.292	11.2
374.501	10.6
374.71	10.5
374.919	9.72
375.128	10.42
375.336	10.09
375.545	9.85
375.754	9.03
375.963	8.47
376.171	8.12
376.38	8.18
376.589	7.93
376.798	8.24
377.006	8.51
377.215	8.46
377.424	8.27
377.632	8.12
377.841	8.93
378.05	9.55
378.258	10.12
378.467	10.12
378.675	10.11
378.884	10.54
379.093	9.99
379.301	10.03
379.51	9.79
379.718	9.62
379.927	9.35
380.135	9.08
380.344	8.48
380.552	7.87
380.761	7.63
380.969	7.64
381.177	7.08
381.386	7.83
381.594	8.34
381.803	9.36
382.011	9.77
382.219	9.96
382.428	9.78
382.636	9.78
382.845	9.07
383.053	9.3
383.261	9.57
383.469	9.72
383.678	9.34
383.886	8.52
384.094	7.79
384.302	7.3
384.511	7.15
384.719	7.33
384.927	7.13
385.135	8.03
385.343	7.5
385.552	7.09
385.76	7.36
385.968	7.14
386.176	7.19
386.384	7.53
386.592	7.58
386.8	7.25
387.008	6.41
387.216	6.23
387.424	6.14
387.633	6.16
387.841	6.03
388.049	5.53
388.257	5.77
388.465	5.97
388.672	5.82
388.88	5.8
389.088	6.52
389.296	6.99
389.504	6.79
389.712	6.39
389.92	6.44
390.128	6.71
390.336	6.48
390.544	6.45
390.751	6.36
390.959	5.84
391.167	5.53
391.375	5.13
391.583	5.37
391.79	5.78
391.998	5.59
392.206	5.8
392.414	5.69
392.621	5.83
392.829	5.67
393.037	5.71
393.244	6.25
393.452	6.53
393.66	6.44
393.867	6.42
394.075	6.3
394.283	6.68
394.49	6.49
394.698	6.22
394.905	6.02
395.113	5.83
395.32	5.68
395.528	5.27
395.735	5.25
395.943	5.4
396.15	5.2
396.358	5.16
396.565	4.86
396.773	5.07
396.98	5.18
397.188	5.52
397.395	5.54
397.602	5.35
397.81	5.56
398.017	5.27
398.225	5.45
398.432	5.47
398.639	5.29
398.847	5.43
399.054	5.06
399.261	5.09
399.468	4.96
399.676	5.01
399.883	4.69
400.09	4.48
400.297	4.42
400.505	4.31
400.712	4.11
400.919	4.03
401.126	3.6
401.333	3.5
401.54	3.45
401.748	3.45
401.955	3.7
402.162	4.39
402.369	4.51
402.576	4.99
402.783	5.04
402.99	5.23
403.197	5.54
403.404	5.77
403.611	5.96
403.818	6.04
404.025	5.68
404.232	5.33
404.439	5.09
404.646	5.31
404.853	5.14
405.06	4.99
405.267	4.79
405.474	4.69
405.681	4.66
405.887	4.47
406.094	4.29
406.301	4.51
406.508	4.94
406.715	5.23
406.922	4.98
407.128	4.82
407.335	4.72
407.542	4.87
407.749	4.82
407.955	4.82
408.162	4.74
408.369	4.88
408.575	4.66
408.782	4.21
408.989	3.88
409.195	4.32
409.402	4.2
409.609	4.23
409.815	4.27
410.022	4.45
410.228	4.65
410.435	4.8
410.642	4.72
410.848	4.98
411.055	5.11
411.261	5.12
411.468	4.46
411.674	4.88
411.881	4.9
412.087	4.51
412.294	4.41
412.5	4.14
412.706	4.21
412.913	4.19
413.119	3.87
413.326	3.93
413.532	3.96
413.738	4.3
413.945	4.08
414.151	4.21
414.357	4.36
414.564	4.57
414.77	4.98
414.976	5.05
415.182	5.28
415.389	5.43
415.595	5.34
415.801	5.55
416.007	5.38
416.214	5.46
416.42	5.16
416.626	5.19
416.832	4.92
417.038	4.61
417.244	4.48
417.45	4.45
417.657	4.33
417.863	4.31
418.069	4.19
418.275	4.28
418.481	4.2
418.687	4.26
418.893	4.24
419.099	4.35
419.305	4.51
419.511	4.52
419.717	4.34
419.923	4.41
420.129	4.5
420.335	4.47
420.541	4.63
420.746	4.51
420.952	4.6
421.158	4.67
421.364	4.56
421.57	4.38
421.776	4.29
421.982	4.4
422.187	4.37
422.393	4.35
422.599	4.34
422.805	4.22
423.01	4.41
423.216	4.38
423.422	4.27
423.628	4.34
423.833	4.41
424.039	4.45
424.245	4.44
424.45	4.48
424.656	4.35
424.862	4.33
425.067	4.34
425.273	4.23
425.478	4.09
425.684	4.21
425.889	4.23
426.095	4.33
426.301	4.35
426.506	4.23
426.712	4.16
426.917	4.4
427.123	4.36
427.328	4.29
427.533	4.47
427.739	4.78
427.944	4.69
428.15	4.61
428.355	4.49
428.561	4.53
428.766	4.38
428.971	4.48
429.177	4.28
429.382	4.33
429.587	4.44
429.793	4.05
429.998	3.81
430.203	3.9
430.408	3.87
430.614	3.79
430.819	3.72
431.024	3.87
431.229	3.86
431.434	3.88
431.64	3.93
431.845	3.89
432.05	4.18
432.255	4.26
432.46	4.33
432.665	4.32
432.87	4.41
433.076	4.3
433.281	4.26
433.486	4.41
433.691	4.36
433.896	4.31
434.101	4.24
434.306	4.08
434.511	3.93
434.716	3.69
434.921	3.78
435.126	3.65
435.331	3.85
435.535	3.98
435.74	3.73
435.945	3.76
436.15	3.9
436.355	4.07
436.56	4.21
436.765	4.31
436.97	4.39
437.174	4.27
437.379	4.32
437.584	4.26
437.789	4.05
437.993	4.2
438.198	4.04
438.403	3.99
438.608	3.8
438.812	3.68
439.017	3.65
439.222	3.6
439.426	3.57
439.631	3.74
439.836	3.78
440.04	4.01
440.245	3.93
440.45	4
440.654	3.91
440.859	3.85
441.063	3.86
441.268	3.83
441.472	3.91
441.677	4
441.881	3.73
442.086	3.62
442.29	3.66
442.495	3.56
442.699	3.64
442.904	3.67
443.108	3.7
443.312	3.62
443.517	3.5
443.721	3.35
443.925	3.31
444.13	3.64
444.334	3.62
444.538	3.55
444.743	3.56
444.947	3.49
445.151	3.48
445.356	3.57
445.56	3.56
445.764	3.7
445.968	3.71
446.173	3.76
446.377	3.63
446.581	3.6
446.785	3.6
446.989	3.71
447.193	3.75
447.398	3.77
447.602	3.86
447.806	3.95
448.01	3.95
448.214	4.1
448.418	4.01
448.622	4.03
448.826	4.13
449.03	4.15
449.234	4.19
449.438	4.19
449.642	4.21
449.846	4.01
450.05	3.97
450.254	4.01
450.458	3.9
450.662	3.85
450.866	3.73
451.069	3.68
451.273	3.61
451.477	3.39
451.681	3.38
451.885	3.22
452.089	3.19
452.292	3.19
452.496	3.25
452.7	3.35
452.904	3.36
453.107	3.33
453.311	3.14
453.515	3.15
453.719	3.22
453.922	3.28
454.126	3.18
454.33	3.06
454.533	2.93
454.737	2.87
454.94	2.88
455.144	3.04
455.348	3.1
455.551	3.11
455.755	2.9
455.958	2.89
456.162	2.66
456.365	2.84
456.569	2.84
456.772	3.01
456.976	2.95
457.179	2.78
457.383	2.65
457.586	2.79
457.79	2.96
457.993	3.23
458.196	3.32
458.4	3.53
458.603	3.69
458.807	3.79
459.01	3.75
459.213	3.78
459.417	3.81
459.62	3.88
459.823	3.88
460.026	3.93
460.23	3.88
460.433	3.8
460.636	3.79
460.839	3.63
461.042	3.68
461.246	3.73
461.449	3.79
461.652	3.79
461.855	3.59
462.058	3.37
462.261	3.28
462.464	3.28
462.668	3.39
462.871	3.33
463.074	3.35
463.277	3.15
463.48	3.22
463.683	2.99
463.886	2.89
464.089	3.18
464.292	3.25
464.495	3.19
464.698	3.3
464.901	3.24
465.104	3.27
465.306	3.31
465.509	3.49
465.712	3.41
465.915	3.4
466.118	3.57
466.321	3.41
466.524	3.51
466.726	3.44
466.929	3.35
467.132	3.42
467.335	3.48
467.538	3.55
467.74	3.4
467.943	3.33
468.146	3.54
468.348	3.59
468.551	3.66
468.754	3.73
468.956	3.82
469.159	3.81
469.362	3.64
469.564	3.5
469.767	3.56
469.969	3.63
470.172	3.75
470.375	3.58
470.577	3.43
470.78	3.68
470.982	3.81
471.185	3.94
471.387	3.98
471.59	4.19
471.792	4.31
471.995	4.05
472.197	4.17
472.399	4.08
472.602	4.16
472.804	4.31
473.007	4.09
473.209	4
473.411	4
473.614	3.86
473.816	3.75
474.018	3.76
474.22	3.82
474.423	3.81
474.625	3.74
474.827	3.74
475.03	3.54
475.232	3.45
475.434	3.43
475.636	3.39
475.838	3.52
476.04	3.63
476.243	3.49
476.445	3.6
476.647	3.47
476.849	3.41
477.051	3.46
477.253	3.57
477.455	3.66
477.657	3.55
477.859	3.57
478.061	3.63
478.263	3.63
478.465	3.57
478.667	3.49
478.869	3.51
479.071	3.63
479.273	3.63
479.475	3.49
479.677	3.49
479.879	3.6
480.081	3.39
480.283	3.29
480.485	3.17
480.686	3.3
480.888	3.31
481.09	3.37
481.292	3.32
481.494	3.29
481.695	3.51
481.897	3.56
482.099	3.57
482.301	3.74
482.502	3.77
482.704	3.78
482.906	3.8
483.107	3.89
483.309	3.88
483.511	3.94
483.712	3.95
483.914	3.91
484.115	3.92
484.317	3.88
484.519	3.86
484.72	3.86
484.922	3.88
485.123	3.88
485.325	3.81
485.526	3.82
485.728	3.78
485.929	3.81
486.131	3.85
486.332	3.75
486.534	3.84
486.735	3.87
486.936	3.86
487.138	3.9
487.339	3.84
487.541	3.9
487.742	3.89
487.943	3.87
488.144	3.82
488.346	3.76
488.547	3.8
488.748	3.75
488.95	3.82
489.151	3.81
489.352	3.78
489.553	3.81
489.755	3.79
489.956	3.75
490.157	3.79
490.358	3.92
490.559	3.86
490.76	3.91
490.961	3.93
491.163	3.85
491.364	3.77
491.565	3.72
491.766	3.69
491.967	3.7
492.168	3.7
492.369	3.69
492.57	3.57
492.771	3.65
492.972	3.57
493.173	3.54
493.374	3.53
493.575	3.62
493.776	3.69
493.976	3.86
494.177	3.87
494.378	3.89
494.579	3.8
494.78	3.8
494.981	3.74
495.182	3.81
495.382	3.78
495.583	3.76
495.784	3.76
495.985	3.82
496.185	3.74
496.386	3.7
496.587	3.67
496.788	3.69
496.988	3.85
497.189	3.97
497.39	4
497.59	3.89
497.791	3.89
497.992	3.89
498.192	3.8
498.393	3.81
498.593	3.99
498.794	4
498.994	4.09
499.195	4.07
499.395	4.13
499.596	4.19
499.796	4.31
499.997	4.29
500.197	4.17
500.398	4.18
500.598	4.08
500.799	4.07
500.999	4.22
501.199	4.31
501.4	4.28
501.6	4.16
501.801	4.16
502.001	4.15
502.201	4.18
502.402	4.2
502.602	4.37
502.802	4.4
503.002	4.32
503.203	4.25
503.403	4.26
503.603	4.25
503.803	4.31
504.003	4.38
504.204	4.4
504.404	4.48
504.604	4.61
504.804	4.57
505.004	4.47
505.204	4.41
505.404	4.38
505.604	4.29
505.804	4.28
506.005	4.15
506.205	3.97
506.405	4.1
506.605	4.08
506.805	4.17
507.005	4.15
507.204	4.24
507.404	4.3
507.604	4.41
507.804	4.49
508.004	4.52
508.204	4.57
508.404	4.63
508.604	4.51
508.804	4.55
509.003	4.65
509.203	4.47
509.403	4.46
509.603	4.32
509.803	4.29
510.002	4.28
510.202	4.32
510.402	4.35
510.602	4.36
510.801	4.47
511.001	4.39
511.201	4.31
511.4	4.45
511.6	4.53
511.8	4.63
511.999	4.58
512.199	4.5
512.398	4.29
512.598	4.31
512.797	4.47
512.997	4.4
513.197	4.45
513.396	4.35
513.596	4.46
513.795	4.44
513.994	4.47
514.194	4.48
514.393	4.49
514.593	4.63
514.792	4.54
514.992	4.38
515.191	4.51
515.39	4.34
515.59	4.37
515.789	4.19
515.988	4.13
516.188	4.21
516.387	4.29
516.586	4.39
516.786	4.45
516.985	4.51
517.184	4.6
517.383	4.53
517.582	4.69
517.782	4.66
517.981	4.76
518.18	4.87
518.379	4.77
518.578	4.8
518.777	4.74
518.976	4.72
519.176	4.77
519.375	4.7
519.574	4.6
519.773	4.67
519.972	4.72
520.171	4.72
520.37	4.74
520.569	4.8
520.768	4.79
520.967	4.78
521.166	4.91
521.365	4.9
521.564	5.01
521.762	5.15
521.961	5.05
522.16	5.04
522.359	4.92
522.558	4.84
522.757	4.93
522.956	4.95
523.154	4.93
523.353	4.81
523.552	4.88
523.751	4.87
523.949	4.92
524.148	4.91
524.347	4.94
524.546	5.02
524.744	5.08
524.943	5.03
525.142	5.07
525.34	5.2
525.539	5.17
525.737	5.17
525.936	5.22
526.135	5.21
526.333	5.23
526.532	5.31
526.73	5.34
526.929	5.3
527.127	5.34
527.326	5.35
527.524	5.31
527.723	5.34
527.921	5.35
528.12	5.25
528.318	5.3
528.516	5.35
528.715	5.26
528.913	5.3
529.112	5.33
529.31	5.29
529.508	5.29
529.707	5.35
529.905	5.35
530.103	5.37
530.301	5.51
530.5	5.5
530.698	5.46
530.896	5.56
531.094	5.56
531.293	5.5
531.491	5.61
531.689	5.63
531.887	5.62
532.085	5.71
532.283	5.62
532.481	5.59
532.68	5.59
532.878	5.72
533.076	5.78
533.274	5.78
533.472	5.94
533.67	5.88
533.868	5.84
534.066	5.87
534.264	5.82
534.462	5.96
534.66	5.93
534.858	6.04
535.056	6.01
535.253	6
535.451	6.05
535.649	6.1
535.847	6.09
536.045	6.21
536.243	6.33
536.441	6.36
536.638	6.34
536.836	6.35
537.034	6.23
537.232	6.27
537.43	6.27
537.627	6.27
537.825	6.16
538.023	6.35
538.22	6.37
538.418	6.31
538.616	6.32
538.813	6.37
539.011	6.58
539.209	6.74
539.406	6.53
539.604	6.49
539.801	6.51
539.999	6.64
540.196	6.55
540.394	6.51
540.591	6.55
540.789	6.56
540.986	6.55
541.184	6.5
541.381	6.51
541.579	6.56
541.776	6.64
541.974	6.66
542.171	6.64
542.368	6.66
542.566	6.7
542.763	6.71
542.96	6.8
543.158	6.85
543.355	6.85
543.552	6.9
543.75	6.88
543.947	6.83
544.144	6.92
544.341	6.87
544.539	6.92
544.736	6.92
544.933	6.88
545.13	6.78
545.327	6.78
545.524	6.71
545.722	6.66
545.919	6.77
546.116	6.9
546.313	6.92
546.51	6.93
546.707	6.95
546.904	6.97
547.101	7.03
547.298	7.19
547.495	7.23
547.692	7.24
547.889	7.39
548.086	7.53
548.283	7.54
548.48	7.4
548.677	7.47
548.874	7.44
549.07	7.36
549.267	7.38
549.464	7.42
549.661	7.52
549.858	7.82
550.055	7.71
550.251	7.65
550.448	7.62
550.645	7.82
550.842	8.04
551.038	8.06
551.235	8.14
551.432	8.14
551.628	8.07
551.825	8.08
552.022	8.02
552.218	8.08
552.415	8.13
552.612	8.36
552.808	8.4
553.005	8.37
553.201	8.35
553.398	8.59
553.594	8.87
553.791	8.77
553.987	8.86
554.184	9.1
554.38	9.19
554.577	9.22
554.773	9.3
554.97	9.19
555.166	9.33
555.362	9.6
555.559	9.62
555.755	9.31
555.952	9.56
556.148	9.54
556.344	9.21
556.541	9.28
556.737	9.26
556.933	9.12
557.129	9.48
557.326	9.4
557.522	9.19
557.718	9.22
557.914	9.51
558.11	9.53
558.307	9.44
558.503	9.62
558.699	9.4
558.895	9.35
559.091	9.36
559.287	9.08
559.483	9.09
559.679	9.32
559.876	9.16
560.072	9
560.268	8.85
560.464	8.95
560.66	8.93
560.856	9.1
561.052	9.17
561.247	9.07
561.443	9.34
561.639	9.32
561.835	9.58
562.031	9.49
562.227	9.55
562.423	9.68
562.619	9.56
562.815	9.69
563.01	9.76
563.206	9.86
563.402	10.1
563.598	9.84
563.793	9.96
563.989	9.71
564.185	10
564.381	10.1
564.576	10.12
564.772	10.52
564.968	10.44
565.163	10.32
565.359	10.37
565.555	10.33
565.75	10.38
565.946	10.42
566.141	10.5
566.337	10.34
566.532	10.35
566.728	10.35
566.923	10.09
567.119	9.99
567.314	10.08
567.51	10.08
567.705	10.15
567.901	10.32
568.096	10.46
568.292	10.26
568.487	10.53
568.682	10.46
568.878	10.69
569.073	10.66
569.268	11.03
569.464	11.12
569.659	11.1
569.854	11.06
570.05	10.96
570.245	10.53
570.44	10.74
570.635	10.7
570.831	10.75
571.026	10.44
571.221	10.5
571.416	10.49
571.611	10.38
571.806	10.26
572.002	10.35
572.197	10.41
572.392	10.54
572.587	10.47
572.782	10.47
572.977	10.54
573.172	10.69
573.367	10.73
573.562	10.66
573.757	10.8
573.952	11.12
574.147	11.13
574.342	11.19
574.537	11.32
574.732	11.36
574.927	11.44
575.121	11.38
575.316	11.47
575.511	11.61
575.706	11.7
575.901	11.6
576.096	11.41
576.29	11.31
576.485	11.29
576.68	11
576.875	11.24
577.069	11.05
577.264	11.18
577.459	10.91
577.654	10.61
577.848	10.52
578.043	10.68
578.238	10.62
578.432	10.68
578.627	10.47
578.821	10.97
579.016	10.63
579.21	10.95
579.405	10.95
579.6	11.12
579.794	11.35
579.989	11.26
580.183	11.13
580.378	11.39
580.572	11.37
580.766	11.52
580.961	11.23
581.155	11.3
581.35	11.13
581.544	11.02
581.738	11.12
581.933	11.02
582.127	10.92
582.321	10.9
582.516	10.75
582.71	10.93
582.904	11.11
583.099	11.29
583.293	11.17
583.487	11.2
583.681	11.23
583.875	11.15
584.07	11.26
584.264	11.54
584.458	11.66
584.652	11.58
584.846	11.21
585.04	10.99
585.234	11.07
585.428	11.29
585.623	11.12
585.817	11.03
586.011	11.16
586.205	11.1
586.399	11.17
586.593	11.2
586.787	11.34
586.981	11.4
587.174	11.47
587.368	11.43
587.562	11.67
587.756	11.74
587.95	11.87
588.144	11.77
588.338	11.7
588.532	11.45
588.725	11.42
588.919	11.36
589.113	11.56
589.307	11.55
589.501	11.54
589.694	11.29
589.888	11.45
590.082	11.5
590.275	11.74
590.469	11.83
590.663	11.87
590.856	11.79
591.05	12.02
591.244	11.84
591.437	12.09
591.631	12.04
591.824	12.13
592.018	11.98
592.212	12
592.405	11.77
592.599	12.09
592.792	12.18
592.986	12.14
593.179	12.13
593.372	12.34
593.566	12.27
593.759	12.32
593.953	12.26
594.146	12.25
594.339	12.13
594.533	12.03
594.726	11.79
594.92	11.92
595.113	12.11
595.306	12.19
595.499	12.12
595.693	12.48
595.886	12.32
596.079	12.47
596.272	12.47
596.466	12.73
596.659	12.8
596.852	12.81
597.045	12.68
597.238	12.65
597.431	12.49
597.624	12.54
597.818	12.2
598.011	12.42
598.204	12.18
598.397	12.25
598.59	12.21
598.783	12.29
598.976	12.15
599.169	12.12
599.362	11.94
599.555	12.05
599.748	11.88
599.941	11.84
600.134	11.89
600.326	11.96
600.519	11.93
600.712	11.73
600.905	11.88
601.098	12.08
601.291	12.13
601.483	12.52
601.676	12.52
601.869	12.8
602.062	12.57
602.255	12.43
602.447	12.37
602.64	12.39
602.833	12.4
603.025	12.51
603.218	12.62
603.411	12.56
603.603	12.39
603.796	12.29
603.989	12.32
604.181	12.57
604.374	12.5
604.566	12.77
604.759	12.79
604.951	12.77
605.144	12.46
605.336	12.42
605.529	12.3
605.721	12.34
605.914	12.44
606.106	12.41
606.299	12.19
606.491	12.36
606.683	12.14
606.876	12.08
607.068	12.14
607.26	12.18
607.453	11.86
607.645	12.13
607.837	11.87
608.03	11.83
608.222	11.65
608.414	11.69
608.606	11.56
608.799	11.32
608.991	11.3
609.183	11.36
609.375	11.33
609.567	11.41
609.759	11.28
609.952	11.32
610.144	11.06
610.336	10.94
610.528	10.95
610.72	10.71
610.912	10.74
611.104	10.71
611.296	10.35
611.488	10.1
611.68	10.07
611.872	10.14
612.064	10.23
612.256	10.42
612.448	10.48
612.64	10.4
612.832	10.53
613.023	10.58
613.215	10.6
613.407	10.9
613.599	11.1
613.791	11.17
613.983	11.04
614.174	10.98
614.366	10.78
614.558	10.86
614.75	11.09
614.941	10.98
615.133	11.2
615.325	11.1
615.516	11.33
615.708	11.69
615.9	12.04
616.091	12.38
616.283	12.65
616.475	12.73
616.666	12.75
616.858	12.48
617.049	12.98
617.241	12.95
617.432	13.29
617.624	12.96
617.815	12.99
618.007	12.71
618.198	12.33
618.39	12.22
618.581	12.34
618.773	12.34
618.964	12.39
619.155	12
619.347	11.98
619.538	11.6
619.729	11.79
619.921	11.67
620.112	11.73
620.303	11.51
620.494	11.33
620.686	11.37
620.877	11.3
621.068	11.6
621.259	11.68
621.451	11.84
621.642	12.28
621.833	12.36
622.024	12.31
622.215	12.21
622.406	12.42
622.597	12.64
622.788	12.68
622.98	12.67
623.171	12.48
623.362	12.55
623.553	12.11
623.744	11.63
623.935	11.55
624.126	11.7
624.317	11.8
624.508	11.98
624.698	12.06
624.889	12.02
625.08	11.96
625.271	11.94
625.462	12.18
625.653	12.37
625.844	12.61
626.034	12.2
626.225	11.95
626.416	11.85
626.607	11.94
626.798	11.76
626.988	11.78
627.179	11.87
627.37	11.73
627.56	11.59
627.751	11.59
627.942	11.81
628.132	12.24
628.323	12.46
628.514	12.29
628.704	12.22
628.895	12.31
629.085	12.36
629.276	12.39
629.466	12.8
629.657	12.63
629.847	12.47
630.038	12.31
630.228	11.94
630.419	11.78
630.609	11.79
630.8	12.04
630.99	11.89
631.181	11.84
631.371	12.04
631.561	11.79
631.752	11.51
631.942	11.58
632.132	11.54
632.323	11.48
632.513	11.59
632.703	11.8
632.893	11.23
633.084	11.23
633.274	11.02
633.464	11.2
633.654	11.34
633.844	11.66
634.034	11.92
634.225	11.98
634.415	12.27
634.605	12.44
634.795	12.38
634.985	12.81
635.175	12.73
635.365	12.7
635.555	12.33
635.745	12.4
635.935	12.48
636.125	12.36
636.315	12.16
636.505	12.14
636.695	11.77
636.885	11.93
637.075	11.87
637.265	11.97
637.455	12.31
637.644	12.58
637.834	12.43
638.024	12.41
638.214	12.27
638.404	12.44
638.593	12.39
638.783	12.6
638.973	12.53
639.163	12.49
639.352	12.53
639.542	12.82
639.732	12.56
639.921	12.41
640.111	12.81
640.301	12.65
640.49	12.52
640.68	12.58
640.87	12.27
641.059	12.12
641.249	12.19
641.438	12.38
641.628	11.96
641.817	12.05
642.007	12.09
642.196	11.56
642.386	11.91
642.575	11.61
642.764	11.62
642.954	11.86
643.143	12.05
643.333	12.08
643.522	11.83
643.711	11.85
643.901	11.62
644.09	11.47
644.279	11.46
644.469	11.38
644.658	11.94
644.847	11.86
645.036	11.59
645.226	11.04
645.415	11.13
645.604	11.43
645.793	11.29
645.982	11.81
646.171	12.19
646.361	11.9
646.55	12.4
646.739	12.28
646.928	12.19
647.117	12.35
647.306	13.23
647.495	13.33
647.684	13.36
647.873	13.49
648.062	13.26
648.251	12.76
648.44	13.2
648.629	12.78
648.818	12.81
649.007	12.74
649.196	13.11
649.384	12.74
649.573	12.5
649.762	11.66
649.951	11.61
650.14	11.46
650.328	11.89
650.517	11.84
650.706	12.13
650.895	12.23
651.083	12.47
651.272	11.92
651.461	12.2
651.65	12.17
651.838	12.87
652.027	12.95
652.216	13.07
652.404	12.91
652.593	13.01
652.781	12.64
652.97	12.71
653.158	12.86
653.347	13.31
653.535	12.93
653.724	13.02
653.912	12.84
654.101	12.8
654.289	12.71
654.478	12.75
654.666	12.84
654.855	13.05
655.043	12.46
655.231	12.68
655.42	12.38
655.608	12.57
655.796	12.64
655.985	12.63
656.173	12.23
656.361	12.26
656.55	12.16
656.738	11.99
656.926	11.47
657.114	12.14
657.302	11.77
657.491	11.36
657.679	11.4
657.867	11.28
658.055	11.63
658.243	11.96
658.431	11.77
658.619	11.92
658.807	11.59
658.996	12.06
659.184	11.59
659.372	11.87
659.56	12.37
659.748	12.11
659.936	12.4
660.124	12.27
660.311	12.2
660.499	12.26
660.687	12.36
660.875	12.8
661.063	13
661.251	13.24
661.439	12.82
661.627	12.77
661.814	12.91
662.002	12.64
662.19	12.5
662.378	12.82
662.565	12.84
662.753	12.66
662.941	12.43
663.129	11.64
663.316	11.43
663.504	11.74
663.692	11.74
663.879	12.13
664.067	12.31
664.254	12.44
664.442	12.13
664.63	11.96
664.817	12.11
665.005	12.19
665.192	12.91
665.38	12.84
665.567	12.73
665.755	13.03
665.942	12.68
666.13	12.31
666.317	12.54
666.504	13.1
666.692	13.23
666.879	13.16
667.067	12.98
667.254	12.69
667.441	13.24
667.629	13.18
667.816	12.84
668.003	12.55
668.19	12.57
668.378	12.44
668.565	11.69
668.752	12.32
668.939	12.26
669.127	11.69
669.314	11.94
669.501	11.59
669.688	11.76
669.875	11.95
670.062	12.31
670.249	12.18
670.436	11.93
670.623	12.34
670.81	11.88
670.997	11.55
671.184	12.55
671.371	12.07
671.558	12.16
671.745	11.62
671.932	11.32
672.119	11.49
672.306	11.45
672.493	11.32
672.68	11.13
672.867	11.02
673.054	11.43
673.24	11.26
673.427	11.44
673.614	11.1
673.801	11.17
673.988	11.28
674.174	11.95
674.361	12.17
674.548	12.74
674.734	12.84
674.921	12.9
675.108	12.97
675.294	12.9
675.481	13.24
675.668	13.45
675.854	14
676.041	14.2
676.227	13.54
676.414	13.49
676.601	12.97
676.787	13.03
676.974	13.08
677.16	12.88
677.347	13.11
677.533	12.72
677.719	13.12
677.906	12.93
678.092	12.83
678.279	12.33
678.465	12.18
678.651	12.47
678.838	12.49
679.024	12.79
679.21	13.05
679.397	13.13
679.583	12.8
679.769	12.31
679.955	12.43
680.142	12.3
680.328	12.5
680.514	12.81
680.7	12.68
680.886	12.41
681.073	12.27
681.259	12.13
681.445	12.25
681.631	12.53
681.817	12.58
682.003	12.98
682.189	12.89
682.375	13.05
682.561	12.83
682.747	12.71
682.933	12.64
683.119	12.08
683.305	12.15
683.491	11.88
683.677	12.06
683.863	12.4
684.049	11.6
684.235	11.51
684.42	11.4
684.606	11.71
684.792	12.04
684.978	11.85
685.164	12.21
685.349	12.13
685.535	12.58
685.721	12.71
685.907	12.69
686.092	12.76
686.278	12.73
686.464	12.79
686.649	12.6
686.835	12.38
687.021	13.03
687.206	13.41
687.392	13.54
687.577	13.71
687.763	13.92
687.948	13.63
688.134	13.64
688.319	13.77
688.505	14.11
688.69	14.25
688.876	14.49
689.061	13.96
689.247	13.48
689.432	13.33
689.618	13.26
689.803	13.75
689.988	13.97
690.174	13.9
690.359	13.96
690.544	13.46
690.73	13.05
690.915	12.87
691.1	13.2
691.285	13.4
691.471	13.89
691.656	13.19
691.841	12.3
692.026	11.86
692.211	12.31
692.396	12.65
692.582	13.07
692.767	13.5
692.952	12.92
693.137	12.45
693.322	12.75
693.507	12.37
693.692	12.29
693.877	12.26
694.062	12.97
694.247	13.19
694.432	13.1
694.617	12.12
694.802	11.92
694.987	12.4
695.172	13.46
695.357	13.07
695.541	12.48
695.726	12.82
695.911	13.09
696.096	13.09
696.281	13.15
696.466	13.47
696.65	14.27
696.835	14.25
697.02	14.49
697.204	13.73
697.389	13.7
697.574	14.13
697.759	13.95
697.943	13.94
698.128	13.98
698.312	13.88
698.497	13.73
698.682	13.42
698.866	13.19
699.051	13.42
699.235	13.73
699.42	13.77
699.604	13.9
699.789	13.93
699.973	13.58
700.158	13.57
700.342	13.63
700.527	13.35
700.711	14.07
700.895	14.17
701.08	14.12
701.264	14.21
701.448	14.26
701.633	13.87
701.817	14.4
702.001	14.59
702.186	14.53
702.37	14.4
702.554	14.91
702.738	14.15
702.923	14.77
703.107	14.16
703.291	14.04
703.475	13.88
703.659	13.78
703.843	12.4
704.027	12.2
704.212	12.03
704.396	11.65
704.58	11.32
704.764	11.48
704.948	11.21
705.132	10.84
705.316	10.64
705.5	10.78
705.684	10.61
705.868	11.18
706.052	11.7
706.235	11.77
706.419	12.09
706.603	12.06
706.787	12.33
706.971	12.04
707.155	12.22
707.339	12.14
707.522	12.55
707.706	13.51
707.89	12.8
708.074	13.27
708.257	13.1
708.441	13.11
708.625	13.03
708.808	12.45
708.992	12.67
709.176	13.01
709.359	13.13
709.543	12.79
709.727	12.09
709.91	12.77
710.094	11.79
710.277	11.77
710.461	11.62
710.644	11.68
710.828	11.68
711.011	12.23
711.195	12.16
711.378	12.12
711.562	11.94
711.745	11.85
711.928	11.57
712.112	11.75
712.295	11.74
712.478	11.31
712.662	11.79
712.845	11.37
713.028	10.31
713.212	10.82
713.395	10.63
713.578	10.4
713.761	10.6
713.945	11.23
714.128	10.67
714.311	10.42
714.494	11.08
714.677	10.35
714.86	10.87
715.043	11.98
715.227	11.31
715.41	11.89
715.593	12.18
715.776	12.62
715.959	12.69
716.142	13.6
716.325	14.2
716.508	13.82
716.691	14.37
716.874	15.27
717.057	15.17
717.239	15.58
717.422	15.43
717.605	14.93
717.788	14.3
717.971	14.38
718.154	13.78
718.337	13.93
718.519	13.78
718.702	13.31
718.885	13.22
719.068	13
719.25	12.71
719.433	12.59
719.616	13.37
719.798	13.9
719.981	13.02
720.164	13.32
720.346	13.11
720.529	12.71
720.712	12.45
720.894	10.91
721.077	10.17
721.259	10.31
721.442	9.86
721.624	10.35
721.807	8.92
721.989	10.12
722.172	11.01
722.354	9.76
722.537	11.3
722.719	12.16
722.901	12.61
723.084	13.46
723.266	12.89
723.448	12.98
723.631	12.81
723.813	13.83
723.995	13.25
724.178	13.28
724.36	13.82
724.542	12.39
724.724	11.75
724.907	11.34
725.089	10.89
725.271	11.14
725.453	10.8
725.635	10.3
725.817	10.18
725.999	9.63
726.181	9.25
726.364	9.12
726.546	9.22
726.728	9.17
726.91	10.45
727.092	9.58
727.274	9.17
727.456	10.14
727.638	10.84
727.819	11.63
728.001	12.43
728.183	12.21
728.365	11.38
728.547	11.84
728.729	10.94
728.911	10.62
729.093	11.71
729.274	12
729.456	11.09
729.638	10.74
729.82	11.32
730.001	11.67
730.183	10.77
730.365	12.27
730.546	13.28
730.728	13.71
730.91	13.98
731.091	13.05
731.273	13.35
731.455	13.61
731.636	14.26
731.818	12.86
731.999	12.93
732.181	13.59
732.362	13.43
732.544	12.8
732.725	12.28
732.907	12.22
733.088	13.17
733.27	14.33
733.451	14.8
733.633	13.32
733.814	13.57
733.995	12.99
734.177	13.83
734.358	13.29
734.539	12.73
734.721	14.92
734.902	13.5
735.083	13.28
735.264	12.87
735.446	11.91
735.627	12.97
735.808	11.9
735.989	11.58
736.17	10.6
736.351	10.91
736.533	11.32
736.714	10.66
736.895	13.71
737.076	13.34
737.257	11.75
737.438	13.25
737.619	12.57
737.8	14.28
737.981	14.16
738.162	13.24
738.343	13.36
738.524	12.61
738.705	13.3
738.886	11.09
739.067	11.89
739.247	11.41
739.428	11.12
739.609	11.13
739.79	11.51
739.971	11.26
740.151	12.02
740.332	11.9
740.513	12.43
740.694	11.28
740.874	11.74
741.055	11.53
741.236	12.65
741.417	11.81
741.597	12.44
741.778	11.13
741.958	11.5
742.139	11.71
742.32	11.74
742.5	11.4
742.681	12
742.861	12.51
743.042	11.92
743.222	11.21
743.403	11.46
743.583	10.72
743.764	10.78
743.944	11.46
744.124	12.11
744.305	12.56
744.485	13.7
744.666	13.7
744.846	12.92
745.026	12.48
745.207	13.18
745.387	13.56
745.567	13.51
745.747	13.66
745.928	11.82
746.108	12.04
746.288	12.89
746.468	10.77
746.648	10.73
746.829	10.09
747.009	11.12
747.189	11.08
747.369	10.49
747.549	11.45
747.729	12.13
747.909	14.08
748.089	13.11
748.269	11.33
748.449	12.86
748.629	12.29
748.809	12.06
748.989	11.69
749.169	12.02
749.349	12.71
749.529	12.62
749.709	13.13
749.889	12.17
750.068	12.2
750.248	11.52
750.428	11.6
750.608	11.64
750.788	12.26
750.967	10.99
751.147	11.58
751.327	11.76
751.507	11.44
751.686	10.27
751.866	10.07
752.046	10.26
752.225	10.9
752.405	10.25
752.585	11.17
752.764	12.12
752.944	14.21
753.123	13.06
753.303	11.08
753.482	12.71
753.662	12.26
753.841	12.34
754.021	13.21
754.2	13.74
754.38	13.89
754.559	13.61
754.739	12.5
754.918	12.22
755.097	12.84
755.277	14.21
755.456	13.59
755.635	14.27
755.815	14.46
755.994	12.71
756.173	13.31
756.352	14.27
756.532	13.55
756.711	13.94
756.89	12.76
757.069	13.36
757.248	13.37
757.427	12.54
757.607	12
757.786	10.58
757.965	11.41
758.144	11.08
758.323	10.88
758.502	11.99
758.681	11.74
758.86	10.9
759.039	9.86
759.218	8.69
759.397	8.62
759.576	9.43
759.755	10.93
759.934	10.5
760.113	9.95
760.291	8.68
760.47	7.15
760.649	7.04
760.828	7.72
761.007	7.01
761.186	7.8
761.364	7.6
761.543	8.92
761.722	9.42
761.901	10.48
762.079	11.48
762.258	12.15
762.437	12.18
762.615	11.85
762.794	12.77
762.972	12.74
763.151	13.29
763.33	14.72
763.508	13.47
763.687	12.59
763.865	12.28
764.044	12
764.222	11.75
764.401	12.15
764.579	13.16
764.758	12.87
764.936	12.85
765.114	12.59
765.293	11.44
765.471	12.01
765.65	12.59
765.828	12.17
766.006	12.17
766.184	12.35
766.363	11.48
766.541	10.24
766.719	10.2
766.898	10.97
767.076	11.02
767.254	10.61
767.432	9.99
767.61	9.7
767.788	9.8
767.967	8.26
768.145	7.68
768.323	9.61
768.501	10.73
768.679	11.64
768.857	9.75
769.035	9.4
769.213	10.22
769.391	11.12
769.569	13.31
769.747	14.34
769.925	15.41
770.103	17.18
770.281	16.24
770.459	15.49
770.636	16.26
770.814	19.41
770.992	19.19
771.17	17.04
771.348	14.59
771.525	9.32
771.703	9.24
771.881	8.44
772.059	6.89
772.236	7.82
772.414	7.48
772.592	4.59
772.769	5.06
772.947	6.29
773.125	7.68
773.302	11.12
773.48	15.09
773.657	14.53
773.835	14.57
774.013	14.89
774.19	10.91
774.368	10.11
774.545	10.21
774.723	9.24
774.9	7.54
775.077	6.15
775.255	1.78
775.432	1.79
775.61	1.23
775.787	2.2
775.964	2.1
776.142	3.55
776.319	9.07
776.496	10.22
776.674	11.79
776.851	11.36
777.028	12.2
777.205	15.05
777.382	14.54
777.56	14.31
777.737	13.3
777.914	12.34
778.091	15.04
778.268	11.36
778.445	12.39
778.622	11.32
778.8	13.72
778.977	13.34
779.154	11.9
779.331	13.76
779.508	13.3
779.685	15.09
779.862	17.32
780.038	15.55
780.215	15.07
780.392	13.27
780.569	11.35
780.746	10.61
780.923	10.92
781.1	11.05
781.277	9.88
781.453	10.52
781.63	8.41
781.807	8.17
781.984	7.14
782.16	6.88
782.337	8.13
782.514	9.47
782.691	7.67
782.867	6.15
783.044	7.54
783.221	7.95
783.397	7.06
783.574	9.5
783.75	6.96
783.927	12.25
784.103	15.07
784.28	13.26
784.456	12.55
784.633	16.54
784.809	18.55
784.986	16.94
785.162	15.09
785.339	18.65
785.515	18.42
785.692	19.94
785.868	15.14
786.044	12.65
786.221	12.72
786.397	11.46
786.573	6.26
786.749	7.75
786.926	9.42
787.102	10.81
787.278	8.4
787.454	7.73
787.631	9.54
787.807	10.22
787.983	9.58
788.159	9.7
788.335	10.13
788.511	10.17
788.687	9.95
788.863	10.54
789.039	11.23
789.216	10.05
789.392	12.41
789.568	10.21
789.744	11.92
789.919	12.98
790.095	16.25
790.271	17.28
790.447	18.06
790.623	15.07
790.799	12.78
790.975	11.39
791.151	13.96
791.327	13.46
791.502	13.13
791.678	13.22
791.854	12.45
792.03	7.86
792.205	9.04
792.381	7.56
792.557	11.41
792.733	11.35
792.908	10.42
793.084	9.16
793.259	9.19
793.435	6.2
793.611	3.52
793.786	2.28
793.962	5.01
794.137	2.15
794.313	3.24
794.488	2.54
794.664	0.55
794.839	2.73
795.015	2.7
795.19	1.46
795.366	3.47
795.541	2.79
795.716	6.04
795.892	7.65
796.067	11.26
796.242	10.76
796.418	9.73
796.593	12.7
796.768	12.08
796.944	13.53
797.119	12.77
797.294	11.97
797.469	12.87
797.644	12.49
797.82	12.18
797.995	8.4
798.17	9.84
798.345	6.91
798.52	5.06
798.695	5.66
798.87	5.41
799.045	3.75
799.22	6.61
799.395	6.15
799.57	5.2
799.745	3.34
799.92	3.91
800.095	2.36
800.27	6
800.445	8.53
800.62	6.63
800.795	2.39
800.97	5.66
801.145	4.04
801.319	6
801.494	6.55
801.669	6.82
801.844	7.05
802.018	7.81
802.193	8.03
802.368	4.2
802.543	5.31
802.717	7.65
802.892	7.96
803.067	6.11
803.241	6.61
803.416	5.9
803.59	4.84
803.765	5.89
803.94	8.6
804.114	10.98
804.289	16.5
804.463	17.19
804.638	17.12
804.812	17.98
804.986	20.88
805.161	24.61
805.335	22.03
805.51	21.29
805.684	18.28
805.858	17.15
806.033	15.31
806.207	11.93
806.381	10.05
806.556	12.62
806.73	12.58
806.904	9.25
807.078	3.92
807.253	6.84
807.427	3.95
807.601	7.79
807.775	7.73
807.949	7.97
808.123	4.51
808.298	7.46
808.472	4.23
808.646	-0.86
808.82	1.97
808.994	2.98
809.168	0.34
809.342	7.07
809.516	7.33
809.69	6.73
809.864	8.18
810.038	11.04
810.212	9.17
810.385	12.2
810.559	13.93
810.733	14.78
810.907	14.05
811.081	18.94
811.255	14.48
811.428	13.76
811.602	15.78
811.776	8.54
811.95	12.21
812.123	12.43
812.297	9.5
812.471	6.55
812.644	1.41
812.818	3.89
812.992	-3.28
813.165	2.25
813.339	2.07
813.512	5.82
813.686	12.05
813.86	8.54
814.033	7.93
814.207	4.18
814.38	5.53
814.554	12.1
814.727	6.48
814.9	7.59
815.074	3.46
815.247	1.45
815.421	-4.86
815.594	-8.99
815.767	-10.73
815.941	-3.15
816.114	1.45
816.287	5.55
816.46	6.24
816.634	6.56
816.807	10.32
816.98	8.97
817.153	10.45
817.327	5.06
817.5	9.85
817.673	11.65
817.846	5.35
818.019	9.77
818.192	11.64
818.365	6.21
818.538	7.42
818.711	4.79
818.884	8.16
819.057	12.62
819.23	14.78
819.403	12.08
819.576	14.87
819.749	17.38
819.922	14.59
820.095	13.17
820.268	14.95
820.441	17.21
820.614	18.42
820.786	19.51
820.959	14.63
821.132	16.94
821.305	16.55
821.477	15.09
821.65	15.37
821.823	14.12
821.996	13.32
822.168	13.38
822.341	12.7
822.514	11.09
822.686	10.15
822.859	12.03
823.031	11.8
823.204	12.04
823.376	12.45
823.549	12.02
823.722	13.47
823.894	13.78
824.067	13.76
824.239	13.23
824.411	14.44
824.584	14.85
824.756	13.7
824.929	14.15
825.101	14.37
825.273	13.31
825.446	14.93
825.618	13.54
825.79	12.76
825.963	13.01
826.135	14.26
826.307	13.19
826.479	14.88
826.652	15.33
826.824	15.62
826.996	15.14
827.168	16.22
827.34	14
827.512	14.67
827.684	14.79
827.856	14.64
828.029	13.85
828.201	13.05
828.373	11.49
828.545	11.45
828.717	10.46
828.889	10.72
829.061	11.76
829.232	11.65
829.404	9.45
829.576	9.76
829.748	8.99
829.92	9.24
830.092	13.05
830.264	12.13
830.436	11.7
830.607	10.1
830.779	11.25
830.951	8.05
831.123	10.22
831.294	12.34
831.466	11.62
831.638	11.76
831.809	9.07
831.981	7.47
832.153	8.53
832.324	7.48
832.496	8.69
832.667	1.98
832.839	1.55
833.011	1.11
833.182	3.08
833.354	5.1
833.525	7.44
833.697	8.71
833.868	7.73
834.039	9.02
834.211	8.58
834.382	9.41
834.554	11.81
834.725	12.81
834.896	12.5
835.068	11.42
835.239	10.02
835.41	10.88
835.581	11.85
835.753	10.92
835.924	10.52
836.095	11.1
836.266	8.55
836.438	8.49
836.609	9.37
836.78	7.88
836.951	6.72
837.122	5.38
837.293	0.27
837.464	-0.38
837.635	-0.07
837.806	-1.92
837.977	-4.18
838.148	-6.69
838.319	-8.18
838.49	-10.31
838.661	-14.48
838.832	-11.11
839.003	-3.11
839.174	-0.37
839.345	-2.68
839.516	-4.5
839.687	-4.57
839.857	-9.93
840.028	-4.86
840.199	-5.9
840.37	-7.43
840.54	-5.39
840.711	-5.06
840.882	-11.15
841.053	-6.79
841.223	-2.68
841.394	-2.36
841.564	-8.19
841.735	-0.12
841.906	0.29
842.076	5.56
842.247	1.9
842.417	6.77
842.588	6.3
842.758	10.96
842.929	4.79
843.099	3.16
843.27	-0.5
843.44	5.72
843.611	0.54
843.781	-15.77
843.951	-25.38
844.122	-24.48
844.292	-14.29
844.462	-23.55
844.633	-39.68
844.803	-28.06
844.973	-36.43
845.144	-21.74
845.314	-29.4
845.484	-26.65
845.654	-5.24
845.824	2.47
845.995	-9.71
846.165	-38.37
846.335	-53
846.505	-54.81
846.675	-57.36
846.845	-26.64
847.015	-8.48
847.185	-16.74
847.355	13.17
847.525	16.93
847.695	14.85
847.865	28.5
848.035	34.31
848.205	35.62
848.375	38.45
848.545	42.97
848.715	37.57
848.884	23.14
849.054	34.72
849.224	39.74
849.394	30.29
849.564	36.08
849.733	35.94
849.903	21.39
850.073	24.36
850.243	54.99
850.412	19
850.582	13.26
850.752	24.28
850.921	28.86
851.091	26.88
851.26	16.3
851.43	9.59
851.599	18.81
851.769	23.51
851.939	2.57
852.108	-10.72
852.278	-3.14
852.447	0.37
852.616	-27.36
852.786	-91.78
852.955	-78.67
853.125	-67.76
853.294	-61.4
853.463	-62.87
853.633	-28.79
853.802	-3.99
853.971	-17.37
854.141	-24.39
854.31	8.44
854.479	17.49
854.648	13.46
854.818	1.4
854.987	15.74
855.156	11.63
855.325	-0.42
855.494	-20.53
855.663	-31.57
855.832	-9.71
856.001	2.92
856.171	-20.78
856.34	-21.27
856.509	-37.84
856.678	-47.41
856.847	-37.03
857.016	-32.41
857.185	-28.75
857.353	-21.82
857.522	-21.85
857.691	-37.51
857.86	-45.76
858.029	-57.05
858.198	-44
858.367	-40.01
858.535	7.3
858.704	-5.89
858.873	-5.69
859.042	4.88
859.21	-25.31
859.379	12.18
859.548	-2.83
859.717	-20.31
859.885	29.97
860.054	-41.91
860.222	-98.16
860.391	-235.03
860.56	-379.32
860.728	-599.58
860.897	-696.58
861.065	-336.69
861.234	-577.36
861.402	-190.32
861.571	-102.73
861.739	-127.38
861.908	-61.56
862.076	-25.68
862.244	-39.3
862.413	-24.51
862.581	-8.21
862.749	-10.02
862.918	-8.38
863.086	-10.41
863.254	-16.01
863.423	-32.32
863.591	-43.83
863.759	-58.8
863.927	-50.63
864.096	-39.69
864.264	-62.27
864.432	-88.54
864.6	-73.23
864.768	-73.89
864.936	-106.07
865.104	-92.74
865.272	-73.5
865.44	-70.41
865.608	-56.54
865.776	-110.86
865.944	-137.24
866.112	-117.05
866.28	-55.61
866.448	-64.1
866.616	-37.06
866.784	-17.21
866.952	-56.84
867.12	-86.85
867.288	-46.94
867.455	-89.07
867.623	-38.99
867.791	-0.99
867.959	18.27
868.127	27.77
868.294	17.13
868.462	29.72
868.63	35.02
868.797	67.99
868.965	52.86
869.133	53.35
869.3	50.81
869.468	37.59
869.636	5.77
869.803	3.29
869.971	15.3
870.138	2.03
870.306	-9.51
870.473	-20.75
870.641	-36.65
870.808	-22.55
870.975	-25.48
871.143	-27.53
871.31	-7.58
871.478	20.82
871.645	11.97
871.812	-38.5
871.98	-20.31
872.147	-39.9
872.314	-37.75
872.482	-57.29
872.649	-69.72
872.816	-13.14
872.983	-0.59
873.15	-44.47
873.318	-70.96
873.485	-52.73
873.652	-15.6
873.819	-13.74
873.986	-33.54
874.153	-47.8
874.32	-27.01
874.487	-57.9
874.654	-133
874.821	-195.13
874.988	-136.84
875.155	-142.92
875.322	-179.28
875.489	-434.63
875.656	-395.83
875.823	-434.08
875.99	-177.39
876.157	-873.05
876.324	-122575
876.49	569.8
876.657	565.25
876.824	377.2
876.991	622.9
877.157	1552.78
877.324	874.35
877.491	2185.86
877.658	-376.62
877.824	807.13
877.991	-825.29
878.157	-263.74
878.324	-134.54
878.491	-109.78
878.657	-63.28
878.824	-179.67
878.99	-77.96
879.157	-17.36
879.323	-45.27
879.49	-45.42
879.656	-11.98
879.823	20.93
879.989	26.94
880.156	34.99
880.322	33.51
880.488	40.58
880.655	40.02
880.821	25.92
880.987	23.62
881.154	20.25
881.32	25.71
881.486	25.04
881.652	18.08
881.819	17.21
881.985	17.22
882.151	18.25
882.317	19.4
882.483	17.27
882.649	15.63
882.816	14.03
882.982	16.23
883.148	13.55
883.314	14.22
883.48	13.71
883.646	14.16
883.812	11.73
883.978	7.82
884.144	5.88
884.31	6.18
884.476	4.99
884.642	9.33
884.807	9.84
884.973	8
885.139	9.39
885.305	9.87
885.471	8.7
885.637	8.01
885.802	9.13
885.968	8.93
886.134	9.03
886.3	10.47
886.465	4.13
886.631	5.09
886.797	11.63
886.962	7.91
887.128	11.12
887.293	9
887.459	18.4
887.625	19.98
887.79	21.54
887.956	13.43
888.121	19.35
888.287	17.39
888.452	11.23
888.618	2.48
888.783	-0.51
