Data from 2938059_Reflection_2.txt Node
Date: Sun Jul 12 13:54:44 EDT 2015
User: robert
Spectrometer: USB4E03001
Autoset integration time: false
Trigger mode: 4
Integration Time (sec): 1.000000E-1
Scans to average: 10
Electric dark correction enabled: true
Nonlinearity correction enabled: false
Boxcar width: 5
Stray light correction enabled: false
XAxis mode: Wavelengths
Stop averaging: false
Number of Pixels in Spectrum: 3648
>>>>>Begin Spectral Data<<<<<
177.566	77.87
177.785	90.92
178.005	188.97
178.225	78.16
178.445	100.5
178.665	112.47
178.885	-610.74
179.105	47.5
179.324	25.64
179.544	97.53
179.764	748.15
179.984	874.73
180.204	336.44
180.423	487.76
180.643	249.17
180.863	481.38
181.083	-2186.27
181.302	-190.88
181.522	-173.83
181.742	-212.47
181.961	-56.04
182.181	-92.17
182.401	-91.78
182.621	-201.01
182.84	-187.58
183.06	-63.78
183.279	-41.54
183.499	-74.14
183.719	-36.11
183.938	14.85
184.158	7.03
184.377	-27.53
184.597	-51.63
184.816	-22.55
185.036	19.71
185.256	40.83
185.475	-12.86
185.695	1.64
185.914	3.09
186.134	-28.37
186.353	-32.82
186.572	18.38
186.792	38.53
187.011	24.6
187.231	18.63
187.45	-20.53
187.67	-10.83
187.889	26.23
188.108	-18.46
188.328	-30.92
188.547	-41.58
188.766	-106.52
188.986	-150.61
189.205	-155.87
189.424	-80.58
189.644	-121.48
189.863	-78.13
190.082	-91.81
190.302	-145.52
190.521	-110.84
190.74	-79.76
190.959	-142.15
191.178	-102.79
191.398	-58.09
191.617	-112.32
191.836	-329.17
192.055	-39166.67
192.274	1201.75
192.494	201.6
192.713	51.58
192.932	119.86
193.151	132.79
193.37	-79.83
193.589	-573.06
193.808	454.72
194.027	314.98
194.246	410.77
194.465	-2049.77
194.685	-237.79
194.904	-173.96
195.123	-74.76
195.342	-61.72
195.561	-50.66
195.78	-57.4
195.999	-48.27
196.218	-25.56
196.436	54.86
196.655	48.79
196.874	6.73
197.093	-16.82
197.312	-44.94
197.531	-63.25
197.75	-35.76
197.969	881.01
198.188	-179.06
198.407	-31.79
198.625	10.9
198.844	0.42
199.063	8.28
199.282	-2.07
199.501	-22.69
199.719	-10.37
199.938	-25.58
200.157	-50.98
200.376	-60.51
200.594	-80.2
200.813	-53.72
201.032	-54.45
201.251	-150.57
201.469	-154.2
201.688	-93.02
201.907	-72.46
202.125	-182.44
202.344	-209.21
202.563	-94.01
202.781	-160.62
203	-190.04
203.218	-617.18
203.437	-5002.73
203.656	-471.74
203.874	-317.25
204.093	-264.16
204.311	-329.95
204.53	-251.18
204.748	-259.09
204.967	-935.96
205.185	-313.4
205.404	-296.23
205.622	-190.47
205.841	-185.68
206.059	-491.39
206.278	-834.67
206.496	-6156.86
206.715	1750.47
206.933	1745.06
207.151	-872.75
207.37	-787.57
207.588	-1309.23
207.806	-537.03
208.025	-564.75
208.243	-1261.73
208.461	-482.35
208.68	2039.59
208.898	-414.29
209.116	-157.79
209.335	-180.38
209.553	-30618.18
209.771	-1524.35
209.989	-189.73
210.208	-311.65
210.426	-100.12
210.644	-120.36
210.862	-140.29
211.081	-50.42
211.299	-57.15
211.517	-86.53
211.735	-135.02
211.953	-95.2
212.171	-115.09
212.39	-157.77
212.608	-191.21
212.826	-691.52
213.044	-176.03
213.262	-48.95
213.48	-94.43
213.698	-145.31
213.916	-240.83
214.134	-96.97
214.352	-58.49
214.57	-38.71
214.788	-24.6
215.006	34.41
215.224	62.63
215.442	7.62
215.66	293.02
215.878	67.29
216.096	162.02
216.314	-418.89
216.532	35.9
216.75	-16.37
216.968	-409.42
217.185	-42.48
217.403	-606.74
217.621	-125.48
217.839	-98.39
218.057	-166.67
218.275	-268.74
218.492	-211.2
218.71	-260.98
218.928	-690.74
219.146	-842.47
219.363	-414.86
219.581	-294.91
219.799	-167.59
220.017	-194.93
220.234	-181.05
220.452	-205.89
220.67	-210.86
220.887	-216.96
221.105	-213.6
221.323	-91.5
221.54	-34.29
221.758	-23.28
221.976	-80.05
222.193	-131.95
222.411	-120.95
222.629	-76.99
222.846	-72.64
223.064	-126.88
223.281	-118.62
223.499	-109.08
223.716	-155.55
223.934	-113.56
224.151	-153.08
224.369	-106.85
224.586	-88.05
224.804	-88.73
225.021	-118.01
225.239	-68.92
225.456	-31.05
225.674	-35.73
225.891	-19.63
226.108	-17.98
226.326	-23.1
226.543	-24.77
226.76	-20.2
226.978	-22.19
227.195	-16.44
227.413	-11.08
227.63	-13.41
227.847	-8.49
228.064	-5.48
228.282	-11.83
228.499	-8.2
228.716	-7.28
228.934	-2.78
229.151	0.62
229.368	0.88
229.585	4.74
229.802	5.88
230.02	3.31
230.237	1.8
230.454	-0.17
230.671	-0.89
230.888	-1.22
231.105	-2.19
231.323	-4.55
231.54	-7.95
231.757	-8.67
231.974	-13.37
232.191	-19.35
232.408	-25.36
232.625	-29.79
232.842	-25.3
233.059	-23.89
233.276	-24.87
233.493	-20.12
233.71	-29.49
233.927	-24.93
234.144	-30.94
234.361	-35.59
234.578	-36
234.795	-22.61
235.012	-18.58
235.229	-21.42
235.446	-17.6
235.663	-19.53
235.879	-24
236.096	-18.21
236.313	-19.15
236.53	-17.1
236.747	-16.53
236.964	-16.53
237.181	-15.83
237.397	-13.1
237.614	-8.64
237.831	-14.31
238.048	-12.44
238.264	-12.09
238.481	-13.44
238.698	-17.11
238.915	-12.71
239.131	-13.19
239.348	-6.33
239.565	-7.17
239.781	-4.78
239.998	-9.84
240.215	-8.59
240.431	-6.34
240.648	-5.16
240.865	-0.45
241.081	0.64
241.298	-1.97
241.514	0.78
241.731	-2.54
241.947	-0.93
242.164	-1.99
242.38	0.85
242.597	1.95
242.814	4.02
243.03	3.05
243.246	1.81
243.463	1.71
243.679	3.12
243.896	2.74
244.112	5.68
244.329	5.81
244.545	6.54
244.762	4.57
244.978	4.44
245.194	1.94
245.411	3.82
245.627	4.52
245.843	5.4
246.06	4.99
246.276	5.73
246.492	6.64
246.709	7.39
246.925	7.89
247.141	8.34
247.357	8.89
247.574	8.42
247.79	9.32
248.006	8.74
248.222	9.18
248.439	8.35
248.655	7.75
248.871	6.11
249.087	5.34
249.303	4.74
249.519	3.92
249.736	4.03
249.952	5.29
250.168	3.01
250.384	3.89
250.6	1.97
250.816	2.42
251.032	0.94
251.248	2.83
251.464	2.59
251.68	2.7
251.896	3.26
252.112	3.6
252.328	2.36
252.544	1.47
252.76	-2.45
252.976	-3.67
253.192	-1.16
253.408	1.01
253.624	-0.53
253.84	-2.52
254.056	-3.93
254.272	-6.39
254.487	-9.44
254.703	-9.07
254.919	-7.32
255.135	-1.55
255.351	-0.71
255.567	-4.45
255.782	-5.44
255.998	-5.48
256.214	-4.36
256.43	-1.59
256.646	0.75
256.861	-0.26
257.077	-1.12
257.293	-1.1
257.508	-1.92
257.724	-0.31
257.94	1.34
258.155	2.74
258.371	3.11
258.587	4.84
258.802	5.5
259.018	5.77
259.234	6.7
259.449	7.04
259.665	7.43
259.88	8.09
260.096	8.14
260.312	8.14
260.527	7.51
260.743	7.75
260.958	7.44
261.174	6.47
261.389	6.12
261.605	5.88
261.82	5.36
262.036	5.05
262.251	3.26
262.466	1.93
262.682	2.33
262.897	2.37
263.113	2.43
263.328	1.01
263.543	1.31
263.759	-0
263.974	-1.65
264.189	-1.54
264.405	-2.78
264.62	-1.6
264.835	0.56
265.051	-0.52
265.266	-1.86
265.481	-2.2
265.696	0.89
265.912	1.62
266.127	3.17
266.342	3.08
266.557	2.43
266.773	3.3
266.988	2.98
267.203	1.45
267.418	1.33
267.633	1.76
267.848	1.86
268.064	0.5
268.279	0.29
268.494	0.81
268.709	1.04
268.924	2.44
269.139	2.93
269.354	3.2
269.569	3.47
269.784	4.66
269.999	4.62
270.214	5.15
270.429	5.59
270.644	4.79
270.859	5.16
271.074	5.31
271.289	5.81
271.504	5.61
271.719	6.52
271.934	6.98
272.149	6.04
272.363	5.86
272.578	5.54
272.793	5.24
273.008	6.05
273.223	5.52
273.438	5.66
273.653	4.5
273.867	3.41
274.082	2.44
274.297	2.15
274.512	2.9
274.726	2.71
274.941	2.63
275.156	1.48
275.371	0.07
275.585	0.32
275.8	-0.07
276.015	0.74
276.229	1.88
276.444	2.5
276.659	2.04
276.873	1.55
277.088	2.62
277.302	2.09
277.517	3.77
277.732	4.31
277.946	4.71
278.161	4.13
278.375	3.67
278.59	2.96
278.804	2.19
279.019	2.15
279.233	2.64
279.448	1.56
279.662	1.45
279.877	-0.07
280.091	1.24
280.306	1.58
280.52	3.11
280.735	3.45
280.949	3.4
281.163	3.13
281.378	3.78
281.592	3.63
281.806	4.12
282.021	3.9
282.235	4.78
282.449	4.1
282.664	3.13
282.878	2.23
283.092	2.85
283.307	3.73
283.521	3.42
283.735	4.26
283.949	4.14
284.164	4.7
284.378	4.33
284.592	4.4
284.806	4.87
285.02	5.51
285.234	5.46
285.449	4.66
285.663	4.73
285.877	5.26
286.091	4.72
286.305	4.27
286.519	4.66
286.733	6.01
286.947	6.38
287.161	5.54
287.375	5.2
287.589	5.33
287.803	5.36
288.017	4.98
288.231	4.63
288.445	4.47
288.659	5.17
288.873	3.51
289.087	2.52
289.301	2.22
289.515	2.27
289.729	2.53
289.943	1.68
290.157	2.02
290.371	1.68
290.584	2.48
290.798	2.01
291.012	1.1
291.226	1.36
291.44	1.5
291.654	0.71
291.867	1.25
292.081	0.46
292.295	0.8
292.509	0.27
292.722	0.82
292.936	1.25
293.15	2.26
293.364	2.87
293.577	4.49
293.791	5.2
294.005	5.69
294.218	5.1
294.432	5.92
294.645	6.26
294.859	6.49
295.073	5.15
295.286	3.38
295.5	3.81
295.713	3.88
295.927	3.38
296.14	3.24
296.354	2.49
296.568	3.27
296.781	4.19
296.994	4.69
297.208	5.64
297.421	6.81
297.635	7.58
297.848	6.85
298.062	7.46
298.275	7.71
298.489	7.83
298.702	9.41
298.915	9.3
299.129	8.11
299.342	8.21
299.555	6.64
299.769	5.6
299.982	6.39
300.195	6.29
300.409	5.63
300.622	4.71
300.835	4.86
301.048	4.24
301.262	5
301.475	5.44
301.688	4.84
301.901	4.31
302.115	5.17
302.328	5.22
302.541	5.77
302.754	6.6
302.967	7.27
303.18	7.01
303.393	5.89
303.607	5.6
303.82	4.91
304.033	6.01
304.246	6.66
304.459	6.55
304.672	5.29
304.885	4.78
305.098	3.79
305.311	2.03
305.524	3.45
305.737	3.32
305.95	1.84
306.163	2.37
306.376	2.65
306.589	2.23
306.802	1.89
307.015	2.09
307.228	2.31
307.44	1.91
307.653	3.08
307.866	0.71
308.079	1.08
308.292	1.52
308.505	2.2
308.718	3.06
308.93	3.19
309.143	3.38
309.356	4.67
309.569	5.13
309.781	6.45
309.994	7.17
310.207	7.29
310.42	8.05
310.632	9.1
310.845	8.19
311.058	7.49
311.27	8.9
311.483	9.2
311.696	8.21
311.908	8.04
312.121	6.53
312.333	5.95
312.546	6.12
312.759	5.5
312.971	3.26
313.184	3.6
313.396	2.2
313.609	1.48
313.821	1.65
314.034	3.04
314.246	3.8
314.459	5.33
314.671	4.97
314.884	4.93
315.096	6.3
315.309	7.7
315.521	7.46
315.733	7.6
315.946	7.04
316.158	5.28
316.371	4.48
316.583	2.76
316.795	1.7
317.008	1.31
317.22	1.94
317.432	-0.08
317.644	0.77
317.857	0.78
318.069	0.96
318.281	1.11
318.494	2.94
318.706	1.61
318.918	2.18
319.13	3.38
319.342	6.19
319.555	4.79
319.767	6.18
319.979	5.6
320.191	5.73
320.403	6
320.615	5.91
320.827	5.5
321.039	5.93
321.252	4.26
321.464	3.08
321.676	1.46
321.888	2.99
322.1	3.35
322.312	3.47
322.524	3.25
322.736	3.54
322.948	3.2
323.16	3.91
323.372	4.78
323.584	6.65
323.796	7.88
324.007	7.62
324.219	7.85
324.431	7.34
324.643	6.83
324.855	6.46
325.067	6.9
325.279	6.63
325.491	5.01
325.702	4.94
325.914	4.51
326.126	3.64
326.338	4.19
326.55	3.9
326.761	3.81
326.973	5.35
327.185	6.15
327.396	4.24
327.608	5.77
327.82	7.33
328.032	6.73
328.243	6.15
328.455	6.29
328.666	5.07
328.878	6.02
329.09	6.64
329.301	5.78
329.513	5.47
329.725	5.7
329.936	4.97
330.148	4.35
330.359	4.21
330.571	3.14
330.782	2.5
330.994	4
331.205	3.34
331.417	2.44
331.628	1.55
331.84	2.35
332.051	3.44
332.262	2.65
332.474	3.86
332.685	6.39
332.897	8.88
333.108	8.3
333.319	7.14
333.531	8.19
333.742	8.29
333.953	8.59
334.165	8.85
334.376	10.22
334.587	11.01
334.799	9.91
335.01	8.3
335.221	7.23
335.432	7.85
335.644	7.09
335.855	6.19
336.066	7.61
336.277	7.73
336.488	7.04
336.7	5.55
336.911	5.25
337.122	6.01
337.333	5.82
337.544	7.49
337.755	7.69
337.966	9.83
338.177	9.81
338.388	8.18
338.599	8.83
338.811	8.23
339.022	8.31
339.233	8.76
339.444	8.53
339.655	8.38
339.866	7.06
340.076	7.53
340.287	6.54
340.498	5.45
340.709	6.04
340.92	6.03
341.131	6.28
341.342	6.71
341.553	6.9
341.764	6.02
341.975	6.14
342.185	5.85
342.396	6.44
342.607	5.76
342.818	7.19
343.029	7.14
343.239	5.53
343.45	6.03
343.661	5.97
343.872	4.14
344.082	4.41
344.293	4.19
344.504	5.27
344.714	3.55
344.925	3.83
345.136	2.85
345.346	3.7
345.557	4.22
345.768	3.82
345.978	2.43
346.189	3.17
346.399	2.94
346.61	3.47
346.821	2.35
347.031	2.89
347.242	2.13
347.452	2.55
347.663	1.13
347.873	1.13
348.084	0.98
348.294	2.16
348.504	2.96
348.715	3.14
348.925	3.45
349.136	4.62
349.346	4.34
349.557	5.03
349.767	4.36
349.977	4.11
350.188	4.02
350.398	5.13
350.608	4.85
350.819	3.99
351.029	4.34
351.239	3.77
351.449	2.95
351.66	4.27
351.87	4.15
352.08	5.52
352.29	6.25
352.501	6.76
352.711	5.63
352.921	5.88
353.131	6.26
353.341	6.52
353.552	6.72
353.762	7.21
353.972	7.29
354.182	8
354.392	7.14
354.602	6.67
354.812	6.25
355.022	6.21
355.232	6.22
355.442	6.2
355.652	5.17
355.862	5.21
356.072	4.21
356.282	3.65
356.492	3.14
356.702	3.99
356.912	3.55
357.122	3.28
357.332	2.93
357.542	3.24
357.752	2.95
357.962	3.1
358.171	3.65
358.381	5.13
358.591	4.46
358.801	4
359.011	3.95
359.221	4.58
359.43	5.24
359.64	6.28
359.85	6.01
360.06	5.88
360.269	5.54
360.479	4.92
360.689	4.16
360.899	4.75
361.108	5.49
361.318	4.87
361.528	5.35
361.737	5.77
361.947	5.39
362.156	5.85
362.366	6.51
362.576	7.04
362.785	6.88
362.995	6.61
363.204	6.35
363.414	6.51
363.623	6.81
363.833	7.02
364.042	6.24
364.252	5.68
364.461	4.88
364.671	4.58
364.88	4.41
365.09	4.14
365.299	4.46
365.509	4.82
365.718	4.49
365.927	4.73
366.137	3.68
366.346	3.97
366.555	5
366.765	5.71
366.974	5.49
367.183	5.25
367.393	5.39
367.602	5.27
367.811	4.78
368.021	4.35
368.23	3.43
368.439	3.52
368.648	3.59
368.857	3.18
369.067	2.5
369.276	2.25
369.485	2.64
369.694	2.84
369.903	2.68
370.112	3.43
370.321	2.87
370.531	2.99
370.74	2.91
370.949	2.12
371.158	2.31
371.367	3.01
371.576	3.36
371.785	3.48
371.994	3.75
372.203	3.85
372.412	3.23
372.621	3.76
372.83	4.01
373.039	4.64
373.248	5.33
373.457	4.48
373.666	4.43
373.874	4.58
374.083	4.4
374.292	4.42
374.501	4.7
374.71	4.92
374.919	4.54
375.128	4.65
375.336	3.94
375.545	3.71
375.754	4.08
375.963	3.57
376.171	3.55
376.38	3.69
376.589	3.46
376.798	3.25
377.006	3.36
377.215	4.13
377.424	4.07
377.632	4.25
377.841	3.99
378.05	4.2
378.258	4.22
378.467	4.12
378.675	3.95
378.884	4.14
379.093	4.43
379.301	4.4
379.51	3.72
379.718	3.83
379.927	3.79
380.135	4.16
380.344	3.75
380.552	4.02
380.761	4.63
380.969	4.52
381.177	4.14
381.386	3.99
381.594	3.89
381.803	4.48
382.011	4.27
382.219	4.64
382.428	4.66
382.636	5.11
382.845	5.45
383.053	4.4
383.261	3.79
383.469	3.64
383.678	3.5
383.886	3.85
384.094	3.72
384.302	3.85
384.511	3.7
384.719	3.73
384.927	3.78
385.135	3.5
385.343	3.82
385.552	4.82
385.76	4.98
385.968	5.09
386.176	4.93
386.384	5.07
386.592	4.99
386.8	4.64
387.008	4.63
387.216	4.45
387.424	4.09
387.633	4.08
387.841	3.54
388.049	3.95
388.257	3.59
388.465	3.72
388.672	3.59
388.88	3.53
389.088	3.76
389.296	3.52
389.504	3.31
389.712	3.61
389.92	3.67
390.128	3.73
390.336	3.4
390.544	3.65
390.751	3.31
390.959	3.43
391.167	3.64
391.375	3.74
391.583	3.72
391.79	3.91
391.998	3.92
392.206	3.92
392.414	4.36
392.621	4.46
392.829	4.48
393.037	4.68
393.244	4.49
393.452	3.91
393.66	3.75
393.867	3.96
394.075	3.76
394.283	3.54
394.49	3.68
394.698	3.08
394.905	2.7
395.113	2.46
395.32	2.49
395.528	2.27
395.735	2.57
395.943	2.82
396.15	2.57
396.358	2.88
396.565	2.88
396.773	2.78
396.98	3.24
397.188	3.38
397.395	3.29
397.602	2.93
397.81	3.1
398.017	3.32
398.225	3.58
398.432	3.88
398.639	3.85
398.847	4.21
399.054	3.89
399.261	3.99
399.468	4.04
399.676	3.91
399.883	3.9
400.09	3.57
400.297	3.52
400.505	3.58
400.712	3.03
400.919	2.71
401.126	2.51
401.333	2.99
401.54	2.79
401.748	3.04
401.955	3.26
402.162	2.98
402.369	3.25
402.576	3.17
402.783	2.52
402.99	2.74
403.197	2.66
403.404	2.62
403.611	2.41
403.818	2.37
404.025	2.27
404.232	2.31
404.439	2.93
404.646	2.9
404.853	3.05
405.06	3.33
405.267	3.48
405.474	3.79
405.681	4.01
405.887	4.04
406.094	3.96
406.301	3.9
406.508	3.74
406.715	3.54
406.922	3.37
407.128	3.16
407.335	3
407.542	3.17
407.749	3
407.955	2.39
408.162	2.18
408.369	2.11
408.575	1.91
408.782	2.33
408.989	2.11
409.195	2.45
409.402	2.2
409.609	2.14
409.815	1.86
410.022	2.1
410.228	2.48
410.435	2.52
410.642	2.92
410.848	3.16
411.055	2.95
411.261	2.97
411.468	2.77
411.674	3.07
411.881	3.21
412.087	3.82
412.294	3.68
412.5	3.56
412.706	3.83
412.913	3.4
413.119	3.1
413.326	3.08
413.532	2.94
413.738	3.05
413.945	3.42
414.151	3.22
414.357	2.74
414.564	2.72
414.77	2.85
414.976	2.53
415.182	2.59
415.389	2.55
415.595	2.64
415.801	3.01
416.007	2.98
416.214	2.8
416.42	2.84
416.626	2.88
416.832	2.91
417.038	2.77
417.244	2.95
417.45	2.99
417.657	3.21
417.863	3.09
418.069	3.09
418.275	2.94
418.481	2.8
418.687	2.87
418.893	2.79
419.099	2.87
419.305	2.86
419.511	2.8
419.717	2.79
419.923	2.68
420.129	2.89
420.335	2.75
420.541	2.98
420.746	2.86
420.952	2.98
421.158	2.93
421.364	2.79
421.57	2.93
421.776	2.92
421.982	2.93
422.187	3
422.393	2.92
422.599	2.9
422.805	2.82
423.01	3.06
423.216	3.02
423.422	3.13
423.628	3.3
423.833	3.31
424.039	3.33
424.245	3.42
424.45	3.35
424.656	3.31
424.862	3.42
425.067	3.46
425.273	3.43
425.478	3.42
425.684	3.4
425.889	3.45
426.095	3.46
426.301	3.58
426.506	3.35
426.712	3.55
426.917	3.49
427.123	3.62
427.328	3.38
427.533	3.24
427.739	3.28
427.944	3.27
428.15	3.13
428.355	3.04
428.561	2.88
428.766	2.98
428.971	2.79
429.177	2.93
429.382	2.78
429.587	2.85
429.793	2.97
429.998	2.89
430.203	2.79
430.408	2.47
430.614	2.5
430.819	2.44
431.024	2.5
431.229	2.65
431.434	2.39
431.64	2.15
431.845	2.11
432.05	2.08
432.255	1.92
432.46	2.03
432.665	2.27
432.87	1.97
433.076	2.1
433.281	2.17
433.486	2.16
433.691	2.27
433.896	2.67
434.101	2.84
434.306	2.87
434.511	2.95
434.716	3.04
434.921	2.81
435.126	3.13
435.331	3.19
435.535	3.15
435.74	3.25
435.945	3.3
436.15	3.07
436.355	2.93
436.56	2.87
436.765	2.78
436.97	2.56
437.174	2.76
437.379	2.65
437.584	2.7
437.789	2.59
437.993	2.35
438.198	2.38
438.403	2.28
438.608	2.4
438.812	2.44
439.017	2.64
439.222	2.79
439.426	2.83
439.631	2.86
439.836	2.68
440.04	2.91
440.245	3.13
440.45	3.08
440.654	3.11
440.859	3.11
441.063	3.14
441.268	3.04
441.472	3.06
441.677	2.97
441.881	2.89
442.086	2.77
442.29	2.61
442.495	2.27
442.699	2.37
442.904	2.4
443.108	2.45
443.312	2.41
443.517	2.28
443.721	2.25
443.925	2.37
444.13	2.61
444.334	2.83
444.538	2.8
444.743	2.81
444.947	2.71
445.151	2.73
445.356	2.8
445.56	2.7
445.764	2.84
445.968	2.83
446.173	2.83
446.377	2.66
446.581	2.59
446.785	2.63
446.989	2.85
447.193	2.88
447.398	2.99
447.602	2.78
447.806	2.81
448.01	2.73
448.214	2.65
448.418	2.44
448.622	2.49
448.826	2.54
449.03	2.38
449.234	2.16
449.438	2.19
449.642	1.91
449.846	1.9
450.05	1.92
450.254	1.94
450.458	1.98
450.662	2.1
450.866	2.23
451.069	2.18
451.273	2.37
451.477	2.38
451.681	2.23
451.885	2.23
452.089	2.34
452.292	2.35
452.496	2.26
452.7	2.45
452.904	2.47
453.107	2.49
453.311	2.54
453.515	2.55
453.719	2.57
453.922	2.68
454.126	2.76
454.33	2.7
454.533	2.73
454.737	2.73
454.94	2.72
455.144	2.67
455.348	2.18
455.551	2.11
455.755	2.1
455.958	2.17
456.162	2.13
456.365	2.31
456.569	2.28
456.772	2.16
456.976	2.07
457.179	1.85
457.383	1.83
457.586	2.04
457.79	2.17
457.993	2.12
458.196	2.14
458.4	2.09
458.603	2.13
458.807	2.1
459.01	2.09
459.213	2.23
459.417	2.29
459.62	2.35
459.823	2.44
460.026	2.36
460.23	2.59
460.433	2.58
460.636	2.62
460.839	2.47
461.042	2.52
461.246	2.5
461.449	2.58
461.652	2.57
461.855	2.49
462.058	2.38
462.261	2.43
462.464	2.08
462.668	1.94
462.871	2.1
463.074	2.1
463.277	2.26
463.48	2.36
463.683	2.28
463.886	2.13
464.089	2.14
464.292	2.34
464.495	2.53
464.698	2.43
464.901	2.44
465.104	2.22
465.306	2.25
465.509	1.96
465.712	2.08
465.915	1.91
466.118	2.11
466.321	2.28
466.524	2.24
466.726	2.01
466.929	1.98
467.132	2.08
467.335	2.01
467.538	2.01
467.74	2.34
467.943	2.24
468.146	2.19
468.348	1.97
468.551	1.73
468.754	1.72
468.956	1.7
469.159	1.79
469.362	1.72
469.564	1.8
469.767	1.72
469.969	1.59
470.172	1.69
470.375	1.99
470.577	2.02
470.78	2.26
470.982	2.33
471.185	2.46
471.387	2.61
471.59	2.74
471.792	2.62
471.995	2.86
472.197	2.92
472.399	2.71
472.602	2.56
472.804	2.82
473.007	2.6
473.209	2.55
473.411	2.45
473.614	2.38
473.816	2.47
474.018	2.67
474.22	2.47
474.423	2.39
474.625	2.26
474.827	2.17
475.03	1.9
475.232	1.98
475.434	1.96
475.636	2.03
475.838	2.03
476.04	1.85
476.243	1.43
476.445	1.37
476.647	1.58
476.849	1.69
477.051	1.84
477.253	2.07
477.455	2.29
477.657	2.3
477.859	2.11
478.061	2.27
478.263	2.42
478.465	2.8
478.667	3.03
478.869	2.86
479.071	2.91
479.273	3
479.475	2.82
479.677	2.7
479.879	2.73
480.081	2.91
480.283	2.84
480.485	2.69
480.686	2.55
480.888	2.48
481.09	2.53
481.292	2.56
481.494	2.5
481.695	2.65
481.897	2.65
482.099	2.67
482.301	2.63
482.502	2.56
482.704	2.64
482.906	2.72
483.107	2.77
483.309	2.76
483.511	2.76
483.712	2.77
483.914	2.77
484.115	2.78
484.317	2.81
484.519	2.84
484.72	2.86
484.922	2.91
485.123	2.9
485.325	2.91
485.526	2.88
485.728	2.87
485.929	2.9
486.131	2.85
486.332	2.86
486.534	2.8
486.735	2.77
486.936	2.8
487.138	2.82
487.339	2.88
487.541	2.8
487.742	2.77
487.943	2.78
488.144	2.75
488.346	2.76
488.547	2.74
488.748	2.69
488.95	2.7
489.151	2.72
489.352	2.68
489.553	2.58
489.755	2.59
489.956	2.62
490.157	2.62
490.358	2.67
490.559	2.71
490.76	2.77
490.961	2.76
491.163	2.76
491.364	2.7
491.565	2.63
491.766	2.67
491.967	2.75
492.168	2.8
492.369	2.81
492.57	2.73
492.771	2.7
492.972	2.63
493.173	2.71
493.374	2.69
493.575	2.63
493.776	2.57
493.976	2.48
494.177	2.37
494.378	2.37
494.579	2.22
494.78	2.37
494.981	2.34
495.182	2.29
495.382	2.24
495.583	2.06
495.784	2.14
495.985	2.33
496.185	2.43
496.386	2.42
496.587	2.42
496.788	2.49
496.988	2.39
497.189	2.45
497.39	2.5
497.59	2.55
497.791	2.81
497.992	2.82
498.192	2.78
498.393	2.77
498.593	2.69
498.794	2.72
498.994	2.91
499.195	2.92
499.395	2.83
499.596	2.81
499.796	2.72
499.997	2.73
500.197	2.87
500.398	2.89
500.598	2.81
500.799	3.01
500.999	2.77
501.199	2.5
501.4	2.5
501.6	2.54
501.801	2.72
502.001	2.88
502.201	2.69
502.402	2.65
502.602	2.47
502.802	2.61
503.002	2.52
503.203	2.99
503.403	3.09
503.603	3.02
503.803	3.05
504.003	2.88
504.204	2.75
504.404	2.89
504.604	2.72
504.804	2.74
505.004	2.69
505.204	2.74
505.404	2.55
505.604	2.6
505.804	2.69
506.005	2.63
506.205	2.64
506.405	2.72
506.605	2.7
506.805	2.63
507.005	2.86
507.204	2.95
507.404	2.83
507.604	2.73
507.804	2.7
508.004	2.53
508.204	2.48
508.404	2.54
508.604	2.53
508.804	2.52
509.003	2.69
509.203	2.49
509.403	2.34
509.603	2.47
509.803	2.53
510.002	2.55
510.202	2.68
510.402	2.87
510.602	2.87
510.801	2.91
511.001	2.99
511.201	2.89
511.4	2.95
511.6	3.07
511.8	2.99
511.999	2.91
512.199	2.83
512.398	2.91
512.598	2.74
512.797	2.71
512.997	2.67
513.197	2.5
513.396	2.61
513.596	2.61
513.795	2.58
513.994	2.7
514.194	2.78
514.393	2.9
514.593	2.85
514.792	2.94
514.992	2.89
515.191	2.85
515.39	3.23
515.59	3.11
515.789	3.13
515.988	3.21
516.188	3.16
516.387	3.17
516.586	3.23
516.786	3.26
516.985	3.22
517.184	3.36
517.383	3.36
517.582	3.05
517.782	3.14
517.981	3.13
518.18	3.14
518.379	3.11
518.578	3.05
518.777	2.95
518.976	2.9
519.176	2.96
519.375	3
519.574	3.11
519.773	3.17
519.972	3.15
520.171	3.14
520.37	3.04
520.569	3.04
520.768	3.15
520.967	3.22
521.166	3.26
521.365	3.3
521.564	3.16
521.762	3.14
521.961	3.1
522.16	3.09
522.359	3.06
522.558	3.09
522.757	3.08
522.956	2.98
523.154	2.95
523.353	2.96
523.552	3.04
523.751	2.98
523.949	2.91
524.148	2.77
524.347	2.84
524.546	2.95
524.744	2.96
524.943	2.93
525.142	2.98
525.34	2.93
525.539	2.9
525.737	2.87
525.936	2.95
526.135	2.91
526.333	3.12
526.532	3.09
526.73	3.11
526.929	3.18
527.127	3.27
527.326	3.27
527.524	3.34
527.723	3.39
527.921	3.4
528.12	3.4
528.318	3.43
528.516	3.4
528.715	3.46
528.913	3.43
529.112	3.43
529.31	3.42
529.508	3.38
529.707	3.45
529.905	3.46
530.103	3.46
530.301	3.54
530.5	3.56
530.698	3.59
530.896	3.67
531.094	3.7
531.293	3.72
531.491	3.66
531.689	3.76
531.887	3.69
532.085	3.68
532.283	3.64
532.481	3.57
532.68	3.62
532.878	3.67
533.076	3.63
533.274	3.69
533.472	3.66
533.67	3.73
533.868	3.7
534.066	3.68
534.264	3.71
534.462	3.7
534.66	3.77
534.858	3.64
535.056	3.62
535.253	3.57
535.451	3.56
535.649	3.55
535.847	3.54
536.045	3.63
536.243	3.57
536.441	3.45
536.638	3.45
536.836	3.46
537.034	3.59
537.232	3.67
537.43	3.69
537.627	3.62
537.825	3.6
538.023	3.65
538.22	3.59
538.418	3.61
538.616	3.76
538.813	3.82
539.011	3.76
539.209	3.74
539.406	3.68
539.604	3.64
539.801	3.65
539.999	3.69
540.196	3.72
540.394	3.85
540.591	3.9
540.789	3.91
540.986	4.03
541.184	4.1
541.381	4.24
541.579	4.19
541.776	4.16
541.974	4.3
542.171	4.38
542.368	4.44
542.566	4.41
542.763	4.47
542.96	4.53
543.158	4.44
543.355	4.47
543.552	4.4
543.75	4.44
543.947	4.58
544.144	4.56
544.341	4.55
544.539	4.57
544.736	4.65
544.933	4.65
545.13	4.67
545.327	4.58
545.524	4.6
545.722	4.69
545.919	4.74
546.116	4.72
546.313	4.63
546.51	4.73
546.707	4.75
546.904	4.73
547.101	4.77
547.298	4.78
547.495	4.81
547.692	4.8
547.889	4.73
548.086	4.73
548.283	4.83
548.48	5.07
548.677	4.92
548.874	4.91
549.07	5.02
549.267	5.06
549.464	5
549.661	5.12
549.858	5.12
550.055	5.24
550.251	5.3
550.448	5.32
550.645	5.36
550.842	5.27
551.038	5.48
551.235	5.39
551.432	5.43
551.628	5.51
551.825	5.59
552.022	5.67
552.218	5.64
552.415	5.76
552.612	5.87
552.808	5.87
553.005	5.93
553.201	5.76
553.398	5.94
553.594	5.75
553.791	5.78
553.987	5.79
554.184	5.74
554.38	5.85
554.577	5.66
554.773	5.4
554.97	5.2
555.166	5.64
555.362	5.54
555.559	5.38
555.755	5.5
555.952	5.76
556.148	5.86
556.344	5.81
556.541	5.76
556.737	5.96
556.933	6.12
557.129	6.32
557.326	6.15
557.522	6.26
557.718	6.58
557.914	6.66
558.11	6.49
558.307	6.54
558.503	6.77
558.699	6.69
558.895	6.76
559.091	6.78
559.287	6.73
559.483	6.51
559.679	6.57
559.876	6.53
560.072	6.77
560.268	6.72
560.464	6.76
560.66	6.71
560.856	6.61
561.052	6.6
561.247	6.86
561.443	7.02
561.639	7.3
561.835	7.27
562.031	7.17
562.227	7.08
562.423	7.07
562.619	7.26
562.815	7.41
563.01	7.57
563.206	7.53
563.402	7.64
563.598	7.51
563.793	7.6
563.989	7.7
564.185	7.35
564.381	7.56
564.576	7.45
564.772	7.22
564.968	7.31
565.163	7.44
565.359	7.69
565.555	7.52
565.75	7.58
565.946	7.55
566.141	7.74
566.337	8.23
566.532	8.22
566.728	8.46
566.923	8.56
567.119	8.49
567.314	8.4
567.51	8.43
567.705	8.53
567.901	8.61
568.096	8.43
568.292	8.48
568.487	8.46
568.682	8.25
568.878	8.25
569.073	8.4
569.268	8.34
569.464	8.59
569.659	8.33
569.854	8.13
570.05	7.97
570.245	8.39
570.44	8.44
570.635	8.56
570.831	8.61
571.026	8.52
571.221	8.51
571.416	8.56
571.611	8.57
571.806	8.89
572.002	9.09
572.197	9.21
572.392	9.07
572.587	9
572.782	8.85
572.977	8.94
573.172	9.08
573.367	9.04
573.562	9.27
573.757	9.27
573.952	9.17
574.147	9.18
574.342	9.26
574.537	9.2
574.732	9.15
574.927	9.21
575.121	9.32
575.316	9.36
575.511	9.39
575.706	9.34
575.901	9.17
576.096	9.35
576.29	9.38
576.485	9.36
576.68	9.49
576.875	9.53
577.069	9.52
577.264	9.65
577.459	9.59
577.654	9.67
577.848	9.75
578.043	10.08
578.238	9.79
578.432	9.62
578.627	9.63
578.821	9.57
579.016	9.62
579.21	9.84
579.405	9.56
579.6	9.58
579.794	9.26
579.989	9.04
580.183	9.17
580.378	9.26
580.572	9.54
580.766	9.61
580.961	9.74
581.155	9.77
581.35	9.6
581.544	9.74
581.738	9.92
581.933	10.52
582.127	10.85
582.321	10.7
582.516	10.8
582.71	10.53
582.904	10.42
583.099	10.46
583.293	10.4
583.487	10.45
583.681	10.42
583.875	10.32
584.07	9.94
584.264	9.6
584.458	9.45
584.652	9.37
584.846	9.57
585.04	9.71
585.234	9.67
585.428	9.8
585.623	9.7
585.817	9.55
586.011	9.46
586.205	9.68
586.399	9.85
586.593	9.78
586.787	10.08
586.981	10.1
587.174	10.08
587.368	10.23
587.562	10.25
587.756	10.47
587.95	10.58
588.144	10.58
588.338	10.48
588.532	10.59
588.725	10.94
588.919	10.66
589.113	10.7
589.307	10.92
589.501	10.8
589.694	10.7
589.888	10.52
590.082	10.9
590.275	10.99
590.469	11.27
590.663	11.13
590.856	10.93
591.05	11.12
591.244	11.1
591.437	10.87
591.631	10.94
591.824	10.69
592.018	10.91
592.212	10.73
592.405	10.64
592.599	10.46
592.792	10.54
592.986	10.49
593.179	10.37
593.372	10.23
593.566	10.44
593.759	10.55
593.953	11.11
594.146	11.03
594.339	11.41
594.533	11.61
594.726	11.59
594.92	11.61
595.113	11.87
595.306	11.73
595.499	11.79
595.693	11.8
595.886	11.61
596.079	11.24
596.272	11.06
596.466	10.72
596.659	10.59
596.852	10.73
597.045	10.66
597.238	10.35
597.431	10.54
597.624	10.65
597.818	10.73
598.011	10.98
598.204	11.19
598.397	11.28
598.59	11.15
598.783	10.96
598.976	10.94
599.169	10.8
599.362	11.09
599.555	10.91
599.748	11.04
599.941	10.75
600.134	10.55
600.326	10.44
600.519	10.82
600.712	10.78
600.905	11.24
601.098	10.91
601.291	11.1
601.483	11.14
601.676	11.27
601.869	11.1
602.062	11.29
602.255	11.25
602.447	11.06
602.64	10.81
602.833	10.92
603.025	10.96
603.218	11.2
603.411	11.38
603.603	11.39
603.796	11.49
603.989	11.61
604.181	11.58
604.374	11.69
604.566	11.95
604.759	12.04
604.951	11.96
605.144	12.02
605.336	12.13
605.529	12.04
605.721	12.17
605.914	12.11
606.106	12.11
606.299	12.16
606.491	11.91
606.683	11.89
606.876	11.82
607.068	12.06
607.26	11.89
607.453	11.86
607.645	11.62
607.837	11.4
608.03	11.21
608.222	10.81
608.414	10.79
608.606	10.9
608.799	10.69
608.991	10.77
609.183	10.65
609.375	10.6
609.567	10.5
609.759	10.64
609.952	10.43
610.144	10.73
610.336	10.96
610.528	11.04
610.72	10.96
610.912	11.22
611.104	11.02
611.296	10.98
611.488	11.08
611.68	11.01
611.872	10.96
612.064	11.15
612.256	10.86
612.448	10.89
612.64	10.57
612.832	10.65
613.023	10.52
613.215	10.6
613.407	10.51
613.599	10.72
613.791	10.57
613.983	10.52
614.174	10.89
614.366	11.34
614.558	11.48
614.75	11.52
614.941	11.52
615.133	11.56
615.325	11.59
615.516	11.47
615.708	11.09
615.9	11.14
616.091	11.08
616.283	10.74
616.475	10.39
616.666	10.32
616.858	10.72
617.049	10.86
617.241	10.73
617.432	11.12
617.624	11.42
617.815	11.49
618.007	12.06
618.198	12.26
618.39	12.17
618.581	12.4
618.773	12.21
618.964	11.88
619.155	12
619.347	12.26
619.538	12.12
619.729	12.21
619.921	12.4
620.112	11.98
620.303	12.09
620.494	12.07
620.686	11.98
620.877	11.92
621.068	12.25
621.259	12.21
621.451	12.12
621.642	12.12
621.833	12.19
622.024	12.06
622.215	12.27
622.406	12.13
622.597	12.27
622.788	12.37
622.98	12.37
623.171	12.04
623.362	11.83
623.553	11.69
623.744	11.67
623.935	11.58
624.126	11.42
624.317	11.24
624.508	11.35
624.698	11.48
624.889	11.41
625.08	11.75
625.271	11.76
625.462	12.14
625.653	12.07
625.844	11.94
626.034	12.18
626.225	12.47
626.416	12.65
626.607	12.74
626.798	12.47
626.988	12.43
627.179	12.03
627.37	12.06
627.56	11.79
627.751	11.9
627.942	11.85
628.132	11.68
628.323	11.81
628.514	11.68
628.704	11.54
628.895	11.68
629.085	11.73
629.276	11.8
629.466	11.78
629.657	11.84
629.847	12.15
630.038	12.04
630.228	12.24
630.419	11.85
630.609	11.81
630.8	11.83
630.99	11.77
631.181	11.71
631.371	11.92
631.561	12.02
631.752	12.06
631.942	12.08
632.132	12.12
632.323	11.69
632.513	11.84
632.703	12.1
632.893	12.03
633.084	12.25
633.274	12.25
633.464	12.34
633.654	12.39
633.844	12.54
634.034	12.4
634.225	12.52
634.415	12.57
634.605	12.27
634.795	12.06
634.985	12.18
635.175	12.18
635.365	12.38
635.555	12.25
635.745	12.21
635.935	11.91
636.125	11.44
636.315	11.61
636.505	11.54
636.695	11.81
636.885	11.99
637.075	11.84
637.265	11.9
637.455	11.48
637.644	11.68
637.834	11.9
638.024	11.7
638.214	12.07
638.404	11.97
638.593	12.34
638.783	12.42
638.973	12.47
639.163	12.85
639.352	12.47
639.542	12.78
639.732	12.67
639.921	12.41
640.111	13.01
640.301	13.3
640.49	13.37
640.68	13.36
640.87	13.4
641.059	13.39
641.249	13.07
641.438	13.18
641.628	13.23
641.817	12.87
642.007	12.74
642.196	12.37
642.386	11.89
642.575	11.7
642.764	11.58
642.954	11.71
643.143	11.22
643.333	10.97
643.522	10.89
643.711	10.72
643.901	11.07
644.09	10.93
644.279	11.15
644.469	11.47
644.658	11.66
644.847	11.06
645.036	10.67
645.226	10.85
645.415	11.25
645.604	11.19
645.793	11.01
645.982	11.11
646.171	11.44
646.361	10.95
646.55	10.87
646.739	10.81
646.928	11.35
647.117	11.35
647.306	11.22
647.495	10.46
647.684	10.48
647.873	10.52
648.062	10.23
648.251	10.1
648.44	10.66
648.629	10.5
648.818	10.35
649.007	10.56
649.196	10.46
649.384	10.64
649.573	11.36
649.762	11.33
649.951	10.99
650.14	11.56
650.328	11.82
650.517	11.72
650.706	11.72
650.895	12.24
651.083	12.04
651.272	11.91
651.461	11.97
651.65	11.8
651.838	11.74
652.027	12.45
652.216	12.31
652.404	11.79
652.593	11.34
652.781	11.56
652.97	10.81
653.158	10.56
653.347	10.98
653.535	10.95
653.724	11.29
653.912	11.91
654.101	11.43
654.289	11.3
654.478	11.35
654.666	11.37
654.855	10.86
655.043	11.08
655.231	11.3
655.42	11.21
655.608	11.04
655.796	10.92
655.985	10.41
656.173	10.45
656.361	10.03
656.55	10.63
656.738	10.69
656.926	11.37
657.114	11.44
657.302	11.52
657.491	11.81
657.679	12.12
657.867	12.37
658.055	12.66
658.243	13.17
658.431	13.39
658.619	13.36
658.807	13.83
658.996	13.89
659.184	14.07
659.372	14.06
659.56	13.71
659.748	13.4
659.936	13.28
660.124	13.25
660.311	13
660.499	12.87
660.687	12.92
660.875	12.68
661.063	12.43
661.251	12.52
661.439	12.72
661.627	12.96
661.814	13.13
662.002	12.99
662.19	12.76
662.378	12.74
662.565	13.06
662.753	12.89
662.941	12.69
663.129	12.32
663.316	12.08
663.504	11.61
663.692	12.07
663.879	11.72
664.067	11.69
664.254	11.89
664.442	11.82
664.63	11.57
664.817	11.37
665.005	11.33
665.192	11.38
665.38	11.31
665.567	11.72
665.755	11.42
665.942	11.41
666.13	11.35
666.317	11.59
666.504	11.23
666.692	11.51
666.879	11.28
667.067	11.32
667.254	11.71
667.441	11.94
667.629	12.07
667.816	12.05
668.003	12.27
668.19	12.44
668.378	12.42
668.565	12.92
668.752	13.28
668.939	13.84
669.127	14.31
669.314	14.01
669.501	14.06
669.688	13.61
669.875	13.39
670.062	13.73
670.249	13.7
670.436	13.9
670.623	13.43
670.81	12.85
670.997	12.93
671.184	12.39
671.371	12.51
671.558	12.1
671.745	12.6
671.932	13
672.119	12.78
672.306	12.47
672.493	12
672.68	12.32
672.867	12.37
673.054	12.04
673.24	12.32
673.427	12.7
673.614	13.15
673.801	12.9
673.988	12.83
674.174	12.77
674.361	13.05
674.548	12.68
674.734	12.94
674.921	12.99
675.108	13.34
675.294	13.3
675.481	12.89
675.668	12.91
675.854	13.29
676.041	13.14
676.227	13.3
676.414	13.02
676.601	13.34
676.787	12.98
676.974	12.8
677.16	12.6
677.347	12.91
677.533	13.44
677.719	12.95
677.906	12.72
678.092	12.47
678.279	12.6
678.465	13.03
678.651	13.15
678.838	13.37
679.024	13.38
679.21	13.5
679.397	12.98
679.583	12.89
679.769	13.3
679.955	13.21
680.142	13.5
680.328	13.24
680.514	13.21
680.7	13.2
680.886	13.34
681.073	13.67
681.259	13.32
681.445	13.44
681.631	13.17
681.817	12.84
682.003	12.67
682.189	12.61
682.375	12.52
682.561	12.52
682.747	12.38
682.933	12.27
683.119	11.8
683.305	12.01
683.491	11.99
683.677	11.6
683.863	11.95
684.049	12.28
684.235	12.03
684.42	12.05
684.606	12.18
684.792	12.16
684.978	11.95
685.164	12.35
685.349	12.03
685.535	12.47
685.721	12.53
685.907	12.09
686.092	11.84
686.278	12.06
686.464	11.78
686.649	11.58
686.835	11.82
687.021	12.01
687.206	11.68
687.392	12.01
687.577	11.65
687.763	11.76
687.948	12.52
688.134	12.45
688.319	12.32
688.505	12.47
688.69	12.21
688.876	12.47
689.061	12.48
689.247	12.99
689.432	12.98
689.618	13.24
689.803	12.94
689.988	12.36
690.174	12.14
690.359	12.27
690.544	12.9
690.73	12.87
690.915	12.18
691.1	11.66
691.285	11.26
691.471	11.85
691.656	11.91
691.841	11.93
692.026	12.03
692.211	11.62
692.396	10.9
692.582	10.23
692.767	9.96
692.952	9.97
693.137	10.34
693.322	9.68
693.507	8.43
693.692	7.76
693.877	8.62
694.062	8.29
694.247	8.9
694.432	10.03
694.617	10.73
694.802	10.72
694.987	11.14
695.172	11.24
695.357	11.91
695.541	11.84
695.726	12.05
695.911	12.29
696.096	12.16
696.281	11.95
696.466	11.57
696.65	11.37
696.835	12.09
697.02	11.85
697.204	11.94
697.389	12.25
697.574	12.55
697.759	12.5
697.943	12.21
698.128	12.52
698.312	13.1
698.497	13.15
698.682	13.47
698.866	13.41
699.051	13.68
699.235	14.1
699.42	13.89
699.604	14.06
699.789	14.25
699.973	13.63
700.158	13.67
700.342	13.47
700.527	13.55
700.711	12.76
700.895	12.53
701.08	12.26
701.264	11.38
701.448	11.47
701.633	11.35
701.817	11.52
702.001	12.04
702.186	11.6
702.37	11.77
702.554	11.44
702.738	11.96
702.923	11.54
703.107	11.81
703.291	12.02
703.475	11.93
703.659	12.21
703.843	12.11
704.027	12.59
704.212	13.04
704.396	12.69
704.58	12.88
704.764	12.44
704.948	12.4
705.132	12.11
705.316	11.54
705.5	12.06
705.684	11.25
705.868	10.99
706.052	10.03
706.235	10.41
706.419	10.29
706.603	11.05
706.787	11.58
706.971	12.37
707.155	12.12
707.339	12.82
707.522	12.39
707.706	12.51
707.89	12.69
708.074	13.67
708.257	13.47
708.441	13.42
708.625	12.83
708.808	13.1
708.992	11.92
709.176	12.42
709.359	12.15
709.543	12.19
709.727	12.59
709.91	12.45
710.094	12.42
710.277	12.25
710.461	12.21
710.644	12.45
710.828	11.29
711.011	11.77
711.195	11.53
711.378	12.04
711.562	12.48
711.745	12.59
711.928	12.45
712.112	11.96
712.295	11.7
712.478	11.47
712.662	11.24
712.845	12.06
713.028	12.83
713.212	12.14
713.395	12.22
713.578	11.43
713.761	10.63
713.945	10.82
714.128	10.62
714.311	10.5
714.494	10.48
714.677	10.92
714.86	11.08
715.043	10.58
715.227	11.68
715.41	10.73
715.593	10.93
715.776	10.8
715.959	11.2
716.142	12.21
716.325	12.49
716.508	13.56
716.691	13.07
716.874	13.15
717.057	13.31
717.239	13.32
717.422	13.06
717.605	12.57
717.788	13.29
717.971	13.59
718.154	13.04
718.337	12.75
718.519	12.36
718.702	12.43
718.885	11.93
719.068	11.87
719.25	11.29
719.433	11.52
719.616	11.9
719.798	12.39
719.981	11.41
720.164	11.71
720.346	11.38
720.529	11.4
720.712	10.9
720.894	10.55
721.077	10.78
721.259	11.51
721.442	12.44
721.624	11.92
721.807	11.33
721.989	11.15
722.172	10.45
722.354	11.21
722.537	10.51
722.719	11.1
722.901	11.67
723.084	12.27
723.266	10.73
723.448	11.16
723.631	11.8
723.813	11.88
723.995	11.73
724.178	11.79
724.36	12.22
724.542	11.65
724.724	11.98
724.907	11.88
725.089	10.67
725.271	11.41
725.453	10.07
725.635	10.42
725.817	11.56
725.999	12.11
726.181	12.47
726.364	12.67
726.546	13.72
726.728	13.46
726.91	13.42
727.092	13.43
727.274	13.25
727.456	14.12
727.638	13.94
727.819	12.03
728.001	10.93
728.183	10.52
728.365	10.17
728.547	9.63
728.729	9.94
728.911	9.88
729.093	10.18
729.274	9.49
729.456	9.44
729.638	9.65
729.82	10.29
730.001	11.47
730.183	12.4
730.365	12.47
730.546	12.93
730.728	12.35
730.91	12.67
731.091	12.79
731.273	13.17
731.455	13.53
731.636	13.58
731.818	12.78
731.999	12.1
732.181	11.62
732.362	11.38
732.544	11.44
732.725	12.54
732.907	12.38
733.088	12.46
733.27	13.41
733.451	12.46
733.633	12.59
733.814	13.49
733.995	14.06
734.177	14.03
734.358	15.29
734.539	15.94
734.721	14.67
734.902	14.61
735.083	13.93
735.264	13.02
735.446	14.36
735.627	14.58
735.808	13.72
735.989	13.79
736.17	14.46
736.351	13.14
736.533	13.05
736.714	13.36
736.895	13.37
737.076	13.65
737.257	13.59
737.438	11.58
737.619	11.15
737.8	12.92
737.981	12.18
738.162	10.99
738.343	10.84
738.524	10.12
738.705	9.9
738.886	10.26
739.067	10.19
739.247	10.59
739.428	11.78
739.609	11.55
739.79	10.36
739.971	11.13
740.151	11.49
740.332	10.06
740.513	9.17
740.694	9.02
740.874	8.28
741.055	9.4
741.236	8.12
741.417	8.43
741.597	8.49
741.778	9.07
741.958	9.62
742.139	8.82
742.32	10.45
742.5	11
742.681	11.73
742.861	10.32
743.042	10.25
743.222	12.15
743.403	11.76
743.583	11.97
743.764	12.22
743.944	11.18
744.124	12.16
744.305	12.11
744.485	11.61
744.666	11.18
744.846	12.71
745.026	12.16
745.207	11.5
745.387	11.08
745.567	10.07
745.747	8.54
745.928	8.07
746.108	6.38
746.288	5.35
746.468	5.56
746.648	5.44
746.829	5.26
747.009	5.41
747.189	5.33
747.369	6.44
747.549	6.97
747.729	7.97
747.909	8.99
748.089	10.71
748.269	11.94
748.449	12.32
748.629	11.2
748.809	12.08
748.989	12.65
749.169	12.91
749.349	12.52
749.529	12.62
749.709	11.7
749.889	11.21
750.068	11.17
750.248	9.96
750.428	9.58
750.608	11.19
750.788	10.53
750.967	10.09
751.147	10.9
751.327	11.03
751.507	10.22
751.686	11.81
751.866	11.76
752.046	12.26
752.225	12.57
752.405	13.84
752.585	14.1
752.764	15.04
752.944	14.36
753.123	13.93
753.303	13.62
753.482	13.95
753.662	14.06
753.841	14.1
754.021	14.15
754.2	14.49
754.38	14.28
754.559	13.93
754.739	12.55
754.918	12.21
755.097	10.67
755.277	10.96
755.456	10.07
755.635	8.88
755.815	9.91
755.994	8.71
756.173	8.84
756.352	8.11
756.532	7.23
756.711	9.27
756.89	10.71
757.069	11.88
757.248	9.73
757.427	10.82
757.607	11.28
757.786	10.53
757.965	11.25
758.144	11.04
758.323	10.2
758.502	11.34
758.681	8.99
758.86	9.19
759.039	9.53
759.218	11.03
759.397	10.38
759.576	10.64
759.755	11.05
759.934	9.5
760.113	9.34
760.291	10.46
760.47	9.31
760.649	9.8
760.828	9
761.007	9.58
761.186	9.26
761.364	10.42
761.543	10.75
761.722	9.87
761.901	11.11
762.079	11.61
762.258	11.1
762.437	10.78
762.615	10.6
762.794	11.03
762.972	10.37
763.151	10.34
763.33	11.08
763.508	10.67
763.687	11.26
763.865	12.1
764.044	11.64
764.222	11.94
764.401	12.95
764.579	13.75
764.758	13.97
764.936	14.11
765.114	14.29
765.293	13.96
765.471	15.01
765.65	14.96
765.828	13.73
766.006	14.16
766.184	14.45
766.363	14.31
766.541	12.71
766.719	11.41
766.898	11.82
767.076	12.72
767.254	10.96
767.432	10.15
767.61	8.14
767.788	7.97
767.967	7.75
768.145	6.34
768.323	6.09
768.501	6.4
768.679	5.6
768.857	4.22
769.035	4.03
769.213	5.05
769.391	3.25
769.569	4.03
769.747	4.07
769.925	3.48
770.103	4
770.281	1.92
770.459	4.46
770.636	3.97
770.814	3.26
770.992	1.56
771.17	1.04
771.348	2.92
771.525	3.66
771.703	1.86
771.881	1.05
772.059	0.67
772.236	2.17
772.414	0.48
772.592	1.26
772.769	1.18
772.947	1.82
773.125	2.5
773.302	0.73
773.48	-0.08
773.657	1.45
773.835	2.6
774.013	3.01
774.19	2.32
774.368	4.83
774.545	7.17
774.723	9.18
774.9	11.34
775.077	11.79
775.255	14.23
775.432	16.26
775.61	17.07
775.787	18.45
775.964	17.5
776.142	18.27
776.319	15.82
776.496	13.42
776.674	11.73
776.851	9.2
777.028	9.46
777.205	7.79
777.382	10
777.56	10.14
777.737	10.06
777.914	13.82
778.091	12.56
778.268	13.68
778.445	16.19
778.622	17.19
778.8	18.11
778.977	14.79
779.154	15.68
779.331	12.95
779.508	12.69
779.685	10.43
779.862	8.66
780.038	7.37
780.215	7.46
780.392	5.77
780.569	4.34
780.746	2.38
780.923	6.35
781.1	5.03
781.277	4.33
781.453	4.69
781.63	7.21
781.807	6.31
781.984	8.77
782.16	5.21
782.337	4.96
782.514	8.26
782.691	10.66
782.867	7.78
783.044	9.64
783.221	6.25
783.397	5.35
783.574	1.15
783.75	0.04
783.927	-1.32
784.103	1.79
784.28	3.32
784.456	0.35
784.633	-1.62
784.809	-1.87
784.986	-2.9
785.162	2.52
785.339	2.25
785.515	2.03
785.692	3.29
785.868	5.16
786.044	4.58
786.221	4.22
786.397	2.51
786.573	5.75
786.749	7.95
786.926	7.94
787.102	4.44
787.278	5.95
787.454	7.89
787.631	8.57
787.807	7.37
787.983	6.55
788.159	6.24
788.335	6.25
788.511	4.33
788.687	3.81
788.863	4.24
789.039	6.29
789.216	6.02
789.392	5.94
789.568	3.58
789.744	4.63
789.919	6.46
790.095	2.76
790.271	2.39
790.447	0.32
790.623	3.7
790.799	1.39
790.975	2.96
791.151	1.7
791.327	3.66
791.502	4.22
791.678	2.63
791.854	1.75
792.03	4.87
792.205	10.59
792.381	15.66
792.557	14.9
792.733	19.49
792.908	17.31
793.084	20.52
793.259	18.57
793.435	21.04
793.611	21.3
793.786	20.86
793.962	20.66
794.137	14.87
794.313	11.57
794.488	8.53
794.664	2.59
794.839	3.54
795.015	1.36
795.19	-0.32
795.366	0.43
795.541	1.85
795.716	3.67
795.892	3.21
796.067	8.84
796.242	8.2
796.418	6.17
796.593	5.37
796.768	7.38
796.944	6.61
797.119	8.41
797.294	8.59
797.469	10.36
797.644	11.41
797.82	11.28
797.995	6.42
798.17	8.93
798.345	9.96
798.52	13.52
798.695	9.31
798.87	9.49
799.045	5.66
799.22	3.38
799.395	0.52
799.57	-1.4
799.745	-0.99
799.92	1.27
800.095	-1.96
800.27	-1.11
800.445	-2.35
800.62	-3.36
800.795	-3.94
800.97	-4.12
801.145	-5.51
801.319	-6.39
801.494	-5.12
801.669	-6.08
801.844	-8.67
802.018	-6.05
802.193	-6.11
802.368	-4.68
802.543	3.17
802.717	2.2
802.892	4.62
803.067	5.79
803.241	4.91
803.416	-0.39
803.59	1.45
803.765	4.58
803.94	7.54
804.114	8.16
804.289	5.35
804.463	3.8
804.638	6.94
804.812	7.41
804.986	4.57
805.161	6.83
805.335	12.64
805.51	10.35
805.684	7.27
805.858	1.24
806.033	-1.66
806.207	-0.57
806.381	-6.03
806.556	-8.64
806.73	-10.7
806.904	-6.33
807.078	-7.43
807.253	-12.73
807.427	-8.95
807.601	-6.36
807.775	-5.46
807.949	-2.18
808.123	2.5
808.298	5.16
808.472	8.9
808.646	12.86
808.82	9.84
808.994	9.02
809.168	12.48
809.342	7.11
809.516	6.36
809.69	8.64
809.864	7.11
810.038	3.7
810.212	2.07
810.385	-0.08
810.559	1.6
810.733	2.06
810.907	0.3
811.081	-1.53
811.255	2.58
811.428	3.48
811.602	-0.37
811.776	2.07
811.95	-1.18
812.123	-0.46
812.297	-5.24
812.471	-8.61
812.644	-2.61
812.818	-3.05
812.992	-5.17
813.165	-7.52
813.339	-9.84
813.512	-6.21
813.686	-13.35
813.86	-12.37
814.033	-12.97
814.207	-3.54
814.38	-1.67
814.554	-0.07
814.727	4.11
814.9	5.67
815.074	9.93
815.247	10.51
815.421	9.7
815.594	15.07
815.767	16.12
815.941	19.07
816.114	16.96
816.287	14.73
816.46	10.91
816.634	10.42
816.807	12.48
816.98	6.74
817.153	7.14
817.327	4.28
817.5	1.32
817.673	4.18
817.846	1.84
818.019	-0.38
818.192	-1.72
818.365	-0.85
818.538	-3.78
818.711	-5.16
818.884	-2.48
819.057	-1.73
819.23	-1.49
819.403	-1.4
819.576	-1.08
819.749	-2.49
819.922	0.11
820.095	1.9
820.268	1.27
820.441	2.55
820.614	4.27
820.786	2.67
820.959	3.24
821.132	5.5
821.305	7.22
821.477	8.25
821.65	9.48
821.823	10.16
821.996	11.58
822.168	12.57
822.341	13.86
822.514	13.72
822.686	14.92
822.859	15.12
823.031	15.74
823.204	15.46
823.376	15.6
823.549	16.11
823.722	16.31
823.894	15.78
824.067	15.99
824.239	15.15
824.411	15.91
824.584	16.14
824.756	15.94
824.929	14.5
825.101	15.57
825.273	15.2
825.446	15.35
825.618	15.18
825.79	16.36
825.963	14.3
826.135	14.13
826.307	13.68
826.479	13.22
826.652	12.57
826.824	14.09
826.996	12.9
827.168	12.22
827.34	8.65
827.512	7.33
827.684	6.28
827.856	7.74
828.029	10.73
828.201	9.97
828.373	8.01
828.545	8.09
828.717	7.6
828.889	8.14
829.061	6.42
829.232	7.73
829.404	7.69
829.576	5.68
829.748	4.74
829.92	0.95
830.092	-2.71
830.264	-1.41
830.436	-1.32
830.607	-3.91
830.779	-5.31
830.951	-0.86
831.123	1.44
831.294	2.22
831.466	3.91
831.638	3.13
831.809	1.16
831.981	1.48
832.153	0.43
832.324	-4.25
832.496	-0.32
832.667	-0.44
832.839	-3.74
833.011	-2.89
833.182	-3.15
833.354	-2.11
833.525	0.9
833.697	0.31
833.868	3.54
834.039	5.06
834.211	6.96
834.382	7.48
834.554	7.79
834.725	7.12
834.896	7.71
835.068	7.92
835.239	8.07
835.41	4.52
835.581	8.23
835.753	7.57
835.924	3.57
836.095	4.8
836.266	1.23
836.438	-3.57
836.609	-2.69
836.78	-4.14
836.951	-5.81
837.122	-4.53
837.293	-1.92
837.464	-7.76
837.635	-11.8
837.806	-11.64
837.977	-15.74
838.148	-16.72
838.319	-11.66
838.49	-16.53
838.661	-13.44
838.832	-19.53
839.003	-22.84
839.174	-24.49
839.345	-24.32
839.516	-15.97
839.687	-15.13
839.857	-3.19
840.028	0.04
840.199	-0.05
840.37	0.08
840.54	-1.5
840.711	4.36
840.882	1.45
841.053	-2.83
841.223	0.85
841.394	-4.4
841.564	-0.61
841.735	-2.59
841.906	-8.77
842.076	-19.07
842.247	-15.99
842.417	-17.56
842.588	-15.28
842.758	-24.42
842.929	-26.16
843.099	-32.85
843.27	-31.06
843.44	-30.18
843.611	-41.07
843.781	-40.69
843.951	-29.95
844.122	-25.04
844.292	-24.58
844.462	-38.44
844.633	-27.75
844.803	-27.19
844.973	-15.66
845.144	-10
845.314	-13.49
845.484	-14.02
845.654	-16.71
845.824	-14.72
845.995	-25.25
846.165	-23
846.335	-16.26
846.505	-17.63
846.675	-20.23
846.845	-29.32
847.015	-33.76
847.185	-27.81
847.355	-20.24
847.525	-22.5
847.695	-27.12
847.865	-39.41
848.035	-62.31
848.205	-43.2
848.375	-42.08
848.545	-29.03
848.715	-30.5
848.884	-26.6
849.054	-22.13
849.224	-16
849.394	-3.53
849.564	10.7
849.733	21.36
849.903	27.87
850.073	22.93
850.243	19.17
850.412	17.88
850.582	29.42
850.752	22.13
850.921	15.28
851.091	4.31
851.26	-9.75
851.43	-31.39
851.599	-41.51
851.769	-50.51
851.939	-73.35
852.108	-83.57
852.278	-88.84
852.447	-109.04
852.616	-92.73
852.786	-74.81
852.955	-52.65
853.125	-40.25
853.294	-30.33
853.463	-42.2
853.633	-61.16
853.802	-17.26
853.971	-27.48
854.141	-28.5
854.31	-0.84
854.479	-17.92
854.648	-27.04
854.818	-19.42
854.987	-31.87
855.156	-31.79
855.325	-21.42
855.494	-26.68
855.663	-47.54
855.832	-56.53
856.001	-51.19
856.171	-97.83
856.34	-45.95
856.509	-24.35
856.678	-11.76
856.847	-0.19
857.016	6.71
857.185	0.69
857.353	10.44
857.522	12.92
857.691	22.72
857.86	15.41
858.029	4.84
858.198	-15.06
858.367	-30.52
858.535	-40.4
858.704	-48.03
858.873	-69.31
859.042	-59.99
859.21	-44.21
859.379	-45.64
859.548	-65.38
859.717	-46.67
859.885	-52.59
860.054	-77.77
860.222	-80.68
860.391	-170.6
860.56	-89.56
860.728	-84.24
860.897	-227.25
861.065	-462.75
861.234	-135.43
861.402	-147.14
861.571	-140.03
861.739	-77.88
861.908	-53.17
862.076	-92.6
862.244	-77.11
862.413	-115.44
862.581	-77.12
862.749	-56.3
862.918	-44.91
863.086	-83.44
863.254	-58.84
863.423	-80.12
863.591	-120.45
863.759	-107
863.927	-103.85
864.096	-99.3
864.264	-83.48
864.432	-100.65
864.6	-167.49
864.768	-149.3
864.936	-130.42
865.104	-155.82
865.272	-123.78
865.44	-85.76
865.608	-79.77
865.776	-50.44
865.944	-35.12
866.112	-14.2
866.28	-26.63
866.448	-8.02
866.616	-9.66
866.784	1.09
866.952	3.64
867.12	-7.54
867.288	-12.61
867.455	-17.68
867.623	-49.4
867.791	-78.72
867.959	-92.78
868.127	-61.92
868.294	-93.1
868.462	-112.58
868.63	-169.97
868.797	-141.32
868.965	-209.2
869.133	-413.19
869.3	-219.54
869.468	-144.9
869.636	-124.1
869.803	-117.73
869.971	-154.74
870.138	-119.35
870.306	-79.71
870.473	-37.03
870.641	-52.37
870.808	-41.28
870.975	-31.63
871.143	-35.94
871.31	-12.79
871.478	-4.29
871.645	-15.31
871.812	-15.63
871.98	-6.2
872.147	-12.14
872.314	-45.22
872.482	-73.62
872.649	-53.28
872.816	-48.55
872.983	-54.07
873.15	-61.4
873.318	-46.82
873.485	-57.4
873.652	-42.01
873.819	-31.43
873.986	-41.39
874.153	-44.61
874.32	-44.71
874.487	-62.09
874.654	-56.6
874.821	-53.92
874.988	-50.59
875.155	-48.07
875.322	-49.65
875.489	-57.03
875.656	-67.33
875.823	-50.18
875.99	-49.84
876.157	-28.73
876.324	-23.36
876.49	-19.88
876.657	-11.71
876.824	-22.72
876.991	-34.7
877.157	-26.61
877.324	-38.35
877.491	-50.17
877.658	-65.43
877.824	-60.67
877.991	-84.2
878.157	-78.99
878.324	-141.63
878.491	-200.54
878.657	-179.58
878.824	-118.29
878.99	-92.18
879.157	-121.28
879.323	-192.12
879.49	-179.98
879.656	-106.86
879.823	-82.51
879.989	-59.73
880.156	-14.76
880.322	-18.45
880.488	-11.84
880.655	-18.04
880.821	-20.22
880.987	2.27
881.154	13.91
881.32	15.03
881.486	7.89
881.652	6.13
881.819	3.25
881.985	-0.01
882.151	4.85
882.317	4.06
882.483	6.75
882.649	1.08
882.816	-0.08
882.982	-1.51
883.148	0.22
883.314	-0.64
883.48	-1.11
883.646	0.71
883.812	2.34
883.978	2.67
884.144	4.17
884.31	1.26
884.476	4.24
884.642	5.76
884.807	7.91
884.973	6.51
885.139	8.69
885.305	9.65
885.471	8.47
885.637	5.86
885.802	6.21
885.968	3.25
886.134	0.32
886.3	-0.97
886.465	-5.93
886.631	-6.17
886.797	-3.97
886.962	-6.5
887.128	-10.06
887.293	-13.74
887.459	-10.64
887.625	-13.7
887.79	-13.7
887.956	-0.42
888.121	4.55
888.287	14.41
888.452	7.58
888.618	2.38
888.783	-4.59
