Data from 2938119_Reflection_2.txt Node
Date: Sat Jul 11 17:54:48 EDT 2015
User: robert
Spectrometer: USB4E03001
Autoset integration time: false
Trigger mode: 4
Integration Time (sec): 1.000000E-1
Scans to average: 10
Electric dark correction enabled: true
Nonlinearity correction enabled: false
Boxcar width: 5
Stray light correction enabled: false
XAxis mode: Wavelengths
Stop averaging: false
Number of Pixels in Spectrum: 3648
>>>>>Begin Spectral Data<<<<<
177.566	-2.31
177.785	407.96
178.005	172.16
178.225	111.72
178.445	95.03
178.665	152.66
178.885	111.44
179.105	74.2
179.324	44.02
179.544	33.11
179.764	36.18
179.984	37.78
180.204	0.84
180.423	46.04
180.643	23.62
180.863	-1.21
181.083	-48.96
181.302	50.5
181.522	76.47
181.742	99.02
181.961	112
182.181	50.08
182.401	-23.79
182.621	-165.23
182.84	-205.38
183.06	-8.05
183.279	6.45
183.499	51.98
183.719	30.57
183.938	21.7
184.158	-3.28
184.377	3.95
184.597	44.46
184.816	61.12
185.036	51.03
185.256	57.87
185.475	48.58
185.695	51.55
185.914	49.63
186.134	60.22
186.353	58.74
186.572	47.64
186.792	78.57
187.011	85.53
187.231	69.77
187.45	64.52
187.67	64.67
187.889	76.42
188.108	97.12
188.328	76.48
188.547	77.17
188.766	99.11
188.986	131.58
189.205	127.78
189.424	113.81
189.644	136.43
189.863	198.57
190.082	736.61
190.302	215.21
190.521	131.38
190.74	207.31
190.959	-1294.48
191.178	-342.4
191.398	386.74
191.617	184.81
191.836	192.39
192.055	266.74
192.274	91
192.494	138.09
192.713	269.96
192.932	349.51
193.151	-1615.46
193.37	-330.34
193.589	-137.77
193.808	-862.7
194.027	-451.14
194.246	378.49
194.465	6247.46
194.685	1213.06
194.904	-1926.88
195.123	508.23
195.342	-466.27
195.561	461.82
195.78	157.29
195.999	137.27
196.218	309.88
196.436	240.48
196.655	196.99
196.874	140.46
197.093	130.58
197.312	112.68
197.531	134.36
197.75	126.42
197.969	117.69
198.188	151.37
198.407	145.02
198.625	154.76
198.844	172.96
199.063	144.04
199.282	216.86
199.501	212.81
199.719	304.47
199.938	196.85
200.157	359.38
200.376	-2652.94
200.594	269.01
200.813	168
201.032	113.84
201.251	96.25
201.469	164.9
201.688	121.8
201.907	135.69
202.125	121
202.344	165.43
202.563	173.59
202.781	197.86
203	159.41
203.218	135.4
203.437	129.47
203.656	124.04
203.874	69.14
204.093	36.04
204.311	39.74
204.53	29.74
204.748	41.84
204.967	29.46
205.185	22.71
205.404	19.87
205.622	41.4
205.841	55.69
206.059	67.05
206.278	82.21
206.496	108.75
206.715	111.15
206.933	154.45
207.151	179.18
207.37	270.06
207.588	539.63
207.806	347.07
208.025	504.9
208.243	326.21
208.461	252.37
208.68	6.91
208.898	0.53
209.116	37.42
209.335	23.02
209.553	11.61
209.771	-81.91
209.989	-685.86
210.208	1114.43
210.426	370.46
210.644	203.54
210.862	8.94
211.081	60.88
211.299	145.54
211.517	347.68
211.735	400.24
211.953	135.72
212.171	168.63
212.39	176.17
212.608	145.6
212.826	108.28
213.044	93.8
213.262	112.22
213.48	117.45
213.698	113.57
213.916	103.39
214.134	93.05
214.352	101.56
214.57	93.79
214.788	70.65
215.006	91.06
215.224	81.79
215.442	71.01
215.66	76.19
215.878	65.58
216.096	49.77
216.314	30.92
216.532	24.3
216.75	23.79
216.968	17.57
217.185	34.24
217.403	13
217.621	63.31
217.839	106.3
218.057	76.71
218.275	98.37
218.492	125.35
218.71	121.47
218.928	114.68
219.146	152.85
219.363	138.33
219.581	110.99
219.799	-181.77
220.017	-931.96
220.234	97.77
220.452	70.22
220.67	218.7
220.887	-15.38
221.105	-73.83
221.323	12.02
221.54	61.15
221.758	57.8
221.976	84.58
222.193	63.52
222.411	52.63
222.629	50.8
222.846	57.3
223.064	65.35
223.281	59.3
223.499	62.32
223.716	58.57
223.934	46.84
224.151	44.94
224.369	43.13
224.586	45.49
224.804	46.87
225.021	49.84
225.239	47.91
225.456	37.28
225.674	35.12
225.891	27.4
226.108	28.37
226.326	44.07
226.543	41.35
226.76	41.92
226.978	46.75
227.195	46.42
227.413	40.62
227.63	36.47
227.847	39.87
228.064	32.45
228.282	36.67
228.499	36.28
228.716	27.45
228.934	25.61
229.151	25.83
229.368	24.18
229.585	23.27
229.802	23.49
230.02	22.24
230.237	19.81
230.454	20.68
230.671	15.3
230.888	13.86
231.105	13.13
231.323	15.09
231.54	13.26
231.757	11.31
231.974	8.21
232.191	7.52
232.408	9.08
232.625	13.61
232.842	13.24
233.059	17.24
233.276	16.3
233.493	19.32
233.71	20.08
233.927	17.27
234.144	19.39
234.361	25.25
234.578	28.4
234.795	25.84
235.012	22.25
235.229	21.23
235.446	23.11
235.663	27.92
235.879	27.03
236.096	22.25
236.313	20.46
236.53	21.55
236.747	21.92
236.964	18.1
237.181	21.75
237.397	20.54
237.614	32.15
237.831	22.86
238.048	24.28
238.264	22.54
238.481	25.15
238.698	26.58
238.915	22.07
239.131	18.88
239.348	17.74
239.565	13.69
239.781	17.96
239.998	12.16
240.215	21.2
240.431	20.61
240.648	22.92
240.865	23.14
241.081	21.81
241.298	20.91
241.514	17.88
241.731	18.69
241.947	16.87
242.164	15.06
242.38	14.4
242.597	14.06
242.814	12.78
243.03	13.33
243.246	13
243.463	14.67
243.679	14.48
243.896	15.74
244.112	14.32
244.329	15.45
244.545	15.12
244.762	15.11
244.978	13.99
245.194	14.82
245.411	13.11
245.627	12.77
245.843	11.82
246.06	13.02
246.276	12.21
246.492	13.6
246.709	12.69
246.925	13.29
247.141	12.82
247.357	11.72
247.574	11.01
247.79	11.95
248.006	12.12
248.222	12.17
248.439	11.52
248.655	11.15
248.871	10.28
249.087	11.29
249.303	10.33
249.519	10.39
249.736	10.58
249.952	9.61
250.168	8.35
250.384	7.45
250.6	6.51
250.816	6.15
251.032	8.3
251.248	10.27
251.464	11.62
251.68	11.6
251.896	11.98
252.112	10.85
252.328	10.69
252.544	9.75
252.76	11.86
252.976	13.47
253.192	15.06
253.408	15.94
253.624	14.79
253.84	14.47
254.056	14.2
254.272	15.37
254.487	16.61
254.703	19.74
254.919	19.76
255.135	16.96
255.351	16.63
255.567	14.46
255.782	10.56
255.998	11.29
256.214	12.58
256.43	14.82
256.646	12.16
256.861	13.43
257.077	11.5
257.293	11.54
257.508	7.37
257.724	7.36
257.94	6.48
258.155	6.55
258.371	8.39
258.587	7.28
258.802	7.26
259.018	6.8
259.234	7.05
259.449	6.4
259.665	6.21
259.88	7.5
260.096	7.19
260.312	7.71
260.527	8.41
260.743	8.42
260.958	8.5
261.174	8.07
261.389	8.23
261.605	7.96
261.82	7.93
262.036	8.97
262.251	8.13
262.466	8.38
262.682	8.83
262.897	8.22
263.113	5.43
263.328	4.96
263.543	6.53
263.759	7.6
263.974	8.41
264.189	9.59
264.405	7.42
264.62	8.62
264.835	8.76
265.051	9.21
265.266	9.21
265.481	10.11
265.696	9.96
265.912	8.95
266.127	9.56
266.342	8.69
266.557	8.78
266.773	8.47
266.988	7.36
267.203	6.78
267.418	6.94
267.633	7.42
267.848	7.87
268.064	8.18
268.279	9.02
268.494	8.86
268.709	8.83
268.924	8.83
269.139	8.96
269.354	10.8
269.569	10.87
269.784	10.73
269.999	9.24
270.214	8.34
270.429	8.98
270.644	7.59
270.859	8.05
271.074	6.74
271.289	7.07
271.504	8.01
271.719	8.05
271.934	9.16
272.149	7.44
272.363	8.69
272.578	9.13
272.793	8.49
273.008	8.36
273.223	7.68
273.438	8.77
273.653	9.74
273.867	9.84
274.082	10.64
274.297	9.96
274.512	11.91
274.726	11.94
274.941	11.83
275.156	13.23
275.371	12.83
275.585	13.6
275.8	14.88
276.015	13.87
276.229	13.69
276.444	12.77
276.659	12.61
276.873	10.57
277.088	10.13
277.302	10.84
277.517	8.56
277.732	8.69
277.946	6.48
278.161	7.6
278.375	7.64
278.59	8.22
278.804	9.09
279.019	9.58
279.233	11.34
279.448	12.15
279.662	11.91
279.877	12.66
280.091	13.13
280.306	16
280.52	12.87
280.735	11.39
280.949	11.74
281.163	9.82
281.378	8.72
281.592	9.44
281.806	9.43
282.021	9.1
282.235	8.43
282.449	7.09
282.664	6.57
282.878	7.65
283.092	9.05
283.307	8.27
283.521	8.2
283.735	7.58
283.949	6.64
284.164	6.25
284.378	6.21
284.592	6.46
284.806	7.87
285.02	6.37
285.234	5.64
285.449	5.54
285.663	5.6
285.877	6.42
286.091	7.2
286.305	6.92
286.519	5.86
286.733	4.69
286.947	4.94
287.161	4.42
287.375	4.48
287.589	5.23
287.803	6.4
288.017	6.54
288.231	6.42
288.445	6.39
288.659	6.8
288.873	8.32
289.087	10.89
289.301	10.24
289.515	11.97
289.729	13.68
289.943	13.97
290.157	13.4
290.371	14.84
290.584	14.49
290.798	13.93
291.012	13.79
291.226	14.1
291.44	13.54
291.654	14.26
291.867	12.82
292.081	12.46
292.295	12.31
292.509	11.27
292.722	8.87
292.936	9.5
293.15	10.99
293.364	13.27
293.577	12.56
293.791	12.61
294.005	12.18
294.218	11.5
294.432	9.95
294.645	9.98
294.859	10.48
295.073	10.01
295.286	10.16
295.5	10.33
295.713	9.76
295.927	9.39
296.14	9.01
296.354	10.04
296.568	10.4
296.781	11.72
296.994	10.47
297.208	11.1
297.421	11.47
297.635	10.99
297.848	10.43
298.062	10.45
298.275	10.65
298.489	10.73
298.702	10.74
298.915	11.17
299.129	10.88
299.342	11.45
299.555	10.74
299.769	12.26
299.982	13.15
300.195	13.21
300.409	12.66
300.622	12.69
300.835	12.87
301.048	12.23
301.262	12.37
301.475	13.57
301.688	16.02
301.901	17.32
302.115	16.6
302.328	16.54
302.541	17.25
302.754	17.43
302.967	19.14
303.18	19.47
303.393	21.27
303.607	21.02
303.82	18.77
304.033	16.77
304.246	17.04
304.459	16.92
304.672	16.02
304.885	15.61
305.098	16.04
305.311	14.2
305.524	14.16
305.737	11.45
305.95	11.21
306.163	11.29
306.376	12.16
306.589	10.11
306.802	9.79
307.015	11.65
307.228	10.34
307.44	10.4
307.653	11.11
307.866	11.9
308.079	13.08
308.292	12.53
308.505	12.18
308.718	12.58
308.93	13.51
309.143	13.01
309.356	10.85
309.569	11.31
309.781	12
309.994	12.06
310.207	12.23
310.42	10.59
310.632	10.63
310.845	10.71
311.058	9.51
311.27	8.31
311.483	9.29
311.696	10.72
311.908	11.02
312.121	8.92
312.333	8.57
312.546	6.89
312.759	8.54
312.971	9.08
313.184	9.2
313.396	9.05
313.609	10.16
313.821	9.41
314.034	8.96
314.246	9.56
314.459	9.74
314.671	10.69
314.884	9.65
315.096	9.99
315.309	9.59
315.521	10.42
315.733	10.83
315.946	11.7
316.158	11.35
316.371	10.09
316.583	11.06
316.795	11.08
317.008	9.23
317.22	11.05
317.432	11.24
317.644	12.22
317.857	11.94
318.069	11.54
318.281	10.19
318.494	11.74
318.706	12.43
318.918	11.83
319.13	11.72
319.342	13.65
319.555	13.72
319.767	12.79
319.979	13.46
320.191	13.17
320.403	13.57
320.615	12.86
320.827	11.8
321.039	12.14
321.252	11.1
321.464	13.61
321.676	13.82
321.888	13.14
322.1	13.79
322.312	13.16
322.524	12.85
322.736	12.07
322.948	13.82
323.16	14.53
323.372	14.42
323.584	15.57
323.796	15.84
324.007	13.46
324.219	13.56
324.431	13.44
324.643	12.98
324.855	13.64
325.067	15.1
325.279	15.74
325.491	14.7
325.702	14.79
325.914	12.53
326.126	10.63
326.338	10.93
326.55	11.73
326.761	11.69
326.973	11.41
327.185	11.47
327.396	10.67
327.608	8.25
327.82	9.65
328.032	9.95
328.243	11
328.455	11.88
328.666	12.8
328.878	10.71
329.09	10.46
329.301	10.95
329.513	11.53
329.725	10.32
329.936	12.65
330.148	12.73
330.359	11.74
330.571	11.59
330.782	10.7
330.994	12.14
331.205	13.94
331.417	14.88
331.628	14.22
331.84	12.06
332.051	14.2
332.262	14.28
332.474	13.51
332.685	14.49
332.897	14.63
333.108	12.54
333.319	11.37
333.531	12.88
333.742	12.52
333.953	12.81
334.165	14.38
334.376	14.08
334.587	12.35
334.799	12.2
335.01	12.7
335.221	11.94
335.432	14.48
335.644	14.06
335.855	12.48
336.066	11.55
336.277	11.29
336.488	10.04
336.7	9.96
336.911	10.79
337.122	11.51
337.333	11.17
337.544	13
337.755	12.12
337.966	11.7
338.177	11.76
338.388	11.9
338.599	13.2
338.811	12.82
339.022	12.86
339.233	13.64
339.444	14.2
339.655	13.15
339.866	12.36
340.076	13.24
340.287	14.75
340.498	13.75
340.709	14.34
340.92	13.66
341.131	14.38
341.342	15
341.553	14.86
341.764	14.13
341.975	13.88
342.185	13.75
342.396	13.93
342.607	13.02
342.818	14.2
343.029	13.18
343.239	13.15
343.45	13.83
343.661	14.06
343.872	13.75
344.082	13.59
344.293	15.78
344.504	15.24
344.714	15.29
344.925	15.61
345.136	15.33
345.346	15.68
345.557	15.57
345.768	15.18
345.978	14.65
346.189	13.25
346.399	12.41
346.61	11.57
346.821	11.43
347.031	10.69
347.242	11.98
347.452	12.49
347.663	13.41
347.873	13.84
348.084	14.1
348.294	14.04
348.504	14.52
348.715	16.31
348.925	15.9
349.136	15.41
349.346	15.02
349.557	12.79
349.767	12.95
349.977	10.93
350.188	9.82
350.398	10.56
350.608	9.17
350.819	8.89
351.029	6.7
351.239	6.53
351.449	7.09
351.66	7.36
351.87	7.61
352.08	7.76
352.29	9.57
352.501	10.87
352.711	10.92
352.921	10.64
353.131	11.3
353.341	11.54
353.552	11.7
353.762	10.9
353.972	12.25
354.182	12.39
354.392	11.27
354.602	11.13
354.812	10.88
355.022	9.15
355.232	9.29
355.442	9.73
355.652	10.99
355.862	10.45
356.072	11.02
356.282	8.64
356.492	9.28
356.702	9.63
356.912	8.77
357.122	8.45
357.332	9.5
357.542	10.12
357.752	9.14
357.962	8.86
358.171	9.28
358.381	11.22
358.591	12.06
358.801	11.97
359.011	12.31
359.221	12.58
359.43	12.25
359.64	11.44
359.85	10.83
360.06	11.71
360.269	10.82
360.479	9.76
360.689	7.81
360.899	8.13
361.108	7.44
361.318	7.26
361.528	7.61
361.737	7.06
361.947	7.01
362.156	7.5
362.366	7.4
362.576	7.15
362.785	7.94
362.995	8.58
363.204	8.25
363.414	8.58
363.623	8.23
363.833	8.27
364.042	9.49
364.252	10.61
364.461	10.84
364.671	10.48
364.88	11.43
365.09	10.85
365.299	11.36
365.509	12.06
365.718	11.81
365.927	12.16
366.137	11.89
366.346	10.81
366.555	9.41
366.765	9
366.974	8.65
367.183	8.78
367.393	9.18
367.602	9.12
367.811	8.43
368.021	8.92
368.23	8.81
368.439	8.85
368.648	10
368.857	10.69
369.067	11.19
369.276	10.56
369.485	10.13
369.694	10.34
369.903	9.37
370.112	9.48
370.321	10.4
370.531	9.91
370.74	9.92
370.949	9.72
371.158	10.02
371.367	9.23
371.576	10.42
371.785	10.79
371.994	10.62
372.203	10.49
372.412	10.18
372.621	9.13
372.83	9.39
373.039	9.08
373.248	8.33
373.457	8.68
373.666	8.97
373.874	7.92
374.083	6.96
374.292	7.26
374.501	7.11
374.71	7.49
374.919	7.48
375.128	7.51
375.336	8.1
375.545	8.57
375.754	7.94
375.963	7.57
376.171	8.4
376.38	9.09
376.589	8.92
376.798	9.35
377.006	9.03
377.215	9.47
377.424	8.81
377.632	8.94
377.841	8.75
378.05	8.71
378.258	9.12
378.467	8.52
378.675	8.24
378.884	7.98
379.093	7.99
379.301	7.8
379.51	7.17
379.718	7.45
379.927	6.36
380.135	5.92
380.344	5.97
380.552	5.45
380.761	5.73
380.969	5.51
381.177	5.4
381.386	5.35
381.594	5.16
381.803	5.45
382.011	5.58
382.219	6.27
382.428	7.25
382.636	6.87
382.845	6.87
383.053	6.84
383.261	6.95
383.469	6.6
383.678	6.49
383.886	6.94
384.094	6.85
384.302	7.23
384.511	7.11
384.719	6.58
384.927	6.51
385.135	7.04
385.343	7.24
385.552	7.54
385.76	7.95
385.968	7.92
386.176	8.06
386.384	7.77
386.592	6.9
386.8	6.89
387.008	6.96
387.216	7.16
387.424	6.94
387.633	6.65
387.841	6.13
388.049	5.59
388.257	5.62
388.465	5.38
388.672	5.43
388.88	5.84
389.088	5.58
389.296	5.43
389.504	5.22
389.712	5.08
389.92	5.01
390.128	5.42
390.336	5.99
390.544	5.32
390.751	5.08
390.959	5.04
391.167	5.31
391.375	5.62
391.583	5.53
391.79	5.58
391.998	5.36
392.206	5.54
392.414	5.26
392.621	4.89
392.829	5.45
393.037	5.6
393.244	5.79
393.452	5.13
393.66	5.11
393.867	4.97
394.075	4.75
394.283	5.01
394.49	4.55
394.698	4.35
394.905	4.12
395.113	4
395.32	4.08
395.528	4.1
395.735	4.24
395.943	4.13
396.15	3.98
396.358	4.16
396.565	4.19
396.773	4.84
396.98	5.2
397.188	5.34
397.395	5.26
397.602	5.24
397.81	4.94
398.017	5.14
398.225	4.78
398.432	5.4
398.639	5.43
398.847	5.36
399.054	4.75
399.261	4.8
399.468	4.55
399.676	4.49
399.883	4.34
400.09	4.28
400.297	4.19
400.505	4.16
400.712	3.74
400.919	3.71
401.126	3.58
401.333	3.6
401.54	3.63
401.748	4.05
401.955	3.95
402.162	4.05
402.369	4.15
402.576	4.12
402.783	4.33
402.99	4.49
403.197	4.31
403.404	4.1
403.611	4.18
403.818	3.99
404.025	3.92
404.232	4.17
404.439	4.23
404.646	4.14
404.853	4.13
405.06	4.46
405.267	4.32
405.474	4.35
405.681	4.67
405.887	4.99
406.094	5.13
406.301	5.12
406.508	4.86
406.715	4.66
406.922	4.86
407.128	5.22
407.335	4.73
407.542	4.92
407.749	5.05
407.955	5.23
408.162	4.99
408.369	4.85
408.575	4.8
408.782	4.85
408.989	5.07
409.195	4.91
409.402	4.55
409.609	4.49
409.815	4.49
410.022	4.47
410.228	4.37
410.435	4.28
410.642	4.24
410.848	4.43
411.055	4.58
411.261	4.45
411.468	4.77
411.674	4.69
411.881	4.99
412.087	4.78
412.294	4.61
412.5	4.3
412.706	4.63
412.913	4.59
413.119	4.45
413.326	4.41
413.532	4.24
413.738	3.98
413.945	4.21
414.151	4.06
414.357	4.2
414.564	4.29
414.77	4.4
414.976	4.21
415.182	4.25
415.389	4.57
415.595	4.67
415.801	4.93
416.007	4.98
416.214	4.69
416.42	4.62
416.626	4.43
416.832	4.68
417.038	4.55
417.244	4.57
417.45	4.64
417.657	4.34
417.863	4.32
418.069	4.46
418.275	4.58
418.481	4.51
418.687	4.58
418.893	4.51
419.099	4.29
419.305	4.21
419.511	4.24
419.717	4.2
419.923	4.37
420.129	4.21
420.335	4.02
420.541	3.83
420.746	4.03
420.952	4.06
421.158	4.08
421.364	4.02
421.57	4.2
421.776	4.08
421.982	4.06
422.187	3.98
422.393	3.96
422.599	3.75
422.805	3.73
423.01	3.74
423.216	3.65
423.422	3.65
423.628	3.83
423.833	3.84
424.039	3.94
424.245	3.92
424.45	3.97
424.656	4.02
424.862	4.26
425.067	4.39
425.273	4.38
425.478	4.42
425.684	4.59
425.889	4.42
426.095	4.29
426.301	4.27
426.506	4.3
426.712	4.41
426.917	4.58
427.123	4.25
427.328	4.05
427.533	4.12
427.739	4.21
427.944	4.07
428.15	4.23
428.355	4.12
428.561	4.06
428.766	4.03
428.971	4
429.177	3.99
429.382	4.27
429.587	4.3
429.793	4.19
429.998	4.08
430.203	3.98
430.408	3.91
430.614	4.27
430.819	4.17
431.024	4.25
431.229	4.02
431.434	3.92
431.64	3.95
431.845	4.06
432.05	4.11
432.255	4.08
432.46	4.09
432.665	4.02
432.87	3.85
433.076	4.02
433.281	3.95
433.486	4.01
433.691	4.01
433.896	4.05
434.101	4.02
434.306	3.8
434.511	3.87
434.716	3.96
434.921	4.13
435.126	4.14
435.331	4.1
435.535	4.08
435.74	4.14
435.945	4.2
436.15	4.31
436.355	4.39
436.56	4.62
436.765	4.67
436.97	4.65
437.174	4.51
437.379	4.76
437.584	4.65
437.789	4.67
437.993	4.64
438.198	4.75
438.403	4.54
438.608	4.56
438.812	4.51
439.017	4.32
439.222	4.21
439.426	4.11
439.631	3.91
439.836	3.79
440.04	3.79
440.245	3.85
440.45	3.59
440.654	3.56
440.859	3.39
441.063	3.25
441.268	3.29
441.472	3.28
441.677	3.61
441.881	3.46
442.086	3.54
442.29	3.49
442.495	3.38
442.699	3.51
442.904	3.59
443.108	3.98
443.312	4.11
443.517	4.18
443.721	4.34
443.925	3.96
444.13	4.13
444.334	4.07
444.538	4
444.743	4.02
444.947	3.9
445.151	3.85
445.356	3.66
445.56	3.73
445.764	3.8
445.968	3.88
446.173	3.86
446.377	3.77
446.581	3.9
446.785	3.9
446.989	3.8
447.193	3.86
447.398	3.82
447.602	3.77
447.806	3.74
448.01	3.7
448.214	3.63
448.418	3.77
448.622	3.84
448.826	3.95
449.03	4.05
449.234	4.15
449.438	4.23
449.642	4.46
449.846	4.39
450.05	4.46
450.254	4.45
450.458	4.32
450.662	4.29
450.866	4.27
451.069	4.37
451.273	4.32
451.477	4.15
451.681	3.95
451.885	3.78
452.089	3.85
452.292	3.72
452.496	3.82
452.7	3.95
452.904	3.93
453.107	3.91
453.311	3.52
453.515	3.51
453.719	3.81
453.922	4.02
454.126	4.06
454.33	4.13
454.533	4.1
454.737	3.97
454.94	3.96
455.144	3.95
455.348	3.89
455.551	4
455.755	4.14
455.958	3.91
456.162	3.86
456.365	3.75
456.569	3.58
456.772	3.65
456.976	3.79
457.179	3.71
457.383	3.79
457.586	3.84
457.79	3.81
457.993	3.89
458.196	3.94
458.4	3.83
458.603	3.76
458.807	3.83
459.01	3.89
459.213	3.76
459.417	3.8
459.62	3.71
459.823	3.81
460.026	3.79
460.23	3.65
460.433	3.63
460.636	3.69
460.839	3.88
461.042	3.98
461.246	3.88
461.449	3.91
461.652	3.8
461.855	3.82
462.058	3.88
462.261	3.9
462.464	3.85
462.668	3.9
462.871	3.84
463.074	3.71
463.277	3.58
463.48	3.7
463.683	3.95
463.886	4.05
464.089	4.13
464.292	4.01
464.495	3.9
464.698	3.91
464.901	3.78
465.104	3.81
465.306	3.77
465.509	3.82
465.712	3.67
465.915	3.55
466.118	3.42
466.321	3.51
466.524	3.49
466.726	3.57
466.929	3.74
467.132	3.74
467.335	3.65
467.538	3.62
467.74	3.61
467.943	3.56
468.146	3.45
468.348	3.63
468.551	3.53
468.754	3.56
468.956	3.51
469.159	3.48
469.362	3.56
469.564	3.7
469.767	3.71
469.969	3.65
470.172	3.89
470.375	3.87
470.577	3.73
470.78	3.51
470.982	3.38
471.185	3.47
471.387	3.32
471.59	3.32
471.792	3.24
471.995	3.16
472.197	3.06
472.399	3.02
472.602	3.03
472.804	3.19
473.007	3.46
473.209	3.44
473.411	3.6
473.614	3.66
473.816	3.73
474.018	3.82
474.22	3.98
474.423	4.13
474.625	4.12
474.827	4.14
475.03	4.07
475.232	3.96
475.434	4.14
475.636	4.14
475.838	4.06
476.04	3.97
476.243	4.02
476.445	4.05
476.647	4.01
476.849	3.94
477.051	3.93
477.253	3.87
477.455	3.9
477.657	3.84
477.859	3.76
478.061	3.88
478.263	3.95
478.465	3.8
478.667	3.87
478.869	3.96
479.071	3.97
479.273	3.87
479.475	3.82
479.677	3.87
479.879	3.76
480.081	3.71
480.283	3.65
480.485	3.73
480.686	3.91
480.888	3.76
481.09	3.62
481.292	3.55
481.494	3.67
481.695	3.72
481.897	3.69
482.099	3.79
482.301	3.82
482.502	3.77
482.704	3.59
482.906	3.53
483.107	3.47
483.309	3.49
483.511	3.52
483.712	3.46
483.914	3.44
484.115	3.49
484.317	3.46
484.519	3.42
484.72	3.43
484.922	3.46
485.123	3.45
485.325	3.52
485.526	3.5
485.728	3.51
485.929	3.56
486.131	3.52
486.332	3.45
486.534	3.43
486.735	3.46
486.936	3.43
487.138	3.43
487.339	3.46
487.541	3.44
487.742	3.52
487.943	3.52
488.144	3.52
488.346	3.63
488.547	3.64
488.748	3.67
488.95	3.64
489.151	3.69
489.352	3.74
489.553	3.71
489.755	3.69
489.956	3.6
490.157	3.5
490.358	3.5
490.559	3.5
490.76	3.46
490.961	3.49
491.163	3.53
491.364	3.48
491.565	3.45
491.766	3.49
491.967	3.57
492.168	3.6
492.369	3.68
492.57	3.67
492.771	3.58
492.972	3.62
493.173	3.65
493.374	3.55
493.575	3.66
493.776	3.78
493.976	3.84
494.177	3.89
494.378	3.92
494.579	4
494.78	4.1
494.981	4.13
495.182	4.26
495.382	4.27
495.583	4.51
495.784	4.26
495.985	4.1
496.185	4.14
496.386	4.01
496.587	4.13
496.788	4
496.988	3.92
497.189	3.96
497.39	3.79
497.59	3.75
497.791	3.61
497.992	3.72
498.192	3.79
498.393	3.68
498.593	3.78
498.794	3.69
498.994	3.77
499.195	3.77
499.395	3.87
499.596	3.79
499.796	3.78
499.997	3.79
500.197	3.8
500.398	3.68
500.598	3.66
500.799	3.61
500.999	3.47
501.199	3.31
501.4	3.36
501.6	3.14
501.801	3.26
502.001	3.05
502.201	3.14
502.402	3.17
502.602	3.43
502.802	3.37
503.002	3.38
503.203	3.42
503.403	3.55
503.603	3.51
503.803	3.58
504.003	3.64
504.204	3.81
504.404	3.81
504.604	4.05
504.804	3.86
505.004	3.78
505.204	3.88
505.404	3.89
505.604	3.82
505.804	3.9
506.005	4
506.205	3.97
506.405	4.08
506.605	4.06
506.805	3.82
507.005	3.91
507.204	3.92
507.404	3.92
507.604	3.96
507.804	4
508.004	3.97
508.204	3.92
508.404	3.75
508.604	3.57
508.804	3.54
509.003	3.54
509.203	3.52
509.403	3.62
509.603	3.59
509.803	3.84
510.002	4.06
510.202	4.16
510.402	4.22
510.602	4.33
510.801	4.33
511.001	4.27
511.201	4.27
511.4	4.29
511.6	4.3
511.8	4.19
511.999	3.95
512.199	3.76
512.398	3.63
512.598	3.57
512.797	3.67
512.997	3.76
513.197	3.81
513.396	3.72
513.596	3.68
513.795	3.76
513.994	3.7
514.194	3.7
514.393	3.82
514.593	3.65
514.792	3.68
514.992	3.52
515.191	3.43
515.39	3.53
515.59	3.73
515.789	3.79
515.988	3.74
516.188	3.93
516.387	3.78
516.586	3.71
516.786	3.87
516.985	3.79
517.184	3.98
517.383	4.09
517.582	4.07
517.782	4.1
517.981	4.04
518.18	3.99
518.379	4
518.578	4.2
518.777	4.25
518.976	4.36
519.176	4.37
519.375	4.36
519.574	4.14
519.773	4.08
519.972	4.09
520.171	4.13
520.37	4.22
520.569	4.19
520.768	4.18
520.967	4.33
521.166	4.39
521.365	4.62
521.564	4.71
521.762	5.02
521.961	5.22
522.16	5.21
522.359	5.17
522.558	5.01
522.757	5.02
522.956	4.88
523.154	4.65
523.353	4.39
523.552	4.24
523.751	4.07
523.949	4.09
524.148	3.93
524.347	4.04
524.546	4.09
524.744	4.1
524.943	4.11
525.142	4.15
525.34	4.2
525.539	4.31
525.737	4.29
525.936	4.37
526.135	4.21
526.333	4.23
526.532	4.19
526.73	4.16
526.929	4.23
527.127	4.2
527.326	4.23
527.524	4.29
527.723	4.3
527.921	4.28
528.12	4.28
528.318	4.36
528.516	4.35
528.715	4.29
528.913	4.33
529.112	4.34
529.31	4.38
529.508	4.39
529.707	4.37
529.905	4.33
530.103	4.35
530.301	4.31
530.5	4.33
530.698	4.34
530.896	4.44
531.094	4.53
531.293	4.51
531.491	4.55
531.689	4.6
531.887	4.56
532.085	4.62
532.283	4.67
532.481	4.68
532.68	4.66
532.878	4.74
533.076	4.73
533.274	4.64
533.472	4.65
533.67	4.66
533.868	4.61
534.066	4.62
534.264	4.69
534.462	4.73
534.66	4.8
534.858	4.87
535.056	4.91
535.253	4.9
535.451	4.98
535.649	5.04
535.847	4.92
536.045	5.02
536.243	4.95
536.441	4.89
536.638	4.92
536.836	4.82
537.034	4.78
537.232	4.67
537.43	4.65
537.627	4.59
537.825	4.56
538.023	4.63
538.22	4.67
538.418	4.8
538.616	4.92
538.813	4.77
539.011	5
539.209	5.01
539.406	5.1
539.604	5.27
539.801	5.41
539.999	5.38
540.196	5.47
540.394	5.44
540.591	5.55
540.789	5.43
540.986	5.55
541.184	5.46
541.381	5.57
541.579	5.6
541.776	5.54
541.974	5.43
542.171	5.54
542.368	5.5
542.566	5.47
542.763	5.39
542.96	5.54
543.158	5.49
543.355	5.54
543.552	5.59
543.75	5.67
543.947	5.67
544.144	5.77
544.341	5.74
544.539	5.81
544.736	5.91
544.933	5.97
545.13	5.93
545.327	6.06
545.524	6.1
545.722	5.98
545.919	5.88
546.116	6.16
546.313	6.33
546.51	6.3
546.707	6.44
546.904	6.42
547.101	6.56
547.298	6.6
547.495	6.54
547.692	6.56
547.889	6.77
548.086	6.88
548.283	6.53
548.48	6.42
548.677	6.51
548.874	6.44
549.07	6.53
549.267	6.45
549.464	6.46
549.661	6.46
549.858	6.63
550.055	6.48
550.251	6.41
550.448	6.75
550.645	6.69
550.842	6.86
551.038	6.78
551.235	7.04
551.432	6.91
551.628	6.94
551.825	6.95
552.022	6.74
552.218	6.73
552.415	6.85
552.612	6.74
552.808	6.86
553.005	6.63
553.201	6.66
553.398	6.38
553.594	6.44
553.791	6.49
553.987	6.66
554.184	6.94
554.38	6.95
554.577	7.07
554.773	7.42
554.97	7.36
555.166	7.49
555.362	7.54
555.559	7.59
555.755	7.77
555.952	7.75
556.148	7.5
556.344	7.45
556.541	7.56
556.737	7.43
556.933	7.21
557.129	7.22
557.326	7.46
557.522	7.42
557.718	7.75
557.914	7.77
558.11	7.86
558.307	7.98
558.503	8.08
558.699	8.1
558.895	8.08
559.091	8.2
559.287	8.38
559.483	8.01
559.679	8.13
559.876	7.95
560.072	8.13
560.268	8.06
560.464	8.04
560.66	7.92
560.856	7.93
561.052	8.08
561.247	8.04
561.443	8.15
561.639	8.7
561.835	8.84
562.031	8.91
562.227	8.69
562.423	8.7
562.619	8.98
562.815	9.06
563.01	8.97
563.206	8.97
563.402	9.08
563.598	9.18
563.793	8.91
563.989	8.98
564.185	9.07
564.381	9.2
564.576	9.27
564.772	9.09
564.968	9.05
565.163	9.13
565.359	9.1
565.555	9.02
565.75	8.94
565.946	9.03
566.141	9.02
566.337	9.02
566.532	9.04
566.728	9.12
566.923	9.25
567.119	9.3
567.314	9.47
567.51	9.46
567.705	9.43
567.901	9.34
568.096	9.3
568.292	9.26
568.487	9.16
568.682	9.29
568.878	9.14
569.073	9.09
569.268	9.22
569.464	9.15
569.659	9.39
569.854	9.43
570.05	9.53
570.245	9.54
570.44	9.71
570.635	9.71
570.831	9.63
571.026	9.78
571.221	9.84
571.416	9.7
571.611	9.68
571.806	9.6
572.002	9.87
572.197	9.81
572.392	9.75
572.587	9.56
572.782	9.67
572.977	9.51
573.172	9.54
573.367	9.48
573.562	9.68
573.757	9.63
573.952	9.85
574.147	9.69
574.342	9.89
574.537	10.01
574.732	10.26
574.927	10.13
575.121	10.37
575.316	10.45
575.511	10.57
575.706	10.6
575.901	10.74
576.096	10.37
576.29	10.18
576.485	10.14
576.68	10.06
576.875	9.9
577.069	9.99
577.264	9.92
577.459	9.81
577.654	9.77
577.848	9.83
578.043	9.69
578.238	9.82
578.432	9.93
578.627	10.04
578.821	10.19
579.016	10.26
579.21	10.18
579.405	10.33
579.6	10.3
579.794	10.35
579.989	10.21
580.183	10.38
580.378	10.59
580.572	10.61
580.766	10.77
580.961	10.66
581.155	10.57
581.35	10.76
581.544	10.43
581.738	10.35
581.933	10.39
582.127	10.35
582.321	10.18
582.516	10.18
582.71	10.53
582.904	10.22
583.099	10.13
583.293	10.21
583.487	10.28
583.681	10.78
583.875	10.81
584.07	10.76
584.264	10.8
584.458	11.12
584.652	11.06
584.846	10.87
585.04	10.66
585.234	10.85
585.428	11.21
585.623	11.21
585.817	10.95
586.011	11.08
586.205	11.13
586.399	11.35
586.593	11.04
586.787	11.04
586.981	11.16
587.174	11.36
587.368	11.27
587.562	10.74
587.756	10.45
587.95	10.46
588.144	10.61
588.338	10.81
588.532	10.59
588.725	10.69
588.919	10.84
589.113	10.82
589.307	10.95
589.501	11.08
589.694	11.4
589.888	11.47
590.082	11.49
590.275	11.34
590.469	11.02
590.663	11.38
590.856	11.45
591.05	11.28
591.244	11.31
591.437	11.57
591.631	11.59
591.824	11.61
592.018	12
592.212	12.14
592.405	12.34
592.599	12.35
592.792	11.97
592.986	12.18
593.179	12.14
593.372	12.01
593.566	11.87
593.759	11.74
593.953	11.9
594.146	11.84
594.339	11.89
594.533	11.7
594.726	11.78
594.92	11.96
595.113	11.72
595.306	11.74
595.499	11.66
595.693	11.5
595.886	11.69
596.079	11.39
596.272	11.24
596.466	11.26
596.659	11.32
596.852	11.44
597.045	11.33
597.238	11.49
597.431	11.54
597.624	11.63
597.818	11.75
598.011	11.82
598.204	11.74
598.397	11.76
598.59	11.57
598.783	11.64
598.976	11.56
599.169	11.55
599.362	11.3
599.555	11.45
599.748	11.72
599.941	11.67
600.134	11.36
600.326	11.23
600.519	11.45
600.712	11.13
600.905	11.24
601.098	11.35
601.291	11.49
601.483	11.58
601.676	11.22
601.869	11.09
602.062	10.88
602.255	11.25
602.447	11.76
602.64	11.48
602.833	11.84
603.025	11.82
603.218	11.7
603.411	11.73
603.603	11.71
603.796	11.9
603.989	11.85
604.181	11.8
604.374	11.66
604.566	11.54
604.759	11.82
604.951	11.95
605.144	11.85
605.336	11.87
605.529	11.66
605.721	11.82
605.914	11.87
606.106	11.75
606.299	11.91
606.491	11.94
606.683	11.77
606.876	11.59
607.068	11.41
607.26	11.55
607.453	11.81
607.645	11.99
607.837	11.61
608.03	11.64
608.222	11.75
608.414	11.6
608.606	11.71
608.799	11.9
608.991	11.88
609.183	12
609.375	12.15
609.567	11.89
609.759	11.92
609.952	12.23
610.144	12.03
610.336	12.13
610.528	12.36
610.72	12.27
610.912	12.14
611.104	12.35
611.296	12.28
611.488	12.05
611.68	12.2
611.872	11.99
612.064	11.84
612.256	12
612.448	11.87
612.64	11.7
612.832	11.67
613.023	11.86
613.215	11.74
613.407	11.84
613.599	11.85
613.791	11.55
613.983	11.83
614.174	12.19
614.366	12.47
614.558	12.19
614.75	12.13
614.941	12.2
615.133	11.95
615.325	11.95
615.516	11.93
615.708	11.86
615.9	12.14
616.091	12.31
616.283	12.03
616.475	11.92
616.666	12.68
616.858	12.86
617.049	12.96
617.241	13.03
617.432	12.75
617.624	12.89
617.815	13.01
618.007	12.92
618.198	12.65
618.39	12.5
618.581	12.17
618.773	11.55
618.964	11.47
619.155	11.33
619.347	11.58
619.538	11.55
619.729	11.21
619.921	11.06
620.112	11.26
620.303	11.14
620.494	11.09
620.686	11.04
620.877	11.2
621.068	11.31
621.259	11.31
621.451	10.97
621.642	11.6
621.833	11.93
622.024	11.93
622.215	11.93
622.406	11.97
622.597	12.18
622.788	12.57
622.98	12.69
623.171	12.6
623.362	12.52
623.553	12.79
623.744	12.31
623.935	12.17
624.126	12.39
624.317	12.02
624.508	12.18
624.698	12.01
624.889	11.97
625.08	11.79
625.271	11.84
625.462	11.94
625.653	11.74
625.844	11.55
626.034	11.51
626.225	11.34
626.416	11.37
626.607	11.52
626.798	11.66
626.988	11.38
627.179	11.45
627.37	11.4
627.56	11.51
627.751	11.54
627.942	11.87
628.132	11.88
628.323	11.91
628.514	12.11
628.704	12.08
628.895	12.14
629.085	12.34
629.276	12.16
629.466	12.06
629.657	11.94
629.847	12.17
630.038	12.02
630.228	12.02
630.419	11.98
630.609	11.92
630.8	11.64
630.99	11.3
631.181	11.22
631.371	11.62
631.561	11.73
631.752	11.76
631.942	11.47
632.132	11.58
632.323	11.57
632.513	11.42
632.703	11.17
632.893	11.22
633.084	11.22
633.274	10.85
633.464	10.67
633.654	10.58
633.844	10.37
634.034	10.7
634.225	10.68
634.415	10.46
634.605	10.68
634.795	11.06
634.985	10.92
635.175	11.2
635.365	11.65
635.555	11.55
635.745	11.67
635.935	12.11
636.125	11.68
636.315	11.87
636.505	12.07
636.695	12.23
636.885	12.34
637.075	12.63
637.265	12.65
637.455	12.32
637.644	12.39
637.834	12.44
638.024	12.1
638.214	12.83
638.404	12.66
638.593	12.41
638.783	12.07
638.973	11.79
639.163	11.59
639.352	11.49
639.542	11.7
639.732	11.74
639.921	11.68
640.111	11.41
640.301	10.89
640.49	10.96
640.68	11.13
640.87	11.1
641.059	11.18
641.249	11.55
641.438	11.73
641.628	11.6
641.817	11.98
642.007	12.45
642.196	12.87
642.386	13.15
642.575	13.49
642.764	13.82
642.954	14.16
643.143	14.12
643.333	14.29
643.522	14.24
643.711	14.39
643.901	14.03
644.09	13.91
644.279	14.12
644.469	13.27
644.658	12.96
644.847	13.03
645.036	12.8
645.226	12.85
645.415	12.18
645.604	12.04
645.793	11.95
645.982	11.92
646.171	11.62
646.361	11.23
646.55	11.83
646.739	11.36
646.928	10.95
647.117	11.33
647.306	11.31
647.495	11.63
647.684	11.73
647.873	11.85
648.062	12.1
648.251	12.43
648.44	12.54
648.629	12.4
648.818	12.3
649.007	12.47
649.196	12.07
649.384	12.23
649.573	12.51
649.762	12.94
649.951	12.93
650.14	12.66
650.328	12.47
650.517	12.5
650.706	12.59
650.895	13.23
651.083	13.34
651.272	13.3
651.461	13.39
651.65	12.87
651.838	12.12
652.027	12.17
652.216	11.92
652.404	11.48
652.593	11.41
652.781	11.34
652.97	10.74
653.158	10.2
653.347	10.15
653.535	10.04
653.724	9.62
653.912	10.26
654.101	10.43
654.289	10.65
654.478	11.1
654.666	11.36
654.855	11.65
655.043	12.07
655.231	12.23
655.42	12.2
655.608	11.88
655.796	12.79
655.985	12.39
656.173	12.26
656.361	13.02
656.55	12.99
656.738	12.74
656.926	12.89
657.114	12.66
657.302	12.66
657.491	12.83
657.679	13.19
657.867	12.49
658.055	12.55
658.243	12.66
658.431	12.16
658.619	12.17
658.807	12.15
658.996	11.74
659.184	11.55
659.372	11.7
659.56	11.51
659.748	11.34
659.936	11.63
660.124	11.41
660.311	11.61
660.499	11.65
660.687	11.88
660.875	11.75
661.063	12.09
661.251	12.3
661.439	12.14
661.627	12.33
661.814	12.06
662.002	12.25
662.19	12.52
662.378	12.05
662.565	12.14
662.753	11.82
662.941	11.98
663.129	12.07
663.316	12.34
663.504	12.67
663.692	13.1
663.879	13.51
664.067	13.3
664.254	13.38
664.442	13.89
664.63	14.05
664.817	14.5
665.005	14.34
665.192	13.94
665.38	13.84
665.567	13.66
665.755	13.34
665.942	13.3
666.13	13.48
666.317	13.4
666.504	12.79
666.692	12.29
666.879	12.26
667.067	12.98
667.254	13.25
667.441	13.45
667.629	13.4
667.816	13.22
668.003	13.73
668.19	13.6
668.378	13.63
668.565	14.18
668.752	14.48
668.939	13.35
669.127	12.82
669.314	12.72
669.501	12.7
669.688	12.77
669.875	13.1
670.062	12.76
670.249	12.66
670.436	12.73
670.623	12.81
670.81	12.7
670.997	13.28
671.184	13.2
671.371	13.1
671.558	13.15
671.745	13.24
671.932	12.73
672.119	12.66
672.306	12.97
672.493	13.1
672.68	12.67
672.867	12.78
673.054	13.17
673.24	13.16
673.427	13.56
673.614	13.41
673.801	13.79
673.988	14.56
674.174	14.94
674.361	14.81
674.548	14.33
674.734	14.24
674.921	13.61
675.108	13.27
675.294	12.91
675.481	12.44
675.668	12.36
675.854	12.36
676.041	11.52
676.227	10.73
676.414	10.83
676.601	11.23
676.787	11.66
676.974	11.86
677.16	11.91
677.347	12.51
677.533	12.78
677.719	12.93
677.906	12.45
678.092	13.15
678.279	13.03
678.465	13.41
678.651	13.15
678.838	12.78
679.024	12.89
679.21	13.1
679.397	12.83
679.583	12.43
679.769	12.27
679.955	12.35
680.142	12.07
680.328	12.45
680.514	12.22
680.7	11.93
680.886	12.03
681.073	12.08
681.259	12.02
681.445	11.76
681.631	11.8
681.817	11.29
682.003	11.43
682.189	11.46
682.375	11.34
682.561	11.25
682.747	11.93
682.933	11.72
683.119	11.59
683.305	11.49
683.491	11.69
683.677	11.87
683.863	12.68
684.049	12.5
684.235	12.49
684.42	12.55
684.606	11.85
684.792	11.49
684.978	11.92
685.164	12.63
685.349	12.42
685.535	12.93
685.721	12.66
685.907	11.89
686.092	12.14
686.278	12.12
686.464	12.05
686.649	12.71
686.835	12.94
687.021	12.78
687.206	12.39
687.392	12.48
687.577	12.24
687.763	12.16
687.948	12.88
688.134	12.44
688.319	12.8
688.505	12.94
688.69	12.93
688.876	13.24
689.061	13.23
689.247	12.99
689.432	13.1
689.618	13.62
689.803	14.08
689.988	14.04
690.174	14.39
690.359	13.95
690.544	13.72
690.73	14.32
690.915	14.04
691.1	13.28
691.285	13.72
691.471	13.9
691.656	13.7
691.841	13.39
692.026	13.24
692.211	13.06
692.396	13.17
692.582	13.87
692.767	13.2
692.952	12.87
693.137	13.45
693.322	13.21
693.507	13.09
693.692	12.9
693.877	13.31
694.062	13.24
694.247	13.26
694.432	12.75
694.617	12.39
694.802	12.13
694.987	12.41
695.172	12.69
695.357	12.63
695.541	12.93
695.726	12.81
695.911	12.82
696.096	13.06
696.281	13.26
696.466	13.6
696.65	13.64
696.835	13.71
697.02	13.82
697.204	13.95
697.389	13.55
697.574	13.13
697.759	13.13
697.943	12.9
698.128	12.78
698.312	12.8
698.497	13.06
698.682	12.97
698.866	13
699.051	12.77
699.235	12.63
699.42	12.84
699.604	13.16
699.789	13.35
699.973	13.46
700.158	13.97
700.342	14.21
700.527	13.89
700.711	13.52
700.895	13.71
701.08	14.02
701.264	13.36
701.448	13.38
701.633	13.2
701.817	13.08
702.001	13.19
702.186	12.26
702.37	12.57
702.554	12.33
702.738	12.33
702.923	12.12
703.107	11.62
703.291	12.31
703.475	12.02
703.659	11.3
703.843	11.21
704.027	11.45
704.212	12.09
704.396	11.6
704.58	12.2
704.764	12.45
704.948	12.83
705.132	12.37
705.316	12.68
705.5	13.11
705.684	14.27
705.868	14.08
706.052	13.88
706.235	14.33
706.419	14.21
706.603	14
706.787	14.56
706.971	15.37
707.155	15.86
707.339	16.2
707.522	15.82
707.706	15.1
707.89	15.49
708.074	16.21
708.257	15.67
708.441	15.4
708.625	14.7
708.808	14.62
708.992	14.68
709.176	13.95
709.359	12.95
709.543	12.96
709.727	13.22
709.91	12.84
710.094	12.76
710.277	13.11
710.461	12.71
710.644	13.33
710.828	13.22
711.011	12.29
711.195	13.46
711.378	14.48
711.562	14.79
711.745	14.95
711.928	14.69
712.112	14.59
712.295	13.64
712.478	13.7
712.662	13.85
712.845	13.44
713.028	13.9
713.212	13.25
713.395	13.04
713.578	13.01
713.761	12.71
713.945	13.49
714.128	12.46
714.311	13.29
714.494	13.19
714.677	12.87
714.86	13.82
715.043	13.49
715.227	14.59
715.41	13.64
715.593	13.55
715.776	13.92
715.959	14.2
716.142	14.78
716.325	14.54
716.508	15.18
716.691	15.41
716.874	14.9
717.057	14.6
717.239	13.95
717.422	14.08
717.605	14.11
717.788	13.53
717.971	13.45
718.154	13.4
718.337	13.4
718.519	13.26
718.702	13.39
718.885	13.51
719.068	12.62
719.25	12.05
719.433	12.57
719.616	12.56
719.798	13
719.981	12.43
720.164	12.41
720.346	12.24
720.529	12.21
720.712	12.49
720.894	11.74
721.077	12.47
721.259	12.46
721.442	12.35
721.624	12.08
721.807	11.58
721.989	12.39
722.172	11.55
722.354	11.78
722.537	12.17
722.719	11.96
722.901	12.3
723.084	13.3
723.266	13.13
723.448	13.06
723.631	14.56
723.813	15.5
723.995	13.05
724.178	14.24
724.36	14.38
724.542	14.28
724.724	13.54
724.907	13.66
725.089	14.01
725.271	14.45
725.453	13.85
725.635	12.2
725.817	12.17
725.999	13.6
726.181	13.44
726.364	13
726.546	12.86
726.728	13.41
726.91	14.06
727.092	13.34
727.274	14.21
727.456	15.52
727.638	16.21
727.819	15.16
728.001	15.18
728.183	14.54
728.365	14.63
728.547	14.86
728.729	14.91
728.911	15.21
729.093	14.54
729.274	14.41
729.456	13.84
729.638	13.78
729.82	15.68
730.001	15.56
730.183	16.11
730.365	17.42
730.546	16.85
730.728	16.81
730.91	16.36
731.091	16.32
731.273	16.11
731.455	16.08
731.636	16.1
731.818	15.69
731.999	16.34
732.181	16.81
732.362	16.09
732.544	16.54
732.725	17.51
732.907	17.49
733.088	18.22
733.27	18.04
733.451	18.17
733.633	17.46
733.814	16.5
733.995	15.96
734.177	16.61
734.358	16.46
734.539	16.57
734.721	16.2
734.902	16.55
735.083	16.59
735.264	16.74
735.446	16.91
735.627	18.48
735.808	18.6
735.989	17.77
736.17	16.52
736.351	16.69
736.533	17.73
736.714	16.94
736.895	16.47
737.076	15.86
737.257	15.76
737.438	14.87
737.619	14.93
737.8	15.17
737.981	16.22
738.162	15.63
738.343	14.77
738.524	13.98
738.705	13.73
738.886	13.56
739.067	13.65
739.247	13.25
739.428	14.23
739.609	13.81
739.79	12.46
739.971	12.57
740.151	12.4
740.332	12.03
740.513	12.08
740.694	12.32
740.874	11.53
741.055	11.57
741.236	13.81
741.417	15.14
741.597	14.17
741.778	16.06
741.958	15.92
742.139	17.62
742.32	17.68
742.5	17.28
742.681	17.6
742.861	18.73
743.042	19.25
743.222	16.46
743.403	15.02
743.583	16.27
743.764	16.1
743.944	16.76
744.124	16.58
744.305	16.85
744.485	17.16
744.666	17.07
744.846	17.18
745.026	17.53
745.207	18.27
745.387	18.47
745.567	18.13
745.747	17.15
745.928	15.5
746.108	14.77
746.288	14.35
746.468	14.36
746.648	14.16
746.829	15.09
747.009	14.86
747.189	15.71
747.369	15.15
747.549	14.43
747.729	14.82
747.909	15.71
748.089	14.95
748.269	16.09
748.449	16.32
748.629	16.66
748.809	15.55
748.989	15.48
749.169	14.46
749.349	14.28
749.529	14.41
749.709	15.79
749.889	14.34
750.068	13.91
750.248	13.98
750.428	12.79
750.608	12.91
750.788	14.8
750.967	15.07
751.147	15.87
751.327	16.79
751.507	16.56
751.686	15.51
751.866	17.23
752.046	18.27
752.225	17.98
752.405	18.26
752.585	18.35
752.764	16.39
752.944	15.73
753.123	15.63
753.303	15.6
753.482	15.79
753.662	16.07
753.841	15.17
754.021	14.81
754.2	14.91
754.38	16.3
754.559	17.02
754.739	16.75
754.918	16.1
755.097	15.23
755.277	14.57
755.456	15.68
755.635	15.54
755.815	15.74
755.994	16.37
756.173	16.4
756.352	16.25
756.532	15.35
756.711	16.1
756.89	17.86
757.069	18.36
757.248	19.09
757.427	18.51
757.607	19.03
757.786	19.55
757.965	19.64
758.144	19.88
758.323	18.73
758.502	18.48
758.681	18.62
758.86	17.63
759.039	18
759.218	17.56
759.397	17.82
759.576	15.62
759.755	14.39
759.934	13.82
760.113	13.71
760.291	15.08
760.47	15.56
760.649	15.95
760.828	16.13
761.007	14.04
761.186	14.45
761.364	15.04
761.543	16.71
761.722	16.9
761.901	16.7
762.079	17.08
762.258	15.11
762.437	14.89
762.615	15.69
762.794	15.63
762.972	17.44
763.151	16.46
763.33	15.53
763.508	14.94
763.687	15.07
763.865	14.66
764.044	13.69
764.222	14.52
764.401	14.47
764.579	13.03
764.758	12.96
764.936	11.99
765.114	12.95
765.293	12.96
765.471	12.66
765.65	13.16
765.828	13.66
766.006	14
766.184	13.72
766.363	13.76
766.541	13.25
766.719	12.27
766.898	13.18
767.076	12.32
767.254	11.87
767.432	12.45
767.61	12.22
767.788	12.09
767.967	12.29
768.145	12.09
768.323	11.99
768.501	13.61
768.679	14.55
768.857	14.81
769.035	14.74
769.213	15.09
769.391	15.82
769.569	16.51
769.747	17.9
769.925	17.79
770.103	17.25
770.281	17.11
770.459	16.75
770.636	17.39
770.814	17.18
770.992	17.07
771.17	16.7
771.348	16.13
771.525	14.73
771.703	14.07
771.881	15
772.059	16.78
772.236	17.53
772.414	18.14
772.592	17.26
772.769	18.42
772.947	17.27
773.125	16.72
773.302	17.35
773.48	18.69
773.657	18.79
773.835	20.36
774.013	19.29
774.19	18.39
774.368	17.88
774.545	18.42
774.723	19.12
774.9	21.18
775.077	22.11
775.255	21.94
775.432	21.44
775.61	20.14
775.787	18.45
775.964	20.2
776.142	21.61
776.319	21.81
776.496	21.88
776.674	20.31
776.851	17.82
777.028	17.9
777.205	18.61
777.382	19.24
777.56	21.9
777.737	22.67
777.914	20.29
778.091	21.81
778.268	20.35
778.445	20.21
778.622	18.18
778.8	19.62
778.977	19.97
779.154	18.2
779.331	18.48
779.508	16.97
779.685	15.12
779.862	16.96
780.038	12.8
780.215	13.03
780.392	11.51
780.569	11.99
780.746	13.19
780.923	12.63
781.1	14.84
781.277	13.62
781.453	12.85
781.63	14.87
781.807	15.04
781.984	18.45
782.16	18.65
782.337	20.05
782.514	21.95
782.691	21.93
782.867	26.04
783.044	24.56
783.221	26.19
783.397	28.89
783.574	28.77
783.75	26.59
783.927	25.72
784.103	27.44
784.28	26.82
784.456	25.54
784.633	25.35
784.809	21.61
784.986	22.08
785.162	19.19
785.339	14.31
785.515	12.29
785.692	11.44
785.868	9.97
786.044	5.17
786.221	8.59
786.397	7.91
786.573	8.76
786.749	7.91
786.926	5.12
787.102	6.65
787.278	7.31
787.454	9.18
787.631	11.8
787.807	12.05
787.983	14.81
788.159	13.75
788.335	12.97
788.511	13.59
788.687	14
788.863	17.17
789.039	17.17
789.216	18.85
789.392	17.52
789.568	17.45
789.744	17.98
789.919	19.84
790.095	17.66
790.271	20.22
790.447	17.97
790.623	16.97
790.799	14.48
790.975	14.44
791.151	14.82
791.327	16.87
791.502	14.94
791.678	16.45
791.854	14.66
792.03	15.6
792.205	14.61
792.381	14.29
792.557	19.04
792.733	21.16
792.908	22.64
793.084	21.88
793.259	18.68
793.435	21.07
793.611	19.43
793.786	19.77
793.962	20.53
794.137	18.91
794.313	21.03
794.488	20.43
794.664	20.19
794.839	19.51
795.015	19.89
795.19	20.16
795.366	20.71
795.541	20.91
795.716	21.04
795.892	21.16
796.067	22.62
796.242	22.66
796.418	18.39
796.593	17.91
796.768	17.45
796.944	17.41
797.119	20.2
797.294	18.13
797.469	19.3
797.644	19.1
797.82	18.87
797.995	16.35
798.17	15.82
798.345	18.21
798.52	18.72
798.695	18.38
798.87	18.93
799.045	15.71
799.22	18.28
799.395	17.29
799.57	17.09
799.745	18
799.92	20.76
800.095	21.38
800.27	22.31
800.445	23.71
800.62	24.6
800.795	23.99
800.97	25.69
801.145	25.51
801.319	25.73
801.494	26.78
801.669	27.79
801.844	28.6
802.018	28.82
802.193	29.47
802.368	28.24
802.543	26.93
802.717	28.78
802.892	26.59
803.067	25.1
803.241	24.17
803.416	21.03
803.59	18.55
803.765	16.07
803.94	11.03
804.114	9.01
804.289	11.44
804.463	14.97
804.638	13.33
804.812	15.92
804.986	13.61
805.161	12.1
805.335	13.31
805.51	15.66
805.684	13.75
805.858	16.75
806.033	14.25
806.207	11.32
806.381	10.03
806.556	10.23
806.73	10.49
806.904	11.89
807.078	13.44
807.253	14.59
807.427	14.44
807.601	14.69
807.775	12.33
807.949	14.95
808.123	15.85
808.298	15.89
808.472	17.63
808.646	17.13
808.82	17.83
808.994	17.28
809.168	18.6
809.342	17.44
809.516	19.83
809.69	23.07
809.864	25.68
810.038	27.84
810.212	27.11
810.385	22.75
810.559	23
810.733	24.8
810.907	25.46
811.081	23.84
811.255	23.76
811.428	23.16
811.602	26.55
811.776	25
811.95	26.14
812.123	27.22
812.297	27.27
812.471	27.44
812.644	27.12
812.818	27.91
812.992	29.51
813.165	28.87
813.339	29.23
813.512	24.68
813.686	24.31
813.86	23.67
814.033	25.38
814.207	28.44
814.38	27.92
814.554	28.9
814.727	30.11
814.9	29.1
815.074	27.53
815.247	28.76
815.421	31.98
815.594	32.02
815.767	29.66
815.941	30.45
816.114	27.31
816.287	28.71
816.46	25.07
816.634	20.62
816.807	20.93
816.98	22.66
817.153	22.73
817.327	22.78
817.5	24.22
817.673	25.34
817.846	21.44
818.019	20.34
818.192	19.71
818.365	20.94
818.538	22.32
818.711	23.39
818.884	22.41
819.057	20.22
819.23	15.78
819.403	17.59
819.576	18.4
819.749	20.1
819.922	21.93
820.095	21.16
820.268	20.53
820.441	21.55
820.614	19.56
820.786	20.66
820.959	18.99
821.132	20.36
821.305	17.35
821.477	16.29
821.65	15.25
821.823	15.61
821.996	15.28
822.168	15.26
822.341	15.04
822.514	15.23
822.686	15.29
822.859	14.7
823.031	14.07
823.204	14.53
823.376	14.39
823.549	14.54
823.722	14.5
823.894	14.67
824.067	15.09
824.239	14.4
824.411	14.49
824.584	14.05
824.756	15.32
824.929	15.89
825.101	15.99
825.273	16.74
825.446	16.97
825.618	18.04
825.79	18.1
825.963	16.81
826.135	18.05
826.307	18.8
826.479	18.98
826.652	17.08
826.824	16.41
826.996	16.59
827.168	14.63
827.34	15.33
827.512	14.33
827.684	15.73
827.856	16.7
828.029	16.89
828.201	15.32
828.373	15.49
828.545	17.59
828.717	17.39
828.889	17.69
829.061	19.07
829.232	19.33
829.404	19.11
829.576	17.1
829.748	16.63
829.92	18.62
830.092	19.91
830.264	20.81
830.436	22.5
830.607	25.72
830.779	25.27
830.951	27.85
831.123	25.26
831.294	24.8
831.466	23.55
831.638	28.85
831.809	24.37
831.981	23.67
832.153	24.55
832.324	24.45
832.496	24.82
832.667	28.83
832.839	30.78
833.011	30.64
833.182	28.73
833.354	27.83
833.525	23.79
833.697	25.19
833.868	25.31
834.039	25.75
834.211	24.95
834.382	23.82
834.554	22.23
834.725	18.67
834.896	17.92
835.068	22
835.239	21.34
835.41	23.16
835.581	25.29
835.753	25.3
835.924	21.07
836.095	19.81
836.266	19.43
836.438	19.55
836.609	22.37
836.78	24.49
836.951	20.48
837.122	23.36
837.293	21.03
837.464	17.13
837.635	19.57
837.806	20.53
837.977	21.43
838.148	24.04
838.319	22.77
838.49	23.89
838.661	25
838.832	24.61
839.003	20.13
839.174	27.5
839.345	25.99
839.516	20.12
839.687	22.81
839.857	26.5
840.028	20.89
840.199	22.87
840.37	17.93
840.54	16.3
840.711	16.04
840.882	21.18
841.053	16.84
841.223	17.03
841.394	19.33
841.564	19.06
841.735	12.31
841.906	15.33
842.076	13.28
842.247	17.21
842.417	19.56
842.588	21.15
842.758	20.73
842.929	16.5
843.099	20.05
843.27	21.54
843.44	26.5
843.611	30.17
843.781	23.53
843.951	15.61
844.122	21.2
844.292	17.54
844.462	22.5
844.633	26.5
844.803	25.33
844.973	15.68
845.144	11.14
845.314	0.22
845.484	6.04
845.654	14.17
845.824	30.42
845.995	16.81
846.165	17.36
846.335	11.25
846.505	7.7
846.675	23.82
846.845	43.62
847.015	62.61
847.185	56.85
847.355	55.35
847.525	49.55
847.695	41
847.865	47.77
848.035	46.18
848.205	44.27
848.375	48.75
848.545	30.19
848.715	26.58
848.884	17.35
849.054	29.62
849.224	17.92
849.394	42.84
849.564	32.7
849.733	22.57
849.903	13.94
850.073	17.33
850.243	7.37
850.412	27.17
850.582	28.95
850.752	28.78
850.921	12.63
851.091	20.39
851.26	-3.66
851.43	28.75
851.599	30.23
851.769	43.96
851.939	42.34
852.108	40.51
852.278	32.61
852.447	29.34
852.616	39.96
852.786	46.57
852.955	55.31
853.125	54.93
853.294	45.78
853.463	45.09
853.633	43.48
853.802	43.95
853.971	57.96
854.141	71.73
854.31	66.6
854.479	62.93
854.648	48.98
854.818	41.84
854.987	43.94
855.156	34.64
855.325	36.69
855.494	39.37
855.663	44.97
855.832	31.45
856.001	21.83
856.171	31.01
856.34	34.41
856.509	36.92
856.678	37.19
856.847	37.73
857.016	42.53
857.185	41.76
857.353	34
857.522	35.74
857.691	43.91
857.86	37.82
858.029	29.98
858.198	9.04
858.367	14.68
858.535	1.74
858.704	1.78
858.873	13.8
859.042	18.88
859.21	31.25
859.379	35.93
859.548	39.9
859.717	53.56
859.885	48.37
860.054	62.59
860.222	59.93
860.391	70.41
860.56	70.14
860.728	58.7
860.897	57.54
861.065	41.21
861.234	39.64
861.402	23.46
861.571	22.02
861.739	27.93
861.908	26.42
862.076	29.22
862.244	31.25
862.413	35.62
862.581	36.97
862.749	26.96
862.918	30.27
863.086	22.79
863.254	47.62
863.423	47.24
863.591	52.87
863.759	60.62
863.927	49.87
864.096	55.62
864.264	45.11
864.432	30.11
864.6	34.02
864.768	36.47
864.936	38.89
865.104	16
865.272	26.32
865.44	29.93
865.608	23.03
865.776	34.32
865.944	39.05
866.112	55.13
866.28	78.04
866.448	96.72
866.616	99.29
866.784	112.96
866.952	95.44
867.12	72.85
867.288	58.66
867.455	57.37
867.623	51.43
867.791	25.19
867.959	16.77
868.127	13.51
868.294	19.5
868.462	14.87
868.63	25.51
868.797	23.97
868.965	26.73
869.133	27.88
869.3	35.6
869.468	40.61
869.636	49.9
869.803	46.01
869.971	46.22
870.138	54.39
870.306	68.57
870.473	55.75
870.641	41.22
870.808	56.81
870.975	54.55
871.143	52.24
871.31	63
871.478	66.61
871.645	82.5
871.812	88.65
871.98	62.74
872.147	47.74
872.314	41.86
872.482	55.24
872.649	48.72
872.816	43.35
872.983	34.46
873.15	26.28
873.318	27.52
873.485	24.67
873.652	27.73
873.819	44.71
873.986	52.92
874.153	49.52
874.32	50.02
874.487	41.24
874.654	31.76
874.821	47.43
874.988	45.52
875.155	38.58
875.322	3.83
875.489	7.22
875.656	-13.95
875.823	-30.83
875.99	-26.74
876.157	-40.63
876.324	-15.06
876.49	-9.89
876.657	-25.68
876.824	-23.42
876.991	-10.09
877.157	17.44
877.324	17.46
877.491	32.3
877.658	26.52
877.824	29.32
877.991	38.71
878.157	34.41
878.324	32.8
878.491	43.74
878.657	37.56
878.824	29.66
878.99	28.37
879.157	21.44
879.323	20.24
879.49	22.38
879.656	24.19
879.823	24.79
879.989	32.15
880.156	33.67
880.322	25.11
880.488	23.98
880.655	7.73
880.821	5.82
880.987	9.87
881.154	3.56
881.32	15.49
881.486	12.38
881.652	13.27
881.819	15.03
881.985	14.52
882.151	18.63
882.317	19.39
882.483	26.54
882.649	27.96
882.816	25.49
882.982	25.78
883.148	25.87
883.314	26.39
883.48	25.41
883.646	24.29
883.812	26.29
883.978	25.85
884.144	26.23
884.31	25.29
884.476	22.91
884.642	25.41
884.807	24.77
884.973	22.97
885.139	23.7
885.305	20.95
885.471	17.98
885.637	15.68
885.802	17.18
885.968	12.73
886.134	13.27
886.3	14.83
886.465	15.77
886.631	18.67
886.797	24.74
886.962	21.66
887.128	29.27
887.293	28.01
887.459	22.65
887.625	26.82
887.79	34.42
887.956	30.12
888.121	31.59
888.287	31.36
888.452	28.7
888.618	17.63
888.783	27.42
