Data from 2938028_Reflection_1.txt Node
Date: Sun Jul 12 15:08:27 EDT 2015
User: robert
Spectrometer: USB4E03001
Autoset integration time: false
Trigger mode: 4
Integration Time (sec): 1.000000E-1
Scans to average: 10
Electric dark correction enabled: true
Nonlinearity correction enabled: false
Boxcar width: 5
Stray light correction enabled: false
XAxis mode: Wavelengths
Stop averaging: false
Number of Pixels in Spectrum: 3648
>>>>>Begin Spectral Data<<<<<
177.566	-13.16
177.785	36.75
178.005	-110.16
178.225	-4.05
178.445	15.53
178.665	70.99
178.885	42.63
179.105	78.76
179.324	71.97
179.544	47.12
179.764	58.31
179.984	70
180.204	101.2
180.423	54.16
180.643	80.51
180.863	74.21
181.083	87.21
181.302	75.21
181.522	77
181.742	77.51
181.961	97.23
182.181	165.91
182.401	117.86
182.621	118.91
182.84	246.57
183.06	191.74
183.279	203.87
183.499	155.85
183.719	170.68
183.938	148.71
184.158	173.73
184.377	193.98
184.597	73.98
184.816	96.09
185.036	91.35
185.256	75.48
185.475	109.72
185.695	69.45
185.914	58.38
186.134	95.46
186.353	177.59
186.572	248.72
186.792	164.04
187.011	336.02
187.231	321.02
187.45	259.59
187.67	275.78
187.889	119.82
188.108	170.5
188.328	182.64
188.547	175.48
188.766	137.57
188.986	122.18
189.205	110.6
189.424	116.55
189.644	117.07
189.863	123.43
190.082	128.07
190.302	133.73
190.521	105.61
190.74	122.72
190.959	123.4
191.178	125
191.398	123.07
191.617	128.56
191.836	118.05
192.055	121.31
192.274	101.1
192.494	102.2
192.713	117.79
192.932	125.25
193.151	122.12
193.37	108.9
193.589	104.75
193.808	123.89
194.027	139.26
194.246	157.92
194.465	125.69
194.685	186.72
194.904	252.38
195.123	196.81
195.342	275.01
195.561	222.91
195.78	437
195.999	-41230
196.218	1428.2
196.436	1150.9
196.655	482.6
196.874	-6543.88
197.093	288.41
197.312	196.61
197.531	205.69
197.75	166.52
197.969	202.35
198.188	217.99
198.407	205.29
198.625	336.51
198.844	134.5
199.063	112.81
199.282	153.81
199.501	141.4
199.719	147.17
199.938	124.06
200.157	129.53
200.376	108.95
200.594	77.79
200.813	80.75
201.032	57.74
201.251	79.23
201.469	97.27
201.688	75.35
201.907	76.76
202.125	79.6
202.344	117.33
202.563	103.42
202.781	127.39
203	147.02
203.218	125.73
203.437	159.18
203.656	251.41
203.874	321.89
204.093	254.53
204.311	286.01
204.53	275.61
204.748	361.95
204.967	1185.69
205.185	430.81
205.404	522.09
205.622	877.92
205.841	-5281.58
206.059	-1978.76
206.278	1512.02
206.496	1456.1
206.715	762.53
206.933	-140457.14
207.151	1108.77
207.37	502.32
207.588	357.23
207.806	238.29
208.025	220.33
208.243	172.83
208.461	157.97
208.68	136.04
208.898	151.29
209.116	165.05
209.335	157.07
209.553	136.15
209.771	135.05
209.989	132.84
210.208	141.94
210.426	120.08
210.644	110.49
210.862	94.03
211.081	142.96
211.299	158.27
211.517	111.53
211.735	74.48
211.953	105.37
212.171	127.81
212.39	172.65
212.608	192.19
212.826	218.48
213.044	164.26
213.262	133.93
213.48	108.41
213.698	96.11
213.916	120.12
214.134	130.18
214.352	125.5
214.57	140.32
214.788	215.41
215.006	197.46
215.224	266.72
215.442	-553
215.66	-228.53
215.878	-1792.19
216.096	2045.64
216.314	220.28
216.532	328
216.75	334.4
216.968	196.95
217.185	103.6
217.403	116.75
217.621	96.24
217.839	84.38
218.057	64.86
218.275	72.27
218.492	75.56
218.71	85.87
218.928	102.16
219.146	77.57
219.363	86.88
219.581	74.08
219.799	94.29
220.017	115.77
220.234	115.52
220.452	113.98
220.67	106.8
220.887	104.34
221.105	115.68
221.323	95.32
221.54	120.44
221.758	109.59
221.976	107.03
222.193	89.83
222.411	82.34
222.629	70.5
222.846	70.18
223.064	69.21
223.281	71.35
223.499	77.2
223.716	55.1
223.934	62.64
224.151	73.16
224.369	76.45
224.586	62.51
224.804	65.23
225.021	59.36
225.239	64.85
225.456	48.04
225.674	36.45
225.891	27.64
226.108	47.59
226.326	31.44
226.543	16.97
226.76	18.69
226.978	30.07
227.195	24.31
227.413	25.8
227.63	26.26
227.847	32.44
228.064	33.82
228.282	31.53
228.499	33.85
228.716	33.31
228.934	34.5
229.151	32.97
229.368	28
229.585	27.4
229.802	29.81
230.02	29.46
230.237	30.66
230.454	30.78
230.671	29.4
230.888	23.42
231.105	22.62
231.323	23.61
231.54	22.65
231.757	24.23
231.974	25.96
232.191	24.04
232.408	19.71
232.625	21.81
232.842	23.38
233.059	28.02
233.276	30.56
233.493	28.64
233.71	22.25
233.927	22.05
234.144	22.74
234.361	20.62
234.578	20.41
234.795	22.54
235.012	18.43
235.229	15.24
235.446	19.37
235.663	18.94
235.879	18.87
236.096	22.36
236.313	22.6
236.53	24.94
236.747	26.06
236.964	23.4
237.181	23.62
237.397	22.93
237.614	22.45
237.831	16.06
238.048	16.06
238.264	20.47
238.481	20.94
238.698	20.05
238.915	19.69
239.131	20.25
239.348	25.99
239.565	28.2
239.781	29.43
239.998	29.68
240.215	29.43
240.431	30.34
240.648	30.06
240.865	29.76
241.081	30.88
241.298	27.88
241.514	26.54
241.731	23.03
241.947	20.94
242.164	18.38
242.38	17.57
242.597	16.37
242.814	14.42
243.03	13.49
243.246	11.25
243.463	7.56
243.679	8.95
243.896	7.52
244.112	9.45
244.329	9.15
244.545	10.16
244.762	9.55
244.978	12.23
245.194	16.58
245.411	15.6
245.627	15.07
245.843	17.83
246.06	16.03
246.276	15.51
246.492	14.67
246.709	14.41
246.925	14.09
247.141	14.13
247.357	13.23
247.574	11.87
247.79	12.77
248.006	13.16
248.222	12.16
248.439	12.72
248.655	13.44
248.871	11.21
249.087	11.48
249.303	12.06
249.519	11.65
249.736	11.54
249.952	12.17
250.168	11.59
250.384	10.88
250.6	13.23
250.816	11.19
251.032	11.53
251.248	15.44
251.464	15.72
251.68	14.7
251.896	15.73
252.112	13.35
252.328	12.98
252.544	11.59
252.76	11.42
252.976	10.54
253.192	11.67
253.408	11.03
253.624	10.56
253.84	10.07
254.056	10.89
254.272	12.29
254.487	14.64
254.703	13.73
254.919	17.44
255.135	21.55
255.351	19.38
255.567	19.89
255.782	17.87
255.998	17.84
256.214	19.9
256.43	18.54
256.646	17.23
256.861	15.11
257.077	16.51
257.293	13.33
257.508	11.96
257.724	14.7
257.94	12.79
258.155	12.41
258.371	12.57
258.587	9.63
258.802	9.68
259.018	9.33
259.234	9.67
259.449	9.47
259.665	9.64
259.88	9.75
260.096	9.16
260.312	9.87
260.527	10.39
260.743	9.8
260.958	10.57
261.174	9.54
261.389	9.99
261.605	11.16
261.82	11.85
262.036	12.33
262.251	11.72
262.466	11.43
262.682	10.81
262.897	9.4
263.113	9.75
263.328	9.51
263.543	10.88
263.759	10.7
263.974	9.17
264.189	10.05
264.405	9.67
264.62	12.35
264.835	15.14
265.051	16.63
265.266	17.37
265.481	16.78
265.696	16.14
265.912	17.61
266.127	17.07
266.342	19.1
266.557	17.7
266.773	17.39
266.988	16.46
267.203	14.99
267.418	13.74
267.633	14.67
267.848	15.88
268.064	15.59
268.279	16.32
268.494	15.31
268.709	12.73
268.924	12.09
269.139	11.72
269.354	11.7
269.569	11.24
269.784	11.67
269.999	10.98
270.214	9.19
270.429	9.31
270.644	7.92
270.859	9.04
271.074	10.32
271.289	11.22
271.504	11.31
271.719	10.7
271.934	10.03
272.149	9.59
272.363	8.99
272.578	9.51
272.793	8.94
273.008	8.91
273.223	9.03
273.438	8.31
273.653	7.98
273.867	8.26
274.082	7.93
274.297	8.02
274.512	7.09
274.726	6.58
274.941	6.61
275.156	8.21
275.371	6.45
275.585	7
275.8	7.91
276.015	6.54
276.229	6.51
276.444	6.71
276.659	7.33
276.873	8.76
277.088	11.01
277.302	10.84
277.517	9.45
277.732	9.41
277.946	7.99
278.161	7.66
278.375	8
278.59	7.74
278.804	7.28
279.019	8.87
279.233	8.07
279.448	6.95
279.662	6.22
279.877	5.99
280.091	6.85
280.306	7.16
280.52	8.24
280.735	9.54
280.949	8.91
281.163	9.83
281.378	8.32
281.592	8.26
281.806	8.25
282.021	10.23
282.235	11.55
282.449	11.76
282.664	12.16
282.878	11.2
283.092	11.78
283.307	13.05
283.521	12.6
283.735	13.64
283.949	13.68
284.164	13.64
284.378	12.42
284.592	13.38
284.806	13.42
285.02	13.5
285.234	13.22
285.449	10.94
285.663	10.22
285.877	9.88
286.091	8.5
286.305	8.32
286.519	8.67
286.733	8.35
286.947	8.26
287.161	8.98
287.375	7.64
287.589	7.56
287.803	8.83
288.017	7.9
288.231	8.43
288.445	8.81
288.659	9.81
288.873	9.3
289.087	9.72
289.301	9.05
289.515	9.03
289.729	9.88
289.943	9.58
290.157	10.23
290.371	11.1
290.584	10.36
290.798	10.15
291.012	10.14
291.226	10.55
291.44	10.29
291.654	8.75
291.867	7.88
292.081	8.56
292.295	9.57
292.509	10.58
292.722	10.98
292.936	12.5
293.15	11.52
293.364	10.91
293.577	10.77
293.791	10.48
294.005	10.83
294.218	10.26
294.432	10.18
294.645	9.24
294.859	8.99
295.073	10.23
295.286	9.82
295.5	11.52
295.713	13.12
295.927	13.28
296.14	13.75
296.354	14.69
296.568	14.73
296.781	13.84
296.994	13.73
297.208	12.91
297.421	12.37
297.635	11.89
297.848	12.08
298.062	10.93
298.275	11.43
298.489	12.25
298.702	11.95
298.915	11.54
299.129	12.55
299.342	13.31
299.555	12.65
299.769	12
299.982	12.89
300.195	12.11
300.409	12.62
300.622	11.38
300.835	9.63
301.048	10.78
301.262	14.17
301.475	12.38
301.688	11.54
301.901	11.98
302.115	11.59
302.328	11.85
302.541	12.93
302.754	11.59
302.967	12.97
303.18	14.89
303.393	14.48
303.607	12.25
303.82	13.06
304.033	14.62
304.246	14.57
304.459	14.95
304.672	14.33
304.885	13.76
305.098	15.61
305.311	15.29
305.524	14.11
305.737	12.85
305.95	13.8
306.163	15.23
306.376	14.56
306.589	14.6
306.802	14.82
307.015	14.86
307.228	15.61
307.44	14.06
307.653	13.03
307.866	13.73
308.079	13.55
308.292	13.28
308.505	12.81
308.718	14.47
308.93	15.52
309.143	16.34
309.356	16.84
309.569	16.49
309.781	17.59
309.994	17.1
310.207	17.09
310.42	18.14
310.632	16.91
310.845	15.66
311.058	14.77
311.27	14.2
311.483	13.4
311.696	11.94
311.908	11.84
312.121	10.33
312.333	10.79
312.546	10.25
312.759	9.07
312.971	10.51
313.184	12.99
313.396	11.7
313.609	12.03
313.821	12.14
314.034	14.33
314.246	13.64
314.459	14.02
314.671	15.26
314.884	15.29
315.096	14.22
315.309	14.55
315.521	12.99
315.733	13.65
315.946	12.95
316.158	13.89
316.371	13.47
316.583	13.25
316.795	15.06
317.008	13.98
317.22	14.99
317.432	16.25
317.644	15
317.857	12.82
318.069	12.29
318.281	12.99
318.494	12.89
318.706	12.85
318.918	13.63
319.13	12.31
319.342	12.65
319.555	11.03
319.767	10.74
319.979	10.86
320.191	12.95
320.403	15.07
320.615	13.74
320.827	12.66
321.039	13.1
321.252	14.12
321.464	15.02
321.676	16.09
321.888	16.04
322.1	19.04
322.312	17.71
322.524	18.58
322.736	16.74
322.948	17.98
323.16	18.24
323.372	15.98
323.584	15.19
323.796	15.37
324.007	14.23
324.219	14.97
324.431	13.53
324.643	15.39
324.855	13.96
325.067	15.37
325.279	15.15
325.491	14.93
325.702	15.02
325.914	15.05
326.126	14.81
326.338	14.91
326.55	16.58
326.761	15.58
326.973	14.78
327.185	13.59
327.396	12.34
327.608	12.88
327.82	12.5
328.032	12.52
328.243	13.96
328.455	13
328.666	12.32
328.878	11.55
329.09	13.28
329.301	11.13
329.513	13.08
329.725	12.39
329.936	11.76
330.148	11.99
330.359	14.29
330.571	13.18
330.782	13.53
330.994	16.66
331.205	16.02
331.417	15.02
331.628	16.3
331.84	16.86
332.051	17.8
332.262	19.01
332.474	19.77
332.685	21.07
332.897	20.77
333.108	20.23
333.319	18.95
333.531	18.52
333.742	19.34
333.953	20.83
334.165	20.13
334.376	20.09
334.587	20.22
334.799	21.13
335.01	18.87
335.221	17.89
335.432	19.54
335.644	19.49
335.855	18.3
336.066	17.73
336.277	17.5
336.488	18.41
336.7	19.36
336.911	19.14
337.122	17.51
337.333	17.16
337.544	17.31
337.755	17.64
337.966	18.21
338.177	19.43
338.388	18.83
338.599	19.85
338.811	20.07
339.022	19.18
339.233	17.45
339.444	18.26
339.655	18.25
339.866	20.46
340.076	18.95
340.287	18.67
340.498	19.65
340.709	20.14
340.92	18.62
341.131	17.19
341.342	17.71
341.553	19.56
341.764	19.89
341.975	20.71
342.185	18.89
342.396	19.92
342.607	19.29
342.818	18.79
343.029	19.26
343.239	18.76
343.45	19.7
343.661	20.26
343.872	19.18
344.082	18.97
344.293	18.44
344.504	20.48
344.714	19.27
344.925	20.34
345.136	19.5
345.346	18.46
345.557	19.82
345.768	20.15
345.978	19.2
346.189	19.55
346.399	18.94
346.61	18.28
346.821	16.9
347.031	17.53
347.242	16.95
347.452	17.89
347.663	18.16
347.873	17.55
348.084	17.01
348.294	17.42
348.504	17.05
348.715	16.61
348.925	17.61
349.136	17.59
349.346	17.13
349.557	16.7
349.767	14.93
349.977	16.18
350.188	15.81
350.398	16.47
350.608	16.2
350.819	15.9
351.029	16.07
351.239	16.53
351.449	16.29
351.66	16.1
351.87	15.52
352.08	16.25
352.29	15.63
352.501	16.39
352.711	15.92
352.921	15.56
353.131	16.38
353.341	17.83
353.552	16.92
353.762	17.25
353.972	17.6
354.182	18
354.392	17.64
354.602	18.4
354.812	17.87
355.022	17.59
355.232	17.21
355.442	17.32
355.652	16.17
355.862	16.19
356.072	15.93
356.282	16.5
356.492	16.79
356.702	16.75
356.912	16.66
357.122	16.31
357.332	16.17
357.542	16.63
357.752	16.79
357.962	16.74
358.171	17.5
358.381	17.82
358.591	17.37
358.801	17.27
359.011	18.23
359.221	16.78
359.43	16.27
359.64	17.52
359.85	17.63
360.06	16.72
360.269	16.11
360.479	14.97
360.689	14
360.899	14.34
361.108	14.17
361.318	13.62
361.528	13.86
361.737	14.07
361.947	13.19
362.156	13.12
362.366	12.66
362.576	13.42
362.785	14.41
362.995	14.82
363.204	14.63
363.414	14.83
363.623	14.35
363.833	14.79
364.042	15.22
364.252	15.5
364.461	15.8
364.671	17.56
364.88	16.99
365.09	16.14
365.299	15.81
365.509	15.58
365.718	14.78
365.927	15.5
366.137	15.2
366.346	15.37
366.555	15.73
366.765	14.97
366.974	14.02
367.183	13.75
367.393	13.74
367.602	13.82
367.811	14.56
368.021	15
368.23	15.72
368.439	15.37
368.648	15.65
368.857	14.43
369.067	14.84
369.276	14.4
369.485	15.31
369.694	15.91
369.903	16.21
370.112	15.33
370.321	15.61
370.531	15.41
370.74	15.86
370.949	15.52
371.158	15.4
371.367	14.51
371.576	14.78
371.785	14.34
371.994	13.71
372.203	12.77
372.412	12.72
372.621	11.89
372.83	11.28
373.039	11.07
373.248	10.81
373.457	10.81
373.666	11.31
373.874	11.32
374.083	11.45
374.292	11.53
374.501	12.76
374.71	12.3
374.919	12.4
375.128	12.9
375.336	12.59
375.545	12.83
375.754	13.48
375.963	13.19
376.171	12.96
376.38	12.79
376.589	12.61
376.798	12.54
377.006	13.55
377.215	13.69
377.424	13.6
377.632	14.11
377.841	13.77
378.05	13.1
378.258	13.46
378.467	13.82
378.675	13.08
378.884	13.49
379.093	13.44
379.301	12.9
379.51	13.2
379.718	13.17
379.927	13.62
380.135	14.23
380.344	14.37
380.552	14.34
380.761	13.78
380.969	14.57
381.177	14.29
381.386	13.53
381.594	13.03
381.803	12.93
382.011	12.57
382.219	11.81
382.428	10.64
382.636	10.47
382.845	10.36
383.053	9.83
383.261	9.93
383.469	10.03
383.678	9.85
383.886	9.76
384.094	9.3
384.302	9.02
384.511	9.3
384.719	9.59
384.927	9.54
385.135	9.24
385.343	9.66
385.552	9.5
385.76	9.1
385.968	9.63
386.176	9.59
386.384	9.74
386.592	9.44
386.8	8.94
387.008	9.3
387.216	9.26
387.424	9.75
387.633	9.91
387.841	9.79
388.049	10.32
388.257	10.03
388.465	10.51
388.672	10.89
388.88	11.36
389.088	11.33
389.296	11.54
389.504	11.69
389.712	11.1
389.92	10.83
390.128	10.67
390.336	9.82
390.544	9.82
390.751	9.78
390.959	9.1
391.167	8.93
391.375	8.86
391.583	8.78
391.79	8.75
391.998	8.92
392.206	8.95
392.414	8.81
392.621	9.35
392.829	9.24
393.037	8.74
393.244	9.03
393.452	9.12
393.66	8.84
393.867	8.69
394.075	8.54
394.283	8.48
394.49	8.33
394.698	8.54
394.905	8.21
395.113	8.57
395.32	8.7
395.528	8.75
395.735	8.46
395.943	8.8
396.15	8.56
396.358	8.23
396.565	7.93
396.773	8.17
396.98	7.96
397.188	7.9
397.395	7.72
397.602	7.8
397.81	7.57
398.017	7.5
398.225	7.55
398.432	7.58
398.639	7.76
398.847	8.26
399.054	7.97
399.261	7.79
399.468	7.83
399.676	7.49
399.883	7.51
400.09	7.71
400.297	7.91
400.505	7.73
400.712	7.44
400.919	7.66
401.126	7.46
401.333	7.88
401.54	8.15
401.748	8.1
401.955	8.28
402.162	8.19
402.369	8.44
402.576	8.15
402.783	8.05
402.99	8.09
403.197	8.03
403.404	7.89
403.611	7.47
403.818	7.46
404.025	7.48
404.232	7.43
404.439	7.5
404.646	7.28
404.853	7.54
405.06	7.78
405.267	8.13
405.474	8.11
405.681	8.25
405.887	8.47
406.094	8.37
406.301	8.43
406.508	8.62
406.715	8.61
406.922	8.67
407.128	8.77
407.335	8.57
407.542	8.16
407.749	8.33
407.955	8.06
408.162	7.93
408.369	7.93
408.575	7.96
408.782	7.79
408.989	7.82
409.195	7.44
409.402	7.42
409.609	7.42
409.815	7.55
410.022	7.3
410.228	7.26
410.435	7.41
410.642	7.26
410.848	7.31
411.055	7.12
411.261	6.91
411.468	7.05
411.674	6.85
411.881	6.86
412.087	6.86
412.294	6.81
412.5	7.14
412.706	7.03
412.913	7.25
413.119	7.18
413.326	7.38
413.532	7.65
413.738	7.79
413.945	7.7
414.151	7.98
414.357	7.82
414.564	8.04
414.77	7.79
414.976	7.61
415.182	7.62
415.389	7.61
415.595	7.4
415.801	7.32
416.007	7.09
416.214	7.23
416.42	6.77
416.626	7
416.832	6.57
417.038	6.5
417.244	6.66
417.45	6.51
417.657	6.42
417.863	6.58
418.069	6.58
418.275	6.63
418.481	6.58
418.687	6.84
418.893	6.91
419.099	7.19
419.305	7.36
419.511	7.44
419.717	7.52
419.923	7.51
420.129	7.44
420.335	7.33
420.541	7.45
420.746	7.54
420.952	7.4
421.158	7.27
421.364	7.23
421.57	7.11
421.776	6.9
421.982	6.89
422.187	6.83
422.393	6.81
422.599	6.9
422.805	6.71
423.01	6.5
423.216	6.59
423.422	6.65
423.628	6.54
423.833	6.56
424.039	6.69
424.245	6.62
424.45	6.5
424.656	6.47
424.862	6.45
425.067	6.54
425.273	6.6
425.478	6.53
425.684	6.41
425.889	6.41
426.095	6.42
426.301	6.17
426.506	6.14
426.712	6.36
426.917	6.52
427.123	6.48
427.328	6.55
427.533	6.7
427.739	6.73
427.944	6.78
428.15	6.72
428.355	6.67
428.561	6.91
428.766	6.99
428.971	7.2
429.177	7.29
429.382	7.29
429.587	7.22
429.793	7.05
429.998	7.07
430.203	7.03
430.408	7.22
430.614	7.26
430.819	7.28
431.024	7.39
431.229	7.1
431.434	6.8
431.64	6.75
431.845	6.7
432.05	6.88
432.255	6.94
432.46	6.92
432.665	6.89
432.87	6.79
433.076	6.84
433.281	6.66
433.486	6.77
433.691	6.86
433.896	6.89
434.101	6.93
434.306	7.03
434.511	6.82
434.716	7.11
434.921	7.1
435.126	7.23
435.331	7.18
435.535	7.25
435.74	7.17
435.945	7.12
436.15	7.17
436.355	7.17
436.56	7.05
436.765	6.98
436.97	6.82
437.174	6.85
437.379	6.98
437.584	7.04
437.789	7.07
437.993	7.16
438.198	7.2
438.403	7.3
438.608	7.15
438.812	7.08
439.017	7.33
439.222	7.21
439.426	7.15
439.631	7.07
439.836	7.1
440.04	7.25
440.245	7.16
440.45	7.18
440.654	7.08
440.859	7.25
441.063	7.18
441.268	6.96
441.472	6.97
441.677	7.06
441.881	6.95
442.086	6.77
442.29	6.56
442.495	6.81
442.699	6.76
442.904	6.79
443.108	6.63
443.312	6.76
443.517	7
443.721	7.24
443.925	7.17
444.13	7.14
444.334	7.16
444.538	7.12
444.743	6.82
444.947	6.7
445.151	6.71
445.356	6.77
445.56	6.64
445.764	6.59
445.968	6.32
446.173	6.36
446.377	6.39
446.581	6.4
446.785	6.48
446.989	6.48
447.193	6.6
447.398	6.48
447.602	6.41
447.806	6.51
448.01	6.52
448.214	6.61
448.418	6.56
448.622	6.67
448.826	6.71
449.03	6.58
449.234	6.69
449.438	6.75
449.642	6.85
449.846	6.93
450.05	6.92
450.254	6.98
450.458	7.04
450.662	6.9
450.866	6.72
451.069	6.81
451.273	6.97
451.477	7.07
451.681	7.03
451.885	7.03
452.089	7.09
452.292	6.95
452.496	6.86
452.7	6.79
452.904	7.15
453.107	7.43
453.311	7.39
453.515	7.31
453.719	7.2
453.922	7.14
454.126	7.25
454.33	7.21
454.533	7.11
454.737	6.93
454.94	6.68
455.144	6.52
455.348	6.24
455.551	6.21
455.755	6.04
455.958	5.86
456.162	5.62
456.365	5.44
456.569	5.52
456.772	5.87
456.976	5.98
457.179	6.21
457.383	6.21
457.586	6.11
457.79	5.85
457.993	5.84
458.196	6.07
458.4	6.22
458.603	6.23
458.807	6.08
459.01	6.06
459.213	6.13
459.417	6.28
459.62	6.23
459.823	6.2
460.026	6.39
460.23	6.42
460.433	6.36
460.636	6.27
460.839	6.27
461.042	6.33
461.246	6.28
461.449	6.27
461.652	6.28
461.855	6.33
462.058	6.49
462.261	6.43
462.464	6.5
462.668	6.38
462.871	6.64
463.074	6.63
463.277	6.68
463.48	6.72
463.683	6.63
463.886	6.45
464.089	6.4
464.292	6.31
464.495	6.12
464.698	6.27
464.901	6.57
465.104	6.64
465.306	6.55
465.509	6.48
465.712	6.34
465.915	6.39
466.118	6.54
466.321	6.49
466.524	6.37
466.726	6.78
466.929	6.65
467.132	6.65
467.335	6.47
467.538	6.66
467.74	6.8
467.943	6.92
468.146	6.93
468.348	6.83
468.551	6.8
468.754	7.22
468.956	7.02
469.159	7.07
469.362	7.07
469.564	6.89
469.767	6.85
469.969	6.8
470.172	6.64
470.375	6.71
470.577	6.79
470.78	6.96
470.982	6.9
471.185	6.75
471.387	6.77
471.59	6.67
471.792	6.79
471.995	6.87
472.197	6.9
472.399	7.02
472.602	6.88
472.804	6.65
473.007	6.41
473.209	6.22
473.411	6.33
473.614	6.29
473.816	6.41
474.018	6.54
474.22	6.54
474.423	6.65
474.625	6.66
474.827	6.63
475.03	6.8
475.232	7.01
475.434	6.89
475.636	6.9
475.838	6.85
476.04	6.76
476.243	6.62
476.445	6.44
476.647	6.17
476.849	6.12
477.051	6.29
477.253	6.23
477.455	6.09
477.657	6.36
477.859	6.39
478.061	6.37
478.263	6.39
478.465	6.54
478.667	6.46
478.869	6.62
479.071	6.66
479.273	6.65
479.475	6.71
479.677	6.9
479.879	6.83
480.081	6.88
480.283	6.85
480.485	6.94
480.686	6.92
480.888	7.07
481.09	6.94
481.292	6.84
481.494	6.66
481.695	6.44
481.897	6.23
482.099	6.14
482.301	6.02
482.502	6.07
482.704	5.93
482.906	5.89
483.107	5.89
483.309	5.89
483.511	5.86
483.712	5.92
483.914	5.98
484.115	5.99
484.317	6.02
484.519	6.07
484.72	5.99
484.922	6.06
485.123	6.08
485.325	6.03
485.526	6.06
485.728	6.13
485.929	6.07
486.131	6.04
486.332	6.09
486.534	6.11
486.735	6.05
486.936	6.16
487.138	6.09
487.339	6.03
487.541	6.13
487.742	6.13
487.943	6.05
488.144	6.16
488.346	6.18
488.547	6.22
488.748	6.18
488.95	6.22
489.151	6.19
489.352	6.24
489.553	6.31
489.755	6.32
489.956	6.27
490.157	6.38
490.358	6.3
490.559	6.39
490.76	6.24
490.961	6.23
491.163	6.19
491.364	6.24
491.565	6.23
491.766	6.17
491.967	6.16
492.168	6.19
492.369	6.21
492.57	6.2
492.771	6.14
492.972	6.26
493.173	6.31
493.374	6.29
493.575	6.22
493.776	6.22
493.976	6.26
494.177	6.16
494.378	6.28
494.579	6.2
494.78	6.25
494.981	6.32
495.182	6.22
495.382	6.13
495.583	6.36
495.784	6.4
495.985	6.35
496.185	6.44
496.386	6.49
496.587	6.4
496.788	6.52
496.988	6.4
497.189	6.37
497.39	6.29
497.59	6.44
497.791	6.44
497.992	6.39
498.192	6.38
498.393	6.39
498.593	6.34
498.794	6.43
498.994	6.43
499.195	6.65
499.395	6.79
499.596	7.05
499.796	6.99
499.997	6.89
500.197	6.96
500.398	7.08
500.598	7.05
500.799	6.96
500.999	6.97
501.199	6.91
501.4	6.93
501.6	6.78
501.801	6.67
502.001	6.71
502.201	6.78
502.402	6.83
502.602	6.93
502.802	6.84
503.002	7.06
503.203	7
503.403	6.98
503.603	7.03
503.803	7.03
504.003	7.16
504.204	7.2
504.404	7.12
504.604	7.07
504.804	6.87
505.004	6.87
505.204	6.72
505.404	6.57
505.604	6.5
505.804	6.3
506.005	6.44
506.205	6.34
506.405	6.04
506.605	6.06
506.805	5.98
507.005	6
507.204	6.04
507.404	6.14
507.604	6.28
507.804	6.39
508.004	6.31
508.204	6.19
508.404	6.08
508.604	6.22
508.804	6.17
509.003	6.35
509.203	6.47
509.403	6.44
509.603	6.37
509.803	6.44
510.002	6.47
510.202	6.55
510.402	6.54
510.602	6.64
510.801	6.67
511.001	6.79
511.201	6.82
511.4	6.85
511.6	6.88
511.8	7.13
511.999	7.05
512.199	7.06
512.398	7.21
512.598	7.36
512.797	7.4
512.997	7.44
513.197	7.36
513.396	7.34
513.596	7.31
513.795	7.37
513.994	7.19
514.194	7.2
514.393	7.12
514.593	7.05
514.792	6.95
514.992	6.93
515.191	6.92
515.39	7.01
515.59	6.9
515.789	6.91
515.988	6.95
516.188	6.97
516.387	7.02
516.586	6.99
516.786	6.94
516.985	7
517.184	6.98
517.383	6.8
517.582	6.76
517.782	6.81
517.981	6.84
518.18	6.8
518.379	6.88
518.578	6.84
518.777	6.95
518.976	6.89
519.176	6.86
519.375	6.88
519.574	7.04
519.773	7.18
519.972	7.17
520.171	7.18
520.37	7.1
520.569	7
520.768	6.95
520.967	6.87
521.166	6.99
521.365	6.94
521.564	6.96
521.762	6.89
521.961	6.78
522.16	6.86
522.359	6.8
522.558	7.02
522.757	7.04
522.956	7.18
523.154	7.16
523.353	7.02
523.552	7.11
523.751	7.08
523.949	7.02
524.148	6.89
524.347	6.86
524.546	6.89
524.744	6.85
524.943	6.79
525.142	6.62
525.34	6.65
525.539	6.67
525.737	6.67
525.936	6.61
526.135	6.7
526.333	6.77
526.532	6.84
526.73	6.82
526.929	6.81
527.127	6.83
527.326	6.88
527.524	6.93
527.723	7.01
527.921	7.01
528.12	7.08
528.318	7.02
528.516	7.03
528.715	7
528.913	7.02
529.112	7
529.31	7.06
529.508	7.09
529.707	7.07
529.905	7.11
530.103	7.12
530.301	7.13
530.5	7.26
530.698	7.27
530.896	7.27
531.094	7.23
531.293	7.26
531.491	7.26
531.689	7.38
531.887	7.51
532.085	7.46
532.283	7.52
532.481	7.58
532.68	7.56
532.878	7.59
533.076	7.56
533.274	7.7
533.472	7.72
533.67	7.74
533.868	7.75
534.066	7.65
534.264	7.7
534.462	7.72
534.66	7.65
534.858	7.71
535.056	7.79
535.253	7.93
535.451	7.83
535.649	7.86
535.847	7.92
536.045	7.91
536.243	7.97
536.441	7.98
536.638	7.96
536.836	8
537.034	8.01
537.232	7.91
537.43	7.78
537.627	7.8
537.825	7.81
538.023	7.75
538.22	7.8
538.418	7.78
538.616	7.76
538.813	7.75
539.011	7.71
539.209	7.7
539.406	7.74
539.604	7.87
539.801	7.95
539.999	7.97
540.196	7.93
540.394	7.85
540.591	7.83
540.789	7.78
540.986	7.86
541.184	7.9
541.381	7.88
541.579	7.97
541.776	8
541.974	8.01
542.171	8.04
542.368	8.14
542.566	8.18
542.763	8.26
542.96	8.37
543.158	8.39
543.355	8.42
543.552	8.45
543.75	8.43
543.947	8.49
544.144	8.54
544.341	8.55
544.539	8.64
544.736	8.71
544.933	8.86
545.13	8.83
545.327	8.76
545.524	8.95
545.722	8.95
545.919	9.12
546.116	9.12
546.313	9.17
546.51	9.23
546.707	9.21
546.904	9.17
547.101	9.05
547.298	9.17
547.495	9.26
547.692	9.09
547.889	9.22
548.086	9.23
548.283	9.14
548.48	8.99
548.677	8.96
548.874	8.95
549.07	9.04
549.267	9.19
549.464	9.13
549.661	9.09
549.858	9.13
550.055	9.09
550.251	9.06
550.448	9.28
550.645	9.41
550.842	9.56
551.038	9.71
551.235	9.64
551.432	9.65
551.628	9.58
551.825	9.85
552.022	10.03
552.218	9.98
552.415	9.84
552.612	9.71
552.808	9.56
553.005	9.51
553.201	9.44
553.398	9.56
553.594	9.44
553.791	9.63
553.987	9.55
554.184	9.47
554.38	9.55
554.577	9.64
554.773	9.86
554.97	10.22
555.166	10.36
555.362	10.39
555.559	10.52
555.755	10.54
555.952	10.66
556.148	10.67
556.344	10.85
556.541	11.07
556.737	11.21
556.933	11.28
557.129	11.23
557.326	11.09
557.522	10.89
557.718	10.75
557.914	10.72
558.11	10.7
558.307	10.77
558.503	10.81
558.699	10.81
558.895	10.77
559.091	10.63
559.287	10.6
559.483	10.8
559.679	10.98
559.876	11.3
560.072	11.5
560.268	11.51
560.464	11.4
560.66	11.49
560.856	11.54
561.052	11.47
561.247	11.5
561.443	11.82
561.639	11.88
561.835	12.12
562.031	12.19
562.227	12.34
562.423	12.36
562.619	12.52
562.815	12.43
563.01	12.66
563.206	12.85
563.402	13.19
563.598	13.03
563.793	13.09
563.989	13.1
564.185	13.17
564.381	13.05
564.576	13.24
564.772	13.3
564.968	13.51
565.163	13.2
565.359	13.2
565.555	13.08
565.75	13.17
565.946	13.1
566.141	13.11
566.337	13.02
566.532	13.24
566.728	13.25
566.923	13.32
567.119	13.24
567.314	13.49
567.51	13.58
567.705	13.7
567.901	13.94
568.096	14.27
568.292	13.98
568.487	14.09
568.682	14.25
568.878	14.22
569.073	14.28
569.268	14.37
569.464	14.53
569.659	14.66
569.854	14.69
570.05	14.45
570.245	14.36
570.44	14.79
570.635	14.85
570.831	14.66
571.026	14.63
571.221	14.59
571.416	14.61
571.611	14.44
571.806	14.47
572.002	14.66
572.197	14.75
572.392	14.8
572.587	14.82
572.782	14.74
572.977	14.85
573.172	14.87
573.367	15
573.562	15
573.757	15.18
573.952	15.26
574.147	15.28
574.342	15.44
574.537	15.41
574.732	15.44
574.927	15.57
575.121	15.64
575.316	15.89
575.511	15.94
575.706	16.07
575.901	16.1
576.096	16.2
576.29	16.15
576.485	16.23
576.68	16.38
576.875	16.51
577.069	16.59
577.264	16.76
577.459	16.74
577.654	16.64
577.848	16.53
578.043	16.72
578.238	16.72
578.432	16.57
578.627	16.51
578.821	16.5
579.016	16.53
579.21	16.61
579.405	16.37
579.6	16.42
579.794	16.56
579.989	16.72
580.183	16.68
580.378	16.49
580.572	16.69
580.766	16.68
580.961	16.73
581.155	16.72
581.35	16.64
581.544	16.82
581.738	16.95
581.933	17.03
582.127	16.87
582.321	16.97
582.516	17.07
582.71	17.22
582.904	17.33
583.099	17.21
583.293	17.37
583.487	17.37
583.681	17.4
583.875	17.15
584.07	17.18
584.264	17.41
584.458	17.48
584.652	17.66
584.846	17.49
585.04	17.47
585.234	17.75
585.428	17.61
585.623	17.54
585.817	17.65
586.011	17.82
586.205	17.85
586.399	18
586.593	17.65
586.787	17.77
586.981	17.85
587.174	18.04
587.368	17.94
587.562	18.09
587.756	18.17
587.95	18.18
588.144	18.15
588.338	18.04
588.532	18.02
588.725	18.19
588.919	18.16
589.113	18.57
589.307	18.3
589.501	18.31
589.694	18.21
589.888	18.46
590.082	18.27
590.275	18.45
590.469	18.72
590.663	18.83
590.856	18.78
591.05	19
591.244	18.83
591.437	18.94
591.631	19.1
591.824	19.14
592.018	19.04
592.212	19.19
592.405	19.3
592.599	19.21
592.792	19.08
592.986	19.27
593.179	18.91
593.372	18.88
593.566	18.88
593.759	18.68
593.953	18.56
594.146	18.64
594.339	18.8
594.533	18.65
594.726	18.69
594.92	18.6
595.113	18.43
595.306	18.54
595.499	18.62
595.693	18.88
595.886	19
596.079	19.01
596.272	19.05
596.466	19.3
596.659	19.35
596.852	19.31
597.045	19.33
597.238	19.36
597.431	19.37
597.624	19.24
597.818	19.11
598.011	18.99
598.204	19.3
598.397	19.26
598.59	18.8
598.783	18.76
598.976	18.74
599.169	18.95
599.362	19
599.555	18.88
599.748	18.85
599.941	18.76
600.134	19.1
600.326	19.13
600.519	19.02
600.712	19.3
600.905	19.43
601.098	19.37
601.291	19.14
601.483	19.28
601.676	19.4
601.869	19.59
602.062	19.57
602.255	19.32
602.447	19
602.64	19.01
602.833	18.87
603.025	19.01
603.218	19.13
603.411	19.34
603.603	19.65
603.796	19.67
603.989	19.51
604.181	19.6
604.374	19.68
604.566	19.79
604.759	19.94
604.951	20.09
605.144	19.98
605.336	20.05
605.529	19.94
605.721	19.72
605.914	19.68
606.106	19.78
606.299	19.78
606.491	19.78
606.683	19.67
606.876	19.72
607.068	19.66
607.26	19.8
607.453	19.7
607.645	19.75
607.837	19.72
608.03	19.87
608.222	19.98
608.414	19.97
608.606	20.11
608.799	20.27
608.991	20.03
609.183	20.03
609.375	20.19
609.567	20.13
609.759	20.16
609.952	20.29
610.144	20.28
610.336	20.27
610.528	20.29
610.72	20.13
610.912	20.11
611.104	20.2
611.296	20.12
611.488	19.65
611.68	19.79
611.872	19.68
612.064	19.49
612.256	19.47
612.448	19.35
612.64	19.19
612.832	18.95
613.023	19.16
613.215	19.35
613.407	19.18
613.599	19.52
613.791	19.49
613.983	19.63
614.174	19.84
614.366	19.67
614.558	19.85
614.75	20.23
614.941	20.75
615.133	20.83
615.325	20.59
615.516	20.9
615.708	20.68
615.9	20.84
616.091	20.94
616.283	20.85
616.475	20.85
616.666	20.62
616.858	20.7
617.049	20.49
617.241	20.21
617.432	20.44
617.624	20.44
617.815	20.76
618.007	20.84
618.198	20.69
618.39	20.64
618.581	20.88
618.773	21.19
618.964	21.03
619.155	21.12
619.347	21.22
619.538	20.87
619.729	20.81
619.921	20.42
620.112	20.61
620.303	20.74
620.494	20.63
620.686	20.64
620.877	20.46
621.068	20.4
621.259	20.26
621.451	20.22
621.642	20.52
621.833	20.77
622.024	20.99
622.215	20.48
622.406	20.62
622.597	20.49
622.788	20.37
622.98	20.4
623.171	20.18
623.362	20.44
623.553	20.58
623.744	20.92
623.935	20.68
624.126	20.57
624.317	20.7
624.508	20.57
624.698	20.9
624.889	21.13
625.08	21.19
625.271	21.39
625.462	21.41
625.653	21.57
625.844	21.29
626.034	21.28
626.225	21.43
626.416	21.38
626.607	21.31
626.798	20.91
626.988	20.69
627.179	20.78
627.37	20.81
627.56	20.62
627.751	20.34
627.942	20.51
628.132	20.74
628.323	20.71
628.514	20.82
628.704	20.85
628.895	21.13
629.085	21.42
629.276	21.2
629.466	21.35
629.657	21.63
629.847	21.83
630.038	21.87
630.228	21.73
630.419	21.76
630.609	21.79
630.8	22.01
630.99	22.14
631.181	22.12
631.371	22.49
631.561	22.41
631.752	22.55
631.942	22.48
632.132	22.56
632.323	22.47
632.513	22.59
632.703	22.89
632.893	22.55
633.084	22.7
633.274	22.47
633.464	22.13
633.654	22.05
633.844	21.65
634.034	21.5
634.225	21
634.415	21.03
634.605	20.86
634.795	20.76
634.985	21.09
635.175	20.99
635.365	20.85
635.555	21.06
635.745	21.13
635.935	21.18
636.125	21.57
636.315	21.8
636.505	21.86
636.695	21.59
636.885	21.52
637.075	21.55
637.265	21.54
637.455	21.87
637.644	21.78
637.834	21.74
638.024	21.74
638.214	21.19
638.404	21.4
638.593	21.76
638.783	22.02
638.973	22.08
639.163	21.93
639.352	21.57
639.542	21.18
639.732	20.88
639.921	20.75
640.111	20.6
640.301	21.09
640.49	21.05
640.68	21.1
640.87	20.9
641.059	20.47
641.249	20.41
641.438	20.57
641.628	21.02
641.817	21.32
642.007	21.44
642.196	21.59
642.386	20.93
642.575	20.67
642.764	20.25
642.954	20.39
643.143	20.68
643.333	20.39
643.522	20.58
643.711	20.31
643.901	20.21
644.09	20.2
644.279	20.6
644.469	21.42
644.658	21.31
644.847	21.21
645.036	21.51
645.226	21.75
645.415	21.77
645.604	21.86
645.793	22.19
645.982	22.54
646.171	22.9
646.361	22.61
646.55	22.01
646.739	22
646.928	22.18
647.117	21.91
647.306	21.45
647.495	21.86
647.684	21.48
647.873	21.21
648.062	20.57
648.251	20.41
648.44	20.35
648.629	21.05
648.818	21.47
649.007	21.7
649.196	21.89
649.384	22.22
649.573	22.16
649.762	22.73
649.951	22.9
650.14	23.32
650.328	23.08
650.517	22.88
650.706	22.53
650.895	22.52
651.083	22.36
651.272	22.31
651.461	22.35
651.65	22.48
651.838	22.26
652.027	22.01
652.216	22.12
652.404	22.32
652.593	22.65
652.781	22.7
652.97	22.89
653.158	22.73
653.347	22.83
653.535	22.73
653.724	22.79
653.912	22.67
654.101	22.82
654.289	22.82
654.478	22.64
654.666	22.44
654.855	22.36
655.043	21.97
655.231	22.05
655.42	22.33
655.608	22.55
655.796	22.34
655.985	22.45
656.173	22.79
656.361	22.49
656.55	22.52
656.738	22.48
656.926	22.25
657.114	22.33
657.302	22.51
657.491	22.35
657.679	22.4
657.867	22.32
658.055	22.4
658.243	22.28
658.431	22.56
658.619	22.49
658.807	22.95
658.996	23.25
659.184	23.42
659.372	23.31
659.56	23.58
659.748	23.47
659.936	23.64
660.124	23.65
660.311	23.54
660.499	23.55
660.687	23.46
660.875	23.17
661.063	23.14
661.251	23.01
661.439	23.43
661.627	22.9
661.814	22.71
662.002	22.53
662.19	22.18
662.378	22.43
662.565	22.7
662.753	23.11
662.941	23.22
663.129	23.55
663.316	24.05
663.504	23.85
663.692	24.33
663.879	24.62
664.067	24.96
664.254	25.2
664.442	24.89
664.63	24.8
664.817	24.99
665.005	24.56
665.192	23.93
665.38	23.54
665.567	23.49
665.755	23.39
665.942	22.55
666.13	22.49
666.317	22.77
666.504	22.99
666.692	23
666.879	23.03
667.067	23.7
667.254	23.7
667.441	23.22
667.629	23.04
667.816	22.55
668.003	22.96
668.19	22.98
668.378	22.61
668.565	22.85
668.752	22.59
668.939	22.44
669.127	22.78
669.314	22.8
669.501	23.38
669.688	23.5
669.875	24.07
670.062	24.49
670.249	24.41
670.436	24.63
670.623	24.55
670.81	24.82
670.997	24.57
671.184	24.35
671.371	24.57
671.558	24.57
671.745	24.76
671.932	24.52
672.119	24.29
672.306	24.27
672.493	24.54
672.68	24.19
672.867	24.24
673.054	24.7
673.24	24.51
673.427	24.88
673.614	24.79
673.801	24.76
673.988	24.26
674.174	24.73
674.361	24.79
674.548	24.72
674.734	25.25
674.921	25.05
675.108	24.76
675.294	24.8
675.481	24.27
675.668	24.11
675.854	23.95
676.041	24.14
676.227	23.78
676.414	23.45
676.601	22.98
676.787	22.99
676.974	23.27
677.16	23.41
677.347	23.22
677.533	23.52
677.719	23.59
677.906	23.7
678.092	23.82
678.279	23.55
678.465	23.72
678.651	23.89
678.838	24.04
679.024	24.08
679.21	23.84
679.397	23.63
679.583	23.78
679.769	23.61
679.955	23.66
680.142	23.98
680.328	24.23
680.514	24.43
680.7	24.29
680.886	23.82
681.073	23.86
681.259	24.07
681.445	24.36
681.631	24.72
681.817	24.7
682.003	24.82
682.189	24.68
682.375	24.33
682.561	24.55
682.747	24.82
682.933	24.89
683.119	24.58
683.305	24.39
683.491	24.2
683.677	23.74
683.863	24
684.049	24.03
684.235	23.66
684.42	24.39
684.606	24.19
684.792	24.54
684.978	24.33
685.164	24.83
685.349	25.34
685.535	25.48
685.721	25.57
685.907	25.5
686.092	24.73
686.278	25.04
686.464	24.55
686.649	24.95
686.835	24.73
687.021	25.04
687.206	24.23
687.392	24.08
687.577	24.12
687.763	23.93
687.948	24.16
688.134	24.58
688.319	24.62
688.505	24.9
688.69	24.19
688.876	24.13
689.061	23.9
689.247	24.25
689.432	24
689.618	23.84
689.803	23.73
689.988	23.5
690.174	23.07
690.359	23.65
690.544	23.27
690.73	23.7
690.915	23.75
691.1	23.92
691.285	24
691.471	24.22
691.656	23.77
691.841	24.28
692.026	24.36
692.211	24.81
692.396	24.14
692.582	25.11
692.767	24.72
692.952	24.71
693.137	24.42
693.322	24
693.507	24.01
693.692	24.91
693.877	24.57
694.062	24.92
694.247	25.34
694.432	25.69
694.617	25.13
694.802	25.52
694.987	25.3
695.172	25.41
695.357	26
695.541	25.54
695.726	24.97
695.911	25.47
696.096	24.85
696.281	24.96
696.466	24.57
696.65	24.54
696.835	24.27
697.02	24.39
697.204	24.51
697.389	24.84
697.574	25.18
697.759	25.64
697.943	25.2
698.128	25.4
698.312	25.01
698.497	25.13
698.682	25.14
698.866	25.31
699.051	25.37
699.235	25.33
699.42	24.71
699.604	24.56
699.789	23.92
699.973	24.32
700.158	24.19
700.342	24.06
700.527	23.96
700.711	23.87
700.895	23.89
701.08	23.65
701.264	23.85
701.448	24.19
701.633	24.46
701.817	24.98
702.001	24.86
702.186	24.89
702.37	25.45
702.554	25.26
702.738	25.06
702.923	25.24
703.107	25.87
703.291	25.85
703.475	25.79
703.659	26.14
703.843	25.91
704.027	25.03
704.212	24.69
704.396	24.94
704.58	25.32
704.764	25.41
704.948	25.38
705.132	24.43
705.316	23.82
705.5	24
705.684	23.87
705.868	24.42
706.052	25.08
706.235	24.99
706.419	24.57
706.603	24.64
706.787	25.2
706.971	24.29
707.155	25
707.339	25.29
707.522	25.22
707.706	24.94
707.89	24.93
708.074	24.8
708.257	25.3
708.441	25.26
708.625	25.64
708.808	25.55
708.992	26.65
709.176	26.1
709.359	26.37
709.543	26.13
709.727	26.36
709.91	26.93
710.094	27.02
710.277	27.21
710.461	26.68
710.644	26.62
710.828	26.29
711.011	25.9
711.195	26.03
711.378	25.46
711.562	25.72
711.745	25.59
711.928	24.97
712.112	24.72
712.295	24.86
712.478	25.51
712.662	25.37
712.845	25.17
713.028	24.45
713.212	24.8
713.395	26.19
713.578	26.13
713.761	25.86
713.945	25.68
714.128	26.03
714.311	26.03
714.494	25.72
714.677	26.35
714.86	27.14
715.043	27.65
715.227	27.21
715.41	26.16
715.593	26.82
715.776	27.29
715.959	27.4
716.142	27.25
716.325	27.24
716.508	27.38
716.691	26.12
716.874	25.62
717.057	25.29
717.239	25.43
717.422	25.57
717.605	25.11
717.788	24.74
717.971	24.51
718.154	24.47
718.337	24.23
718.519	24.9
718.702	26.21
718.885	25.81
719.068	26.16
719.25	26.53
719.433	27.43
719.616	27.3
719.798	27.35
719.981	26.96
720.164	27.34
720.346	27.64
720.529	27.23
720.712	26.51
720.894	26.8
721.077	27.25
721.259	27.81
721.442	27.47
721.624	27.44
721.807	28.34
721.989	29.86
722.172	29.27
722.354	29.9
722.537	29.62
722.719	29.71
722.901	31.2
723.084	30.93
723.266	30.38
723.448	30.22
723.631	30.41
723.813	29.33
723.995	28.16
724.178	28.37
724.36	27.82
724.542	26.89
724.724	27.24
724.907	26.94
725.089	26.69
725.271	27.44
725.453	27.15
725.635	27.59
725.817	28.31
725.999	29.3
726.181	29.13
726.364	29.44
726.546	30.36
726.728	30.23
726.91	29.22
727.092	29.77
727.274	28.74
727.456	28.98
727.638	28.62
727.819	29.14
728.001	28.59
728.183	29.09
728.365	29.76
728.547	30.13
728.729	30.03
728.911	29.47
729.093	29.91
729.274	30.78
729.456	30.92
729.638	30.77
729.82	30.25
730.001	30.19
730.183	29.59
730.365	27.96
730.546	28.11
730.728	27.72
730.91	28.71
731.091	28.24
731.273	27.69
731.455	27.67
731.636	27.39
731.818	26.83
731.999	26.81
732.181	27.11
732.362	27.62
732.544	27.15
732.725	26.83
732.907	27.05
733.088	26.99
733.27	26.76
733.451	26.64
733.633	26.61
733.814	27.11
733.995	26.85
734.177	26.8
734.358	27.15
734.539	26.73
734.721	26.17
734.902	26.5
735.083	27.85
735.264	27.88
735.446	26.86
735.627	27.15
735.808	27.66
735.989	28.53
736.17	29.38
736.351	30.05
736.533	29.9
736.714	31.39
736.895	30.32
737.076	29.31
737.257	29.56
737.438	30.97
737.619	31.28
737.8	30.04
737.981	30.7
738.162	29.84
738.343	29.13
738.524	30.1
738.705	29.96
738.886	29.64
739.067	29.53
739.247	29.8
739.428	29.18
739.609	28.76
739.79	29.76
739.971	28.35
740.151	28.65
740.332	27.66
740.513	26.53
740.694	26.21
740.874	26.96
741.055	26.18
741.236	25.9
741.417	25.31
741.597	24.95
741.778	24.83
741.958	24.78
742.139	24.21
742.32	25.52
742.5	27.48
742.681	28.53
742.861	27.32
743.042	27.11
743.222	27.17
743.403	27.02
743.583	27.8
743.764	27.29
743.944	26.52
744.124	26.65
744.305	26.1
744.485	26.05
744.666	24.58
744.846	25.34
745.026	26.36
745.207	27.68
745.387	27.84
745.567	28.3
745.747	28.65
745.928	29.74
746.108	30.41
746.288	29.51
746.468	27.7
746.648	28.01
746.829	28.95
747.009	29.06
747.189	27.82
747.369	28.41
747.549	27.16
747.729	26.22
747.909	26.68
748.089	26.66
748.269	28.08
748.449	30.43
748.629	31
748.809	30.51
748.989	29.47
749.169	29.71
749.349	30.79
749.529	31.79
749.709	30.8
749.889	30.06
750.068	29.95
750.248	27.53
750.428	25.45
750.608	25.37
750.788	25.74
750.967	26.83
751.147	27.54
751.327	26.78
751.507	27.33
751.686	29.05
751.866	29.38
752.046	29.63
752.225	31.11
752.405	31.62
752.585	31.39
752.764	30.32
752.944	30.2
753.123	29.86
753.303	29.57
753.482	29.06
753.662	28.71
753.841	28.9
754.021	28.82
754.2	30.11
754.38	30.21
754.559	30.32
754.739	29.76
754.918	29.17
755.097	29.23
755.277	29.12
755.456	28.2
755.635	29.58
755.815	29.67
755.994	28
756.173	25.36
756.352	25.45
756.532	24.8
756.711	25.77
756.89	26.76
757.069	26.4
757.248	25.81
757.427	26.55
757.607	26.19
757.786	26.78
757.965	28.6
758.144	29.7
758.323	29.51
758.502	29.11
758.681	29.6
758.86	28.28
759.039	28.48
759.218	30.33
759.397	29.83
759.576	28.79
759.755	28.5
759.934	27.43
760.113	27.79
760.291	27.23
760.47	27.69
760.649	27.02
760.828	27.15
761.007	26.91
761.186	26.58
761.364	28.06
761.543	28.57
761.722	29.31
761.901	29.35
762.079	30.8
762.258	30.76
762.437	31.01
762.615	32.34
762.794	32.9
762.972	32.62
763.151	32.67
763.33	32.3
763.508	31.89
763.687	30.82
763.865	30.75
764.044	30.74
764.222	31.32
764.401	32.16
764.579	30.93
764.758	31.15
764.936	31.12
765.114	31.37
765.293	31.08
765.471	31.34
765.65	32.29
765.828	32.34
766.006	31.57
766.184	30.55
766.363	28.63
766.541	27.59
766.719	27.35
766.898	27.72
767.076	26.27
767.254	25.88
767.432	25.25
767.61	24.93
767.788	25.64
767.967	23.87
768.145	26.55
768.323	28.58
768.501	31.08
768.679	30.8
768.857	29.23
769.035	29.83
769.213	29.63
769.391	30.7
769.569	30.64
769.747	30.25
769.925	31.82
770.103	30.08
770.281	28.01
770.459	28.08
770.636	27.85
770.814	28.67
770.992	29.49
771.17	29.52
771.348	28.89
771.525	29.62
771.703	30.15
771.881	31.04
772.059	30.81
772.236	32.45
772.414	31.5
772.592	32.02
772.769	32.6
772.947	30.11
773.125	31.51
773.302	31.6
773.48	30.16
773.657	29.92
773.835	29.38
774.013	30.42
774.19	29.36
774.368	29.81
774.545	28.56
774.723	30.25
774.9	33.45
775.077	34.46
775.255	34.51
775.432	35.18
775.61	35.17
775.787	35.51
775.964	35.43
776.142	36.54
776.319	35.97
776.496	36.72
776.674	36.04
776.851	33.67
777.028	30.58
777.205	30.82
777.382	29.28
777.56	29.4
777.737	30.1
777.914	26.51
778.091	26.63
778.268	24.75
778.445	27.22
778.622	24.5
778.8	25.59
778.977	27.57
779.154	28.19
779.331	28.57
779.508	27.5
779.685	24.26
779.862	28.11
780.038	26.78
780.215	29.04
780.392	24.92
780.569	27.28
780.746	27.46
780.923	27.16
781.1	26.07
781.277	27.58
781.453	27.42
781.63	30.26
781.807	30.03
781.984	30.01
782.16	28.44
782.337	26.14
782.514	26.68
782.691	24.03
782.867	23.24
783.044	24.58
783.221	24.39
783.397	26.02
783.574	23.87
783.75	24.48
783.927	25.55
784.103	31.65
784.28	36.93
784.456	37.83
784.633	41.8
784.809	42.4
784.986	41.93
785.162	41.75
785.339	38.74
785.515	37.35
785.692	36.53
785.868	34.86
786.044	31.49
786.221	32.08
786.397	30.56
786.573	29.33
786.749	29.05
786.926	29.03
787.102	28.86
787.278	31.84
787.454	34.09
787.631	33.82
787.807	35.51
787.983	35.84
788.159	33.97
788.335	33.41
788.511	31.1
788.687	32.12
788.863	30.63
789.039	30.94
789.216	30.76
789.392	29.81
789.568	31.84
789.744	31.08
789.919	31.93
790.095	33.22
790.271	34.48
790.447	35.14
790.623	33.22
790.799	32.55
790.975	32.6
791.151	32.2
791.327	31.99
791.502	28.58
791.678	28.72
791.854	25.27
792.03	25.95
792.205	24.63
792.381	26.01
792.557	26.61
792.733	28.19
792.908	25.97
793.084	24.2
793.259	24.84
793.435	30.49
793.611	27.33
793.786	29.24
793.962	27.92
794.137	27.7
794.313	26.61
794.488	26.8
794.664	29.53
794.839	31.25
795.015	36.25
795.19	36.95
795.366	32.12
795.541	35.94
795.716	35.94
795.892	33.89
796.067	33.67
796.242	33.56
796.418	33.59
796.593	31.82
796.768	34.73
796.944	30.95
797.119	29.73
797.294	32.39
797.469	31.53
797.644	33.78
797.82	32.52
797.995	30.99
798.17	32.14
798.345	31.05
798.52	31.42
798.695	28.92
798.87	27.23
799.045	26.99
799.22	26.31
799.395	28.69
799.57	26
799.745	29.26
799.92	34.15
800.095	36.25
800.27	37.4
800.445	36.49
800.62	34.93
800.795	38.86
800.97	40.47
801.145	39.02
801.319	37.92
801.494	36.3
801.669	34.51
801.844	32.75
802.018	30.35
802.193	30.39
802.368	31.01
802.543	29.2
802.717	27.54
802.892	27.58
803.067	30.98
803.241	26.76
803.416	30.29
803.59	30.14
803.765	29.06
803.94	28.88
804.114	28.53
804.289	28.91
804.463	32.12
804.638	33.13
804.812	34.58
804.986	29.33
805.161	33.12
805.335	32.54
805.51	34.62
805.684	30.98
805.858	33.27
806.033	32.96
806.207	33.3
806.381	34.54
806.556	34.32
806.73	33.68
806.904	36.99
807.078	36.12
807.253	36.16
807.427	31.92
807.601	32.87
807.775	35.79
807.949	36.27
808.123	32.7
808.298	30.64
808.472	30.54
808.646	33.07
808.82	30.75
808.994	30.25
809.168	29.68
809.342	34.36
809.516	39
809.69	35.59
809.864	34.92
810.038	36.67
810.212	38.42
810.385	39.11
810.559	38.22
810.733	38.95
810.907	32.19
811.081	28.37
811.255	28.64
811.428	30.55
811.602	30.95
811.776	31.8
811.95	32.79
812.123	32.5
812.297	34.32
812.471	30.75
812.644	33.04
812.818	38.59
812.992	43.97
813.165	43.68
813.339	42.01
813.512	42.22
813.686	43.36
813.86	49.05
814.033	49.26
814.207	51.16
814.38	51.43
814.554	51.28
814.727	53.49
814.9	47.63
815.074	50.53
815.247	51.04
815.421	49.95
815.594	49.89
815.767	45.1
815.941	48.96
816.114	45.17
816.287	46.71
816.46	46.85
816.634	46.7
816.807	51.48
816.98	50
817.153	45.13
817.327	45.32
817.5	48.31
817.673	47.95
817.846	44.35
818.019	44.96
818.192	45.9
818.365	40.71
818.538	38.77
818.711	37.42
818.884	32.06
819.057	37.47
819.23	38.21
819.403	34.19
819.576	37.51
819.749	36.75
819.922	38.96
820.095	38.02
820.268	39.32
820.441	37.54
820.614	37.3
820.786	39.98
820.959	36.55
821.132	34.88
821.305	34.23
821.477	33.16
821.65	33.22
821.823	32.65
821.996	31.01
822.168	31.21
822.341	31.73
822.514	31.99
822.686	31.15
822.859	31.4
823.031	31.5
823.204	31.61
823.376	31.16
823.549	31.13
823.722	30.8
823.894	31.47
824.067	31.18
824.239	30.46
824.411	30.57
824.584	31.5
824.756	31.27
824.929	30.93
825.101	30.37
825.273	31.3
825.446	29.83
825.618	28.11
825.79	27.24
825.963	28.07
826.135	30.48
826.307	30.58
826.479	29.51
826.652	29.46
826.824	28.12
826.996	30.61
827.168	30.81
827.34	31.94
827.512	34.59
827.684	34.94
827.856	34.93
828.029	33.46
828.201	33.22
828.373	34.42
828.545	35.96
828.717	37.83
828.889	36.25
829.061	36.61
829.232	38.05
829.404	35.72
829.576	37.08
829.748	37.22
829.92	40.01
830.092	39.39
830.264	38.2
830.436	36.86
830.607	35.79
830.779	34.48
830.951	32.04
831.123	28.58
831.294	32.43
831.466	32.57
831.638	30.4
831.809	26.79
831.981	27.74
832.153	29.93
832.324	31.78
832.496	38.94
832.667	40.81
832.839	39.62
833.011	39.33
833.182	38.17
833.354	35.09
833.525	36.26
833.697	35.4
833.868	36.2
834.039	35.82
834.211	36.29
834.382	33.46
834.554	32.93
834.725	33.01
834.896	31.56
835.068	30.88
835.239	32.74
835.41	32.35
835.581	32.39
835.753	33.02
835.924	32.15
836.095	32.17
836.266	33.07
836.438	32.51
836.609	33.32
836.78	37.48
836.951	38.13
837.122	38.27
837.293	40.6
837.464	43.09
837.635	41.83
837.806	44.01
837.977	43.49
838.148	43.87
838.319	46.2
838.49	47.08
838.661	45.83
838.832	50.11
839.003	49.49
839.174	51.67
839.345	53.21
839.516	53.01
839.687	53.02
839.857	57.61
840.028	62.07
840.199	60.61
840.37	64.25
840.54	68.59
840.711	61.79
840.882	63.58
841.053	55.2
841.223	54.65
841.394	54.03
841.564	51.06
841.735	43.34
841.906	35.62
842.076	39.28
842.247	36.14
842.417	33.67
842.588	34.06
842.758	37.05
842.929	48.12
843.099	42.66
843.27	42.43
843.44	43.2
843.611	54.78
843.781	59.86
843.951	58.08
844.122	65.21
844.292	70.21
844.462	70.97
844.633	59.45
844.803	44.37
844.973	43.92
845.144	52.73
845.314	47.59
845.484	35.57
845.654	34.88
845.824	32.22
845.995	31.92
846.165	23.54
846.335	30.89
846.505	42.74
846.675	55.13
846.845	64.34
847.015	64.8
847.185	71.53
847.355	86.73
847.525	92.77
847.695	102.14
847.865	91.55
848.035	86.55
848.205	87.66
848.375	84.52
848.545	71.61
848.715	73.86
848.884	81.63
849.054	71.12
849.224	59.29
849.394	41.77
849.564	36.82
849.733	55.22
849.903	55.59
850.073	34.96
850.243	29.71
850.412	30.7
850.582	29.38
850.752	24.25
850.921	38.74
851.091	44.92
851.26	51.66
851.43	65.84
851.599	49
851.769	60.2
851.939	67.23
852.108	63.55
852.278	58.18
852.447	63.67
852.616	62.53
852.786	65.31
852.955	58.35
853.125	54.8
853.294	49.56
853.463	47.86
853.633	43.33
853.802	53.99
853.971	56.85
854.141	69.36
854.31	65.1
854.479	64.33
854.648	63.33
854.818	58.31
854.987	60.12
855.156	51.79
855.325	62.4
855.494	63.53
855.663	53.66
855.832	55.61
856.001	44.62
856.171	38.02
856.34	45.5
856.509	42.29
856.678	47.66
856.847	50.3
857.016	63.06
857.185	64.3
857.353	57.2
857.522	60.05
857.691	56.52
857.86	57.49
858.029	70.93
858.198	56.98
858.367	61.02
858.535	67.26
858.704	77.71
858.873	59.87
859.042	44.39
859.21	63.14
859.379	72.83
859.548	84.78
859.717	92.99
859.885	82.08
860.054	85.37
860.222	88.52
860.391	85.08
860.56	77.48
860.728	87.82
860.897	106.65
861.065	94.42
861.234	90.23
861.402	87.38
861.571	79.38
861.739	91.82
861.908	100.18
862.076	106.38
862.244	126.88
862.413	107.9
862.581	101.14
862.749	81.84
862.918	77.63
863.086	79.19
863.254	64.46
863.423	60.73
863.591	57.11
863.759	61.46
863.927	59.65
864.096	36.14
864.264	29.74
864.432	37.76
864.6	31.65
864.768	35.26
864.936	18.3
865.104	34.41
865.272	36.47
865.44	33.58
865.608	24.4
865.776	21.72
865.944	31.68
866.112	48.06
866.28	30.42
866.448	36.58
866.616	33.93
866.784	51.54
866.952	60.4
867.12	54.82
867.288	54.23
867.455	63.9
867.623	88.05
867.791	77.96
867.959	78.24
868.127	87.52
868.294	82.17
868.462	73.42
868.63	71.01
868.797	60.78
868.965	71.5
869.133	59.43
869.3	54.54
869.468	51.11
869.636	57.1
869.803	62.63
869.971	72.2
870.138	73.8
870.306	93.84
870.473	86.72
870.641	95.94
870.808	102.53
870.975	108.83
871.143	108.08
871.31	94.78
871.478	94.41
871.645	90.22
871.812	94.57
871.98	71.05
872.147	74.06
872.314	82.99
872.482	54.46
872.649	45.03
872.816	17.13
872.983	25.92
873.15	20.76
873.318	37.14
873.485	47.29
873.652	42.17
873.819	59.88
873.986	56.02
874.153	55.02
874.32	71.71
874.487	72.27
874.654	97.33
874.821	102.24
874.988	119.21
875.155	104.36
875.322	117.58
875.489	130.4
875.656	140.43
875.823	149.91
875.99	154.53
876.157	132.22
876.324	131.4
876.49	106.2
876.657	93.88
876.824	76.81
876.991	81.3
877.157	78.53
877.324	60.82
877.491	59.83
877.658	48.77
877.824	47.55
877.991	44.67
878.157	39.16
878.324	51.72
878.491	46.78
878.657	53.99
878.824	66.53
878.99	54.16
879.157	62.71
879.323	70.32
879.49	71.33
879.656	78.89
879.823	75.05
879.989	65.9
880.156	57.63
880.322	55.13
880.488	49.97
880.655	42.34
880.821	50.74
880.987	48.01
881.154	45.57
881.32	48.72
881.486	43.57
881.652	46.45
881.819	50.7
881.985	48.5
882.151	50.48
882.317	51.46
882.483	54.7
882.649	50.73
882.816	51.64
882.982	50.38
883.148	47.56
883.314	46.41
883.48	42.93
883.646	38.79
883.812	39.98
883.978	39.82
884.144	41.31
884.31	38.93
884.476	37.45
884.642	35.06
884.807	37.04
884.973	34.62
885.139	34.92
885.305	34.98
885.471	36.73
885.637	39.82
885.802	38.59
885.968	36.69
886.134	37.81
886.3	40.69
886.465	45.96
886.631	40.23
886.797	40.92
886.962	45.25
887.128	52.76
887.293	56.06
887.459	46.91
887.625	47.27
887.79	56.82
887.956	54.75
888.121	51.95
888.287	43.08
888.452	51.65
888.618	64.36
888.783	57.36
