Data from 2938022_Reflection_1.txt Node
Date: Sun Jul 12 15:24:39 EDT 2015
User: robert
Spectrometer: USB4E03001
Autoset integration time: false
Trigger mode: 4
Integration Time (sec): 1.000000E-1
Scans to average: 10
Electric dark correction enabled: true
Nonlinearity correction enabled: false
Boxcar width: 5
Stray light correction enabled: false
XAxis mode: Wavelengths
Stop averaging: false
Number of Pixels in Spectrum: 3648
>>>>>Begin Spectral Data<<<<<
177.566	-44.31
177.785	-34.87
178.005	-118.66
178.225	449.3
178.445	10.59
178.665	88.95
178.885	4.42
179.105	-28.77
179.324	-91.25
179.544	-185.95
179.764	-91.37
179.984	-3.45
180.204	-83.12
180.423	-11.67
180.643	177.77
180.863	93.87
181.083	1222.03
181.302	6.89
181.522	-43.97
181.742	683.62
181.961	81.71
182.181	173.04
182.401	-70.11
182.621	-374.74
182.84	503.57
183.06	61.61
183.279	-14.35
183.499	-1.92
183.719	17.84
183.938	-23.25
184.158	5.16
184.377	-1721.9
184.597	-60.54
184.816	-65.76
185.036	-206.36
185.256	4221.13
185.475	386.81
185.695	-1264.42
185.914	-590.69
186.134	-480.83
186.353	-107.36
186.572	-10597.5
186.792	-45.94
187.011	-239.46
187.231	-514.49
187.45	125.76
187.67	149.06
187.889	197.73
188.108	243.21
188.328	298.07
188.547	509
188.766	-457.91
188.986	-290.03
189.205	-194.07
189.424	-399.25
189.644	-480.45
189.863	-131.85
190.082	272.38
190.302	-2479.25
190.521	1270.54
190.74	-2092.39
190.959	-32.13
191.178	-0.8
191.398	-41.24
191.617	-148.11
191.836	-611.95
192.055	-1046.54
192.274	1675.43
192.494	1068.15
192.713	392.88
192.932	380.42
193.151	290.83
193.37	198.64
193.589	203.81
193.808	194.06
194.027	255.15
194.246	192.75
194.465	244.81
194.685	244.02
194.904	181.61
195.123	146.49
195.342	129.72
195.561	158.7
195.78	129.32
195.999	96.73
196.218	62.5
196.436	68.26
196.655	57.24
196.874	63.15
197.093	-14.22
197.312	-30.49
197.531	-285.93
197.75	-163.93
197.969	-151.83
198.188	330.9
198.407	216.73
198.625	129.47
198.844	138.37
199.063	75.7
199.282	152.46
199.501	142.8
199.719	143.47
199.938	63.66
200.157	83.85
200.376	196.83
200.594	104.21
200.813	9.84
201.032	-65.1
201.251	-98.15
201.469	-393.99
201.688	3059.72
201.907	-240.82
202.125	-350.78
202.344	-2932.14
202.563	-629.54
202.781	-191.99
203	1750.31
203.218	-1357.72
203.437	-96.99
203.656	-83.15
203.874	21.45
204.093	113.16
204.311	288.35
204.53	221.27
204.748	304.01
204.967	257.66
205.185	329.02
205.404	233.78
205.622	382.54
205.841	-1054.53
206.059	2454.02
206.278	393.06
206.496	769.82
206.715	338.79
206.933	-379.98
207.151	164.13
207.37	18.73
207.588	58.43
207.806	82.09
208.025	1258.89
208.243	-111.3
208.461	574.19
208.68	360.26
208.898	-1415.66
209.116	-1159.59
209.335	-137.67
209.553	-257.83
209.771	-27.98
209.989	-2.18
210.208	-12.21
210.426	17.43
210.644	93.07
210.862	402.15
211.081	50.18
211.299	-52.96
211.517	17.07
211.735	-139.55
211.953	-427.61
212.171	-16792
212.39	422.43
212.608	-125.86
212.826	-101.53
213.044	-53.43
213.262	15.69
213.48	44.38
213.698	81.36
213.916	100.7
214.134	155.16
214.352	130.38
214.57	140.08
214.788	158.94
215.006	161.58
215.224	182.66
215.442	172.41
215.66	161.46
215.878	122.89
216.096	111.21
216.314	134.12
216.532	121.91
216.75	239.16
216.968	145.11
217.185	84.56
217.403	80.81
217.621	59.35
217.839	95.52
218.057	63.96
218.275	48.47
218.492	85.08
218.71	129.31
218.928	-282.41
219.146	-68.62
219.363	2.11
219.581	-51.97
219.799	-53.38
220.017	-79.62
220.234	-300.14
220.452	-271.28
220.67	-12.92
220.887	-32.46
221.105	-25.37
221.323	-24.1
221.54	-45.61
221.758	-2.51
221.976	-24.91
222.193	4.86
222.411	40.61
222.629	39.26
222.846	25.73
223.064	-12.58
223.281	-45.9
223.499	-40.81
223.716	-54.18
223.934	-16.41
224.151	-48.77
224.369	-51.05
224.586	-37.07
224.804	-43.33
225.021	-33.73
225.239	-14.9
225.456	22.07
225.674	54.68
225.891	64.14
226.108	70.93
226.326	53.1
226.543	41.72
226.76	36.89
226.978	43.96
227.195	44.84
227.413	40.56
227.63	32.67
227.847	24.98
228.064	20.95
228.282	17.05
228.499	17.42
228.716	19.63
228.934	20.52
229.151	21.24
229.368	19.34
229.585	15.18
229.802	15.9
230.02	16.46
230.237	15.5
230.454	12.69
230.671	12.44
230.888	8.71
231.105	8.46
231.323	5.21
231.54	2.21
231.757	-3.63
231.974	3.26
232.191	1.06
232.408	6.45
232.625	8.56
232.842	11.66
233.059	12.33
233.276	9.69
233.493	9.54
233.71	12.52
233.927	18.66
234.144	23.94
234.361	19.69
234.578	15.78
234.795	15.72
235.012	18.67
235.229	18.66
235.446	22.07
235.663	19.83
235.879	22.22
236.096	22.05
236.313	22.77
236.53	22.05
236.747	25.75
236.964	31.88
237.181	26.48
237.397	25.81
237.614	24.35
237.831	24.69
238.048	33.48
238.264	30.21
238.481	28.62
238.698	22.98
238.915	19.24
239.131	16.13
239.348	16.36
239.565	15.03
239.781	12.81
239.998	11.86
240.215	9.35
240.431	6.37
240.648	4.43
240.865	4.15
241.081	2.48
241.298	3.1
241.514	2.71
241.731	3.52
241.947	5.21
242.164	6.09
242.38	4.38
242.597	5.15
242.814	6.88
243.03	6.21
243.246	5.41
243.463	6.67
243.679	6.15
243.896	5.7
244.112	4.61
244.329	5.92
244.545	3.56
244.762	6.95
244.978	6.88
245.194	7
245.411	8.12
245.627	9.69
245.843	9.1
246.06	10.84
246.276	11.9
246.492	11.5
246.709	11.67
246.925	12.45
247.141	12.08
247.357	12.46
247.574	11.84
247.79	11.84
248.006	12.41
248.222	14.02
248.439	13.25
248.655	12.1
248.871	11.93
249.087	11.41
249.303	10.47
249.519	9.15
249.736	7.15
249.952	5.85
250.168	7.11
250.384	5.61
250.6	3.69
250.816	7.33
251.032	11.03
251.248	9.38
251.464	10.37
251.68	11.08
251.896	11.14
252.112	13.01
252.328	13.08
252.544	11.32
252.76	11.23
252.976	11.82
253.192	7.42
253.408	6.84
253.624	8.52
253.84	5.21
254.056	4
254.272	5.04
254.487	4.53
254.703	5.6
254.919	4.64
255.135	2.49
255.351	-0.57
255.567	3.83
255.782	1.72
255.998	3.95
256.214	6.2
256.43	7.98
256.646	12.98
256.861	12.67
257.077	11.97
257.293	12.95
257.508	14.96
257.724	15.87
257.94	14.96
258.155	15.71
258.371	13.98
258.587	13.9
258.802	12.02
259.018	9.52
259.234	9.36
259.449	9.17
259.665	9.3
259.88	9.55
260.096	8.77
260.312	8.95
260.527	8.84
260.743	8.4
260.958	8.01
261.174	7.9
261.389	7.75
261.605	7.68
261.82	8.02
262.036	8.76
262.251	7.33
262.466	8.08
262.682	8.06
262.897	7.66
263.113	7.35
263.328	7.09
263.543	9.5
263.759	9.54
263.974	9.51
264.189	9.17
264.405	8.16
264.62	11.34
264.835	10.8
265.051	9.04
265.266	9.32
265.481	11.31
265.696	12.43
265.912	10.55
266.127	12.03
266.342	11.72
266.557	12.22
266.773	10.66
266.988	8.95
267.203	8.7
267.418	10.13
267.633	10
267.848	10.07
268.064	10.84
268.279	10.87
268.494	10.43
268.709	10.19
268.924	8.8
269.139	9.58
269.354	8.97
269.569	10.4
269.784	9.19
269.999	8.7
270.214	8.02
270.429	7.16
270.644	7.33
270.859	5.59
271.074	5.73
271.289	5.94
271.504	6.78
271.719	7.49
271.934	6.9
272.149	6.3
272.363	6.4
272.578	6.76
272.793	6.49
273.008	6.65
273.223	7.64
273.438	8.04
273.653	9.48
273.867	9.15
274.082	10.23
274.297	9.49
274.512	10.87
274.726	9.94
274.941	9.52
275.156	7.9
275.371	7.5
275.585	7.16
275.8	6.73
276.015	5.74
276.229	6.26
276.444	5.09
276.659	6.54
276.873	4.91
277.088	5.97
277.302	6.27
277.517	8.78
277.732	9.26
277.946	9.43
278.161	10.22
278.375	11.13
278.59	11.17
278.804	10.39
279.019	9.19
279.233	8.89
279.448	9.47
279.662	9.13
279.877	8.16
280.091	8.68
280.306	9.24
280.52	9.2
280.735	7.98
280.949	7.06
281.163	8.25
281.378	9.75
281.592	9.79
281.806	8.71
282.021	9.01
282.235	8.48
282.449	7.88
282.664	7.35
282.878	6.69
283.092	6.63
283.307	6.8
283.521	6.17
283.735	6.12
283.949	7.5
284.164	8.69
284.378	8.43
284.592	9.7
284.806	10.33
285.02	10.64
285.234	10.79
285.449	10.7
285.663	10.38
285.877	10.26
286.091	10
286.305	10.16
286.519	10.99
286.733	12.31
286.947	12.01
287.161	11.59
287.375	11.2
287.589	10.52
287.803	11.8
288.017	12.69
288.231	14.08
288.445	14.54
288.659	14.77
288.873	12.81
289.087	10.03
289.301	9.27
289.515	9.88
289.729	9.71
289.943	8.95
290.157	8.1
290.371	7.24
290.584	4.84
290.798	4.4
291.012	3.71
291.226	2.94
291.44	5.46
291.654	5.62
291.867	4.9
292.081	5.8
292.295	7.19
292.509	7.72
292.722	8.63
292.936	9.45
293.15	7.69
293.364	7.89
293.577	8.9
293.791	7.79
294.005	8.56
294.218	8.69
294.432	8.47
294.645	9.19
294.859	8.29
295.073	8.61
295.286	9.55
295.5	10.14
295.713	10.25
295.927	9.1
296.14	8.38
296.354	7.39
296.568	7.41
296.781	6.48
296.994	6.13
297.208	6.89
297.421	5.97
297.635	5.67
297.848	6.1
298.062	5.83
298.275	6.16
298.489	6.23
298.702	7.02
298.915	6.88
299.129	7.33
299.342	8.15
299.555	7.1
299.769	8.22
299.982	7.5
300.195	7.81
300.409	8.74
300.622	8.41
300.835	9.08
301.048	9.2
301.262	10.55
301.475	10.31
301.688	8.61
301.901	10.61
302.115	10.18
302.328	11.15
302.541	10.44
302.754	9.48
302.967	10.43
303.18	9.48
303.393	9.29
303.607	8.18
303.82	9.7
304.033	8.98
304.246	7.45
304.459	7.17
304.672	7.87
304.885	9.24
305.098	9.64
305.311	10.74
305.524	12.32
305.737	13.46
305.95	13.39
306.163	12.08
306.376	14.27
306.589	12.56
306.802	13.38
307.015	12.59
307.228	11.55
307.44	10.6
307.653	10.36
307.866	8.65
308.079	8.18
308.292	8.8
308.505	8.25
308.718	7.64
308.93	9.78
309.143	9.07
309.356	9.2
309.569	8.96
309.781	10.25
309.994	9.84
310.207	10.04
310.42	8.79
310.632	9.15
310.845	10.51
311.058	10.35
311.27	9.96
311.483	9.64
311.696	9.83
311.908	10.52
312.121	10.04
312.333	10.11
312.546	11.14
312.759	11.51
312.971	9.25
313.184	8.64
313.396	8.56
313.609	8.4
313.821	8.52
314.034	7.74
314.246	8.22
314.459	7.79
314.671	7.73
314.884	6.5
315.096	5.54
315.309	8
315.521	7.83
315.733	8.3
315.946	8.67
316.158	7.9
316.371	9.02
316.583	8.06
316.795	6.6
317.008	7.77
317.22	7.42
317.432	8.8
317.644	9.03
317.857	8.92
318.069	7.82
318.281	8.68
318.494	10.12
318.706	9.96
318.918	9.22
319.13	12.21
319.342	11
319.555	11.44
319.767	10.72
319.979	8.7
320.191	9.7
320.403	11.39
320.615	9.88
320.827	9.88
321.039	9.31
321.252	8.87
321.464	7.47
321.676	6.73
321.888	6.39
322.1	7.72
322.312	9.16
322.524	8.49
322.736	7.39
322.948	8.31
323.16	8.01
323.372	7.61
323.584	8.93
323.796	8.9
324.007	7.89
324.219	9.1
324.431	8.74
324.643	7.79
324.855	7.23
325.067	7.39
325.279	5.89
325.491	7.39
325.702	8.89
325.914	7.25
326.126	6.22
326.338	7.68
326.55	6.81
326.761	6.34
326.973	6.63
327.185	7.16
327.396	6.71
327.608	8.41
327.82	7.02
328.032	4.88
328.243	5.22
328.455	6.99
328.666	6.49
328.878	6.22
329.09	5.75
329.301	4.57
329.513	3.18
329.725	3.94
329.936	4.56
330.148	4.33
330.359	5.59
330.571	5.57
330.782	5.75
330.994	5.56
331.205	6.58
331.417	7.81
331.628	9.39
331.84	11.46
332.051	11.68
332.262	10.72
332.474	9.94
332.685	10.66
332.897	11.23
333.108	9.68
333.319	10.04
333.531	9.16
333.742	8.38
333.953	8.97
334.165	9.03
334.376	7.73
334.587	7.65
334.799	8.46
335.01	7.07
335.221	6.99
335.432	8.12
335.644	7.26
335.855	8.1
336.066	8.69
336.277	9.09
336.488	8.63
336.7	9.55
336.911	9.23
337.122	9.67
337.333	9.62
337.544	9.16
337.755	9.7
337.966	10.72
338.177	9.66
338.388	9.04
338.599	8.62
338.811	7.75
339.022	6.94
339.233	7.01
339.444	6.78
339.655	6.59
339.866	8.35
340.076	6.81
340.287	7.29
340.498	9.5
340.709	9.64
340.92	9.91
341.131	11.61
341.342	12.44
341.553	12.63
341.764	12.53
341.975	13.1
342.185	12.53
342.396	13.18
342.607	13.55
342.818	13.29
343.029	13.79
343.239	13.19
343.45	12.4
343.661	11.88
343.872	11.76
344.082	11.62
344.293	11.31
344.504	11.8
344.714	11.72
344.925	12.4
345.136	10.45
345.346	9.39
345.557	9.22
345.768	9.11
345.978	9.13
346.189	9.06
346.399	8.59
346.61	9.81
346.821	9.1
347.031	8.55
347.242	7.1
347.452	7.55
347.663	8.27
347.873	9.04
348.084	8.92
348.294	9.06
348.504	9.86
348.715	10.4
348.925	9.11
349.136	7.89
349.346	8.48
349.557	8.32
349.767	9.43
349.977	9.16
350.188	8.7
350.398	9.29
350.608	9.05
350.819	8.4
351.029	8.16
351.239	9.11
351.449	10.56
351.66	9.49
351.87	10.24
352.08	9.83
352.29	11.28
352.501	10.86
352.711	11.4
352.921	12.34
353.131	12.33
353.341	12.88
353.552	12.02
353.762	11.55
353.972	12.8
354.182	12.72
354.392	13.1
354.602	11.29
354.812	11.5
355.022	10.06
355.232	9.6
355.442	9.54
355.652	9.06
355.862	9.13
356.072	8.9
356.282	8.11
356.492	7.18
356.702	7.37
356.912	7.75
357.122	7.43
357.332	8
357.542	7.81
357.752	7.99
357.962	7.81
358.171	8.02
358.381	9.26
358.591	9.44
358.801	9.89
359.011	9.33
359.221	9.36
359.43	9.1
359.64	9.43
359.85	9.66
360.06	10.12
360.269	9.69
360.479	9.49
360.689	8.72
360.899	9.14
361.108	9.18
361.318	9.61
361.528	9.9
361.737	10.42
361.947	9.62
362.156	9.49
362.366	8.9
362.576	9.38
362.785	9.5
362.995	9.62
363.204	9.74
363.414	9.15
363.623	8.85
363.833	8.17
364.042	8.28
364.252	8.91
364.461	8.48
364.671	8.55
364.88	8.15
365.09	7.4
365.299	7.18
365.509	6.27
365.718	7.49
365.927	7.35
366.137	7.51
366.346	6.81
366.555	6.03
366.765	7.26
366.974	7.51
367.183	8.55
367.393	9.47
367.602	8.91
367.811	9.91
368.021	8.38
368.23	7.83
368.439	7.68
368.648	7.59
368.857	7.91
369.067	7
369.276	7.03
369.485	6.96
369.694	7.27
369.903	7.96
370.112	7.73
370.321	9.1
370.531	8.93
370.74	8.78
370.949	9.42
371.158	9.38
371.367	10.18
371.576	9.89
371.785	9.1
371.994	8.15
372.203	7.93
372.412	7.85
372.621	7.85
372.83	8.39
373.039	8.94
373.248	8.46
373.457	8.29
373.666	7.16
373.874	7.28
374.083	7.31
374.292	8.18
374.501	8.35
374.71	8.14
374.919	8.26
375.128	8.84
375.336	8.66
375.545	8.9
375.754	8.91
375.963	9.1
376.171	9.08
376.38	9.15
376.589	8.45
376.798	8.84
377.006	8.67
377.215	8.27
377.424	7.54
377.632	7.48
377.841	7.07
378.05	7.53
378.258	7.82
378.467	7.05
378.675	7.65
378.884	8.23
379.093	7.52
379.301	7.97
379.51	7.65
379.718	7.89
379.927	7.87
380.135	8
380.344	7.9
380.552	7.44
380.761	7.39
380.969	6.5
381.177	5.76
381.386	6.13
381.594	5.87
381.803	5.65
382.011	5.77
382.219	5.9
382.428	5.93
382.636	5.98
382.845	6.19
383.053	6.62
383.261	6.66
383.469	7.2
383.678	6.51
383.886	5.75
384.094	6.34
384.302	5.9
384.511	5.7
384.719	5.88
384.927	5.65
385.135	5.16
385.343	5.22
385.552	5.05
385.76	4.86
385.968	4.68
386.176	5.37
386.384	5.35
386.592	5.69
386.8	5.89
387.008	5.54
387.216	5.09
387.424	5.58
387.633	5.65
387.841	5.58
388.049	5.83
388.257	6.44
388.465	6.14
388.672	6.19
388.88	5.93
389.088	5.24
389.296	5.63
389.504	5.82
389.712	5.93
389.92	5.64
390.128	5.94
390.336	5.35
390.544	5.09
390.751	5.31
390.959	5.35
391.167	5.19
391.375	5.89
391.583	5.61
391.79	5.61
391.998	5.41
392.206	5.77
392.414	5.59
392.621	5.69
392.829	5.82
393.037	5.67
393.244	5.26
393.452	5.59
393.66	5.6
393.867	5.61
394.075	5.99
394.283	6.2
394.49	6.29
394.698	6.25
394.905	6.48
395.113	6.53
395.32	6.56
395.528	6.41
395.735	6.29
395.943	6.35
396.15	6.27
396.358	5.54
396.565	5.35
396.773	4.77
396.98	4.7
397.188	4.79
397.395	4.43
397.602	4.22
397.81	4.35
398.017	4.33
398.225	4.17
398.432	4.21
398.639	4.53
398.847	4.29
399.054	4.33
399.261	4.7
399.468	4.38
399.676	4.56
399.883	4.92
400.09	5.04
400.297	4.88
400.505	4.58
400.712	5.15
400.919	5.61
401.126	5.49
401.333	5.74
401.54	5.61
401.748	5.4
401.955	5.55
402.162	5.39
402.369	5.37
402.576	5.53
402.783	5.75
402.99	5.12
403.197	4.43
403.404	4.98
403.611	4.86
403.818	4.81
404.025	5.05
404.232	4.98
404.439	4.85
404.646	4.83
404.853	4.82
405.06	4.66
405.267	4.55
405.474	4.65
405.681	4.5
405.887	4.34
406.094	4.25
406.301	4.07
406.508	4.15
406.715	4.15
406.922	4.22
407.128	4.43
407.335	4.13
407.542	4.44
407.749	4.43
407.955	4.35
408.162	4.45
408.369	4.53
408.575	4.5
408.782	4.3
408.989	4.23
409.195	4.34
409.402	4.06
409.609	4.55
409.815	4.69
410.022	4.88
410.228	5.01
410.435	5.07
410.642	4.91
410.848	4.84
411.055	4.83
411.261	4.82
411.468	4.62
411.674	4.66
411.881	4.38
412.087	4.25
412.294	4.27
412.5	3.95
412.706	3.93
412.913	4.13
413.119	4.11
413.326	4.39
413.532	4.6
413.738	4.89
413.945	5.03
414.151	4.99
414.357	4.99
414.564	4.98
414.77	5.13
414.976	5.13
415.182	5.04
415.389	5.24
415.595	5.13
415.801	5
416.007	4.78
416.214	4.67
416.42	4.75
416.626	4.49
416.832	4.55
417.038	4.21
417.244	4.3
417.45	4.24
417.657	4.15
417.863	4.16
418.069	4.24
418.275	4.02
418.481	4.09
418.687	4.03
418.893	4.12
419.099	4.16
419.305	4.34
419.511	4.39
419.717	4.47
419.923	4.49
420.129	4.44
420.335	4.34
420.541	4.42
420.746	4.38
420.952	4.41
421.158	4.46
421.364	4.41
421.57	4.42
421.776	4.18
421.982	4.15
422.187	4.2
422.393	4.2
422.599	4.25
422.805	4.31
423.01	4.13
423.216	4.04
423.422	3.84
423.628	3.61
423.833	3.72
424.039	3.82
424.245	3.76
424.45	3.79
424.656	3.71
424.862	3.71
425.067	3.7
425.273	3.74
425.478	3.86
425.684	4.11
425.889	4.24
426.095	4.16
426.301	4.19
426.506	4.28
426.712	4.24
426.917	4.29
427.123	4.24
427.328	4.18
427.533	4.43
427.739	4.36
427.944	4.22
428.15	4.39
428.355	4.26
428.561	4.28
428.766	4.48
428.971	4.39
429.177	4.46
429.382	4.5
429.587	4.31
429.793	3.98
429.998	4.14
430.203	4.15
430.408	4.08
430.614	4.35
430.819	4.4
431.024	4.18
431.229	4.05
431.434	3.95
431.64	3.97
431.845	4.11
432.05	3.91
432.255	3.81
432.46	3.68
432.665	3.82
432.87	3.77
433.076	3.63
433.281	3.62
433.486	3.65
433.691	3.6
433.896	3.6
434.101	3.59
434.306	3.65
434.511	3.66
434.716	3.95
434.921	3.73
435.126	3.4
435.331	3.31
435.535	3.16
435.74	3.32
435.945	3.35
436.15	3.3
436.355	3.41
436.56	3.64
436.765	3.65
436.97	3.51
437.174	3.7
437.379	4.09
437.584	4.15
437.789	4.23
437.993	4.16
438.198	4.13
438.403	4.1
438.608	4.12
438.812	3.89
439.017	3.96
439.222	4.02
439.426	3.83
439.631	3.61
439.836	3.88
440.04	4.02
440.245	4.12
440.45	4.1
440.654	4.16
440.859	4.14
441.063	4.32
441.268	4.14
441.472	3.89
441.677	3.97
441.881	4.04
442.086	3.91
442.29	3.84
442.495	3.82
442.699	4.07
442.904	4.12
443.108	4.01
443.312	4.01
443.517	4.12
443.721	4.35
443.925	4.37
444.13	4.38
444.334	4.43
444.538	4.31
444.743	4.25
444.947	4.07
445.151	4.02
445.356	4.07
445.56	4.02
445.764	3.97
445.968	3.84
446.173	3.73
446.377	3.79
446.581	3.66
446.785	3.75
446.989	3.75
447.193	3.81
447.398	3.8
447.602	3.92
447.806	3.86
448.01	3.88
448.214	4.06
448.418	4.36
448.622	4.35
448.826	4.5
449.03	4.65
449.234	4.54
449.438	4.43
449.642	4.43
449.846	4.41
450.05	4.32
450.254	4.49
450.458	4.37
450.662	4.08
450.866	3.94
451.069	3.84
451.273	3.73
451.477	3.84
451.681	3.84
451.885	3.76
452.089	3.77
452.292	4.06
452.496	3.82
452.7	3.75
452.904	3.79
453.107	3.94
453.311	4
453.515	3.79
453.719	3.59
453.922	3.52
454.126	3.7
454.33	3.44
454.533	3.37
454.737	3.5
454.94	3.45
455.144	3.51
455.348	3.4
455.551	3.25
455.755	3.36
455.958	3.61
456.162	3.51
456.365	3.34
456.569	3.45
456.772	3.41
456.976	3.37
457.179	3.51
457.383	3.35
457.586	3.45
457.79	3.37
457.993	3.31
458.196	3.1
458.4	3.35
458.603	3.44
458.807	3.55
459.01	3.61
459.213	3.64
459.417	3.63
459.62	3.63
459.823	3.56
460.026	3.44
460.23	3.55
460.433	3.72
460.636	3.78
460.839	3.79
461.042	3.73
461.246	3.78
461.449	3.82
461.652	3.94
461.855	4.04
462.058	4.05
462.261	4.25
462.464	4.16
462.668	4.29
462.871	3.98
463.074	3.98
463.277	4.01
463.48	3.93
463.683	3.82
463.886	3.7
464.089	3.7
464.292	3.96
464.495	4.24
464.698	4.23
464.901	4.17
465.104	4.4
465.306	4.26
465.509	4.3
465.712	4.41
465.915	4.33
466.118	4.32
466.321	4.35
466.524	4.16
466.726	3.87
466.929	4.04
467.132	3.77
467.335	3.74
467.538	3.91
467.74	3.83
467.943	3.86
468.146	3.88
468.348	3.75
468.551	3.67
468.754	3.85
468.956	3.88
469.159	3.69
469.362	3.85
469.564	3.81
469.767	3.68
469.969	3.54
470.172	3.47
470.375	3.69
470.577	3.83
470.78	3.85
470.982	3.62
471.185	3.77
471.387	4.04
471.59	3.87
471.792	3.85
471.995	3.84
472.197	4.18
472.399	3.97
472.602	3.77
472.804	3.77
473.007	3.68
473.209	3.78
473.411	3.52
473.614	3.56
473.816	3.69
474.018	3.68
474.22	3.78
474.423	3.68
474.625	3.79
474.827	3.96
475.03	3.84
475.232	3.74
475.434	3.6
475.636	3.71
475.838	3.47
476.04	3.61
476.243	3.69
476.445	3.85
476.647	3.68
476.849	3.6
477.051	3.69
477.253	3.81
477.455	3.92
477.657	3.91
477.859	4.02
478.061	4.07
478.263	4.04
478.465	3.99
478.667	3.91
478.869	3.94
479.071	3.95
479.273	3.73
479.475	3.71
479.677	3.69
479.879	3.77
480.081	3.7
480.283	3.6
480.485	3.42
480.686	3.45
480.888	3.37
481.09	3.39
481.292	3.56
481.494	3.6
481.695	3.56
481.897	3.59
482.099	3.53
482.301	3.57
482.502	3.57
482.704	3.49
482.906	3.43
483.107	3.45
483.309	3.49
483.511	3.38
483.712	3.35
483.914	3.39
484.115	3.4
484.317	3.45
484.519	3.39
484.72	3.38
484.922	3.47
485.123	3.49
485.325	3.43
485.526	3.39
485.728	3.45
485.929	3.57
486.131	3.55
486.332	3.52
486.534	3.51
486.735	3.54
486.936	3.57
487.138	3.55
487.339	3.6
487.541	3.64
487.742	3.62
487.943	3.6
488.144	3.54
488.346	3.51
488.547	3.51
488.748	3.51
488.95	3.52
489.151	3.53
489.352	3.56
489.553	3.64
489.755	3.7
489.956	3.74
490.157	3.77
490.358	3.8
490.559	3.71
490.76	3.71
490.961	3.73
491.163	3.7
491.364	3.67
491.565	3.63
491.766	3.56
491.967	3.55
492.168	3.56
492.369	3.54
492.57	3.51
492.771	3.61
492.972	3.67
493.173	3.6
493.374	3.74
493.575	3.72
493.776	3.79
493.976	3.67
494.177	3.65
494.378	3.54
494.579	3.58
494.78	3.52
494.981	3.42
495.182	3.26
495.382	3.23
495.583	3.07
495.784	3.13
495.985	3.07
496.185	3.14
496.386	3.12
496.587	3.12
496.788	3.22
496.988	3.24
497.189	3.25
497.39	3.39
497.59	3.52
497.791	3.52
497.992	3.49
498.192	3.47
498.393	3.4
498.593	3.45
498.794	3.56
498.994	3.53
499.195	3.64
499.395	3.85
499.596	3.87
499.796	3.78
499.997	3.82
500.197	3.82
500.398	3.88
500.598	3.88
500.799	3.96
500.999	3.94
501.199	3.95
501.4	3.94
501.6	3.85
501.801	3.79
502.001	3.92
502.201	3.91
502.402	3.91
502.602	4.03
502.802	4.14
503.002	3.98
503.203	3.95
503.403	3.81
503.603	3.98
503.803	3.89
504.003	3.82
504.204	3.69
504.404	3.63
504.604	3.71
504.804	3.72
505.004	3.81
505.204	3.92
505.404	4.16
505.604	4.3
505.804	4.03
506.005	4.04
506.205	4.1
506.405	4.02
506.605	4.1
506.805	4.03
507.005	3.87
507.204	3.85
507.404	3.79
507.604	3.6
507.804	3.53
508.004	3.55
508.204	3.67
508.404	3.65
508.604	3.67
508.804	3.66
509.003	3.74
509.203	3.8
509.403	3.87
509.603	3.9
509.803	3.96
510.002	3.99
510.202	3.97
510.402	4.05
510.602	4.03
510.801	4.1
511.001	4.04
511.201	4.02
511.4	3.94
511.6	3.91
511.8	3.85
511.999	3.97
512.199	4.02
512.398	4.19
512.598	4.05
512.797	3.99
512.997	3.95
513.197	4.05
513.396	4.09
513.596	4.16
513.795	4.11
513.994	4.14
514.194	3.8
514.393	3.69
514.593	3.73
514.792	3.83
514.992	3.94
515.191	3.98
515.39	3.9
515.59	3.81
515.789	3.9
515.988	3.91
516.188	3.81
516.387	3.97
516.586	3.89
516.786	3.89
516.985	4.02
517.184	4.09
517.383	4.15
517.582	4.17
517.782	4.31
517.981	4.22
518.18	4.19
518.379	4.22
518.578	4.28
518.777	4.25
518.976	4.1
519.176	4.02
519.375	3.98
519.574	3.94
519.773	3.93
519.972	3.73
520.171	3.79
520.37	3.81
520.569	3.98
520.768	3.96
520.967	4.12
521.166	4.22
521.365	4.16
521.564	4.16
521.762	4.17
521.961	4.32
522.16	4.45
522.359	4.44
522.558	4.55
522.757	4.39
522.956	4.32
523.154	4.33
523.353	4.29
523.552	4.29
523.751	4.37
523.949	4.39
524.148	4.33
524.347	4.47
524.546	4.34
524.744	4.19
524.943	4.24
525.142	4.25
525.34	4.18
525.539	4.25
525.737	4.19
525.936	4.19
526.135	4.28
526.333	4.24
526.532	4.17
526.73	4.27
526.929	4.41
527.127	4.42
527.326	4.47
527.524	4.57
527.723	4.47
527.921	4.55
528.12	4.53
528.318	4.47
528.516	4.48
528.715	4.4
528.913	4.45
529.112	4.45
529.31	4.47
529.508	4.46
529.707	4.43
529.905	4.58
530.103	4.57
530.301	4.57
530.5	4.63
530.698	4.72
530.896	4.81
531.094	4.75
531.293	4.78
531.491	4.72
531.689	4.8
531.887	4.8
532.085	4.72
532.283	4.73
532.481	4.81
532.68	4.76
532.878	4.66
533.076	4.74
533.274	4.76
533.472	4.67
533.67	4.84
533.868	4.82
534.066	4.83
534.264	4.77
534.462	4.83
534.66	4.8
534.858	4.93
535.056	4.95
535.253	4.96
535.451	5
535.649	5.04
535.847	4.84
536.045	4.98
536.243	5.01
536.441	5.02
536.638	4.99
536.836	4.9
537.034	4.86
537.232	4.94
537.43	4.96
537.627	5.13
537.825	5.11
538.023	5.06
538.22	5.08
538.418	5.09
538.616	5.29
538.813	5.27
539.011	5.35
539.209	5.37
539.406	5.42
539.604	5.43
539.801	5.33
539.999	5.39
540.196	5.64
540.394	5.53
540.591	5.63
540.789	5.64
540.986	5.68
541.184	5.73
541.381	5.74
541.579	5.75
541.776	5.86
541.974	5.83
542.171	5.83
542.368	5.74
542.566	5.78
542.763	5.72
542.96	5.66
543.158	5.71
543.355	5.77
543.552	5.79
543.75	5.87
543.947	5.66
544.144	5.73
544.341	5.88
544.539	5.92
544.736	5.84
544.933	6.08
545.13	6.14
545.327	6.07
545.524	6
545.722	6.13
545.919	5.99
546.116	5.99
546.313	6.03
546.51	5.98
546.707	5.93
546.904	6.07
547.101	5.99
547.298	5.96
547.495	6.04
547.692	6.12
547.889	6.08
548.086	6.28
548.283	6.46
548.48	6.49
548.677	6.59
548.874	6.83
549.07	6.71
549.267	6.59
549.464	6.71
549.661	6.62
549.858	6.67
550.055	6.63
550.251	6.51
550.448	6.63
550.645	6.53
550.842	6.49
551.038	6.54
551.235	6.77
551.432	6.89
551.628	6.94
551.825	7.11
552.022	7.15
552.218	7.16
552.415	7.24
552.612	7.22
552.808	7.37
553.005	7.52
553.201	7.58
553.398	7.69
553.594	7.54
553.791	7.67
553.987	7.68
554.184	7.66
554.38	7.91
554.577	8.08
554.773	8.19
554.97	8.26
555.166	8.24
555.362	8.24
555.559	8.32
555.755	8.63
555.952	8.42
556.148	8.5
556.344	8.61
556.541	8.44
556.737	8.57
556.933	8.45
557.129	8.41
557.326	8.41
557.522	8.54
557.718	8.45
557.914	8.36
558.11	8.56
558.307	8.61
558.503	8.73
558.699	8.95
558.895	8.95
559.091	9.11
559.287	9.17
559.483	9.22
559.679	9.26
559.876	9.39
560.072	9.44
560.268	9.52
560.464	9.39
560.66	9.47
560.856	9.43
561.052	9.41
561.247	9.46
561.443	9.4
561.639	9.4
561.835	9.24
562.031	9.29
562.227	9.3
562.423	9.23
562.619	9.55
562.815	9.39
563.01	9.47
563.206	9.36
563.402	9.32
563.598	9.31
563.793	9.2
563.989	9.34
564.185	9.47
564.381	9.59
564.576	9.6
564.772	9.42
564.968	9.56
565.163	9.86
565.359	10.09
565.555	10.17
565.75	10.24
565.946	10.52
566.141	10.75
566.337	10.63
566.532	10.51
566.728	10.58
566.923	10.78
567.119	10.87
567.314	10.63
567.51	10.7
567.705	10.74
567.901	11.02
568.096	11.01
568.292	10.88
568.487	10.82
568.682	11.12
568.878	11.32
569.073	11.35
569.268	11.56
569.464	11.51
569.659	11.41
569.854	11.59
570.05	11.44
570.245	11.47
570.44	11.62
570.635	11.88
570.831	11.97
571.026	11.85
571.221	11.94
571.416	11.9
571.611	12.1
571.806	12.19
572.002	12.15
572.197	12.13
572.392	12.17
572.587	12.1
572.782	12.18
572.977	12.21
573.172	12.36
573.367	12.4
573.562	12.28
573.757	12.4
573.952	12.42
574.147	12.42
574.342	12.72
574.537	12.69
574.732	12.84
574.927	12.86
575.121	12.89
575.316	12.93
575.511	12.71
575.706	12.85
575.901	12.65
576.096	12.74
576.29	12.75
576.485	12.63
576.68	12.85
576.875	12.84
577.069	12.6
577.264	12.54
577.459	12.6
577.654	12.69
577.848	12.79
578.043	12.75
578.238	12.61
578.432	12.68
578.627	12.72
578.821	12.58
579.016	12.7
579.21	13
579.405	12.79
579.6	12.69
579.794	12.84
579.989	12.72
580.183	13.03
580.378	13.22
580.572	13.39
580.766	13.23
580.961	13.22
581.155	13.26
581.35	13.32
581.544	13.49
581.738	13.59
581.933	13.75
582.127	13.56
582.321	13.47
582.516	13.5
582.71	13.35
582.904	13.53
583.099	13.74
583.293	13.56
583.487	13.66
583.681	13.64
583.875	13.71
584.07	13.88
584.264	14.11
584.458	14.37
584.652	14.42
584.846	14.7
585.04	14.55
585.234	14.44
585.428	14.36
585.623	14.09
585.817	14.09
586.011	14.01
586.205	13.89
586.399	13.9
586.593	13.72
586.787	13.4
586.981	13.32
587.174	13.4
587.368	13.46
587.562	13.5
587.756	13.75
587.95	14.02
588.144	14.02
588.338	13.91
588.532	13.84
588.725	13.68
588.919	13.87
589.113	13.61
589.307	13.7
589.501	13.82
589.694	14
589.888	13.95
590.082	14.08
590.275	14.3
590.469	14.22
590.663	14.48
590.856	14.81
591.05	14.88
591.244	15
591.437	15.24
591.631	15.36
591.824	15.02
592.018	15.07
592.212	14.7
592.405	14.62
592.599	14.76
592.792	14.69
592.986	14.56
593.179	14.43
593.372	14.84
593.566	14.76
593.759	14.51
593.953	14.96
594.146	14.86
594.339	15.33
594.533	15.13
594.726	15.13
594.92	15.05
595.113	15.11
595.306	15.3
595.499	15.18
595.693	14.99
595.886	15.06
596.079	14.91
596.272	14.96
596.466	14.76
596.659	14.95
596.852	14.82
597.045	15.04
597.238	15
597.431	15.03
597.624	14.96
597.818	15.14
598.011	14.96
598.204	14.93
598.397	15.01
598.59	14.81
598.783	14.65
598.976	14.62
599.169	14.52
599.362	14.45
599.555	14.63
599.748	14.54
599.941	14.51
600.134	14.73
600.326	14.8
600.519	14.85
600.712	15.33
600.905	15.44
601.098	15.89
601.291	15.79
601.483	15.96
601.676	15.75
601.869	15.71
602.062	15.75
602.255	15.77
602.447	15.99
602.64	16.02
602.833	15.77
603.025	15.86
603.218	15.52
603.411	15.61
603.603	15.77
603.796	15.92
603.989	15.93
604.181	16.02
604.374	16.02
604.566	15.85
604.759	15.79
604.951	16.04
605.144	15.93
605.336	16.1
605.529	16.26
605.721	16.09
605.914	16
606.106	16.14
606.299	15.99
606.491	16.15
606.683	16.15
606.876	16.09
607.068	16.02
607.26	16.24
607.453	16.23
607.645	16.08
607.837	16.09
608.03	16.27
608.222	16.25
608.414	16.31
608.606	16.31
608.799	16.34
608.991	16.64
609.183	16.48
609.375	16.49
609.567	16.58
609.759	16.6
609.952	16.6
610.144	16.57
610.336	16.54
610.528	16.61
610.72	16.52
610.912	16.35
611.104	16.11
611.296	16.04
611.488	15.95
611.68	16
611.872	15.88
612.064	16.13
612.256	15.9
612.448	15.98
612.64	16.02
612.832	16.18
613.023	16.43
613.215	16.45
613.407	16.53
613.599	16.58
613.791	16.43
613.983	16.58
614.174	16.45
614.366	16.53
614.558	16.43
614.75	16.35
614.941	16.03
615.133	16.3
615.325	16.22
615.516	15.8
615.708	15.73
615.9	15.74
616.091	15.53
616.283	15.22
616.475	15.25
616.666	15.39
616.858	15.6
617.049	15.63
617.241	15.3
617.432	15.6
617.624	15.94
617.815	15.89
618.007	15.94
618.198	15.84
618.39	16.23
618.581	16.06
618.773	15.73
618.964	15.74
619.155	15.65
619.347	15.92
619.538	15.65
619.729	15.34
619.921	15.43
620.112	15.56
620.303	15.84
620.494	15.82
620.686	16.07
620.877	16.18
621.068	15.97
621.259	16.31
621.451	16.23
621.642	16.31
621.833	16.79
622.024	16.75
622.215	16.48
622.406	16.68
622.597	16
622.788	16.12
622.98	16.1
623.171	15.96
623.362	15.64
623.553	15.68
623.744	15.77
623.935	15.83
624.126	15.73
624.317	15.71
624.508	15.52
624.698	15.82
624.889	15.77
625.08	15.99
625.271	16.32
625.462	16.66
625.653	16.58
625.844	16.51
626.034	16.57
626.225	16.71
626.416	16.88
626.607	16.96
626.798	17.31
626.988	17.33
627.179	17.35
627.37	17.3
627.56	17.12
627.751	17.05
627.942	17.02
628.132	16.95
628.323	17.13
628.514	17.24
628.704	17.27
628.895	17.34
629.085	17.15
629.276	17.2
629.466	17.12
629.657	17.31
629.847	17.69
630.038	17.89
630.228	17.98
630.419	17.93
630.609	17.67
630.8	17.42
630.99	17.12
631.181	17.47
631.371	17.52
631.561	17.59
631.752	17.39
631.942	17.12
632.132	17.1
632.323	16.78
632.513	16.82
632.703	17.24
632.893	17.42
633.084	17.45
633.274	17.43
633.464	17.37
633.654	17.35
633.844	17.61
634.034	17.61
634.225	17.75
634.415	17.96
634.605	18
634.795	17.74
634.985	17.47
635.175	17.15
635.365	17.19
635.555	16.95
635.745	16.94
635.935	16.85
636.125	16.95
636.315	16.45
636.505	16.3
636.695	16
636.885	16.28
637.075	16.51
637.265	17.12
637.455	17.08
637.644	17.51
637.834	17.13
638.024	16.94
638.214	16.96
638.404	17.16
638.593	17.31
638.783	17.43
638.973	17.09
639.163	16.75
639.352	16.64
639.542	16.4
639.732	16.2
639.921	16.9
640.111	16.93
640.301	16.94
640.49	17.35
640.68	17.5
640.87	17.54
641.059	17.69
641.249	18.1
641.438	17.98
641.628	17.92
641.817	17.93
642.007	17.63
642.196	17.66
642.386	17.51
642.575	17.1
642.764	17.08
642.954	17.04
643.143	16.91
643.333	17.17
643.522	17.45
643.711	17.25
643.901	17
644.09	17.09
644.279	17.42
644.469	17.21
644.658	17.42
644.847	17.65
645.036	17.77
645.226	17.81
645.415	17.9
645.604	17.46
645.793	17.52
645.982	17.59
646.171	17.33
646.361	17.39
646.55	17.67
646.739	17.32
646.928	16.9
647.117	16.89
647.306	16.76
647.495	16.6
647.684	17.16
647.873	17.39
648.062	17.82
648.251	17.72
648.44	17.69
648.629	17.88
648.818	18.24
649.007	18.26
649.196	18.25
649.384	18.02
649.573	18.16
649.762	17.95
649.951	18.14
650.14	17.84
650.328	18.11
650.517	17.87
650.706	17.75
650.895	17.79
651.083	18
651.272	18.02
651.461	18.45
651.65	18.01
651.838	17.65
652.027	17.76
652.216	18.01
652.404	17.75
652.593	18.17
652.781	18.41
652.97	18.03
653.158	18.28
653.347	18.37
653.535	18.14
653.724	18.24
653.912	18.88
654.101	18.51
654.289	18.69
654.478	19.05
654.666	18.43
654.855	18.36
655.043	18.21
655.231	17.46
655.42	17.35
655.608	17.41
655.796	17.29
655.985	16.99
656.173	16.98
656.361	16.69
656.55	16.64
656.738	17.04
656.926	16.63
657.114	16.88
657.302	17.23
657.491	17.31
657.679	17.34
657.867	17.11
658.055	17.22
658.243	17.26
658.431	17.17
658.619	17.18
658.807	17.49
658.996	17.87
659.184	18.02
659.372	18.01
659.56	17.83
659.748	17.76
659.936	18.41
660.124	18.65
660.311	18.55
660.499	18.68
660.687	18.99
660.875	18.71
661.063	18.46
661.251	18.65
661.439	18.41
661.627	18.8
661.814	19.15
662.002	18.9
662.19	18.59
662.378	18.83
662.565	19.05
662.753	19.07
662.941	19.2
663.129	19.71
663.316	19.15
663.504	19.87
663.692	19.59
663.879	19.64
664.067	19.44
664.254	19.52
664.442	19.55
664.63	19.44
664.817	18.75
665.005	18.63
665.192	18.44
665.38	19.05
665.567	18.98
665.755	19.06
665.942	18.93
666.13	19.1
666.317	18.85
666.504	19.38
666.692	19.02
666.879	19.76
667.067	19.94
667.254	19.71
667.441	19.67
667.629	19.5
667.816	19.5
668.003	19.5
668.19	19.15
668.378	19.03
668.565	18.74
668.752	19.12
668.939	18.82
669.127	18.47
669.314	18.63
669.501	19.01
669.688	19.33
669.875	18.77
670.062	18.89
670.249	19.04
670.436	19.18
670.623	19.12
670.81	18.65
670.997	18.62
671.184	18.44
671.371	18.76
671.558	18.45
671.745	18.11
671.932	19.13
672.119	18.94
672.306	19.55
672.493	19.43
672.68	19.3
672.867	19.98
673.054	19.8
673.24	20.33
673.427	19.75
673.614	19.49
673.801	19.4
673.988	18.98
674.174	19.41
674.361	19.02
674.548	19.38
674.734	19.03
674.921	18.67
675.108	18.63
675.294	18.24
675.481	18.86
675.668	18.47
675.854	18.51
676.041	18.46
676.227	18.17
676.414	17.9
676.601	18.03
676.787	18.15
676.974	18.04
677.16	18.3
677.347	18.45
677.533	17.97
677.719	18.59
677.906	18.35
678.092	18.64
678.279	18.48
678.465	18.94
678.651	18.87
678.838	18.84
679.024	19.18
679.21	18.89
679.397	19.14
679.583	18.87
679.769	18.6
679.955	18.82
680.142	18.86
680.328	18.96
680.514	18.85
680.7	18.84
680.886	19.59
681.073	19.26
681.259	19.49
681.445	19.47
681.631	19.82
681.817	19.88
682.003	20.27
682.189	19.99
682.375	20.04
682.561	20.04
682.747	20.16
682.933	19.93
683.119	19.85
683.305	20.09
683.491	20.22
683.677	20.24
683.863	20.21
684.049	19.85
684.235	19.97
684.42	20.02
684.606	19.8
684.792	19.25
684.978	18.79
685.164	19.18
685.349	19
685.535	18.63
685.721	18.73
685.907	19.44
686.092	19.73
686.278	20.07
686.464	20.39
686.649	20.64
686.835	20.78
687.021	20.72
687.206	20.64
687.392	20.22
687.577	20.64
687.763	20.89
687.948	20.23
688.134	19.96
688.319	19.8
688.505	19.67
688.69	20.26
688.876	20.64
689.061	20.28
689.247	20.26
689.432	21.34
689.618	21.04
689.803	21.07
689.988	21.56
690.174	21.49
690.359	21.39
690.544	21.43
690.73	21.5
690.915	20.84
691.1	21.04
691.285	20.82
691.471	20.22
691.656	20.23
691.841	20.57
692.026	20.44
692.211	21.25
692.396	21.46
692.582	21.11
692.767	20.81
692.952	21.21
693.137	21.68
693.322	21.46
693.507	21.69
693.692	21.49
693.877	20.61
694.062	20.91
694.247	19.87
694.432	19.56
694.617	19.69
694.802	19.32
694.987	19.9
695.172	19.65
695.357	20.17
695.541	19.81
695.726	19.89
695.911	19.9
696.096	19.53
696.281	19.73
696.466	19.53
696.65	19.34
696.835	19.33
697.02	18.7
697.204	18.96
697.389	18.9
697.574	19.19
697.759	19.52
697.943	19.44
698.128	19.64
698.312	19.54
698.497	19.68
698.682	19.69
698.866	19.52
699.051	19.96
699.235	19.5
699.42	19.41
699.604	19.46
699.789	19.25
699.973	19.29
700.158	19.52
700.342	19.49
700.527	19.66
700.711	19.44
700.895	19.38
701.08	19.53
701.264	20.03
701.448	19.99
701.633	20.4
701.817	20.62
702.001	21.37
702.186	20.76
702.37	20.84
702.554	20.78
702.738	21.5
702.923	22.06
703.107	21.58
703.291	21.95
703.475	21.92
703.659	21.26
703.843	21.14
704.027	19.53
704.212	19.49
704.396	19.12
704.58	18.89
704.764	18.01
704.948	17.08
705.132	17.15
705.316	16.98
705.5	17.66
705.684	18.06
705.868	17.56
706.052	18.35
706.235	18.17
706.419	18.37
706.603	18.12
706.787	19.48
706.971	20.29
707.155	19.9
707.339	19.84
707.522	20.63
707.706	20.01
707.89	20.21
708.074	20.39
708.257	20.63
708.441	21.4
708.625	21.64
708.808	20.91
708.992	21.09
709.176	21.37
709.359	21.08
709.543	20.18
709.727	20.06
709.91	20.07
710.094	20.56
710.277	21
710.461	20.38
710.644	20.85
710.828	20.73
711.011	20.41
711.195	20.53
711.378	20.72
711.562	20.67
711.745	20.9
711.928	21.44
712.112	21.14
712.295	21.08
712.478	21.26
712.662	20.96
712.845	21.5
713.028	21.7
713.212	21.47
713.395	22.01
713.578	21.5
713.761	21.6
713.945	21.91
714.128	21.6
714.311	21.41
714.494	21.23
714.677	20.9
714.86	20.58
715.043	21.04
715.227	21.44
715.41	21.24
715.593	22.42
715.776	21.96
715.959	21.12
716.142	20.74
716.325	20.19
716.508	20.87
716.691	21.29
716.874	21.13
717.057	20.87
717.239	20.85
717.422	21.05
717.605	19.77
717.788	20.08
717.971	20.85
718.154	21.65
718.337	22.54
718.519	22.33
718.702	22.05
718.885	22.15
719.068	21.67
719.25	20.6
719.433	20.3
719.616	20.47
719.798	20.05
719.981	20.04
720.164	20.29
720.346	19.75
720.529	19.61
720.712	18.53
720.894	18.5
721.077	18.68
721.259	18.94
721.442	18.36
721.624	18.5
721.807	19.44
721.989	18.79
722.172	17.76
722.354	17.95
722.537	18.24
722.719	19.62
722.901	20.3
723.084	20.14
723.266	20.84
723.448	21.38
723.631	22.34
723.813	21.61
723.995	21.03
724.178	20.66
724.36	21.03
724.542	20.48
724.724	20.63
724.907	19.92
725.089	19.78
725.271	19.23
725.453	19.13
725.635	18.19
725.817	18.54
725.999	18.36
726.181	19.26
726.364	19.12
726.546	19.79
726.728	19.21
726.91	19.56
727.092	19.96
727.274	20.88
727.456	21.13
727.638	20.35
727.819	20.91
728.001	22.07
728.183	21.99
728.365	21.74
728.547	21.41
728.729	22.68
728.911	21.92
729.093	22.18
729.274	21.14
729.456	20.9
729.638	22.97
729.82	21.93
730.001	21.78
730.183	22.31
730.365	21.66
730.546	21.81
730.728	20.36
730.91	20.17
731.091	19.27
731.273	19.6
731.455	19.88
731.636	19.19
731.818	18.68
731.999	18.8
732.181	18.73
732.362	19.07
732.544	19.3
732.725	19.52
732.907	21.12
733.088	20.87
733.27	20.52
733.451	20.78
733.633	20.56
733.814	22.28
733.995	21.5
734.177	20.71
734.358	21.41
734.539	21.55
734.721	20.66
734.902	18.66
735.083	19.33
735.264	20.03
735.446	20.03
735.627	19.32
735.808	17.9
735.989	18.74
736.17	19.92
736.351	18.57
736.533	17.7
736.714	18.13
736.895	19.49
737.076	19.96
737.257	20.32
737.438	18.79
737.619	19.32
737.8	19.87
737.981	19.8
738.162	19.77
738.343	20.72
738.524	20.18
738.705	21.52
738.886	21.37
739.067	21.86
739.247	21.58
739.428	22.9
739.609	22.66
739.79	22.66
739.971	22.15
740.151	21.82
740.332	21.36
740.513	22.45
740.694	23.31
740.874	23.88
741.055	23.16
741.236	23.94
741.417	24.64
741.597	24.72
741.778	25.74
741.958	25.68
742.139	25.25
742.32	26
742.5	25.72
742.681	24.38
742.861	23.91
743.042	24.07
743.222	23.03
743.403	20.15
743.583	19.69
743.764	18.47
743.944	18.57
744.124	17.7
744.305	16.87
744.485	17.78
744.666	17.31
744.846	16.36
745.026	16.62
745.207	16.17
745.387	18.24
745.567	17.69
745.747	18.02
745.928	18.56
746.108	18.4
746.288	18.27
746.468	17.33
746.648	19.35
746.829	21.09
747.009	20.94
747.189	22.64
747.369	22.68
747.549	23.76
747.729	24.19
747.909	24.43
748.089	24.52
748.269	25.76
748.449	26.87
748.629	26.57
748.809	26.48
748.989	25.69
749.169	23.53
749.349	24.35
749.529	25.24
749.709	24.01
749.889	23.85
750.068	25.62
750.248	25.66
750.428	24.49
750.608	24.16
750.788	23.88
750.967	25.72
751.147	26.95
751.327	25.97
751.507	25.88
751.686	26.07
751.866	25.4
752.046	23.71
752.225	22.48
752.405	22.54
752.585	22.59
752.764	21.39
752.944	19.61
753.123	19.28
753.303	20.27
753.482	19.71
753.662	19.01
753.841	19.28
754.021	19.17
754.2	20.2
754.38	20.11
754.559	20.48
754.739	22.18
754.918	22.29
755.097	22.02
755.277	20.61
755.456	21.43
755.635	21.82
755.815	21.7
755.994	23.11
756.173	22.36
756.352	21.83
756.532	20.83
756.711	19.53
756.89	19.98
757.069	19.76
757.248	19.56
757.427	18.48
757.607	19.79
757.786	20.11
757.965	19.96
758.144	20.01
758.323	20.93
758.502	21.23
758.681	20.38
758.86	19.64
759.039	20.4
759.218	21.01
759.397	21.18
759.576	21.73
759.755	21.56
759.934	20.51
760.113	21.06
760.291	21.06
760.47	21.06
760.649	22.99
760.828	22.93
761.007	22.72
761.186	22.54
761.364	21.68
761.543	21.66
761.722	21.93
761.901	23.22
762.079	23.4
762.258	22.12
762.437	23.51
762.615	22.57
762.794	22.84
762.972	24.29
763.151	24.86
763.33	25.52
763.508	25.17
763.687	25.12
763.865	24.95
764.044	24.36
764.222	25.08
764.401	23.29
764.579	23.29
764.758	23.83
764.936	23.26
765.114	22.89
765.293	23.31
765.471	23.23
765.65	22.76
765.828	22.42
766.006	23.01
766.184	22.87
766.363	23.38
766.541	22.59
766.719	21.94
766.898	21.2
767.076	21.01
767.254	19.9
767.432	18.48
767.61	18.78
767.788	19.63
767.967	19.67
768.145	18.69
768.323	18.99
768.501	20.26
768.679	21.56
768.857	21.57
769.035	22.61
769.213	22.7
769.391	23.58
769.569	25
769.747	25.32
769.925	25
770.103	27.64
770.281	27.52
770.459	27.52
770.636	27.39
770.814	26.58
770.992	26.44
771.17	28.29
771.348	27.5
771.525	26.08
771.703	24.42
771.881	24.77
772.059	22.67
772.236	22.8
772.414	23.19
772.592	21.95
772.769	23.25
772.947	20.79
773.125	16.98
773.302	16.99
773.48	17.08
773.657	18.96
773.835	18.35
774.013	19.88
774.19	19.48
774.368	19.85
774.545	19.1
774.723	17.1
774.9	19.02
775.077	21.57
775.255	24.09
775.432	22.19
775.61	20.74
775.787	21.5
775.964	22.49
776.142	21.01
776.319	18.08
776.496	20.48
776.674	21.83
776.851	22.62
777.028	23.87
777.205	23.39
777.382	26.97
777.56	25.74
777.737	24.19
777.914	23.36
778.091	24.47
778.268	25.71
778.445	24.73
778.622	25
778.8	23.95
778.977	22.34
779.154	22.73
779.331	21.93
779.508	24.26
779.685	25.07
779.862	23.73
780.038	26.64
780.215	31.21
780.392	32.21
780.569	30.93
780.746	30.24
780.923	30.44
781.1	28.24
781.277	28.91
781.453	27.66
781.63	27.64
781.807	28.17
781.984	25.83
782.16	23.44
782.337	20.68
782.514	22.55
782.691	23.04
782.867	24.71
783.044	26.12
783.221	24.73
783.397	22.53
783.574	23.66
783.75	20.89
783.927	21.82
784.103	20.97
784.28	22.35
784.456	22.97
784.633	24.16
784.809	21.35
784.986	20.17
785.162	21.38
785.339	22.77
785.515	20.05
785.692	22.48
785.868	22.61
786.044	19.19
786.221	19.46
786.397	19.69
786.573	18.78
786.749	19.02
786.926	22.11
787.102	18.58
787.278	18.61
787.454	19.86
787.631	20.48
787.807	20.61
787.983	23.65
788.159	24.1
788.335	21.84
788.511	24.47
788.687	25.97
788.863	24.03
789.039	26.48
789.216	27.53
789.392	28.12
789.568	27.32
789.744	27.97
789.919	27.21
790.095	28.58
790.271	31.08
790.447	29.99
790.623	30.66
790.799	30.07
790.975	29.58
791.151	31.04
791.327	32.26
791.502	34.47
791.678	33.83
791.854	33.92
792.03	33.46
792.205	33.37
792.381	30.51
792.557	27.28
792.733	28.21
792.908	25.26
793.084	26.3
793.259	23.09
793.435	20.8
793.611	20.28
793.786	19.32
793.962	19.43
794.137	16.35
794.313	17.62
794.488	20.28
794.664	19.62
794.839	23.46
795.015	19.95
795.19	21.78
795.366	22.2
795.541	22.14
795.716	20.97
795.892	19.54
796.067	21.47
796.242	23.03
796.418	20.74
796.593	21.37
796.768	18.54
796.944	16.26
797.119	13.63
797.294	13.46
797.469	13.37
797.644	15.96
797.82	17.56
797.995	17.13
798.17	17.03
798.345	15.94
798.52	15.79
798.695	16.71
798.87	20.86
799.045	25.15
799.22	26.27
799.395	25.08
799.57	22.58
799.745	22.51
799.92	20.9
800.095	19.65
800.27	23.46
800.445	24.21
800.62	26.05
800.795	23.09
800.97	19.03
801.145	18.54
801.319	21.46
801.494	22.04
801.669	20.58
801.844	20.36
802.018	20.23
802.193	19.92
802.368	19.28
802.543	15.96
802.717	19.35
802.892	21.41
803.067	23.11
803.241	20.67
803.416	22.78
803.59	23.63
803.765	23.15
803.94	21.7
804.114	19.36
804.289	21.61
804.463	24.01
804.638	18.72
804.812	18.88
804.986	17.61
805.161	19.43
805.335	16.43
805.51	13.77
805.684	18.06
805.858	16.5
806.033	16.91
806.207	10.63
806.381	6.63
806.556	11.44
806.73	10.86
806.904	14.2
807.078	13.37
807.253	17.95
807.427	20.81
807.601	19.16
807.775	23.76
807.949	25.23
808.123	32.53
808.298	33.36
808.472	32.46
808.646	29.96
808.82	24.76
808.994	25.23
809.168	26.11
809.342	21.19
809.516	18.66
809.69	17.64
809.864	15.71
810.038	14.23
810.212	12.21
810.385	11.15
810.559	9.85
810.733	7.88
810.907	3.3
811.081	0.35
811.255	4.46
811.428	7.56
811.602	3.77
811.776	4.61
811.95	-0.66
812.123	6.51
812.297	9.9
812.471	14.64
812.644	17.16
812.818	19.31
812.992	16.19
813.165	18.67
813.339	18.01
813.512	22.44
813.686	18.75
813.86	20.05
814.033	15.55
814.207	15.45
814.38	13.5
814.554	11.87
814.727	10
814.9	10.11
815.074	5.24
815.247	7.23
815.421	1.2
815.594	8.98
815.767	10.74
815.941	13.5
816.114	10.32
816.287	13.58
816.46	12.47
816.634	17.61
816.807	25
816.98	25.24
817.153	25.39
817.327	30.64
817.5	29.06
817.673	26.6
817.846	24.75
818.019	25.21
818.192	20.33
818.365	24.68
818.538	23.98
818.711	21.28
818.884	21.38
819.057	20.79
819.23	16.86
819.403	14.79
819.576	17.47
819.749	17.77
819.922	20.68
820.095	23.51
820.268	24.24
820.441	25.23
820.614	25.3
820.786	26.56
820.959	26.38
821.132	25.79
821.305	27.77
821.477	26.14
821.65	25.94
821.823	24
821.996	24.33
822.168	23.53
822.341	23.11
822.514	23.12
822.686	23.86
822.859	23.18
823.031	23.6
823.204	23.45
823.376	23.38
823.549	22.89
823.722	23.04
823.894	22.17
824.067	23.06
824.239	23.34
824.411	23.74
824.584	23.35
824.756	23.58
824.929	23.66
825.101	24.18
825.273	25.38
825.446	26.4
825.618	26.72
825.79	28.52
825.963	27.27
826.135	26.79
826.307	25.2
826.479	23.08
826.652	23.29
826.824	22.25
826.996	20.99
827.168	20.64
827.34	21.24
827.512	20.8
827.684	20.07
827.856	20.12
828.029	20.83
828.201	22.09
828.373	22
828.545	21.91
828.717	22.19
828.889	23.26
829.061	22.15
829.232	21.34
829.404	22.45
829.576	22.36
829.748	21.77
829.92	18.45
830.092	17.21
830.264	20.45
830.436	17.68
830.607	19.06
830.779	19.36
830.951	20.59
831.123	18.99
831.294	20.4
831.466	19.97
831.638	21.56
831.809	27.24
831.981	26.04
832.153	24.92
832.324	27.64
832.496	26.15
832.667	23.09
832.839	22.45
833.011	22.84
833.182	20.82
833.354	19.92
833.525	18.83
833.697	15.58
833.868	15.73
834.039	19.32
834.211	21.43
834.382	23.48
834.554	24.86
834.725	24.19
834.896	23.48
835.068	24.34
835.239	24.03
835.41	23.96
835.581	24.76
835.753	25.29
835.924	20.71
836.095	19.4
836.266	15.35
836.438	10.26
836.609	11.03
836.78	12.61
836.951	15.55
837.122	18.25
837.293	18.96
837.464	20.06
837.635	18.17
837.806	17.98
837.977	14.34
838.148	16.78
838.319	22.42
838.49	17.17
838.661	7.08
838.832	-0.04
839.003	-7.41
839.174	-11.37
839.345	-6.73
839.516	8.56
839.687	18.31
839.857	18.4
840.028	19.65
840.199	26.77
840.37	33.58
840.54	41.15
840.711	44.88
840.882	48.43
841.053	53.26
841.223	43.32
841.394	32.45
841.564	25.74
841.735	29.33
841.906	30.8
842.076	26.16
842.247	26.03
842.417	25.07
842.588	20.08
842.758	21.2
842.929	16.34
843.099	26.8
843.27	29.18
843.44	26.63
843.611	25.49
843.781	27.35
843.951	25.39
844.122	16.89
844.292	22.84
844.462	26.69
844.633	27.96
844.803	35.62
844.973	21.87
845.144	24.54
845.314	25.08
845.484	31.94
845.654	30.77
845.824	26.31
845.995	28.06
846.165	16.8
846.335	19.55
846.505	20.49
846.675	7.04
846.845	10.62
847.015	16.78
847.185	18.39
847.355	12.67
847.525	10.33
847.695	14.54
847.865	16.37
848.035	20.93
848.205	12.73
848.375	19.28
848.545	11.7
848.715	6.81
848.884	-9.35
849.054	0.47
849.224	-0.61
849.394	1.88
849.564	-6.03
849.733	3.39
849.903	12.44
850.073	13.44
850.243	-13.2
850.412	21.93
850.582	34.78
850.752	43.82
850.921	26.92
851.091	37.74
851.26	48.47
851.43	49.95
851.599	45.12
851.769	28.3
851.939	36.18
852.108	47.86
852.278	45.59
852.447	36.33
852.616	40.01
852.786	43.21
852.955	46.16
853.125	35.2
853.294	34.49
853.463	32.33
853.633	41.62
853.802	40.41
853.971	40.82
854.141	34.5
854.31	32.78
854.479	19.05
854.648	36.69
854.818	40.04
854.987	38.75
855.156	41.05
855.325	58.77
855.494	43.46
855.663	43.93
855.832	46.69
856.001	55.97
856.171	61.05
856.34	77.29
856.509	47.02
856.678	36.74
856.847	22.79
857.016	28.89
857.185	14.89
857.353	12.15
857.522	-2.05
857.691	-45.27
857.86	-124.01
858.029	-164.79
858.198	-388.06
858.367	-202.47
858.535	-248.96
858.704	-145.22
858.873	-89.83
859.042	-75.68
859.21	-17.15
859.379	3.18
859.548	27.87
859.717	34.64
859.885	44.2
860.054	54.51
860.222	55.53
860.391	71.75
860.56	74.22
860.728	68.95
860.897	66.9
861.065	52.95
861.234	62.97
861.402	41.48
861.571	47.12
861.739	52.89
861.908	41.72
862.076	67.11
862.244	75.22
862.413	41.3
862.581	60.48
862.749	75.22
862.918	69.69
863.086	97.7
863.254	124.36
863.423	125.59
863.591	104.06
863.759	92.89
863.927	88.64
864.096	79.7
864.264	81.91
864.432	75.74
864.6	78.22
864.768	82.27
864.936	52.77
865.104	7.02
865.272	-5.25
865.44	-14.47
865.608	-44.58
865.776	-129.56
865.944	-34.8
866.112	-85.4
866.28	-88.56
866.448	-79.74
866.616	-60.84
866.784	-58.36
866.952	-37.87
867.12	-40.15
867.288	-39.23
867.455	3.46
867.623	-6.75
867.791	-19.59
867.959	28.12
868.127	4.24
868.294	20.65
868.462	26.3
868.63	67.54
868.797	98.24
868.965	122.14
869.133	130.24
869.3	108.36
869.468	133.89
869.636	100.89
869.803	86.66
869.971	98.53
870.138	94.32
870.306	78.07
870.473	106.05
870.641	95.57
870.808	34.19
870.975	46.94
871.143	13.94
871.31	25.2
871.478	41.76
871.645	59.89
871.812	51.13
871.98	61.12
872.147	57.81
872.314	74.37
872.482	69.57
872.649	68.74
872.816	69.99
872.983	91.97
873.15	74.43
873.318	61.75
873.485	65.47
873.652	63.17
873.819	63.35
873.986	75.78
874.153	63.54
874.32	56.14
874.487	62.27
874.654	44.74
874.821	27.36
874.988	31.41
875.155	57.43
875.322	30.88
875.489	32.52
875.656	5.06
875.823	-27.25
875.99	-30.63
876.157	-44.95
876.324	-118.65
876.49	-98.51
876.657	-104.73
876.824	-122.96
876.991	-212.36
877.157	-104.41
877.324	-386.06
877.491	-137.93
877.658	-118.66
877.824	6.3
877.991	2.13
878.157	33.87
878.324	30.55
878.491	28.43
878.657	39.6
878.824	23.58
878.99	37
879.157	44.36
879.323	45.94
879.49	39.96
879.656	22.39
879.823	18.04
879.989	15.54
880.156	38.66
880.322	32.62
880.488	12.52
880.655	15.87
880.821	16.79
880.987	15.46
881.154	5.09
881.32	22.39
881.486	30.01
881.652	32.67
881.819	26.12
881.985	11.24
882.151	17.94
882.317	23.33
882.483	27.06
882.649	24.16
882.816	22.07
882.982	23.7
883.148	19.56
883.314	20.55
883.48	20.08
883.646	26.55
883.812	29.33
883.978	31.02
884.144	32.49
884.31	33.25
884.476	32.37
884.642	32.4
884.807	33.53
884.973	31.22
885.139	31.42
885.305	33.55
885.471	29.15
885.637	31.06
885.802	26.06
885.968	21.15
886.134	20.53
886.3	21.82
886.465	21.75
886.631	22.17
886.797	24.71
886.962	24.59
887.128	21.34
887.293	28.55
887.459	20.06
887.625	16.72
887.79	27.82
887.956	31.08
888.121	41.55
888.287	48.67
888.452	37.26
888.618	64.11
888.783	70.45
