Data from 2938024_Reflection_1.txt Node
Date: Sun Jul 12 15:19:31 EDT 2015
User: robert
Spectrometer: USB4E03001
Autoset integration time: false
Trigger mode: 4
Integration Time (sec): 1.000000E-1
Scans to average: 10
Electric dark correction enabled: true
Nonlinearity correction enabled: false
Boxcar width: 5
Stray light correction enabled: false
XAxis mode: Wavelengths
Stop averaging: false
Number of Pixels in Spectrum: 3648
>>>>>Begin Spectral Data<<<<<
177.566	-525.03
177.785	1855.11
178.005	2972.34
178.225	-86.12
178.445	-4.82
178.665	9.34
178.885	436.83
179.105	-1386.45
179.324	-1481.09
179.544	-266.95
179.764	-121.37
179.984	-234.1
180.204	-311.1
180.423	-392.03
180.643	-956.31
180.863	-436.38
181.083	-305.1
181.302	-1661.39
181.522	-1133.9
181.742	-999.06
181.961	-1665.05
182.181	-310.13
182.401	-241.47
182.621	-347.92
182.84	-370.44
183.06	-120.63
183.279	-83.31
183.499	-126.75
183.719	-53.52
183.938	-15.34
184.158	3.07
184.377	9.15
184.597	26.44
184.816	24.86
185.036	-14.2
185.256	-23.71
185.475	-60.93
185.695	-112.68
185.914	-88.16
186.134	-106.88
186.353	-82.07
186.572	-117.08
186.792	-182.32
187.011	-433.31
187.231	-8810.64
187.45	-1324.46
187.67	-251.5
187.889	-147.25
188.108	-138.81
188.328	-144.75
188.547	-188.85
188.766	-201.77
188.986	-827.35
189.205	1667.62
189.424	3104.2
189.644	10664.18
189.863	8325.81
190.082	574.8
190.302	433.07
190.521	-4746.11
190.74	-252.06
190.959	-149.78
191.178	-259.1
191.398	-130.27
191.617	-52.56
191.836	-22.08
192.055	-12.9
192.274	-0.17
192.494	26.71
192.713	8.97
192.932	8.52
193.151	-27.28
193.37	-29.86
193.589	-34.22
193.808	0.66
194.027	-85.15
194.246	-356.66
194.465	-1205.25
194.685	826.14
194.904	464.68
195.123	536.46
195.342	319.12
195.561	341.46
195.78	207.71
195.999	461.36
196.218	313.6
196.436	385.96
196.655	2067.02
196.874	1961.99
197.093	14146.3
197.312	-803.08
197.531	5796.97
197.75	-207.22
197.969	-246.1
198.188	-351.97
198.407	-298.16
198.625	-109.96
198.844	-9.25
199.063	-73.54
199.282	-98.89
199.501	-68.83
199.719	-24.31
199.938	1.18
200.157	-44.68
200.376	-42.28
200.594	-2.01
200.813	4.53
201.032	-39.03
201.251	-200.37
201.469	-67.84
201.688	-92.2
201.907	-226.22
202.125	-1072.57
202.344	1554.83
202.563	-1369.82
202.781	2884.08
203	1211.89
203.218	401.5
203.437	594.67
203.656	1280.75
203.874	-880.48
204.093	-160.36
204.311	-63.42
204.53	-81.68
204.748	-87.4
204.967	-68.7
205.185	-22.46
205.404	-3.17
205.622	-4.27
205.841	-28.6
206.059	-15.29
206.278	-31.47
206.496	-146.28
206.715	-92.88
206.933	-58.78
207.151	-35.78
207.37	-41.72
207.588	-76.58
207.806	-93.93
208.025	-152.22
208.243	-177.42
208.461	-190.52
208.68	-254.28
208.898	-132.62
209.116	-157.29
209.335	-79.44
209.553	-67.51
209.771	-79.1
209.989	-100.75
210.208	-87.78
210.426	-48.36
210.644	-20.41
210.862	-42.21
211.081	-8.79
211.299	10.97
211.517	-32.58
211.735	-105.69
211.953	-228.25
212.171	-124.4
212.39	-47.54
212.608	-52.38
212.826	-40.37
213.044	-78.7
213.262	-253.9
213.48	3389.34
213.698	-1047.04
213.916	-214.81
214.134	-345.11
214.352	-381.47
214.57	-380.63
214.788	-386.28
215.006	-234.79
215.224	-803.93
215.442	-791.89
215.66	-294.45
215.878	-291.31
216.096	-474.54
216.314	-871.11
216.532	-457.03
216.75	-450.13
216.968	-981.55
217.185	-1668.24
217.403	-847.56
217.621	-531.83
217.839	-339.92
218.057	-297.5
218.275	-231
218.492	-136.77
218.71	-110.21
218.928	-90.68
219.146	-96.21
219.363	-71.36
219.581	-61.48
219.799	-54.04
220.017	-20.07
220.234	3.88
220.452	23.57
220.67	23.34
220.887	9.46
221.105	5.62
221.323	-2.76
221.54	-1.42
221.758	13.31
221.976	12.46
222.193	4.9
222.411	-14.68
222.629	-25.74
222.846	-41.01
223.064	-16.11
223.281	-13.99
223.499	11.11
223.716	-8.61
223.934	-38.57
224.151	-43.09
224.369	-24.34
224.586	-31.79
224.804	0.91
225.021	-11.74
225.239	-11.2
225.456	-30.94
225.674	-35.89
225.891	-62.31
226.108	-60.57
226.326	-38.11
226.543	-48.39
226.76	-45.05
226.978	-33.36
227.195	-36.13
227.413	-23.7
227.63	-13.68
227.847	-7.44
228.064	-4.66
228.282	-2.4
228.499	5.47
228.716	4.51
228.934	9.72
229.151	7.17
229.368	7.77
229.585	6.13
229.802	9.51
230.02	6.08
230.237	5.08
230.454	3.77
230.671	9.04
230.888	4.89
231.105	5.64
231.323	4.2
231.54	3.8
231.757	1.29
231.974	-3.62
232.191	-12.21
232.408	-13.2
232.625	-13.83
232.842	-19.01
233.059	-31.82
233.276	-25.66
233.493	-22.17
233.71	-22.92
233.927	-25.02
234.144	-25.81
234.361	-17.83
234.578	-15.66
234.795	-10.13
235.012	-8.15
235.229	-1.38
235.446	-0.49
235.663	1.06
235.879	-2.46
236.096	-2.84
236.313	4.68
236.53	8.69
236.747	2.85
236.964	-2.34
237.181	-3.73
237.397	-4.38
237.614	-4.08
237.831	-3.91
238.048	-5.05
238.264	-13.31
238.481	-14.99
238.698	-13.76
238.915	-17.54
239.131	-21.21
239.348	-9.03
239.565	-6.1
239.781	4.81
239.998	7.92
240.215	12.17
240.431	11.05
240.648	19.1
240.865	16.77
241.081	16.07
241.298	16.03
241.514	19.85
241.731	17.21
241.947	16.45
242.164	14.81
242.38	14.57
242.597	14.69
242.814	13.9
243.03	11.11
243.246	13.14
243.463	10.08
243.679	12.13
243.896	12.65
244.112	12.42
244.329	11.89
244.545	11.86
244.762	12
244.978	9.87
245.194	10.83
245.411	13.11
245.627	11.89
245.843	14.26
246.06	12.93
246.276	11.43
246.492	11.85
246.709	11.65
246.925	10.3
247.141	11.56
247.357	11.83
247.574	10.66
247.79	9.84
248.006	9.83
248.222	10.61
248.439	10.48
248.655	11.14
248.871	10.97
249.087	11.47
249.303	11.61
249.519	9.83
249.736	8.53
249.952	9.33
250.168	9.47
250.384	8.12
250.6	6.3
250.816	6.86
251.032	5.65
251.248	2.54
251.464	4.66
251.68	4.31
251.896	0.93
252.112	2.36
252.328	3.48
252.544	5.86
252.76	2.89
252.976	2.04
253.192	-1.02
253.408	-0.57
253.624	2.06
253.84	-1.89
254.056	-3.87
254.272	-1.65
254.487	-3.97
254.703	-9.56
254.919	-13.96
255.135	-4.89
255.351	-8.43
255.567	-5.91
255.782	-12.81
255.998	-15.49
256.214	-11.44
256.43	-7.39
256.646	-6.21
256.861	-3.93
257.077	0.05
257.293	-0.82
257.508	-4.76
257.724	-5.1
257.94	-3.57
258.155	1.34
258.371	3.39
258.587	4.14
258.802	6.25
259.018	5.65
259.234	6.18
259.449	6.37
259.665	6.87
259.88	8.12
260.096	8.73
260.312	9.27
260.527	8.98
260.743	8.39
260.958	8.29
261.174	7.54
261.389	7.3
261.605	6.95
261.82	5.43
262.036	5
262.251	3.92
262.466	4.36
262.682	2.89
262.897	-0.62
263.113	1.92
263.328	3.06
263.543	2.16
263.759	2.04
263.974	1.22
264.189	2.2
264.405	2.55
264.62	3.35
264.835	2.92
265.051	3.26
265.266	5.46
265.481	4.11
265.696	2.59
265.912	1.64
266.127	3.53
266.342	5.67
266.557	7.36
266.773	8.87
266.988	7.36
267.203	7.92
267.418	7.73
267.633	7.27
267.848	5.46
268.064	5.95
268.279	6.42
268.494	4.41
268.709	4.26
268.924	4.14
269.139	4.13
269.354	5.59
269.569	4.84
269.784	4.97
269.999	5.48
270.214	6.25
270.429	6.12
270.644	6.81
270.859	7.51
271.074	8.6
271.289	8.01
271.504	7.7
271.719	7.01
271.934	6.88
272.149	7.08
272.363	7.54
272.578	6.42
272.793	5.15
273.008	4.31
273.223	5.11
273.438	4.79
273.653	4.93
273.867	4.13
274.082	5.21
274.297	5.94
274.512	8.31
274.726	8.18
274.941	9.2
275.156	10.85
275.371	9.75
275.585	9.55
275.8	8.39
276.015	8.15
276.229	7.41
276.444	4.32
276.659	3.93
276.873	3.19
277.088	4.75
277.302	5.75
277.517	6.14
277.732	7.61
277.946	5.48
278.161	4
278.375	4.79
278.59	5.32
278.804	7.2
279.019	8.93
279.233	7.72
279.448	4.79
279.662	4.41
279.877	4.05
280.091	4.16
280.306	6.09
280.52	7.35
280.735	6.29
280.949	7.15
281.163	7.51
281.378	5.71
281.592	3.94
281.806	5.86
282.021	5.03
282.235	4.85
282.449	3.53
282.664	2.62
282.878	4.27
283.092	5.32
283.307	5.05
283.521	5.51
283.735	4.44
283.949	5.82
284.164	5.29
284.378	5.47
284.592	5.39
284.806	6.31
285.02	7.63
285.234	5.33
285.449	5.2
285.663	4.17
285.877	3.63
286.091	5.58
286.305	5.83
286.519	4.97
286.733	6.04
286.947	7.08
287.161	7.98
287.375	7.27
287.589	7.33
287.803	7.23
288.017	7.79
288.231	8.59
288.445	8.58
288.659	9.62
288.873	11.63
289.087	11.49
289.301	10.81
289.515	11.27
289.729	12.48
289.943	14.21
290.157	13.31
290.371	13.63
290.584	12.99
290.798	13
291.012	11.02
291.226	10.14
291.44	11.63
291.654	9.83
291.867	9.47
292.081	7.78
292.295	6.6
292.509	9.03
292.722	9.41
292.936	9.84
293.15	9.96
293.364	10.3
293.577	11.44
293.791	9.37
294.005	9.79
294.218	6.43
294.432	8.78
294.645	9.44
294.859	8.11
295.073	8.62
295.286	8.66
295.5	7.73
295.713	9.57
295.927	8.19
296.14	8.78
296.354	8.7
296.568	11.47
296.781	10.58
296.994	10.65
297.208	11.51
297.421	11.73
297.635	11.16
297.848	11.42
298.062	10.5
298.275	10.71
298.489	10.76
298.702	12.36
298.915	10.82
299.129	11.17
299.342	9.22
299.555	7.72
299.769	6.11
299.982	6.94
300.195	7.63
300.409	7.43
300.622	6.48
300.835	5.05
301.048	3.32
301.262	4.1
301.475	4.9
301.688	7.62
301.901	8.53
302.115	11.21
302.328	10.08
302.541	11.23
302.754	10.9
302.967	12.21
303.18	14.28
303.393	13.46
303.607	12.99
303.82	13.25
304.033	11.93
304.246	11.62
304.459	9.09
304.672	10.05
304.885	7.17
305.098	8.19
305.311	8.63
305.524	7.53
305.737	8.5
305.95	9.66
306.163	7.64
306.376	7.84
306.589	7.53
306.802	7.38
307.015	5.33
307.228	6.89
307.44	5.47
307.653	2.4
307.866	0.38
308.079	-0.31
308.292	0.28
308.505	2.19
308.718	3.21
308.93	3.32
309.143	4.72
309.356	5.74
309.569	5.58
309.781	5.78
309.994	7.14
310.207	7.4
310.42	8.44
310.632	8.43
310.845	8.42
311.058	8.71
311.27	9.5
311.483	8.3
311.696	8.47
311.908	9.17
312.121	10.05
312.333	10.27
312.546	11.08
312.759	12.04
312.971	10.2
313.184	8.06
313.396	7.54
313.609	6.63
313.821	8.42
314.034	7.91
314.246	7.71
314.459	7.3
314.671	8.75
314.884	8.06
315.096	5.75
315.309	7.04
315.521	10.15
315.733	9.77
315.946	9.2
316.158	8.51
316.371	10.52
316.583	8.47
316.795	7.24
317.008	7.25
317.22	7.7
317.432	6.9
317.644	6.27
317.857	6.03
318.069	5.97
318.281	5.49
318.494	2.41
318.706	0.97
318.918	1.32
319.13	3.62
319.342	1.32
319.555	3.2
319.767	2.28
319.979	1.36
320.191	2.17
320.403	3.15
320.615	3.04
320.827	6.77
321.039	7.15
321.252	6.53
321.464	4.34
321.676	5.76
321.888	2.13
322.1	3.64
322.312	4.34
322.524	3.57
322.736	-0.17
322.948	1.02
323.16	-0.48
323.372	1.98
323.584	2.64
323.796	4.33
324.007	4.5
324.219	6.29
324.431	6.69
324.643	6.06
324.855	4.86
325.067	6.63
325.279	6.41
325.491	7.61
325.702	5.4
325.914	7.54
326.126	6.84
326.338	7.28
326.55	7.98
326.761	7.3
326.973	8.74
327.185	7.52
327.396	7.82
327.608	7.26
327.82	7.14
328.032	6.75
328.243	5.23
328.455	2.82
328.666	2.97
328.878	3.33
329.09	4.28
329.301	4.87
329.513	5.87
329.725	5.86
329.936	4.85
330.148	4.49
330.359	4.94
330.571	3.89
330.782	5.46
330.994	4.07
331.205	2.71
331.417	2.97
331.628	0.24
331.84	0.26
332.051	2.42
332.262	3.83
332.474	2.65
332.685	2.8
332.897	2.5
333.108	4.5
333.319	3.89
333.531	4.32
333.742	3.24
333.953	5.67
334.165	7.24
334.376	5.98
334.587	6.85
334.799	8.02
335.01	8.81
335.221	8.83
335.432	8.65
335.644	8.99
335.855	8.61
336.066	10.86
336.277	10.38
336.488	9.85
336.7	10.05
336.911	9.4
337.122	9.72
337.333	9.4
337.544	10.15
337.755	10.6
337.966	10.79
338.177	11.39
338.388	10.12
338.599	10.81
338.811	11.59
339.022	9.94
339.233	11.81
339.444	11.84
339.655	13.15
339.866	12.02
340.076	10.77
340.287	9.96
340.498	10.79
340.709	10.64
340.92	10.97
341.131	11.39
341.342	12.46
341.553	12.35
341.764	13.04
341.975	12.52
342.185	13.22
342.396	14.33
342.607	15.57
342.818	14.71
343.029	16.14
343.239	16.32
343.45	16.12
343.661	16.55
343.872	15.4
344.082	14.23
344.293	12.51
344.504	13.23
344.714	12.92
344.925	12.49
345.136	12.3
345.346	10.38
345.557	9
345.768	8.13
345.978	7.73
346.189	8.01
346.399	7.72
346.61	8.75
346.821	7.79
347.031	7.42
347.242	8.14
347.452	8.3
347.663	9.6
347.873	10.58
348.084	11.35
348.294	11.8
348.504	11.74
348.715	12.7
348.925	12.35
349.136	14.21
349.346	13.87
349.557	13.81
349.767	13.46
349.977	12.88
350.188	13
350.398	12.34
350.608	12
350.819	13.34
351.029	11.42
351.239	11.3
351.449	9.1
351.66	9.75
351.87	8.05
352.08	7.9
352.29	8.29
352.501	7.45
352.711	7.59
352.921	8.44
353.131	7.6
353.341	9.53
353.552	8.81
353.762	9.71
353.972	7.59
354.182	7.83
354.392	7.7
354.602	7.02
354.812	6.8
355.022	5.91
355.232	6.14
355.442	5.61
355.652	5.4
355.862	6.12
356.072	6.61
356.282	7.15
356.492	8.47
356.702	8.31
356.912	8.5
357.122	9.89
357.332	9.43
357.542	7.73
357.752	6.23
357.962	6.29
358.171	5.56
358.381	6.02
358.591	6.72
358.801	6.13
359.011	7.41
359.221	8.29
359.43	7.48
359.64	7.93
359.85	9.2
360.06	11.07
360.269	11.26
360.479	11.63
360.689	10.76
360.899	10.57
361.108	10.36
361.318	9.66
361.528	8.56
361.737	7.8
361.947	8.71
362.156	8.07
362.366	7.45
362.576	7.62
362.785	8.39
362.995	8.27
363.204	7.47
363.414	8.56
363.623	9.24
363.833	10.25
364.042	10.77
364.252	9.84
364.461	9.85
364.671	9.36
364.88	8.78
365.09	8.47
365.299	9.29
365.509	9.76
365.718	7.41
365.927	6.21
366.137	5.25
366.346	5.86
366.555	4.92
366.765	5.52
366.974	5.47
367.183	4.91
367.393	3.89
367.602	2.96
367.811	4
368.021	5.48
368.23	5.38
368.439	5.67
368.648	5.86
368.857	6.72
369.067	6.09
369.276	6.03
369.485	5.27
369.694	5
369.903	5.42
370.112	4.79
370.321	4.5
370.531	4.53
370.74	5.04
370.949	4
371.158	3.93
371.367	4.58
371.576	4.87
371.785	6.28
371.994	6.69
372.203	6.67
372.412	6.84
372.621	7.57
372.83	7.83
373.039	7.34
373.248	7.91
373.457	8.04
373.666	8.28
373.874	8.27
374.083	8.24
374.292	8.25
374.501	7.93
374.71	7.88
374.919	7.37
375.128	7.77
375.336	7.16
375.545	6.8
375.754	6.58
375.963	6.69
376.171	6.55
376.38	6.21
376.589	6.21
376.798	7.07
377.006	7.17
377.215	7.16
377.424	6.89
377.632	7.52
377.841	7.86
378.05	8.42
378.258	8.19
378.467	8.2
378.675	8.11
378.884	8.74
379.093	8.07
379.301	8.83
379.51	7.8
379.718	7.49
379.927	6.82
380.135	6.84
380.344	6.02
380.552	5.5
380.761	5.14
380.969	5.07
381.177	4.73
381.386	4.87
381.594	3.69
381.803	4.72
382.011	4.92
382.219	4.76
382.428	5.18
382.636	5.51
382.845	5.68
383.053	6.68
383.261	6.65
383.469	6.48
383.678	6.06
383.886	6.18
384.094	6.09
384.302	5.93
384.511	6.85
384.719	6.8
384.927	6.95
385.135	7.3
385.343	6.68
385.552	7.41
385.76	7.9
385.968	8
386.176	7.74
386.384	7.44
386.592	7.67
386.8	7.29
387.008	6.66
387.216	6.76
387.424	6.18
387.633	6.28
387.841	5.56
388.049	5.2
388.257	5.77
388.465	5.71
388.672	5.78
388.88	6.22
389.088	6.21
389.296	6.33
389.504	6.53
389.712	6.39
389.92	6.7
390.128	6.58
390.336	6.84
390.544	5.81
390.751	6.01
390.959	6.11
391.167	5.79
391.375	5.91
391.583	5.8
391.79	5.37
391.998	5.77
392.206	5.6
392.414	5.62
392.621	5.18
392.829	5.38
393.037	5.23
393.244	4.99
393.452	4.98
393.66	4.35
393.867	4.32
394.075	4.37
394.283	4.46
394.49	4.36
394.698	4.46
394.905	4.74
395.113	4.61
395.32	4.43
395.528	4.7
395.735	4.39
395.943	4.76
396.15	5.05
396.358	4.98
396.565	4.49
396.773	4.34
396.98	4.05
397.188	3.85
397.395	4.17
397.602	4.55
397.81	4.1
398.017	4.34
398.225	4.36
398.432	3.78
398.639	3.8
398.847	3.86
399.054	4.2
399.261	4.25
399.468	4.11
399.676	4.27
399.883	4.45
400.09	4.98
400.297	4.94
400.505	4.44
400.712	4.51
400.919	4.82
401.126	4.79
401.333	5
401.54	5.13
401.748	4.95
401.955	4.67
402.162	4.48
402.369	4.52
402.576	4.22
402.783	4.48
402.99	4.88
403.197	4.67
403.404	5.04
403.611	4.29
403.818	4.46
404.025	4.44
404.232	4.7
404.439	4.58
404.646	4.11
404.853	4.16
405.06	4.6
405.267	4.47
405.474	4.27
405.681	3.85
405.887	4.33
406.094	4.11
406.301	4.01
406.508	3.95
406.715	4
406.922	3.88
407.128	3.78
407.335	3.41
407.542	3.12
407.749	2.89
407.955	3.21
408.162	3.15
408.369	2.86
408.575	3.12
408.782	2.57
408.989	2.66
409.195	3.32
409.402	3.76
409.609	3.56
409.815	3.9
410.022	4.02
410.228	4.05
410.435	3.79
410.642	3.76
410.848	3.59
411.055	4.28
411.261	4.46
411.468	4.26
411.674	4.08
411.881	4.14
412.087	3.96
412.294	4.35
412.5	4.46
412.706	4.45
412.913	4.6
413.119	4.64
413.326	4.09
413.532	3.54
413.738	3.51
413.945	3.55
414.151	3.51
414.357	3.28
414.564	3.17
414.77	2.62
414.976	2.48
415.182	2.94
415.389	3.06
415.595	3.35
415.801	3.24
416.007	3.22
416.214	3.16
416.42	3.54
416.626	3.81
416.832	3.73
417.038	4.07
417.244	4.24
417.45	3.89
417.657	3.68
417.863	3.71
418.069	4.1
418.275	4.15
418.481	4.08
418.687	3.9
418.893	4.1
419.099	4.1
419.305	4.03
419.511	3.84
419.717	3.79
419.923	3.82
420.129	3.79
420.335	3.65
420.541	3.7
420.746	3.79
420.952	3.79
421.158	3.68
421.364	3.63
421.57	3.54
421.776	3.59
421.982	3.66
422.187	3.79
422.393	3.69
422.599	3.79
422.805	3.65
423.01	3.57
423.216	3.7
423.422	3.59
423.628	3.68
423.833	3.7
424.039	3.84
424.245	3.88
424.45	3.79
424.656	3.79
424.862	3.77
425.067	3.77
425.273	3.76
425.478	3.67
425.684	3.69
425.889	3.63
426.095	3.67
426.301	3.55
426.506	3.6
426.712	3.53
426.917	3.46
427.123	3.37
427.328	3.34
427.533	3.51
427.739	3.39
427.944	3.33
428.15	3.39
428.355	3.37
428.561	3.51
428.766	3.52
428.971	3.46
429.177	3.77
429.382	3.73
429.587	3.87
429.793	3.33
429.998	3.16
430.203	3.23
430.408	3.11
430.614	2.91
430.819	2.85
431.024	2.73
431.229	3.17
431.434	2.83
431.64	2.85
431.845	2.92
432.05	3.05
432.255	3.27
432.46	3.24
432.665	3.36
432.87	3.48
433.076	3.35
433.281	3.22
433.486	3.13
433.691	3.37
433.896	3.34
434.101	3.31
434.306	3.5
434.511	3.37
434.716	3.28
434.921	3.2
435.126	3.3
435.331	3.49
435.535	3.55
435.74	3.5
435.945	3.35
436.15	3.29
436.355	3.2
436.56	3.24
436.765	3.31
436.97	3.59
437.174	3.53
437.379	3.61
437.584	3.51
437.789	3.63
437.993	3.44
438.198	3.54
438.403	3.77
438.608	3.76
438.812	3.67
439.017	3.78
439.222	3.85
439.426	4.04
439.631	3.84
439.836	3.79
440.04	3.73
440.245	3.87
440.45	3.9
440.654	3.7
440.859	3.63
441.063	3.78
441.268	3.65
441.472	3.43
441.677	3.22
441.881	3.38
442.086	3.52
442.29	3.62
442.495	3.59
442.699	3.39
442.904	3.74
443.108	3.76
443.312	3.68
443.517	3.77
443.721	3.93
443.925	3.92
444.13	3.87
444.334	3.71
444.538	3.64
444.743	3.6
444.947	3.72
445.151	3.67
445.356	3.73
445.56	3.72
445.764	3.73
445.968	3.48
446.173	3.62
446.377	3.62
446.581	3.7
446.785	3.7
446.989	3.72
447.193	3.64
447.398	3.53
447.602	3.36
447.806	3.28
448.01	3.19
448.214	3.37
448.418	3.34
448.622	3.25
448.826	3.22
449.03	3.04
449.234	3.02
449.438	3.13
449.642	3.1
449.846	3.32
450.05	3.28
450.254	3.4
450.458	3.52
450.662	3.27
450.866	3.3
451.069	3.16
451.273	3.32
451.477	3.16
451.681	3.12
451.885	2.97
452.089	2.96
452.292	3.22
452.496	3.38
452.7	3.23
452.904	3.42
453.107	3.28
453.311	3.41
453.515	3.49
453.719	3.65
453.922	3.68
454.126	3.66
454.33	3.51
454.533	3.24
454.737	2.88
454.94	2.91
455.144	3.02
455.348	3.2
455.551	3.21
455.755	3.12
455.958	3.01
456.162	2.9
456.365	2.95
456.569	2.88
456.772	2.94
456.976	3.22
457.179	3.2
457.383	3.18
457.586	3
457.79	2.97
457.993	2.96
458.196	2.99
458.4	3.14
458.603	3.26
458.807	3.33
459.01	3.25
459.213	3.11
459.417	3.1
459.62	2.93
459.823	3.07
460.026	3.07
460.23	3.05
460.433	3.05
460.636	3.02
460.839	2.98
461.042	2.94
461.246	3.12
461.449	3.24
461.652	3.09
461.855	3.19
462.058	3.11
462.261	3.05
462.464	3.12
462.668	3.04
462.871	2.92
463.074	2.9
463.277	3.05
463.48	2.83
463.683	2.64
463.886	2.84
464.089	2.83
464.292	3.09
464.495	3.17
464.698	3.18
464.901	3.13
465.104	3.11
465.306	2.92
465.509	2.93
465.712	2.89
465.915	2.99
466.118	2.96
466.321	3.14
466.524	2.99
466.726	2.98
466.929	2.94
467.132	3.07
467.335	2.96
467.538	3.11
467.74	2.94
467.943	2.92
468.146	2.89
468.348	2.81
468.551	2.66
468.754	2.69
468.956	2.72
469.159	2.72
469.362	2.85
469.564	3
469.767	2.93
469.969	2.93
470.172	2.94
470.375	3.03
470.577	3.01
470.78	3.16
470.982	3.16
471.185	3.07
471.387	2.92
471.59	2.72
471.792	2.83
471.995	3.29
472.197	3.32
472.399	3.53
472.602	3.46
472.804	3.44
473.007	3.27
473.209	3.18
473.411	3.41
473.614	3.63
473.816	3.57
474.018	3.39
474.22	2.99
474.423	3.05
474.625	2.8
474.827	2.81
475.03	2.96
475.232	2.94
475.434	3.02
475.636	2.82
475.838	2.93
476.04	3.14
476.243	3.25
476.445	3.37
476.647	3.29
476.849	3.56
477.051	3.42
477.253	3.61
477.455	3.61
477.657	3.55
477.859	3.57
478.061	3.36
478.263	3.36
478.465	3.46
478.667	3.25
478.869	3.36
479.071	3.16
479.273	3.26
479.475	3.24
479.677	3.28
479.879	3.28
480.081	3.12
480.283	3.32
480.485	3.24
480.686	3.07
480.888	3.18
481.09	3.11
481.292	3.14
481.494	3.16
481.695	3.17
481.897	3.24
482.099	3.11
482.301	3.28
482.502	3.26
482.704	3.25
482.906	3.25
483.107	3.32
483.309	3.43
483.511	3.45
483.712	3.5
483.914	3.41
484.115	3.36
484.317	3.45
484.519	3.42
484.72	3.42
484.922	3.5
485.123	3.56
485.325	3.51
485.526	3.38
485.728	3.35
485.929	3.35
486.131	3.39
486.332	3.36
486.534	3.32
486.735	3.32
486.936	3.32
487.138	3.28
487.339	3.23
487.541	3.25
487.742	3.28
487.943	3.24
488.144	3.24
488.346	3.18
488.547	3.25
488.748	3.3
488.95	3.31
489.151	3.3
489.352	3.2
489.553	3.19
489.755	3.25
489.956	3.26
490.157	3.32
490.358	3.2
490.559	3.3
490.76	3.38
490.961	3.24
491.163	3.26
491.364	3.2
491.565	3.22
491.766	3.34
491.967	3.22
492.168	3.24
492.369	3.28
492.57	3.32
492.771	3.32
492.972	3.16
493.173	3.27
493.374	3.24
493.575	3.29
493.776	3.37
493.976	3.22
494.177	3.28
494.378	3.26
494.579	3.21
494.78	3.19
494.981	3.21
495.182	3.32
495.382	3.36
495.583	3.46
495.784	3.53
495.985	3.6
496.185	3.57
496.386	3.61
496.587	3.65
496.788	3.66
496.988	3.68
497.189	3.6
497.39	3.44
497.59	3.34
497.791	3.2
497.992	3.03
498.192	3.08
498.393	3.13
498.593	3.04
498.794	3.04
498.994	3.04
499.195	3.03
499.395	2.9
499.596	2.96
499.796	2.98
499.997	3.11
500.197	3.24
500.398	2.88
500.598	2.97
500.799	3.11
500.999	3.05
501.199	3.16
501.4	3.14
501.6	3.22
501.801	3.49
502.001	3.52
502.201	3.47
502.402	3.49
502.602	3.72
502.802	3.74
503.002	3.68
503.203	3.67
503.403	3.48
503.603	3.5
503.803	3.5
504.003	3.23
504.204	3.07
504.404	2.93
504.604	3.12
504.804	3
505.004	2.78
505.204	2.72
505.404	2.8
505.604	2.89
505.804	2.9
506.005	2.91
506.205	3.05
506.405	3.34
506.605	3.48
506.805	3.25
507.005	3.26
507.204	3.49
507.404	3.61
507.604	3.49
507.804	3.62
508.004	3.43
508.204	3.58
508.404	3.64
508.604	3.55
508.804	3.51
509.003	3.5
509.203	3.4
509.403	3.42
509.603	3.36
509.803	3.47
510.002	3.46
510.202	3.62
510.402	3.4
510.602	3.21
510.801	3.24
511.001	3.3
511.201	3.28
511.4	3.56
511.6	3.46
511.8	3.52
511.999	3.65
512.199	3.56
512.398	3.55
512.598	3.7
512.797	3.82
512.997	3.74
513.197	3.73
513.396	3.79
513.596	3.85
513.795	3.73
513.994	3.8
514.194	3.66
514.393	3.54
514.593	3.63
514.792	3.65
514.992	3.59
515.191	3.61
515.39	3.51
515.59	3.56
515.789	3.35
515.988	3.53
516.188	3.58
516.387	3.82
516.586	3.96
516.786	3.85
516.985	3.8
517.184	3.83
517.383	3.81
517.582	3.98
517.782	3.95
517.981	3.97
518.18	3.96
518.379	3.84
518.578	3.6
518.777	3.71
518.976	3.75
519.176	3.76
519.375	3.79
519.574	3.84
519.773	3.65
519.972	3.58
520.171	3.68
520.37	3.64
520.569	3.62
520.768	3.74
520.967	3.53
521.166	3.46
521.365	3.4
521.564	3.5
521.762	3.4
521.961	3.53
522.16	3.55
522.359	3.3
522.558	3.22
522.757	3.16
522.956	3.11
523.154	3.18
523.353	3.35
523.552	3.18
523.751	3.14
523.949	3.17
524.148	3.24
524.347	3.23
524.546	3.34
524.744	3.28
524.943	3.32
525.142	3.33
525.34	3.54
525.539	3.55
525.737	3.88
525.936	3.89
526.135	4.04
526.333	3.98
526.532	4.09
526.73	4.21
526.929	4.38
527.127	4.33
527.326	4.34
527.524	4.22
527.723	4.2
527.921	4.2
528.12	4.19
528.318	4.19
528.516	4.17
528.715	4.2
528.913	4.14
529.112	4.09
529.31	4.15
529.508	4.2
529.707	4.21
529.905	4.15
530.103	4.12
530.301	4.05
530.5	3.97
530.698	4.06
530.896	4.06
531.094	3.99
531.293	4.03
531.491	4.1
531.689	3.98
531.887	4.12
532.085	4.23
532.283	4.26
532.481	4.34
532.68	4.41
532.878	4.43
533.076	4.41
533.274	4.56
533.472	4.73
533.67	4.7
533.868	4.8
534.066	4.73
534.264	4.79
534.462	4.7
534.66	4.7
534.858	4.8
535.056	4.79
535.253	4.76
535.451	4.65
535.649	4.43
535.847	4.48
536.045	4.37
536.243	4.3
536.441	4.24
536.638	4.31
536.836	4.36
537.034	4.25
537.232	4.24
537.43	4.26
537.627	4.3
537.825	4.32
538.023	4.22
538.22	4.26
538.418	4.3
538.616	4.34
538.813	4.28
539.011	4.47
539.209	4.53
539.406	4.47
539.604	4.62
539.801	4.73
539.999	4.9
540.196	4.88
540.394	5.01
540.591	5.05
540.789	5.11
540.986	5.24
541.184	5.14
541.381	5.16
541.579	5.23
541.776	5.18
541.974	5.18
542.171	5.23
542.368	5.36
542.566	5.36
542.763	5.37
542.96	5.45
543.158	5.39
543.355	5.33
543.552	5.24
543.75	5.22
543.947	5.21
544.144	5.13
544.341	5.05
544.539	4.95
544.736	4.86
544.933	4.88
545.13	4.75
545.327	4.81
545.524	4.97
545.722	5.13
545.919	5.35
546.116	5.44
546.313	5.62
546.51	5.59
546.707	5.69
546.904	5.84
547.101	5.96
547.298	6.13
547.495	6.26
547.692	6.2
547.889	6.2
548.086	6.22
548.283	6.2
548.48	6.09
548.677	6.11
548.874	6.17
549.07	6.11
549.267	6
549.464	5.9
549.661	5.79
549.858	5.98
550.055	6.08
550.251	5.87
550.448	5.83
550.645	6.09
550.842	6.26
551.038	6.29
551.235	6.41
551.432	6.6
551.628	6.47
551.825	6.37
552.022	6.29
552.218	6.31
552.415	6.51
552.612	6.59
552.808	6.66
553.005	6.75
553.201	6.87
553.398	6.74
553.594	6.56
553.791	6.91
553.987	7.18
554.184	7.25
554.38	7.3
554.577	7.33
554.773	7.65
554.97	7.51
555.166	7.29
555.362	7.05
555.559	7.32
555.755	7.39
555.952	7.09
556.148	7.08
556.344	7.2
556.541	7.21
556.737	7.18
556.933	7.11
557.129	7.29
557.326	7.41
557.522	7.54
557.718	7.64
557.914	7.67
558.11	7.9
558.307	7.86
558.503	7.77
558.699	7.62
558.895	7.63
559.091	7.6
559.287	7.47
559.483	7.57
559.679	7.78
559.876	7.7
560.072	7.95
560.268	8.05
560.464	8.14
560.66	8.32
560.856	8.53
561.052	8.43
561.247	8.32
561.443	8.5
561.639	8.7
561.835	8.72
562.031	8.96
562.227	9.06
562.423	8.99
562.619	9.05
562.815	9.08
563.01	9.09
563.206	9.37
563.402	9.71
563.598	9.78
563.793	9.79
563.989	10.03
564.185	9.93
564.381	9.82
564.576	9.83
564.772	9.9
564.968	9.96
565.163	10.3
565.359	10.21
565.555	10.19
565.75	10.3
565.946	10.37
566.141	10.39
566.337	10.48
566.532	10.54
566.728	10.62
566.923	10.61
567.119	10.66
567.314	10.68
567.51	10.93
567.705	11.02
567.901	11.08
568.096	10.96
568.292	10.82
568.487	10.95
568.682	10.88
568.878	11.11
569.073	11.16
569.268	11.31
569.464	11.34
569.659	11.17
569.854	11.31
570.05	11.38
570.245	11.78
570.44	12.06
570.635	12.02
570.831	12.33
571.026	12.51
571.221	12.88
571.416	12.97
571.611	12.83
571.806	12.89
572.002	12.85
572.197	12.97
572.392	12.67
572.587	12.62
572.782	12.68
572.977	12.7
573.172	12.6
573.367	12.42
573.562	12.25
573.757	12.4
573.952	12.75
574.147	12.77
574.342	12.8
574.537	13.2
574.732	13.41
574.927	13.53
575.121	13.51
575.316	13.68
575.511	13.7
575.706	13.88
575.901	14.18
576.096	14.14
576.29	14.07
576.485	14.08
576.68	14.09
576.875	14.06
577.069	14.02
577.264	14.1
577.459	14.17
577.654	14.19
577.848	14.38
578.043	13.99
578.238	13.85
578.432	14.01
578.627	14.04
578.821	13.9
579.016	13.87
579.21	13.97
579.405	14.09
579.6	13.91
579.794	13.81
579.989	13.78
580.183	13.97
580.378	14.22
580.572	14.13
580.766	14.07
580.961	14.24
581.155	13.8
581.35	13.93
581.544	14.09
581.738	14.06
581.933	14.43
582.127	14.17
582.321	14.22
582.516	14.11
582.71	14.3
582.904	14.44
583.099	14.35
583.293	14.97
583.487	14.69
583.681	14.57
583.875	14.67
584.07	14.51
584.264	14.46
584.458	14.38
584.652	14.27
584.846	14.11
585.04	14.03
585.234	14.02
585.428	14.02
585.623	14.23
585.817	14.35
586.011	14.2
586.205	14.12
586.399	14.13
586.593	14.09
586.787	14.27
586.981	14.46
587.174	14.49
587.368	14.52
587.562	14.37
587.756	14.45
587.95	14.25
588.144	14.42
588.338	14.48
588.532	14.46
588.725	14.55
588.919	14.58
589.113	14.57
589.307	14.36
589.501	14.69
589.694	14.86
589.888	14.63
590.082	14.84
590.275	14.94
590.469	15.14
590.663	15.42
590.856	15.3
591.05	15.35
591.244	15.42
591.437	15.5
591.631	15.23
591.824	15.25
592.018	15.38
592.212	15.47
592.405	15.39
592.599	15.52
592.792	15.46
592.986	15.92
593.179	15.66
593.372	15.53
593.566	16.02
593.759	15.95
593.953	15.79
594.146	15.91
594.339	15.81
594.533	15.62
594.726	15.54
594.92	15.36
595.113	15.34
595.306	15.36
595.499	15.54
595.693	15.51
595.886	15.76
596.079	15.76
596.272	15.78
596.466	15.93
596.659	15.86
596.852	15.82
597.045	15.84
597.238	15.51
597.431	15.7
597.624	15.82
597.818	15.68
598.011	15.59
598.204	15.88
598.397	15.92
598.59	15.49
598.783	15.95
598.976	15.82
599.169	15.94
599.362	16.19
599.555	16.16
599.748	15.81
599.941	16.03
600.134	15.99
600.326	15.42
600.519	15.16
600.712	15.19
600.905	14.92
601.098	15.02
601.291	15.35
601.483	15.45
601.676	15.36
601.869	15.89
602.062	15.67
602.255	15.74
602.447	15.92
602.64	15.93
602.833	16.38
603.025	16.53
603.218	16.56
603.411	16.49
603.603	16.43
603.796	16.46
603.989	16.4
604.181	16.49
604.374	16.46
604.566	16.51
604.759	16.7
604.951	16.71
605.144	16.59
605.336	16.65
605.529	16.68
605.721	16.73
605.914	16.66
606.106	16.47
606.299	16.38
606.491	16.19
606.683	16.15
606.876	15.9
607.068	15.32
607.26	15.23
607.453	15.21
607.645	15.19
607.837	15.32
608.03	15.5
608.222	15.58
608.414	15.91
608.606	16.36
608.799	16.48
608.991	16.7
609.183	17.19
609.375	17.55
609.567	17.38
609.759	17.33
609.952	17.13
610.144	17.18
610.336	17.14
610.528	16.96
610.72	16.81
610.912	16.73
611.104	16.65
611.296	16.42
611.488	16.17
611.68	16.44
611.872	16.28
612.064	16.44
612.256	16.32
612.448	16.53
612.64	16.52
612.832	16.44
613.023	16.47
613.215	16.26
613.407	16.21
613.599	16.09
613.791	15.86
613.983	16.03
614.174	16.04
614.366	16.3
614.558	16.03
614.75	15.68
614.941	15.84
615.133	15.96
615.325	15.66
615.516	15.83
615.708	15.88
615.9	15.71
616.091	15.95
616.283	16.07
616.475	15.91
616.666	16.06
616.858	16.36
617.049	16.17
617.241	15.89
617.432	16.48
617.624	16.72
617.815	16.71
618.007	16.96
618.198	16.82
618.39	16.67
618.581	16.5
618.773	16.24
618.964	16.56
619.155	16.81
619.347	16.99
619.538	17.04
619.729	17.03
619.921	16.97
620.112	16.86
620.303	16.92
620.494	16.99
620.686	17.22
620.877	17.49
621.068	16.74
621.259	16.65
621.451	16.97
621.642	17.09
621.833	16.87
622.024	16.83
622.215	16.47
622.406	16.25
622.597	16.28
622.788	15.75
622.98	15.81
623.171	16.04
623.362	15.77
623.553	15.28
623.744	15.02
623.935	15.06
624.126	15.52
624.317	16.07
624.508	16.03
624.698	15.85
624.889	16.12
625.08	16.15
625.271	15.97
625.462	16.17
625.653	16.39
625.844	16.42
626.034	16.45
626.225	16.17
626.416	16.25
626.607	16.49
626.798	16.31
626.988	16.45
627.179	16.34
627.37	16.69
627.56	16.6
627.751	16.57
627.942	16.99
628.132	17.16
628.323	17.13
628.514	17.08
628.704	16.89
628.895	16.93
629.085	16.97
629.276	17.15
629.466	17.04
629.657	17.22
629.847	17.26
630.038	16.98
630.228	16.56
630.419	16.75
630.609	16.68
630.8	16.88
630.99	17.23
631.181	16.92
631.371	16.86
631.561	16.55
631.752	16.31
631.942	16.51
632.132	16.3
632.323	16.52
632.513	16.51
632.703	16.3
632.893	15.97
633.084	15.75
633.274	15.94
633.464	15.61
633.654	16.18
633.844	16.5
634.034	16.36
634.225	16.48
634.415	16.14
634.605	15.8
634.795	15.93
634.985	16.26
635.175	16.23
635.365	16.44
635.555	16.92
635.745	16.79
635.935	16.74
636.125	16.85
636.315	17
636.505	17.3
636.695	17.63
636.885	17.74
637.075	17.61
637.265	17.86
637.455	17.2
637.644	16.66
637.834	16.44
638.024	16.25
638.214	15.93
638.404	16.09
638.593	16.2
638.783	16.1
638.973	16.45
639.163	16.38
639.352	16.27
639.542	16.38
639.732	16.23
639.921	16.38
640.111	16.66
640.301	16.76
640.49	16.25
640.68	15.84
640.87	15.74
641.059	15.42
641.249	15.62
641.438	15.6
641.628	15.66
641.817	16.04
642.007	16.05
642.196	15.4
642.386	15.67
642.575	15.91
642.764	16.08
642.954	15.9
643.143	16.02
643.333	15.59
643.522	15.65
643.711	15.98
643.901	16.43
644.09	15.96
644.279	16.54
644.469	16.52
644.658	16.38
644.847	16.41
645.036	16.86
645.226	16.44
645.415	16.75
645.604	16.71
645.793	16.89
645.982	16.68
646.171	16.86
646.361	17.07
646.55	16.7
646.739	16.76
646.928	17.07
647.117	17
647.306	17.62
647.495	17.49
647.684	17.74
647.873	17.46
648.062	17.16
648.251	17.35
648.44	16.63
648.629	17
648.818	16.59
649.007	16.81
649.196	16.85
649.384	16.2
649.573	16.73
649.762	16.74
649.951	17.12
650.14	17.67
650.328	17.92
650.517	18.49
650.706	18.16
650.895	18.46
651.083	18.02
651.272	17.85
651.461	17.97
651.65	17.9
651.838	17.72
652.027	17.74
652.216	17.15
652.404	16.9
652.593	16.64
652.781	16.69
652.97	16.47
653.158	16.3
653.347	16.71
653.535	16.52
653.724	16.17
653.912	16.22
654.101	16.17
654.289	16.55
654.478	16.84
654.666	17.05
654.855	17.46
655.043	17.87
655.231	18.26
655.42	18.36
655.608	18.62
655.796	18.6
655.985	18.33
656.173	17.89
656.361	17.48
656.55	17.41
656.738	17.08
656.926	16.91
657.114	16.43
657.302	16.19
657.491	15.81
657.679	15.71
657.867	15.67
658.055	15.88
658.243	16.59
658.431	16.84
658.619	16.86
658.807	16.8
658.996	16.45
659.184	17.21
659.372	17.19
659.56	16.94
659.748	16.89
659.936	17.18
660.124	17.3
660.311	17.02
660.499	16.94
660.687	16.8
660.875	16.88
661.063	17.3
661.251	17.17
661.439	17.2
661.627	17.28
661.814	17.29
662.002	16.88
662.19	16.5
662.378	16.3
662.565	16.22
662.753	15.74
662.941	15.97
663.129	15.94
663.316	15.6
663.504	15.87
663.692	16.52
663.879	16.63
664.067	16.65
664.254	16.81
664.442	16.92
664.63	16.79
664.817	17.12
665.005	16.74
665.192	16.57
665.38	16.41
665.567	16.26
665.755	16.36
665.942	16.6
666.13	16.5
666.317	16.47
666.504	16.63
666.692	16.73
666.879	16.34
667.067	16.61
667.254	16.07
667.441	16.15
667.629	16.13
667.816	15.33
668.003	15
668.19	15.08
668.378	15.09
668.565	15.11
668.752	15.25
668.939	16.26
669.127	16.12
669.314	16.1
669.501	15.84
669.688	15.83
669.875	16
670.062	16.22
670.249	16.32
670.436	16.56
670.623	16.94
670.81	17.01
670.997	16.47
671.184	16.27
671.371	16.45
671.558	16.7
671.745	16.66
671.932	16.53
672.119	16.32
672.306	16.66
672.493	16.47
672.68	15.8
672.867	16.43
673.054	16.13
673.24	16.83
673.427	17.22
673.614	17.31
673.801	17.04
673.988	17.34
674.174	17.7
674.361	17.62
674.548	17.27
674.734	17.52
674.921	16.88
675.108	17.09
675.294	16.11
675.481	15.94
675.668	15.15
675.854	15.67
676.041	15.78
676.227	16.18
676.414	16.21
676.601	16.9
676.787	16.74
676.974	17.21
677.16	17.35
677.347	17.43
677.533	17.47
677.719	18.26
677.906	18.17
678.092	17.8
678.279	17.47
678.465	17.91
678.651	17.51
678.838	17.85
679.024	17.08
679.21	17.1
679.397	17.55
679.583	17.7
679.769	17.53
679.955	17.36
680.142	17.43
680.328	17.63
680.514	17.05
680.7	17.15
680.886	16.67
681.073	17.16
681.259	17.09
681.445	16.8
681.631	16.55
681.817	16.6
682.003	16.52
682.189	16.74
682.375	16.12
682.561	16.28
682.747	16.11
682.933	16.6
683.119	16.82
683.305	16.37
683.491	16.48
683.677	16.4
683.863	16.9
684.049	17.46
684.235	17.34
684.42	17.75
684.606	17.56
684.792	17.66
684.978	16.97
685.164	16.02
685.349	16.56
685.535	16.95
685.721	17.03
685.907	16.18
686.092	15.88
686.278	15.8
686.464	15.58
686.649	15.66
686.835	15.79
687.021	16.31
687.206	16.84
687.392	16.49
687.577	16.08
687.763	16.52
687.948	16.92
688.134	16.48
688.319	16.49
688.505	16.31
688.69	16.29
688.876	16.14
689.061	16.08
689.247	16.21
689.432	16.56
689.618	16.73
689.803	16.41
689.988	16.29
690.174	16.47
690.359	15.91
690.544	15.83
690.73	16.24
690.915	16.35
691.1	15.79
691.285	15.2
691.471	15.54
691.656	15.75
691.841	15.62
692.026	15.3
692.211	15.65
692.396	17.12
692.582	17.93
692.767	17.38
692.952	17.22
693.137	17.71
693.322	17.86
693.507	18.13
693.692	18.26
693.877	18.55
694.062	19.09
694.247	18.94
694.432	18
694.617	17.32
694.802	17.05
694.987	17.93
695.172	17.84
695.357	18.24
695.541	18.02
695.726	17.72
695.911	17.91
696.096	17.49
696.281	18.5
696.466	18.65
696.65	19.07
696.835	19.66
697.02	19.13
697.204	19.25
697.389	18.87
697.574	18.8
697.759	18.91
697.943	18.85
698.128	19.31
698.312	19.04
698.497	19.46
698.682	19.31
698.866	18.92
699.051	18.66
699.235	18.67
699.42	18.97
699.604	18.82
699.789	18.82
699.973	18.85
700.158	18.28
700.342	18.07
700.527	17.42
700.711	17.12
700.895	17.33
701.08	17.17
701.264	16.4
701.448	15.59
701.633	15.3
701.817	15.45
702.001	15.24
702.186	15.35
702.37	14.92
702.554	15.17
702.738	15.49
702.923	15.05
703.107	14.96
703.291	15.07
703.475	15.49
703.659	15.6
703.843	15.77
704.027	16
704.212	16.16
704.396	15.83
704.58	15.6
704.764	15.55
704.948	16.2
705.132	16.83
705.316	16.84
705.5	17.23
705.684	17.72
705.868	17.18
706.052	17.67
706.235	17.69
706.419	18.37
706.603	18.79
706.787	18.2
706.971	17.63
707.155	17.36
707.339	18.08
707.522	18.19
707.706	17.46
707.89	17.64
708.074	17.29
708.257	17.33
708.441	16.63
708.625	16.49
708.808	16.82
708.992	16.97
709.176	16.58
709.359	16.59
709.543	16.44
709.727	15.99
709.91	15.51
710.094	15.52
710.277	16.09
710.461	16.52
710.644	16.8
710.828	16.74
711.011	17.21
711.195	17.64
711.378	17.34
711.562	17.11
711.745	17.89
711.928	18.53
712.112	17.98
712.295	17.7
712.478	17.71
712.662	18.24
712.845	18.42
713.028	18.19
713.212	18.57
713.395	18.59
713.578	18.59
713.761	18.47
713.945	18.35
714.128	18.64
714.311	18.06
714.494	17.89
714.677	17.1
714.86	17.29
715.043	18.04
715.227	17.3
715.41	16.81
715.593	17.22
715.776	17.51
715.959	17.98
716.142	18.47
716.325	19.19
716.508	19.86
716.691	19.74
716.874	19.55
717.057	18.11
717.239	18.22
717.422	18.19
717.605	17.65
717.788	16.87
717.971	15.41
718.154	14.68
718.337	13.74
718.519	12.51
718.702	12.38
718.885	12.12
719.068	12.76
719.25	12.97
719.433	14.34
719.616	14.41
719.798	15.35
719.981	15.99
720.164	15.28
720.346	15.61
720.529	15.51
720.712	15.04
720.894	14.84
721.077	15.27
721.259	15.02
721.442	14.06
721.624	14.19
721.807	14.26
721.989	14.29
722.172	13.98
722.354	13.64
722.537	13.8
722.719	14.57
722.901	15.3
723.084	15.27
723.266	15.32
723.448	16.28
723.631	15.63
723.813	15.8
723.995	16.07
724.178	17.01
724.36	17.38
724.542	17.88
724.724	17.17
724.907	16.69
725.089	16.3
725.271	16.87
725.453	16.27
725.635	17.06
725.817	17.1
725.999	16.87
726.181	17.23
726.364	17.79
726.546	18.31
726.728	17.89
726.91	17.81
727.092	17.63
727.274	17.85
727.456	17.59
727.638	17.35
727.819	17.86
728.001	18.27
728.183	17.93
728.365	17.28
728.547	16.14
728.729	16.59
728.911	18.28
729.093	19.14
729.274	18.93
729.456	20.15
729.638	21.1
729.82	20.31
730.001	19.76
730.183	19.69
730.365	19.36
730.546	20.33
730.728	20.68
730.91	18.89
731.091	17.89
731.273	17.44
731.455	16.63
731.636	15.84
731.818	15.38
731.999	16.03
732.181	16.13
732.362	15.33
732.544	15.62
732.725	16.38
732.907	17
733.088	17.75
733.27	18.88
733.451	19.15
733.633	18.87
733.814	18.72
733.995	17.63
734.177	18
734.358	19.19
734.539	18.26
734.721	17.38
734.902	16.76
735.083	16.05
735.264	14.56
735.446	14.7
735.627	13.93
735.808	14.25
735.989	15.4
736.17	15.16
736.351	15.33
736.533	14.73
736.714	14.45
736.895	14.38
737.076	14.59
737.257	14.92
737.438	13.96
737.619	15.37
737.8	16.2
737.981	15.84
738.162	15.5
738.343	15.4
738.524	16.26
738.705	15.9
738.886	16.75
739.067	17.26
739.247	17.8
739.428	17.6
739.609	17.69
739.79	16.91
739.971	16.94
740.151	17.64
740.332	16.95
740.513	17.16
740.694	17.19
740.874	16.29
741.055	15.11
741.236	14.82
741.417	15.12
741.597	14.64
741.778	13.98
741.958	13.16
742.139	12.63
742.32	13.6
742.5	13.43
742.681	13.97
742.861	14.05
743.042	14.33
743.222	12.43
743.403	13.47
743.583	12.63
743.764	12.32
743.944	13.04
744.124	11.62
744.305	12.31
744.485	11.96
744.666	13.25
744.846	12.37
745.026	10.7
745.207	13.56
745.387	11.63
745.567	11.96
745.747	12.36
745.928	12.29
746.108	13.51
746.288	11.57
746.468	11.66
746.648	10.19
746.829	11.39
747.009	14.02
747.189	11.5
747.369	13.08
747.549	13.16
747.729	13.05
747.909	14.09
748.089	14.19
748.269	15.4
748.449	15.86
748.629	15.64
748.809	15.4
748.989	15.14
749.169	16.79
749.349	17.05
749.529	17.27
749.709	18.52
749.889	17.23
750.068	16.08
750.248	14.96
750.428	15.98
750.608	16.64
750.788	16.54
750.967	17.69
751.147	17.07
751.327	17.13
751.507	16.47
751.686	16.53
751.866	16.14
752.046	17.32
752.225	18.52
752.405	16.31
752.585	16.59
752.764	16.35
752.944	15.1
753.123	15.32
753.303	15.45
753.482	16.81
753.662	16.18
753.841	16.69
754.021	16.45
754.2	16.31
754.38	16.75
754.559	16.19
754.739	16.51
754.918	17.13
755.097	17.07
755.277	16.73
755.456	15.84
755.635	15.06
755.815	15.34
755.994	15.86
756.173	15.44
756.352	15.28
756.532	14.94
756.711	15.79
756.89	14.65
757.069	14.42
757.248	14.47
757.427	14.56
757.607	15.82
757.786	15.4
757.965	15.36
758.144	16.35
758.323	15.52
758.502	16.95
758.681	15.72
758.86	15.65
759.039	16.34
759.218	15.78
759.397	16.3
759.576	14.67
759.755	14.82
759.934	15.4
760.113	16.04
760.291	16.94
760.47	15.59
760.649	15.94
760.828	17.08
761.007	16.52
761.186	15.85
761.364	13.15
761.543	15.41
761.722	14.2
761.901	14.1
762.079	12.86
762.258	14.39
762.437	14.64
762.615	14.62
762.794	13.85
762.972	14.55
763.151	16.19
763.33	17.84
763.508	17.37
763.687	18.61
763.865	18.09
764.044	18.45
764.222	17.63
764.401	17.48
764.579	17.91
764.758	17.54
764.936	17.62
765.114	16.9
765.293	17.13
765.471	16.49
765.65	16.67
765.828	15.97
766.006	15.5
766.184	14.98
766.363	14.84
766.541	12.89
766.719	12.95
766.898	12.47
767.076	12.62
767.254	11.99
767.432	13.11
767.61	12.53
767.788	13.57
767.967	13.72
768.145	13.4
768.323	13.49
768.501	16.41
768.679	17.19
768.857	16.87
769.035	17.45
769.213	18.51
769.391	17.13
769.569	17.21
769.747	16.83
769.925	17.76
770.103	20.37
770.281	18.16
770.459	15.45
770.636	13.85
770.814	13.87
770.992	12.97
771.17	12.12
771.348	14.2
771.525	14.79
771.703	13.51
771.881	11.98
772.059	11.82
772.236	12.67
772.414	15.22
772.592	16.59
772.769	16.88
772.947	16.44
773.125	16.39
773.302	17.38
773.48	16.54
773.657	16.61
773.835	16.79
774.013	14.97
774.19	17.04
774.368	16.34
774.545	17.15
774.723	17.4
774.9	15.58
775.077	14.57
775.255	12.3
775.432	12.08
775.61	12.42
775.787	13.66
775.964	12.67
776.142	11.3
776.319	9.21
776.496	6.78
776.674	7.7
776.851	10.55
777.028	9.93
777.205	11.3
777.382	8.59
777.56	8.59
777.737	8.89
777.914	8.71
778.091	8.06
778.268	7.68
778.445	7.97
778.622	7.95
778.8	5.3
778.977	6.41
779.154	5.4
779.331	9.11
779.508	9.52
779.685	8.01
779.862	9.59
780.038	8.74
780.215	9.74
780.392	11.25
780.569	9.42
780.746	10.25
780.923	9.66
781.1	7.24
781.277	7.04
781.453	6.45
781.63	7.07
781.807	4.09
781.984	6.93
782.16	6.59
782.337	2.48
782.514	4.24
782.691	4.1
782.867	7.65
783.044	5.39
783.221	3.59
783.397	3.58
783.574	2.86
783.75	7.64
783.927	9.48
784.103	12.17
784.28	14.29
784.456	12.26
784.633	12.31
784.809	8.12
784.986	12.46
785.162	13.31
785.339	13.42
785.515	13.26
785.692	11.35
785.868	8.53
786.044	7.98
786.221	9.29
786.397	8.43
786.573	10.05
786.749	10.41
786.926	9.32
787.102	7.64
787.278	10.87
787.454	11.89
787.631	13.47
787.807	14.85
787.983	15.08
788.159	15.62
788.335	16.58
788.511	16.92
788.687	17.58
788.863	17.58
789.039	20.05
789.216	18.6
789.392	18.75
789.568	14.43
789.744	12.51
789.919	16.18
790.095	14.57
790.271	11.96
790.447	7.02
790.623	9.02
790.799	7.97
790.975	5.43
791.151	1.52
791.327	0.81
791.502	5.63
791.678	7.64
791.854	1.99
792.03	1.24
792.205	3.32
792.381	7.72
792.557	6.19
792.733	4.24
792.908	4.5
793.084	9.22
793.259	4.29
793.435	2.47
793.611	0.71
793.786	1.76
793.962	0.05
794.137	-1.21
794.313	1.46
794.488	-0.59
794.664	3.79
794.839	4.3
795.015	3.79
795.19	6.95
795.366	6.96
795.541	7.88
795.716	10.8
795.892	17.63
796.067	19.13
796.242	18.68
796.418	21.14
796.593	20.16
796.768	20.05
796.944	21.08
797.119	23
797.294	25.47
797.469	26.57
797.644	22.15
797.82	17.06
797.995	17.7
798.17	15.34
798.345	14.15
798.52	11.98
798.695	12.48
798.87	13.75
799.045	12.14
799.22	6.6
799.395	4.25
799.57	5.29
799.745	4.72
799.92	2.72
800.095	3.05
800.27	5.17
800.445	6.31
800.62	6.9
800.795	4.8
800.97	4.15
801.145	6.38
801.319	3.32
801.494	3.68
801.669	7.95
801.844	6.73
802.018	11.55
802.193	4.28
802.368	2.99
802.543	5.55
802.717	3.96
802.892	4.18
803.067	11.15
803.241	13.03
803.416	12.93
803.59	9.44
803.765	10.42
803.94	6.72
804.114	5.93
804.289	6.33
804.463	2.34
804.638	2.34
804.812	3.2
804.986	-1.65
805.161	1.92
805.335	4.93
805.51	4.8
805.684	5.38
805.858	1.98
806.033	6.43
806.207	6.48
806.381	2.58
806.556	6.46
806.73	6.68
806.904	7.54
807.078	4.97
807.253	1.42
807.427	3.71
807.601	5.14
807.775	3.03
807.949	6.94
808.123	9.59
808.298	14.62
808.472	9.98
808.646	9.04
808.82	6.06
808.994	8.54
809.168	5.98
809.342	6.82
809.516	10.23
809.69	12.93
809.864	7.23
810.038	7.32
810.212	5.94
810.385	7.93
810.559	8.05
810.733	10.08
810.907	10.43
811.081	10.11
811.255	10.62
811.428	6.12
811.602	10.67
811.776	14.82
811.95	9.6
812.123	9.01
812.297	8.14
812.471	9.46
812.644	9.25
812.818	3.77
812.992	2.64
813.165	-1.79
813.339	-2.59
813.512	-8.19
813.686	-11.71
813.86	-1.5
814.033	-0.76
814.207	-2.68
814.38	2.1
814.554	-1.01
814.727	3.78
814.9	10.68
815.074	7.27
815.247	5.74
815.421	10.8
815.594	7.21
815.767	2.38
815.941	0.55
816.114	-0.17
816.287	-2.45
816.46	-0.33
816.634	-5.66
816.807	-11.81
816.98	-9.46
817.153	-9.68
817.327	-11.63
817.5	-2.86
817.673	-6.12
817.846	-3.99
818.019	-4.49
818.192	-11.43
818.365	-16.05
818.538	-11.22
818.711	-7.61
818.884	-6.3
819.057	-2.91
819.23	0.84
819.403	-1.16
819.576	-1.61
819.749	-0.72
819.922	2.15
820.095	6.53
820.268	13.87
820.441	14.88
820.614	16.59
820.786	16.04
820.959	17.22
821.132	17.26
821.305	16.58
821.477	18.23
821.65	17.18
821.823	17.41
821.996	18.15
822.168	16.4
822.341	16.34
822.514	17.06
822.686	17.96
822.859	17.77
823.031	17.41
823.204	17.46
823.376	19.31
823.549	20.23
823.722	20.57
823.894	20.17
824.067	21.51
824.239	21.23
824.411	19.87
824.584	20.14
824.756	20.42
824.929	19.86
825.101	20.34
825.273	18.91
825.446	19.2
825.618	18.71
825.79	18.21
825.963	17.97
826.135	16.26
826.307	19.24
826.479	19.82
826.652	19.69
826.824	20.1
826.996	20.72
827.168	20.06
827.34	20.34
827.512	20.13
827.684	20.88
827.856	19.31
828.029	22.62
828.201	20.18
828.373	19.66
828.545	20.18
828.717	21.24
828.889	20.84
829.061	20.96
829.232	18.98
829.404	18.48
829.576	16.95
829.748	19.4
829.92	18.68
830.092	19.24
830.264	18.79
830.436	18.02
830.607	16.09
830.779	19.33
830.951	18.61
831.123	19.11
831.294	16.74
831.466	17.99
831.638	13.31
831.809	13.14
831.981	13.03
832.153	12.36
832.324	15.25
832.496	13.59
832.667	8.09
832.839	9.12
833.011	7.69
833.182	8.63
833.354	6.26
833.525	11.53
833.697	10.53
833.868	11.09
834.039	9.83
834.211	8.35
834.382	9.87
834.554	11.87
834.725	13.59
834.896	13.09
835.068	12.81
835.239	15.19
835.41	10.68
835.581	11.19
835.753	11.7
835.924	11.9
836.095	10.29
836.266	9.6
836.438	7.27
836.609	3.24
836.78	6.63
836.951	10.7
837.122	8.5
837.293	10.64
837.464	6.91
837.635	2.44
837.806	2.28
837.977	7.06
838.148	9.46
838.319	10.24
838.49	7.69
838.661	4.21
838.832	4.43
839.003	10.7
839.174	16.08
839.345	18.16
839.516	20.38
839.687	14.5
839.857	10.23
840.028	8.33
840.199	5.81
840.37	9.74
840.54	12.1
840.711	4.01
840.882	0.65
841.053	-6.34
841.223	-1.72
841.394	-4.99
841.564	-2.01
841.735	-7.34
841.906	-4.82
842.076	-1.02
842.247	-3.56
842.417	-11.44
842.588	-4.38
842.758	-7.77
842.929	-14.02
843.099	-8.86
843.27	-12.04
843.44	-10.24
843.611	-2.67
843.781	-21.86
843.951	-36.7
844.122	-27.64
844.292	-26.4
844.462	-29.59
844.633	-32.15
844.803	-46.51
844.973	-71.16
845.144	-66.63
845.314	-67.71
845.484	-113.96
845.654	-51.77
845.824	-37.79
845.995	-42.93
846.165	-32.16
846.335	-26.7
846.505	-17.37
846.675	-6.37
846.845	-12.08
847.015	-4.8
847.185	-8.72
847.355	-1.06
847.525	-12.98
847.695	-8.91
847.865	-17.47
848.035	-12.45
848.205	-9.77
848.375	-29.99
848.545	-24.4
848.715	-22.77
848.884	-37.46
849.054	-24.01
849.224	-28.32
849.394	-18.58
849.564	-18.01
849.733	-20.85
849.903	-37.82
850.073	-25.05
850.243	-19.83
850.412	-28.67
850.582	-29.18
850.752	-24.52
850.921	-38.44
851.091	-46.29
851.26	-45.88
851.43	-47.56
851.599	-40.68
851.769	-31.22
851.939	-47.95
852.108	-33.58
852.278	-41
852.447	-45.27
852.616	-60.97
852.786	-71.45
852.955	-45.35
853.125	-54.57
853.294	-41.55
853.463	-38.46
853.633	-39.07
853.802	-35.53
853.971	-36.2
854.141	-8
854.31	-1.5
854.479	1.26
854.648	7.49
854.818	0.95
854.987	6.65
855.156	9.67
855.325	3.18
855.494	-5.87
855.663	-11.08
855.832	-17.02
856.001	-31.23
856.171	-52.04
856.34	-36.91
856.509	-6.32
856.678	-13.8
856.847	-5.04
857.016	-16.16
857.185	-26.67
857.353	-23.25
857.522	-28
857.691	-49.3
857.86	-61.92
858.029	-36.34
858.198	-67.14
858.367	-71.99
858.535	-74.4
858.704	-88.46
858.873	-73.18
859.042	-67.94
859.21	-71.2
859.379	-64.01
859.548	-50.59
859.717	-63.54
859.885	-81.06
860.054	-34.31
860.222	-54.55
860.391	-43.32
860.56	-29.25
860.728	-51.8
860.897	-52.44
861.065	-63.37
861.234	-73.99
861.402	-72.79
861.571	-25.63
861.739	-23.49
861.908	-37.97
862.076	-31.77
862.244	-20.26
862.413	-25.29
862.581	-20.59
862.749	-20.87
862.918	-24.08
863.086	-15.77
863.254	-8.96
863.423	-24.13
863.591	-11.78
863.759	-21.98
863.927	-1.47
864.096	-31.46
864.264	-48.09
864.432	-31.29
864.6	-38.71
864.768	-28.35
864.936	-44.78
865.104	-72.45
865.272	-22.31
865.44	-27.1
865.608	-36.68
865.776	-60.15
865.944	-43.02
866.112	-22.3
866.28	-28
866.448	-10.23
866.616	-9.25
866.784	1.49
866.952	6.06
867.12	-0.04
867.288	0.1
867.455	19.2
867.623	26.95
867.791	14.47
867.959	13.43
868.127	9.46
868.294	18.82
868.462	9.13
868.63	-11.22
868.797	0.38
868.965	-41.27
869.133	-91.82
869.3	-75.29
869.468	-76.76
869.636	-26.06
869.803	-9.76
869.971	-3.51
870.138	-29.47
870.306	4.68
870.473	1.85
870.641	-20.43
870.808	1.48
870.975	30.13
871.143	7.67
871.31	-12.46
871.478	-35.85
871.645	-76.36
871.812	-80.55
871.98	-42.52
872.147	-84.97
872.314	-62.57
872.482	-22.16
872.649	-19.55
872.816	-34.56
872.983	-48.86
873.15	-44.11
873.318	-29.99
873.485	-21.62
873.652	-15.68
873.819	-12.11
873.986	-5.32
874.153	-9.14
874.32	-32.78
874.487	-43.65
874.654	-19.3
874.821	-3.06
874.988	19.3
875.155	0.96
875.322	4.03
875.489	-4.54
875.656	-8.21
875.823	-18.59
875.99	-36.96
876.157	-1.31
876.324	16.14
876.49	3.15
876.657	-6.02
876.824	-36.76
876.991	-21.81
877.157	-29.37
877.324	-52.46
877.491	-119.3
877.658	-72.37
877.824	-30.35
877.991	-54.04
878.157	-30.05
878.324	-24.51
878.491	2.17
878.657	11.1
878.824	18.42
878.99	14.89
879.157	23.65
879.323	27.77
879.49	18.22
879.656	19.23
879.823	22.23
879.989	7.6
880.156	10.41
880.322	-3.44
880.488	-15.09
880.655	-20.74
880.821	-3.14
880.987	-8.55
881.154	-3.04
881.32	6.61
881.486	-2.22
881.652	-8.09
881.819	-0.91
881.985	1.45
882.151	-1.3
882.317	1.71
882.483	-3.1
882.649	-4.57
882.816	0.97
882.982	3.27
883.148	6.31
883.314	5.99
883.48	6.99
883.646	4.57
883.812	3.77
883.978	5.08
884.144	9.76
884.31	11.18
884.476	9.1
884.642	9.05
884.807	7.35
884.973	5.73
885.139	8.32
885.305	8.41
885.471	11.2
885.637	14.53
885.802	14.09
885.968	9.03
886.134	9.33
886.3	14.29
886.465	13.05
886.631	5.99
886.797	5.87
886.962	-2.82
887.128	-5.43
887.293	-10
887.459	-16.9
887.625	-11.16
887.79	-8.7
887.956	-22.59
888.121	-34.12
888.287	-44.23
888.452	-33.9
888.618	-52.91
888.783	-34.73
