Data from 2938061_Reflection_2.txt Node
Date: Sun Jul 12 13:49:23 EDT 2015
User: robert
Spectrometer: USB4E03001
Autoset integration time: false
Trigger mode: 4
Integration Time (sec): 1.000000E-1
Scans to average: 10
Electric dark correction enabled: true
Nonlinearity correction enabled: false
Boxcar width: 5
Stray light correction enabled: false
XAxis mode: Wavelengths
Stop averaging: false
Number of Pixels in Spectrum: 3648
>>>>>Begin Spectral Data<<<<<
177.566	346.23
177.785	-925.72
178.005	-762.34
178.225	-348.81
178.445	-33.71
178.665	15.19
178.885	138.66
179.105	-2284.44
179.324	-240.18
179.544	-2131.61
179.764	390.83
179.984	369.06
180.204	-23.53
180.423	25.89
180.643	53.57
180.863	104.43
181.083	67.15
181.302	72.57
181.522	33.87
181.742	-27.02
181.961	17.16
182.181	16.08
182.401	12.62
182.621	-79.61
182.84	-223.89
183.06	-84.57
183.279	-303.2
183.499	-47.97
183.719	-83.84
183.938	-120.99
184.158	-91.33
184.377	-289.8
184.597	831.28
184.816	221.19
185.036	235.88
185.256	745.38
185.475	403.67
185.695	202.95
185.914	140.05
186.134	115.78
186.353	106.59
186.572	127.9
186.792	123.73
187.011	132.28
187.231	162.81
187.45	186.85
187.67	154.2
187.889	290.49
188.108	1508.28
188.328	157.46
188.547	206.18
188.766	192.77
188.986	116.69
189.205	68.82
189.424	58.93
189.644	46.3
189.863	21.55
190.082	24.32
190.302	54.42
190.521	70.59
190.74	80.84
190.959	77.46
191.178	68.17
191.398	135.09
191.617	104.9
191.836	105.7
192.055	35.41
192.274	-343.15
192.494	-938.54
192.713	-589.13
192.932	-434.69
193.151	-204.64
193.37	-171.78
193.589	-566.57
193.808	1706.58
194.027	-189.02
194.246	-356.66
194.465	-1039.2
194.685	-330.73
194.904	-5662.75
195.123	-248.81
195.342	-291.77
195.561	50.08
195.78	-109.13
195.999	177.19
196.218	475.87
196.436	-92.06
196.655	-313.28
196.874	-775
197.093	-219.52
197.312	-676.28
197.531	-145.09
197.75	-96.22
197.969	1157.36
198.188	35.12
198.407	32.04
198.625	87.98
198.844	128.21
199.063	182.09
199.282	344.94
199.501	182.48
199.719	105.64
199.938	43.59
200.157	18.27
200.376	52.98
200.594	78.97
200.813	118.64
201.032	104.36
201.251	19.13
201.469	-29.19
201.688	22.95
201.907	30.17
202.125	69.85
202.344	102.19
202.563	179.11
202.781	208.75
203	167.79
203.218	158.69
203.437	206.78
203.656	1086.08
203.874	609.46
204.093	-1017.64
204.311	-391.64
204.53	-197
204.748	-343.66
204.967	-397.83
205.185	-543.04
205.404	-384.52
205.622	-288.71
205.841	-239.78
206.059	-3068.31
206.278	-893.25
206.496	123.51
206.715	108.6
206.933	121.91
207.151	148.23
207.37	142.38
207.588	197.22
207.806	155.01
208.025	103.32
208.243	110.6
208.461	91.54
208.68	83.07
208.898	212.56
209.116	215.92
209.335	-361.08
209.553	-298.77
209.771	-77.07
209.989	-168.66
210.208	-222.84
210.426	-136.04
210.644	22.69
210.862	2.37
211.081	7.53
211.299	-77.77
211.517	-155.94
211.735	536.69
211.953	117.28
212.171	109.24
212.39	155.58
212.608	114.42
212.826	46.41
213.044	58.02
213.262	68.84
213.48	31.89
213.698	80.66
213.916	-0.3
214.134	-29.41
214.352	-1396.2
214.57	-24.53
214.788	-69.73
215.006	-128.75
215.224	-107.63
215.442	51.19
215.66	-42.83
215.878	-84.24
216.096	-20.18
216.314	-26.75
216.532	-134.82
216.75	-1933.96
216.968	124.1
217.185	139.62
217.403	-16.17
217.621	12.37
217.839	72.23
218.057	37.67
218.275	131.93
218.492	96.1
218.71	238.85
218.928	620.4
219.146	37.32
219.363	23.54
219.581	69.18
219.799	115.57
220.017	168.8
220.234	120.1
220.452	138.63
220.67	180.36
220.887	184.71
221.105	248.58
221.323	243.67
221.54	176.7
221.758	209.85
221.976	153.8
222.193	34.62
222.411	26.38
222.629	458.24
222.846	2581.68
223.064	-410.39
223.281	241.63
223.499	139.68
223.716	115.17
223.934	29.83
224.151	210.57
224.369	322.35
224.586	336.05
224.804	144.28
225.021	45.73
225.239	24.69
225.456	23
225.674	-9.52
225.891	9.89
226.108	30.71
226.326	46.26
226.543	49.63
226.76	38.33
226.978	34.93
227.195	17.94
227.413	23.26
227.63	24.88
227.847	29.41
228.064	35.51
228.282	30.28
228.499	23.12
228.716	17.98
228.934	16.38
229.151	17.64
229.368	20.4
229.585	26
229.802	28.51
230.02	26.73
230.237	26.53
230.454	27.92
230.671	29.94
230.888	32.09
231.105	36.09
231.323	36.41
231.54	37.1
231.757	42.16
231.974	38.55
232.191	34.9
232.408	49.21
232.625	52.5
232.842	40.06
233.059	31.18
233.276	29.39
233.493	32.38
233.71	33.02
233.927	24.1
234.144	27.59
234.361	24.07
234.578	24.21
234.795	16.76
235.012	10.18
235.229	18.65
235.446	26.14
235.663	26.84
235.879	22.95
236.096	27.67
236.313	37.01
236.53	29.81
236.747	32.38
236.964	34.58
237.181	28.85
237.397	32.27
237.614	30.15
237.831	31.94
238.048	28.27
238.264	29.42
238.481	18.09
238.698	9.72
238.915	11.44
239.131	14.32
239.348	15.72
239.565	13.39
239.781	13.12
239.998	16.79
240.215	18.5
240.431	20.75
240.648	20.1
240.865	22.1
241.081	24.83
241.298	24.28
241.514	21.19
241.731	20.12
241.947	21.99
242.164	21.32
242.38	20.52
242.597	17.52
242.814	19.87
243.03	22.12
243.246	22.02
243.463	23.34
243.679	24.32
243.896	27.74
244.112	27.17
244.329	27.72
244.545	29.53
244.762	30.63
244.978	31.72
245.194	25.75
245.411	24.32
245.627	24.39
245.843	23.77
246.06	22.24
246.276	20.32
246.492	19.23
246.709	18.99
246.925	19.19
247.141	18.88
247.357	19.75
247.574	20.54
247.79	20.71
248.006	19.58
248.222	17.81
248.439	17.05
248.655	18.27
248.871	19.27
249.087	19.24
249.303	17.22
249.519	17.46
249.736	14.86
249.952	14.89
250.168	13.98
250.384	11.78
250.6	16.6
250.816	17.98
251.032	15.08
251.248	13.46
251.464	13.89
251.68	14.33
251.896	11.25
252.112	14.77
252.328	16
252.544	17.39
252.76	18.9
252.976	15.83
253.192	17.11
253.408	15.23
253.624	16.42
253.84	18.82
254.056	17.49
254.272	20.33
254.487	23.66
254.703	22.32
254.919	15.83
255.135	14.84
255.351	15.59
255.567	14.73
255.782	15.41
255.998	15.39
256.214	12.28
256.43	15.21
256.646	17.07
256.861	12.57
257.077	12.15
257.293	11.97
257.508	16.62
257.724	18.58
257.94	19.64
258.155	20.52
258.371	21.62
258.587	22.82
258.802	21.47
259.018	20.07
259.234	19.25
259.449	18.72
259.665	19.92
259.88	19.77
260.096	18.02
260.312	16.6
260.527	16.8
260.743	16.69
260.958	15.69
261.174	17
261.389	17.42
261.605	16.63
261.82	17.3
262.036	16.34
262.251	14.04
262.466	15.21
262.682	17.85
262.897	17.05
263.113	16.58
263.328	17.31
263.543	12.89
263.759	11.6
263.974	13.18
264.189	13.29
264.405	13.7
264.62	16.73
264.835	16.98
265.051	15.9
265.266	16.91
265.481	17.79
265.696	18.89
265.912	21.21
266.127	23.09
266.342	22.07
266.557	19.54
266.773	22.21
266.988	21.14
267.203	18.41
267.418	17.5
267.633	16.87
267.848	15.75
268.064	13.15
268.279	14.71
268.494	16.18
268.709	16.12
268.924	18.42
269.139	16.19
269.354	17.04
269.569	21.19
269.784	21.27
269.999	22.14
270.214	20.53
270.429	22.21
270.644	19.22
270.859	15.4
271.074	17.04
271.289	15.88
271.504	15.02
271.719	14.87
271.934	14.22
272.149	15.22
272.363	16.11
272.578	17.76
272.793	17.57
273.008	16.33
273.223	15.96
273.438	16.55
273.653	17.21
273.867	19.72
274.082	20.8
274.297	19.2
274.512	18.81
274.726	17.44
274.941	16.46
275.156	15.69
275.371	17.06
275.585	17.78
275.8	16.88
276.015	17.2
276.229	14.51
276.444	13.17
276.659	13.83
276.873	13.08
277.088	13.4
277.302	13.99
277.517	13.37
277.732	12.79
277.946	11.37
278.161	12.06
278.375	15.06
278.59	16.57
278.804	15.73
279.019	17.3
279.233	17.55
279.448	14.15
279.662	13.85
279.877	13.49
280.091	16.33
280.306	18.37
280.52	14.5
280.735	13.15
280.949	13.46
281.163	14.38
281.378	13.54
281.592	12.21
281.806	15.4
282.021	14.03
282.235	14.52
282.449	14.74
282.664	14.46
282.878	15.52
283.092	13.17
283.307	12.07
283.521	11.44
283.735	11.53
283.949	14.42
284.164	13.85
284.378	14.35
284.592	14.84
284.806	15.11
285.02	15.37
285.234	16.52
285.449	17.69
285.663	17.5
285.877	18.2
286.091	19.4
286.305	17.46
286.519	16.49
286.733	18.33
286.947	16.76
287.161	15.72
287.375	17.18
287.589	18.99
287.803	20.31
288.017	20
288.231	20.33
288.445	18.38
288.659	18.66
288.873	20.98
289.087	19.42
289.301	22.17
289.515	22.67
289.729	20.37
289.943	16.74
290.157	14.27
290.371	15.54
290.584	15.49
290.798	16.52
291.012	19.12
291.226	18.19
291.44	17.81
291.654	18.3
291.867	17.4
292.081	17.84
292.295	19.32
292.509	21.66
292.722	23.2
292.936	21.05
293.15	21.39
293.364	19.8
293.577	19.78
293.791	21.06
294.005	20.84
294.218	21.56
294.432	22.54
294.645	21.24
294.859	20.11
295.073	19.59
295.286	21.31
295.5	21.32
295.713	20.24
295.927	20.12
296.14	20.22
296.354	17.94
296.568	18.12
296.781	17.79
296.994	18.97
297.208	18.54
297.421	17.54
297.635	15.73
297.848	14.22
298.062	16.38
298.275	17.52
298.489	14.84
298.702	15.62
298.915	14.7
299.129	15.22
299.342	16.11
299.555	16.18
299.769	16.1
299.982	18.52
300.195	21.55
300.409	20.1
300.622	19.02
300.835	22.53
301.048	23.09
301.262	20.06
301.475	17.74
301.688	15.72
301.901	16.52
302.115	16.67
302.328	16.45
302.541	14.41
302.754	14.45
302.967	14.06
303.18	13.02
303.393	11.8
303.607	15.58
303.82	15.15
304.033	16.15
304.246	14.06
304.459	12.07
304.672	9.34
304.885	10.81
305.098	8.45
305.311	8.22
305.524	4.98
305.737	4.12
305.95	4.56
306.163	5.47
306.376	5.17
306.589	6.9
306.802	9.48
307.015	12.62
307.228	10.76
307.44	11.24
307.653	13.33
307.866	15.8
308.079	14.83
308.292	14.78
308.505	15.23
308.718	15.02
308.93	17.07
309.143	16.65
309.356	14.6
309.569	14.81
309.781	15.26
309.994	14.07
310.207	13.83
310.42	17.24
310.632	17.33
310.845	18.54
311.058	18.19
311.27	15.85
311.483	15.04
311.696	16.34
311.908	17.39
312.121	17.08
312.333	19.5
312.546	20.93
312.759	20.47
312.971	20.1
313.184	17.73
313.396	18.33
313.609	19.64
313.821	20.85
314.034	19.79
314.246	19.92
314.459	22.21
314.671	19.86
314.884	18.28
315.096	16.81
315.309	16.75
315.521	18.55
315.733	19.04
315.946	17.54
316.158	17.67
316.371	15.87
316.583	14.06
316.795	11.93
317.008	10.53
317.22	10.62
317.432	10.53
317.644	12.67
317.857	12.61
318.069	12.79
318.281	14.8
318.494	14.81
318.706	17.57
318.918	15.55
319.13	14.92
319.342	15.3
319.555	17.59
319.767	17.98
319.979	13.8
320.191	13
320.403	13.09
320.615	8.67
320.827	7.86
321.039	5.86
321.252	10.7
321.464	11.46
321.676	12.17
321.888	8.55
322.1	8.67
322.312	10.2
322.524	11.99
322.736	11.97
322.948	15.18
323.16	16.6
323.372	15.99
323.584	12.17
323.796	11.54
324.007	11.48
324.219	12.33
324.431	12.71
324.643	12.81
324.855	13.04
325.067	12.8
325.279	12.89
325.491	12.41
325.702	13.07
325.914	14.7
326.126	14.51
326.338	13.39
326.55	14.97
326.761	14.56
326.973	13.15
327.185	11.76
327.396	11.71
327.608	10.78
327.82	10.29
328.032	9.24
328.243	8.89
328.455	10.3
328.666	10.66
328.878	8.21
329.09	8.3
329.301	9.73
329.513	10.51
329.725	8.41
329.936	7.83
330.148	8.33
330.359	9.29
330.571	11.07
330.782	10.5
330.994	11.14
331.205	12.39
331.417	11.2
331.628	10.52
331.84	8.28
332.051	9.22
332.262	10.62
332.474	10.46
332.685	12.01
332.897	10.88
333.108	11.2
333.319	8.45
333.531	9.01
333.742	9.53
333.953	10.18
334.165	10.44
334.376	10.79
334.587	11.01
334.799	10.52
335.01	7.49
335.221	7.72
335.432	7.34
335.644	8.61
335.855	8.53
336.066	11.55
336.277	12.03
336.488	11.74
336.7	12.49
336.911	10.88
337.122	9.97
337.333	12.87
337.544	12.38
337.755	12.05
337.966	12.11
338.177	11.22
338.388	7.7
338.599	6.54
338.811	6.36
339.022	5.41
339.233	7.07
339.444	7.78
339.655	7.22
339.866	7.33
340.076	6.99
340.287	8.39
340.498	9.26
340.709	10.37
340.92	11.83
341.131	13.01
341.342	12.91
341.553	12.43
341.764	12.12
341.975	11.92
342.185	10.87
342.396	11.58
342.607	10.88
342.818	11.53
343.029	13.65
343.239	13.04
343.45	12.93
343.661	12.87
343.872	12.63
344.082	12.86
344.293	13.16
344.504	12.95
344.714	14.1
344.925	13.78
345.136	12.99
345.346	11.89
345.557	11.21
345.768	11.34
345.978	10.28
346.189	10.19
346.399	10.66
346.61	10.37
346.821	11.82
347.031	10.29
347.242	11.15
347.452	10.44
347.663	8.59
347.873	9.69
348.084	9.26
348.294	11.33
348.504	12.48
348.715	11.59
348.925	10.77
349.136	10.2
349.346	8.88
349.557	8.08
349.767	9.76
349.977	10.62
350.188	11.51
350.398	10.85
350.608	10.21
350.819	9.33
351.029	8.52
351.239	8.84
351.449	8.49
351.66	9.54
351.87	10.24
352.08	10.32
352.29	11.53
352.501	10.49
352.711	11.08
352.921	11.74
353.131	10.8
353.341	11.59
353.552	11.3
353.762	11.79
353.972	12.14
354.182	12.35
354.392	12.01
354.602	10.5
354.812	10.39
355.022	10.72
355.232	10.55
355.442	11.38
355.652	11.83
355.862	12.62
356.072	12.05
356.282	13.21
356.492	12.47
356.702	11.68
356.912	11.79
357.122	11.2
357.332	11.27
357.542	10.96
357.752	10.41
357.962	9.97
358.171	9.54
358.381	10.15
358.591	8.17
358.801	7.8
359.011	8.61
359.221	9.07
359.43	9.41
359.64	9.35
359.85	9.87
360.06	10
360.269	10.02
360.479	10.37
360.689	10.36
360.899	11.16
361.108	11.85
361.318	10.76
361.528	10.47
361.737	10.48
361.947	10.1
362.156	9.59
362.366	9.79
362.576	9.87
362.785	9.03
362.995	8.87
363.204	8.57
363.414	8.49
363.623	8.83
363.833	8.39
364.042	8.63
364.252	8.79
364.461	9.57
364.671	9.56
364.88	9.99
365.09	10.47
365.299	9.57
365.509	8.61
365.718	7.98
365.927	7.79
366.137	7.87
366.346	7.59
366.555	7.24
366.765	6.67
366.974	6.37
367.183	6.21
367.393	5.67
367.602	6.3
367.811	7.75
368.021	7.69
368.23	7.55
368.439	7.87
368.648	7.29
368.857	7.89
369.067	7.6
369.276	6.86
369.485	6.98
369.694	7.59
369.903	7.78
370.112	7.14
370.321	7.04
370.531	6.57
370.74	6.23
370.949	6.8
371.158	7
371.367	7.38
371.576	8.57
371.785	8.48
371.994	9.18
372.203	8.64
372.412	8.38
372.621	8.12
372.83	9
373.039	9.01
373.248	8.84
373.457	8.24
373.666	7.49
373.874	6.67
374.083	6.38
374.292	5.31
374.501	5.87
374.71	4.67
374.919	5.08
375.128	4.54
375.336	4.28
375.545	4.13
375.754	4.62
375.963	4.69
376.171	4.55
376.38	4.74
376.589	4.41
376.798	3.68
377.006	5.2
377.215	5.3
377.424	5.18
377.632	5.95
377.841	5.6
378.05	5.46
378.258	5.57
378.467	5.48
378.675	4.03
378.884	4.3
379.093	4.79
379.301	4.25
379.51	4.55
379.718	4.39
379.927	3.76
380.135	3.6
380.344	3.38
380.552	3.17
380.761	3.06
380.969	4.62
381.177	4.64
381.386	4.72
381.594	4.68
381.803	3.99
382.011	4.45
382.219	4.83
382.428	4.72
382.636	4.4
382.845	4.18
383.053	5.02
383.261	4.93
383.469	4.96
383.678	4.76
383.886	4.54
384.094	4.57
384.302	5.04
384.511	4.98
384.719	5.25
384.927	5.91
385.135	5.79
385.343	5.35
385.552	5.29
385.76	5.31
385.968	5.46
386.176	5.61
386.384	5.84
386.592	5.56
386.8	5.53
387.008	5.13
387.216	4.76
387.424	4.92
387.633	4.69
387.841	4.63
388.049	4.27
388.257	4.27
388.465	4.36
388.672	4.07
388.88	4.23
389.088	4.16
389.296	4.31
389.504	3.95
389.712	4.02
389.92	4.15
390.128	3.65
390.336	4.07
390.544	4.17
390.751	4.32
390.959	4.26
391.167	3.59
391.375	3.38
391.583	3.56
391.79	3.64
391.998	3.54
392.206	3.57
392.414	3.85
392.621	3.45
392.829	3.18
393.037	3.22
393.244	3.05
393.452	2.97
393.66	3.21
393.867	3.27
394.075	3.17
394.283	3.12
394.49	3.07
394.698	3.49
394.905	3.41
395.113	3.16
395.32	2.87
395.528	2.99
395.735	3.27
395.943	3.05
396.15	2.81
396.358	2.76
396.565	2.5
396.773	2.33
396.98	1.82
397.188	2.15
397.395	2.26
397.602	2.32
397.81	2.51
398.017	2.46
398.225	2.68
398.432	3.17
398.639	3.56
398.847	3.71
399.054	3.63
399.261	3.61
399.468	3.37
399.676	3.36
399.883	3.49
400.09	3.53
400.297	3.69
400.505	3.53
400.712	3.22
400.919	2.98
401.126	3.18
401.333	3.51
401.54	3.22
401.748	3.41
401.955	3.33
402.162	3.13
402.369	3.12
402.576	2.94
402.783	2.88
402.99	3.13
403.197	3.13
403.404	3.33
403.611	3.24
403.818	3.76
404.025	3.87
404.232	3.78
404.439	3.42
404.646	2.94
404.853	2.84
405.06	2.86
405.267	2.58
405.474	2.36
405.681	2.19
405.887	1.89
406.094	1.54
406.301	1.29
406.508	1.34
406.715	1.67
406.922	2.04
407.128	2.33
407.335	2.62
407.542	2.68
407.749	2.73
407.955	2.79
408.162	3.16
408.369	3.22
408.575	3.25
408.782	3.54
408.989	3.61
409.195	3.37
409.402	2.88
409.609	2.66
409.815	2.68
410.022	3.07
410.228	2.79
410.435	2.56
410.642	2.34
410.848	2.5
411.055	2.26
411.261	2.29
411.468	2.39
411.674	2.66
411.881	2.69
412.087	2.35
412.294	2.2
412.5	2.38
412.706	2.65
412.913	2.77
413.119	2.51
413.326	2.26
413.532	2.35
413.738	2.66
413.945	2.54
414.151	2.56
414.357	2.71
414.564	2.74
414.77	2.82
414.976	2.44
415.182	2.76
415.389	2.87
415.595	2.81
415.801	2.63
416.007	2.38
416.214	2.6
416.42	2.78
416.626	2.78
416.832	2.75
417.038	2.57
417.244	2.62
417.45	2.4
417.657	2.44
417.863	2.89
418.069	2.89
418.275	2.83
418.481	2.86
418.687	2.61
418.893	2.47
419.099	2.24
419.305	2.49
419.511	2.57
419.717	2.58
419.923	2.52
420.129	2.51
420.335	2.45
420.541	2.56
420.746	2.29
420.952	2.39
421.158	2.68
421.364	2.83
421.57	2.57
421.776	2.47
421.982	2.46
422.187	2.48
422.393	2.5
422.599	2.5
422.805	2.42
423.01	2.71
423.216	2.63
423.422	2.49
423.628	2.51
423.833	2.62
424.039	2.81
424.245	2.87
424.45	2.99
424.656	2.86
424.862	2.77
425.067	2.82
425.273	2.63
425.478	2.54
425.684	2.55
425.889	2.67
426.095	2.78
426.301	2.51
426.506	2.47
426.712	2.46
426.917	2.52
427.123	2.8
427.328	2.7
427.533	2.91
427.739	2.87
427.944	2.8
428.15	2.65
428.355	2.47
428.561	2.58
428.766	2.58
428.971	2.46
429.177	2.2
429.382	1.94
429.587	2.14
429.793	1.99
429.998	2.28
430.203	2.23
430.408	1.93
430.614	1.86
430.819	1.92
431.024	1.78
431.229	1.96
431.434	2.17
431.64	2.13
431.845	2.13
432.05	2
432.255	1.9
432.46	2.01
432.665	2.25
432.87	2.23
433.076	2.32
433.281	2.54
433.486	2.5
433.691	2.48
433.896	2.72
434.101	2.59
434.306	2.64
434.511	2.71
434.716	2.54
434.921	2.5
435.126	2.65
435.331	2.51
435.535	2.23
435.74	2.21
435.945	2.04
436.15	1.93
436.355	2.06
436.56	2.03
436.765	1.92
436.97	2.12
437.174	2.17
437.379	2.02
437.584	2.14
437.789	2.35
437.993	2.16
438.198	2.24
438.403	2.26
438.608	2.29
438.812	2.25
439.017	2.51
439.222	2.33
439.426	2.29
439.631	2.32
439.836	2.28
440.04	2.29
440.245	2.24
440.45	2.24
440.654	2.18
440.859	2.07
441.063	2.29
441.268	1.95
441.472	2.12
441.677	2.1
441.881	2.26
442.086	2.36
442.29	2.3
442.495	2.27
442.699	2.44
442.904	2.45
443.108	2.58
443.312	2.33
443.517	2.27
443.721	2.15
443.925	2.08
444.13	1.92
444.334	1.65
444.538	1.59
444.743	1.81
444.947	1.78
445.151	1.87
445.356	1.84
445.56	2.02
445.764	2.24
445.968	2.22
446.173	2.4
446.377	2.44
446.581	2.54
446.785	2.66
446.989	2.53
447.193	2.6
447.398	2.58
447.602	2.58
447.806	2.52
448.01	2.41
448.214	2.44
448.418	2.26
448.622	2.26
448.826	2.2
449.03	2.11
449.234	2.16
449.438	1.94
449.642	1.77
449.846	1.65
450.05	1.62
450.254	1.69
450.458	1.61
450.662	1.72
450.866	1.53
451.069	1.79
451.273	1.8
451.477	1.84
451.681	1.9
451.885	2.09
452.089	2.24
452.292	2.35
452.496	2.23
452.7	2.44
452.904	2.41
453.107	2.48
453.311	2.26
453.515	2.2
453.719	2.1
453.922	2.08
454.126	1.95
454.33	1.86
454.533	1.72
454.737	1.66
454.94	1.62
455.144	1.72
455.348	1.62
455.551	1.79
455.755	1.73
455.958	1.84
456.162	2.01
456.365	2.07
456.569	2.09
456.772	2.29
456.976	2.3
457.179	2.18
457.383	2.09
457.586	2.18
457.79	2.15
457.993	2.35
458.196	2.28
458.4	2.36
458.603	2.38
458.807	2.35
459.01	2.08
459.213	2.15
459.417	2.14
459.62	2.23
459.823	2.28
460.026	2.27
460.23	2.14
460.433	2.16
460.636	2
460.839	2.01
461.042	1.96
461.246	2.07
461.449	2.07
461.652	2.04
461.855	1.9
462.058	1.82
462.261	2
462.464	1.98
462.668	2.05
462.871	2.04
463.074	1.9
463.277	1.84
463.48	1.78
463.683	1.8
463.886	2.06
464.089	2.03
464.292	2.15
464.495	1.66
464.698	1.61
464.901	1.33
465.104	1.29
465.306	1.28
465.509	1.48
465.712	1.61
465.915	1.62
466.118	1.52
466.321	1.5
466.524	1.6
466.726	1.86
466.929	2.06
467.132	2.32
467.335	2.35
467.538	2.53
467.74	2.44
467.943	2.3
468.146	2.28
468.348	2.21
468.551	2.32
468.754	2.07
468.956	2.15
469.159	2.19
469.362	2.16
469.564	2.05
469.767	2.03
469.969	2.11
470.172	2.28
470.375	2.32
470.577	2.35
470.78	2.46
470.982	2.7
471.185	2.68
471.387	2.73
471.59	2.77
471.792	2.8
471.995	2.84
472.197	2.74
472.399	2.72
472.602	2.7
472.804	2.53
473.007	2.43
473.209	2.49
473.411	2.31
473.614	2.06
473.816	2.06
474.018	2.1
474.22	2.05
474.423	2.22
474.625	2.13
474.827	2.23
475.03	2.42
475.232	2.45
475.434	2.32
475.636	2.4
475.838	2.42
476.04	2.35
476.243	2.3
476.445	1.95
476.647	1.76
476.849	1.72
477.051	1.56
477.253	1.46
477.455	1.33
477.657	1.31
477.859	1.12
478.061	1.11
478.263	1.12
478.465	1.12
478.667	1.44
478.869	1.33
479.071	1.37
479.273	1.26
479.475	1.38
479.677	1.43
479.879	1.42
480.081	1.6
480.283	1.6
480.485	1.7
480.686	1.69
480.888	1.67
481.09	1.91
481.292	1.79
481.494	1.97
481.695	1.96
481.897	1.93
482.099	1.95
482.301	1.96
482.502	2.04
482.704	2.01
482.906	2.06
483.107	2.02
483.309	1.97
483.511	2.04
483.712	2
483.914	2.03
484.115	2
484.317	2
484.519	1.98
484.72	1.92
484.922	1.9
485.123	1.92
485.325	1.94
485.526	1.99
485.728	2
485.929	2.02
486.131	1.95
486.332	2
486.534	1.96
486.735	1.96
486.936	2.06
487.138	2.07
487.339	1.95
487.541	1.96
487.742	1.83
487.943	1.86
488.144	1.91
488.346	1.89
488.547	1.85
488.748	1.91
488.95	1.94
489.151	1.87
489.352	1.81
489.553	1.92
489.755	1.99
489.956	2.15
490.157	2.12
490.358	2.11
490.559	2.16
490.76	2.2
490.961	2.25
491.163	2.22
491.364	2.27
491.565	2.24
491.766	2.18
491.967	2.14
492.168	2.08
492.369	1.99
492.57	1.89
492.771	1.87
492.972	1.86
493.173	1.85
493.374	1.79
493.575	1.73
493.776	1.74
493.976	1.73
494.177	1.66
494.378	1.66
494.579	1.78
494.78	1.66
494.981	1.81
495.182	1.85
495.382	1.78
495.583	1.64
495.784	1.52
495.985	1.46
496.185	1.6
496.386	1.74
496.587	1.77
496.788	1.77
496.988	2.09
497.189	2.04
497.39	1.93
497.59	1.89
497.791	2.01
497.992	2.09
498.192	2.19
498.393	2.14
498.593	2.03
498.794	2.07
498.994	2.06
499.195	1.9
499.395	1.88
499.596	2
499.796	1.97
499.997	2.01
500.197	2
500.398	2.14
500.598	2.07
500.799	2.01
500.999	1.99
501.199	1.89
501.4	2
501.6	1.82
501.801	1.76
502.001	2.08
502.201	2.12
502.402	2.18
502.602	2.09
502.802	2.16
503.002	2.2
503.203	2.19
503.403	2.27
503.603	2.05
503.803	2.22
504.003	2.16
504.204	1.92
504.404	1.89
504.604	1.83
504.804	1.82
505.004	1.8
505.204	1.77
505.404	1.86
505.604	1.9
505.804	2.22
506.005	2.24
506.205	2.2
506.405	2.16
506.605	2.26
506.805	2.36
507.005	2.32
507.204	2.3
507.404	2.37
507.604	2.42
507.804	2.52
508.004	2.43
508.204	2.41
508.404	2.46
508.604	2.48
508.804	2.44
509.003	2.5
509.203	2.52
509.403	2.61
509.603	2.63
509.803	2.42
510.002	2.37
510.202	2.22
510.402	2.13
510.602	2.11
510.801	2.23
511.001	2.28
511.201	2.33
511.4	2.42
511.6	2.37
511.8	2.36
511.999	2.5
512.199	2.6
512.398	2.64
512.598	2.72
512.797	2.78
512.997	2.59
513.197	2.53
513.396	2.3
513.596	2.23
513.795	2.23
513.994	2.25
514.194	2.19
514.393	1.92
514.593	2.01
514.792	1.98
514.992	1.96
515.191	2.08
515.39	2.04
515.59	1.97
515.789	2.01
515.988	1.84
516.188	1.89
516.387	1.95
516.586	1.9
516.786	1.68
516.985	1.66
517.184	1.65
517.383	1.61
517.582	1.77
517.782	1.91
517.981	1.92
518.18	2
518.379	1.85
518.578	1.83
518.777	1.94
518.976	2.02
519.176	2.13
519.375	2.16
519.574	2.23
519.773	2.15
519.972	2.13
520.171	2.25
520.37	2.24
520.569	2.48
520.768	2.49
520.967	2.63
521.166	2.57
521.365	2.43
521.564	2.39
521.762	2.51
521.961	2.55
522.16	2.54
522.359	2.42
522.558	2.47
522.757	2.24
522.956	2.37
523.154	2.31
523.353	2.59
523.552	2.53
523.751	2.62
523.949	2.45
524.148	2.34
524.347	2.38
524.546	2.27
524.744	2.35
524.943	2.36
525.142	2.25
525.34	2.2
525.539	2.07
525.737	2.17
525.936	2.2
526.135	2.17
526.333	2.28
526.532	2.28
526.73	2.35
526.929	2.25
527.127	2.32
527.326	2.37
527.524	2.45
527.723	2.58
527.921	2.59
528.12	2.49
528.318	2.57
528.516	2.53
528.715	2.55
528.913	2.59
529.112	2.62
529.31	2.61
529.508	2.66
529.707	2.59
529.905	2.44
530.103	2.47
530.301	2.6
530.5	2.64
530.698	2.69
530.896	2.78
531.094	2.83
531.293	2.88
531.491	2.94
531.689	2.81
531.887	2.94
532.085	3.13
532.283	3.14
532.481	3.04
532.68	2.94
532.878	2.91
533.076	2.79
533.274	2.72
533.472	2.75
533.67	2.72
533.868	2.86
534.066	2.8
534.264	2.8
534.462	2.74
534.66	2.89
534.858	2.91
535.056	3.04
535.253	3.05
535.451	3.11
535.649	3.11
535.847	3.07
536.045	3.07
536.243	3.14
536.441	3.14
536.638	3.19
536.836	3.08
537.034	3.22
537.232	3.16
537.43	3.18
537.627	3.16
537.825	3.11
538.023	3.3
538.22	3.24
538.418	3.18
538.616	3.08
538.813	3.06
539.011	3.17
539.209	3.02
539.406	3.01
539.604	3.07
539.801	3.17
539.999	3.27
540.196	3.18
540.394	3.27
540.591	3.31
540.789	3.32
540.986	3.32
541.184	3.28
541.381	3.39
541.579	3.38
541.776	3.33
541.974	3.31
542.171	3.31
542.368	3.27
542.566	3.31
542.763	3.37
542.96	3.43
543.158	3.53
543.355	3.59
543.552	3.47
543.75	3.47
543.947	3.58
544.144	3.58
544.341	3.74
544.539	3.81
544.736	3.74
544.933	3.77
545.13	3.76
545.327	3.8
545.524	3.77
545.722	3.9
545.919	3.98
546.116	3.81
546.313	3.8
546.51	3.63
546.707	3.69
546.904	3.69
547.101	3.72
547.298	3.83
547.495	3.75
547.692	3.85
547.889	3.94
548.086	3.93
548.283	4.02
548.48	4.14
548.677	4.25
548.874	4.17
549.07	4.23
549.267	4.14
549.464	4.06
549.661	4.09
549.858	3.93
550.055	3.74
550.251	3.71
550.448	4
550.645	4.04
550.842	4
551.038	4.08
551.235	4.07
551.432	4.16
551.628	4.31
551.825	4.47
552.022	4.56
552.218	4.72
552.415	4.84
552.612	4.75
552.808	4.77
553.005	4.98
553.201	5.27
553.398	5.34
553.594	5.37
553.791	5.42
553.987	5.26
554.184	5.42
554.38	5.42
554.577	5.65
554.773	5.82
554.97	5.79
555.166	5.65
555.362	5.49
555.559	5.39
555.755	5.5
555.952	5.63
556.148	5.67
556.344	5.72
556.541	5.73
556.737	5.53
556.933	5.33
557.129	5.15
557.326	5.29
557.522	5.32
557.718	5.6
557.914	5.6
558.11	5.48
558.307	5.69
558.503	5.71
558.699	5.73
558.895	5.96
559.091	6.2
559.287	6.4
559.483	6.42
559.679	6.48
559.876	6.28
560.072	6.37
560.268	6.52
560.464	6.38
560.66	6.35
560.856	6.37
561.052	6.27
561.247	6.31
561.443	6.41
561.639	6.54
561.835	6.43
562.031	6.59
562.227	6.56
562.423	6.42
562.619	6.6
562.815	6.52
563.01	6.68
563.206	6.66
563.402	6.83
563.598	6.93
563.793	6.97
563.989	7.31
564.185	7.38
564.381	7.44
564.576	7.54
564.772	7.71
564.968	8.04
565.163	8.13
565.359	8.25
565.555	8.29
565.75	8.14
565.946	8.13
566.141	8.18
566.337	8.13
566.532	8.21
566.728	8.3
566.923	8.29
567.119	8.31
567.314	8.3
567.51	8.41
567.705	8.36
567.901	8.69
568.096	8.73
568.292	8.54
568.487	8.83
568.682	8.82
568.878	8.63
569.073	8.58
569.268	8.26
569.464	8.35
569.659	8.21
569.854	8.14
570.05	7.85
570.245	8.1
570.44	8.18
570.635	8.15
570.831	8.19
571.026	8.28
571.221	8.35
571.416	8.5
571.611	8.38
571.806	8.3
572.002	8.4
572.197	8.5
572.392	8.26
572.587	8.3
572.782	8.22
572.977	8.09
573.172	8.23
573.367	8.23
573.562	8.25
573.757	8.32
573.952	8.38
574.147	8.48
574.342	8.5
574.537	8.71
574.732	8.77
574.927	8.73
575.121	9
575.316	9.09
575.511	9.21
575.706	9.43
575.901	9.4
576.096	9.58
576.29	9.41
576.485	9.52
576.68	9.37
576.875	9.29
577.069	9.52
577.264	9.36
577.459	9.32
577.654	9.16
577.848	9.18
578.043	9.26
578.238	9.5
578.432	9.78
578.627	9.88
578.821	9.86
579.016	10.1
579.21	10.11
579.405	10.24
579.6	10.31
579.794	10.23
579.989	9.99
580.183	10.34
580.378	10.09
580.572	10.23
580.766	10.16
580.961	10.27
581.155	10.16
581.35	10.28
581.544	10.1
581.738	10.41
581.933	10.46
582.127	10.57
582.321	10.28
582.516	10.4
582.71	10.3
582.904	10.15
583.099	10.03
583.293	10.11
583.487	10.23
583.681	10.57
583.875	10.05
584.07	10.26
584.264	10.04
584.458	10.16
584.652	10.12
584.846	9.88
585.04	10.01
585.234	10.07
585.428	10.23
585.623	9.89
585.817	9.71
586.011	9.83
586.205	9.79
586.399	9.94
586.593	9.78
586.787	9.65
586.981	9.54
587.174	9.4
587.368	9.6
587.562	9.27
587.756	9.25
587.95	9.43
588.144	9.71
588.338	9.76
588.532	9.65
588.725	9.77
588.919	9.91
589.113	10.13
589.307	10.45
589.501	10.36
589.694	10.63
589.888	10.56
590.082	10.56
590.275	10.48
590.469	10.54
590.663	10.8
590.856	10.83
591.05	10.95
591.244	10.86
591.437	10.83
591.631	11.08
591.824	11
592.018	11.06
592.212	10.97
592.405	11.06
592.599	11.1
592.792	11.15
592.986	11.08
593.179	11.02
593.372	11.25
593.566	11.31
593.759	11.14
593.953	11.35
594.146	11.54
594.339	11.63
594.533	11.52
594.726	11.37
594.92	11.25
595.113	11.33
595.306	11.26
595.499	11.02
595.693	11.19
595.886	11.1
596.079	10.72
596.272	10.61
596.466	10.68
596.659	10.68
596.852	10.75
597.045	10.72
597.238	10.75
597.431	10.83
597.624	10.99
597.818	10.94
598.011	11.02
598.204	11.37
598.397	11.45
598.59	11.55
598.783	11.59
598.976	11.68
599.169	12.07
599.362	11.98
599.555	11.95
599.748	12.19
599.941	11.91
600.134	11.82
600.326	11.74
600.519	11.73
600.712	11.55
600.905	11.63
601.098	11.52
601.291	11.51
601.483	11.61
601.676	11.76
601.869	11.53
602.062	11.64
602.255	11.9
602.447	11.92
602.64	11.98
602.833	11.69
603.025	11.51
603.218	11.36
603.411	11.15
603.603	11.05
603.796	10.95
603.989	10.88
604.181	10.85
604.374	10.68
604.566	10.67
604.759	10.69
604.951	10.82
605.144	10.97
605.336	11.01
605.529	11.18
605.721	11.38
605.914	11.37
606.106	11.52
606.299	11.59
606.491	11.55
606.683	11.54
606.876	11.42
607.068	11.46
607.26	11.33
607.453	11.54
607.645	11.47
607.837	11.35
608.03	11.28
608.222	11.3
608.414	11.36
608.606	11.54
608.799	11.38
608.991	11.59
609.183	11.75
609.375	11.75
609.567	11.69
609.759	11.6
609.952	11.64
610.144	11.81
610.336	11.87
610.528	11.75
610.72	11.71
610.912	11.78
611.104	11.82
611.296	11.65
611.488	11.63
611.68	11.6
611.872	11.52
612.064	11.52
612.256	11.37
612.448	11.35
612.64	11.42
612.832	11.35
613.023	11.53
613.215	11.52
613.407	11.7
613.599	12.01
613.791	12.09
613.983	12.21
614.174	11.99
614.366	12.06
614.558	12.07
614.75	12.15
614.941	12.22
615.133	12.13
615.325	11.8
615.516	11.77
615.708	11.69
615.9	11.83
616.091	11.83
616.283	12.16
616.475	12.21
616.666	12.18
616.858	12.27
617.049	12.02
617.241	11.85
617.432	11.99
617.624	11.81
617.815	11.63
618.007	11.46
618.198	11.49
618.39	11.35
618.581	11.06
618.773	11.12
618.964	10.73
619.155	10.77
619.347	11.03
619.538	11.25
619.729	11.47
619.921	11.33
620.112	11.33
620.303	11.25
620.494	11.21
620.686	11.53
620.877	11.45
621.068	11.78
621.259	11.84
621.451	11.4
621.642	10.95
621.833	10.86
622.024	10.99
622.215	10.87
622.406	10.93
622.597	10.96
622.788	10.85
622.98	10.71
623.171	10.55
623.362	10.64
623.553	10.9
623.744	11.11
623.935	11.02
624.126	10.91
624.317	11.02
624.508	10.68
624.698	10.48
624.889	10.54
625.08	10.84
625.271	10.88
625.462	11.13
625.653	11.07
625.844	10.95
626.034	11.11
626.225	11.56
626.416	11.4
626.607	11.49
626.798	11.89
626.988	11.8
627.179	11.53
627.37	11.41
627.56	11.14
627.751	11.28
627.942	11.42
628.132	11.46
628.323	11
628.514	11.23
628.704	11.71
628.895	11.48
629.085	11.65
629.276	12.17
629.466	12.25
629.657	12.51
629.847	12.6
630.038	12.5
630.228	12.36
630.419	12.84
630.609	12.77
630.8	12.53
630.99	12.46
631.181	12.46
631.371	11.97
631.561	12.23
631.752	11.83
631.942	11.85
632.132	11.75
632.323	12.21
632.513	11.79
632.703	11.88
632.893	12.1
633.084	12.2
633.274	12.02
633.464	11.95
633.654	11.94
633.844	12.23
634.034	12.41
634.225	12.57
634.415	11.93
634.605	12.07
634.795	12.14
634.985	11.9
635.175	11.88
635.365	12.19
635.555	12.61
635.745	12.46
635.935	12.22
636.125	11.65
636.315	11.7
636.505	11.93
636.695	12.06
636.885	12.05
637.075	12.08
637.265	12.25
637.455	11.92
637.644	11.49
637.834	11.66
638.024	11.62
638.214	11.72
638.404	11.41
638.593	11.27
638.783	11.18
638.973	10.82
639.163	10.73
639.352	10.59
639.542	10.55
639.732	10.42
639.921	10.18
640.111	10.55
640.301	10.61
640.49	10.6
640.68	11.06
640.87	10.93
641.059	11.13
641.249	11.08
641.438	11.01
641.628	11.21
641.817	11.27
642.007	11.36
642.196	11.41
642.386	12.12
642.575	12.95
642.764	12.21
642.954	12.3
643.143	12.06
643.333	12.03
643.522	12.11
643.711	12.07
643.901	12.14
644.09	12.36
644.279	12.55
644.469	12.21
644.658	11.65
644.847	11.8
645.036	11.84
645.226	12.14
645.415	12.44
645.604	12.26
645.793	12.31
645.982	12.52
646.171	12.43
646.361	12.17
646.55	11.98
646.739	12.46
646.928	12.9
647.117	12.93
647.306	12.82
647.495	12.5
647.684	12.78
647.873	12.53
648.062	12.62
648.251	12.75
648.44	12.63
648.629	12.81
648.818	12.44
649.007	12.18
649.196	12.64
649.384	12.95
649.573	13.09
649.762	12.7
649.951	13.18
650.14	13.49
650.328	13.26
650.517	13.46
650.706	13.13
650.895	13.36
651.083	13.58
651.272	13.11
651.461	12.96
651.65	13
651.838	13.31
652.027	12.82
652.216	12.74
652.404	12.85
652.593	12.44
652.781	12.3
652.97	12.13
653.158	12.22
653.347	12.26
653.535	12.09
653.724	11.91
653.912	11.78
654.101	11.78
654.289	11.33
654.478	11.34
654.666	12.03
654.855	12.27
655.043	12.51
655.231	13.23
655.42	13.18
655.608	13.82
655.796	13.95
655.985	13.88
656.173	14.24
656.361	14.07
656.55	14.15
656.738	13.35
656.926	13.36
657.114	13.02
657.302	12.28
657.491	12.49
657.679	12.28
657.867	12.38
658.055	12.59
658.243	12.79
658.431	13.37
658.619	13
658.807	13.35
658.996	13.31
659.184	13.53
659.372	13.28
659.56	13.01
659.748	12.93
659.936	12.73
660.124	12.54
660.311	12.39
660.499	12.36
660.687	12.62
660.875	12.72
661.063	12.81
661.251	12.77
661.439	13.02
661.627	13.22
661.814	13.04
662.002	13.06
662.19	13.2
662.378	12.87
662.565	12.49
662.753	12.28
662.941	12.45
663.129	12.25
663.316	12.21
663.504	11.8
663.692	12.27
663.879	12.81
664.067	13.14
664.254	13.08
664.442	12.93
664.63	13.24
664.817	13.61
665.005	13.44
665.192	13.77
665.38	13.44
665.567	13.22
665.755	12.49
665.942	12.5
666.13	12.41
666.317	12.77
666.504	13.01
666.692	12.79
666.879	12.48
667.067	12.4
667.254	12.08
667.441	12.73
667.629	13.35
667.816	13.78
668.003	13.42
668.19	13.61
668.378	13.5
668.565	13.9
668.752	14.05
668.939	14.09
669.127	14.33
669.314	14.89
669.501	14.61
669.688	14.36
669.875	13.94
670.062	13.98
670.249	13.81
670.436	13.74
670.623	13.55
670.81	13.34
670.997	13.63
671.184	12.95
671.371	12.42
671.558	11.96
671.745	12.63
671.932	13.18
672.119	13.19
672.306	12.73
672.493	12.26
672.68	12.36
672.867	12.82
673.054	12.48
673.24	12.81
673.427	12.59
673.614	12.81
673.801	12.22
673.988	11.79
674.174	11.58
674.361	12
674.548	12.4
674.734	12.44
674.921	12.19
675.108	12.57
675.294	12.91
675.481	13.67
675.668	13.82
675.854	14.07
676.041	14.28
676.227	14.49
676.414	14.61
676.601	14.83
676.787	14.78
676.974	14.58
677.16	15.05
677.347	14.96
677.533	15.13
677.719	15.32
677.906	15.29
678.092	15.05
678.279	14.99
678.465	15.15
678.651	15.07
678.838	15.06
679.024	14.85
679.21	14.23
679.397	14.31
679.583	13.54
679.769	13.34
679.955	13.15
680.142	13.41
680.328	13.29
680.514	13.17
680.7	13.11
680.886	13.36
681.073	13.12
681.259	13.28
681.445	13.27
681.631	13.41
681.817	13.68
682.003	13.71
682.189	13.87
682.375	14.23
682.561	14.26
682.747	14.55
682.933	14.16
683.119	14.31
683.305	14.07
683.491	13.74
683.677	13.88
683.863	13.63
684.049	14.1
684.235	13.67
684.42	13.38
684.606	13.29
684.792	12.81
684.978	12.71
685.164	12.71
685.349	12.94
685.535	13.13
685.721	13.46
685.907	13.11
686.092	12.87
686.278	13.05
686.464	12.81
686.649	12.89
686.835	12.83
687.021	12.99
687.206	13.75
687.392	13.05
687.577	12.69
687.763	12.56
687.948	12.8
688.134	13.09
688.319	13.64
688.505	13.79
688.69	13.77
688.876	14.34
689.061	14.41
689.247	14.19
689.432	14.77
689.618	14.85
689.803	14.92
689.988	14.9
690.174	14.37
690.359	13.82
690.544	13.68
690.73	13.59
690.915	13.48
691.1	13.79
691.285	13.79
691.471	13.29
691.656	13.54
691.841	13.02
692.026	12.94
692.211	13.21
692.396	13.06
692.582	13.21
692.767	13.08
692.952	12.9
693.137	12.28
693.322	12.01
693.507	12.69
693.692	13.12
693.877	13.24
694.062	13.95
694.247	13.58
694.432	13.43
694.617	14.02
694.802	14.21
694.987	13.97
695.172	14.03
695.357	14.38
695.541	14.76
695.726	14.37
695.911	14.52
696.096	14.23
696.281	14.39
696.466	14.71
696.65	14.15
696.835	13.86
697.02	14.18
697.204	14.31
697.389	14.69
697.574	14.49
697.759	14.27
697.943	14.34
698.128	14.39
698.312	14.57
698.497	14.64
698.682	14.64
698.866	14.97
699.051	15.09
699.235	15.26
699.42	15
699.604	14.92
699.789	15.26
699.973	15.5
700.158	15.74
700.342	15.75
700.527	15.59
700.711	16.08
700.895	15.91
701.08	15.73
701.264	15.68
701.448	15.61
701.633	15.4
701.817	15.89
702.001	15.83
702.186	14.81
702.37	14.67
702.554	15.06
702.738	14.68
702.923	15.25
703.107	14.89
703.291	14.56
703.475	14.68
703.659	14.35
703.843	13.31
704.027	13.11
704.212	14.19
704.396	13.35
704.58	13.5
704.764	13.68
704.948	13.15
705.132	13.47
705.316	13.69
705.5	13.01
705.684	13.99
705.868	14.65
706.052	14.54
706.235	14.18
706.419	14.88
706.603	14.91
706.787	14.95
706.971	14.9
707.155	14.38
707.339	14.48
707.522	14.58
707.706	13.82
707.89	13.22
708.074	13.69
708.257	14.05
708.441	14.57
708.625	14.03
708.808	14.5
708.992	14.73
709.176	14.78
709.359	14.36
709.543	14.86
709.727	15.68
709.91	15.59
710.094	15.58
710.277	14.67
710.461	14.14
710.644	14.4
710.828	14.14
711.011	14.36
711.195	15.04
711.378	15.61
711.562	15.59
711.745	15.34
711.928	15.73
712.112	15.14
712.295	15.65
712.478	15.27
712.662	15.44
712.845	14.9
713.028	14.97
713.212	15.09
713.395	14.3
713.578	14.46
713.761	14.28
713.945	14.73
714.128	14.97
714.311	15.36
714.494	16.5
714.677	15.44
714.86	15.35
715.043	15.33
715.227	15.05
715.41	15.73
715.593	15.42
715.776	15.25
715.959	15.61
716.142	15.52
716.325	15.23
716.508	14.62
716.691	15.25
716.874	14.85
717.057	14.63
717.239	14.32
717.422	14.48
717.605	14.64
717.788	14.73
717.971	14.02
718.154	14.71
718.337	14.6
718.519	14.42
718.702	14.71
718.885	14.91
719.068	15.16
719.25	15.85
719.433	15.39
719.616	15.63
719.798	15.02
719.981	14.74
720.164	15.01
720.346	14.74
720.529	15.02
720.712	14.72
720.894	15.24
721.077	14.04
721.259	13.31
721.442	13.88
721.624	13.31
721.807	13.7
721.989	13.26
722.172	12.72
722.354	13.39
722.537	13.92
722.719	14.06
722.901	13.75
723.084	14.38
723.266	15.71
723.448	14.76
723.631	15.63
723.813	15.83
723.995	15.52
724.178	15.36
724.36	14.91
724.542	14.22
724.724	14.22
724.907	15.38
725.089	16.17
725.271	15.89
725.453	17.4
725.635	16.22
725.817	16.01
725.999	16.6
726.181	16.56
726.364	17.19
726.546	16.84
726.728	17.98
726.91	17.35
727.092	17.54
727.274	16.89
727.456	16.05
727.638	16.88
727.819	16.72
728.001	16.56
728.183	16.36
728.365	16.68
728.547	16.78
728.729	16.08
728.911	16.62
729.093	16.4
729.274	16.42
729.456	16.64
729.638	15.58
729.82	15.75
730.001	15.89
730.183	15.55
730.365	15.48
730.546	15.48
730.728	15.19
730.91	13.82
731.091	12.81
731.273	13.41
731.455	12.86
731.636	14.4
731.818	14.13
731.999	14.2
732.181	14.74
732.362	14.21
732.544	14.81
732.725	15.29
732.907	16.08
733.088	16.4
733.27	15.11
733.451	15.71
733.633	16.19
733.814	16.49
733.995	16.77
734.177	16.33
734.358	17.03
734.539	16.8
734.721	16.04
734.902	16.52
735.083	16.19
735.264	16.8
735.446	16.7
735.627	16.26
735.808	14.87
735.989	14.03
736.17	14.06
736.351	13.2
736.533	13.71
736.714	13.47
736.895	12.67
737.076	12.75
737.257	12.74
737.438	12.96
737.619	10.94
737.8	12.24
737.981	12.41
738.162	12.21
738.343	11.98
738.524	11.01
738.705	11.78
738.886	11.87
739.067	12.32
739.247	12.19
739.428	13.03
739.609	13.91
739.79	15.64
739.971	15.31
740.151	15.96
740.332	15.78
740.513	16.44
740.694	17.7
740.874	18.7
741.055	19.32
741.236	19.72
741.417	18.87
741.597	17.79
741.778	17.45
741.958	19.34
742.139	19.92
742.32	20.36
742.5	20.91
742.681	19.49
742.861	18
743.042	17.74
743.222	18.74
743.403	19.14
743.583	21.28
743.764	21.75
743.944	21.52
744.124	21.27
744.305	20.66
744.485	21.07
744.666	20.57
744.846	21.38
745.026	20.21
745.207	19.61
745.387	19.27
745.567	18.68
745.747	18.49
745.928	18.55
746.108	18.39
746.288	18.57
746.468	17.16
746.648	17.26
746.829	18.1
747.009	19.54
747.189	19.09
747.369	19.33
747.549	18.73
747.729	17.89
747.909	15.86
748.089	16.25
748.269	16.24
748.449	15.62
748.629	16.3
748.809	15.79
748.989	16.34
749.169	15.6
749.349	14.19
749.529	15.46
749.709	16.13
749.889	18.62
750.068	16.94
750.248	17.68
750.428	18.54
750.608	18.97
750.788	19.69
750.967	17.43
751.147	17.79
751.327	17.37
751.507	16.47
751.686	15.95
751.866	14.49
752.046	16.33
752.225	15.37
752.405	15.24
752.585	15.45
752.764	14.75
752.944	15.09
753.123	16.71
753.303	17.66
753.482	17.45
753.662	17.91
753.841	18.18
754.021	18.19
754.2	19.12
754.38	19.94
754.559	18.75
754.739	18.71
754.918	20.68
755.097	18.83
755.277	19.36
755.456	18.89
755.635	18.33
755.815	18.9
755.994	18.3
756.173	17.77
756.352	18.17
756.532	18.54
756.711	19.36
756.89	18.47
757.069	19.7
757.248	19.21
757.427	20.53
757.607	19.63
757.786	18.23
757.965	17.68
758.144	19.11
758.323	18.12
758.502	17.78
758.681	16.73
758.86	16.98
759.039	16.25
759.218	16.19
759.397	15.22
759.576	17.16
759.755	19.1
759.934	19.81
760.113	18.66
760.291	19.32
760.47	19.56
760.649	20.24
760.828	20.08
761.007	20.56
761.186	21.29
761.364	20.61
761.543	18.24
761.722	18.57
761.901	19.05
762.079	18.97
762.258	18.81
762.437	19.28
762.615	18.58
762.794	18.01
762.972	18.2
763.151	16.77
763.33	17.37
763.508	18.61
763.687	16.95
763.865	15.71
764.044	15.61
764.222	15.08
764.401	15.15
764.579	15.33
764.758	15.79
764.936	16.18
765.114	17.43
765.293	17.46
765.471	16.62
765.65	17.37
765.828	18.43
766.006	18.19
766.184	18.29
766.363	16.94
766.541	17.23
766.719	16.83
766.898	15.51
767.076	14.65
767.254	16.22
767.432	15.78
767.61	16.09
767.788	16.04
767.967	16
768.145	16.48
768.323	17.73
768.501	18.52
768.679	17.85
768.857	17.25
769.035	18.3
769.213	16.35
769.391	17.3
769.569	16.29
769.747	16.96
769.925	16.81
770.103	17.89
770.281	17.21
770.459	17.19
770.636	17.59
770.814	20.17
770.992	19.9
771.17	21.06
771.348	22.19
771.525	22.59
771.703	22.22
771.881	23.17
772.059	21.45
772.236	21.27
772.414	19.31
772.592	19.84
772.769	20.74
772.947	20.85
773.125	20.43
773.302	20.84
773.48	21.53
773.657	21.05
773.835	20.05
774.013	21.05
774.19	20.59
774.368	21.14
774.545	20.64
774.723	19.5
774.9	18.93
775.077	19.85
775.255	19.29
775.432	18.93
775.61	18.08
775.787	18.86
775.964	18.49
776.142	19.38
776.319	20.43
776.496	20.32
776.674	17.64
776.851	17.29
777.028	15.97
777.205	16.19
777.382	16.56
777.56	17.69
777.737	20.18
777.914	21.56
778.091	23.6
778.268	24.04
778.445	23.75
778.622	26.01
778.8	27.24
778.977	25.83
779.154	23.28
779.331	23.11
779.508	22.85
779.685	20.68
779.862	19.4
780.038	16.22
780.215	15.16
780.392	17.04
780.569	16.13
780.746	15.47
780.923	17.2
781.1	19.91
781.277	18.73
781.453	19.55
781.63	21.16
781.807	20.17
781.984	23.22
782.16	24.55
782.337	21.96
782.514	24.07
782.691	24.03
782.867	23.97
783.044	22.2
783.221	26.42
783.397	26.78
783.574	26.95
783.75	28.2
783.927	26.83
784.103	24.17
784.28	27.48
784.456	23.51
784.633	23.6
784.809	24.72
784.986	25.65
785.162	20.83
785.339	19.77
785.515	20.62
785.692	17.71
785.868	18.24
786.044	20.03
786.221	18.17
786.397	21.85
786.573	21.83
786.749	17.33
786.926	17.96
787.102	19.41
787.278	21.14
787.454	17.31
787.631	18.71
787.807	18.61
787.983	19.45
788.159	21.17
788.335	20.74
788.511	20
788.687	22.49
788.863	19.38
789.039	19.17
789.216	16.15
789.392	18.06
789.568	19.1
789.744	18.82
789.919	19.05
790.095	17.85
790.271	16.45
790.447	16.26
790.623	16.88
790.799	20.77
790.975	23.23
791.151	21.78
791.327	21.05
791.502	22.26
791.678	24.41
791.854	21.82
792.03	21.01
792.205	21.66
792.381	23.64
792.557	20.84
792.733	17.98
792.908	16.19
793.084	19.79
793.259	21.27
793.435	20.89
793.611	18.68
793.786	19.86
793.962	20.05
794.137	21.15
794.313	19.94
794.488	21.69
794.664	24.25
794.839	21.93
795.015	20.26
795.19	20.13
795.366	19.15
795.541	21.28
795.716	22.64
795.892	22.04
796.067	19.6
796.242	19.69
796.418	19.75
796.593	17.3
796.768	18.58
796.944	18.7
797.119	17.96
797.294	18.03
797.469	18.09
797.644	13.84
797.82	15.14
797.995	16.56
798.17	17.58
798.345	19.07
798.52	23.75
798.695	23.6
798.87	21.73
799.045	22.18
799.22	20.41
799.395	16.63
799.57	18.6
799.745	20.48
799.92	20.97
800.095	18.51
800.27	16.63
800.445	14.34
800.62	16.14
800.795	16.72
800.97	18.21
801.145	21.24
801.319	20.39
801.494	22.79
801.669	23.42
801.844	21.43
802.018	18.98
802.193	18.5
802.368	16.38
802.543	13.91
802.717	12.5
802.892	11.85
803.067	12.13
803.241	12.45
803.416	11.28
803.59	12.48
803.765	13.25
803.94	18.26
804.114	18.05
804.289	17.22
804.463	17.81
804.638	22.3
804.812	24.01
804.986	21.39
805.161	24.36
805.335	24.78
805.51	19.2
805.684	22.03
805.858	19.12
806.033	23.74
806.207	27.51
806.381	26.83
806.556	24.49
806.73	18.34
806.904	18.65
807.078	16.16
807.253	16.49
807.427	16.25
807.601	13.95
807.775	16.35
807.949	13.68
808.123	11.86
808.298	14.19
808.472	15.28
808.646	19.65
808.82	18.84
808.994	20.1
809.168	20.33
809.342	23.08
809.516	24.46
809.69	23.59
809.864	24.86
810.038	27.25
810.212	27.85
810.385	27.38
810.559	29.05
810.733	31.2
810.907	31.75
811.081	29.77
811.255	27.96
811.428	28.73
811.602	30.32
811.776	31.07
811.95	23.79
812.123	25.98
812.297	29.84
812.471	30.39
812.644	30.44
812.818	30.73
812.992	32.02
813.165	32.69
813.339	28.66
813.512	25.2
813.686	22.12
813.86	26.01
814.033	19.27
814.207	12.54
814.38	10.02
814.554	8.39
814.727	4.41
814.9	-0.66
815.074	-0.9
815.247	1.16
815.421	3.72
815.594	8.11
815.767	7.47
815.941	11.75
816.114	11.28
816.287	9.73
816.46	8.55
816.634	13.7
816.807	17.41
816.98	18.51
817.153	19.67
817.327	19.97
817.5	17.76
817.673	20.26
817.846	17.6
818.019	22.32
818.192	25.97
818.365	25.71
818.538	24.71
818.711	22.29
818.884	21.61
819.057	22.41
819.23	22.29
819.403	22.8
819.576	23.57
819.749	27.32
819.922	24.71
820.095	20.27
820.268	18.61
820.441	22.38
820.614	23.73
820.786	25.25
820.959	24.54
821.132	24.91
821.305	24.59
821.477	25.56
821.65	23.88
821.823	25.43
821.996	24.6
822.168	24.58
822.341	23.13
822.514	21.98
822.686	22.11
822.859	21.26
823.031	21.07
823.204	21.51
823.376	20.05
823.549	20.23
823.722	19.45
823.894	19.37
824.067	19.55
824.239	19.56
824.411	21.01
824.584	19.79
824.756	20.99
824.929	20.09
825.101	19.16
825.273	20.21
825.446	19.79
825.618	18.88
825.79	20.31
825.963	20.62
826.135	22.37
826.307	21.41
826.479	23.29
826.652	22.05
826.824	22.9
826.996	24.13
827.168	25.22
827.34	23.5
827.512	24.91
827.684	24.49
827.856	23.78
828.029	23.11
828.201	22.28
828.373	20.88
828.545	22.34
828.717	22.41
828.889	20.43
829.061	18.15
829.232	21.04
829.404	19.23
829.576	21.39
829.748	23.1
829.92	18.12
830.092	19.31
830.264	19.32
830.436	15.97
830.607	16.19
830.779	16.55
830.951	19.6
831.123	18.27
831.294	21.98
831.466	18.56
831.638	14
831.809	19.27
831.981	18.64
832.153	19.6
832.324	19.66
832.496	16.54
832.667	14.91
832.839	8.66
833.011	10.74
833.182	9.8
833.354	11.62
833.525	15.81
833.697	17.57
833.868	17.25
834.039	17.4
834.211	16.14
834.382	17.87
834.554	19.12
834.725	19.36
834.896	17.87
835.068	19.53
835.239	19.92
835.41	16.72
835.581	14.9
835.753	15.73
835.924	11.01
836.095	13.55
836.266	14.88
836.438	15.5
836.609	18.32
836.78	17.98
836.951	18.51
837.122	15.19
837.293	19.54
837.464	24.18
837.635	23.95
837.806	27.85
837.977	32.13
838.148	26
838.319	26.66
838.49	26.56
838.661	26.24
838.832	18.96
839.003	22.02
839.174	20.9
839.345	14.5
839.516	13.11
839.687	15.96
839.857	10.84
840.028	19.36
840.199	19.28
840.37	22.34
840.54	23.82
840.711	27.47
840.882	26.94
841.053	24.16
841.223	25.47
841.394	30.73
841.564	31.85
841.735	27.8
841.906	26.55
842.076	25.76
842.247	23.02
842.417	28.22
842.588	22.97
842.758	24.61
842.929	29.68
843.099	33.47
843.27	32.19
843.44	32.35
843.611	34.22
843.781	35.41
843.951	31.41
844.122	24.22
844.292	21.44
844.462	33.5
844.633	30.26
844.803	28.68
844.973	22.73
845.144	21.95
845.314	22.15
845.484	24.33
845.654	21.17
845.824	27.73
845.995	38.61
846.165	28.18
846.335	14.33
846.505	25.5
846.675	20.8
846.845	17
847.015	12.23
847.185	10.02
847.355	11.93
847.525	11.41
847.695	32.14
847.865	20.62
848.035	28.29
848.205	32.89
848.375	18.06
848.545	28.47
848.715	23.23
848.884	22.39
849.054	25.64
849.224	19.88
849.394	33.71
849.564	12.36
849.733	0.04
849.903	21.52
850.073	23.44
850.243	32.36
850.412	33.01
850.582	44.07
850.752	47.85
850.921	54.89
851.091	55.78
851.26	34.26
851.43	44.6
851.599	49.59
851.769	41.94
851.939	44.67
852.108	40.8
852.278	33.63
852.447	32.47
852.616	42.21
852.786	29.4
852.955	47.13
853.125	70.55
853.294	65.07
853.463	43.49
853.633	46.9
853.802	51.26
853.971	43.83
854.141	54.92
854.31	58.8
854.479	48.48
854.648	50.99
854.818	44.03
854.987	34.4
855.156	35.99
855.325	54.6
855.494	62.33
855.663	54.74
855.832	69.09
856.001	67.35
856.171	70.76
856.34	75.08
856.509	73.58
856.678	71
856.847	78.86
857.016	75.67
857.185	64.14
857.353	59.46
857.522	83.57
857.691	74.93
857.86	91.94
858.029	69.28
858.198	62.97
858.367	70.04
858.535	73.31
858.704	73.85
858.873	82.28
859.042	80.49
859.21	65.59
859.379	52.1
859.548	52.11
859.717	39.14
859.885	46.33
860.054	58.79
860.222	49.69
860.391	42.81
860.56	38.3
860.728	44.44
860.897	46.26
861.065	58.72
861.234	61.48
861.402	59.68
861.571	56.36
861.739	57.46
861.908	41.42
862.076	30.97
862.244	32.9
862.413	53.43
862.581	38.17
862.749	35.41
862.918	7.97
863.086	15.61
863.254	14.6
863.423	8.16
863.591	-5.31
863.759	2.25
863.927	23.39
864.096	22.47
864.264	20.52
864.432	25.55
864.6	36.49
864.768	45.84
864.936	42.91
865.104	35.46
865.272	60.13
865.44	62.54
865.608	58.18
865.776	67.36
865.944	84.1
866.112	65.56
866.28	51.45
866.448	32.47
866.616	45.34
866.784	39.52
866.952	54.41
867.12	18.94
867.288	18.53
867.455	23.3
867.623	7.2
867.791	5.54
867.959	13.61
868.127	5.28
868.294	14.61
868.462	8.8
868.63	-0.11
868.797	-23.81
868.965	-9.7
869.133	-3.59
869.3	3.55
869.468	1.36
869.636	17.64
869.803	3.38
869.971	14
870.138	18.81
870.306	20.13
870.473	12.71
870.641	23.49
870.808	33.44
870.975	30.51
871.143	35.65
871.31	35.9
871.478	34.21
871.645	40.06
871.812	44.78
871.98	47.93
872.147	60.91
872.314	68.43
872.482	80.91
872.649	92.88
872.816	76.61
872.983	73.34
873.15	83.83
873.318	59.75
873.485	75.68
873.652	47.61
873.819	53.4
873.986	30.19
874.153	31.38
874.32	27.44
874.487	15.77
874.654	28.97
874.821	32.83
874.988	30.44
875.155	56.07
875.322	52.21
875.489	68.81
875.656	61.33
875.823	62.61
875.99	75.58
876.157	69.23
876.324	71.12
876.49	67.98
876.657	60.81
876.824	50.34
876.991	43.91
877.157	48.26
877.324	40.59
877.491	47.71
877.658	46.61
877.824	39.51
877.991	35.56
878.157	46.7
878.324	32.51
878.491	28.68
878.657	47.34
878.824	41.34
878.99	44.1
879.157	32.61
879.323	11.08
879.49	1.18
879.656	8.83
879.823	16.75
879.989	-17.81
880.156	-2.95
880.322	0.35
880.488	-14.28
880.655	-3.07
880.821	-17.93
880.987	-0.55
881.154	-2.04
881.32	2.25
881.486	13.51
881.652	10.2
881.819	9.02
881.985	13.5
882.151	15
882.317	15.52
882.483	13.49
882.649	16.41
882.816	16.13
882.982	22.62
883.148	24.83
883.314	19.35
883.48	20.63
883.646	22.05
883.812	24.32
883.978	25.12
884.144	26.55
884.31	27.42
884.476	27.1
884.642	27.53
884.807	24.52
884.973	28.46
885.139	32.41
885.305	32.46
885.471	32.24
885.637	30.99
885.802	30.78
885.968	28.84
886.134	32.13
886.3	32.86
886.465	30.82
886.631	35.05
886.797	34.12
886.962	34.08
887.128	31.81
887.293	32.68
887.459	29.05
887.625	28.9
887.79	30.28
887.956	25.56
888.121	25.29
888.287	29.4
888.452	25.48
888.618	19.54
888.783	13.9
