Data from 2938023_Reflection_3.txt Node
Date: Sun Jul 12 15:22:28 EDT 2015
User: robert
Spectrometer: USB4E03001
Autoset integration time: false
Trigger mode: 4
Integration Time (sec): 1.000000E-1
Scans to average: 10
Electric dark correction enabled: true
Nonlinearity correction enabled: false
Boxcar width: 5
Stray light correction enabled: false
XAxis mode: Wavelengths
Stop averaging: false
Number of Pixels in Spectrum: 3648
>>>>>Begin Spectral Data<<<<<
177.566	-59.97
177.785	-2.27
178.005	-136.17
178.225	20.53
178.445	204.46
178.665	396.93
178.885	960.34
179.105	-657.42
179.324	-1034.67
179.544	-109.4
179.764	15.73
179.984	15.44
180.204	94.84
180.423	95.63
180.643	213.56
180.863	422.51
181.083	295.46
181.302	879.47
181.522	172.22
181.742	119.35
181.961	-11.35
182.181	20.29
182.401	63.31
182.621	130.08
182.84	191.31
183.06	98.73
183.279	103.74
183.499	84.29
183.719	21.47
183.938	74.85
184.158	71.01
184.377	78.64
184.597	89.17
184.816	54.86
185.036	47.81
185.256	44.34
185.475	56.08
185.695	15.58
185.914	35.08
186.134	54.84
186.353	77.34
186.572	95.99
186.792	101.43
187.011	85.82
187.231	1117.73
187.45	83.37
187.67	-2.91
187.889	19.77
188.108	43.29
188.328	20.16
188.547	51.46
188.766	-23.29
188.986	-263.93
189.205	681.8
189.424	1482.44
189.644	5156.72
189.863	3924.73
190.082	170.23
190.302	163.19
190.521	-1055.96
190.74	53.57
190.959	18.82
191.178	95.67
191.398	50.2
191.617	43.56
191.836	50.11
192.055	49.81
192.274	58.23
192.494	63.55
192.713	60.35
192.932	58.15
193.151	68.84
193.37	74.16
193.589	57.65
193.808	80.47
194.027	127
194.246	273.55
194.465	813.79
194.685	-391.39
194.904	-94.78
195.123	-149.02
195.342	-100.88
195.561	-56.13
195.78	14.88
195.999	-0.16
196.218	43.31
196.436	97.09
196.655	596.04
196.874	785.2
197.093	5194.44
197.312	-378.92
197.531	3218.18
197.75	-120.18
197.969	-98.16
198.188	-62.86
198.407	61.21
198.625	92.7
198.844	73.73
199.063	87.88
199.282	109.55
199.501	86.03
199.719	92.09
199.938	82.48
200.157	112.26
200.376	88.98
200.594	86.34
200.813	78.07
201.032	73.9
201.251	91.85
201.469	57.94
201.688	41.95
201.907	-0.38
202.125	-341.47
202.344	487
202.563	-711.05
202.781	1501.91
203	576.69
203.218	241.72
203.437	499.27
203.656	998.7
203.874	-541.04
204.093	-118.07
204.311	-33.3
204.53	-28.23
204.748	-35.05
204.967	-16.25
205.185	-16
205.404	-27.89
205.622	10.5
205.841	29.74
206.059	24.38
206.278	16.98
206.496	-25.93
206.715	-18.46
206.933	-8.44
207.151	12.33
207.37	5.37
207.588	-3.05
207.806	1.67
208.025	-34.64
208.243	-75.11
208.461	-51.48
208.68	-93.28
208.898	-14.37
209.116	-10.41
209.335	-17.29
209.553	-19.35
209.771	-20.8
209.989	-18.64
210.208	-7
210.426	-17.78
210.644	27.29
210.862	34.8
211.081	52.86
211.299	50.74
211.517	53.33
211.735	47.22
211.953	22.94
212.171	2.62
212.39	42.71
212.608	32.49
212.826	67.84
213.044	8.16
213.262	-141.55
213.48	988.32
213.698	-365.89
213.916	-80.04
214.134	-88.25
214.352	-91.27
214.57	-83.58
214.788	-90.91
215.006	-61.55
215.224	-278.77
215.442	-191.21
215.66	-6.89
215.878	-74.58
216.096	-76.87
216.314	-106.67
216.532	-3.57
216.75	49.7
216.968	30.06
217.185	107.19
217.403	98.22
217.621	84.35
217.839	112.79
218.057	126.17
218.275	102.54
218.492	70.53
218.71	68.93
218.928	68.96
219.146	45.91
219.363	39.44
219.581	24.65
219.799	38.88
220.017	52.19
220.234	43.38
220.452	33.15
220.67	22.08
220.887	7.99
221.105	-22.36
221.323	-8.62
221.54	5.23
221.758	21.74
221.976	34.71
222.193	11.61
222.411	-29.56
222.629	-27.94
222.846	-31.7
223.064	-0.46
223.281	16.31
223.499	38.27
223.716	20.2
223.934	28.43
224.151	5.24
224.369	0.41
224.586	14.53
224.804	27.04
225.021	5.69
225.239	-8.16
225.456	-17.49
225.674	-4.1
225.891	-4.84
226.108	-3.68
226.326	-1.22
226.543	14.88
226.76	20.18
226.978	21.01
227.195	23.57
227.413	22.36
227.63	23.91
227.847	24.62
228.064	20.61
228.282	19.46
228.499	21.63
228.716	21.05
228.934	17.22
229.151	13.14
229.368	13.82
229.585	10.35
229.802	12.61
230.02	14.14
230.237	10.08
230.454	8.5
230.671	8.83
230.888	6.04
231.105	6.78
231.323	6.61
231.54	8.64
231.757	10.91
231.974	13.83
232.191	15.66
232.408	15.24
232.625	13.63
232.842	9.09
233.059	-1.7
233.276	2.93
233.493	5.44
233.71	6.09
233.927	4.28
234.144	-0.36
234.361	6.72
234.578	-0.45
234.795	-0.5
235.012	4.19
235.229	7.46
235.446	22.58
235.663	24.24
235.879	14.64
236.096	13.79
236.313	13.24
236.53	17.06
236.747	13.41
236.964	16.04
237.181	14.58
237.397	15.08
237.614	15.64
237.831	3.93
238.048	3.73
238.264	6.75
238.481	11.1
238.698	14.22
238.915	8.04
239.131	2.65
239.348	7.13
239.565	10.41
239.781	20.74
239.998	20.89
240.215	24.01
240.431	22.4
240.648	24.71
240.865	20.1
241.081	19.98
241.298	21.18
241.514	23.32
241.731	23.15
241.947	20.74
242.164	17.11
242.38	16.62
242.597	16.51
242.814	15.74
243.03	15.57
243.246	17.74
243.463	15.63
243.679	14.61
243.896	14.04
244.112	11.26
244.329	13.26
244.545	12.5
244.762	12.92
244.978	10.05
245.194	11.04
245.411	11.43
245.627	10.23
245.843	11.31
246.06	14.54
246.276	14.88
246.492	15.34
246.709	13.04
246.925	12
247.141	13.17
247.357	14.53
247.574	14.11
247.79	12.11
248.006	12.74
248.222	12.55
248.439	10.37
248.655	10.57
248.871	10.14
249.087	11.22
249.303	12.52
249.519	11.55
249.736	9.26
249.952	9.3
250.168	12.17
250.384	11.86
250.6	13.63
250.816	18.25
251.032	16.59
251.248	16.73
251.464	17.79
251.68	17.26
251.896	13.02
252.112	14.18
252.328	12.11
252.544	11.28
252.76	10.44
252.976	8.53
253.192	4.21
253.408	5.12
253.624	7.25
253.84	5.69
254.056	4.57
254.272	7.23
254.487	5.28
254.703	4.22
254.919	7.4
255.135	4.7
255.351	5.97
255.567	12.28
255.782	7.63
255.998	4.59
256.214	4.89
256.43	4.97
256.646	4.73
256.861	3.54
257.077	4.43
257.293	2.83
257.508	1.45
257.724	0.45
257.94	1.62
258.155	2.6
258.371	3.88
258.587	3.88
258.802	4.79
259.018	4.36
259.234	6.41
259.449	7.23
259.665	7.53
259.88	8.24
260.096	8.13
260.312	7.96
260.527	7.83
260.743	7.41
260.958	8.69
261.174	8.17
261.389	8.64
261.605	7.27
261.82	6.9
262.036	5.59
262.251	6.78
262.466	9.21
262.682	7.28
262.897	6.74
263.113	8.79
263.328	8.42
263.543	9.21
263.759	10.41
263.974	11.78
264.189	10.58
264.405	11.5
264.62	10.08
264.835	8.02
265.051	9.05
265.266	11.68
265.481	11.08
265.696	10.77
265.912	11.63
266.127	11.08
266.342	11.95
266.557	12.14
266.773	13.21
266.988	11.83
267.203	13.24
267.418	12.21
267.633	13.79
267.848	12.28
268.064	11.88
268.279	10.8
268.494	10.02
268.709	9.98
268.924	9.64
269.139	10.97
269.354	13.01
269.569	9.99
269.784	9.81
269.999	5.55
270.214	7.78
270.429	7.28
270.644	8.02
270.859	7.78
271.074	9.32
271.289	10.73
271.504	9.73
271.719	8.24
271.934	9.57
272.149	10.3
272.363	11.17
272.578	8.31
272.793	8.03
273.008	6.68
273.223	8.15
273.438	7.3
273.653	6.04
273.867	4.54
274.082	6.13
274.297	6.4
274.512	9.49
274.726	10.2
274.941	11.94
275.156	11.35
275.371	12.13
275.585	10.08
275.8	8.71
276.015	9.55
276.229	8.79
276.444	8.25
276.659	7.4
276.873	5.98
277.088	7.73
277.302	9.23
277.517	9.93
277.732	11.4
277.946	11.99
278.161	11.72
278.375	10.77
278.59	12.5
278.804	12.75
279.019	13.5
279.233	12.74
279.448	10.89
279.662	9.02
279.877	9.41
280.091	8.92
280.306	7.31
280.52	9.1
280.735	9.96
280.949	10.12
281.163	7.98
281.378	7.31
281.592	6.41
281.806	6.45
282.021	6.79
282.235	7.06
282.449	5.4
282.664	6.04
282.878	5.85
283.092	5.97
283.307	5.26
283.521	7.57
283.735	7.31
283.949	8.86
284.164	8.34
284.378	7.38
284.592	6.45
284.806	8.01
285.02	9.49
285.234	9.42
285.449	10.61
285.663	11.28
285.877	11.29
286.091	11.73
286.305	10.56
286.519	11.52
286.733	12.63
286.947	12.77
287.161	12.37
287.375	11.73
287.589	10.15
287.803	8.65
288.017	7.68
288.231	6.77
288.445	8.24
288.659	8.87
288.873	9.31
289.087	9.35
289.301	10.57
289.515	11.39
289.729	13
289.943	14.76
290.157	15.03
290.371	14.82
290.584	14.95
290.798	13.9
291.012	13.7
291.226	12.69
291.44	13.04
291.654	11.45
291.867	12.22
292.081	10.8
292.295	9.11
292.509	10.38
292.722	10.96
292.936	10.8
293.15	10.29
293.364	10.29
293.577	11.25
293.791	10.16
294.005	10.61
294.218	8.19
294.432	7.57
294.645	9.4
294.859	9.39
295.073	9.9
295.286	9.9
295.5	10.63
295.713	11.76
295.927	9.57
296.14	10.98
296.354	11.16
296.568	11.83
296.781	12.39
296.994	12.11
297.208	11.07
297.421	11.06
297.635	10.71
297.848	10.05
298.062	8.45
298.275	8.04
298.489	8.18
298.702	9.73
298.915	9.4
299.129	9.25
299.342	9.39
299.555	9.56
299.769	8.45
299.982	10.14
300.195	11.46
300.409	12.82
300.622	14.63
300.835	12.79
301.048	10.44
301.262	11.76
301.475	13.96
301.688	13.77
301.901	14.79
302.115	16.45
302.328	16.02
302.541	16.59
302.754	16.36
302.967	17.79
303.18	18.78
303.393	19.81
303.607	20.6
303.82	18.25
304.033	18.58
304.246	17.44
304.459	16.11
304.672	16.75
304.885	16.17
305.098	15.77
305.311	14.68
305.524	14.5
305.737	14.59
305.95	13.69
306.163	13.16
306.376	13.14
306.589	13.43
306.802	12.83
307.015	11.33
307.228	9.1
307.44	7.19
307.653	6.57
307.866	6.39
308.079	6.23
308.292	8.12
308.505	11.34
308.718	12.51
308.93	10.57
309.143	11.86
309.356	12.78
309.569	13.99
309.781	14.97
309.994	15.9
310.207	15.71
310.42	15.81
310.632	16.25
310.845	15.11
311.058	15.23
311.27	16.61
311.483	15.46
311.696	15.14
311.908	15.41
312.121	15.94
312.333	17.37
312.546	17.26
312.759	17.8
312.971	14.21
313.184	13.63
313.396	11.55
313.609	11.52
313.821	13.8
314.034	13.11
314.246	14.5
314.459	14.29
314.671	14.2
314.884	15.03
315.096	13.99
315.309	16.98
315.521	17.12
315.733	18.85
315.946	20.47
316.158	22.68
316.371	24.55
316.583	22.64
316.795	23.27
317.008	22.48
317.22	20.35
317.432	19.4
317.644	19.42
317.857	21.86
318.069	19.37
318.281	18.39
318.494	11.79
318.706	12.29
318.918	13.8
319.13	15.77
319.342	13.68
319.555	17.11
319.767	18.73
319.979	16.68
320.191	17.29
320.403	18.94
320.615	19.69
320.827	22.99
321.039	20.28
321.252	18.23
321.464	15.48
321.676	17.03
321.888	14.05
322.1	13.58
322.312	15.08
322.524	13.15
322.736	12.35
322.948	11.27
323.16	12.25
323.372	15.79
323.584	16.52
323.796	17.56
324.007	17.41
324.219	19.77
324.431	19.91
324.643	19.89
324.855	21.24
325.067	22.87
325.279	24.7
325.491	24.25
325.702	23.33
325.914	25.82
326.126	26.44
326.338	28.71
326.55	28.74
326.761	29.06
326.973	32.5
327.185	31.56
327.396	32.06
327.608	31.32
327.82	33.05
328.032	33.35
328.243	34.56
328.455	35.99
328.666	37.03
328.878	39.03
329.09	41.23
329.301	40.96
329.513	42.77
329.725	43.16
329.936	43.97
330.148	46.19
330.359	47.43
330.571	45.55
330.782	44.49
330.994	45.53
331.205	46.23
331.417	47.14
331.628	45.97
331.84	45.59
332.051	45.4
332.262	44.77
332.474	44.11
332.685	44.43
332.897	45.8
333.108	46.86
333.319	44.4
333.531	45.73
333.742	46.08
333.953	46.8
334.165	49.82
334.376	53.16
334.587	54.93
334.799	54.35
335.01	54.05
335.221	53.44
335.432	55.38
335.644	56.44
335.855	55.71
336.066	56.15
336.277	56.33
336.488	55.31
336.7	55.4
336.911	57.41
337.122	59.14
337.333	60.15
337.544	61.18
337.755	61.55
337.966	63.01
338.177	61.33
338.388	61.01
338.599	61.16
338.811	60.4
339.022	58.63
339.233	56.17
339.444	55.17
339.655	55.88
339.866	54.71
340.076	54.52
340.287	55.04
340.498	57.02
340.709	58.57
340.92	59.49
341.131	60.66
341.342	61.67
341.553	63.17
341.764	63.67
341.975	63.18
342.185	63.85
342.396	63.69
342.607	63.31
342.818	63.92
343.029	63.39
343.239	64.67
343.45	64.37
343.661	62.88
343.872	62.75
344.082	61.52
344.293	61.81
344.504	62.07
344.714	62.47
344.925	62.07
345.136	60.65
345.346	60.37
345.557	59.93
345.768	61.18
345.978	62.12
346.189	62.17
346.399	63.96
346.61	64.6
346.821	65.16
347.031	63.8
347.242	64.17
347.452	66.21
347.663	66.27
347.873	65.56
348.084	63.9
348.294	64.29
348.504	63.86
348.715	63.47
348.925	62.96
349.136	62.93
349.346	64.42
349.557	64.93
349.767	63.82
349.977	64.14
350.188	64.7
350.398	65.1
350.608	65.01
350.819	66.25
351.029	66.3
351.239	64.61
351.449	64.38
351.66	63.08
351.87	61.22
352.08	60.11
352.29	60.65
352.501	60.42
352.711	60.77
352.921	60.79
353.131	58.69
353.341	59.51
353.552	60.84
353.762	60.31
353.972	60.18
354.182	61.08
354.392	62.23
354.602	60.63
354.812	60.44
355.022	60.67
355.232	61.7
355.442	62.74
355.652	62.51
355.862	62.92
356.072	63.48
356.282	65.75
356.492	66.63
356.702	67.18
356.912	68.74
357.122	67.47
357.332	67.32
357.542	66.21
357.752	66.91
357.962	66.68
358.171	65.25
358.381	66.43
358.591	64.6
358.801	63.95
359.011	64.19
359.221	63.66
359.43	65.17
359.64	64.7
359.85	64.07
360.06	62.49
360.269	62.26
360.479	63.21
360.689	61.36
360.899	61.41
361.108	62.31
361.318	61.53
361.528	61.67
361.737	60.8
361.947	60.67
362.156	61.61
362.366	62.02
362.576	61.56
362.785	61.51
362.995	62.32
363.204	61.95
363.414	61.16
363.623	61.15
363.833	60.5
364.042	60.23
364.252	59.49
364.461	58.97
364.671	58.58
364.88	58.61
365.09	59.6
365.299	59.37
365.509	58.95
365.718	58.18
365.927	58.05
366.137	57.4
366.346	58.1
366.555	59.61
366.765	58.46
366.974	58.45
367.183	58.2
367.393	55.76
367.602	54.42
367.811	54.98
368.021	55.18
368.23	55.66
368.439	55.08
368.648	55.03
368.857	54.23
369.067	54.36
369.276	54.58
369.485	54.12
369.694	54.95
369.903	55.56
370.112	55.8
370.321	54.68
370.531	54.63
370.74	54.74
370.949	54.48
371.158	54.81
371.367	54.91
371.576	54.11
371.785	54.32
371.994	54.15
372.203	54.48
372.412	53.63
372.621	55.25
372.83	54.48
373.039	54.63
373.248	54.63
373.457	53.93
373.666	53.86
373.874	54.26
374.083	53.98
374.292	53.29
374.501	52.83
374.71	52.66
374.919	52.04
375.128	52.54
375.336	52.01
375.545	50.98
375.754	51.02
375.963	50.66
376.171	50.76
376.38	50.95
376.589	50.85
376.798	50.69
377.006	50.5
377.215	49.47
377.424	47.89
377.632	48.54
377.841	48.65
378.05	48.58
378.258	48.41
378.467	47.82
378.675	47.87
378.884	47.36
379.093	47.9
379.301	47.96
379.51	48.57
379.718	48.53
379.927	47.39
380.135	47.5
380.344	46.67
380.552	46.28
380.761	45.41
380.969	44.56
381.177	44.47
381.386	43.5
381.594	42.75
381.803	41.68
382.011	41.88
382.219	41.96
382.428	41.88
382.636	41.58
382.845	41.48
383.053	42.07
383.261	41.97
383.469	41.97
383.678	41.45
383.886	41.54
384.094	41.74
384.302	41.94
384.511	41.89
384.719	41.25
384.927	41.42
385.135	41.11
385.343	40.85
385.552	40.85
385.76	40.45
385.968	40.27
386.176	39.94
386.384	39.74
386.592	39.15
386.8	38.98
387.008	38.92
387.216	39.21
387.424	39.54
387.633	38.72
387.841	38.24
388.049	38.51
388.257	38.77
388.465	38.61
388.672	38.29
388.88	38.35
389.088	37.68
389.296	37.55
389.504	37.45
389.712	36.96
389.92	37.54
390.128	36.97
390.336	36.66
390.544	36.15
390.751	35.87
390.959	35.34
391.167	35.1
391.375	35.21
391.583	35.08
391.79	34.23
391.998	34.21
392.206	33.64
392.414	33.76
392.621	33.9
392.829	33.82
393.037	33.9
393.244	33.81
393.452	33.52
393.66	33.12
393.867	33.02
394.075	33.08
394.283	33.09
394.49	33.56
394.698	33.84
394.905	33.92
395.113	33.65
395.32	33.47
395.528	33.98
395.735	33.53
395.943	33.57
396.15	33.87
396.358	33.78
396.565	33.3
396.773	32.98
396.98	32.74
397.188	32.19
397.395	32.34
397.602	32.53
397.81	31.9
398.017	32.27
398.225	32.01
398.432	31.21
398.639	31.2
398.847	31.93
399.054	31.78
399.261	31.64
399.468	31.46
399.676	31.49
399.883	31.29
400.09	31.66
400.297	31.67
400.505	32.02
400.712	32.35
400.919	32.72
401.126	32.05
401.333	32.3
401.54	32.18
401.748	31.94
401.955	31.64
402.162	31.34
402.369	31.07
402.576	31.27
402.783	31.06
402.99	30.91
403.197	30.81
403.404	31.02
403.611	30.71
403.818	30.93
404.025	30.96
404.232	31.37
404.439	31.54
404.646	31.24
404.853	30.92
405.06	30.93
405.267	30.78
405.474	30.23
405.681	29.91
405.887	29.94
406.094	29.78
406.301	29.71
406.508	29.36
406.715	29.2
406.922	29.36
407.128	29.44
407.335	29.52
407.542	29.21
407.749	29.43
407.955	29.39
408.162	29.05
408.369	29.04
408.575	29.26
408.782	28.94
408.989	28.55
409.195	28.83
409.402	29.02
409.609	28.97
409.815	29.3
410.022	29.16
410.228	29.36
410.435	29.54
410.642	29.47
410.848	29.29
411.055	29.67
411.261	29.97
411.468	29.73
411.674	29.51
411.881	29.24
412.087	29.31
412.294	29.24
412.5	29.27
412.706	29.12
412.913	28.99
413.119	29.1
413.326	28.65
413.532	28.51
413.738	28.82
413.945	28.8
414.151	28.72
414.357	28.63
414.564	28.75
414.77	28.39
414.976	28.22
415.182	28.11
415.389	28.03
415.595	28.55
415.801	28.69
416.007	28.49
416.214	28.09
416.42	28.44
416.626	28.37
416.832	28.31
417.038	28.47
417.244	28.58
417.45	28.62
417.657	28.51
417.863	28.16
418.069	28.09
418.275	27.82
418.481	27.92
418.687	27.68
418.893	27.73
419.099	27.62
419.305	27.5
419.511	27.46
419.717	27.33
419.923	27.33
420.129	27.27
420.335	27.26
420.541	27.49
420.746	27.56
420.952	27.59
421.158	27.56
421.364	27.6
421.57	27.54
421.776	27.47
421.982	27.64
422.187	27.63
422.393	27.6
422.599	27.53
422.805	27.38
423.01	27.31
423.216	27.29
423.422	27.13
423.628	27.11
423.833	27.15
424.039	27.18
424.245	27.07
424.45	26.97
424.656	26.88
424.862	26.79
425.067	26.7
425.273	26.75
425.478	26.76
425.684	26.95
425.889	26.95
426.095	26.88
426.301	26.92
426.506	26.81
426.712	26.79
426.917	26.72
427.123	26.93
427.328	26.91
427.533	26.89
427.739	26.67
427.944	26.5
428.15	26.43
428.355	26.42
428.561	26.27
428.766	26.14
428.971	26.12
429.177	26.45
429.382	26.28
429.587	26.5
429.793	26
429.998	26.14
430.203	26.16
430.408	26.17
430.614	26.06
430.819	26.35
431.024	26.41
431.229	26.47
431.434	26.41
431.64	26.37
431.845	26.29
432.05	26.39
432.255	26.29
432.46	26.01
432.665	26.01
432.87	25.9
433.076	25.69
433.281	25.8
433.486	25.89
433.691	25.85
433.896	25.94
434.101	25.89
434.306	26.13
434.511	26.21
434.716	26.25
434.921	26.16
435.126	26.43
435.331	26.35
435.535	26.3
435.74	26.17
435.945	26.2
436.15	26.26
436.355	26.42
436.56	26.5
436.765	26.43
436.97	26.68
437.174	26.6
437.379	26.58
437.584	26.64
437.789	26.63
437.993	26.7
438.198	26.66
438.403	26.66
438.608	26.59
438.812	26.3
439.017	26.4
439.222	26.26
439.426	26.53
439.631	26.32
439.836	26.35
440.04	26.45
440.245	26.38
440.45	26.44
440.654	26.23
440.859	26.11
441.063	26.17
441.268	26.11
441.472	26.13
441.677	25.93
441.881	26.06
442.086	26.01
442.29	26.03
442.495	26.1
442.699	25.77
442.904	26.07
443.108	25.98
443.312	26.14
443.517	26.09
443.721	26.4
443.925	26.45
444.13	26.54
444.334	26.31
444.538	26.04
444.743	25.86
444.947	26.03
445.151	25.77
445.356	25.79
445.56	25.63
445.764	25.8
445.968	25.41
446.173	25.4
446.377	25.4
446.581	25.5
446.785	25.6
446.989	25.74
447.193	25.72
447.398	25.88
447.602	25.81
447.806	25.83
448.01	25.7
448.214	25.89
448.418	25.93
448.622	25.68
448.826	25.76
449.03	25.65
449.234	25.57
449.438	25.76
449.642	25.54
449.846	25.68
450.05	25.74
450.254	25.77
450.458	25.73
450.662	25.58
450.866	25.69
451.069	25.48
451.273	25.62
451.477	25.4
451.681	25.26
451.885	25.28
452.089	25.14
452.292	25.14
452.496	24.97
452.7	25.05
452.904	25.07
453.107	25.02
453.311	25.07
453.515	25.03
453.719	25.37
453.922	25.5
454.126	25.33
454.33	25.23
454.533	25.19
454.737	25.24
454.94	25.13
455.144	25.09
455.348	25.16
455.551	25.27
455.755	25.4
455.958	25.22
456.162	24.99
456.365	25.21
456.569	25.37
456.772	25.48
456.976	25.57
457.179	25.33
457.383	25.41
457.586	25.27
457.79	25.26
457.993	25.2
458.196	25.06
458.4	25.24
458.603	25.28
458.807	25.22
459.01	25.11
459.213	25.08
459.417	25.14
459.62	24.95
459.823	25.1
460.026	25.05
460.23	25.12
460.433	25.13
460.636	24.94
460.839	24.86
461.042	24.79
461.246	24.95
461.449	25.24
461.652	25.34
461.855	25.4
462.058	25.39
462.261	25.34
462.464	25.27
462.668	25.35
462.871	25.42
463.074	25.26
463.277	25.58
463.48	25.51
463.683	25.09
463.886	25.23
464.089	25.48
464.292	25.67
464.495	25.78
464.698	25.7
464.901	25.88
465.104	25.88
465.306	25.96
465.509	25.94
465.712	25.73
465.915	25.66
466.118	25.63
466.321	25.58
466.524	25.42
466.726	25.54
466.929	25.77
467.132	25.64
467.335	25.83
467.538	25.82
467.74	25.71
467.943	25.9
468.146	26.03
468.348	26.01
468.551	26.17
468.754	26.2
468.956	26.18
469.159	26.25
469.362	26.34
469.564	26.14
469.767	26.34
469.969	26.41
470.172	26.25
470.375	26.36
470.577	26.34
470.78	26.44
470.982	26.32
471.185	26.33
471.387	26.14
471.59	26.36
471.792	26.47
471.995	26.72
472.197	26.74
472.399	26.96
472.602	26.92
472.804	26.93
473.007	26.65
473.209	26.6
473.411	26.75
473.614	26.86
473.816	26.68
474.018	26.61
474.22	26.53
474.423	26.58
474.625	26.44
474.827	26.45
475.03	26.48
475.232	26.5
475.434	26.61
475.636	26.39
475.838	26.46
476.04	26.27
476.243	26.31
476.445	26.33
476.647	26.34
476.849	26.31
477.051	26.16
477.253	26.23
477.455	26.4
477.657	26.44
477.859	26.38
478.061	26.27
478.263	26.44
478.465	26.62
478.667	26.4
478.869	26.21
479.071	26.2
479.273	26.28
479.475	26.3
479.677	26.04
479.879	25.84
480.081	25.99
480.283	25.93
480.485	25.81
480.686	25.69
480.888	25.64
481.09	25.69
481.292	25.72
481.494	25.69
481.695	25.7
481.897	25.82
482.099	25.82
482.301	25.79
482.502	25.88
482.704	25.88
482.906	25.85
483.107	25.91
483.309	26.01
483.511	26.05
483.712	26.11
483.914	26.09
484.115	26.1
484.317	26.21
484.519	26.17
484.72	26.16
484.922	26.14
485.123	26.13
485.325	26.14
485.526	26
485.728	25.97
485.929	25.92
486.131	25.94
486.332	25.89
486.534	25.8
486.735	25.88
486.936	25.88
487.138	25.91
487.339	26.02
487.541	25.98
487.742	26.1
487.943	26.1
488.144	26.12
488.346	26.09
488.547	26.19
488.748	26.27
488.95	26.22
489.151	26.25
489.352	26.31
489.553	26.2
489.755	26.29
489.956	26.3
490.157	26.34
490.358	26.33
490.559	26.47
490.76	26.56
490.961	26.52
491.163	26.55
491.364	26.46
491.565	26.51
491.766	26.61
491.967	26.56
492.168	26.56
492.369	26.59
492.57	26.69
492.771	26.72
492.972	26.47
493.173	26.44
493.374	26.49
493.575	26.58
493.776	26.63
493.976	26.64
494.177	26.66
494.378	26.77
494.579	26.73
494.78	26.77
494.981	26.57
495.182	26.72
495.382	26.79
495.583	27.01
495.784	26.88
495.985	26.86
496.185	26.85
496.386	26.94
496.587	26.91
496.788	26.96
496.988	26.91
497.189	27.1
497.39	27.16
497.59	27.16
497.791	27.05
497.992	27.14
498.192	27.15
498.393	27.18
498.593	27.28
498.794	27.4
498.994	27.38
499.195	27.3
499.395	27.14
499.596	27.3
499.796	27.42
499.997	27.42
500.197	27.55
500.398	27.33
500.598	27.46
500.799	27.36
500.999	27.29
501.199	27.45
501.4	27.78
501.6	27.82
501.801	27.83
502.001	27.82
502.201	27.97
502.402	28
502.602	28.31
502.802	28.42
503.002	28.69
503.203	28.52
503.403	28.5
503.603	28.41
503.803	28.67
504.003	28.68
504.204	28.74
504.404	28.71
504.604	28.78
504.804	28.75
505.004	28.45
505.204	28.49
505.404	28.76
505.604	28.87
505.804	28.74
506.005	28.64
506.205	28.66
506.405	28.86
506.605	28.91
506.805	28.95
507.005	29.06
507.204	29.4
507.404	29.34
507.604	29.32
507.804	29.43
508.004	29.49
508.204	29.67
508.404	29.78
508.604	29.69
508.804	29.89
509.003	30.06
509.203	30.17
509.403	30.33
509.603	30.44
509.803	30.67
510.002	30.61
510.202	30.92
510.402	31.03
510.602	31.12
510.801	31.32
511.001	31.4
511.201	31.26
511.4	31.43
511.6	31.44
511.8	31.69
511.999	31.77
512.199	32.04
512.398	32.01
512.598	32.01
512.797	32.15
512.997	32.12
513.197	32.28
513.396	32.44
513.596	32.49
513.795	32.59
513.994	32.75
514.194	32.67
514.393	32.54
514.593	32.59
514.792	32.85
514.992	32.86
515.191	33.16
515.39	32.99
515.59	32.95
515.789	32.87
515.988	32.94
516.188	32.83
516.387	33.15
516.586	33.33
516.786	33.56
516.985	33.43
517.184	33.67
517.383	33.72
517.582	34
517.782	34.26
517.981	34.34
518.18	34.45
518.379	34.38
518.578	34.43
518.777	34.46
518.976	34.38
519.176	34.5
519.375	34.5
519.574	34.59
519.773	34.49
519.972	34.56
520.171	34.63
520.37	34.64
520.569	34.82
520.768	34.85
520.967	34.88
521.166	35.02
521.365	35.2
521.564	35.28
521.762	35.2
521.961	35.22
522.16	35.09
522.359	35.22
522.558	35.29
522.757	35.28
522.956	35.23
523.154	35.44
523.353	35.38
523.552	35.27
523.751	35.34
523.949	35.41
524.148	35.6
524.347	35.76
524.546	35.87
524.744	35.99
524.943	36.08
525.142	36.21
525.34	36.3
525.539	36.52
525.737	36.55
525.936	36.45
526.135	36.59
526.333	36.54
526.532	36.65
526.73	36.8
526.929	36.88
527.127	36.83
527.326	36.84
527.524	36.83
527.723	36.87
527.921	37.12
528.12	37.24
528.318	37.3
528.516	37.37
528.715	37.35
528.913	37.35
529.112	37.36
529.31	37.51
529.508	37.53
529.707	37.57
529.905	37.53
530.103	37.39
530.301	37.38
530.5	37.31
530.698	37.43
530.896	37.57
531.094	37.51
531.293	37.47
531.491	37.52
531.689	37.51
531.887	37.55
532.085	37.67
532.283	37.71
532.481	37.81
532.68	37.92
532.878	37.76
533.076	37.76
533.274	37.89
533.472	37.97
533.67	37.91
533.868	38
534.066	37.94
534.264	37.91
534.462	37.93
534.66	37.83
534.858	37.82
535.056	37.97
535.253	37.9
535.451	37.89
535.649	37.79
535.847	37.76
536.045	37.81
536.243	37.9
536.441	37.9
536.638	37.99
536.836	37.92
537.034	37.89
537.232	37.84
537.43	37.95
537.627	37.98
537.825	37.96
538.023	37.96
538.22	37.86
538.418	37.9
538.616	37.91
538.813	37.87
539.011	38.09
539.209	38.09
539.406	38.16
539.604	38.08
539.801	38.02
539.999	38.17
540.196	38.25
540.394	38.46
540.591	38.57
540.789	38.69
540.986	38.8
541.184	38.8
541.381	38.9
541.579	38.92
541.776	38.96
541.974	38.96
542.171	38.97
542.368	38.98
542.566	38.95
542.763	38.83
542.96	38.83
543.158	38.73
543.355	38.71
543.552	38.6
543.75	38.59
543.947	38.59
544.144	38.55
544.341	38.63
544.539	38.67
544.736	38.53
544.933	38.68
545.13	38.66
545.327	38.73
545.524	38.73
545.722	38.67
545.919	38.79
546.116	38.82
546.313	38.97
546.51	38.91
546.707	38.79
546.904	38.91
547.101	39
547.298	39.07
547.495	38.97
547.692	38.9
547.889	39.02
548.086	38.78
548.283	38.7
548.48	38.44
548.677	38.42
548.874	38.43
549.07	38.37
549.267	38.15
549.464	38.05
549.661	38.17
549.858	38.33
550.055	38.16
550.251	38.25
550.448	38.21
550.645	38.6
550.842	38.52
551.038	38.64
551.235	38.73
551.432	38.75
551.628	38.71
551.825	38.77
552.022	38.58
552.218	38.68
552.415	38.86
552.612	38.96
552.808	38.79
553.005	39.01
553.201	39.03
553.398	38.86
553.594	38.9
553.791	39.17
553.987	39.18
554.184	39.48
554.38	39.52
554.577	39.38
554.773	39.48
554.97	39.46
555.166	39.23
555.362	38.95
555.559	38.96
555.755	38.98
555.952	38.5
556.148	38.24
556.344	38.14
556.541	38.29
556.737	38.26
556.933	38.25
557.129	38.15
557.326	37.93
557.522	38.11
557.718	38.2
557.914	38
558.11	38.47
558.307	38.7
558.503	38.68
558.699	38.4
558.895	38.45
559.091	38.45
559.287	38.9
559.483	39.46
559.679	39.48
559.876	39.55
560.072	39.55
560.268	39.52
560.464	39.31
560.66	39.19
560.856	39.33
561.052	39.41
561.247	39.28
561.443	39.17
561.639	39.01
561.835	39.1
562.031	39.17
562.227	39.63
562.423	39.49
562.619	39.58
562.815	39.49
563.01	39.41
563.206	39.42
563.402	39.59
563.598	39.46
563.793	39.52
563.989	39.8
564.185	39.85
564.381	39.61
564.576	39.52
564.772	39.58
564.968	39.95
565.163	40.13
565.359	40.01
565.555	39.99
565.75	40.1
565.946	40.21
566.141	40.03
566.337	40.04
566.532	40.02
566.728	40.13
566.923	40.25
567.119	40.27
567.314	40.39
567.51	40.48
567.705	40.6
567.901	40.57
568.096	40.4
568.292	40.23
568.487	40.32
568.682	40.31
568.878	40.21
569.073	40.18
569.268	40.1
569.464	40.04
569.659	40
569.854	40.01
570.05	40.07
570.245	40.11
570.44	40.13
570.635	40.06
570.831	40.19
571.026	40.35
571.221	40.66
571.416	40.63
571.611	40.67
571.806	40.84
572.002	40.86
572.197	40.83
572.392	40.7
572.587	41.01
572.782	40.98
572.977	40.93
573.172	41.19
573.367	41.07
573.562	41.13
573.757	40.99
573.952	41.04
574.147	40.89
574.342	40.99
574.537	41.25
574.732	41.1
574.927	41.16
575.121	41.06
575.316	40.92
575.511	40.73
575.706	40.71
575.901	40.75
576.096	40.69
576.29	40.73
576.485	40.6
576.68	40.58
576.875	40.48
577.069	40.62
577.264	40.66
577.459	40.47
577.654	40.66
577.848	40.52
578.043	40.62
578.238	40.27
578.432	40.35
578.627	40.41
578.821	40.18
579.016	40.38
579.21	40.02
579.405	40.21
579.6	40.27
579.794	40.03
579.989	40.08
580.183	39.96
580.378	40.22
580.572	39.99
580.766	40.17
580.961	40.53
581.155	40.42
581.35	40.65
581.544	40.81
581.738	40.65
581.933	40.94
582.127	41.13
582.321	41.22
582.516	41.26
582.71	41.45
582.904	41.37
583.099	41.08
583.293	41.3
583.487	41.08
583.681	40.81
583.875	41.06
584.07	40.99
584.264	40.98
584.458	40.83
584.652	40.66
584.846	40.6
585.04	40.74
585.234	40.63
585.428	40.6
585.623	40.81
585.817	40.65
586.011	40.48
586.205	40.35
586.399	40.24
586.593	40.48
586.787	40.91
586.981	40.72
587.174	40.3
587.368	40.48
587.562	40.33
587.756	40.23
587.95	40.26
588.144	40.68
588.338	40.98
588.532	40.9
588.725	40.77
588.919	40.84
589.113	40.75
589.307	40.91
589.501	40.95
589.694	41
589.888	41.21
590.082	41.8
590.275	41.69
590.469	41.67
590.663	41.79
590.856	41.85
591.05	41.58
591.244	42.07
591.437	42.17
591.631	42.23
591.824	42.29
592.018	42.37
592.212	42.35
592.405	42.07
592.599	42.12
592.792	42.23
592.986	42.65
593.179	42.82
593.372	42.68
593.566	43.02
593.759	42.97
593.953	43.04
594.146	42.72
594.339	42.39
594.533	42.54
594.726	42.32
594.92	42.4
595.113	42.17
595.306	42.46
595.499	42.44
595.693	42.3
595.886	42.37
596.079	42.47
596.272	42.74
596.466	42.86
596.659	42.66
596.852	42.97
597.045	42.87
597.238	42.79
597.431	42.6
597.624	42.78
597.818	42.92
598.011	42.87
598.204	43
598.397	42.96
598.59	42.83
598.783	43.16
598.976	42.89
599.169	42.89
599.362	42.9
599.555	42.96
599.748	42.88
599.941	42.9
600.134	43.07
600.326	42.63
600.519	42.57
600.712	42.57
600.905	42.84
601.098	42.45
601.291	42.61
601.483	42.56
601.676	42.32
601.869	42.49
602.062	42.43
602.255	42.65
602.447	42.69
602.64	42.77
602.833	43.21
603.025	42.81
603.218	43.34
603.411	43.3
603.603	43.58
603.796	43.56
603.989	43.41
604.181	43.42
604.374	43.23
604.566	43.33
604.759	43.31
604.951	43.17
605.144	43.22
605.336	43.29
605.529	43.37
605.721	43.23
605.914	43.25
606.106	43.31
606.299	43.1
606.491	43.12
606.683	43
606.876	43.01
607.068	42.74
607.26	42.7
607.453	42.58
607.645	42.5
607.837	42.65
608.03	42.67
608.222	42.85
608.414	43.21
608.606	43.39
608.799	43.34
608.991	43.31
609.183	43.49
609.375	43.71
609.567	43.55
609.759	43.47
609.952	43.54
610.144	43.78
610.336	43.43
610.528	43.08
610.72	42.68
610.912	42.68
611.104	42.88
611.296	42.66
611.488	42.49
611.68	42.5
611.872	42.5
612.064	42.17
612.256	41.98
612.448	42.28
612.64	42.39
612.832	42.61
613.023	42.88
613.215	42.83
613.407	43.03
613.599	43.17
613.791	42.82
613.983	43.18
614.174	43.23
614.366	43.36
614.558	43.18
614.75	43.26
614.941	43.31
615.133	43.16
615.325	42.86
615.516	42.91
615.708	42.91
615.9	43.19
616.091	43.03
616.283	43.03
616.475	42.88
616.666	42.83
616.858	42.68
617.049	42.72
617.241	42.4
617.432	42.48
617.624	42.21
617.815	41.95
618.007	42.11
618.198	42.05
618.39	42.07
618.581	42.17
618.773	42.31
618.964	42.3
619.155	42.62
619.347	43
619.538	43.37
619.729	43.67
619.921	43.82
620.112	43.82
620.303	43.64
620.494	43.83
620.686	43.76
620.877	43.47
621.068	43.73
621.259	43.55
621.451	43.75
621.642	43.52
621.833	43.55
622.024	43.51
622.215	43.33
622.406	43.29
622.597	43.53
622.788	43.45
622.98	43.89
623.171	43.75
623.362	43.43
623.553	43.14
623.744	43.34
623.935	43.4
624.126	43.63
624.317	44.12
624.508	44.41
624.698	43.96
624.889	44.09
625.08	44.04
625.271	43.79
625.462	43.92
625.653	44.09
625.844	43.98
626.034	44.38
626.225	44.4
626.416	44.4
626.607	44.19
626.798	44.31
626.988	44.12
627.179	44.05
627.37	44.31
627.56	44.15
627.751	44.17
627.942	44.4
628.132	43.8
628.323	43.63
628.514	43.36
628.704	43.42
628.895	43.3
629.085	43.66
629.276	43.7
629.466	43.53
629.657	43.76
629.847	43.83
630.038	43.48
630.228	43.51
630.419	43.52
630.609	43.62
630.8	43.7
630.99	43.85
631.181	43.61
631.371	43.58
631.561	43.79
631.752	43.53
631.942	43.34
632.132	43.33
632.323	43.58
632.513	43.54
632.703	43.19
632.893	43.04
633.084	43.06
633.274	43.32
633.464	43.39
633.654	43.53
633.844	43.93
634.034	43.91
634.225	44.13
634.415	43.95
634.605	43.94
634.795	44.3
634.985	44.45
635.175	44.31
635.365	43.97
635.555	43.98
635.745	43.99
635.935	44.11
636.125	44.55
636.315	44.55
636.505	44.58
636.695	44.71
636.885	44.69
637.075	44.89
637.265	45.09
637.455	44.81
637.644	44.36
637.834	44.02
638.024	43.93
638.214	43.56
638.404	43.51
638.593	43.28
638.783	43.19
638.973	43.16
639.163	42.89
639.352	42.67
639.542	43.23
639.732	43.47
639.921	43.64
640.111	43.83
640.301	43.85
640.49	43.75
640.68	44.1
640.87	43.95
641.059	43.85
641.249	44.18
641.438	44.28
641.628	43.71
641.817	43.81
642.007	44.04
642.196	43.82
642.386	43.85
642.575	43.62
642.764	43.18
642.954	42.94
643.143	43.37
643.333	43.43
643.522	43.37
643.711	43.65
643.901	44
644.09	43.04
644.279	42.95
644.469	42.68
644.658	42.98
644.847	43
645.036	43.42
645.226	42.78
645.415	42.55
645.604	42.88
645.793	43.36
645.982	43.19
646.171	43.56
646.361	43.31
646.55	43.77
646.739	43.62
646.928	44.27
647.117	44.38
647.306	44.96
647.495	44.91
647.684	44.96
647.873	44.81
648.062	44.78
648.251	45.25
648.44	45.91
648.629	45.51
648.818	45.31
649.007	45.32
649.196	45.27
649.384	44.97
649.573	45.27
649.762	44.68
649.951	44.51
650.14	44.5
650.328	44.42
650.517	44.25
650.706	43.98
650.895	44.38
651.083	43.97
651.272	43.83
651.461	43.97
651.65	43.91
651.838	44
652.027	44.17
652.216	44.37
652.404	44.42
652.593	44.54
652.781	44.78
652.97	44.95
653.158	45.17
653.347	45.95
653.535	45.8
653.724	45.56
653.912	46.04
654.101	45.9
654.289	45.99
654.478	46.22
654.666	45.84
654.855	46.02
655.043	45.66
655.231	45.42
655.42	45.03
655.608	45.53
655.796	45.4
655.985	45
656.173	44.99
656.361	44.39
656.55	44.49
656.738	44.16
656.926	44.04
657.114	44.19
657.302	44.27
657.491	43.63
657.679	42.74
657.867	42.77
658.055	42.54
658.243	42.93
658.431	43.18
658.619	43.1
658.807	43.09
658.996	42.92
659.184	43.09
659.372	43.3
659.56	43.7
659.748	44.15
659.936	44.35
660.124	44.48
660.311	44.24
660.499	44.62
660.687	44.4
660.875	44.53
661.063	45.24
661.251	44.97
661.439	45.13
661.627	44.86
661.814	44.48
662.002	44.21
662.19	44.2
662.378	44.24
662.565	43.51
662.753	43.33
662.941	43.31
663.129	42.61
663.316	42.55
663.504	41.68
663.692	42.02
663.879	42.33
664.067	42.27
664.254	42.63
664.442	42.07
664.63	42.36
664.817	42.48
665.005	42.72
665.192	42.71
665.38	42.83
665.567	43.32
665.755	43.17
665.942	43.52
666.13	43.78
666.317	43.88
666.504	44.55
666.692	44.82
666.879	44.33
667.067	44.57
667.254	44.82
667.441	44.51
667.629	44.86
667.816	44.82
668.003	44.65
668.19	44.72
668.378	44.2
668.565	44.05
668.752	43.9
668.939	44.61
669.127	44.36
669.314	44.85
669.501	45.24
669.688	44.79
669.875	44.96
670.062	44.34
670.249	44.24
670.436	44.41
670.623	44.55
670.81	44.76
670.997	44.68
671.184	44.66
671.371	44.06
671.558	44.27
671.745	44.56
671.932	44.12
672.119	44.24
672.306	44.17
672.493	44.33
672.68	44.44
672.867	44.29
673.054	44.03
673.24	44.3
673.427	44.79
673.614	44.57
673.801	44
673.988	44.35
674.174	44.88
674.361	45.16
674.548	45.24
674.734	44.94
674.921	44.99
675.108	45.63
675.294	45.16
675.481	45.14
675.668	44.3
675.854	44.84
676.041	44.76
676.227	44.82
676.414	44.67
676.601	44.43
676.787	44.59
676.974	44.58
677.16	44.12
677.347	44.62
677.533	44.12
677.719	44.7
677.906	44.62
678.092	44.82
678.279	44.96
678.465	45.11
678.651	45.59
678.838	45.46
679.024	45.37
679.21	45.2
679.397	44.95
679.583	45.5
679.769	45.02
679.955	45.02
680.142	45.02
680.328	45.03
680.514	44.71
680.7	44.58
680.886	44.41
681.073	44.24
681.259	44.63
681.445	44.21
681.631	43.79
681.817	44.34
682.003	44.33
682.189	44.34
682.375	44.22
682.561	44.15
682.747	44.07
682.933	44.39
683.119	44.81
683.305	44.47
683.491	44.75
683.677	44.7
683.863	44.85
684.049	45.07
684.235	44.73
684.42	44.21
684.606	44.54
684.792	44.66
684.978	44.21
685.164	44.07
685.349	44.16
685.535	44.77
685.721	44.91
685.907	44.91
686.092	44.96
686.278	44.91
686.464	45.51
686.649	45.31
686.835	45.36
687.021	45.51
687.206	44.78
687.392	44.82
687.577	44.57
687.763	44.68
687.948	44.42
688.134	43.56
688.319	43.57
688.505	43.62
688.69	43.54
688.876	43.05
689.061	43.67
689.247	44.7
689.432	44.49
689.618	44.47
689.803	44.31
689.988	44.23
690.174	44.62
690.359	44.81
690.544	45.37
690.73	45.97
690.915	46.03
691.1	45.01
691.285	44.32
691.471	44.33
691.656	44.19
691.841	44.39
692.026	44.87
692.211	45.49
692.396	45.59
692.582	44.62
692.767	44.63
692.952	44.5
693.137	45.55
693.322	45.55
693.507	45.01
693.692	45.31
693.877	45.35
694.062	44.99
694.247	44.54
694.432	44.33
694.617	44.45
694.802	44.76
694.987	45.83
695.172	45.76
695.357	45.63
695.541	46.81
695.726	46.3
695.911	46.62
696.096	46.61
696.281	46.88
696.466	47
696.65	47.02
696.835	46.57
697.02	46.33
697.204	46.19
697.389	46.78
697.574	46.45
697.759	46.94
697.943	46.59
698.128	46.83
698.312	46.86
698.497	46.88
698.682	47.04
698.866	46.77
699.051	46.82
699.235	46.75
699.42	46.6
699.604	46.64
699.789	46.38
699.973	46.24
700.158	46.25
700.342	46.64
700.527	46.27
700.711	46.04
700.895	45.97
701.08	44.94
701.264	44.47
701.448	44.18
701.633	43.78
701.817	44.35
702.001	44.43
702.186	44.06
702.37	42.74
702.554	43.63
702.738	43.74
702.923	43.87
703.107	44.24
703.291	44.53
703.475	44.82
703.659	45.42
703.843	44.96
704.027	45.13
704.212	44.77
704.396	45.05
704.58	44.51
704.764	44.51
704.948	44.53
705.132	44.39
705.316	44.51
705.5	44.82
705.684	44.73
705.868	43.58
706.052	43.68
706.235	44.53
706.419	44.94
706.603	44.81
706.787	44.61
706.971	44.71
707.155	45.83
707.339	46.68
707.522	46.9
707.706	47.01
707.89	48.35
708.074	48.06
708.257	47.78
708.441	47.29
708.625	47.18
708.808	46.59
708.992	46.4
709.176	46.03
709.359	45.11
709.543	44.64
709.727	44.79
709.91	44.46
710.094	44.63
710.277	44.93
710.461	44.92
710.644	44.86
710.828	45.44
711.011	46.25
711.195	45.88
711.378	45.84
711.562	45.44
711.745	45.52
711.928	45.63
712.112	45.01
712.295	44.57
712.478	44.95
712.662	45.88
712.845	46.05
713.028	45.4
713.212	45.43
713.395	45.63
713.578	45.58
713.761	45.08
713.945	44.69
714.128	45.13
714.311	45.03
714.494	43.75
714.677	42.75
714.86	42.47
715.043	42.1
715.227	42.21
715.41	41.51
715.593	41.54
715.776	41.71
715.959	41.88
716.142	41.93
716.325	42.55
716.508	43.32
716.691	43.64
716.874	43.14
717.057	42.5
717.239	42.26
717.422	43.51
717.605	43.87
717.788	43.42
717.971	43.05
718.154	43.38
718.337	43.17
718.519	43.82
718.702	44.53
718.885	44.89
719.068	46.89
719.25	46.88
719.433	47.04
719.616	47.41
719.798	47.77
719.981	47.78
720.164	47.16
720.346	46.88
720.529	46.41
720.712	45.35
720.894	45.84
721.077	44.72
721.259	45.85
721.442	45.67
721.624	45.31
721.807	45.94
721.989	46.02
722.172	45.58
722.354	45.13
722.537	45.98
722.719	47.12
722.901	48.09
723.084	47.94
723.266	47.4
723.448	46.4
723.631	45.8
723.813	45.19
723.995	45.36
724.178	46.84
724.36	48.01
724.542	47.8
724.724	46.86
724.907	45.47
725.089	46.42
725.271	45.93
725.453	46.44
725.635	47.25
725.817	47.37
725.999	47.09
726.181	46.23
726.364	44.65
726.546	44.55
726.728	43.97
726.91	44.79
727.092	44.26
727.274	44.95
727.456	44.19
727.638	42.81
727.819	42.78
728.001	43.3
728.183	43.51
728.365	44.03
728.547	43.45
728.729	44.03
728.911	44.47
729.093	44.47
729.274	43.71
729.456	44.77
729.638	46.31
729.82	45.82
730.001	45.51
730.183	45.6
730.365	45.26
730.546	45.39
730.728	44.4
730.91	43.7
731.091	42.64
731.273	43.87
731.455	43.41
731.636	42.32
731.818	42.65
731.999	42.54
732.181	42.78
732.362	43.27
732.544	43.86
732.725	44.91
732.907	44.54
733.088	45.36
733.27	44.84
733.451	44.88
733.633	45.59
733.814	45.71
733.995	46.17
734.177	46.22
734.358	46.28
734.539	45.38
734.721	45.75
734.902	46.1
735.083	45.98
735.264	45.98
735.446	44.89
735.627	44.09
735.808	44
735.989	44.24
736.17	44.24
736.351	43.91
736.533	43.94
736.714	44.2
736.895	43.36
737.076	43.24
737.257	43.23
737.438	43.5
737.619	44.31
737.8	44.32
737.981	43.84
738.162	42.23
738.343	41.25
738.524	42.11
738.705	41.95
738.886	43.37
739.067	44.2
739.247	44.01
739.428	43.33
739.609	43.5
739.79	44.06
739.971	44.67
740.151	45.31
740.332	45.77
740.513	46.19
740.694	45.22
740.874	44.19
741.055	44.74
741.236	44.97
741.417	46.02
741.597	44.89
741.778	43.41
741.958	42.98
742.139	44.11
742.32	45.55
742.5	45.02
742.681	45.51
742.861	46.33
743.042	46.16
743.222	44.36
743.403	45.19
743.583	46.37
743.764	46.23
743.944	45.48
744.124	45.04
744.305	44.81
744.485	44.66
744.666	45.56
744.846	44.21
745.026	43.67
745.207	46.14
745.387	44.56
745.567	43.88
745.747	44.89
745.928	45.7
746.108	46.06
746.288	46.02
746.468	46.16
746.648	44.38
746.829	44.33
747.009	44.87
747.189	42.79
747.369	44.14
747.549	45.12
747.729	44.73
747.909	44.85
748.089	44.5
748.269	44.95
748.449	44.97
748.629	45.09
748.809	45.54
748.989	43.55
749.169	43.81
749.349	43.95
749.529	43.3
749.709	43.5
749.889	43.37
750.068	43.33
750.248	42.64
750.428	43.3
750.608	43.6
750.788	43.78
750.967	45.19
751.147	46.66
751.327	46.93
751.507	47.27
751.686	47.31
751.866	46.81
752.046	47.55
752.225	47.29
752.405	45.71
752.585	46.14
752.764	45.92
752.944	45.64
753.123	45.92
753.303	45.69
753.482	44.39
753.662	45.49
753.841	45.79
754.021	45.25
754.2	44.97
754.38	46.12
754.559	45.88
754.739	47.8
754.918	47.48
755.097	46.7
755.277	47
755.456	47.08
755.635	46.38
755.815	47.13
755.994	46.63
756.173	47.37
756.352	46
756.532	45.49
756.711	44.29
756.89	44.39
757.069	45.18
757.248	44.22
757.427	44.83
757.607	44.65
757.786	44.25
757.965	44.11
758.144	42.95
758.323	43.07
758.502	44.46
758.681	44.01
758.86	44.07
759.039	43.24
759.218	43.45
759.397	43.41
759.576	42.88
759.755	41.66
759.934	43.1
760.113	43.75
760.291	43.73
760.47	44.11
760.649	44.64
760.828	46.19
761.007	45.31
761.186	44.55
761.364	43.53
761.543	45.03
761.722	45.22
761.901	43.22
762.079	41.63
762.258	41.84
762.437	41.58
762.615	41.41
762.794	40.29
762.972	40.44
763.151	41.43
763.33	41.98
763.508	40.54
763.687	41.33
763.865	41.6
764.044	43.79
764.222	44.03
764.401	43.37
764.579	43.39
764.758	42.93
764.936	42.3
765.114	41.98
765.293	41.16
765.471	40.47
765.65	40.01
765.828	40.02
766.006	39.47
766.184	39.5
766.363	40.59
766.541	40.06
766.719	41.73
766.898	43.24
767.076	44.13
767.254	45.36
767.432	46.64
767.61	45.56
767.788	44.89
767.967	45.24
768.145	45.32
768.323	43.2
768.501	43.51
768.679	41.17
768.857	41.21
769.035	39.29
769.213	39.8
769.391	39.34
769.569	40.95
769.747	42.25
769.925	41.8
770.103	41.8
770.281	42.31
770.459	41.17
770.636	42.74
770.814	41.48
770.992	42.29
771.17	42.23
771.348	42.29
771.525	41.59
771.703	41.16
771.881	39.86
772.059	41.35
772.236	39.78
772.414	40.75
772.592	40.88
772.769	41.74
772.947	43.21
773.125	45.01
773.302	47.43
773.48	47.26
773.657	45.26
773.835	45.92
774.013	42.74
774.19	45.11
774.368	46.98
774.545	47.35
774.723	47.17
774.9	45.47
775.077	43.14
775.255	42.48
775.432	42.29
775.61	41.79
775.787	40.81
775.964	42.04
776.142	40.97
776.319	36.77
776.496	35.79
776.674	36.35
776.851	37.62
777.028	36.68
777.205	38.95
777.382	39.09
777.56	42.12
777.737	43.47
777.914	42.31
778.091	43.07
778.268	42.04
778.445	41.11
778.622	43.19
778.8	39.68
778.977	40.63
779.154	38.07
779.331	39.5
779.508	39.34
779.685	38.11
779.862	40.09
780.038	38.68
780.215	43.46
780.392	43.55
780.569	44.72
780.746	45.99
780.923	47.09
781.1	45.26
781.277	44.87
781.453	46.85
781.63	47.95
781.807	47.72
781.984	48.48
782.16	46.62
782.337	46.35
782.514	42.85
782.691	43.55
782.867	42.85
783.044	43.35
783.221	44.14
783.397	41
783.574	39.83
783.75	39.66
783.927	41.11
784.103	41.11
784.28	39.56
784.456	40.76
784.633	42.32
784.809	41.04
784.986	41.55
785.162	40.7
785.339	41.67
785.515	40.91
785.692	39.13
785.868	38.02
786.044	38.71
786.221	37.83
786.397	34.26
786.573	35.2
786.749	34.2
786.926	33.96
787.102	31.91
787.278	33.17
787.454	34.21
787.631	34.21
787.807	34.89
787.983	36.29
788.159	37.07
788.335	39.53
788.511	38.07
788.687	41.71
788.863	41.31
789.039	44.69
789.216	43.52
789.392	44.04
789.568	47.08
789.744	45.06
789.919	45.2
790.095	47.01
790.271	46.97
790.447	47.17
790.623	45.8
790.799	46.12
790.975	43.24
791.151	41.28
791.327	39.86
791.502	39.27
791.678	42.32
791.854	41.2
792.03	41.1
792.205	40.93
792.381	39.57
792.557	37.88
792.733	37.11
792.908	39.9
793.084	44.88
793.259	41.56
793.435	38.34
793.611	37.49
793.786	35.16
793.962	33.77
794.137	32.92
794.313	36.63
794.488	36.17
794.664	36.16
794.839	34.26
795.015	32.11
795.19	38.25
795.366	39.36
795.541	37.12
795.716	41.79
795.892	43.23
796.067	45.48
796.242	42.94
796.418	43.36
796.593	42.18
796.768	42.2
796.944	45.44
797.119	45.64
797.294	48.44
797.469	48.65
797.644	43.56
797.82	45.11
797.995	41.8
798.17	41.81
798.345	43.77
798.52	43.82
798.695	41.76
798.87	38.82
799.045	35.63
799.22	30.01
799.395	29.68
799.57	30.31
799.745	28.5
799.92	28.79
800.095	27.91
800.27	25.97
800.445	26.03
800.62	30.43
800.795	26.14
800.97	27.03
801.145	28.81
801.319	28.34
801.494	30.29
801.669	27.41
801.844	26.63
802.018	30.09
802.193	26.69
802.368	28.1
802.543	27.85
802.717	30.01
802.892	33.23
803.067	35.58
803.241	37.43
803.416	39.14
803.59	41.27
803.765	43.55
803.94	44.23
804.114	44.75
804.289	45.75
804.463	44.17
804.638	46.43
804.812	40.74
804.986	41.58
805.161	46.13
805.335	44.56
805.51	42.05
805.684	42.44
805.858	37.52
806.033	39.65
806.207	36.59
806.381	37.69
806.556	37.88
806.73	40.98
806.904	43.53
807.078	38.67
807.253	39
807.427	40.8
807.601	40.93
807.775	42.88
807.949	39.01
808.123	40.52
808.298	40.74
808.472	42.18
808.646	42.95
808.82	37.39
808.994	39.16
809.168	38.33
809.342	37.28
809.516	37.56
809.69	37.59
809.864	40.25
810.038	44.29
810.212	44.73
810.385	46.54
810.559	49.79
810.733	55.65
810.907	52.24
811.081	50.12
811.255	53.78
811.428	54.54
811.602	53.79
811.776	55.75
811.95	55.91
812.123	54.6
812.297	46.41
812.471	44.32
812.644	35.75
812.818	31.84
812.992	33.51
813.165	32.96
813.339	32.26
813.512	33.74
813.686	32.27
813.86	33.19
814.033	30.36
814.207	36.93
814.38	37.08
814.554	41.62
814.727	40.46
814.9	43.54
815.074	39.73
815.247	38.87
815.421	37.69
815.594	36.45
815.767	30.75
815.941	33.54
816.114	28.53
816.287	23.32
816.46	22.63
816.634	26.26
816.807	23.13
816.98	22.05
817.153	24.88
817.327	23.66
817.5	26.77
817.673	30.49
817.846	31.03
818.019	34.2
818.192	34.3
818.365	33.57
818.538	34.86
818.711	31.01
818.884	33.01
819.057	30.2
819.23	35.74
819.403	35.88
819.576	32.39
819.749	32.06
819.922	33.77
820.095	37.96
820.268	42.11
820.441	42.52
820.614	45.76
820.786	45.72
820.959	46.95
821.132	46.55
821.305	46.85
821.477	47.6
821.65	46.87
821.823	46.08
821.996	46.14
822.168	44.63
822.341	44.33
822.514	44.28
822.686	43.51
822.859	43.31
823.031	42.93
823.204	42.57
823.376	44.31
823.549	44.14
823.722	43.98
823.894	44.22
824.067	44.53
824.239	44.47
824.411	44.25
824.584	45.03
824.756	44.66
824.929	43.44
825.101	42.49
825.273	40.03
825.446	41.07
825.618	41.16
825.79	39.75
825.963	39.57
826.135	38.38
826.307	38.93
826.479	39
826.652	40.22
826.824	41.91
826.996	42.56
827.168	42.7
827.34	42.01
827.512	40.66
827.684	40.57
827.856	40.48
828.029	41.35
828.201	39.58
828.373	39.32
828.545	39.06
828.717	39.57
828.889	38.7
829.061	38.66
829.232	35.94
829.404	37.1
829.576	35.93
829.748	37.2
829.92	36.41
830.092	38.16
830.264	38.25
830.436	39
830.607	38.23
830.779	38.62
830.951	37.72
831.123	39.25
831.294	39.6
831.466	43.75
831.638	37.58
831.809	40.92
831.981	40.57
832.153	37.86
832.324	32.71
832.496	28.05
832.667	31.53
832.839	32.34
833.011	35.19
833.182	36.07
833.354	34.54
833.525	38.35
833.697	34.85
833.868	36.63
834.039	37.03
834.211	39.91
834.382	40.6
834.554	41.32
834.725	39.89
834.896	39.23
835.068	38.04
835.239	36.61
835.41	34.73
835.581	35.75
835.753	34.75
835.924	37.19
836.095	33.63
836.266	34.87
836.438	33.82
836.609	34.15
836.78	34.84
836.951	37
837.122	35.54
837.293	35.54
837.464	33.72
837.635	34.65
837.806	29.83
837.977	38.54
838.148	34.98
838.319	32.2
838.49	31.67
838.661	26.96
838.832	21.88
839.003	25.97
839.174	30.94
839.345	28.81
839.516	29.61
839.687	27.83
839.857	21.62
840.028	29.69
840.199	30.05
840.37	36.39
840.54	42.96
840.711	42.14
840.882	42.68
841.053	44.32
841.223	51.67
841.394	53.91
841.564	60.64
841.735	54.72
841.906	53.04
842.076	54.97
842.247	53.82
842.417	52.95
842.588	48.02
842.758	46.29
842.929	42.46
843.099	46.87
843.27	44.51
843.44	36.79
843.611	46.75
843.781	44.32
843.951	40.16
844.122	34.65
844.292	27.63
844.462	38.76
844.633	35.04
844.803	27.08
844.973	28.57
845.144	10.15
845.314	29.64
845.484	0.23
845.654	-3.34
845.824	3.08
845.995	-5.89
846.165	11.8
846.335	21.91
846.505	24.81
846.675	23.21
846.845	12.05
847.015	17.79
847.185	9.06
847.355	17.64
847.525	28.29
847.695	32.22
847.865	30.37
848.035	35.26
848.205	38.62
848.375	42.44
848.545	49.46
848.715	54.92
848.884	49.41
849.054	45.06
849.224	52.3
849.394	35.73
849.564	25.88
849.733	27.18
849.903	11.7
850.073	12.32
850.243	14.17
850.412	6.08
850.582	-0.82
850.752	7.4
850.921	0.34
851.091	-9.13
851.26	4.53
851.43	5.26
851.599	11.76
851.769	11.19
851.939	-6.27
852.108	-0.17
852.278	8.42
852.447	21.19
852.616	24.16
852.786	21.66
852.955	11.41
853.125	4.64
853.294	21.31
853.463	10.07
853.633	32.98
853.802	46.67
853.971	40.51
854.141	37.29
854.31	36.68
854.479	44.88
854.648	81.44
854.818	118.72
854.987	109.73
855.156	137.25
855.325	132.64
855.494	99.56
855.663	83.01
855.832	73.79
856.001	71.76
856.171	69.01
856.34	57
856.509	36.69
856.678	24.86
856.847	32.46
857.016	23.1
857.185	10.27
857.353	9.32
857.522	10.75
857.691	0.62
857.86	-6.19
858.029	8.66
858.198	1.58
858.367	15.71
858.535	29.88
858.704	8.42
858.873	12.85
859.042	19.59
859.21	26.65
859.379	26.4
859.548	35.02
859.717	39.79
859.885	39.67
860.054	40.8
860.222	36.92
860.391	25.19
860.56	47.31
860.728	55.57
860.897	51.28
861.065	42.8
861.234	60.94
861.402	59.65
861.571	62.47
861.739	62.92
861.908	68.23
862.076	67.12
862.244	65.49
862.413	51.98
862.581	62.82
862.749	67.69
862.918	54.71
863.086	47.52
863.254	45.18
863.423	27.99
863.591	18.1
863.759	-13.01
863.927	-4.67
864.096	-1.71
864.264	-9.01
864.432	-23.39
864.6	-28.93
864.768	-13.61
864.936	-32.58
865.104	-30.21
865.272	16.37
865.44	21.8
865.608	29.22
865.776	0.49
865.944	-4.94
866.112	10.67
866.28	10.37
866.448	22.66
866.616	23.79
866.784	34.44
866.952	37.92
867.12	33.4
867.288	30.19
867.455	42.38
867.623	45.36
867.791	39.57
867.959	45.01
868.127	39.76
868.294	37.59
868.462	41.57
868.63	29.73
868.797	21.7
868.965	3.62
869.133	10.76
869.3	-6.38
869.468	6.2
869.636	18.68
869.803	15.84
869.971	11.3
870.138	-4.98
870.306	10.92
870.473	8.96
870.641	-6.84
870.808	1.24
870.975	17.52
871.143	11.53
871.31	-2.66
871.478	4.96
871.645	2.32
871.812	19.45
871.98	51.75
872.147	29.63
872.314	38.92
872.482	52.58
872.649	50.99
872.816	27.62
872.983	39.64
873.15	37.11
873.318	32.93
873.485	29.05
873.652	37.78
873.819	34.03
873.986	38.11
874.153	35.39
874.32	27.89
874.487	29.55
874.654	27.2
874.821	18.97
874.988	31.69
875.155	22.34
875.322	29.08
875.489	21.47
875.656	19.56
875.823	16.52
875.99	18.65
876.157	27.34
876.324	29.16
876.49	44.45
876.657	45.38
876.824	42.4
876.991	49.55
877.157	45.92
877.324	70.56
877.491	72.53
877.658	53.77
877.824	63.14
877.991	50.38
878.157	58.35
878.324	50.84
878.491	62.43
878.657	60.18
878.824	65.84
878.99	65.39
879.157	66.61
879.323	65.54
879.49	70.97
879.656	61.93
879.823	63.98
879.989	64.89
880.156	68.85
880.322	68.35
880.488	69.79
880.655	63.32
880.821	54.82
880.987	45.13
881.154	50.28
881.32	52.15
881.486	47.55
881.652	39.92
881.819	36.3
881.985	30.62
882.151	30.22
882.317	28.49
882.483	33.24
882.649	35.26
882.816	35.96
882.982	38.05
883.148	35.71
883.314	42.72
883.48	43.91
883.646	41.59
883.812	45.4
883.978	46.89
884.144	52.07
884.31	50.92
884.476	52.2
884.642	52
884.807	50.61
884.973	51.93
885.139	47.77
885.305	50.29
885.471	51.81
885.637	47.2
885.802	47.3
885.968	41.18
886.134	40.42
886.3	37.8
886.465	33.26
886.631	26.77
886.797	25.52
886.962	23.75
887.128	20.22
887.293	17.99
887.459	8.48
887.625	1.56
887.79	0.08
887.956	-9.98
888.121	-15.5
888.287	-16.55
888.452	-13.21
888.618	-34.62
888.783	-43.21
