Data from 2938043_Reflection_1.txt Node
Date: Sun Jul 12 14:32:36 EDT 2015
User: robert
Spectrometer: USB4E03001
Autoset integration time: false
Trigger mode: 4
Integration Time (sec): 1.000000E-1
Scans to average: 10
Electric dark correction enabled: true
Nonlinearity correction enabled: false
Boxcar width: 5
Stray light correction enabled: false
XAxis mode: Wavelengths
Stop averaging: false
Number of Pixels in Spectrum: 3648
>>>>>Begin Spectral Data<<<<<
177.566	148.59
177.785	224.72
178.005	-10206.25
178.225	71.91
178.445	14.28
178.665	67.95
178.885	74.47
179.105	122.9
179.324	78.76
179.544	-481.96
179.764	867.29
179.984	-304.62
180.204	-70.08
180.423	-1.76
180.643	-5.65
180.863	29.01
181.083	35.76
181.302	42.89
181.522	37.12
181.742	17.52
181.961	34.89
182.181	31.68
182.401	36.82
182.621	13.65
182.84	9.83
183.06	-3.88
183.279	-33.47
183.499	-23.43
183.719	-24.97
183.938	-25.37
184.158	3.7
184.377	16.97
184.597	12.33
184.816	15.04
185.036	1.32
185.256	-2.45
185.475	16.57
185.695	10.51
185.914	-31.28
186.134	-24.74
186.353	-12.74
186.572	7.66
186.792	-7.69
187.011	-5.01
187.231	41.55
187.45	43.99
187.67	16.12
187.889	24.14
188.108	20.35
188.328	26.43
188.547	47.58
188.766	46.38
188.986	27.35
189.205	31.56
189.424	-27.96
189.644	-72.4
189.863	5.2
190.082	12
190.302	2.66
190.521	76.74
190.74	47.08
190.959	-13.37
191.178	-11.21
191.398	23.41
191.617	11.59
191.836	88.55
192.055	108.92
192.274	116.28
192.494	269.8
192.713	777.27
192.932	-762.83
193.151	200.15
193.37	-53855.56
193.589	185.82
193.808	115.12
194.027	95.15
194.246	77.13
194.465	58.4
194.685	124.72
194.904	110.01
195.123	182.35
195.342	389.01
195.561	-589.83
195.78	-0.85
195.999	14.6
196.218	-82.97
196.436	423.85
196.655	426.67
196.874	144.35
197.093	95.35
197.312	92.07
197.531	93.35
197.75	85.6
197.969	101.57
198.188	102.82
198.407	97.87
198.625	79.11
198.844	71.89
199.063	68.83
199.282	73.66
199.501	63.47
199.719	35.41
199.938	37.9
200.157	40.19
200.376	35.02
200.594	28.07
200.813	26.41
201.032	44.24
201.251	47.77
201.469	57.62
201.688	59.12
201.907	66.22
202.125	91.9
202.344	63.76
202.563	42.92
202.781	51.68
203	75.66
203.218	56.4
203.437	42.01
203.656	42.12
203.874	-1.79
204.093	-1.99
204.311	-16.69
204.53	-3.83
204.748	13.25
204.967	37.88
205.185	47.34
205.404	-94.29
205.622	111.15
205.841	107.13
206.059	14.48
206.278	-161.02
206.496	-146.53
206.715	173.95
206.933	-10.36
207.151	-973.11
207.37	-57.01
207.588	-83.88
207.806	-58.03
208.025	-25.02
208.243	-25.5
208.461	-91.42
208.68	-57.1
208.898	-35.67
209.116	-18.03
209.335	-25.1
209.553	12.27
209.771	11.34
209.989	42.16
210.208	60.23
210.426	71.97
210.644	60.58
210.862	70.92
211.081	-14.25
211.299	-108.48
211.517	-644.29
211.735	-565.65
211.953	-1611.55
212.171	-2508.44
212.39	365.35
212.608	301.35
212.826	1196.51
213.044	-307.81
213.262	-97.62
213.48	-73.31
213.698	-84.12
213.916	-1.21
214.134	2.3
214.352	53.21
214.57	83.27
214.788	73.71
215.006	67.66
215.224	51.9
215.442	52.65
215.66	47.53
215.878	52.47
216.096	54.71
216.314	68.8
216.532	65.64
216.75	62.18
216.968	104.74
217.185	100.26
217.403	103.92
217.621	127.47
217.839	143.37
218.057	144.32
218.275	90.66
218.492	67
218.71	51.33
218.928	54.56
219.146	43.84
219.363	22.26
219.581	29.61
219.799	18.2
220.017	25.89
220.234	25.57
220.452	21.41
220.67	41.39
220.887	60.88
221.105	74.9
221.323	76.11
221.54	70.84
221.758	35.13
221.976	36.61
222.193	21.71
222.411	-19.15
222.629	-58.05
222.846	-38.01
223.064	-65.14
223.281	-23.16
223.499	-35.46
223.716	-35.72
223.934	-20.44
224.151	-10.6
224.369	-22.1
224.586	12.59
224.804	21.37
225.021	44.25
225.239	41.88
225.456	39.15
225.674	32.52
225.891	29.69
226.108	29.27
226.326	26.04
226.543	37.26
226.76	44.17
226.978	24.98
227.195	25.2
227.413	23.16
227.63	24.54
227.847	26.4
228.064	22.62
228.282	26
228.499	20.06
228.716	18.87
228.934	20.33
229.151	16.59
229.368	17.5
229.585	20.83
229.802	19.33
230.02	18.42
230.237	16.91
230.454	16.69
230.671	14.25
230.888	16.21
231.105	19.53
231.323	14.72
231.54	14.28
231.757	14.73
231.974	10.57
232.191	13.83
232.408	14.88
232.625	14.23
232.842	17.44
233.059	15.31
233.276	11.55
233.493	9.44
233.71	14.69
233.927	21.75
234.144	23.88
234.361	24.39
234.578	18.94
234.795	17.81
235.012	18.73
235.229	20.65
235.446	20.07
235.663	21.82
235.879	18.09
236.096	20.51
236.313	23.15
236.53	20.21
236.747	21
236.964	27.04
237.181	29.82
237.397	25.73
237.614	20.63
237.831	24.02
238.048	24.26
238.264	24.59
238.481	22.16
238.698	17.89
238.915	21.4
239.131	18.51
239.348	14.79
239.565	10.97
239.781	12.72
239.998	18.08
240.215	20.25
240.431	19.83
240.648	22.71
240.865	19.64
241.081	19.74
241.298	16.46
241.514	16.54
241.731	17.93
241.947	18.2
242.164	19.43
242.38	19.65
242.597	18.14
242.814	19.25
243.03	17.36
243.246	16.28
243.463	14.03
243.679	15.63
243.896	14.04
244.112	12.84
244.329	11.51
244.545	9.02
244.762	5.69
244.978	5.18
245.194	2.06
245.411	4.56
245.627	7.02
245.843	8.84
246.06	5.96
246.276	7.9
246.492	8.39
246.709	9.09
246.925	10.12
247.141	10.38
247.357	10.84
247.574	10.94
247.79	10.46
248.006	10.79
248.222	10.61
248.439	12.16
248.655	12.55
248.871	12.98
249.087	13.44
249.303	12.74
249.519	12.58
249.736	12.84
249.952	13.57
250.168	14.41
250.384	14.73
250.6	14.17
250.816	12.83
251.032	14.48
251.248	13.1
251.464	12.02
251.68	12.89
251.896	11.87
252.112	9.04
252.328	11.08
252.544	9.94
252.76	6.74
252.976	7
253.192	6.43
253.408	3.32
253.624	2.68
253.84	3.08
254.056	4.27
254.272	4.42
254.487	5.63
254.703	2.03
254.919	3.26
255.135	8.35
255.351	9.64
255.567	9
255.782	10.74
255.998	11.57
256.214	11.71
256.43	4.08
256.646	4.45
256.861	6.58
257.077	4.46
257.293	4.63
257.508	1.58
257.724	1.47
257.94	4.26
258.155	3.42
258.371	2.92
258.587	3.73
258.802	7.65
259.018	7.23
259.234	7.73
259.449	8.33
259.665	8.4
259.88	9.85
260.096	10.65
260.312	9.44
260.527	10.32
260.743	10.6
260.958	10.58
261.174	9.15
261.389	11.1
261.605	10.81
261.82	10.91
262.036	11.2
262.251	10.11
262.466	10.7
262.682	12.17
262.897	10.84
263.113	11.64
263.328	10.87
263.543	11.91
263.759	8.64
263.974	8.68
264.189	10.89
264.405	10.89
264.62	11.32
264.835	9.85
265.051	10.04
265.266	11.37
265.481	11.42
265.696	12.8
265.912	13.51
266.127	14.27
266.342	13.89
266.557	10.97
266.773	9.63
266.988	9.51
267.203	8.37
267.418	9.47
267.633	8.21
267.848	7.39
268.064	7.14
268.279	7.41
268.494	7
268.709	7.49
268.924	8.8
269.139	9.6
269.354	10.52
269.569	10.95
269.784	10.06
269.999	9.88
270.214	10.5
270.429	10.57
270.644	9.8
270.859	10.21
271.074	9.1
271.289	9.68
271.504	10.29
271.719	8.99
271.934	9.5
272.149	9.12
272.363	9.08
272.578	9.67
272.793	9.11
273.008	8.95
273.223	9.51
273.438	9.77
273.653	8.86
273.867	8.7
274.082	9.75
274.297	9.96
274.512	10.04
274.726	10.64
274.941	9.35
275.156	10.09
275.371	10.19
275.585	9.15
275.8	8.79
276.015	9.95
276.229	9.83
276.444	8.66
276.659	8.05
276.873	8.57
277.088	8.47
277.302	8.89
277.517	8.52
277.732	8.36
277.946	7.14
278.161	6.58
278.375	5.18
278.59	5.27
278.804	6.92
279.019	5.89
279.233	3.73
279.448	3.23
279.662	3.95
279.877	5.62
280.091	6.76
280.306	8.22
280.52	10.04
280.735	10.24
280.949	8.43
281.163	8.21
281.378	8.88
281.592	9.17
281.806	10.09
282.021	9.34
282.235	7.28
282.449	7.72
282.664	6.34
282.878	5.34
283.092	6.12
283.307	6.71
283.521	6.09
283.735	6.77
283.949	7.95
284.164	7.5
284.378	8.21
284.592	8.89
284.806	8.61
285.02	8.81
285.234	9.46
285.449	8.43
285.663	8.81
285.877	9.19
286.091	8.95
286.305	7.72
286.519	8.04
286.733	7.35
286.947	5.39
287.161	4.24
287.375	5.22
287.589	5.09
287.803	6.3
288.017	6.3
288.231	5.81
288.445	5.07
288.659	6.97
288.873	5.9
289.087	6.86
289.301	7.93
289.515	9.33
289.729	9.57
289.943	9.86
290.157	9.96
290.371	10.7
290.584	10.58
290.798	11.21
291.012	11.21
291.226	11.54
291.44	10.83
291.654	11.07
291.867	10.43
292.081	10.18
292.295	9.74
292.509	10.33
292.722	9.37
292.936	9.54
293.15	9.93
293.364	10.43
293.577	10.56
293.791	10.92
294.005	12.57
294.218	12.31
294.432	10.93
294.645	10.82
294.859	9.58
295.073	9.23
295.286	9.7
295.5	9.05
295.713	9.02
295.927	9.01
296.14	8.34
296.354	6.85
296.568	8
296.781	9.67
296.994	9.34
297.208	9.9
297.421	10.65
297.635	9.43
297.848	8.9
298.062	7.79
298.275	8.22
298.489	9.13
298.702	9.77
298.915	7.86
299.129	7.04
299.342	7.2
299.555	7.7
299.769	7.47
299.982	9.06
300.195	11.26
300.409	12.93
300.622	12.71
300.835	13.47
301.048	13.88
301.262	14.01
301.475	14.35
301.688	14.39
301.901	13.22
302.115	13.02
302.328	11.22
302.541	9.81
302.754	8.11
302.967	9.02
303.18	8.53
303.393	8.67
303.607	9.99
303.82	8.13
304.033	8.87
304.246	9.32
304.459	8.91
304.672	9.72
304.885	10.86
305.098	10.75
305.311	10.59
305.524	10.03
305.737	8.78
305.95	8.74
306.163	11.12
306.376	10.17
306.589	9.26
306.802	8.64
307.015	7.9
307.228	7.79
307.44	8.9
307.653	9.09
307.866	10.88
308.079	11.44
308.292	11.24
308.505	10.27
308.718	9.18
308.93	9.96
309.143	10.67
309.356	13.17
309.569	12.47
309.781	11.65
309.994	10.95
310.207	9.72
310.42	10.27
310.632	9.22
310.845	10.58
311.058	11.7
311.27	12.2
311.483	12.14
311.696	10.71
311.908	10.98
312.121	11.05
312.333	10.45
312.546	9.7
312.759	9.29
312.971	9.83
313.184	8.36
313.396	9.07
313.609	8.19
313.821	8.15
314.034	8.44
314.246	7.6
314.459	8.78
314.671	9.62
314.884	11.37
315.096	11.35
315.309	12.08
315.521	11.15
315.733	10.63
315.946	9.14
316.158	8.3
316.371	7.82
316.583	9.12
316.795	8.16
317.008	7.53
317.22	6.17
317.432	6.81
317.644	6.64
317.857	8.69
318.069	8.57
318.281	8.95
318.494	9.72
318.706	11.23
318.918	11.38
319.13	11.31
319.342	11.86
319.555	12.18
319.767	11.7
319.979	11.86
320.191	10.85
320.403	10.62
320.615	12.23
320.827	12.31
321.039	12
321.252	11.52
321.464	10.71
321.676	10.61
321.888	9.52
322.1	9.87
322.312	11.34
322.524	11.86
322.736	12.28
322.948	13.58
323.16	14.28
323.372	13.71
323.584	13.76
323.796	14.8
324.007	14.34
324.219	14.92
324.431	14.03
324.643	12.06
324.855	11.08
325.067	11.03
325.279	9.15
325.491	9.19
325.702	8.81
325.914	7.78
326.126	7.26
326.338	6.91
326.55	7.5
326.761	7.68
326.973	8.62
327.185	9.42
327.396	10.09
327.608	10.88
327.82	11.47
328.032	11.36
328.243	11.24
328.455	11.34
328.666	12.85
328.878	12.18
329.09	13.1
329.301	13.85
329.513	13.48
329.725	11.91
329.936	11.72
330.148	9.33
330.359	10.42
330.571	11.91
330.782	12.13
330.994	11.75
331.205	11.16
331.417	11.49
331.628	9.53
331.84	9.52
332.051	11.09
332.262	10.46
332.474	11.3
332.685	11.13
332.897	11.19
333.108	11.98
333.319	12.29
333.531	12.95
333.742	12.3
333.953	12.34
334.165	11.99
334.376	10.71
334.587	11.08
334.799	12.11
335.01	11.15
335.221	10.54
335.432	11.57
335.644	10.79
335.855	10.52
336.066	10.83
336.277	12.1
336.488	12.08
336.7	12.05
336.911	11.91
337.122	11.08
337.333	12
337.544	11.05
337.755	9.77
337.966	10.51
338.177	10.45
338.388	9.87
338.599	9.4
338.811	9.55
339.022	10.28
339.233	10.51
339.444	9.14
339.655	7.96
339.866	9.07
340.076	8.62
340.287	7.68
340.498	8.48
340.709	9.38
340.92	9.47
341.131	9.4
341.342	8.94
341.553	8.21
341.764	10.12
341.975	10.65
342.185	10.4
342.396	10.34
342.607	12.05
342.818	12.2
343.029	12.42
343.239	12.79
343.45	13.36
343.661	13.28
343.872	13.81
344.082	13.36
344.293	13.16
344.504	12.82
344.714	13.35
344.925	11.85
345.136	10.88
345.346	10.69
345.557	9.83
345.768	9.08
345.978	8.23
346.189	8.86
346.399	9.11
346.61	10.04
346.821	10.76
347.031	11.12
347.242	11
347.452	12
347.663	12.55
347.873	13.89
348.084	14.95
348.294	17.04
348.504	15.6
348.715	15.17
348.925	14.19
349.136	13.95
349.346	12.3
349.557	12.07
349.767	11.78
349.977	10.35
350.188	10.26
350.398	10.53
350.608	9.03
350.819	10.2
351.029	9.51
351.239	10.66
351.449	12.23
351.66	12.91
351.87	13.66
352.08	13.12
352.29	15.01
352.501	13.57
352.711	13.63
352.921	14.49
353.131	13.23
353.341	14.34
353.552	13.5
353.762	12.8
353.972	12.01
354.182	11.75
354.392	11.28
354.602	9.87
354.812	10.94
355.022	10.86
355.232	9.89
355.442	11.12
355.652	10.4
355.862	10.39
356.072	9.3
356.282	10.05
356.492	9.98
356.702	10.09
356.912	9.3
357.122	9.19
357.332	8.63
357.542	9.89
357.752	9.37
357.962	8.9
358.171	9.07
358.381	9.64
358.591	10.26
358.801	10.56
359.011	10.29
359.221	11.06
359.43	10.43
359.64	10.54
359.85	10.23
360.06	10.49
360.269	10.4
360.479	9.81
360.689	10.4
360.899	9.71
361.108	8.88
361.318	9.82
361.528	9.65
361.737	9.76
361.947	9.34
362.156	9.14
362.366	9.39
362.576	8.95
362.785	8.88
362.995	7.63
363.204	7.45
363.414	8.76
363.623	8.19
363.833	8.15
364.042	7.67
364.252	8.53
364.461	8.52
364.671	8.29
364.88	9.57
365.09	10.27
365.299	10.69
365.509	11.39
365.718	10.39
365.927	10.36
366.137	10.31
366.346	10.57
366.555	10.29
366.765	10.3
366.974	10.08
367.183	9.54
367.393	9.82
367.602	9.71
367.811	9.18
368.021	9.08
368.23	8.75
368.439	9.28
368.648	9.01
368.857	7.96
369.067	7.38
369.276	6.81
369.485	6.93
369.694	6.92
369.903	7.34
370.112	7.66
370.321	7.97
370.531	7.4
370.74	6.89
370.949	7.41
371.158	8.26
371.367	9.24
371.576	9.51
371.785	9.66
371.994	9.87
372.203	9.2
372.412	8.43
372.621	8.34
372.83	8.7
373.039	9.3
373.248	9.47
373.457	9.1
373.666	8.8
373.874	7.85
374.083	7.97
374.292	6.9
374.501	7.59
374.71	8.94
374.919	8.84
375.128	9.46
375.336	8.44
375.545	8.84
375.754	8.66
375.963	8.18
376.171	9.13
376.38	9.23
376.589	9.27
376.798	9.6
377.006	9.12
377.215	9.47
377.424	9.01
377.632	9.29
377.841	9.04
378.05	9.45
378.258	9.64
378.467	9.23
378.675	9.02
378.884	9.76
379.093	9.3
379.301	9.06
379.51	8.83
379.718	8.82
379.927	8.92
380.135	8.32
380.344	8.29
380.552	8.49
380.761	9.22
380.969	8.88
381.177	8.19
381.386	8.1
381.594	8.22
381.803	7.63
382.011	8.01
382.219	7.85
382.428	7.83
382.636	8.05
382.845	7.34
383.053	7.02
383.261	7.36
383.469	6.99
383.678	6.83
383.886	6.36
384.094	6.63
384.302	6.32
384.511	6.35
384.719	6.72
384.927	6.06
385.135	6.52
385.343	6.47
385.552	6.22
385.76	6.69
385.968	6.86
386.176	6.96
386.384	6.91
386.592	6.85
386.8	6.93
387.008	6.58
387.216	6.91
387.424	6.94
387.633	7
387.841	7.18
388.049	6.74
388.257	6.79
388.465	7.27
388.672	7.12
388.88	7.19
389.088	7
389.296	7.16
389.504	6.75
389.712	6.42
389.92	6.1
390.128	6.01
390.336	6.02
390.544	5.65
390.751	5.27
390.959	5.33
391.167	5.31
391.375	4.9
391.583	4.43
391.79	4.58
391.998	4.55
392.206	4.56
392.414	4.57
392.621	4.81
392.829	5.08
393.037	5.43
393.244	5.21
393.452	4.8
393.66	5.19
393.867	5.45
394.075	5.27
394.283	5.69
394.49	5.83
394.698	5.71
394.905	5.74
395.113	5.69
395.32	5.18
395.528	5.44
395.735	6.1
395.943	5.98
396.15	5.91
396.358	5.73
396.565	5.26
396.773	5.47
396.98	5.79
397.188	5.26
397.395	5.25
397.602	5.47
397.81	5.79
398.017	5.25
398.225	5.36
398.432	5.67
398.639	6.09
398.847	6.26
399.054	5.66
399.261	5.35
399.468	5.78
399.676	5.61
399.883	5.76
400.09	5.3
400.297	5.37
400.505	5.4
400.712	5.17
400.919	5.36
401.126	5
401.333	4.93
401.54	4.89
401.748	5.07
401.955	4.85
402.162	4.68
402.369	4.75
402.576	4.7
402.783	4.33
402.99	4.22
403.197	3.66
403.404	4.09
403.611	4.49
403.818	4.57
404.025	4.41
404.232	4.62
404.439	4.61
404.646	4.82
404.853	5.15
405.06	5.45
405.267	5.3
405.474	5.66
405.681	5.81
405.887	5.51
406.094	5.27
406.301	5.19
406.508	5.17
406.715	4.94
406.922	4.89
407.128	5
407.335	4.79
407.542	4.98
407.749	4.69
407.955	4.21
408.162	4.35
408.369	4.39
408.575	4.16
408.782	3.97
408.989	3.98
409.195	3.83
409.402	3.28
409.609	3.75
409.815	3.74
410.022	3.92
410.228	4.13
410.435	4.24
410.642	3.88
410.848	4.23
411.055	4.67
411.261	4.64
411.468	4.7
411.674	4.76
411.881	4.79
412.087	5
412.294	5.11
412.5	4.92
412.706	4.73
412.913	5.01
413.119	4.83
413.326	4.29
413.532	4.31
413.738	4.25
413.945	4.29
414.151	4.01
414.357	4.04
414.564	4.09
414.77	4.45
414.976	4.37
415.182	4.79
415.389	4.81
415.595	4.92
415.801	4.99
416.007	5.02
416.214	5.02
416.42	4.82
416.626	4.52
416.832	4.35
417.038	3.92
417.244	3.9
417.45	3.86
417.657	3.78
417.863	3.85
418.069	3.98
418.275	3.88
418.481	3.95
418.687	4
418.893	4.12
419.099	4.15
419.305	4.39
419.511	4.31
419.717	4.23
419.923	4.24
420.129	4.22
420.335	4.24
420.541	4.24
420.746	4.36
420.952	4.43
421.158	4.45
421.364	4.33
421.57	4.32
421.776	4.57
421.982	4.64
422.187	4.76
422.393	4.75
422.599	4.63
422.805	4.64
423.01	4.38
423.216	4.32
423.422	4.3
423.628	4.43
423.833	4.38
424.039	4.21
424.245	4.01
424.45	3.85
424.656	3.87
424.862	3.9
425.067	3.88
425.273	3.99
425.478	4.07
425.684	4.06
425.889	4
426.095	4.03
426.301	4.04
426.506	3.95
426.712	3.97
426.917	4.06
427.123	4.06
427.328	4.02
427.533	4.05
427.739	3.89
427.944	3.89
428.15	3.88
428.355	3.72
428.561	3.66
428.766	3.92
428.971	3.9
429.177	3.82
429.382	3.68
429.587	3.65
429.793	3.52
429.998	3.72
430.203	3.56
430.408	3.69
430.614	3.6
430.819	3.48
431.024	3.42
431.229	3.32
431.434	3.24
431.64	3.32
431.845	3.52
432.05	3.63
432.255	3.56
432.46	3.54
432.665	3.31
432.87	3.38
433.076	3.69
433.281	3.77
433.486	3.95
433.691	3.93
433.896	3.98
434.101	3.97
434.306	4.09
434.511	4.04
434.716	4.13
434.921	4.07
435.126	4.04
435.331	3.94
435.535	3.95
435.74	4.02
435.945	3.97
436.15	3.88
436.355	3.89
436.56	3.8
436.765	3.76
436.97	3.76
437.174	3.72
437.379	3.9
437.584	3.77
437.789	3.73
437.993	3.62
438.198	3.6
438.403	3.49
438.608	3.34
438.812	3.21
439.017	3.12
439.222	3.07
439.426	3.24
439.631	3.22
439.836	3.26
440.04	3.12
440.245	3.06
440.45	3.18
440.654	3.26
440.859	3.26
441.063	3.37
441.268	3.38
441.472	3.26
441.677	3.3
441.881	3.24
442.086	3.17
442.29	3.33
442.495	3.36
442.699	3.28
442.904	3.37
443.108	3.51
443.312	3.56
443.517	3.53
443.721	3.69
443.925	3.56
444.13	3.46
444.334	3.72
444.538	3.7
444.743	3.79
444.947	3.84
445.151	3.73
445.356	3.47
445.56	3.52
445.764	3.55
445.968	3.49
446.173	3.59
446.377	3.71
446.581	3.54
446.785	3.48
446.989	3.45
447.193	3.37
447.398	3.46
447.602	3.54
447.806	3.4
448.01	3.45
448.214	3.5
448.418	3.39
448.622	3.28
448.826	3.41
449.03	3.49
449.234	3.49
449.438	3.57
449.642	3.41
449.846	3.4
450.05	3.26
450.254	3.26
450.458	3.37
450.662	3.41
450.866	3.46
451.069	3.28
451.273	3.23
451.477	3.23
451.681	3.25
451.885	3.51
452.089	3.58
452.292	3.81
452.496	3.88
452.7	4.03
452.904	4.07
453.107	4.04
453.311	4.17
453.515	4.21
453.719	4.23
453.922	4.36
454.126	4.14
454.33	4.05
454.533	3.89
454.737	3.75
454.94	3.7
455.144	3.65
455.348	3.73
455.551	3.76
455.755	3.67
455.958	3.67
456.162	3.61
456.365	3.62
456.569	3.87
456.772	3.76
456.976	3.66
457.179	3.29
457.383	3.2
457.586	3.03
457.79	2.95
457.993	2.81
458.196	2.73
458.4	2.68
458.603	2.72
458.807	2.59
459.01	2.62
459.213	2.77
459.417	2.89
459.62	2.88
459.823	2.93
460.026	2.89
460.23	3.05
460.433	3.01
460.636	3.03
460.839	3.03
461.042	3.08
461.246	3.17
461.449	3.1
461.652	3.1
461.855	3.21
462.058	3.28
462.261	3.43
462.464	3.5
462.668	3.58
462.871	3.37
463.074	3.41
463.277	3.41
463.48	3.29
463.683	3.38
463.886	3.34
464.089	3.1
464.292	2.98
464.495	3.01
464.698	2.85
464.901	2.8
465.104	2.99
465.306	2.81
465.509	2.67
465.712	2.75
465.915	2.57
466.118	2.57
466.321	2.9
466.524	3
466.726	2.93
466.929	2.83
467.132	2.82
467.335	2.78
467.538	2.93
467.74	3.04
467.943	3.12
468.146	2.99
468.348	3.09
468.551	2.89
468.754	2.8
468.956	2.6
469.159	2.68
469.362	2.81
469.564	2.77
469.767	2.8
469.969	2.72
470.172	2.64
470.375	2.85
470.577	2.86
470.78	2.85
470.982	2.77
471.185	2.94
471.387	2.82
471.59	2.83
471.792	3.04
471.995	3.06
472.197	3.15
472.399	3.22
472.602	3.22
472.804	3.19
473.007	3.26
473.209	3.33
473.411	3.3
473.614	3.47
473.816	3.32
474.018	3.08
474.22	3.05
474.423	3.04
474.625	3.07
474.827	3.1
475.03	3.11
475.232	2.84
475.434	2.91
475.636	2.9
475.838	2.85
476.04	2.83
476.243	2.88
476.445	2.74
476.647	2.74
476.849	2.74
477.051	2.62
477.253	2.56
477.455	2.88
477.657	3.08
477.859	3.01
478.061	3.06
478.263	3.24
478.465	3.27
478.667	3.36
478.869	3.32
479.071	3.42
479.273	3.5
479.475	3.4
479.677	3.28
479.879	2.96
480.081	3.08
480.283	3.17
480.485	3.12
480.686	3.06
480.888	3.18
481.09	3.2
481.292	3.05
481.494	3.06
481.695	3.12
481.897	3.15
482.099	3.35
482.301	3.32
482.502	3.24
482.704	3.22
482.906	3.31
483.107	3.26
483.309	3.28
483.511	3.29
483.712	3.33
483.914	3.31
484.115	3.28
484.317	3.26
484.519	3.26
484.72	3.29
484.922	3.3
485.123	3.26
485.325	3.25
485.526	3.2
485.728	3.19
485.929	3.16
486.131	3.18
486.332	3.23
486.534	3.22
486.735	3.22
486.936	3.19
487.138	3.16
487.339	3.18
487.541	3.21
487.742	3.26
487.943	3.24
488.144	3.24
488.346	3.24
488.547	3.19
488.748	3.18
488.95	3.19
489.151	3.18
489.352	3.19
489.553	3.16
489.755	3.17
489.956	3.18
490.157	3.28
490.358	3.29
490.559	3.34
490.76	3.41
490.961	3.41
491.163	3.33
491.364	3.33
491.565	3.36
491.766	3.43
491.967	3.46
492.168	3.46
492.369	3.44
492.57	3.41
492.771	3.37
492.972	3.39
493.173	3.41
493.374	3.45
493.575	3.48
493.776	3.54
493.976	3.42
494.177	3.38
494.378	3.36
494.579	3.32
494.78	3.38
494.981	3.51
495.182	3.49
495.382	3.47
495.583	3.49
495.784	3.48
495.985	3.37
496.185	3.37
496.386	3.39
496.587	3.47
496.788	3.49
496.988	3.59
497.189	3.5
497.39	3.59
497.59	3.52
497.791	3.59
497.992	3.68
498.192	3.76
498.393	3.6
498.593	3.71
498.794	3.63
498.994	3.64
499.195	3.49
499.395	3.53
499.596	3.39
499.796	3.44
499.997	3.33
500.197	3.22
500.398	3.25
500.598	3.5
500.799	3.33
500.999	3.29
501.199	3.32
501.4	3.46
501.6	3.5
501.801	3.65
502.001	3.54
502.201	3.61
502.402	3.57
502.602	3.45
502.802	3.43
503.002	3.24
503.203	3.3
503.403	3.31
503.603	3.32
503.803	3.31
504.003	3.36
504.204	3.45
504.404	3.62
504.604	3.69
504.804	3.7
505.004	3.61
505.204	3.71
505.404	3.67
505.604	3.65
505.804	3.51
506.005	3.3
506.205	3.12
506.405	3.23
506.605	3
506.805	3.01
507.005	3.05
507.204	3.2
507.404	3.29
507.604	3.33
507.804	3.38
508.004	3.49
508.204	3.54
508.404	3.66
508.604	3.56
508.804	3.64
509.003	3.63
509.203	3.62
509.403	3.55
509.603	3.57
509.803	3.61
510.002	3.49
510.202	3.32
510.402	3.43
510.602	3.38
510.801	3.45
511.001	3.39
511.201	3.42
511.4	3.47
511.6	3.51
511.8	3.35
511.999	3.43
512.199	3.53
512.398	3.58
512.598	3.56
512.797	3.6
512.997	3.56
513.197	3.55
513.396	3.56
513.596	3.67
513.795	3.69
513.994	3.92
514.194	3.68
514.393	3.6
514.593	3.7
514.792	3.55
514.992	3.41
515.191	3.45
515.39	3.56
515.59	3.68
515.789	3.34
515.988	3.21
516.188	3.1
516.387	3.25
516.586	3.28
516.786	3.37
516.985	3.65
517.184	3.74
517.383	3.7
517.582	3.67
517.782	3.61
517.981	3.77
518.18	3.89
518.379	3.95
518.578	3.99
518.777	4.12
518.976	4.09
519.176	4.05
519.375	4.05
519.574	4.08
519.773	4.14
519.972	4.13
520.171	4.19
520.37	4.23
520.569	4.2
520.768	4.24
520.967	4.12
521.166	4.05
521.365	3.98
521.564	4.01
521.762	4.12
521.961	4.09
522.16	4.08
522.359	4.11
522.558	3.99
522.757	3.9
522.956	3.75
523.154	3.85
523.353	4.03
523.552	4.11
523.751	4
523.949	3.85
524.148	3.83
524.347	3.69
524.546	3.71
524.744	3.9
524.943	4.04
525.142	4.13
525.34	4.08
525.539	4.01
525.737	4
525.936	4.11
526.135	4.2
526.333	4.15
526.532	4.38
526.73	4.32
526.929	4.22
527.127	4.27
527.326	4.29
527.524	4.34
527.723	4.36
527.921	4.33
528.12	4.34
528.318	4.32
528.516	4.4
528.715	4.33
528.913	4.4
529.112	4.44
529.31	4.41
529.508	4.44
529.707	4.37
529.905	4.37
530.103	4.47
530.301	4.53
530.5	4.53
530.698	4.5
530.896	4.52
531.094	4.55
531.293	4.58
531.491	4.54
531.689	4.46
531.887	4.66
532.085	4.66
532.283	4.65
532.481	4.55
532.68	4.69
532.878	4.71
533.076	4.79
533.274	4.77
533.472	4.84
533.67	4.85
533.868	4.96
534.066	4.9
534.264	4.93
534.462	4.94
534.66	5.03
534.858	4.99
535.056	4.96
535.253	4.92
535.451	4.88
535.649	4.82
535.847	4.95
536.045	4.86
536.243	4.87
536.441	4.84
536.638	4.87
536.836	4.92
537.034	4.95
537.232	4.96
537.43	4.93
537.627	5.05
537.825	5.11
538.023	5.07
538.22	5.23
538.418	5.28
538.616	5.32
538.813	5.29
539.011	5.35
539.209	5.33
539.406	5.44
539.604	5.7
539.801	5.58
539.999	5.55
540.196	5.67
540.394	5.54
540.591	5.56
540.789	5.6
540.986	5.63
541.184	5.61
541.381	5.66
541.579	5.66
541.776	5.59
541.974	5.69
542.171	5.75
542.368	5.72
542.566	5.83
542.763	5.84
542.96	5.8
543.158	5.92
543.355	5.87
543.552	5.93
543.75	5.94
543.947	6.05
544.144	6.08
544.341	6.04
544.539	6.09
544.736	6.11
544.933	6.22
545.13	6.43
545.327	6.44
545.524	6.51
545.722	6.44
545.919	6.57
546.116	6.6
546.313	6.62
546.51	6.65
546.707	6.65
546.904	6.67
547.101	6.63
547.298	6.65
547.495	6.55
547.692	6.74
547.889	6.83
548.086	6.84
548.283	6.88
548.48	7.01
548.677	7.24
548.874	7.32
549.07	7.48
549.267	7.53
549.464	7.51
549.661	7.66
549.858	7.5
550.055	7.5
550.251	7.56
550.448	7.45
550.645	7.55
550.842	7.51
551.038	7.62
551.235	7.76
551.432	7.89
551.628	8.24
551.825	8.4
552.022	8.47
552.218	8.59
552.415	8.71
552.612	8.96
552.808	9
553.005	9.09
553.201	9.2
553.398	9.1
553.594	9.04
553.791	8.93
553.987	8.94
554.184	9.04
554.38	9.02
554.577	9
554.773	8.87
554.97	8.73
555.166	8.75
555.362	8.79
555.559	9.03
555.755	9.07
555.952	9.05
556.148	9.03
556.344	9.24
556.541	9.37
556.737	9.64
556.933	9.8
557.129	9.76
557.326	9.87
557.522	9.73
557.718	9.79
557.914	9.98
558.11	9.97
558.307	10.07
558.503	10.15
558.699	10.31
558.895	10.35
559.091	10.47
559.287	10.75
559.483	10.62
559.679	10.89
559.876	10.73
560.072	11.05
560.268	11.11
560.464	11.08
560.66	11.06
560.856	11.15
561.052	11.11
561.247	11.19
561.443	11.29
561.639	11.51
561.835	11.58
562.031	11.9
562.227	11.83
562.423	11.8
562.619	11.84
562.815	11.99
563.01	12.04
563.206	12.21
563.402	12.13
563.598	12.19
563.793	12.4
563.989	12.48
564.185	12.27
564.381	12.19
564.576	12.31
564.772	12.38
564.968	12.31
565.163	12.27
565.359	12.22
565.555	12.31
565.75	12.17
565.946	11.87
566.141	11.86
566.337	11.85
566.532	11.95
566.728	12.06
566.923	12.16
567.119	12.33
567.314	12.53
567.51	12.45
567.705	12.54
567.901	12.64
568.096	12.79
568.292	12.92
568.487	13.12
568.682	13.09
568.878	13.05
569.073	13.13
569.268	13.06
569.464	13.13
569.659	13.28
569.854	13.25
570.05	13.31
570.245	13.52
570.44	13.44
570.635	13.52
570.831	13.7
571.026	14.03
571.221	14.15
571.416	14.29
571.611	14.28
571.806	14.43
572.002	14.4
572.197	14.45
572.392	14.56
572.587	14.7
572.782	14.71
572.977	14.74
573.172	14.61
573.367	14.66
573.562	14.8
573.757	14.82
573.952	14.7
574.147	14.96
574.342	14.94
574.537	14.72
574.732	14.65
574.927	14.65
575.121	14.74
575.316	14.9
575.511	14.85
575.706	14.66
575.901	14.59
576.096	14.79
576.29	14.92
576.485	15.15
576.68	15.61
576.875	15.68
577.069	15.88
577.264	15.85
577.459	15.76
577.654	15.86
577.848	16.15
578.043	16.07
578.238	15.97
578.432	15.72
578.627	15.75
578.821	15.71
579.016	15.72
579.21	15.92
579.405	15.8
579.6	15.81
579.794	15.7
579.989	15.47
580.183	15.79
580.378	15.87
580.572	16.26
580.766	16.32
580.961	15.82
581.155	15.57
581.35	15.48
581.544	15.89
581.738	15.87
581.933	16.13
582.127	16.11
582.321	16.18
582.516	16.27
582.71	16.01
582.904	15.84
583.099	16.13
583.293	16.3
583.487	16.33
583.681	15.92
583.875	16.31
584.07	16.18
584.264	16.22
584.458	16.17
584.652	16.05
584.846	16.18
585.04	16.4
585.234	16.43
585.428	16.79
585.623	16.51
585.817	16.98
586.011	16.95
586.205	16.99
586.399	17.07
586.593	17.11
586.787	17.05
586.981	17.07
587.174	17.13
587.368	17.17
587.562	16.9
587.756	17.21
587.95	16.9
588.144	16.82
588.338	16.88
588.532	16.89
588.725	16.87
588.919	16.99
589.113	17.09
589.307	17.22
589.501	17.17
589.694	17.15
589.888	16.95
590.082	17.22
590.275	17.37
590.469	17.45
590.663	17.63
590.856	17.76
591.05	17.79
591.244	17.86
591.437	17.68
591.631	17.82
591.824	17.97
592.018	18.22
592.212	17.94
592.405	17.76
592.599	17.59
592.792	17.56
592.986	17.53
593.179	17.46
593.372	17.09
593.566	17.07
593.759	16.98
593.953	16.81
594.146	16.99
594.339	17.29
594.533	17.36
594.726	17.32
594.92	17.12
595.113	17.22
595.306	17.43
595.499	17.45
595.693	17.63
595.886	17.83
596.079	18.11
596.272	17.71
596.466	17.62
596.659	17.72
596.852	17.75
597.045	17.93
597.238	17.86
597.431	17.81
597.624	17.8
597.818	17.47
598.011	17.55
598.204	17.45
598.397	17.52
598.59	17.6
598.783	17.45
598.976	17.54
599.169	17.57
599.362	17.7
599.555	17.72
599.748	18.03
599.941	18.6
600.134	18.34
600.326	18.47
600.519	18.6
600.712	18.4
600.905	18.36
601.098	18.46
601.291	18.31
601.483	18.38
601.676	18.43
601.869	18.44
602.062	18.25
602.255	18.39
602.447	18.28
602.64	18.37
602.833	18.34
603.025	18.29
603.218	18.4
603.411	18.5
603.603	18.17
603.796	18.24
603.989	18.15
604.181	18.05
604.374	18.09
604.566	18.22
604.759	18.25
604.951	18.48
605.144	18.55
605.336	18.23
605.529	18.23
605.721	18.38
605.914	18.31
606.106	18.38
606.299	18.44
606.491	18.47
606.683	18.35
606.876	18.16
607.068	18.07
607.26	17.9
607.453	18.01
607.645	17.98
607.837	17.88
608.03	17.74
608.222	17.48
608.414	17.48
608.606	17.32
608.799	17.61
608.991	17.7
609.183	17.84
609.375	18.05
609.567	18.28
609.759	18.43
609.952	18.61
610.144	18.65
610.336	19.12
610.528	19.31
610.72	19.47
610.912	19.38
611.104	19.55
611.296	19.37
611.488	19.47
611.68	19.46
611.872	19.4
612.064	19.34
612.256	19.42
612.448	19.12
612.64	18.92
612.832	18.73
613.023	18.64
613.215	18.51
613.407	18.26
613.599	18.37
613.791	18.34
613.983	18.28
614.174	18.43
614.366	18.33
614.558	18.16
614.75	18.05
614.941	18.05
615.133	18.1
615.325	18.09
615.516	18.37
615.708	18
615.9	18.08
616.091	18.29
616.283	18.2
616.475	18.14
616.666	18.28
616.858	18.23
617.049	18.37
617.241	18.06
617.432	18.12
617.624	18.03
617.815	18.4
618.007	18.09
618.198	17.98
618.39	17.94
618.581	17.7
618.773	17.99
618.964	17.9
619.155	17.74
619.347	17.94
619.538	17.82
619.729	17.8
619.921	17.75
620.112	17.9
620.303	17.62
620.494	17.78
620.686	18.35
620.877	17.85
621.068	18.39
621.259	18.41
621.451	18.46
621.642	18.79
621.833	18.97
622.024	18.84
622.215	18.87
622.406	18.86
622.597	18.71
622.788	18.68
622.98	18.98
623.171	18.74
623.362	18.78
623.553	18.46
623.744	17.9
623.935	18.08
624.126	18.07
624.317	18.26
624.508	18.31
624.698	18.47
624.889	18.51
625.08	18.61
625.271	18.77
625.462	19.04
625.653	19.45
625.844	20.17
626.034	20.21
626.225	20.25
626.416	20.25
626.607	20.27
626.798	20.26
626.988	20.28
627.179	20.27
627.37	20.18
627.56	19.98
627.751	19.89
627.942	19.33
628.132	18.98
628.323	19.05
628.514	18.87
628.704	19.12
628.895	19.08
629.085	19.14
629.276	19.09
629.466	19.24
629.657	19.32
629.847	19.37
630.038	19.58
630.228	19.84
630.419	19.99
630.609	20.18
630.8	20.17
630.99	19.97
631.181	20.03
631.371	19.94
631.561	19.69
631.752	19.79
631.942	19.6
632.132	19.7
632.323	19.68
632.513	19.52
632.703	19.63
632.893	19.6
633.084	19.61
633.274	19.41
633.464	19.37
633.654	19.46
633.844	19.4
634.034	19.45
634.225	19.73
634.415	19.54
634.605	19.34
634.795	19.35
634.985	19.26
635.175	19.35
635.365	19.37
635.555	19.23
635.745	19.24
635.935	19.15
636.125	19.27
636.315	19.21
636.505	19.26
636.695	19.28
636.885	19.08
637.075	19.05
637.265	19.05
637.455	19.13
637.644	19.24
637.834	19.34
638.024	19.21
638.214	19.1
638.404	18.85
638.593	19.17
638.783	19.14
638.973	18.95
639.163	18.86
639.352	18.6
639.542	18.7
639.732	19.12
639.921	18.72
640.111	18.88
640.301	18.75
640.49	18.78
640.68	18.59
640.87	18.47
641.059	18.38
641.249	18.85
641.438	19.2
641.628	18.99
641.817	18.95
642.007	19.34
642.196	19.29
642.386	19.68
642.575	19.09
642.764	19.01
642.954	19.24
643.143	19.31
643.333	18.62
643.522	18.59
643.711	18.87
643.901	18.88
644.09	18.5
644.279	18.87
644.469	18.76
644.658	18.96
644.847	18.99
645.036	18.59
645.226	18.56
645.415	18.71
645.604	18.58
645.793	18.6
645.982	18.42
646.171	18.37
646.361	18.19
646.55	17.87
646.739	18.16
646.928	18.35
647.117	18.97
647.306	18.87
647.495	18.97
647.684	19.03
647.873	18.67
648.062	19.01
648.251	18.95
648.44	18.74
648.629	19.18
648.818	19.19
649.007	19.29
649.196	19.14
649.384	19.37
649.573	19.74
649.762	19.9
649.951	19.66
650.14	19.46
650.328	19.59
650.517	19.58
650.706	19.52
650.895	19.15
651.083	18.92
651.272	18.57
651.461	18.84
651.65	18.6
651.838	18.13
652.027	18.33
652.216	18.27
652.404	18.29
652.593	18.94
652.781	18.77
652.97	18.6
653.158	18.31
653.347	18.94
653.535	18.66
653.724	18.67
653.912	19.4
654.101	19.39
654.289	18.72
654.478	19.13
654.666	18.7
654.855	18.64
655.043	19.14
655.231	19.9
655.42	19.7
655.608	19.62
655.796	19.6
655.985	19.41
656.173	19.33
656.361	20.12
656.55	19.99
656.738	20.02
656.926	20.01
657.114	19.98
657.302	19.4
657.491	19.58
657.679	19.52
657.867	19.47
658.055	18.97
658.243	19.01
658.431	18.99
658.619	19.17
658.807	19.09
658.996	19.23
659.184	19.14
659.372	19.29
659.56	19.01
659.748	19.52
659.936	19.17
660.124	19.71
660.311	19.62
660.499	19.72
660.687	19.44
660.875	19.45
661.063	19.25
661.251	19.33
661.439	19.24
661.627	18.86
661.814	18.49
662.002	19.1
662.19	19.18
662.378	19.68
662.565	19.62
662.753	19.55
662.941	19.44
663.129	19.43
663.316	19.78
663.504	19.76
663.692	20.24
663.879	20.65
664.067	20.24
664.254	19.86
664.442	19.52
664.63	19.14
664.817	19.31
665.005	19.81
665.192	20.39
665.38	19.93
665.567	20.42
665.755	20.38
665.942	19.82
666.13	20.68
666.317	20.09
666.504	20.04
666.692	20.02
666.879	20.1
667.067	19.76
667.254	19.27
667.441	19.19
667.629	18.77
667.816	18.51
668.003	18.66
668.19	18.25
668.378	19.03
668.565	19.24
668.752	19.46
668.939	19.46
669.127	19.47
669.314	20.25
669.501	21.04
669.688	20.79
669.875	20.83
670.062	20.73
670.249	20.51
670.436	19.77
670.623	20.03
670.81	20.17
670.997	20.26
671.184	19.88
671.371	19.4
671.558	18.89
671.745	19.2
671.932	20.12
672.119	20.47
672.306	20.64
672.493	21.32
672.68	21.34
672.867	21.04
673.054	20.67
673.24	20.7
673.427	20.61
673.614	21.08
673.801	21.25
673.988	20.68
674.174	20.67
674.361	20.38
674.548	20.81
674.734	20.54
674.921	20.98
675.108	21.27
675.294	21.36
675.481	21.59
675.668	21.53
675.854	21.35
676.041	22.02
676.227	21.93
676.414	21.68
676.601	21.75
676.787	22.23
676.974	21.95
677.16	21.49
677.347	21.94
677.533	21.89
677.719	21.33
677.906	21.11
678.092	20.51
678.279	19.95
678.465	20.45
678.651	20.29
678.838	19.85
679.024	19.82
679.21	20.22
679.397	20.2
679.583	19.92
679.769	20.01
679.955	19.99
680.142	19.9
680.328	20.05
680.514	19.59
680.7	19.23
680.886	19.32
681.073	19.48
681.259	19.4
681.445	19.11
681.631	18.86
681.817	18.84
682.003	19.38
682.189	19.64
682.375	19.53
682.561	20.2
682.747	20.37
682.933	20.66
683.119	20.46
683.305	20.61
683.491	20.5
683.677	21.12
683.863	21.27
684.049	21.02
684.235	21.16
684.42	21.63
684.606	21.41
684.792	21.14
684.978	20.86
685.164	21.06
685.349	21.25
685.535	21.77
685.721	21.75
685.907	21.43
686.092	21.57
686.278	21.18
686.464	21.34
686.649	20.95
686.835	21.05
687.021	20.71
687.206	20.48
687.392	20.29
687.577	20.29
687.763	20.64
687.948	21.09
688.134	20.99
688.319	20.88
688.505	20.68
688.69	20.77
688.876	20.35
689.061	20.39
689.247	20.53
689.432	20.52
689.618	20.1
689.803	19.55
689.988	19.36
690.174	19.08
690.359	19.07
690.544	19.63
690.73	19.88
690.915	20.74
691.1	20.45
691.285	20.72
691.471	20.58
691.656	20.62
691.841	20.34
692.026	20.42
692.211	20.7
692.396	20.98
692.582	20.51
692.767	20.48
692.952	19.93
693.137	20.37
693.322	20.24
693.507	20.47
693.692	21.18
693.877	21.48
694.062	21.83
694.247	21.78
694.432	22.12
694.617	22.05
694.802	21.69
694.987	22.22
695.172	22.14
695.357	22.28
695.541	22.19
695.726	21.46
695.911	21.13
696.096	20.58
696.281	20.18
696.466	19.47
696.65	19.42
696.835	20.34
697.02	19.94
697.204	19.86
697.389	19.85
697.574	20.39
697.759	20.59
697.943	20.58
698.128	20.87
698.312	21.1
698.497	21.92
698.682	21.77
698.866	21.11
699.051	21.38
699.235	21.54
699.42	21.14
699.604	20.73
699.789	21.09
699.973	21.07
700.158	20.94
700.342	21.03
700.527	20.79
700.711	21.03
700.895	21.77
701.08	21.37
701.264	21.21
701.448	21.8
701.633	21.56
701.817	21.01
702.001	21.16
702.186	20.79
702.37	21.42
702.554	20.69
702.738	20.66
702.923	20
703.107	20.05
703.291	20.38
703.475	19.87
703.659	20.29
703.843	20.24
704.027	20.05
704.212	20.7
704.396	19.78
704.58	20.09
704.764	20.11
704.948	20.64
705.132	20.36
705.316	20.67
705.5	20.82
705.684	21.23
705.868	21.14
706.052	21.35
706.235	21.06
706.419	20.85
706.603	20.57
706.787	20.73
706.971	20.48
707.155	21.44
707.339	20.4
707.522	20.51
707.706	19.26
707.89	19.27
708.074	19.95
708.257	19.78
708.441	20.14
708.625	20.23
708.808	19.8
708.992	19.61
709.176	19.44
709.359	19.96
709.543	20.51
709.727	21.53
709.91	21.71
710.094	21.2
710.277	21.45
710.461	21.71
710.644	21.44
710.828	21.79
711.011	21.61
711.195	21.76
711.378	22.31
711.562	21.65
711.745	21.06
711.928	21.34
712.112	21.45
712.295	21.42
712.478	21.15
712.662	21.85
712.845	21.9
713.028	22.17
713.212	20.77
713.395	20.29
713.578	20.25
713.761	20.65
713.945	19.97
714.128	19.82
714.311	19.91
714.494	20.26
714.677	19.98
714.86	20.27
715.043	20.13
715.227	21.46
715.41	20.96
715.593	21.22
715.776	21
715.959	21.62
716.142	22.12
716.325	22.32
716.508	22.03
716.691	21.79
716.874	20.88
717.057	21.44
717.239	21.28
717.422	21.34
717.605	21.09
717.788	21.26
717.971	21.55
718.154	21.36
718.337	21.46
718.519	21.78
718.702	21.56
718.885	22
719.068	21.89
719.25	21.32
719.433	22.4
719.616	22.79
719.798	22.33
719.981	22.62
720.164	22.5
720.346	21.84
720.529	20.54
720.712	20.53
720.894	20.61
721.077	20.06
721.259	20.81
721.442	20.99
721.624	20.62
721.807	20.73
721.989	20.51
722.172	20.36
722.354	19.92
722.537	20.53
722.719	20.74
722.901	20.24
723.084	20.33
723.266	20.16
723.448	19.07
723.631	19
723.813	19.57
723.995	18.92
724.178	17.77
724.36	18.75
724.542	19.38
724.724	20.14
724.907	20.94
725.089	20.85
725.271	20.59
725.453	20.67
725.635	21.69
725.817	22.09
725.999	21.45
726.181	23.15
726.364	22.91
726.546	22.22
726.728	20.84
726.91	20.29
727.092	20.74
727.274	20.27
727.456	20.06
727.638	19.18
727.819	19.29
728.001	20.12
728.183	19.74
728.365	19.36
728.547	20.32
728.729	22.23
728.911	22.53
729.093	22.47
729.274	22.82
729.456	23.68
729.638	23.99
729.82	23.36
730.001	23.13
730.183	23.02
730.365	23.75
730.546	23.2
730.728	21.96
730.91	21.8
731.091	21.62
731.273	21.9
731.455	21.07
731.636	21.55
731.818	20.98
731.999	21.23
732.181	20.87
732.362	20.32
732.544	19.85
732.725	20.51
732.907	20.39
733.088	20.2
733.27	20.63
733.451	21.65
733.633	20.63
733.814	20.73
733.995	21.14
734.177	22.62
734.358	22.04
734.539	22.97
734.721	22.31
734.902	22.5
735.083	22.71
735.264	22.13
735.446	21.69
735.627	21.71
735.808	21.62
735.989	20.39
736.17	18.69
736.351	20.17
736.533	20.46
736.714	20.59
736.895	19.5
737.076	19.11
737.257	18.86
737.438	19.09
737.619	19.43
737.8	21.08
737.981	21.87
738.162	22.07
738.343	21.33
738.524	20.83
738.705	20.88
738.886	22.32
739.067	22.57
739.247	22.64
739.428	21.94
739.609	22.54
739.79	22.13
739.971	21.66
740.151	21.85
740.332	21.48
740.513	21.5
740.694	22.23
740.874	22.09
741.055	22.38
741.236	22.72
741.417	24.08
741.597	23.58
741.778	23.74
741.958	23.13
742.139	22.96
742.32	24.36
742.5	25.1
742.681	23.6
742.861	23.17
743.042	22.88
743.222	22.88
743.403	21.54
743.583	21.36
743.764	21.54
743.944	21.89
744.124	21.96
744.305	21.87
744.485	20.26
744.666	21.28
744.846	22.2
745.026	22.53
745.207	22.55
745.387	22.81
745.567	22.8
745.747	22.04
745.928	22.82
746.108	22.26
746.288	22.08
746.468	23.34
746.648	23.47
746.829	22.16
747.009	21.97
747.189	21.65
747.369	22.28
747.549	22.53
747.729	22.12
747.909	21.7
748.089	21.58
748.269	21.17
748.449	19.78
748.629	20.5
748.809	20.64
748.989	20.96
749.169	22.12
749.349	20.46
749.529	20.78
749.709	20.29
749.889	19.06
750.068	20.08
750.248	20.52
750.428	21.32
750.608	20.29
750.788	20.64
750.967	20.77
751.147	19.8
751.327	20.8
751.507	20.15
751.686	21.66
751.866	22.5
752.046	22.06
752.225	20.63
752.405	20.34
752.585	19.21
752.764	19.13
752.944	18.65
753.123	18.78
753.303	19.72
753.482	19.33
753.662	19.28
753.841	20.61
754.021	21.34
754.2	21.7
754.38	21.76
754.559	22.85
754.739	21.76
754.918	21.12
755.097	20.51
755.277	18.82
755.456	19.65
755.635	18.61
755.815	17.44
755.994	16.74
756.173	16.22
756.352	15.19
756.532	15.04
756.711	16.46
756.89	18.34
757.069	19.71
757.248	20.1
757.427	18.95
757.607	19.16
757.786	19.59
757.965	19.44
758.144	19.86
758.323	21.3
758.502	21.87
758.681	21.93
758.86	22.69
759.039	21.07
759.218	22.03
759.397	22.72
759.576	21.43
759.755	20.89
759.934	20.97
760.113	22.78
760.291	22.01
760.47	23.04
760.649	22.51
760.828	21.92
761.007	23.48
761.186	23.03
761.364	23.48
761.543	24.43
761.722	26.43
761.901	25.92
762.079	24.53
762.258	24.31
762.437	23.27
762.615	23.47
762.794	22.94
762.972	22.08
763.151	21.4
763.33	20.52
763.508	20.99
763.687	19
763.865	18.59
764.044	18.62
764.222	19.2
764.401	19.12
764.579	19.34
764.758	19.05
764.936	19.15
765.114	19.75
765.293	20.4
765.471	19.85
765.65	20.58
765.828	22.13
766.006	23.2
766.184	22.15
766.363	22.4
766.541	21.79
766.719	21.74
766.898	21.89
767.076	20.83
767.254	22
767.432	22.22
767.61	23.14
767.788	21.09
767.967	20.1
768.145	22.24
768.323	21.74
768.501	21.75
768.679	21.15
768.857	21.5
769.035	23.08
769.213	22.28
769.391	21.12
769.569	19.9
769.747	22.32
769.925	22.55
770.103	21.14
770.281	21.39
770.459	21.84
770.636	21.65
770.814	20.9
770.992	21.35
771.17	18.88
771.348	19.17
771.525	19.27
771.703	19.04
771.881	17.14
772.059	17.52
772.236	16.63
772.414	16.31
772.592	17.74
772.769	18.4
772.947	16.57
773.125	19.49
773.302	21.47
773.48	21.15
773.657	22.27
773.835	24.18
774.013	24.22
774.19	25.57
774.368	26.3
774.545	26.27
774.723	25.06
774.9	23.35
775.077	23.25
775.255	24.13
775.432	25.85
775.61	25.49
775.787	27
775.964	26.11
776.142	25.99
776.319	26.08
776.496	25.07
776.674	25.34
776.851	28.62
777.028	28.73
777.205	26.53
777.382	24.64
777.56	23.03
777.737	21.3
777.914	20.42
778.091	17.69
778.268	16.77
778.445	18.53
778.622	18.47
778.8	20.12
778.977	19.57
779.154	18.82
779.331	19.84
779.508	17.22
779.685	18.06
779.862	19.62
780.038	22.76
780.215	23.85
780.392	22.12
780.569	21.59
780.746	21.86
780.923	21.96
781.1	23.73
781.277	24.65
781.453	26.12
781.63	25.23
781.807	24.76
781.984	24.59
782.16	26.23
782.337	25.76
782.514	27.5
782.691	24.21
782.867	23.48
783.044	24.29
783.221	21.06
783.397	20.93
783.574	21.88
783.75	20.91
783.927	20.01
784.103	18.15
784.28	21.13
784.456	20.82
784.633	22.12
784.809	21.22
784.986	19.68
785.162	22.58
785.339	23.6
785.515	22.77
785.692	23.57
785.868	25.53
786.044	25.25
786.221	20.97
786.397	20.51
786.573	21.12
786.749	21.97
786.926	22.62
787.102	22.39
787.278	23.17
787.454	23.81
787.631	25.07
787.807	25.55
787.983	24.82
788.159	28.15
788.335	28.23
788.511	27.56
788.687	27.34
788.863	28.19
789.039	29.4
789.216	28
789.392	27.95
789.568	26.84
789.744	26.74
789.919	26.37
790.095	25.95
790.271	25.14
790.447	24.21
790.623	23.93
790.799	22
790.975	21.91
791.151	22.65
791.327	20.78
791.502	21.8
791.678	17.46
791.854	18.63
792.03	14.87
792.205	14.77
792.381	13.13
792.557	11.85
792.733	13.04
792.908	11.42
793.084	13.48
793.259	11.5
793.435	15.02
793.611	17.51
793.786	16.74
793.962	17.73
794.137	16.86
794.313	17.53
794.488	20.75
794.664	21.74
794.839	19.33
795.015	20.15
795.19	19
795.366	16.57
795.541	18.04
795.716	18.62
795.892	20.35
796.067	22.41
796.242	23.56
796.418	21.39
796.593	20.2
796.768	24.32
796.944	24.45
797.119	30.06
797.294	28.16
797.469	26.24
797.644	22.8
797.82	21.35
797.995	22.24
798.17	22.17
798.345	23.7
798.52	24.12
798.695	22
798.87	19.65
799.045	16.25
799.22	16.82
799.395	17.17
799.57	20.17
799.745	20.41
799.92	17.2
800.095	18.15
800.27	16.92
800.445	16.09
800.62	18.19
800.795	16.93
800.97	18.87
801.145	22.52
801.319	23.22
801.494	23.05
801.669	21.26
801.844	23.9
802.018	21.05
802.193	22.23
802.368	23.1
802.543	21.81
802.717	22.34
802.892	21.71
803.067	16.99
803.241	17.97
803.416	22.27
803.59	28.09
803.765	25.04
803.94	30.83
804.114	34.34
804.289	32.83
804.463	31
804.638	33.87
804.812	34.73
804.986	35.34
805.161	32.84
805.335	30.3
805.51	29.81
805.684	31.83
805.858	27.57
806.033	23.17
806.207	27.38
806.381	29.52
806.556	27.82
806.73	25.02
806.904	26.77
807.078	25.25
807.253	24.03
807.427	19.8
807.601	18.83
807.775	17.67
807.949	21.14
808.123	15.39
808.298	11.69
808.472	8.69
808.646	6.59
808.82	3.23
808.994	5.03
809.168	8.72
809.342	11.03
809.516	14.06
809.69	14
809.864	11.67
810.038	16.49
810.212	20.16
810.385	23.19
810.559	25.37
810.733	26.84
810.907	29.89
811.081	26.69
811.255	23.76
811.428	23.5
811.602	25.57
811.776	26.81
811.95	24.43
812.123	24.38
812.297	23.18
812.471	27.5
812.644	28.89
812.818	24.79
812.992	26.24
813.165	28.74
813.339	28.69
813.512	28.78
813.686	27.23
813.86	25.94
814.033	23.22
814.207	25.84
814.38	24.64
814.554	23.26
814.727	27.09
814.9	27.83
815.074	31.59
815.247	32.58
815.421	27.84
815.594	27.02
815.767	21.73
815.941	18.36
816.114	15.38
816.287	13.09
816.46	11.12
816.634	7.92
816.807	5.33
816.98	1.17
817.153	-0.41
817.327	2.99
817.5	3.97
817.673	13.86
817.846	17.65
818.019	15.37
818.192	17.98
818.365	23.76
818.538	26.08
818.711	30.42
818.884	31.59
819.057	28.53
819.23	28.5
819.403	28.08
819.576	27.11
819.749	27.63
819.922	32.35
820.095	30.96
820.268	27.16
820.441	25.1
820.614	23.99
820.786	22.27
820.959	25.99
821.132	26.92
821.305	28.72
821.477	26.01
821.65	25.59
821.823	23.44
821.996	22.7
822.168	23.1
822.341	22.34
822.514	22.42
822.686	22.32
822.859	22.08
823.031	21.32
823.204	20.66
823.376	22.15
823.549	22.41
823.722	22.88
823.894	22.71
824.067	22.68
824.239	23.66
824.411	23.51
824.584	22.62
824.756	21.73
824.929	21.41
825.101	20.6
825.273	19.16
825.446	18.56
825.618	19.65
825.79	20.05
825.963	21
826.135	20.09
826.307	19.75
826.479	21.5
826.652	21.79
826.824	23.52
826.996	24.24
827.168	25.85
827.34	25.63
827.512	24.77
827.684	24.29
827.856	23.75
828.029	24.95
828.201	26.32
828.373	26.37
828.545	27.17
828.717	26.63
828.889	26.85
829.061	24.47
829.232	25.13
829.404	26.41
829.576	27.63
829.748	27.15
829.92	26.03
830.092	26.36
830.264	26.23
830.436	22.87
830.607	24.37
830.779	24.69
830.951	25.52
831.123	27.89
831.294	23.88
831.466	21.66
831.638	22.23
831.809	26.43
831.981	22.26
832.153	21.41
832.324	24.3
832.496	21.03
832.667	21.43
832.839	22.94
833.011	19.18
833.182	22.49
833.354	22.95
833.525	23.19
833.697	20.4
833.868	22.67
834.039	23.81
834.211	21.57
834.382	24.44
834.554	23.73
834.725	19.81
834.896	19.74
835.068	20.7
835.239	21.8
835.41	21.45
835.581	20.58
835.753	21.1
835.924	20.85
836.095	23.52
836.266	21.28
836.438	21.48
836.609	24.58
836.78	24.62
836.951	20.51
837.122	20.54
837.293	18.73
837.464	18.93
837.635	18.44
837.806	17.88
837.977	19.97
838.148	16.74
838.319	17.94
838.49	20.2
838.661	25.76
838.832	28.39
839.003	26.54
839.174	30.17
839.345	34.34
839.516	37.86
839.687	39.79
839.857	32.96
840.028	39.89
840.199	43.3
840.37	37.58
840.54	33.99
840.711	34
840.882	37.24
841.053	37.4
841.223	34.24
841.394	29.88
841.564	32.18
841.735	40.3
841.906	37.35
842.076	30.19
842.247	37.66
842.417	38.04
842.588	33.52
842.758	37.24
842.929	31.22
843.099	37.55
843.27	37.59
843.44	41.55
843.611	33.64
843.781	34.81
843.951	38.57
844.122	27.02
844.292	25.68
844.462	31.14
844.633	24.12
844.803	22.69
844.973	6.85
845.144	13.07
845.314	13.09
845.484	16.69
845.654	17.3
845.824	8.4
845.995	16.46
846.165	19.9
846.335	24.14
846.505	27.93
846.675	39.33
846.845	38.25
847.015	29.08
847.185	27.08
847.355	10.23
847.525	17.87
847.695	20.26
847.865	29.93
848.035	28.09
848.205	31.06
848.375	25.42
848.545	11.3
848.715	25.47
848.884	26.55
849.054	27.83
849.224	31.86
849.394	31.13
849.564	39.51
849.733	34.19
849.903	36.74
850.073	32.03
850.243	41.5
850.412	45.27
850.582	46.61
850.752	44.55
850.921	41.23
851.091	43.96
851.26	36.48
851.43	31.28
851.599	44.29
851.769	42.21
851.939	39.97
852.108	39.25
852.278	47.16
852.447	47.3
852.616	52.48
852.786	60.08
852.955	59.24
853.125	85.13
853.294	81.86
853.463	61.92
853.633	63.16
853.802	64.67
853.971	47.18
854.141	44.76
854.31	38.81
854.479	49.08
854.648	48.7
854.818	45.18
854.987	8.87
855.156	5.06
855.325	24.55
855.494	17.91
855.663	19.89
855.832	24.57
856.001	26.75
856.171	32.34
856.34	23.19
856.509	19.34
856.678	22.71
856.847	32.25
857.016	46.52
857.185	37.61
857.353	47.9
857.522	57.48
857.691	65.3
857.86	66.6
858.029	53.57
858.198	49.9
858.367	47.56
858.535	34.15
858.704	33.31
858.873	20.55
859.042	18.69
859.21	18.27
859.379	-4.7
859.548	-1.05
859.717	8.24
859.885	11.61
860.054	16.66
860.222	19.42
860.391	23.66
860.56	26.26
860.728	35.54
860.897	25.14
861.065	19.34
861.234	34.44
861.402	39.26
861.571	18.26
861.739	13.36
861.908	13.33
862.076	10.53
862.244	7.9
862.413	-11.65
862.581	-43.47
862.749	-2.53
862.918	-4.35
863.086	-13.37
863.254	-12.22
863.423	-8.18
863.591	-6.78
863.759	7.62
863.927	7.8
864.096	12.15
864.264	17.13
864.432	18.84
864.6	11.02
864.768	10.37
864.936	11.18
865.104	10.37
865.272	25.6
865.44	26.78
865.608	15.92
865.776	19.72
865.944	33.06
866.112	32.78
866.28	30.44
866.448	30.74
866.616	43.37
866.784	38.76
866.952	37.81
867.12	39.64
867.288	40.44
867.455	40.14
867.623	36.11
867.791	29.32
867.959	26.81
868.127	31.59
868.294	14.73
868.462	2.41
868.63	-9.94
868.797	-4.16
868.965	-13.04
869.133	-17.09
869.3	-20.85
869.468	-15.52
869.636	-28.98
869.803	24.01
869.971	9.13
870.138	29.28
870.306	31.86
870.473	40.87
870.641	31.66
870.808	36.33
870.975	32.9
871.143	40.23
871.31	38
871.478	20.63
871.645	8.66
871.812	19.66
871.98	20.75
872.147	10.08
872.314	-1.88
872.482	-12.87
872.649	-15.74
872.816	7.07
872.983	10.55
873.15	12.44
873.318	32.26
873.485	21.58
873.652	28.59
873.819	26.9
873.986	40.89
874.153	37.36
874.32	51.46
874.487	58.56
874.654	57.12
874.821	42.76
874.988	34.71
875.155	46.09
875.322	57.84
875.489	44.17
875.656	52.64
875.823	43.49
875.99	49.57
876.157	47.55
876.324	45.84
876.49	54.34
876.657	63.14
876.824	62.77
876.991	52.18
877.157	49.07
877.324	49.9
877.491	42.7
877.658	32.54
877.824	30.72
877.991	28.73
878.157	29.13
878.324	9.02
878.491	14.58
878.657	15.88
878.824	15.93
878.99	19.29
879.157	19.98
879.323	23.38
879.49	37.48
879.656	38.87
879.823	41.18
879.989	30.94
880.156	41.23
880.322	36.13
880.488	29.47
880.655	22.68
880.821	10.19
880.987	3.97
881.154	-6.87
881.32	1.93
881.486	3.33
881.652	3.42
881.819	10.27
881.985	6.96
882.151	15.01
882.317	16.15
882.483	17.44
882.649	21.08
882.816	20.6
882.982	23.05
883.148	19.39
883.314	16.71
883.48	15.63
883.646	15.43
883.812	20.25
883.978	16.38
884.144	19.13
884.31	22.07
884.476	21.12
884.642	22.58
884.807	21.22
884.973	21.98
885.139	26.36
885.305	29.74
885.471	34.19
885.637	29.78
885.802	30.04
885.968	28.08
886.134	29.04
886.3	34.65
886.465	35.98
886.631	38.31
886.797	45.19
886.962	42.65
887.128	36.34
887.293	21.87
887.459	24.22
887.625	21.54
887.79	26.36
887.956	22.33
888.121	12.85
888.287	12.45
888.452	12.31
888.618	-12.37
888.783	-9.97
