Data from 2938052_Reflection_2.txt Node
Date: Sun Jul 12 14:09:55 EDT 2015
User: robert
Spectrometer: USB4E03001
Autoset integration time: false
Trigger mode: 4
Integration Time (sec): 1.000000E-1
Scans to average: 10
Electric dark correction enabled: true
Nonlinearity correction enabled: false
Boxcar width: 5
Stray light correction enabled: false
XAxis mode: Wavelengths
Stop averaging: false
Number of Pixels in Spectrum: 3648
>>>>>Begin Spectral Data<<<<<
177.566	-293.97
177.785	-1722.33
178.005	856.06
178.225	1438.71
178.445	85.04
178.665	108.77
178.885	23.74
179.105	-2650
179.324	-108.1
179.544	778.75
179.764	36.84
179.984	-318.67
180.204	-142.86
180.423	15.13
180.643	32.9
180.863	54.99
181.083	28.65
181.302	3.83
181.522	43.83
181.742	11000
181.961	-27.28
182.181	-26.91
182.401	-91.95
182.621	-142.3
182.84	-75.58
183.06	-7.68
183.279	-12.57
183.499	-14.69
183.719	-1.26
183.938	26.99
184.158	-27.53
184.377	60.93
184.597	69.58
184.816	26.26
185.036	42.76
185.256	32.51
185.475	35.45
185.695	28.11
185.914	13.63
186.134	-65.5
186.353	-16.26
186.572	7.71
186.792	-251.97
187.011	-16.91
187.231	38.9
187.45	72.64
187.67	97.57
187.889	124.35
188.108	139.29
188.328	150.27
188.547	95.34
188.766	-20.1
188.986	-162.77
189.205	-128.13
189.424	-46.27
189.644	-82.07
189.863	-52.15
190.082	-37.91
190.302	-36.5
190.521	-190.63
190.74	-303.07
190.959	634.45
191.178	200.86
191.398	212.51
191.617	155.13
191.836	148.92
192.055	129.71
192.274	149.88
192.494	119.5
192.713	21.72
192.932	53.55
193.151	71.35
193.37	94.04
193.589	108.74
193.808	145.8
194.027	118.83
194.246	125.5
194.465	92.4
194.685	70.23
194.904	41.99
195.123	-2.29
195.342	150.08
195.561	231.95
195.78	567.46
195.999	290.07
196.218	893.41
196.436	504.92
196.655	616.4
196.874	896.8
197.093	-391.85
197.312	-760.08
197.531	50.86
197.75	88.97
197.969	154.11
198.188	443.24
198.407	215.14
198.625	754.93
198.844	174.04
199.063	148.45
199.282	226.47
199.501	185.62
199.719	181.41
199.938	76.15
200.157	70.52
200.376	93.32
200.594	58.44
200.813	63.74
201.032	44.18
201.251	33.51
201.469	69.78
201.688	50.04
201.907	56.27
202.125	23.86
202.344	221.48
202.563	154.01
202.781	105.26
203	28.72
203.218	10.57
203.437	-354.4
203.656	-121.36
203.874	-115.41
204.093	-47.42
204.311	-143.34
204.53	-218.52
204.748	-248.11
204.967	-511.98
205.185	-1034.95
205.404	-143.4
205.622	-13.88
205.841	31.52
206.059	23.76
206.278	681.25
206.496	-901.27
206.715	312.69
206.933	503.21
207.151	440.24
207.37	969.83
207.588	333.48
207.806	180.38
208.025	106.99
208.243	112.6
208.461	148.09
208.68	68.34
208.898	76.12
209.116	44.18
209.335	43.45
209.553	46.77
209.771	44.85
209.989	46.86
210.208	17.82
210.426	922.76
210.644	1644.48
210.862	530.38
211.081	578.56
211.299	336.52
211.517	358.61
211.735	98.49
211.953	108.12
212.171	68.47
212.39	59.35
212.608	33.03
212.826	-0.43
213.044	-23.22
213.262	-1.85
213.48	203.39
213.698	64.35
213.916	146.71
214.134	39.38
214.352	96.93
214.57	67.37
214.788	24.48
215.006	3.2
215.224	-51.13
215.442	-36.58
215.66	-17.93
215.878	-42.59
216.096	-63.08
216.314	-75.82
216.532	-37.63
216.75	-43.62
216.968	-73.05
217.185	-42.63
217.403	-62.67
217.621	-20.05
217.839	-8.72
218.057	6.41
218.275	26.15
218.492	33.75
218.71	43.57
218.928	29.83
219.146	13.19
219.363	29.96
219.581	43.17
219.799	41.94
220.017	48.25
220.234	95.98
220.452	99.88
220.67	95.6
220.887	223.38
221.105	236.35
221.323	189.72
221.54	154.77
221.758	127.39
221.976	121.48
222.193	130.91
222.411	94.75
222.629	76.84
222.846	91.18
223.064	105.59
223.281	114.05
223.499	109.66
223.716	114.61
223.934	158.39
224.151	119.79
224.369	92.2
224.586	59.91
224.804	79.79
225.021	52.08
225.239	26.85
225.456	22.15
225.674	35.77
225.891	32.54
226.108	28.91
226.326	28.73
226.543	23.51
226.76	23.96
226.978	26.2
227.195	30.95
227.413	29.94
227.63	30.8
227.847	30.98
228.064	21.35
228.282	14.04
228.499	15.3
228.716	16.14
228.934	19.57
229.151	22.24
229.368	21.03
229.585	18.25
229.802	18.69
230.02	20.38
230.237	16.94
230.454	16.12
230.671	20.53
230.888	22.79
231.105	20.48
231.323	21.06
231.54	19.79
231.757	18.02
231.974	17.12
232.191	14.05
232.408	8.75
232.625	15.2
232.842	19.14
233.059	21.06
233.276	18.79
233.493	21.55
233.71	19.26
233.927	15.52
234.144	20.59
234.361	24.24
234.578	24.15
234.795	20.32
235.012	20.77
235.229	18.26
235.446	14.64
235.663	10.69
235.879	8.16
236.096	3.41
236.313	5.02
236.53	2.67
236.747	4.91
236.964	3.72
237.181	8.76
237.397	8.33
237.614	12.13
237.831	9.48
238.048	12.88
238.264	11.1
238.481	10.23
238.698	11.28
238.915	11.44
239.131	6.13
239.348	5.56
239.565	4.44
239.781	3.8
239.998	3.08
240.215	5.4
240.431	7.51
240.648	8.1
240.865	11.75
241.081	8.98
241.298	10.37
241.514	13.5
241.731	16.58
241.947	15.65
242.164	14.86
242.38	15.47
242.597	15.17
242.814	14.02
243.03	15.19
243.246	14.98
243.463	15.11
243.679	16.07
243.896	15.44
244.112	14.6
244.329	14.84
244.545	14.69
244.762	13.75
244.978	14.59
245.194	14.78
245.411	14.5
245.627	14.78
245.843	15.05
246.06	13.34
246.276	13.79
246.492	13.98
246.709	14.71
246.925	15.25
247.141	15.31
247.357	14.89
247.574	15.05
247.79	15.27
248.006	15.31
248.222	15.55
248.439	15.36
248.655	15.18
248.871	15.1
249.087	14.43
249.303	14.27
249.519	14.15
249.736	12.62
249.952	12.86
250.168	11.89
250.384	10.56
250.6	9.61
250.816	11.07
251.032	10.19
251.248	11.54
251.464	9.65
251.68	10.77
251.896	11.5
252.112	14.02
252.328	13.2
252.544	13.09
252.76	15.14
252.976	15.42
253.192	15.16
253.408	15.28
253.624	13.99
253.84	16.16
254.056	14.14
254.272	12.78
254.487	11.73
254.703	11.11
254.919	11.03
255.135	6.2
255.351	5.79
255.567	1.53
255.782	2.46
255.998	5.4
256.214	6.9
256.43	11.14
256.646	11.5
256.861	10.44
257.077	10.45
257.293	8.79
257.508	11.53
257.724	11.9
257.94	13.76
258.155	11.99
258.371	11.77
258.587	11.05
258.802	9.28
259.018	8.49
259.234	9.36
259.449	9.68
259.665	10.1
259.88	9.41
260.096	9.18
260.312	9.51
260.527	9.84
260.743	9.86
260.958	9.8
261.174	9.8
261.389	10.47
261.605	10.57
261.82	10.59
262.036	10.87
262.251	11.58
262.466	12.86
262.682	11.88
262.897	11.56
263.113	10.19
263.328	9.58
263.543	9.85
263.759	8.47
263.974	9.49
264.189	8.45
264.405	8.08
264.62	9.89
264.835	8.48
265.051	9.99
265.266	11.44
265.481	10.56
265.696	10.88
265.912	9.74
266.127	10.84
266.342	8.73
266.557	10.25
266.773	10.26
266.988	7.32
267.203	6.48
267.418	6.18
267.633	3.84
267.848	5.52
268.064	5.84
268.279	7.6
268.494	6.42
268.709	6.1
268.924	4.47
269.139	4.63
269.354	4.68
269.569	5.52
269.784	5.65
269.999	7.04
270.214	5.28
270.429	4.62
270.644	4.48
270.859	5.41
271.074	6.09
271.289	6.11
271.504	6.36
271.719	7.99
271.934	8.04
272.149	8.45
272.363	8.06
272.578	8.82
272.793	9.19
273.008	8.28
273.223	9.16
273.438	10.73
273.653	11.25
273.867	9.94
274.082	8.66
274.297	10.24
274.512	10.04
274.726	10.15
274.941	10.26
275.156	10.35
275.371	11.42
275.585	12.37
275.8	10.49
276.015	10.04
276.229	12.25
276.444	12.96
276.659	10.95
276.873	10.01
277.088	10.29
277.302	10.55
277.517	12.26
277.732	11.55
277.946	8.69
278.161	6.93
278.375	7.95
278.59	7.16
278.804	6.26
279.019	6.33
279.233	6.36
279.448	7.06
279.662	7.5
279.877	5.86
280.091	6.19
280.306	6.33
280.52	8.75
280.735	8.54
280.949	8.47
281.163	8.62
281.378	8.97
281.592	9.34
281.806	8.95
282.021	8.3
282.235	8.05
282.449	7.62
282.664	7.7
282.878	6.63
283.092	6.03
283.307	5.93
283.521	7.21
283.735	7.88
283.949	7.01
284.164	7.78
284.378	8.38
284.592	9.5
284.806	10.17
285.02	10.38
285.234	10.97
285.449	11.41
285.663	10.95
285.877	10.04
286.091	9.92
286.305	11.02
286.519	10.35
286.733	10.11
286.947	9.1
287.161	8.81
287.375	9.17
287.589	9.32
287.803	9.31
288.017	9.53
288.231	9.28
288.445	7.7
288.659	7.15
288.873	8.23
289.087	8.38
289.301	9.28
289.515	8.66
289.729	7.85
289.943	7.63
290.157	8.89
290.371	8.23
290.584	8.18
290.798	9.26
291.012	9.79
291.226	8.86
291.44	8.35
291.654	8.77
291.867	8.11
292.081	8.19
292.295	8.85
292.509	8.03
292.722	9.06
292.936	8.7
293.15	9.9
293.364	8.92
293.577	8.45
293.791	8.11
294.005	7.46
294.218	8.05
294.432	8.49
294.645	7.41
294.859	7.88
295.073	7.85
295.286	9.57
295.5	9.18
295.713	10.15
295.927	10.43
296.14	10.64
296.354	10.64
296.568	11.13
296.781	10.54
296.994	11.61
297.208	10.87
297.421	11.57
297.635	10.53
297.848	10.58
298.062	9.85
298.275	10.09
298.489	9.87
298.702	9.43
298.915	9.4
299.129	8.96
299.342	8.02
299.555	8.48
299.769	7.42
299.982	8.06
300.195	7.37
300.409	8.04
300.622	8.35
300.835	8.36
301.048	9
301.262	10.2
301.475	12.36
301.688	13.53
301.901	14.84
302.115	14.4
302.328	13.99
302.541	13.51
302.754	12.79
302.967	12.16
303.18	13.02
303.393	12.89
303.607	11.59
303.82	10.7
304.033	9.44
304.246	7.15
304.459	7.34
304.672	7.63
304.885	9.15
305.098	8.67
305.311	9.22
305.524	8.05
305.737	8.25
305.95	9.19
306.163	9.62
306.376	10.57
306.589	11.94
306.802	12.81
307.015	12.95
307.228	12.55
307.44	14.05
307.653	14.01
307.866	14.71
308.079	13.56
308.292	12.95
308.505	13.04
308.718	12.3
308.93	11.66
309.143	11.81
309.356	11.97
309.569	12.09
309.781	12.08
309.994	12.09
310.207	11.78
310.42	12.59
310.632	13.48
310.845	13.02
311.058	13.27
311.27	13.52
311.483	12.94
311.696	12.65
311.908	12.25
312.121	11.88
312.333	12.35
312.546	12.94
312.759	13.16
312.971	13.16
313.184	14.96
313.396	14.49
313.609	14.18
313.821	14.46
314.034	15.3
314.246	15.75
314.459	16.19
314.671	14.93
314.884	14.51
315.096	14.07
315.309	14.29
315.521	13.81
315.733	14.17
315.946	14.67
316.158	15.56
316.371	14.35
316.583	12.29
316.795	12.03
317.008	13.75
317.22	13.28
317.432	13.92
317.644	12.9
317.857	11.92
318.069	12.48
318.281	12.33
318.494	13.02
318.706	13.37
318.918	13.85
319.13	13.49
319.342	11.7
319.555	13.06
319.767	14.28
319.979	14.05
320.191	13.19
320.403	12.24
320.615	11.78
320.827	10.8
321.039	11.51
321.252	12.83
321.464	13.42
321.676	14.09
321.888	13.38
322.1	12.03
322.312	12.18
322.524	12.4
322.736	11.68
322.948	10.9
323.16	10.93
323.372	10.52
323.584	10.68
323.796	10.72
324.007	11.07
324.219	11.13
324.431	9.68
324.643	10.2
324.855	9.73
325.067	11.46
325.279	12.67
325.491	13.12
325.702	13.11
325.914	13.36
326.126	12.62
326.338	12.82
326.55	11.35
326.761	12.01
326.973	10.98
327.185	11.9
327.396	10.86
327.608	10.23
327.82	9.36
328.032	8.74
328.243	7.9
328.455	8.46
328.666	8.68
328.878	10.8
329.09	11.6
329.301	11.27
329.513	11.52
329.725	11.83
329.936	12.64
330.148	12.53
330.359	13.19
330.571	12.59
330.782	12.91
330.994	12.81
331.205	12.8
331.417	11.75
331.628	13.13
331.84	13.37
332.051	14.01
332.262	12.13
332.474	12.19
332.685	12.37
332.897	13.09
333.108	13.27
333.319	12.66
333.531	11.09
333.742	12.09
333.953	11.68
334.165	10.36
334.376	9.19
334.587	9.79
334.799	10.27
335.01	10.45
335.221	9.35
335.432	9.37
335.644	9.62
335.855	10.05
336.066	10.39
336.277	10.05
336.488	11.01
336.7	11.68
336.911	11.34
337.122	10.79
337.333	9.82
337.544	10.2
337.755	9.31
337.966	9.31
338.177	9.22
338.388	8.25
338.599	9.11
338.811	8.62
339.022	9.26
339.233	9.68
339.444	8.75
339.655	9.11
339.866	8.98
340.076	9.23
340.287	8.19
340.498	9.63
340.709	10.51
340.92	9.92
341.131	10.06
341.342	9.47
341.553	10.16
341.764	11.16
341.975	11.98
342.185	11.45
342.396	11.75
342.607	12.53
342.818	11.98
343.029	10.91
343.239	10.49
343.45	11.13
343.661	10.68
343.872	9.68
344.082	9.54
344.293	8.89
344.504	9.39
344.714	9.14
344.925	8.61
345.136	8.28
345.346	9.14
345.557	9.92
345.768	10.01
345.978	9.54
346.189	9.79
346.399	10.54
346.61	11.37
346.821	11.65
347.031	11.34
347.242	12.04
347.452	12.32
347.663	11.36
347.873	12.05
348.084	10.31
348.294	9.97
348.504	10.47
348.715	10.67
348.925	10.36
349.136	10.34
349.346	11.25
349.557	12.41
349.767	12.78
349.977	12.81
350.188	11.3
350.398	11.64
350.608	13.6
350.819	13.23
351.029	12.42
351.239	11.62
351.449	10.73
351.66	8.71
351.87	8.15
352.08	8.49
352.29	9.34
352.501	10.14
352.711	10.74
352.921	9.73
353.131	9.91
353.341	9.42
353.552	9.33
353.762	10.87
353.972	12.85
354.182	13.21
354.392	11.98
354.602	10.97
354.812	10.42
355.022	9.88
355.232	9.27
355.442	9.36
355.652	9.96
355.862	10.81
356.072	10.06
356.282	9.18
356.492	7.38
356.702	8.22
356.912	9.2
357.122	9.09
357.332	9.35
357.542	9.37
357.752	8.87
357.962	8.11
358.171	7.83
358.381	8.06
358.591	7.96
358.801	9.34
359.011	9.17
359.221	8.47
359.43	8.92
359.64	9.92
359.85	10.48
360.06	10.61
360.269	11.33
360.479	11.35
360.689	10.68
360.899	11.02
361.108	10.57
361.318	10.29
361.528	10.14
361.737	9.54
361.947	8.55
362.156	8.62
362.366	8.89
362.576	8.47
362.785	8.36
362.995	9.02
363.204	9.21
363.414	9.29
363.623	9.58
363.833	10.21
364.042	10.53
364.252	11.04
364.461	10.16
364.671	10.55
364.88	10.77
365.09	10.58
365.299	10.95
365.509	10.24
365.718	9.6
365.927	9.5
366.137	9.04
366.346	9.26
366.555	8.61
366.765	9.34
366.974	8.19
367.183	7.96
367.393	7.8
367.602	6.87
367.811	6.98
368.021	7.45
368.23	6.6
368.439	6.33
368.648	6.41
368.857	7.2
369.067	6.51
369.276	7.1
369.485	6.97
369.694	6.67
369.903	6.49
370.112	6.97
370.321	6.17
370.531	6.01
370.74	6.3
370.949	5.89
371.158	5.27
371.367	5.68
371.576	5.59
371.785	5.94
371.994	5.34
372.203	5.67
372.412	6.25
372.621	6.73
372.83	6.89
373.039	6.46
373.248	6.59
373.457	6.83
373.666	7.55
373.874	7.72
374.083	7.85
374.292	8.57
374.501	8.72
374.71	7.17
374.919	7.11
375.128	7.48
375.336	7.48
375.545	7.34
375.754	7.17
375.963	6.61
376.171	6.35
376.38	6.01
376.589	6.27
376.798	5.66
377.006	6.69
377.215	6.7
377.424	6.42
377.632	6.2
377.841	6.46
378.05	6.68
378.258	6.43
378.467	6.33
378.675	6.19
378.884	5.85
379.093	6.39
379.301	6.16
379.51	5.93
379.718	6.09
379.927	6.47
380.135	5.81
380.344	5.52
380.552	6.17
380.761	6.24
380.969	6.32
381.177	6.78
381.386	6.59
381.594	6.3
381.803	6.98
382.011	6.77
382.219	6.72
382.428	6.87
382.636	7.02
382.845	6.33
383.053	5.84
383.261	5.88
383.469	5.49
383.678	5.36
383.886	5.38
384.094	4.87
384.302	4.97
384.511	5.11
384.719	5.25
384.927	5.11
385.135	5.11
385.343	5.29
385.552	5.39
385.76	5.68
385.968	5.97
386.176	5.7
386.384	5.73
386.592	5.91
386.8	5.81
387.008	5.69
387.216	5.41
387.424	5.56
387.633	5.87
387.841	5.79
388.049	5.44
388.257	5.17
388.465	5.27
388.672	5.38
388.88	4.98
389.088	5.23
389.296	5.39
389.504	5.99
389.712	6.56
389.92	6.58
390.128	6.33
390.336	6.31
390.544	6.11
390.751	6.17
390.959	6.03
391.167	6.49
391.375	6.02
391.583	6.05
391.79	5.55
391.998	5.18
392.206	4.94
392.414	5.1
392.621	5.22
392.829	5.15
393.037	5.06
393.244	5.12
393.452	5.02
393.66	5.49
393.867	5.29
394.075	5.48
394.283	5.36
394.49	5.41
394.698	5.43
394.905	5.35
395.113	5.28
395.32	5.25
395.528	5.23
395.735	4.72
395.943	4.35
396.15	4.29
396.358	3.95
396.565	3.95
396.773	3.59
396.98	3.47
397.188	3.36
397.395	3.42
397.602	3.73
397.81	3.49
398.017	3.7
398.225	3.55
398.432	3.74
398.639	3.97
398.847	4.24
399.054	4.58
399.261	4.69
399.468	4.63
399.676	4.86
399.883	4.62
400.09	4.58
400.297	4.63
400.505	4.69
400.712	4.77
400.919	4.56
401.126	4.14
401.333	3.9
401.54	3.42
401.748	3.63
401.955	3.58
402.162	3.58
402.369	3.6
402.576	3.63
402.783	4.1
402.99	4.15
403.197	4.38
403.404	4.63
403.611	4.72
403.818	5.02
404.025	5.23
404.232	5.23
404.439	5.09
404.646	5.19
404.853	5.01
405.06	4.28
405.267	4.03
405.474	4.13
405.681	3.97
405.887	3.87
406.094	3.71
406.301	3.35
406.508	3.02
406.715	3.24
406.922	3.49
407.128	3.85
407.335	4.36
407.542	4.3
407.749	4.15
407.955	3.94
408.162	4.3
408.369	4.61
408.575	4.58
408.782	4.64
408.989	4.48
409.195	4.51
409.402	4.48
409.609	4.36
409.815	4.43
410.022	4.37
410.228	4.72
410.435	4.72
410.642	4.41
410.848	4.3
411.055	4.58
411.261	4.34
411.468	4.18
411.674	4.29
411.881	4.33
412.087	4.28
412.294	4.46
412.5	3.98
412.706	3.92
412.913	4.13
413.119	4.49
413.326	4.44
413.532	4.8
413.738	4.45
413.945	3.88
414.151	3.97
414.357	4.22
414.564	4.14
414.77	4.62
414.976	4.57
415.182	4.68
415.389	4.52
415.595	4.49
415.801	4.57
416.007	4.42
416.214	4.67
416.42	4.55
416.626	4.45
416.832	4.29
417.038	4.09
417.244	4.15
417.45	4.02
417.657	3.9
417.863	4.01
418.069	3.97
418.275	4.17
418.481	4.17
418.687	4.21
418.893	4.2
419.099	4.18
419.305	4.26
419.511	4.18
419.717	4.12
419.923	4.13
420.129	4
420.335	3.83
420.541	3.89
420.746	3.89
420.952	3.94
421.158	3.92
421.364	3.96
421.57	3.86
421.776	3.79
421.982	3.86
422.187	3.87
422.393	3.93
422.599	3.87
422.805	3.88
423.01	3.77
423.216	3.54
423.422	3.53
423.628	3.64
423.833	3.7
424.039	3.67
424.245	3.59
424.45	3.7
424.656	3.53
424.862	3.64
425.067	3.55
425.273	3.67
425.478	3.73
425.684	3.75
425.889	3.7
426.095	3.78
426.301	3.8
426.506	3.87
426.712	3.63
426.917	3.86
427.123	3.87
427.328	4
427.533	3.94
427.739	4
427.944	3.9
428.15	3.72
428.355	3.72
428.561	3.91
428.766	3.93
428.971	4.19
429.177	4.04
429.382	4.02
429.587	4.29
429.793	4.23
429.998	4.28
430.203	4.39
430.408	4.29
430.614	3.88
430.819	3.9
431.024	3.77
431.229	3.59
431.434	3.55
431.64	3.6
431.845	3.18
432.05	3.39
432.255	3.44
432.46	3.45
432.665	3.44
432.87	3.47
433.076	3.31
433.281	3.23
433.486	3.37
433.691	3.48
433.896	3.46
434.101	3.56
434.306	3.44
434.511	3.55
434.716	3.56
434.921	3.78
435.126	3.91
435.331	3.74
435.535	3.74
435.74	3.72
435.945	3.48
436.15	3.42
436.355	3.13
436.56	3.02
436.765	2.7
436.97	2.61
437.174	2.56
437.379	2.71
437.584	2.74
437.789	2.9
437.993	2.99
438.198	3.09
438.403	3.19
438.608	3.31
438.812	3.35
439.017	3.35
439.222	3.39
439.426	3.48
439.631	3.42
439.836	3.63
440.04	3.53
440.245	3.41
440.45	3.51
440.654	3.37
440.859	3.38
441.063	3.49
441.268	3.52
441.472	3.47
441.677	3.47
441.881	3.41
442.086	3.29
442.29	3.26
442.495	3.34
442.699	3.19
442.904	3.22
443.108	3.3
443.312	3.24
443.517	3.25
443.721	3.22
443.925	3.08
444.13	3.1
444.334	3.3
444.538	3.36
444.743	3.39
444.947	3.49
445.151	3.49
445.356	3.51
445.56	3.56
445.764	3.63
445.968	3.68
446.173	3.76
446.377	3.82
446.581	3.58
446.785	3.58
446.989	3.49
447.193	3.46
447.398	3.49
447.602	3.39
447.806	3.38
448.01	3.34
448.214	3.26
448.418	3.13
448.622	2.87
448.826	3.14
449.03	3.33
449.234	3.41
449.438	3.46
449.642	3.52
449.846	3.58
450.05	3.37
450.254	3.32
450.458	3.27
450.662	3.33
450.866	3.57
451.069	3.51
451.273	3.22
451.477	3
451.681	2.92
451.885	3
452.089	3.2
452.292	3.22
452.496	3.28
452.7	3.42
452.904	3.32
453.107	3.43
453.311	3.28
453.515	3.32
453.719	3.44
453.922	3.32
454.126	3.34
454.33	3.12
454.533	3.2
454.737	3.15
454.94	3.12
455.144	3.33
455.348	3.09
455.551	3.18
455.755	2.97
455.958	3.08
456.162	3.35
456.365	3.33
456.569	3.32
456.772	3.43
456.976	3.49
457.179	3.38
457.383	3.28
457.586	3.46
457.79	3.48
457.993	3.62
458.196	3.62
458.4	3.56
458.603	3.51
458.807	3.52
459.01	3.42
459.213	3.41
459.417	3.48
459.62	3.5
459.823	3.48
460.026	3.53
460.23	3.53
460.433	3.36
460.636	3.43
460.839	3.28
461.042	3.25
461.246	3.1
461.449	3.07
461.652	3.02
461.855	2.85
462.058	2.71
462.261	2.52
462.464	2.59
462.668	2.71
462.871	2.48
463.074	2.6
463.277	2.71
463.48	3.01
463.683	2.9
463.886	3.05
464.089	3.25
464.292	3.3
464.495	3.29
464.698	3.11
464.901	3.22
465.104	3.38
465.306	3.15
465.509	3.3
465.712	3.05
465.915	3.17
466.118	2.9
466.321	2.72
466.524	2.75
466.726	2.87
466.929	2.97
467.132	2.87
467.335	2.95
467.538	3.17
467.74	2.98
467.943	3.2
468.146	3.3
468.348	3.27
468.551	3.49
468.754	3.4
468.956	3.41
469.159	3.56
469.362	3.58
469.564	3.4
469.767	3.32
469.969	3.2
470.172	3.2
470.375	3
470.577	3.32
470.78	3.22
470.982	3.21
471.185	3.21
471.387	3.25
471.59	3.23
471.792	3.32
471.995	3.41
472.197	3.31
472.399	3.25
472.602	3.35
472.804	3.23
473.007	3.29
473.209	3.35
473.411	3.28
473.614	3.15
473.816	3.25
474.018	3.2
474.22	3.15
474.423	3.18
474.625	3.23
474.827	3.31
475.03	3.33
475.232	3.16
475.434	3.31
475.636	3.2
475.838	3.22
476.04	3.12
476.243	3.16
476.445	3.09
476.647	3.2
476.849	3.13
477.051	3.15
477.253	3.13
477.455	3.42
477.657	3.36
477.859	3.61
478.061	3.68
478.263	3.67
478.465	3.67
478.667	3.59
478.869	3.49
479.071	3.6
479.273	3.52
479.475	3.57
479.677	3.49
479.879	3.56
480.081	3.34
480.283	3.26
480.485	3.25
480.686	3.15
480.888	3.25
481.09	3.36
481.292	3.35
481.494	3.31
481.695	3.33
481.897	3.26
482.099	3.16
482.301	3.21
482.502	3.27
482.704	3.24
482.906	3.37
483.107	3.4
483.309	3.4
483.511	3.38
483.712	3.38
483.914	3.32
484.115	3.34
484.317	3.35
484.519	3.34
484.72	3.3
484.922	3.29
485.123	3.2
485.325	3.15
485.526	3.09
485.728	3.05
485.929	2.98
486.131	3
486.332	2.89
486.534	2.81
486.735	2.82
486.936	2.87
487.138	2.83
487.339	2.9
487.541	2.94
487.742	3.03
487.943	3.02
488.144	3.12
488.346	3.11
488.547	3.23
488.748	3.31
488.95	3.25
489.151	3.16
489.352	3.2
489.553	3.16
489.755	3.19
489.956	3.12
490.157	3.12
490.358	3.03
490.559	3.08
490.76	2.96
490.961	2.92
491.163	3.06
491.364	3.14
491.565	3.15
491.766	3.09
491.967	3.06
492.168	3.11
492.369	3.14
492.57	3.15
492.771	3.19
492.972	3.17
493.173	3.29
493.374	3.23
493.575	3.13
493.776	3.28
493.976	3.44
494.177	3.52
494.378	3.63
494.579	3.54
494.78	3.61
494.981	3.36
495.182	3.39
495.382	3.26
495.583	3.22
495.784	3.4
495.985	3.31
496.185	3.34
496.386	3.23
496.587	3.06
496.788	3.18
496.988	3.27
497.189	3.45
497.39	3.37
497.59	3.33
497.791	3.33
497.992	3.19
498.192	3.06
498.393	2.9
498.593	2.98
498.794	3.02
498.994	3.04
499.195	2.99
499.395	2.91
499.596	3.12
499.796	3.19
499.997	3.13
500.197	3.15
500.398	3.18
500.598	3.2
500.799	3.02
500.999	3.05
501.199	2.88
501.4	2.75
501.6	2.79
501.801	2.71
502.001	2.77
502.201	2.84
502.402	2.85
502.602	2.97
502.802	3.08
503.002	3.1
503.203	3.27
503.403	3.19
503.603	3.36
503.803	3.37
504.003	3.35
504.204	3.35
504.404	3.42
504.604	3.43
504.804	3.43
505.004	3.36
505.204	3.43
505.404	3.27
505.604	3.44
505.804	3.32
506.005	3.28
506.205	3.26
506.405	3.2
506.605	3.14
506.805	3.24
507.005	3.2
507.204	3.21
507.404	3.34
507.604	3.33
507.804	3.33
508.004	3.35
508.204	3.46
508.404	3.56
508.604	3.54
508.804	3.75
509.003	3.71
509.203	3.68
509.403	3.78
509.603	3.73
509.803	3.75
510.002	3.71
510.202	3.76
510.402	3.63
510.602	3.53
510.801	3.65
511.001	3.44
511.201	3.41
511.4	3.41
511.6	3.32
511.8	3.31
511.999	3.21
512.199	3.21
512.398	3.3
512.598	3.19
512.797	3.35
512.997	3.29
513.197	3.43
513.396	3.47
513.596	3.4
513.795	3.3
513.994	3.27
514.194	3.39
514.393	3.5
514.593	3.36
514.792	3.64
514.992	3.54
515.191	3.49
515.39	3.45
515.59	3.26
515.789	3.34
515.988	3.47
516.188	3.41
516.387	3.54
516.586	3.49
516.786	3.67
516.985	3.47
517.184	3.43
517.383	3.44
517.582	3.48
517.782	3.61
517.981	3.63
518.18	3.67
518.379	3.71
518.578	3.64
518.777	3.54
518.976	3.46
519.176	3.58
519.375	3.58
519.574	3.58
519.773	3.53
519.972	3.51
520.171	3.56
520.37	3.6
520.569	3.65
520.768	3.5
520.967	3.72
521.166	3.7
521.365	3.74
521.564	3.83
521.762	3.68
521.961	3.72
522.16	3.71
522.359	3.78
522.558	3.71
522.757	3.68
522.956	3.91
523.154	3.75
523.353	3.8
523.552	3.87
523.751	3.81
523.949	4.09
524.148	3.86
524.347	3.83
524.546	3.72
524.744	3.73
524.943	3.69
525.142	3.58
525.34	3.8
525.539	3.72
525.737	3.57
525.936	3.66
526.135	3.54
526.333	3.63
526.532	3.67
526.73	3.63
526.929	3.63
527.127	3.68
527.326	3.69
527.524	3.61
527.723	3.74
527.921	3.81
528.12	3.78
528.318	3.81
528.516	3.84
528.715	3.89
528.913	3.88
529.112	3.9
529.31	3.89
529.508	3.9
529.707	3.89
529.905	3.84
530.103	3.81
530.301	3.77
530.5	3.76
530.698	3.8
530.896	3.76
531.094	3.93
531.293	3.97
531.491	4.03
531.689	4.12
531.887	4.08
532.085	3.92
532.283	4.06
532.481	4.22
532.68	4.3
532.878	4.26
533.076	4.31
533.274	4.21
533.472	4.15
533.67	4.09
533.868	4
534.066	4.06
534.264	4.16
534.462	4.1
534.66	4.04
534.858	4.01
535.056	4
535.253	3.93
535.451	3.93
535.649	4.06
535.847	4.18
536.045	4.37
536.243	4.37
536.441	4.44
536.638	4.48
536.836	4.55
537.034	4.54
537.232	4.59
537.43	4.63
537.627	4.66
537.825	4.51
538.023	4.52
538.22	4.42
538.418	4.48
538.616	4.47
538.813	4.52
539.011	4.4
539.209	4.4
539.406	4.46
539.604	4.47
539.801	4.56
539.999	4.67
540.196	4.56
540.394	4.53
540.591	4.59
540.789	4.62
540.986	4.6
541.184	4.65
541.381	4.66
541.579	4.66
541.776	4.61
541.974	4.67
542.171	4.65
542.368	4.75
542.566	4.79
542.763	4.77
542.96	4.82
543.158	4.93
543.355	4.94
543.552	4.95
543.75	5.01
543.947	5.05
544.144	5
544.341	5.03
544.539	4.92
544.736	4.86
544.933	4.9
545.13	4.87
545.327	4.69
545.524	4.74
545.722	4.83
545.919	4.72
546.116	4.88
546.313	4.95
546.51	4.97
546.707	5.03
546.904	5.11
547.101	5.07
547.298	5.09
547.495	5.18
547.692	5.27
547.889	5.22
548.086	5.35
548.283	5.18
548.48	5.14
548.677	5.12
548.874	5.21
549.07	5.52
549.267	5.49
549.464	5.37
549.661	5.29
549.858	5.14
550.055	4.96
550.251	4.91
550.448	5.21
550.645	5.17
550.842	5.31
551.038	5.17
551.235	5.1
551.432	5.27
551.628	5.35
551.825	5.52
552.022	5.7
552.218	5.89
552.415	5.99
552.612	5.83
552.808	6.02
553.005	6.03
553.201	6.06
553.398	5.66
553.594	5.75
553.791	5.89
553.987	5.94
554.184	5.75
554.38	5.83
554.577	5.86
554.773	6.03
554.97	5.95
555.166	6.13
555.362	6.35
555.559	6.71
555.755	6.52
555.952	6.48
556.148	6.53
556.344	6.66
556.541	6.91
556.737	6.69
556.933	6.67
557.129	6.84
557.326	6.78
557.522	6.59
557.718	6.52
557.914	6.52
558.11	6.63
558.307	6.6
558.503	6.69
558.699	6.44
558.895	6.82
559.091	6.66
559.287	6.5
559.483	6.49
559.679	6.89
559.876	7.11
560.072	7.17
560.268	6.96
560.464	6.84
560.66	6.74
560.856	6.88
561.052	6.87
561.247	7.04
561.443	6.97
561.639	6.78
561.835	6.55
562.031	6.46
562.227	6.49
562.423	6.76
562.619	6.91
562.815	7.03
563.01	7.08
563.206	7.15
563.402	7.1
563.598	7.24
563.793	7.55
563.989	7.75
564.185	7.69
564.381	7.7
564.576	7.86
564.772	7.77
564.968	7.95
565.163	8.02
565.359	7.95
565.555	8
565.75	8.1
565.946	8.1
566.141	8.11
566.337	8.4
566.532	8.32
566.728	8.21
566.923	8.33
567.119	8.19
567.314	8.07
567.51	8.08
567.705	8.07
567.901	8.11
568.096	8.15
568.292	8.16
568.487	8.13
568.682	8.23
568.878	8.19
569.073	8.36
569.268	8.4
569.464	8.44
569.659	8.46
569.854	8.62
570.05	8.42
570.245	8.4
570.44	8.25
570.635	8.23
570.831	8.33
571.026	8.56
571.221	8.37
571.416	8.48
571.611	8.58
571.806	8.5
572.002	8.45
572.197	8.59
572.392	8.58
572.587	8.88
572.782	8.71
572.977	8.61
573.172	8.52
573.367	8.52
573.562	8.49
573.757	8.44
573.952	8.51
574.147	8.4
574.342	8.35
574.537	8.24
574.732	8.07
574.927	8.15
575.121	8.27
575.316	8.28
575.511	8.2
575.706	8.18
575.901	8.32
576.096	8.35
576.29	8.39
576.485	8.52
576.68	8.83
576.875	8.84
577.069	8.81
577.264	8.93
577.459	9.11
577.654	9.36
577.848	9.34
578.043	9.07
578.238	9.24
578.432	9.4
578.627	9.32
578.821	9.33
579.016	9.38
579.21	9.55
579.405	9.64
579.6	9.33
579.794	9.43
579.989	9.39
580.183	9.43
580.378	9.31
580.572	9.41
580.766	9.58
580.961	9.14
581.155	9.09
581.35	9.12
581.544	9.02
581.738	9.08
581.933	8.9
582.127	8.86
582.321	8.97
582.516	9.04
582.71	8.76
582.904	8.81
583.099	9.08
583.293	9.05
583.487	8.94
583.681	9.12
583.875	9.16
584.07	9.26
584.264	9.69
584.458	9.73
584.652	9.74
584.846	9.96
585.04	9.44
585.234	9.49
585.428	9.25
585.623	9.2
585.817	8.99
586.011	8.93
586.205	8.79
586.399	8.79
586.593	8.76
586.787	8.97
586.981	8.96
587.174	9.08
587.368	9.2
587.562	9.77
587.756	9.97
587.95	9.93
588.144	10.25
588.338	10.45
588.532	10.26
588.725	10.54
588.919	10.15
589.113	10.06
589.307	10.52
589.501	10.53
589.694	10.33
589.888	10.3
590.082	10.16
590.275	10.06
590.469	10.09
590.663	9.66
590.856	9.17
591.05	9.56
591.244	9.5
591.437	9.43
591.631	9.22
591.824	9.29
592.018	9.28
592.212	9.49
592.405	9.43
592.599	9.3
592.792	9.37
592.986	9.5
593.179	9.37
593.372	9.6
593.566	9.42
593.759	9.69
593.953	9.77
594.146	9.97
594.339	9.95
594.533	9.92
594.726	10.22
594.92	10.5
595.113	10.77
595.306	10.49
595.499	10.43
595.693	10.54
595.886	10.32
596.079	10.3
596.272	10.12
596.466	10.1
596.659	10.19
596.852	10.11
597.045	10.1
597.238	10.08
597.431	10.16
597.624	10.37
597.818	10.24
598.011	10.26
598.204	10.05
598.397	10.31
598.59	10.28
598.783	10.19
598.976	10.02
599.169	10.26
599.362	10.27
599.555	10.66
599.748	10.48
599.941	10.54
600.134	10.52
600.326	10.78
600.519	10.48
600.712	10.72
600.905	10.78
601.098	10.88
601.291	10.85
601.483	10.76
601.676	10.59
601.869	10.61
602.062	10.76
602.255	10.77
602.447	10.73
602.64	10.84
602.833	10.53
603.025	10.6
603.218	10.54
603.411	10.37
603.603	10.52
603.796	10.56
603.989	10.49
604.181	10.32
604.374	10.29
604.566	10.06
604.759	9.94
604.951	10.27
605.144	10.21
605.336	10.16
605.529	10.14
605.721	9.85
605.914	9.6
606.106	9.75
606.299	9.79
606.491	9.98
606.683	10.19
606.876	10.06
607.068	9.94
607.26	9.96
607.453	10.14
607.645	10.08
607.837	10.18
608.03	10.5
608.222	10.38
608.414	10.36
608.606	10.31
608.799	10.34
608.991	10.52
609.183	10.48
609.375	10.57
609.567	10.6
609.759	10.7
609.952	10.8
610.144	10.89
610.336	11.02
610.528	11.08
610.72	10.97
610.912	10.89
611.104	10.82
611.296	10.73
611.488	10.65
611.68	10.41
611.872	10.53
612.064	10.65
612.256	10.24
612.448	10.06
612.64	10.03
612.832	10.02
613.023	10.02
613.215	10.25
613.407	10.41
613.599	10.4
613.791	10.69
613.983	10.65
614.174	10.81
614.366	10.92
614.558	11.12
614.75	11.23
614.941	11.29
615.133	11.58
615.325	11.31
615.516	11.41
615.708	11.53
615.9	11.37
616.091	11.41
616.283	11.23
616.475	11.05
616.666	10.88
616.858	10.69
617.049	10.61
617.241	10.59
617.432	11.04
617.624	10.75
617.815	10.71
618.007	10.46
618.198	10.29
618.39	10.35
618.581	10.64
618.773	10.72
618.964	10.83
619.155	10.83
619.347	10.51
619.538	10.31
619.729	10.23
619.921	10.65
620.112	10.63
620.303	10.77
620.494	10.53
620.686	10.54
620.877	10.68
621.068	10.95
621.259	10.97
621.451	11.26
621.642	11.31
621.833	11.42
622.024	11.09
622.215	11.62
622.406	11.58
622.597	11.74
622.788	11.52
622.98	11.21
623.171	11.2
623.362	11.34
623.553	11.26
623.744	11.38
623.935	11.63
624.126	11.48
624.317	11.25
624.508	11.27
624.698	11.29
624.889	11.57
625.08	11.63
625.271	11.45
625.462	11.58
625.653	11.55
625.844	11.21
626.034	10.8
626.225	10.92
626.416	10.7
626.607	10.76
626.798	10.37
626.988	10.49
627.179	10.23
627.37	10.45
627.56	10.53
627.751	10.45
627.942	10.26
628.132	10.64
628.323	10.36
628.514	10.59
628.704	10.5
628.895	10.96
629.085	10.94
629.276	11.28
629.466	11.09
629.657	10.83
629.847	10.98
630.038	11.18
630.228	10.99
630.419	11.43
630.609	11.49
630.8	11.42
630.99	11.09
631.181	10.55
631.371	10.57
631.561	10.4
631.752	10.52
631.942	10.38
632.132	10.61
632.323	10.74
632.513	10.62
632.703	10.6
632.893	10.78
633.084	10.77
633.274	11.01
633.464	11.01
633.654	11.15
633.844	11.04
634.034	10.94
634.225	10.73
634.415	10.49
634.605	10.26
634.795	9.98
634.985	10.17
635.175	10.18
635.365	10.03
635.555	9.99
635.745	10.03
635.935	9.84
636.125	10.22
636.315	10.29
636.505	10.47
636.695	10.59
636.885	10.91
637.075	10.35
637.265	10.41
637.455	10.63
637.644	10.7
637.834	10.79
638.024	10.79
638.214	10.62
638.404	11.06
638.593	11.13
638.783	11.09
638.973	10.86
639.163	11.21
639.352	11.42
639.542	11.77
639.732	11.64
639.921	11.32
640.111	11.28
640.301	11.5
640.49	11.01
640.68	10.72
640.87	10.95
641.059	11.01
641.249	10.6
641.438	10.61
641.628	10.44
641.817	10.66
642.007	10.9
642.196	10.97
642.386	10.51
642.575	10.34
642.764	10.39
642.954	10.01
643.143	10.31
643.333	10.25
643.522	10.12
643.711	10.05
643.901	10.05
644.09	9.61
644.279	10
644.469	10.11
644.658	9.98
644.847	10.08
645.036	9.83
645.226	9.44
645.415	10.05
645.604	10.53
645.793	10.26
645.982	10.13
646.171	10.32
646.361	10.21
646.55	10.2
646.739	10.79
646.928	10.96
647.117	11.4
647.306	11.76
647.495	11.86
647.684	11.66
647.873	11.4
648.062	11.49
648.251	11.3
648.44	11.52
648.629	11.37
648.818	11.54
649.007	11.48
649.196	11.36
649.384	11.16
649.573	10.54
649.762	10.71
649.951	11.5
650.14	11.35
650.328	11.52
650.517	11.33
650.706	11.26
650.895	10.97
651.083	10.8
651.272	11.02
651.461	11.21
651.65	12.03
651.838	11.24
652.027	10.56
652.216	10.85
652.404	11.26
652.593	11.29
652.781	11.71
652.97	11.71
653.158	11.96
653.347	11.61
653.535	11.17
653.724	10.65
653.912	11.11
654.101	11.36
654.289	10.72
654.478	10.22
654.666	10.23
654.855	10.62
655.043	10.63
655.231	10.44
655.42	10.61
655.608	10.94
655.796	11.09
655.985	10.97
656.173	11.01
656.361	10.99
656.55	10.98
656.738	10.95
656.926	10.51
657.114	9.92
657.302	10.17
657.491	9.86
657.679	9.61
657.867	9.39
658.055	9.48
658.243	9.91
658.431	10.26
658.619	10.69
658.807	10.73
658.996	10.83
659.184	11.5
659.372	11.16
659.56	11.56
659.748	12.12
659.936	12.28
660.124	12.2
660.311	11.85
660.499	11.77
660.687	11.79
660.875	11.54
661.063	11.32
661.251	11.21
661.439	11.15
661.627	11.12
661.814	11.03
662.002	11.21
662.19	11.43
662.378	11.84
662.565	11.89
662.753	12.2
662.941	12.93
663.129	12.96
663.316	12.92
663.504	13
663.692	13.13
663.879	13.16
664.067	13.1
664.254	13.45
664.442	13.39
664.63	13.7
664.817	13.25
665.005	12.78
665.192	13.47
665.38	13.18
665.567	13.72
665.755	13.69
665.942	13.54
666.13	13.51
666.317	12.83
666.504	12.66
666.692	12.73
666.879	12.31
667.067	11.96
667.254	11.39
667.441	11.62
667.629	11.69
667.816	11.74
668.003	11.23
668.19	11.04
668.378	10.99
668.565	11.4
668.752	11.29
668.939	11.49
669.127	11.7
669.314	12.08
669.501	12.07
669.688	12.06
669.875	12.13
670.062	12.24
670.249	12.26
670.436	12.81
670.623	12.38
670.81	12.05
670.997	12.41
671.184	12.3
671.371	11.68
671.558	12.01
671.745	12.04
671.932	11.84
672.119	12.53
672.306	12.57
672.493	12.55
672.68	12.59
672.867	13.04
673.054	12.62
673.24	12.63
673.427	12.53
673.614	12.46
673.801	11.96
673.988	11.68
674.174	11.24
674.361	11.26
674.548	11.03
674.734	10.87
674.921	10.57
675.108	10.82
675.294	10.84
675.481	11.19
675.668	10.84
675.854	10.54
676.041	10.57
676.227	10.6
676.414	11.05
676.601	11.32
676.787	11.89
676.974	12.05
677.16	11.94
677.347	12.35
677.533	12.24
677.719	12.44
677.906	13.16
678.092	13.04
678.279	12.77
678.465	12.41
678.651	12.06
678.838	11.61
679.024	11.76
679.21	11.69
679.397	11.55
679.583	11.92
679.769	11.66
679.955	11.58
680.142	11.44
680.328	12.24
680.514	12.2
680.7	12.25
680.886	12.19
681.073	12.01
681.259	12.1
681.445	12.08
681.631	11.73
681.817	12.09
682.003	12.03
682.189	12.45
682.375	12.01
682.561	12.13
682.747	12.35
682.933	12.49
683.119	12.64
683.305	12.59
683.491	12.44
683.677	12.93
683.863	12.89
684.049	12.91
684.235	12.84
684.42	12.82
684.606	12.24
684.792	12.36
684.978	12.3
685.164	12.04
685.349	12.35
685.535	12.03
685.721	11.63
685.907	11.1
686.092	11.14
686.278	11.88
686.464	11.87
686.649	12.72
686.835	12.27
687.021	12.17
687.206	12.25
687.392	12
687.577	12.65
687.763	13.24
687.948	13.41
688.134	13.13
688.319	12.6
688.505	12.35
688.69	12.05
688.876	12.37
689.061	12.71
689.247	12.16
689.432	12.2
689.618	11.87
689.803	11.04
689.988	11.75
690.174	12.35
690.359	12.25
690.544	12.23
690.73	12.47
690.915	12.23
691.1	12.17
691.285	12.88
691.471	13.14
691.656	13.05
691.841	13.34
692.026	12.5
692.211	12.34
692.396	12.33
692.582	12.8
692.767	12.33
692.952	12.72
693.137	12.31
693.322	12.24
693.507	11.97
693.692	12.35
693.877	12.51
694.062	12.33
694.247	11.69
694.432	11.6
694.617	11.75
694.802	12.33
694.987	11.97
695.172	12.68
695.357	13.42
695.541	14.02
695.726	14.54
695.911	14.69
696.096	14.41
696.281	14.25
696.466	13.87
696.65	14.12
696.835	13.73
697.02	14.18
697.204	13.48
697.389	13.04
697.574	12.2
697.759	11.58
697.943	11.41
698.128	11.81
698.312	12.05
698.497	12.07
698.682	11.64
698.866	11.98
699.051	11.75
699.235	11.94
699.42	11.83
699.604	12.1
699.789	12.34
699.973	12.86
700.158	13
700.342	13.02
700.527	13.37
700.711	13.29
700.895	13
701.08	13.26
701.264	13.09
701.448	13.22
701.633	13.2
701.817	13.34
702.001	13.1
702.186	13.49
702.37	13.89
702.554	13.91
702.738	14.33
702.923	14.14
703.107	13.7
703.291	14.28
703.475	13.9
703.659	14.42
703.843	13.89
704.027	13.48
704.212	13.66
704.396	13.51
704.58	14.36
704.764	13.55
704.948	14.15
705.132	14.79
705.316	14.52
705.5	14.14
705.684	14.19
705.868	14.02
706.052	13.96
706.235	13.25
706.419	14.16
706.603	12.44
706.787	13.7
706.971	13.38
707.155	12.12
707.339	12.08
707.522	12.57
707.706	11.27
707.89	11.79
708.074	12.25
708.257	12.39
708.441	11.53
708.625	12.43
708.808	11.44
708.992	11.13
709.176	12.17
709.359	12.78
709.543	12.97
709.727	13.31
709.91	13.66
710.094	13.65
710.277	14.61
710.461	14.3
710.644	13.59
710.828	13.48
711.011	13.53
711.195	13.08
711.378	13.02
711.562	13.52
711.745	13.86
711.928	13.11
712.112	12.81
712.295	12.15
712.478	12.6
712.662	13.4
712.845	13.86
713.028	13.79
713.212	14.03
713.395	13.59
713.578	12.96
713.761	13.21
713.945	14.03
714.128	13.96
714.311	13.24
714.494	13.15
714.677	13.32
714.86	13.34
715.043	14.25
715.227	13.63
715.41	14.09
715.593	14.31
715.776	13.88
715.959	13.24
716.142	12.78
716.325	12.97
716.508	12.73
716.691	12.76
716.874	12.67
717.057	12.22
717.239	12.68
717.422	11.86
717.605	10.95
717.788	11.41
717.971	10.95
718.154	11.66
718.337	11.89
718.519	12.72
718.702	12.25
718.885	12.52
719.068	12.66
719.25	12.72
719.433	12.56
719.616	12.99
719.798	12.43
719.981	13.16
720.164	12.77
720.346	12.66
720.529	11.93
720.712	12.71
720.894	12.68
721.077	11.86
721.259	12.03
721.442	11.79
721.624	12.51
721.807	13.01
721.989	13.63
722.172	14.17
722.354	14.82
722.537	13.4
722.719	12.07
722.901	10.48
723.084	9.71
723.266	9.78
723.448	10.48
723.631	10.15
723.813	9.11
723.995	7.93
724.178	7.64
724.36	7
724.542	8.57
724.724	8.55
724.907	9.73
725.089	11.2
725.271	11.09
725.453	10.91
725.635	9.94
725.817	11.12
725.999	10.89
726.181	10.81
726.364	11.24
726.546	11.14
726.728	11.68
726.91	12.12
727.092	11.52
727.274	11.69
727.456	13.11
727.638	14.21
727.819	14.24
728.001	14.75
728.183	14.12
728.365	14.57
728.547	14.11
728.729	13.76
728.911	13.87
729.093	12.78
729.274	11.85
729.456	11.1
729.638	10.86
729.82	10.58
730.001	10.49
730.183	10.7
730.365	10.7
730.546	10.35
730.728	11.18
730.91	10.26
731.091	12.87
731.273	12.95
731.455	12.46
731.636	12.72
731.818	12.39
731.999	12.26
732.181	13.01
732.362	13.31
732.544	14.77
732.725	14.59
732.907	15.22
733.088	13.85
733.27	14.87
733.451	14.87
733.633	13.84
733.814	14.48
733.995	15
734.177	14.66
734.358	14.46
734.539	13.2
734.721	13.27
734.902	12.81
735.083	13.02
735.264	12.93
735.446	13.18
735.627	14.23
735.808	13.28
735.989	13.02
736.17	14.19
736.351	12.5
736.533	12.48
736.714	12.44
736.895	12.62
737.076	11.94
737.257	11.04
737.438	10.62
737.619	10.71
737.8	11.56
737.981	11.64
738.162	10.05
738.343	11.47
738.524	11.4
738.705	12
738.886	12.12
739.067	12.9
739.247	12.16
739.428	12.68
739.609	11.83
739.79	11.98
739.971	13.33
740.151	14.08
740.332	13.22
740.513	14.55
740.694	13.92
740.874	13.69
741.055	14.15
741.236	14.9
741.417	14.76
741.597	17.09
741.778	15.91
741.958	14.19
742.139	13.84
742.32	14
742.5	13.1
742.681	13.51
742.861	12.99
743.042	12.43
743.222	12.88
743.403	13.16
743.583	11.06
743.764	12.5
743.944	12.28
744.124	11.98
744.305	12.14
744.485	12.13
744.666	11.67
744.846	13.36
745.026	11.91
745.207	11.77
745.387	12.21
745.567	12.88
745.747	12.33
745.928	12.85
746.108	12.5
746.288	12.67
746.468	12.8
746.648	12.76
746.829	12.88
747.009	13.45
747.189	13.23
747.369	12.54
747.549	12.55
747.729	12.36
747.909	11.95
748.089	11.93
748.269	10.56
748.449	11.07
748.629	10.74
748.809	9.9
748.989	10.57
749.169	10.26
749.349	10.11
749.529	10.68
749.709	11.67
749.889	12.22
750.068	12.99
750.248	14.32
750.428	13.79
750.608	14.23
750.788	13.47
750.967	14.51
751.147	15.41
751.327	15.84
751.507	14.43
751.686	13.77
751.866	14.25
752.046	14.03
752.225	14.64
752.405	15.23
752.585	14.04
752.764	15.4
752.944	14.89
753.123	15.34
753.303	16.24
753.482	17.13
753.662	16.81
753.841	16.51
754.021	16.2
754.2	15.95
754.38	16.22
754.559	19.28
754.739	17.47
754.918	18.46
755.097	18.14
755.277	16.85
755.456	18.32
755.635	18.05
755.815	18.04
755.994	17.86
756.173	16.53
756.352	15.36
756.532	13.66
756.711	15.38
756.89	13.42
757.069	11.92
757.248	11.84
757.427	10.61
757.607	11.86
757.786	11.32
757.965	12.87
758.144	13.96
758.323	14.36
758.502	14.33
758.681	13.94
758.86	14.79
759.039	17.04
759.218	14.88
759.397	14.94
759.576	12.19
759.755	10.49
759.934	9.82
760.113	9.55
760.291	9.36
760.47	9.68
760.649	9.7
760.828	10.48
761.007	9.33
761.186	11.8
761.364	11.35
761.543	13.49
761.722	15.23
761.901	15.36
762.079	15.17
762.258	16.07
762.437	15.25
762.615	15.8
762.794	15.86
762.972	16.28
763.151	16.45
763.33	16.65
763.508	16.79
763.687	17.09
763.865	17.19
764.044	18.08
764.222	16.46
764.401	16.88
764.579	15.68
764.758	15.13
764.936	14.14
765.114	14.28
765.293	14.67
765.471	14.75
765.65	15.1
765.828	14.44
766.006	12.94
766.184	14.49
766.363	13.54
766.541	14.42
766.719	14.49
766.898	16.37
767.076	15.75
767.254	13.72
767.432	13.5
767.61	12.78
767.788	13.68
767.967	14.95
768.145	14.31
768.323	15.03
768.501	15.86
768.679	15.09
768.857	13.9
769.035	15.14
769.213	18.51
769.391	17.79
769.569	17
769.747	15.69
769.925	14.78
770.103	14.41
770.281	14.66
770.459	12.37
770.636	13.16
770.814	13.25
770.992	11.22
771.17	9.28
771.348	7.77
771.525	8.52
771.703	11.45
771.881	12.3
772.059	13.77
772.236	14.28
772.414	15.88
772.592	15.23
772.769	14.67
772.947	15.35
773.125	14.05
773.302	15.72
773.48	13.91
773.657	8.49
773.835	9.2
774.013	7.5
774.19	7.36
774.368	6.23
774.545	6.11
774.723	7.95
774.9	5.74
775.077	8.84
775.255	8.66
775.432	7.99
775.61	10.82
775.787	11.13
775.964	12.8
776.142	12.12
776.319	13.3
776.496	13.98
776.674	12.98
776.851	14.12
777.028	13.81
777.205	14.32
777.382	15.71
777.56	14.37
777.737	13.59
777.914	13.19
778.091	13.68
778.268	11.24
778.445	10.17
778.622	7.83
778.8	7.72
778.977	5.17
779.154	5.52
779.331	4.35
779.508	7.05
779.685	7.6
779.862	7.64
780.038	7.01
780.215	8.29
780.392	8.34
780.569	10.85
780.746	10.38
780.923	11.08
781.1	10.71
781.277	13.37
781.453	12.86
781.63	12.55
781.807	14.73
781.984	13.3
782.16	17.23
782.337	17.62
782.514	20.03
782.691	21.43
782.867	22.84
783.044	24.26
783.221	22.89
783.397	20.99
783.574	19.64
783.75	16.34
783.927	17.27
784.103	12.96
784.28	11.51
784.456	9
784.633	10.08
784.809	7.86
784.986	1.37
785.162	3.28
785.339	5.87
785.515	6.97
785.692	8.19
785.868	11.04
786.044	14.96
786.221	15.96
786.397	16.28
786.573	17.46
786.749	16.47
786.926	20.34
787.102	18.9
787.278	18.57
787.454	16.17
787.631	15.17
787.807	12.47
787.983	13.17
788.159	13.81
788.335	13.52
788.511	10.64
788.687	12.35
788.863	11.04
789.039	10.01
789.216	8.06
789.392	11.22
789.568	11.1
789.744	13.38
789.919	10.74
790.095	10.41
790.271	9.19
790.447	10.06
790.623	8.95
790.799	6.94
790.975	11.56
791.151	12.47
791.327	11.04
791.502	11.31
791.678	8.03
791.854	9.36
792.03	10.5
792.205	13.74
792.381	13.68
792.557	12.4
792.733	15.41
792.908	13.77
793.084	15.79
793.259	15.69
793.435	11.41
793.611	11.78
793.786	12.08
793.962	13.77
794.137	9.8
794.313	11.2
794.488	12.21
794.664	13.64
794.839	11.36
795.015	13.56
795.19	15.35
795.366	19.02
795.541	20.65
795.716	20.56
795.892	17.42
796.067	20.69
796.242	17.47
796.418	19.97
796.593	22.31
796.768	23.91
796.944	21.67
797.119	20.45
797.294	21.48
797.469	19.2
797.644	18.33
797.82	18.69
797.995	15.19
798.17	16.2
798.345	15.44
798.52	12.4
798.695	8.96
798.87	11.22
799.045	11.42
799.22	12.94
799.395	17.02
799.57	15.04
799.745	16.64
799.92	17.12
800.095	18.45
800.27	18.04
800.445	17.54
800.62	21.05
800.795	18.53
800.97	16.41
801.145	16.3
801.319	15.3
801.494	17.32
801.669	18.74
801.844	19.52
802.018	20.13
802.193	18.44
802.368	16.81
802.543	16.67
802.717	14.98
802.892	21.3
803.067	17.26
803.241	16.85
803.416	15.97
803.59	14.18
803.765	15.21
803.94	10.66
804.114	13.18
804.289	14.75
804.463	18.53
804.638	19.15
804.812	14.27
804.986	16.2
805.161	18.36
805.335	18.36
805.51	18.34
805.684	14.27
805.858	17.86
806.033	16.53
806.207	18.12
806.381	13.82
806.556	14.96
806.73	18.74
806.904	23.6
807.078	22.04
807.253	21.61
807.427	22.17
807.601	24.83
807.775	26.45
807.949	29.21
808.123	27.84
808.298	30.57
808.472	29.73
808.646	26.05
808.82	20.79
808.994	17.28
809.168	18.55
809.342	19.49
809.516	22.04
809.69	24.4
809.864	20.17
810.038	21.77
810.212	18.83
810.385	18.79
810.559	17.86
810.733	20.37
810.907	23.54
811.081	22.46
811.255	17.4
811.428	14.86
811.602	7.86
811.776	5.98
811.95	4.03
812.123	8.7
812.297	10.57
812.471	14.55
812.644	17.55
812.818	17.32
812.992	17.2
813.165	17.48
813.339	18.43
813.512	17.62
813.686	22.91
813.86	18.12
814.033	11.92
814.207	5.03
814.38	-0.68
814.554	-13.14
814.727	-9.6
814.9	-2.88
815.074	-1.27
815.247	-4.52
815.421	-3.23
815.594	-1.53
815.767	5.72
815.941	8.28
816.114	11.44
816.287	17.07
816.46	25.36
816.634	25.78
816.807	23.69
816.98	24.24
817.153	23.57
817.327	26.06
817.5	28.01
817.673	23.67
817.846	22.32
818.019	25.33
818.192	22.76
818.365	17.75
818.538	14.85
818.711	8.91
818.884	4.88
819.057	3.95
819.23	4.08
819.403	1.25
819.576	5.7
819.749	8.31
819.922	10.9
820.095	13.02
820.268	13.55
820.441	13.43
820.614	16.23
820.786	19.46
820.959	23.09
821.132	22.55
821.305	21.34
821.477	19.57
821.65	18.43
821.823	18.38
821.996	17.64
822.168	18.37
822.341	18.25
822.514	18.08
822.686	18.02
822.859	17.74
823.031	17.44
823.204	17.55
823.376	18.5
823.549	18.24
823.722	17.56
823.894	18.14
824.067	17.82
824.239	18.3
824.411	17.16
824.584	16.05
824.756	14.92
824.929	15.35
825.101	15.01
825.273	14.25
825.446	15.13
825.618	16.86
825.79	15.68
825.963	15.69
826.135	16.33
826.307	17.84
826.479	19.62
826.652	19.8
826.824	20.07
826.996	21.06
827.168	19.84
827.34	19.69
827.512	17.2
827.684	17.06
827.856	16.88
828.029	15.61
828.201	14.54
828.373	15.7
828.545	16.18
828.717	15.26
828.889	14.21
829.061	15.76
829.232	14.29
829.404	14.78
829.576	14.67
829.748	13.76
829.92	14.04
830.092	16.57
830.264	14.27
830.436	14.74
830.607	13.42
830.779	13.37
830.951	10.48
831.123	8.42
831.294	9.01
831.466	7.15
831.638	9.89
831.809	10.87
831.981	5.44
832.153	0.61
832.324	-4.56
832.496	-4.65
832.667	-8.17
832.839	-4.82
833.011	-1.98
833.182	0.36
833.354	0.3
833.525	-0.3
833.697	-2.62
833.868	-0.42
834.039	4.75
834.211	5.78
834.382	6.34
834.554	9.71
834.725	10.12
834.896	11.88
835.068	10.46
835.239	10.26
835.41	9.06
835.581	12.17
835.753	14.2
835.924	15.37
836.095	15.09
836.266	14.18
836.438	12.49
836.609	10.35
836.78	10.32
836.951	11.59
837.122	13.41
837.293	15.74
837.464	15.98
837.635	13.78
837.806	10.83
837.977	12.1
838.148	15.73
838.319	17.76
838.49	16.31
838.661	16.4
838.832	11.88
839.003	6.46
839.174	7.26
839.345	-0.76
839.516	2.1
839.687	-1.33
839.857	-3.64
840.028	-4.58
840.199	-0.53
840.37	2.24
840.54	2.2
840.711	0.69
840.882	13.72
841.053	8.76
841.223	15.62
841.394	13.57
841.564	13.17
841.735	14.47
841.906	7.2
842.076	11.46
842.247	12.12
842.417	9.28
842.588	15.92
842.758	7.14
842.929	10.91
843.099	9.61
843.27	12.6
843.44	16.53
843.611	20.85
843.781	24.69
843.951	18.68
844.122	21.17
844.292	24.04
844.462	18.55
844.633	9.79
844.803	6.25
844.973	2.07
845.144	-10.43
845.314	-13.85
845.484	-9.58
845.654	-1.67
845.824	-15.06
845.995	-10.28
846.165	-15.5
846.335	-9.35
846.505	2.46
846.675	6.31
846.845	-7.02
847.015	5.25
847.185	-3.05
847.355	-7.14
847.525	-14.55
847.695	-9.8
847.865	-15.46
848.035	-28.09
848.205	-30.95
848.375	-28.68
848.545	-43.16
848.715	-2.86
848.884	2.39
849.054	11.62
849.224	0.31
849.394	9.19
849.564	16.79
849.733	14.21
849.903	19.14
850.073	14.68
850.243	11.77
850.412	13.49
850.582	-11.19
850.752	-14.91
850.921	-2.93
851.091	-0.74
851.26	-12
851.43	-4.59
851.599	1.87
851.769	1.53
851.939	11.94
852.108	14.68
852.278	10.68
852.447	25
852.616	25.98
852.786	11.38
852.955	19.28
853.125	19.39
853.294	5.01
853.463	1.07
853.633	8.77
853.802	0.7
853.971	4.14
854.141	5.15
854.31	-17.39
854.479	-17.54
854.648	-16.67
854.818	-37.21
854.987	-52.75
855.156	-57.58
855.325	-55.09
855.494	-130.12
855.663	-100.98
855.832	-137.91
856.001	-49.48
856.171	-1
856.34	2.67
856.509	-7.51
856.678	8.19
856.847	1.85
857.016	13.55
857.185	6.52
857.353	-0.3
857.522	-7.63
857.691	5.44
857.86	-40.8
858.029	-48.81
858.198	-68.97
858.367	-3.85
858.535	-35.18
858.704	-44.89
858.873	-30.01
859.042	-33.01
859.21	-11.61
859.379	-2.19
859.548	-23.4
859.717	-5.85
859.885	1.88
860.054	-10.23
860.222	-33.06
860.391	-20.85
860.56	-1.06
860.728	3.98
860.897	22.46
861.065	6
861.234	1.88
861.402	11.97
861.571	15.59
861.739	5.72
861.908	21.83
862.076	15.37
862.244	16.29
862.413	4.54
862.581	7.57
862.749	-3.69
862.918	18.13
863.086	34.25
863.254	28.66
863.423	30.06
863.591	49.07
863.759	43.18
863.927	51.07
864.096	76.14
864.264	97.06
864.432	146.87
864.6	108.74
864.768	93.59
864.936	80.96
865.104	67.45
865.272	50.98
865.44	45.12
865.608	35.27
865.776	55.42
865.944	22.54
866.112	32.43
866.28	62.48
866.448	70.02
866.616	71.38
866.784	82.87
866.952	101.33
867.12	97.16
867.288	81.48
867.455	102.95
867.623	88.27
867.791	89.17
867.959	55.8
868.127	12.36
868.294	9.23
868.462	-6.04
868.63	-51.92
868.797	-52.21
868.965	-1.4
869.133	8.62
869.3	5.49
869.468	19.18
869.636	46.16
869.803	80.16
869.971	96.7
870.138	87.1
870.306	73.36
870.473	70.32
870.641	67.9
870.808	51.73
870.975	65.28
871.143	55.06
871.31	55.2
871.478	53.49
871.645	52.34
871.812	46.74
871.98	44.62
872.147	36.92
872.314	48.05
872.482	82.34
872.649	98.96
872.816	54.52
872.983	30.66
873.15	-6.28
873.318	-6.9
873.485	-29.82
873.652	-23.35
873.819	2.08
873.986	7.14
874.153	-12.35
874.32	-17.33
874.487	-17.96
874.654	-15.69
874.821	9.77
874.988	14.66
875.155	16.38
875.322	5.61
875.489	13.51
875.656	-0.74
875.823	14.86
875.99	25.94
876.157	31.95
876.324	11.87
876.49	23.05
876.657	25.26
876.824	32.11
876.991	41.34
877.157	81.88
877.324	55.68
877.491	59.41
877.658	46.2
877.824	53.5
877.991	31.06
878.157	21.88
878.324	-1.28
878.491	1.1
878.657	-9.86
878.824	-17.68
878.99	2.36
879.157	25.87
879.323	32.06
879.49	36.01
879.656	26.04
879.823	39.38
879.989	80.29
880.156	91.22
880.322	63.17
880.488	55.26
880.655	40.16
880.821	9.55
880.987	8.84
881.154	0.53
881.32	-0.52
881.486	0.58
881.652	1.72
881.819	-2.91
881.985	1.66
882.151	9.86
882.317	7.64
882.483	4.89
882.649	10.89
882.816	9.33
882.982	12.57
883.148	16.22
883.314	20.12
883.48	23.55
883.646	26.58
883.812	27.07
883.978	24.67
884.144	29.13
884.31	32.46
884.476	30.95
884.642	32.02
884.807	32.9
884.973	29.67
885.139	29.13
885.305	25.83
885.471	25.17
885.637	24.44
885.802	24.41
885.968	21.15
886.134	14.75
886.3	13.4
886.465	7.35
886.631	-0.32
886.797	-0.87
886.962	-8.02
887.128	-4.46
887.293	4.03
887.459	9.81
887.625	7.97
887.79	-3.85
887.956	10.89
888.121	14.18
888.287	25.53
888.452	36.56
888.618	44.63
888.783	50.32
