Data from 2938021_Reflection_1.txt Node
Date: Sun Jul 12 15:27:11 EDT 2015
User: robert
Spectrometer: USB4E03001
Autoset integration time: false
Trigger mode: 4
Integration Time (sec): 1.000000E-1
Scans to average: 10
Electric dark correction enabled: true
Nonlinearity correction enabled: false
Boxcar width: 5
Stray light correction enabled: false
XAxis mode: Wavelengths
Stop averaging: false
Number of Pixels in Spectrum: 3648
>>>>>Begin Spectral Data<<<<<
177.566	-112.63
177.785	-250.3
178.005	-420.57
178.225	670.89
178.445	-159.83
178.665	-117.88
178.885	176.14
179.105	128.01
179.324	127.22
179.544	84.21
179.764	-55.03
179.984	101.11
180.204	77.92
180.423	-145.2
180.643	112.13
180.863	196.71
181.083	2538.14
181.302	-68.65
181.522	-188.42
181.742	1496.52
181.961	273.62
182.181	764.89
182.401	-230.69
182.621	-518.56
182.84	944.39
183.06	91.8
183.279	181.88
183.499	97.69
183.719	47.2
183.938	31.17
184.158	-10.65
184.377	-3387.62
184.597	-104.62
184.816	-53.38
185.036	-134.94
185.256	3154.93
185.475	411.85
185.695	-2024.23
185.914	-1067.65
186.134	-497.92
186.353	-153.46
186.572	-15750
186.792	-51.31
187.011	-1083.91
187.231	2051.21
187.45	-2.04
187.67	14.07
187.889	53.94
188.108	111.09
188.328	145.19
188.547	285.61
188.766	-323.51
188.986	-269.55
189.205	-130.59
189.424	-436
189.644	-706.04
189.863	-500.87
190.082	2112.53
190.302	13622.64
190.521	-3813.18
190.74	4089.13
190.959	199.43
191.178	93.14
191.398	71.49
191.617	61.14
191.836	99.04
192.055	286.33
192.274	-354.29
192.494	78.09
192.713	-28.44
192.932	-33.39
193.151	-52.66
193.37	-39.61
193.589	0.65
193.808	6.79
194.027	-46.84
194.246	-21.46
194.465	-2.83
194.685	94.32
194.904	93.13
195.123	77.89
195.342	90.04
195.561	107.07
195.78	103.55
195.999	62.06
196.218	3.9
196.436	71.31
196.655	105.86
196.874	96.02
197.093	50.55
197.312	44.91
197.531	95.29
197.75	112.25
197.969	127.13
198.188	-89.11
198.407	-125.35
198.625	-198.64
198.844	-181
199.063	-176.54
199.282	-101.92
199.501	-32.89
199.719	-97.8
199.938	-91.68
200.157	-46.17
200.376	-254.33
200.594	572.07
200.813	363.74
201.032	192.84
201.251	96.01
201.469	-20.21
201.688	1700.69
201.907	-69.95
202.125	-244.46
202.344	-2007.14
202.563	-649.72
202.781	-192.36
203	1871.78
203.218	-2406.5
203.437	-348.59
203.656	-267.17
203.874	-454.11
204.093	-117.98
204.311	-73.32
204.53	-59.78
204.748	-39.4
204.967	-38.29
205.185	-50.61
205.404	-12.69
205.622	-36.84
205.841	54.69
206.059	-164.63
206.278	45.52
206.496	-96.57
206.715	-153.37
206.933	389.59
207.151	-76.43
207.37	151.51
207.588	165.53
207.806	288.81
208.025	2402.44
208.243	-225.17
208.461	716.93
208.68	459.61
208.898	-956.63
209.116	-635.27
209.335	-16.9
209.553	-132.03
209.771	-68.44
209.989	6.07
210.208	55.99
210.426	127.86
210.644	-275.5
210.862	1007.73
211.081	157.18
211.299	139.72
211.517	127.09
211.735	157.2
211.953	-52.97
212.171	3516
212.39	-54.83
212.608	48.06
212.826	42.68
213.044	24.55
213.262	42.2
213.48	75.18
213.698	78.09
213.916	73.83
214.134	111.47
214.352	76.62
214.57	55.51
214.788	69.99
215.006	76.27
215.224	91.02
215.442	127.33
215.66	110.36
215.878	108.11
216.096	99.02
216.314	126.22
216.532	120.66
216.75	267.68
216.968	197.69
217.185	144.43
217.403	154.92
217.621	120.66
217.839	95.63
218.057	76.18
218.275	31.34
218.492	-191.62
218.71	299.25
218.928	-735.77
219.146	-111.51
219.363	16.03
219.581	-12.32
219.799	-31.86
220.017	-24.72
220.234	-172.38
220.452	-236.12
220.67	-33.89
220.887	24.32
221.105	-32.32
221.323	-46.18
221.54	-85.94
221.758	-95.92
221.976	-111.28
222.193	-157.07
222.411	-42.14
222.629	-34.17
222.846	-17.98
223.064	-37.84
223.281	-65.73
223.499	-28.38
223.716	-26.59
223.934	1.21
224.151	-20.93
224.369	-52.2
224.586	-26.94
224.804	-54.96
225.021	-40.25
225.239	-44.64
225.456	-25.33
225.674	-4.75
225.891	6.81
226.108	-0.65
226.326	-10.87
226.543	-2.96
226.76	6.51
226.978	19.59
227.195	16.53
227.413	18.48
227.63	17.13
227.847	11.92
228.064	8.45
228.282	6.5
228.499	11.35
228.716	11.14
228.934	11.74
229.151	9.77
229.368	6.18
229.585	4.48
229.802	3.82
230.02	4.11
230.237	6.39
230.454	6.02
230.671	6.38
230.888	3.38
231.105	4.3
231.323	2.2
231.54	2.11
231.757	0.71
231.974	5.19
232.191	1.11
232.408	1.64
232.625	-3.12
232.842	-4.61
233.059	-5.46
233.276	-8.71
233.493	-8.84
233.71	-4.34
233.927	-1.64
234.144	3.95
234.361	2.61
234.578	2.25
234.795	5.9
235.012	14.16
235.229	17.1
235.446	17.17
235.663	17.32
235.879	20.79
236.096	14.42
236.313	13.7
236.53	12.06
236.747	12.43
236.964	16.7
237.181	10.24
237.397	4.49
237.614	6.81
237.831	12.59
238.048	13.94
238.264	13.44
238.481	18.02
238.698	19.98
238.915	17.44
239.131	17.02
239.348	15.85
239.565	21.56
239.781	19.92
239.998	14.52
240.215	15.23
240.431	15.92
240.648	14.98
240.865	14.97
241.081	13.08
241.298	10.68
241.514	11.73
241.731	12.08
241.947	10.59
242.164	11.7
242.38	12.28
242.597	12.03
242.814	11.34
243.03	9.66
243.246	10.45
243.463	7.88
243.679	8.15
243.896	9.66
244.112	10.42
244.329	9.09
244.545	7.19
244.762	8.01
244.978	7.73
245.194	7.91
245.411	8.6
245.627	8.54
245.843	10.56
246.06	12.59
246.276	10.97
246.492	10.72
246.709	12.97
246.925	13.38
247.141	12.7
247.357	11.97
247.574	12.24
247.79	12.29
248.006	11.83
248.222	12.53
248.439	11.03
248.655	10.82
248.871	10.22
249.087	8.06
249.303	6.16
249.519	5.17
249.736	4.75
249.952	2.74
250.168	2.68
250.384	2.67
250.6	3.39
250.816	7.22
251.032	9.79
251.248	10.31
251.464	12.16
251.68	13.93
251.896	14.69
252.112	13.51
252.328	13.65
252.544	12.23
252.76	10.28
252.976	9.28
253.192	4.32
253.408	4.35
253.624	2.69
253.84	1.62
254.056	-1.55
254.272	0.32
254.487	3.58
254.703	3.51
254.919	3.35
255.135	2.66
255.351	1.11
255.567	7.97
255.782	3.57
255.998	8.79
256.214	9.81
256.43	11.65
256.646	11.83
256.861	8.51
257.077	7.25
257.293	11.45
257.508	13.09
257.724	13.49
257.94	14.61
258.155	15.85
258.371	12.69
258.587	11.73
258.802	12.34
259.018	9.68
259.234	11.27
259.449	11.15
259.665	10.11
259.88	10.11
260.096	9.78
260.312	9.6
260.527	9.35
260.743	9.47
260.958	10.12
261.174	9.67
261.389	10.68
261.605	9.4
261.82	10.67
262.036	10.42
262.251	10.95
262.466	11.79
262.682	11.26
262.897	11.65
263.113	12.06
263.328	11.25
263.543	11.42
263.759	10.17
263.974	11.34
264.189	9.57
264.405	9.99
264.62	10.27
264.835	10.62
265.051	10.51
265.266	12.96
265.481	13.47
265.696	12.52
265.912	11.86
266.127	12.8
266.342	11.08
266.557	12.35
266.773	12.72
266.988	11.56
267.203	10.34
267.418	10.04
267.633	8.59
267.848	9.15
268.064	9.42
268.279	9.68
268.494	10.85
268.709	11.69
268.924	10.74
269.139	9.56
269.354	9.59
269.569	10.88
269.784	10.15
269.999	8.73
270.214	8.21
270.429	8.05
270.644	7.73
270.859	5.18
271.074	4.44
271.289	4.72
271.504	6.23
271.719	6.91
271.934	5.55
272.149	5.57
272.363	5.54
272.578	5.14
272.793	5.4
273.008	5.81
273.223	7.41
273.438	8.77
273.653	9.74
273.867	9.99
274.082	9.93
274.297	9.45
274.512	9.76
274.726	9.3
274.941	10.07
275.156	9.04
275.371	9.23
275.585	7.69
275.8	6.42
276.015	3.97
276.229	3.8
276.444	4.13
276.659	5.54
276.873	5.54
277.088	5.13
277.302	5.44
277.517	7.26
277.732	6.21
277.946	6.34
278.161	6.35
278.375	7.46
278.59	7.02
278.804	6.03
279.019	5.04
279.233	3.93
279.448	4.9
279.662	3.2
279.877	3.16
280.091	2.62
280.306	4.74
280.52	3.26
280.735	4.03
280.949	2.94
281.163	2.93
281.378	4.13
281.592	5.44
281.806	6.33
282.021	7.07
282.235	5.11
282.449	7.19
282.664	5.45
282.878	7.26
283.092	7.57
283.307	8.31
283.521	9.32
283.735	9.55
283.949	10.19
284.164	10.18
284.378	11.07
284.592	12.55
284.806	11.61
285.02	13.02
285.234	12.88
285.449	11.57
285.663	11.85
285.877	10.92
286.091	11.38
286.305	10.96
286.519	11.32
286.733	10.9
286.947	10.95
287.161	10.01
287.375	9
287.589	8.39
287.803	8.9
288.017	8.49
288.231	8.9
288.445	8.04
288.659	8.39
288.873	6.88
289.087	5.06
289.301	5.39
289.515	7.48
289.729	7.82
289.943	7.58
290.157	7.26
290.371	7.82
290.584	7.1
290.798	6.93
291.012	6.62
291.226	6.29
291.44	7.66
291.654	7.53
291.867	6.38
292.081	6.88
292.295	7.52
292.509	8.43
292.722	8.63
292.936	8.91
293.15	8.34
293.364	6.55
293.577	7.66
293.791	7.88
294.005	7.61
294.218	8.38
294.432	7.9
294.645	7.74
294.859	6.51
295.073	6.71
295.286	6.42
295.5	6.19
295.713	6.8
295.927	5.65
296.14	5.61
296.354	4.45
296.568	3.68
296.781	2.3
296.994	1.93
297.208	2.59
297.421	2.07
297.635	3.42
297.848	4.93
298.062	5.43
298.275	6.28
298.489	5.41
298.702	6.88
298.915	7.41
299.129	8.5
299.342	10.7
299.555	11.09
299.769	12.05
299.982	12.24
300.195	10.93
300.409	11.29
300.622	11.92
300.835	11.87
301.048	11.37
301.262	12.29
301.475	13.25
301.688	12.59
301.901	13.5
302.115	13.06
302.328	13.66
302.541	14.73
302.754	15.54
302.967	15.87
303.18	17.39
303.393	17.72
303.607	17.75
303.82	17.84
304.033	15.66
304.246	14.6
304.459	13.96
304.672	13.33
304.885	13.76
305.098	12.39
305.311	12.73
305.524	13.49
305.737	13.39
305.95	12.93
306.163	13.22
306.376	14.72
306.589	14.03
306.802	15.17
307.015	14.87
307.228	13.91
307.44	14.44
307.653	13.02
307.866	11.91
308.079	11.69
308.292	11.1
308.505	9.53
308.718	9.47
308.93	10.91
309.143	9.49
309.356	9.2
309.569	8.43
309.781	8.97
309.994	9.39
310.207	9.44
310.42	9.04
310.632	9.82
310.845	10.93
311.058	11.04
311.27	10.18
311.483	11.37
311.696	11.28
311.908	12.67
312.121	12.06
312.333	11.05
312.546	11.99
312.759	12.73
312.971	12.22
313.184	11.45
313.396	10.96
313.609	11.52
313.821	9.84
314.034	11.07
314.246	9.91
314.459	9.43
314.671	10.43
314.884	8.33
315.096	6.01
315.309	6.55
315.521	5.57
315.733	7.96
315.946	7.34
316.158	8.96
316.371	7.23
316.583	7.58
316.795	6.96
317.008	8.13
317.22	7.78
317.432	8.91
317.644	7.99
317.857	9.95
318.069	7.92
318.281	8.28
318.494	7.07
318.706	7.65
318.918	6.46
319.13	9.48
319.342	8.5
319.555	9.26
319.767	10.05
319.979	9.53
320.191	8.95
320.403	9.18
320.615	8.43
320.827	9.4
321.039	9.85
321.252	10.12
321.464	10.3
321.676	11.57
321.888	13.84
322.1	15.21
322.312	16.37
322.524	16.25
322.736	15.9
322.948	18.24
323.16	17.65
323.372	17.75
323.584	18.01
323.796	16.4
324.007	15.23
324.219	13.87
324.431	12.72
324.643	11.38
324.855	9.83
325.067	9.14
325.279	6.9
325.491	7.42
325.702	7.25
325.914	7.94
326.126	8.24
326.338	7.83
326.55	8.75
326.761	8.02
326.973	9.4
327.185	11.73
327.396	13.25
327.608	14.27
327.82	15.14
328.032	14.55
328.243	14.68
328.455	13.57
328.666	15.49
328.878	15.1
329.09	15.18
329.301	14.87
329.513	13.61
329.725	13.03
329.936	13.46
330.148	13.67
330.359	14.71
330.571	13.43
330.782	14.98
330.994	13.51
331.205	12.93
331.417	13.92
331.628	14.02
331.84	15.33
332.051	14.63
332.262	14.71
332.474	12.87
332.685	12.81
332.897	14.08
333.108	14.54
333.319	13.42
333.531	13.66
333.742	13.94
333.953	14.82
334.165	14.81
334.376	15.24
334.587	15.48
334.799	16.27
335.01	15.79
335.221	15.55
335.432	14.66
335.644	15.63
335.855	15.92
336.066	15.82
336.277	16.1
336.488	15.14
336.7	14.8
336.911	13.93
337.122	14.08
337.333	14.2
337.544	13.98
337.755	15.7
337.966	15.8
338.177	16.4
338.388	16.43
338.599	16.26
338.811	16.68
339.022	17.12
339.233	16.96
339.444	16.34
339.655	15.45
339.866	16.38
340.076	15.44
340.287	16
340.498	16.34
340.709	16.44
340.92	16
341.131	16.72
341.342	16.65
341.553	17.52
341.764	17.75
341.975	18.75
342.185	18.35
342.396	17.97
342.607	18.28
342.818	17.56
343.029	17.39
343.239	16.55
343.45	16.17
343.661	17.3
343.872	17.55
344.082	18.33
344.293	17.67
344.504	17.75
344.714	18.54
344.925	18.22
345.136	17.5
345.346	17.29
345.557	17.99
345.768	17.77
345.978	16.68
346.189	16.98
346.399	16.89
346.61	18.12
346.821	19.02
347.031	18.1
347.242	17.5
347.452	17.53
347.663	16.9
347.873	16.12
348.084	16.53
348.294	16.84
348.504	16.75
348.715	17.35
348.925	15.71
349.136	14.03
349.346	13.75
349.557	13.42
349.767	14.59
349.977	15.32
350.188	16.04
350.398	15.49
350.608	14.83
350.819	13.7
351.029	13.02
351.239	14.48
351.449	14.48
351.66	14.87
351.87	15.38
352.08	15.52
352.29	16.44
352.501	16.31
352.711	16.99
352.921	18.35
353.131	18.99
353.341	19.01
353.552	18.86
353.762	19.31
353.972	19.69
354.182	20.17
354.392	19.47
354.602	18.15
354.812	17.86
355.022	17.19
355.232	16.8
355.442	16.76
355.652	16.01
355.862	15.65
356.072	15.11
356.282	14.76
356.492	14.02
356.702	14.05
356.912	14.02
357.122	14.07
357.332	13.99
357.542	14.42
357.752	14.59
357.962	14.26
358.171	14.02
358.381	16.03
358.591	15.39
358.801	15.71
359.011	16.07
359.221	16.44
359.43	16.48
359.64	17.2
359.85	16.55
360.06	16.81
360.269	16.29
360.479	15.84
360.689	14.94
360.899	15.73
361.108	15.21
361.318	14.86
361.528	14.75
361.737	14.52
361.947	14
362.156	14.14
362.366	13.81
362.576	14.22
362.785	14.75
362.995	14.95
363.204	15.37
363.414	15.32
363.623	15.52
363.833	15.48
364.042	15.91
364.252	16.13
364.461	15.62
364.671	15.27
364.88	15.06
365.09	14.24
365.299	13.69
365.509	12.3
365.718	13.29
365.927	13.1
366.137	12.92
366.346	12.74
366.555	12.66
366.765	12.97
366.974	12.94
367.183	12.88
367.393	13.67
367.602	12.98
367.811	13.31
368.021	11.46
368.23	10.55
368.439	10.36
368.648	10.06
368.857	9.36
369.067	8.79
369.276	8.5
369.485	9.01
369.694	9.09
369.903	10.16
370.112	10.86
370.321	12.54
370.531	13.08
370.74	13.47
370.949	14
371.158	14.15
371.367	14.88
371.576	15.13
371.785	14.66
371.994	14.53
372.203	14.08
372.412	13.47
372.621	13.01
372.83	12.82
373.039	13.03
373.248	12.67
373.457	12.38
373.666	11.83
373.874	12.12
374.083	12.54
374.292	11.69
374.501	11.76
374.71	11.87
374.919	12.02
375.128	12.72
375.336	12.09
375.545	12.34
375.754	13.34
375.963	13.58
376.171	12.7
376.38	12.5
376.589	13.15
376.798	13.72
377.006	13.94
377.215	13.88
377.424	13.53
377.632	13.51
377.841	12.67
378.05	12.5
378.258	12.71
378.467	13.42
378.675	13.97
378.884	14.22
379.093	13.77
379.301	13.61
379.51	13.18
379.718	13.46
379.927	13.34
380.135	14.13
380.344	14.13
380.552	13.53
380.761	12.88
380.969	11.94
381.177	11.03
381.386	10.79
381.594	10.1
381.803	10.52
382.011	9.97
382.219	10.24
382.428	9.82
382.636	9.59
382.845	9.74
383.053	9.79
383.261	10.04
383.469	10.38
383.678	9.92
383.886	9.84
384.094	9.9
384.302	9.86
384.511	9.62
384.719	9.93
384.927	9.51
385.135	9.02
385.343	9.41
385.552	9.69
385.76	9.82
385.968	9.63
386.176	9.8
386.384	9.71
386.592	9.61
386.8	9.27
387.008	8.93
387.216	8.78
387.424	8.91
387.633	8.98
387.841	8.71
388.049	8.91
388.257	9.27
388.465	9.39
388.672	9.35
388.88	9.42
389.088	9.47
389.296	9.44
389.504	9.46
389.712	9.69
389.92	8.96
390.128	9.52
390.336	8.9
390.544	8.75
390.751	8.65
390.959	8.63
391.167	8.55
391.375	8.96
391.583	8.63
391.79	8.5
391.998	8.58
392.206	8.82
392.414	8.36
392.621	8.66
392.829	8.86
393.037	8.85
393.244	8.55
393.452	8.55
393.66	8.7
393.867	8.95
394.075	9.15
394.283	9
394.49	9.23
394.698	9.06
394.905	8.91
395.113	8.86
395.32	8.89
395.528	8.87
395.735	8.75
395.943	8.66
396.15	8.62
396.358	8.28
396.565	8.32
396.773	7.77
396.98	7.53
397.188	7.74
397.395	7.64
397.602	7.4
397.81	7.14
398.017	7.16
398.225	7.01
398.432	7.12
398.639	7.17
398.847	6.94
399.054	7.26
399.261	7.66
399.468	7.11
399.676	6.88
399.883	7.09
400.09	7.89
400.297	8.25
400.505	8.01
400.712	8.25
400.919	8.61
401.126	8.83
401.333	8.75
401.54	8.41
401.748	8.56
401.955	8.82
402.162	8.82
402.369	8.03
402.576	7.63
402.783	7.5
402.99	7.03
403.197	6.74
403.404	6.72
403.611	6.71
403.818	7.04
404.025	7.12
404.232	7.12
404.439	7.06
404.646	7.36
404.853	7.34
405.06	7.53
405.267	7.48
405.474	7.32
405.681	7.43
405.887	7.13
406.094	6.82
406.301	7.02
406.508	7.27
406.715	7.42
406.922	7.18
407.128	7.45
407.335	7.19
407.542	7.18
407.749	7.52
407.955	7.46
408.162	7.55
408.369	7.76
408.575	7.59
408.782	7.12
408.989	7.1
409.195	7.23
409.402	6.98
409.609	7.26
409.815	7.53
410.022	7.48
410.228	7.36
410.435	7.34
410.642	7.25
410.848	7.34
411.055	7.36
411.261	6.83
411.468	6.72
411.674	7
411.881	6.91
412.087	6.87
412.294	7.26
412.5	7.36
412.706	7.86
412.913	8.04
413.119	7.8
413.326	7.86
413.532	8.34
413.738	8.61
413.945	8.44
414.151	8.6
414.357	8.7
414.564	8.15
414.77	7.99
414.976	7.71
415.182	7.63
415.389	7.65
415.595	7.72
415.801	7.77
416.007	7.93
416.214	7.88
416.42	7.84
416.626	7.57
416.832	7.83
417.038	7.75
417.244	7.83
417.45	7.71
417.657	7.68
417.863	7.79
418.069	7.79
418.275	7.38
418.481	7.47
418.687	7.38
418.893	7.51
419.099	7.44
419.305	7.52
419.511	7.52
419.717	7.59
419.923	7.61
420.129	7.45
420.335	7.45
420.541	7.53
420.746	7.54
420.952	7.47
421.158	7.49
421.364	7.53
421.57	7.33
421.776	7.22
421.982	7.21
422.187	7.26
422.393	7.27
422.599	7.26
422.805	7.25
423.01	7.15
423.216	7.08
423.422	6.96
423.628	6.99
423.833	7.2
424.039	7.35
424.245	7.27
424.45	7.27
424.656	7.23
424.862	7.18
425.067	7.22
425.273	7.15
425.478	7.41
425.684	7.36
425.889	7.23
426.095	7.29
426.301	7.25
426.506	7.22
426.712	7.23
426.917	7.19
427.123	7.03
427.328	6.87
427.533	6.99
427.739	6.74
427.944	6.89
428.15	7.07
428.355	6.86
428.561	6.71
428.766	6.93
428.971	6.69
429.177	6.8
429.382	6.86
429.587	7.13
429.793	6.97
429.998	6.94
430.203	6.85
430.408	6.7
430.614	6.79
430.819	6.95
431.024	6.85
431.229	6.78
431.434	6.81
431.64	6.88
431.845	6.73
432.05	6.77
432.255	6.84
432.46	6.98
432.665	6.9
432.87	6.79
433.076	6.67
433.281	6.68
433.486	6.88
433.691	6.8
433.896	6.8
434.101	6.74
434.306	6.82
434.511	7
434.716	7.12
434.921	7.18
435.126	7.1
435.331	7.12
435.535	7.05
435.74	7.04
435.945	7.09
436.15	7.12
436.355	7.26
436.56	7.11
436.765	6.84
436.97	6.68
437.174	6.7
437.379	6.81
437.584	6.65
437.789	6.7
437.993	6.75
438.198	6.76
438.403	6.55
438.608	6.55
438.812	6.56
439.017	6.65
439.222	6.72
439.426	6.71
439.631	6.76
439.836	7.08
440.04	7.09
440.245	7.05
440.45	6.97
440.654	7.15
440.859	7.09
441.063	7.17
441.268	7.08
441.472	6.95
441.677	6.93
441.881	6.91
442.086	6.61
442.29	6.58
442.495	6.65
442.699	6.77
442.904	6.9
443.108	6.75
443.312	6.77
443.517	6.88
443.721	6.91
443.925	6.85
444.13	6.8
444.334	6.89
444.538	6.9
444.743	6.75
444.947	6.83
445.151	6.74
445.356	6.88
445.56	6.74
445.764	6.85
445.968	6.78
446.173	6.81
446.377	6.96
446.581	6.94
446.785	6.95
446.989	7.08
447.193	7.04
447.398	7.04
447.602	7.1
447.806	7.21
448.01	7.01
448.214	7.18
448.418	7.35
448.622	7.29
448.826	7.41
449.03	7.5
449.234	7.36
449.438	7.25
449.642	7.13
449.846	7.1
450.05	7.02
450.254	7.18
450.458	6.93
450.662	6.85
450.866	6.62
451.069	6.55
451.273	6.45
451.477	6.71
451.681	6.79
451.885	6.79
452.089	6.86
452.292	6.91
452.496	6.92
452.7	6.98
452.904	6.9
453.107	7.05
453.311	7.04
453.515	6.87
453.719	6.67
453.922	6.49
454.126	6.59
454.33	6.33
454.533	6.45
454.737	6.39
454.94	6.26
455.144	6.28
455.348	6.18
455.551	6.16
455.755	6.27
455.958	6.38
456.162	6.34
456.365	6.24
456.569	6.39
456.772	6.29
456.976	6.12
457.179	6.26
457.383	6.21
457.586	6.24
457.79	6.01
457.993	6.01
458.196	6.05
458.4	6.18
458.603	6.31
458.807	6.28
459.01	6.42
459.213	6.65
459.417	6.63
459.62	6.46
459.823	6.46
460.026	6.55
460.23	6.65
460.433	6.66
460.636	6.63
460.839	6.63
461.042	6.57
461.246	6.48
461.449	6.37
461.652	6.54
461.855	6.68
462.058	6.66
462.261	6.86
462.464	6.8
462.668	6.72
462.871	6.73
463.074	6.58
463.277	6.73
463.48	6.84
463.683	6.96
463.886	6.88
464.089	6.85
464.292	7.02
464.495	7
464.698	6.81
464.901	6.8
465.104	6.7
465.306	6.57
465.509	6.47
465.712	6.45
465.915	6.25
466.118	6.14
466.321	6.33
466.524	6.32
466.726	6.32
466.929	6.35
467.132	6.23
467.335	6.35
467.538	6.54
467.74	6.57
467.943	6.38
468.146	6.38
468.348	6.38
468.551	6.2
468.754	6.22
468.956	6.17
469.159	6.24
469.362	6.28
469.564	6.34
469.767	6.31
469.969	6.42
470.172	6.44
470.375	6.5
470.577	6.59
470.78	6.77
470.982	6.82
471.185	6.86
471.387	6.97
471.59	7.08
471.792	7.13
471.995	7.03
472.197	7.06
472.399	7.06
472.602	7.03
472.804	7.1
473.007	6.86
473.209	6.88
473.411	6.78
473.614	6.77
473.816	6.62
474.018	6.56
474.22	6.6
474.423	6.5
474.625	6.4
474.827	6.56
475.03	6.26
475.232	6.34
475.434	6.07
475.636	6.03
475.838	6.02
476.04	6.3
476.243	6.26
476.445	6.53
476.647	6.46
476.849	6.52
477.051	6.58
477.253	6.82
477.455	6.87
477.657	6.89
477.859	7.03
478.061	6.92
478.263	6.87
478.465	6.9
478.667	6.75
478.869	6.66
479.071	6.75
479.273	6.49
479.475	6.2
479.677	6.25
479.879	6.31
480.081	6.3
480.283	6.43
480.485	6.34
480.686	6.38
480.888	6.38
481.09	6.54
481.292	6.63
481.494	6.75
481.695	6.84
481.897	6.86
482.099	6.91
482.301	6.84
482.502	6.69
482.704	6.51
482.906	6.5
483.107	6.53
483.309	6.52
483.511	6.49
483.712	6.47
483.914	6.5
484.115	6.45
484.317	6.44
484.519	6.37
484.72	6.36
484.922	6.44
485.123	6.39
485.325	6.37
485.526	6.38
485.728	6.38
485.929	6.46
486.131	6.46
486.332	6.47
486.534	6.46
486.735	6.49
486.936	6.55
487.138	6.52
487.339	6.55
487.541	6.56
487.742	6.51
487.943	6.48
488.144	6.5
488.346	6.42
488.547	6.42
488.748	6.4
488.95	6.42
489.151	6.43
489.352	6.5
489.553	6.58
489.755	6.56
489.956	6.55
490.157	6.56
490.358	6.45
490.559	6.49
490.76	6.45
490.961	6.43
491.163	6.43
491.364	6.42
491.565	6.38
491.766	6.43
491.967	6.4
492.168	6.39
492.369	6.36
492.57	6.34
492.771	6.38
492.972	6.47
493.173	6.44
493.374	6.52
493.575	6.46
493.776	6.48
493.976	6.37
494.177	6.33
494.378	6.26
494.579	6.24
494.78	6.33
494.981	6.17
495.182	6.12
495.382	6.09
495.583	5.98
495.784	5.97
495.985	5.94
496.185	5.75
496.386	5.83
496.587	5.88
496.788	6.02
496.988	5.9
497.189	5.83
497.39	5.82
497.59	5.92
497.791	5.97
497.992	5.98
498.192	5.92
498.393	5.97
498.593	5.9
498.794	5.96
498.994	5.87
499.195	5.88
499.395	6.18
499.596	6.3
499.796	6.25
499.997	6.33
500.197	6.41
500.398	6.67
500.598	6.63
500.799	6.81
500.999	6.85
501.199	6.97
501.4	6.89
501.6	6.82
501.801	6.6
502.001	6.76
502.201	6.63
502.402	6.55
502.602	6.43
502.802	6.63
503.002	6.49
503.203	6.61
503.403	6.52
503.603	6.65
503.803	6.69
504.003	6.8
504.204	6.8
504.404	6.78
504.604	6.95
504.804	6.88
505.004	6.89
505.204	6.98
505.404	7.04
505.604	7.06
505.804	7.08
506.005	6.91
506.205	6.9
506.405	6.6
506.605	6.71
506.805	6.56
507.005	6.68
507.204	6.54
507.404	6.53
507.604	6.37
507.804	6.3
508.004	6.19
508.204	6.24
508.404	6.29
508.604	6.49
508.804	6.34
509.003	6.37
509.203	6.31
509.403	6.37
509.603	6.32
509.803	6.29
510.002	6.45
510.202	6.5
510.402	6.51
510.602	6.46
510.801	6.5
511.001	6.57
511.201	6.56
511.4	6.52
511.6	6.59
511.8	6.63
511.999	6.66
512.199	6.59
512.398	6.59
512.598	6.71
512.797	6.8
512.997	6.6
513.197	6.63
513.396	6.73
513.596	6.74
513.795	6.74
513.994	6.68
514.194	6.47
514.393	6.35
514.593	6.45
514.792	6.45
514.992	6.35
515.191	6.52
515.39	6.53
515.59	6.52
515.789	6.66
515.988	6.58
516.188	6.62
516.387	6.81
516.586	6.76
516.786	6.79
516.985	6.82
517.184	6.88
517.383	6.79
517.582	6.76
517.782	6.78
517.981	6.79
518.18	6.9
518.379	6.93
518.578	6.96
518.777	7
518.976	6.92
519.176	6.93
519.375	6.88
519.574	7.01
519.773	6.99
519.972	6.88
520.171	6.82
520.37	6.78
520.569	6.73
520.768	6.73
520.967	6.91
521.166	6.85
521.365	6.71
521.564	6.77
521.762	6.69
521.961	6.86
522.16	6.99
522.359	7.09
522.558	7.2
522.757	7.31
522.956	7.28
523.154	7.2
523.353	7.34
523.552	7.35
523.751	7.48
523.949	7.6
524.148	7.5
524.347	7.37
524.546	7.21
524.744	7.03
524.943	7.05
525.142	7.02
525.34	6.98
525.539	7.04
525.737	7
525.936	7.02
526.135	6.97
526.333	7.07
526.532	7.21
526.73	7.29
526.929	7.41
527.127	7.43
527.326	7.49
527.524	7.56
527.723	7.5
527.921	7.59
528.12	7.51
528.318	7.42
528.516	7.32
528.715	7.22
528.913	7.24
529.112	7.2
529.31	7.21
529.508	7.18
529.707	7.18
529.905	7.17
530.103	7.14
530.301	7.15
530.5	7.24
530.698	7.35
530.896	7.45
531.094	7.44
531.293	7.5
531.491	7.42
531.689	7.5
531.887	7.53
532.085	7.55
532.283	7.59
532.481	7.6
532.68	7.56
532.878	7.53
533.076	7.59
533.274	7.57
533.472	7.56
533.67	7.69
533.868	7.73
534.066	7.68
534.264	7.69
534.462	7.67
534.66	7.65
534.858	7.69
535.056	7.7
535.253	7.68
535.451	7.78
535.649	7.76
535.847	7.69
536.045	7.72
536.243	7.77
536.441	7.85
536.638	7.83
536.836	7.86
537.034	7.84
537.232	7.79
537.43	7.83
537.627	7.77
537.825	7.85
538.023	7.68
538.22	7.69
538.418	7.75
538.616	7.82
538.813	7.77
539.011	7.76
539.209	7.89
539.406	8.02
539.604	8.09
539.801	8.11
539.999	8.11
540.196	8.29
540.394	8.25
540.591	8.28
540.789	8.24
540.986	8.35
541.184	8.46
541.381	8.54
541.579	8.51
541.776	8.57
541.974	8.66
542.171	8.57
542.368	8.55
542.566	8.57
542.763	8.59
542.96	8.6
543.158	8.65
543.355	8.69
543.552	8.69
543.75	8.71
543.947	8.58
544.144	8.51
544.341	8.66
544.539	8.78
544.736	8.75
544.933	8.86
545.13	9.07
545.327	9.05
545.524	9.04
545.722	9.12
545.919	9.07
546.116	9.25
546.313	9.34
546.51	9.36
546.707	9.31
546.904	9.36
547.101	9.22
547.298	9.06
547.495	9.09
547.692	8.99
547.889	8.88
548.086	9.14
548.283	9.08
548.48	9.14
548.677	9.22
548.874	9.32
549.07	9.33
549.267	9.4
549.464	9.42
549.661	9.56
549.858	9.8
550.055	9.88
550.251	9.87
550.448	10
550.645	9.97
550.842	10.07
551.038	10.15
551.235	10.25
551.432	10.23
551.628	10.31
551.825	10.4
552.022	10.31
552.218	10.4
552.415	10.45
552.612	10.39
552.808	10.45
553.005	10.56
553.201	10.68
553.398	10.81
553.594	10.72
553.791	10.92
553.987	11.11
554.184	11.2
554.38	11.27
554.577	11.11
554.773	11.32
554.97	11.29
555.166	11.18
555.362	11.13
555.559	11.01
555.755	11.38
555.952	11.27
556.148	10.99
556.344	11.14
556.541	11.15
556.737	11.56
556.933	11.53
557.129	11.72
557.326	11.94
557.522	12.22
557.718	12.5
557.914	12.33
558.11	12.42
558.307	12.62
558.503	12.74
558.699	12.87
558.895	12.92
559.091	12.91
559.287	12.99
559.483	12.97
559.679	13.06
559.876	13.05
560.072	13.18
560.268	13.16
560.464	12.99
560.66	12.93
560.856	12.93
561.052	12.77
561.247	12.98
561.443	12.99
561.639	12.73
561.835	12.54
562.031	12.44
562.227	12.54
562.423	12.64
562.619	12.88
562.815	12.74
563.01	12.77
563.206	12.74
563.402	12.59
563.598	12.56
563.793	12.8
563.989	12.68
564.185	12.93
564.381	12.95
564.576	12.91
564.772	12.85
564.968	13.11
565.163	13.26
565.359	13.53
565.555	13.75
565.75	13.98
565.946	14.06
566.141	14.34
566.337	14.25
566.532	14.3
566.728	14.44
566.923	14.56
567.119	14.65
567.314	14.7
567.51	14.71
567.705	14.71
567.901	14.75
568.096	14.91
568.292	14.87
568.487	15.04
568.682	15.21
568.878	15.27
569.073	15.34
569.268	15.53
569.464	15.58
569.659	15.55
569.854	15.6
570.05	15.52
570.245	15.46
570.44	15.66
570.635	15.83
570.831	16.07
571.026	16.19
571.221	16.26
571.416	16.12
571.611	16.19
571.806	16.45
572.002	16.44
572.197	16.43
572.392	16.52
572.587	16.46
572.782	16.5
572.977	16.35
573.172	16.34
573.367	16.46
573.562	16.75
573.757	16.61
573.952	16.42
574.147	16.47
574.342	16.5
574.537	16.58
574.732	16.78
574.927	16.69
575.121	16.73
575.316	16.72
575.511	16.7
575.706	16.51
575.901	16.67
576.096	16.91
576.29	17.03
576.485	17.13
576.68	17.08
576.875	16.98
577.069	17.13
577.264	17.17
577.459	17.12
577.654	17.18
577.848	17.38
578.043	17.43
578.238	17.3
578.432	17.25
578.627	17.4
578.821	17.4
579.016	17.38
579.21	17.46
579.405	17.28
579.6	17.72
579.794	17.62
579.989	17.72
580.183	17.77
580.378	17.94
580.572	18.1
580.766	18.19
580.961	18.23
581.155	18.38
581.35	18.42
581.544	18.57
581.738	18.37
581.933	18.5
582.127	18.21
582.321	18
582.516	18.13
582.71	18.26
582.904	18.02
583.099	18.19
583.293	18.02
583.487	17.84
583.681	17.91
583.875	17.63
584.07	17.82
584.264	17.69
584.458	18.07
584.652	17.8
584.846	17.78
585.04	17.81
585.234	17.79
585.428	18
585.623	18.02
585.817	18.04
586.011	18.32
586.205	18.03
586.399	18.16
586.593	17.98
586.787	18.11
586.981	17.83
587.174	18.02
587.368	18.23
587.562	17.97
587.756	18.05
587.95	18.08
588.144	18.2
588.338	18.61
588.532	18.6
588.725	18.54
588.919	18.64
589.113	18.74
589.307	18.61
589.501	18.49
589.694	18.65
589.888	18.55
590.082	18.79
590.275	18.76
590.469	18.49
590.663	18.71
590.856	18.86
591.05	18.94
591.244	19.04
591.437	19.28
591.631	19.31
591.824	19.28
592.018	19.25
592.212	19.18
592.405	19.43
592.599	19.47
592.792	19.55
592.986	19.6
593.179	19.44
593.372	19.85
593.566	19.63
593.759	19.82
593.953	20.08
594.146	20.16
594.339	20.37
594.533	20.23
594.726	20.35
594.92	20.31
595.113	20.21
595.306	20.4
595.499	20.34
595.693	20.29
595.886	20.13
596.079	20.11
596.272	20.33
596.466	20.15
596.659	20.19
596.852	20.11
597.045	20.15
597.238	20.38
597.431	20.3
597.624	19.96
597.818	20.18
598.011	20.25
598.204	20.14
598.397	20.05
598.59	20.1
598.783	20
598.976	20.13
599.169	20.26
599.362	19.99
599.555	20.24
599.748	20.44
599.941	20.43
600.134	20.27
600.326	20.47
600.519	20.58
600.712	20.8
600.905	21.02
601.098	21.11
601.291	20.72
601.483	20.98
601.676	20.68
601.869	20.78
602.062	20.83
602.255	20.93
602.447	20.91
602.64	20.77
602.833	20.93
603.025	20.71
603.218	20.68
603.411	20.93
603.603	20.9
603.796	20.99
603.989	20.86
604.181	20.79
604.374	20.75
604.566	20.76
604.759	20.81
604.951	20.45
605.144	20.34
605.336	20.34
605.529	20.26
605.721	20.35
605.914	20.16
606.106	20.14
606.299	20.3
606.491	20.6
606.683	20.43
606.876	20.56
607.068	20.92
607.26	21.13
607.453	21.01
607.645	21.01
607.837	20.95
608.03	21.17
608.222	21.37
608.414	21.05
608.606	20.7
608.799	21
608.991	20.75
609.183	20.62
609.375	20.69
609.567	20.77
609.759	21.11
609.952	21.06
610.144	21.37
610.336	21.07
610.528	21.26
610.72	21.46
610.912	21.18
611.104	21.37
611.296	21.39
611.488	21.49
611.68	21.57
611.872	21.12
612.064	21.19
612.256	20.88
612.448	21.23
612.64	21.28
612.832	21.33
613.023	21.53
613.215	21.59
613.407	21.49
613.599	21.39
613.791	21.15
613.983	21.36
614.174	21.1
614.366	21.2
614.558	21.25
614.75	21.35
614.941	21.26
615.133	21.22
615.325	21.23
615.516	20.87
615.708	21.09
615.9	21.3
616.091	20.92
616.283	21.12
616.475	20.87
616.666	20.56
616.858	20.53
617.049	20.54
617.241	20.65
617.432	20.53
617.624	20.72
617.815	20.21
618.007	20.05
618.198	20.32
618.39	20.44
618.581	20.52
618.773	20.88
618.964	20.77
619.155	21.03
619.347	21.03
619.538	21.19
619.729	21.2
619.921	21.52
620.112	21.64
620.303	21.66
620.494	21.48
620.686	21.58
620.877	21.57
621.068	21.66
621.259	21.37
621.451	21.21
621.642	21.08
621.833	21.29
622.024	21.27
622.215	21.44
622.406	21.43
622.597	21.38
622.788	21.36
622.98	21.03
623.171	21.01
623.362	20.71
623.553	21
623.744	20.95
623.935	20.84
624.126	21.04
624.317	20.93
624.508	20.87
624.698	20.94
624.889	21.12
625.08	21.39
625.271	21.41
625.462	22
625.653	21.58
625.844	21.81
626.034	21.98
626.225	21.71
626.416	21.53
626.607	21.64
626.798	21.79
626.988	21.6
627.179	21.71
627.37	21.91
627.56	21.55
627.751	21.86
627.942	21.93
628.132	21.82
628.323	21.9
628.514	22.08
628.704	22.08
628.895	22.07
629.085	22.1
629.276	22.22
629.466	22.03
629.657	22.04
629.847	21.68
630.038	21.58
630.228	21.82
630.419	21.84
630.609	21.85
630.8	21.77
630.99	21.57
631.181	21.71
631.371	21.2
631.561	21.1
631.752	21.56
631.942	22.01
632.132	21.97
632.323	21.61
632.513	21.91
632.703	22
632.893	22.29
633.084	22.4
633.274	22.37
633.464	22.68
633.654	22.65
633.844	22.63
634.034	22.71
634.225	22.9
634.415	22.9
634.605	22.7
634.795	22.56
634.985	22.19
635.175	21.88
635.365	21.95
635.555	21.4
635.745	21.44
635.935	21.2
636.125	21.09
636.315	20.77
636.505	20.97
636.695	20.98
636.885	20.88
637.075	21.02
637.265	21.5
637.455	21.24
637.644	21.59
637.834	21.54
638.024	21.4
638.214	21.36
638.404	21.53
638.593	21.4
638.783	21.41
638.973	21.52
639.163	21.57
639.352	21.59
639.542	21.31
639.732	21.13
639.921	21.2
640.111	21.72
640.301	21.8
640.49	21.76
640.68	21.96
640.87	21.65
641.059	21.67
641.249	21.51
641.438	21.57
641.628	21.99
641.817	22.56
642.007	22.39
642.196	21.87
642.386	21.82
642.575	22.01
642.764	21.81
642.954	22
643.143	21.83
643.333	22.29
643.522	21.82
643.711	21.79
643.901	21.37
644.09	21.66
644.279	21.78
644.469	21.39
644.658	21.02
644.847	20.98
645.036	21.24
645.226	21.59
645.415	21.86
645.604	22.03
645.793	21.9
645.982	21.91
646.171	22.07
646.361	22.41
646.55	22.94
646.739	23.03
646.928	23.33
647.117	23.53
647.306	23.38
647.495	23.01
647.684	23
647.873	23.27
648.062	23.49
648.251	23.34
648.44	23.25
648.629	23.14
648.818	23.09
649.007	22.69
649.196	22.22
649.384	22.33
649.573	22.33
649.762	22.49
649.951	22.47
650.14	22.1
650.328	22.21
650.517	22.15
650.706	21.88
650.895	22.32
651.083	22.52
651.272	22.52
651.461	22.04
651.65	21.69
651.838	21.48
652.027	21.46
652.216	21.94
652.404	21.67
652.593	21.65
652.781	21.75
652.97	20.76
653.158	20.99
653.347	20.85
653.535	21.17
653.724	21.26
653.912	21.34
654.101	21.26
654.289	21.85
654.478	22.12
654.666	21.58
654.855	21.55
655.043	22.14
655.231	21.59
655.42	22.05
655.608	21.92
655.796	22.02
655.985	22.45
656.173	22.06
656.361	21.2
656.55	21.24
656.738	21.7
656.926	21.94
657.114	21.89
657.302	22.12
657.491	21.95
657.679	22.1
657.867	22.05
658.055	22.1
658.243	22.21
658.431	22.25
658.619	22.02
658.807	22.24
658.996	22.13
659.184	22.55
659.372	22.43
659.56	22.18
659.748	22.4
659.936	22.66
660.124	22.55
660.311	22.77
660.499	22.83
660.687	23.09
660.875	22.58
661.063	22.72
661.251	22.61
661.439	22.75
661.627	23.05
661.814	23.09
662.002	23.08
662.19	23.2
662.378	23.15
662.565	23.23
662.753	23
662.941	23.28
663.129	23.67
663.316	23.37
663.504	23.28
663.692	23.37
663.879	23.35
664.067	23.26
664.254	23.11
664.442	23.49
664.63	23.37
664.817	23.22
665.005	23.38
665.192	23.14
665.38	23.61
665.567	24.19
665.755	24.26
665.942	24.09
666.13	23.78
666.317	23.51
666.504	23.39
666.692	23.5
666.879	24.07
667.067	24.16
667.254	23.82
667.441	23.65
667.629	23.05
667.816	23.1
668.003	23.28
668.19	23
668.378	23.19
668.565	22.87
668.752	22.89
668.939	22.62
669.127	22.51
669.314	22.47
669.501	22.24
669.688	22.67
669.875	22.33
670.062	22.34
670.249	23
670.436	23.15
670.623	23.51
670.81	23.18
670.997	22.99
671.184	22.89
671.371	23.2
671.558	23.94
671.745	23.91
671.932	24.25
672.119	23.82
672.306	23.88
672.493	23.74
672.68	23.78
672.867	24.36
673.054	24.69
673.24	24.73
673.427	24.2
673.614	23.16
673.801	22.95
673.988	22.96
674.174	23.66
674.361	23.53
674.548	23.78
674.734	23.6
674.921	23.23
675.108	23.13
675.294	23.07
675.481	23.36
675.668	23.66
675.854	23.82
676.041	23.4
676.227	23.51
676.414	23.3
676.601	23.26
676.787	23.17
676.974	22.87
677.16	23.12
677.347	23.08
677.533	22.96
677.719	22.98
677.906	22.79
678.092	23.33
678.279	22.52
678.465	22.8
678.651	22.73
678.838	22.78
679.024	23.35
679.21	22.87
679.397	23.09
679.583	22.83
679.769	22.69
679.955	23.21
680.142	22.9
680.328	23.23
680.514	23.17
680.7	22.91
680.886	23.18
681.073	22.76
681.259	23.05
681.445	22.92
681.631	23.41
681.817	23.5
682.003	23.31
682.189	23.49
682.375	23.21
682.561	23.3
682.747	23.6
682.933	23.39
683.119	23.81
683.305	24.13
683.491	23.84
683.677	23.41
683.863	23.5
684.049	22.98
684.235	22.66
684.42	23.09
684.606	22.52
684.792	22.36
684.978	21.95
685.164	22
685.349	21.72
685.535	22.24
685.721	22.56
685.907	23
686.092	23.12
686.278	23.42
686.464	23.77
686.649	23.95
686.835	23.68
687.021	23.9
687.206	24.27
687.392	23.85
687.577	24.55
687.763	24.32
687.948	24.26
688.134	24.49
688.319	24.62
688.505	24.72
688.69	25.64
688.876	25.99
689.061	25.99
689.247	25.32
689.432	25.95
689.618	24.81
689.803	24.91
689.988	25.35
690.174	25.32
690.359	25.27
690.544	24.59
690.73	24.11
690.915	23.6
691.1	23.94
691.285	23.85
691.471	23.11
691.656	23.38
691.841	24.1
692.026	23.14
692.211	23.26
692.396	22.82
692.582	23.11
692.767	23.82
692.952	23.92
693.137	23.77
693.322	23.61
693.507	24.28
693.692	24.4
693.877	23.46
694.062	23.37
694.247	23.19
694.432	24
694.617	24.16
694.802	23.73
694.987	24.44
695.172	24.01
695.357	24.24
695.541	24.51
695.726	24.09
695.911	24.57
696.096	24.02
696.281	24.22
696.466	23.57
696.65	22.91
696.835	22.73
697.02	22.05
697.204	22.09
697.389	22.09
697.574	22.16
697.759	22.83
697.943	22.74
698.128	23.42
698.312	23.42
698.497	23.59
698.682	23.73
698.866	23.68
699.051	24.56
699.235	24.28
699.42	24.14
699.604	24.29
699.789	24.13
699.973	23.87
700.158	23.89
700.342	23.71
700.527	24.06
700.711	23.8
700.895	22.98
701.08	22.92
701.264	23.26
701.448	23.01
701.633	23.18
701.817	22.97
702.001	23.1
702.186	22.79
702.37	23.12
702.554	22.24
702.738	22.66
702.923	23.97
703.107	22.72
703.291	23.05
703.475	23.31
703.659	22.15
703.843	22.95
704.027	22.41
704.212	22.92
704.396	22.86
704.58	22.93
704.764	22.43
704.948	21.54
705.132	22
705.316	22.03
705.5	22.42
705.684	22.91
705.868	22.02
706.052	22.73
706.235	22.25
706.419	21.46
706.603	21.72
706.787	23.58
706.971	24.31
707.155	24.28
707.339	24.18
707.522	24.89
707.706	24.59
707.89	24.81
708.074	25.38
708.257	25.95
708.441	26.91
708.625	26.36
708.808	25.22
708.992	25.36
709.176	24.83
709.359	24.75
709.543	24.06
709.727	24.05
709.91	23.79
710.094	23.27
710.277	23.75
710.461	23.74
710.644	24.84
710.828	25.15
711.011	24.49
711.195	24.9
711.378	24.79
711.562	24.95
711.745	24.44
711.928	24.59
712.112	24.77
712.295	23.77
712.478	23.2
712.662	22.95
712.845	23.26
713.028	23.98
713.212	23.51
713.395	23.87
713.578	23.9
713.761	24.3
713.945	24.96
714.128	25.04
714.311	25.27
714.494	25.75
714.677	25.77
714.86	25.73
715.043	25.88
715.227	26.46
715.41	26.98
715.593	27.49
715.776	27.27
715.959	26.69
716.142	26.38
716.325	25.9
716.508	25.85
716.691	25.84
716.874	25.24
717.057	24.76
717.239	24.86
717.422	24.07
717.605	23.03
717.788	23.22
717.971	23.51
718.154	24.11
718.337	24.71
718.519	24.17
718.702	23.12
718.885	22.5
719.068	22.16
719.25	22.1
719.433	22.3
719.616	22.7
719.798	21.9
719.981	21.6
720.164	21.29
720.346	20.97
720.529	21.15
720.712	21.82
720.894	22.71
721.077	23
721.259	22.21
721.442	21
721.624	21.01
721.807	22.05
721.989	21.82
722.172	21.99
722.354	22.07
722.537	22.46
722.719	21.76
722.901	21.34
723.084	22.56
723.266	23.6
723.448	24.79
723.631	24.14
723.813	24.31
723.995	24.99
724.178	24.73
724.36	24.95
724.542	25.06
724.724	25.96
724.907	26.17
725.089	24.85
725.271	23.71
725.453	23.73
725.635	23.99
725.817	23.8
725.999	23.56
726.181	22.96
726.364	22.57
726.546	22.32
726.728	21.95
726.91	22.28
727.092	22.6
727.274	23.65
727.456	23.76
727.638	23.34
727.819	23.85
728.001	23.78
728.183	24.9
728.365	24.76
728.547	24.79
728.729	25.3
728.911	24.71
729.093	24.11
729.274	22.46
729.456	22.16
729.638	23.66
729.82	22.95
730.001	22.56
730.183	22.35
730.365	23.24
730.546	22.63
730.728	22.82
730.91	23.02
731.091	23.09
731.273	24.28
731.455	24.69
731.636	24.73
731.818	24.78
731.999	24.62
732.181	24.31
732.362	23.5
732.544	24.24
732.725	22.59
732.907	23.87
733.088	23.99
733.27	24.08
733.451	22.89
733.633	22.64
733.814	23.4
733.995	24.17
734.177	24.39
734.358	24.66
734.539	24.39
734.721	24.49
734.902	23.17
735.083	23.38
735.264	24.13
735.446	26.17
735.627	25.82
735.808	25.16
735.989	24.22
736.17	24.34
736.351	24.39
736.533	24.9
736.714	24.83
736.895	24.1
737.076	23.84
737.257	22.5
737.438	21.6
737.619	19.85
737.8	20.17
737.981	21.25
738.162	20.86
738.343	21.59
738.524	21.06
738.705	22.71
738.886	23.65
739.067	25.19
739.247	26.21
739.428	26.97
739.609	28.71
739.79	27.71
739.971	27.59
740.151	27.94
740.332	26.29
740.513	25.77
740.694	25.95
740.874	25.99
741.055	25.54
741.236	25.55
741.417	24.32
741.597	24.15
741.778	25.53
741.958	24.94
742.139	24.78
742.32	26.06
742.5	25.65
742.681	25.29
742.861	24.82
743.042	24.81
743.222	24.23
743.403	23.28
743.583	23.4
743.764	22.09
743.944	22.4
744.124	21.24
744.305	20.99
744.485	21.86
744.666	20.85
744.846	20.15
745.026	19.23
745.207	19.6
745.387	21.87
745.567	22.09
745.747	22.81
745.928	23.15
746.108	23.2
746.288	22.93
746.468	22.22
746.648	23.37
746.829	24.27
747.009	24.02
747.189	23.59
747.369	23.07
747.549	22.25
747.729	22.91
747.909	23.04
748.089	24.41
748.269	25.38
748.449	26.74
748.629	26.48
748.809	26.63
748.989	25.99
749.169	25.52
749.349	26.12
749.529	27.01
749.709	25.73
749.889	25.77
750.068	25.82
750.248	25.52
750.428	25.44
750.608	25.15
750.788	23.86
750.967	25.04
751.147	25.51
751.327	24.23
751.507	24.7
751.686	24.77
751.866	23.72
752.046	23.29
752.225	23.11
752.405	22.88
752.585	22.99
752.764	23.4
752.944	23.22
753.123	22.77
753.303	23.35
753.482	22.53
753.662	21.44
753.841	22.4
754.021	22.5
754.2	23.11
754.38	23.56
754.559	24.02
754.739	25.21
754.918	24.56
755.097	25.64
755.277	24.77
755.456	24.94
755.635	27.1
755.815	25.86
755.994	26.96
756.173	25.56
756.352	24.14
756.532	24.15
756.711	25.02
756.89	25.76
757.069	24.05
757.248	24.47
757.427	23
757.607	22.09
757.786	23.46
757.965	22.55
758.144	22.71
758.323	23.91
758.502	23.63
758.681	22.2
758.86	22.47
759.039	23.35
759.218	23.27
759.397	24.39
759.576	25.34
759.755	24.84
759.934	23.54
760.113	24.81
760.291	25.47
760.47	25.05
760.649	25.84
760.828	24.48
761.007	24.3
761.186	24.73
761.364	25.82
761.543	24.87
761.722	25.59
761.901	26.98
762.079	27.49
762.258	25.56
762.437	27.46
762.615	26.34
762.794	26.92
762.972	26.64
763.151	26.72
763.33	25.52
763.508	26.54
763.687	26.85
763.865	26.38
764.044	25.29
764.222	26.25
764.401	24.38
764.579	24
764.758	23.7
764.936	23.15
765.114	23.13
765.293	24.03
765.471	23.33
765.65	23.05
765.828	23.07
766.006	22.43
766.184	22.01
766.363	23.6
766.541	24.76
766.719	25.89
766.898	28.74
767.076	28.85
767.254	28.49
767.432	28.35
767.61	26.12
767.788	26.15
767.967	27.09
768.145	25.25
768.323	23.88
768.501	22.2
768.679	22.08
768.857	21.22
769.035	20.61
769.213	21.17
769.391	21.09
769.569	24.65
769.747	24.93
769.925	24.91
770.103	27.86
770.281	28.81
770.459	30.24
770.636	31.41
770.814	31.04
770.992	31.76
771.17	30.96
771.348	30.28
771.525	27.61
771.703	27.01
771.881	26.72
772.059	24.8
772.236	25.27
772.414	27.08
772.592	24.2
772.769	24.43
772.947	23.61
773.125	20.77
773.302	21.11
773.48	21.06
773.657	22.7
773.835	23.54
774.013	24.95
774.19	23.22
774.368	21.66
774.545	23.63
774.723	22.54
774.9	24.96
775.077	27.76
775.255	27.92
775.432	28.72
775.61	28.52
775.787	31.13
775.964	30.63
776.142	29.5
776.319	27.81
776.496	27.55
776.674	28.21
776.851	26.48
777.028	27.05
777.205	28.9
777.382	28.91
777.56	29.31
777.737	25.08
777.914	26.93
778.091	30.1
778.268	31.67
778.445	31.36
778.622	29.81
778.8	30.9
778.977	28.45
779.154	25.81
779.331	25.33
779.508	24.69
779.685	23.69
779.862	22.82
780.038	21.47
780.215	21.88
780.392	21.81
780.569	22.51
780.746	20.34
780.923	23.78
781.1	25.66
781.277	25.68
781.453	25.08
781.63	27.41
781.807	26.19
781.984	24.56
782.16	24.26
782.337	23.64
782.514	24.47
782.691	24.39
782.867	23.65
783.044	21.66
783.221	22.06
783.397	21.82
783.574	20.61
783.75	18.76
783.927	20.15
784.103	19.09
784.28	18.77
784.456	18.56
784.633	18.58
784.809	17.91
784.986	15.37
785.162	15.42
785.339	15.92
785.515	17.93
785.692	21.83
785.868	22.37
786.044	23.31
786.221	25.42
786.397	24.57
786.573	26.2
786.749	26.13
786.926	29.08
787.102	27.95
787.278	27.86
787.454	27.64
787.631	27.42
787.807	28.14
787.983	29.76
788.159	28.83
788.335	26.14
788.511	26.85
788.687	26.44
788.863	26.44
789.039	26.8
789.216	26.98
789.392	26.86
789.568	24.55
789.744	22.33
789.919	18.84
790.095	18.03
790.271	22.23
790.447	21.49
790.623	23.3
790.799	25.53
790.975	26.33
791.151	27.1
791.327	26.92
791.502	28.32
791.678	30.52
791.854	32.16
792.03	33.97
792.205	30.16
792.381	30.52
792.557	28.84
792.733	29.98
792.908	29.2
793.084	30.42
793.259	27.23
793.435	25.93
793.611	26.4
793.786	25.78
793.962	25.49
794.137	29.43
794.313	28.12
794.488	28.77
794.664	24.16
794.839	24.16
795.015	21.28
795.19	25.29
795.366	27.58
795.541	27.11
795.716	26.03
795.892	25.64
796.067	23.42
796.242	24.1
796.418	24.03
796.593	25.24
796.768	27.47
796.944	26.77
797.119	25.72
797.294	25.24
797.469	28.09
797.644	31.04
797.82	33.21
797.995	32.59
798.17	35.51
798.345	34.04
798.52	34.85
798.695	33.34
798.87	38.01
799.045	37.35
799.22	36.62
799.395	31.63
799.57	32.03
799.745	32.08
799.92	32.84
800.095	28.62
800.27	29
800.445	29.22
800.62	29.74
800.795	25.19
800.97	22.78
801.145	24.16
801.319	27.3
801.494	22.75
801.669	19.83
801.844	19.58
802.018	17.44
802.193	15.19
802.368	14.72
802.543	10.66
802.717	11.33
802.892	15.1
803.067	16.98
803.241	14.22
803.416	16.9
803.59	19.37
803.765	19.02
803.94	21.69
804.114	24.18
804.289	24.47
804.463	28.7
804.638	28.29
804.812	25.2
804.986	23.32
805.161	21.4
805.335	16.14
805.51	16.67
805.684	23.21
805.858	22.38
806.033	21.91
806.207	22.76
806.381	19.63
806.556	18.55
806.73	20.48
806.904	20.51
807.078	22.28
807.253	27.8
807.427	28.11
807.601	23.44
807.775	28.45
807.949	28.49
808.123	29.09
808.298	28.8
808.472	26.99
808.646	28.57
808.82	26.98
808.994	27.9
809.168	29.04
809.342	25.77
809.516	25.55
809.69	24.16
809.864	24.1
810.038	19.26
810.212	19.53
810.385	23.04
810.559	19.23
810.733	19.23
810.907	15.56
811.081	15.48
811.255	17.65
811.428	17.62
811.602	12.17
811.776	14.27
811.95	19.93
812.123	22.13
812.297	20.27
812.471	26.65
812.644	26.18
812.818	30.89
812.992	28.32
813.165	27.46
813.339	26.9
813.512	26.35
813.686	24.41
813.86	22.76
814.033	22.67
814.207	24.47
814.38	16.67
814.554	17.56
814.727	13.78
814.9	14.13
815.074	9.31
815.247	11.23
815.421	12.2
815.594	16.8
815.767	15.55
815.941	12.15
816.114	3
816.287	8.28
816.46	5.63
816.634	5.78
816.807	5.88
816.98	13.57
817.153	12.18
817.327	14.08
817.5	11.04
817.673	10.1
817.846	14.28
818.019	16.28
818.192	11.93
818.365	17.46
818.538	19.32
818.711	22.01
818.884	16.08
819.057	16.34
819.23	13.55
819.403	16.43
819.576	18.7
819.749	15.22
819.922	20.14
820.095	21.73
820.268	24.16
820.441	24.2
820.614	23.26
820.786	24.49
820.959	25.33
821.132	28.02
821.305	27.12
821.477	26.83
821.65	29.19
821.823	28.49
821.996	30.41
822.168	29.83
822.341	29.39
822.514	29.91
822.686	30.57
822.859	30.65
823.031	30.02
823.204	30.19
823.376	30.41
823.549	29.15
823.722	28.82
823.894	27.76
824.067	27.87
824.239	27.9
824.411	27.74
824.584	27.33
824.756	26.85
824.929	26.95
825.101	26.77
825.273	26.25
825.446	26.97
825.618	27.12
825.79	28.09
825.963	26.79
826.135	27.21
826.307	27.88
826.479	26
826.652	25.15
826.824	25.48
826.996	25.48
827.168	26.49
827.34	26.64
827.512	27.06
827.684	26.13
827.856	26.52
828.029	26.62
828.201	24.85
828.373	26.52
828.545	26.05
828.717	25.44
828.889	26.27
829.061	25.66
829.232	25.36
829.404	27.26
829.576	26.47
829.748	24.86
829.92	23.38
830.092	24.56
830.264	22.36
830.436	24.75
830.607	27.01
830.779	25.42
830.951	23.25
831.123	23.14
831.294	22.6
831.466	27.86
831.638	30.76
831.809	34.96
831.981	33.91
832.153	36.14
832.324	36.5
832.496	34.46
832.667	34.16
832.839	32.95
833.011	33.11
833.182	29.56
833.354	24.29
833.525	24.47
833.697	23.04
833.868	22.47
834.039	24.83
834.211	26.7
834.382	28.44
834.554	27.94
834.725	29.17
834.896	29.33
835.068	31.66
835.239	30.42
835.41	30.83
835.581	30.35
835.753	31.26
835.924	32.17
836.095	30.8
836.266	29.07
836.438	27.85
836.609	27.66
836.78	28.4
836.951	26.4
837.122	31.89
837.293	31.08
837.464	30.08
837.635	27.32
837.806	24.13
837.977	18.03
838.148	18.45
838.319	23.6
838.49	25.8
838.661	19.09
838.832	18.09
839.003	14.76
839.174	7.56
839.345	13.99
839.516	22.66
839.687	21.01
839.857	23.25
840.028	15.84
840.199	16.56
840.37	19.04
840.54	24.56
840.711	20.47
840.882	21.47
841.053	19.98
841.223	20.01
841.394	20.09
841.564	15.69
841.735	14.89
841.906	18.46
842.076	13.27
842.247	12.17
842.417	11.76
842.588	13.72
842.758	10.22
842.929	14.19
843.099	7.87
843.27	2.11
843.44	-0.94
843.611	-1.85
843.781	-0.88
843.951	-10.52
844.122	-17.75
844.292	-34.77
844.462	-18.32
844.633	-13.97
844.803	-13.18
844.973	-13.64
845.144	-1.81
845.314	11.47
845.484	20.1
845.654	16.59
845.824	17.01
845.995	18.87
846.165	21.76
846.335	6.22
846.505	5.13
846.675	5.34
846.845	2.26
847.015	2.02
847.185	-0.33
847.355	-1.93
847.525	1.36
847.695	19.77
847.865	10.58
848.035	10.67
848.205	4.71
848.375	9.89
848.545	-7.37
848.715	-6.84
848.884	-11.37
849.054	-13.16
849.224	-2.39
849.394	7.67
849.564	0.2
849.733	13.49
849.903	9.92
850.073	27.68
850.243	24.3
850.412	57.99
850.582	68.14
850.752	67.85
850.921	55.58
851.091	51.62
851.26	27.59
851.43	10.49
851.599	3.53
851.769	22.35
851.939	40.13
852.108	27.92
852.278	29.2
852.447	23.93
852.616	34.76
852.786	28.94
852.955	26.69
853.125	27.68
853.294	22.52
853.463	31.57
853.633	33.11
853.802	27.6
853.971	41.05
854.141	28.68
854.31	27.11
854.479	28.2
854.648	43.23
854.818	52.48
854.987	49.12
855.156	54.4
855.325	49.96
855.494	41.77
855.663	42.39
855.832	24.65
856.001	42.66
856.171	35
856.34	31.43
856.509	12.78
856.678	4.96
856.847	2.28
857.016	13.88
857.185	-13.95
857.353	-37.17
857.522	-49.38
857.691	-30.84
857.86	-144.6
858.029	-238.12
858.198	-726.12
858.367	-266.31
858.535	-273.19
858.704	-128.54
858.873	-89.41
859.042	-29.45
859.21	13.45
859.379	16.42
859.548	21.1
859.717	24.42
859.885	49.07
860.054	91.6
860.222	89.64
860.391	91.91
860.56	66.18
860.728	79.58
860.897	76.36
861.065	64.27
861.234	69.31
861.402	53.61
861.571	68.19
861.739	67.24
861.908	44.08
862.076	59.26
862.244	11.57
862.413	31.96
862.581	35.04
862.749	15.43
862.918	16.59
863.086	17.21
863.254	43.77
863.423	15.72
863.591	20.56
863.759	42.94
863.927	33.61
864.096	36.03
864.264	36.58
864.432	24.46
864.6	23.91
864.768	22.81
864.936	7.63
865.104	-15.48
865.272	1.61
865.44	-14.85
865.608	-51.82
865.776	-108.41
865.944	-16.64
866.112	-70.32
866.28	-71.8
866.448	-37.79
866.616	-64.67
866.784	-66.85
866.952	-77.85
867.12	-84.28
867.288	-39.78
867.455	-81.68
867.623	-62.29
867.791	-89.29
867.959	-114.3
868.127	-106.93
868.294	-79.85
868.462	-97.3
868.63	-0.41
868.797	31.92
868.965	39.24
869.133	21.34
869.3	46.37
869.468	38.09
869.636	31.54
869.803	11.1
869.971	49.94
870.138	18.56
870.306	-6.39
870.473	-95.82
870.641	-178.17
870.808	-174.13
870.975	-78.47
871.143	-93.16
871.31	-78.04
871.478	-68.88
871.645	-35.73
871.812	-46.37
871.98	-3.62
872.147	31.72
872.314	35.01
872.482	34.17
872.649	41.95
872.816	51.71
872.983	63.16
873.15	54.21
873.318	64.93
873.485	81.98
873.652	91.01
873.819	64
873.986	53.74
874.153	60.81
874.32	60.01
874.487	48.22
874.654	18.88
874.821	7.7
874.988	10.26
875.155	7.38
875.322	6.34
875.489	6.71
875.656	-11.35
875.823	-21.4
875.99	-12.59
876.157	-43.75
876.324	-74.68
876.49	-39.71
876.657	-64.33
876.824	-113.41
876.991	-230.33
877.157	-130.67
877.324	-415.76
877.491	-247.02
877.658	-286.84
877.824	-111.97
877.991	-54.93
878.157	-20.79
878.324	-13.68
878.491	-2.6
878.657	6.25
878.824	30.44
878.99	45.53
879.157	45.5
879.323	64.8
879.49	60.24
879.656	59.42
879.823	63.7
879.989	58.18
880.156	67.14
880.322	71.85
880.488	69.69
880.655	52.64
880.821	53.22
880.987	56.49
881.154	33.93
881.32	34.08
881.486	31.94
881.652	35.07
881.819	32.55
881.985	27.05
882.151	32.15
882.317	31.18
882.483	39.05
882.649	34.63
882.816	34.54
882.982	37.14
883.148	35.2
883.314	36.57
883.48	35.17
883.646	35.37
883.812	36.5
883.978	35.5
884.144	37.68
884.31	36.6
884.476	35.63
884.642	33.74
884.807	35.68
884.973	36.24
885.139	37.97
885.305	38.42
885.471	36.3
885.637	33.63
885.802	33.99
885.968	32.72
886.134	31.75
886.3	33.9
886.465	35.03
886.631	34.64
886.797	39.56
886.962	35.5
887.128	30.88
887.293	32.46
887.459	35.37
887.625	22.99
887.79	11.72
887.956	1.43
888.121	-12.89
888.287	-10.92
888.452	-37.62
888.618	-114.12
888.783	-216.78
