Data from 2938048_Reflection_2.txt Node
Date: Sun Jul 12 14:20:36 EDT 2015
User: robert
Spectrometer: USB4E03001
Autoset integration time: false
Trigger mode: 4
Integration Time (sec): 1.000000E-1
Scans to average: 10
Electric dark correction enabled: true
Nonlinearity correction enabled: false
Boxcar width: 5
Stray light correction enabled: false
XAxis mode: Wavelengths
Stop averaging: false
Number of Pixels in Spectrum: 3648
>>>>>Begin Spectral Data<<<<<
177.566	-109.68
177.785	-1243.92
178.005	-12.46
178.225	-31.41
178.445	44.58
178.665	264.94
178.885	-81.48
179.105	400
179.324	-6.64
179.544	25.84
179.764	33.58
179.984	23.45
180.204	20.77
180.423	84.79
180.643	110.66
180.863	127.44
181.083	127.26
181.302	87.87
181.522	106.3
181.742	177.19
181.961	160.08
182.181	126.9
182.401	164.14
182.621	239.15
182.84	216.74
183.06	123.27
183.279	177.26
183.499	208.54
183.719	-102.77
183.938	-446.03
184.158	-44.09
184.377	579.06
184.597	223.15
184.816	248.26
185.036	-905.86
185.256	-202.85
185.475	-125.07
185.695	-88.22
185.914	-56.84
186.134	-55.75
186.353	-55.03
186.572	-51.48
186.792	198.59
187.011	205.09
187.231	183.24
187.45	269.75
187.67	381.69
187.889	1696.68
188.108	1152.01
188.328	440.28
188.547	183.67
188.766	152.05
188.986	187.69
189.205	164.53
189.424	172.6
189.644	165.37
189.863	112.37
190.082	78.93
190.302	95.89
190.521	48.39
190.74	74.06
190.959	35.76
191.178	6.67
191.398	-185.8
191.617	-93.97
191.836	-23.72
192.055	-15.93
192.274	6.36
192.494	31.39
192.713	5.92
192.932	9.2
193.151	31.81
193.37	38.16
193.589	26.9
193.808	11.78
194.027	-54.58
194.246	-70.05
194.465	-60.79
194.685	-106.9
194.904	-86.06
195.123	-34.35
195.342	-965.99
195.561	-49.53
195.78	50.35
195.999	96.17
196.218	132
196.436	150.51
196.655	142.03
196.874	97.35
197.093	79.5
197.312	47.6
197.531	35.01
197.75	53.17
197.969	35.23
198.188	37.49
198.407	24.74
198.625	14.52
198.844	20.13
199.063	-31.76
199.282	-348.48
199.501	-1129.05
199.719	211.05
199.938	-796
200.157	920
200.376	-68.23
200.594	-472.11
200.813	-467.23
201.032	273
201.251	212.04
201.469	266.76
201.688	-1516.06
201.907	-196.79
202.125	-100.13
202.344	-118.9
202.563	31.68
202.781	47.88
203	37
203.218	35.88
203.437	50.14
203.656	48.02
203.874	47.73
204.093	43.76
204.311	50.16
204.53	61.22
204.748	66.16
204.967	41.41
205.185	0.71
205.404	13.65
205.622	14.78
205.841	12.77
206.059	55.73
206.278	42.78
206.496	51.33
206.715	55.78
206.933	79.1
207.151	66.08
207.37	64.77
207.588	356.67
207.806	880.21
208.025	280.63
208.243	477.76
208.461	-84.46
208.68	-178.77
208.898	-368.64
209.116	-124.58
209.335	87.84
209.553	80.83
209.771	73.65
209.989	-232.43
210.208	172.35
210.426	128.77
210.644	163.45
210.862	1379.45
211.081	-885.79
211.299	-169.72
211.517	-38.67
211.735	9.84
211.953	0.76
212.171	35.73
212.39	12.55
212.608	59.27
212.826	67.07
213.044	57.42
213.262	46.56
213.48	39.29
213.698	37.11
213.916	45.07
214.134	60.61
214.352	74.44
214.57	67.87
214.788	87.7
215.006	37.01
215.224	64.43
215.442	83.06
215.66	76.09
215.878	119.03
216.096	219.89
216.314	120.51
216.532	56.98
216.75	48.95
216.968	51.36
217.185	23.79
217.403	29.12
217.621	6.01
217.839	14.5
218.057	55.58
218.275	37.68
218.492	25.98
218.71	48.36
218.928	60.06
219.146	69.2
219.363	57.11
219.581	62.53
219.799	76.57
220.017	65.49
220.234	75.77
220.452	61.14
220.67	91.97
220.887	118.78
221.105	126.76
221.323	122.72
221.54	97.69
221.758	67.37
221.976	60.56
222.193	38.98
222.411	36.77
222.629	33.08
222.846	39.17
223.064	29.02
223.281	9.73
223.499	4.35
223.716	-18.23
223.934	-29.53
224.151	-35.87
224.369	-6.44
224.586	30.7
224.804	12.57
225.021	30.61
225.239	-1.6
225.456	-24.28
225.674	13.17
225.891	1.63
226.108	3.85
226.326	7.56
226.543	13.17
226.76	-4.65
226.978	-4.02
227.195	4.3
227.413	-7.77
227.63	8.24
227.847	8.61
228.064	9.64
228.282	14.14
228.499	18.49
228.716	18.74
228.934	19.97
229.151	22.11
229.368	20.59
229.585	16.93
229.802	18.85
230.02	15.9
230.237	19.27
230.454	22.04
230.671	21.43
230.888	18.48
231.105	18.8
231.323	15.59
231.54	16.43
231.757	19.42
231.974	28.55
232.191	30.6
232.408	30.02
232.625	31.38
232.842	30.46
233.059	21.76
233.276	26.28
233.493	26.86
233.71	30.63
233.927	33.49
234.144	28.46
234.361	31.09
234.578	31.45
234.795	36.15
235.012	30.99
235.229	30.16
235.446	37.46
235.663	37.33
235.879	40.96
236.096	42.11
236.313	30.46
236.53	32.95
236.747	26.33
236.964	24.85
237.181	24.65
237.397	25.99
237.614	17.84
237.831	11.65
238.048	16.27
238.264	14.52
238.481	13.77
238.698	23.38
238.915	15.7
239.131	20.33
239.348	20.16
239.565	17.54
239.781	16.72
239.998	22.05
240.215	26.51
240.431	21.71
240.648	22.95
240.865	22.9
241.081	21.47
241.298	24.51
241.514	23.15
241.731	22.07
241.947	21.3
242.164	22.35
242.38	21.54
242.597	20.88
242.814	24.76
243.03	22.61
243.246	24.13
243.463	23.68
243.679	21.99
243.896	20.04
244.112	19.83
244.329	18.05
244.545	17.37
244.762	16.94
244.978	14.45
245.194	7.91
245.411	13.64
245.627	13.46
245.843	13.88
246.06	17.77
246.276	18.72
246.492	19.09
246.709	21.18
246.925	19.6
247.141	20.4
247.357	21.21
247.574	21.77
247.79	20.96
248.006	19.81
248.222	20.24
248.439	18.73
248.655	19.16
248.871	19.24
249.087	17.22
249.303	18.95
249.519	18.78
249.736	19.83
249.952	20.44
250.168	20.7
250.384	18.3
250.6	18.24
250.816	18.5
251.032	19.47
251.248	19.69
251.464	21.26
251.68	18.77
251.896	18.03
252.112	15.85
252.328	15.62
252.544	13.94
252.76	17.25
252.976	18.06
253.192	14.97
253.408	14.52
253.624	13.7
253.84	12.63
254.056	13.15
254.272	14.77
254.487	17.75
254.703	17.41
254.919	18.13
255.135	15.46
255.351	12.28
255.567	19.13
255.782	18.43
255.998	20.75
256.214	21.81
256.43	21.99
256.646	20.54
256.861	17.19
257.077	13.76
257.293	12.95
257.508	12.84
257.724	11.64
257.94	10.92
258.155	9.24
258.371	7.08
258.587	7.68
258.802	8.54
259.018	8.3
259.234	9.9
259.449	10.76
259.665	12.38
259.88	12.78
260.096	13.75
260.312	13.82
260.527	14.08
260.743	15.06
260.958	14.78
261.174	14.27
261.389	13.57
261.605	12.74
261.82	13.37
262.036	10.77
262.251	10.35
262.466	7.92
262.682	8.5
262.897	7.95
263.113	6.93
263.328	7.48
263.543	8.24
263.759	11.49
263.974	11.46
264.189	11.04
264.405	13.57
264.62	13.69
264.835	15.63
265.051	13.39
265.266	14.99
265.481	12.48
265.696	12.5
265.912	13.61
266.127	12.47
266.342	10.02
266.557	11.56
266.773	11.64
266.988	9.7
267.203	10.94
267.418	11.77
267.633	10.28
267.848	11.83
268.064	12.44
268.279	11
268.494	9.93
268.709	12.6
268.924	11.05
269.139	11.72
269.354	14.08
269.569	9.89
269.784	9.46
269.999	11.53
270.214	11.1
270.429	9.26
270.644	10.21
270.859	11.93
271.074	11.74
271.289	10.9
271.504	9.02
271.719	7.64
271.934	9.64
272.149	9.18
272.363	10.35
272.578	10.06
272.793	11.14
273.008	10.22
273.223	9.79
273.438	10.06
273.653	12
273.867	12.41
274.082	14.04
274.297	14.67
274.512	16.06
274.726	13.87
274.941	15.34
275.156	14.9
275.371	16.88
275.585	16.06
275.8	15.25
276.015	13.74
276.229	15.63
276.444	15.12
276.659	14.99
276.873	14.84
277.088	15.65
277.302	16.09
277.517	15.54
277.732	14.67
277.946	16.29
278.161	16.57
278.375	15.4
278.59	13.68
278.804	12.9
279.019	12.84
279.233	10.35
279.448	8.97
279.662	6.24
279.877	7.46
280.091	6.92
280.306	5.56
280.52	5.94
280.735	9.66
280.949	8.9
281.163	11.37
281.378	10.83
281.592	12.76
281.806	12.51
282.021	14.21
282.235	13.97
282.449	15.66
282.664	15.95
282.878	16.77
283.092	15.64
283.307	17.43
283.521	16.76
283.735	17.44
283.949	17.01
284.164	17.07
284.378	15.41
284.592	15.72
284.806	14.63
285.02	13.93
285.234	12.91
285.449	12.6
285.663	12.91
285.877	12.74
286.091	13.59
286.305	14.4
286.519	14.42
286.733	16.1
286.947	15.43
287.161	14.68
287.375	15.51
287.589	16.54
287.803	16.92
288.017	16.6
288.231	16.24
288.445	15.02
288.659	14.11
288.873	13.46
289.087	12.98
289.301	14.54
289.515	15.38
289.729	15.53
289.943	12.17
290.157	12.06
290.371	10.71
290.584	12.23
290.798	12.71
291.012	15.05
291.226	16.16
291.44	15.25
291.654	14.56
291.867	15.03
292.081	15.42
292.295	16.86
292.509	16.22
292.722	18.45
292.936	17.52
293.15	17.29
293.364	15.22
293.577	16.08
293.791	17.03
294.005	17.91
294.218	18.06
294.432	17.32
294.645	17.81
294.859	18.82
295.073	18.71
295.286	19.01
295.5	18.19
295.713	18.53
295.927	18.49
296.14	18.91
296.354	19.6
296.568	18.95
296.781	18.17
296.994	17.89
297.208	17.05
297.421	16.34
297.635	16.41
297.848	16.46
298.062	16.8
298.275	16.08
298.489	15.45
298.702	15.3
298.915	15.2
299.129	15.56
299.342	17.56
299.555	19.01
299.769	20.64
299.982	19.65
300.195	21.19
300.409	19.73
300.622	21.01
300.835	22.03
301.048	21.84
301.262	22.84
301.475	23.84
301.688	23.36
301.901	23.73
302.115	22.9
302.328	22.08
302.541	22.14
302.754	23.08
302.967	22.51
303.18	21.08
303.393	19.75
303.607	19.56
303.82	19.06
304.033	16.73
304.246	15.29
304.459	14.28
304.672	17.01
304.885	15.3
305.098	15.06
305.311	12.89
305.524	12.44
305.737	11.87
305.95	11.79
306.163	13.88
306.376	15.76
306.589	16.4
306.802	16.5
307.015	16.24
307.228	16.37
307.44	15.48
307.653	16.6
307.866	17.26
308.079	16.95
308.292	16.11
308.505	15
308.718	16.22
308.93	15.07
309.143	15.61
309.356	13.81
309.569	16.54
309.781	17.72
309.994	18.98
310.207	19.36
310.42	18.59
310.632	18.99
310.845	18.75
311.058	18.39
311.27	19.42
311.483	19.76
311.696	19.73
311.908	17.91
312.121	16.88
312.333	15.85
312.546	15.59
312.759	16.35
312.971	17.06
313.184	16.44
313.396	16.64
313.609	15.42
313.821	13.42
314.034	14.08
314.246	14.8
314.459	15
314.671	14.51
314.884	14.19
315.096	14.16
315.309	13.57
315.521	13.17
315.733	12.91
315.946	10.95
316.158	12.75
316.371	13.04
316.583	11.33
316.795	9.48
317.008	9.45
317.22	9.59
317.432	11.11
317.644	10.49
317.857	10.41
318.069	8
318.281	11.54
318.494	10.88
318.706	10.89
318.918	11.33
319.13	12.07
319.342	13.13
319.555	12.64
319.767	11.85
319.979	12.42
320.191	14.07
320.403	14.71
320.615	13.91
320.827	13.77
321.039	14.64
321.252	15.49
321.464	17.3
321.676	16.88
321.888	19.14
322.1	18.85
322.312	19.94
322.524	19.48
322.736	21.14
322.948	21.6
323.16	21.93
323.372	20.16
323.584	21.5
323.796	20.47
324.007	20.05
324.219	19.33
324.431	20.65
324.643	18.62
324.855	19.22
325.067	18.5
325.279	18.29
325.491	18.68
325.702	19.6
325.914	18.16
326.126	17.03
326.338	16.46
326.55	15.31
326.761	13.98
326.973	14.77
327.185	12.9
327.396	11.72
327.608	11.29
327.82	10.56
328.032	9.84
328.243	8.95
328.455	10.43
328.666	11.57
328.878	13.29
329.09	13.37
329.301	12.5
329.513	14.02
329.725	13.97
329.936	14.68
330.148	14.85
330.359	15.46
330.571	15.27
330.782	14.91
330.994	13.96
331.205	15.35
331.417	12.9
331.628	13.25
331.84	12.57
332.051	14.75
332.262	14.19
332.474	16.07
332.685	16.47
332.897	17.45
333.108	17.46
333.319	18.61
333.531	17.19
333.742	19.95
333.953	20.75
334.165	20.31
334.376	21
334.587	21.36
334.799	21.15
335.01	20.71
335.221	20.78
335.432	21.69
335.644	21.53
335.855	21.36
336.066	21.09
336.277	19.9
336.488	20.41
336.7	19.47
336.911	17.25
337.122	16.81
337.333	15.59
337.544	15.4
337.755	14.24
337.966	14.01
338.177	13.52
338.388	13.3
338.599	13.81
338.811	14.46
339.022	14.72
339.233	17.07
339.444	15.86
339.655	16.47
339.866	16.7
340.076	17.81
340.287	18.33
340.498	18.87
340.709	18.31
340.92	19.9
341.131	20.27
341.342	20.43
341.553	19.03
341.764	19.2
341.975	21.62
342.185	20.93
342.396	20.8
342.607	20.89
342.818	21.35
343.029	21.29
343.239	19.64
343.45	18.87
343.661	18.88
343.872	20.87
344.082	20.98
344.293	17.87
344.504	19.33
344.714	18.61
344.925	18.66
345.136	18.09
345.346	19.18
345.557	20.22
345.768	19.92
345.978	19.55
346.189	18.7
346.399	18.15
346.61	19.11
346.821	17.21
347.031	17.38
347.242	16.43
347.452	16.88
347.663	16.1
347.873	15.02
348.084	14.44
348.294	14.05
348.504	13.84
348.715	14.79
348.925	15.38
349.136	16.29
349.346	17.02
349.557	17.41
349.767	16.88
349.977	17.36
350.188	17.96
350.398	19.25
350.608	18.95
350.819	19.97
351.029	19.37
351.239	18.56
351.449	19.2
351.66	17.93
351.87	16.34
352.08	15.69
352.29	15.37
352.501	15.2
352.711	14.71
352.921	14.73
353.131	14.36
353.341	14.36
353.552	14.98
353.762	14.22
353.972	14.67
354.182	15.36
354.392	16.28
354.602	15.83
354.812	16.01
355.022	15.02
355.232	15.74
355.442	16.55
355.652	16.69
355.862	17
356.072	17.46
356.282	18.34
356.492	19.31
356.702	18.71
356.912	18.14
357.122	18.48
357.332	19.42
357.542	20.23
357.752	19.77
357.962	19.82
358.171	19.38
358.381	20.38
358.591	19.4
358.801	19.52
359.011	20.91
359.221	21.33
359.43	21.14
359.64	21.24
359.85	20.3
360.06	20.54
360.269	20.2
360.479	20.65
360.689	19.34
360.899	19.61
361.108	19.28
361.318	18.81
361.528	19.16
361.737	18.45
361.947	17.62
362.156	17.76
362.366	16.61
362.576	16.45
362.785	16.32
362.995	16.61
363.204	17.12
363.414	17.16
363.623	16.34
363.833	15.34
364.042	15.89
364.252	16.32
364.461	15.47
364.671	16.03
364.88	16.01
365.09	15.07
365.299	15.2
365.509	14.15
365.718	14.02
365.927	14.18
366.137	14.46
366.346	13.82
366.555	13.88
366.765	14.2
366.974	14.19
367.183	13.68
367.393	13.74
367.602	13.6
367.811	13.01
368.021	12.8
368.23	12.59
368.439	12.87
368.648	13.25
368.857	13.32
369.067	13.42
369.276	12.3
369.485	13.19
369.694	12.85
369.903	12.42
370.112	13.65
370.321	13.45
370.531	13.22
370.74	13.06
370.949	12.45
371.158	11.53
371.367	11.19
371.576	11.51
371.785	11.31
371.994	12.02
372.203	12.34
372.412	11.94
372.621	12.27
372.83	12.37
373.039	12.78
373.248	12.33
373.457	12.76
373.666	13.18
373.874	13.68
374.083	13.34
374.292	13.09
374.501	13.1
374.71	12.45
374.919	12.53
375.128	12.79
375.336	12.89
375.545	13.79
375.754	13.69
375.963	13.87
376.171	13.53
376.38	14.37
376.589	14.24
376.798	13.48
377.006	13.79
377.215	13.49
377.424	13.44
377.632	13.08
377.841	12.92
378.05	12.73
378.258	11.88
378.467	11.97
378.675	12.08
378.884	12.31
379.093	13
379.301	13.47
379.51	13.06
379.718	12.69
379.927	12.38
380.135	12.71
380.344	13.24
380.552	13.53
380.761	13.23
380.969	12.36
381.177	12.06
381.386	12.13
381.594	11.41
381.803	11.5
382.011	11.57
382.219	11.79
382.428	11.4
382.636	10.91
382.845	11.14
383.053	11.28
383.261	11.21
383.469	11.62
383.678	11.33
383.886	11.75
384.094	12.1
384.302	12.2
384.511	12.09
384.719	12.01
384.927	12.3
385.135	12.21
385.343	12.31
385.552	12.68
385.76	11.98
385.968	12.04
386.176	12.05
386.384	11.83
386.592	11.56
386.8	11.59
387.008	11.47
387.216	10.78
387.424	10.6
387.633	10.3
387.841	9.66
388.049	9.86
388.257	9.57
388.465	8.95
388.672	8.52
388.88	8.39
389.088	8.2
389.296	7.71
389.504	7.94
389.712	8.06
389.92	7.75
390.128	8.52
390.336	8.61
390.544	8.6
390.751	8.73
390.959	9.14
391.167	9.24
391.375	9.11
391.583	9.4
391.79	9.17
391.998	9.09
392.206	9.1
392.414	8.62
392.621	8.44
392.829	8.36
393.037	8.53
393.244	8.18
393.452	8.05
393.66	8.22
393.867	7.9
394.075	7.93
394.283	7.98
394.49	8.35
394.698	8.29
394.905	8.33
395.113	8.39
395.32	7.91
395.528	7.77
395.735	7.85
395.943	7.98
396.15	8.62
396.358	8.76
396.565	8.4
396.773	8.2
396.98	8.58
397.188	8.3
397.395	7.74
397.602	7.89
397.81	8.06
398.017	8.38
398.225	8.13
398.432	7.42
398.639	7.47
398.847	7.76
399.054	7.5
399.261	7.05
399.468	7.1
399.676	7.38
399.883	7.51
400.09	7.4
400.297	6.95
400.505	6.67
400.712	7
400.919	6.75
401.126	6.83
401.333	7.01
401.54	7.35
401.748	7.43
401.955	7.58
402.162	7.41
402.369	7.52
402.576	7.56
402.783	7.96
402.99	7.69
403.197	7.73
403.404	7.64
403.611	7.73
403.818	7.53
404.025	7.45
404.232	7.06
404.439	7.23
404.646	7.31
404.853	7.34
405.06	7.08
405.267	7.6
405.474	7.74
405.681	7.4
405.887	7.26
406.094	7.21
406.301	7.27
406.508	7.55
406.715	7.76
406.922	7.31
407.128	7.12
407.335	7.36
407.542	6.84
407.749	6.78
407.955	6.97
408.162	6.92
408.369	7.24
408.575	7.26
408.782	7.27
408.989	7.48
409.195	7.64
409.402	7.52
409.609	7.41
409.815	7.53
410.022	7.5
410.228	7.55
410.435	7.66
410.642	7.09
410.848	7.27
411.055	7.26
411.261	6.94
411.468	7.24
411.674	7.34
411.881	7.49
412.087	7.47
412.294	7.41
412.5	7.51
412.706	7.33
412.913	7.33
413.119	7.17
413.326	6.99
413.532	7.13
413.738	7.1
413.945	7.13
414.151	6.64
414.357	6.75
414.564	6.71
414.77	6.73
414.976	6.79
415.182	6.95
415.389	7.02
415.595	7.22
415.801	6.88
416.007	7.01
416.214	7.23
416.42	7.15
416.626	7.02
416.832	7.23
417.038	7
417.244	6.8
417.45	6.97
417.657	6.58
417.863	6.63
418.069	6.67
418.275	6.5
418.481	6.39
418.687	6.54
418.893	6.51
419.099	6.32
419.305	6.32
419.511	6.46
419.717	6.39
419.923	6.48
420.129	6.26
420.335	6.31
420.541	6.16
420.746	6.06
420.952	6.04
421.158	6.04
421.364	6.05
421.57	6.02
421.776	6.06
421.982	5.89
422.187	6.01
422.393	6.19
422.599	6.14
422.805	6.3
423.01	6.35
423.216	6.36
423.422	6.33
423.628	6.36
423.833	6.33
424.039	6.25
424.245	6.23
424.45	6.16
424.656	6.17
424.862	6.16
425.067	6.06
425.273	6.13
425.478	6.05
425.684	6.26
425.889	6.13
426.095	6.18
426.301	6.25
426.506	6.32
426.712	6.41
426.917	6.21
427.123	6.27
427.328	6.21
427.533	6.12
427.739	6.26
427.944	6.14
428.15	6.31
428.355	6.22
428.561	6.21
428.766	6.13
428.971	6.04
429.177	6.26
429.382	5.98
429.587	6.05
429.793	5.98
429.998	5.92
430.203	6.03
430.408	6.06
430.614	6.14
430.819	5.98
431.024	6.09
431.229	5.91
431.434	5.85
431.64	6.17
431.845	6.15
432.05	6.1
432.255	6.15
432.46	5.92
432.665	6.03
432.87	5.89
433.076	5.98
433.281	5.98
433.486	6.11
433.691	6.06
433.896	5.73
434.101	5.85
434.306	5.95
434.511	6.02
434.716	6.14
434.921	6.13
435.126	6.36
435.331	6.2
435.535	6.23
435.74	6.17
435.945	6.11
436.15	6.07
436.355	6.06
436.56	5.8
436.765	5.75
436.97	5.75
437.174	5.82
437.379	5.74
437.584	5.91
437.789	5.73
437.993	5.78
438.198	5.77
438.403	6
438.608	5.9
438.812	6.11
439.017	6.12
439.222	6.18
439.426	6.14
439.631	6.06
439.836	6.1
440.04	6.24
440.245	6.31
440.45	6.38
440.654	6.27
440.859	6.43
441.063	6.45
441.268	6.49
441.472	6.19
441.677	5.9
441.881	6.07
442.086	6.14
442.29	6.01
442.495	5.9
442.699	6.01
442.904	6.02
443.108	5.86
443.312	5.91
443.517	5.92
443.721	5.99
443.925	6.26
444.13	6.08
444.334	5.92
444.538	6.06
444.743	6.01
444.947	5.91
445.151	5.92
445.356	5.94
445.56	5.89
445.764	5.76
445.968	5.87
446.173	5.87
446.377	5.98
446.581	5.99
446.785	5.94
446.989	5.92
447.193	5.82
447.398	5.88
447.602	5.77
447.806	5.74
448.01	5.75
448.214	5.6
448.418	5.34
448.622	5.33
448.826	5.29
449.03	5.24
449.234	5.24
449.438	5.33
449.642	5.42
449.846	5.47
450.05	5.4
450.254	5.32
450.458	5.49
450.662	5.45
450.866	5.27
451.069	5.3
451.273	5.28
451.477	5.37
451.681	5.28
451.885	5.21
452.089	5.37
452.292	5.23
452.496	5.29
452.7	5.19
452.904	5.48
453.107	5.31
453.311	5.34
453.515	5.36
453.719	5.26
453.922	5.35
454.126	5.21
454.33	5.12
454.533	5.2
454.737	5.24
454.94	5.3
455.144	5.28
455.348	5.46
455.551	5.34
455.755	5.27
455.958	5.19
456.162	5.32
456.365	5.38
456.569	5.33
456.772	5.25
456.976	5.15
457.179	5.12
457.383	4.94
457.586	5.02
457.79	4.95
457.993	5.13
458.196	5.22
458.4	5.19
458.603	5.06
458.807	5.08
459.01	5.27
459.213	5.41
459.417	5.43
459.62	5.59
459.823	5.66
460.026	5.79
460.23	5.8
460.433	5.74
460.636	5.7
460.839	5.9
461.042	5.91
461.246	5.99
461.449	5.81
461.652	5.85
461.855	5.72
462.058	5.66
462.261	5.51
462.464	5.51
462.668	5.72
462.871	5.77
463.074	5.57
463.277	5.43
463.48	5.11
463.683	5.06
463.886	4.93
464.089	5
464.292	4.9
464.495	5.17
464.698	5.22
464.901	5.08
465.104	5.05
465.306	5.23
465.509	5.13
465.712	5.36
465.915	5.61
466.118	5.61
466.321	5.64
466.524	5.6
466.726	5.63
466.929	5.42
467.132	5.43
467.335	5.44
467.538	5.32
467.74	5.47
467.943	5.45
468.146	5.41
468.348	5.56
468.551	5.42
468.754	5.45
468.956	5.07
469.159	5.26
469.362	5.44
469.564	5.19
469.767	5.14
469.969	5.33
470.172	5.29
470.375	5.29
470.577	5.36
470.78	5.46
470.982	5.41
471.185	5.53
471.387	5.45
471.59	5.23
471.792	5.47
471.995	5.43
472.197	5.36
472.399	5.25
472.602	5.25
472.804	5.11
473.007	5.01
473.209	5.24
473.411	5.43
473.614	5.54
473.816	5.71
474.018	5.55
474.22	5.78
474.423	5.74
474.625	5.69
474.827	5.7
475.03	5.78
475.232	6.02
475.434	5.87
475.636	5.77
475.838	5.74
476.04	5.65
476.243	5.65
476.445	5.59
476.647	5.57
476.849	5.71
477.051	5.73
477.253	5.64
477.455	5.28
477.657	5.38
477.859	5.38
478.061	5.24
478.263	5.34
478.465	5.42
478.667	5.32
478.869	5.29
479.071	5.33
479.273	5.36
479.475	5.32
479.677	5.54
479.879	5.5
480.081	5.64
480.283	5.6
480.485	5.59
480.686	5.58
480.888	5.64
481.09	5.68
481.292	5.77
481.494	5.55
481.695	5.65
481.897	5.6
482.099	5.5
482.301	5.37
482.502	5.4
482.704	5.33
482.906	5.32
483.107	5.27
483.309	5.26
483.511	5.19
483.712	5.2
483.914	5.13
484.115	5.14
484.317	5.16
484.519	5.13
484.72	5.12
484.922	5.13
485.123	5.11
485.325	5.13
485.526	5.14
485.728	5.19
485.929	5.3
486.131	5.31
486.332	5.33
486.534	5.38
486.735	5.39
486.936	5.42
487.138	5.43
487.339	5.38
487.541	5.4
487.742	5.37
487.943	5.34
488.144	5.28
488.346	5.32
488.547	5.33
488.748	5.38
488.95	5.4
489.151	5.39
489.352	5.4
489.553	5.5
489.755	5.46
489.956	5.42
490.157	5.4
490.358	5.38
490.559	5.3
490.76	5.25
490.961	5.14
491.163	5.12
491.364	5.13
491.565	5.12
491.766	5.15
491.967	5.15
492.168	5.14
492.369	5.19
492.57	5.2
492.771	5.27
492.972	5.32
493.173	5.32
493.374	5.45
493.575	5.49
493.776	5.49
493.976	5.54
494.177	5.59
494.378	5.81
494.579	5.73
494.78	5.81
494.981	5.8
495.182	5.73
495.382	5.76
495.583	5.6
495.784	5.63
495.985	5.52
496.185	5.37
496.386	5.28
496.587	5.18
496.788	5.25
496.988	5.14
497.189	5.02
497.39	5.1
497.59	5.17
497.791	5.14
497.992	5.16
498.192	5.23
498.393	5.25
498.593	5.25
498.794	5.24
498.994	5.08
499.195	5.07
499.395	5.15
499.596	5.13
499.796	5.01
499.997	5.04
500.197	4.88
500.398	5
500.598	5.02
500.799	5.17
500.999	5.32
501.199	5.56
501.4	5.81
501.6	5.88
501.801	5.84
502.001	5.86
502.201	5.89
502.402	5.91
502.602	5.73
502.802	5.8
503.002	5.77
503.203	5.63
503.403	5.46
503.603	5.27
503.803	5.25
504.003	5.32
504.204	5.35
504.404	5.26
504.604	5.35
504.804	5.53
505.004	5.47
505.204	5.43
505.404	5.44
505.604	5.44
505.804	5.57
506.005	5.53
506.205	5.58
506.405	5.64
506.605	5.74
506.805	5.78
507.005	5.71
507.204	5.71
507.404	5.82
507.604	5.95
507.804	5.94
508.004	5.84
508.204	5.86
508.404	5.85
508.604	5.76
508.804	5.86
509.003	5.83
509.203	5.85
509.403	5.92
509.603	5.81
509.803	5.73
510.002	5.75
510.202	5.82
510.402	5.97
510.602	5.87
510.801	5.89
511.001	5.76
511.201	5.77
511.4	5.8
511.6	5.73
511.8	5.68
511.999	5.68
512.199	5.69
512.398	5.5
512.598	5.5
512.797	5.55
512.997	5.53
513.197	5.51
513.396	5.52
513.596	5.46
513.795	5.41
513.994	5.47
514.194	5.5
514.393	5.56
514.593	5.77
514.792	5.68
514.992	5.65
515.191	5.63
515.39	5.64
515.59	5.53
515.789	5.73
515.988	5.89
516.188	5.82
516.387	5.8
516.586	5.63
516.786	5.5
516.985	5.46
517.184	5.36
517.383	5.49
517.582	5.69
517.782	5.77
517.981	5.58
518.18	5.58
518.379	5.61
518.578	5.57
518.777	5.75
518.976	5.83
519.176	5.83
519.375	5.83
519.574	5.74
519.773	5.74
519.972	5.68
520.171	5.75
520.37	5.63
520.569	5.61
520.768	5.75
520.967	5.57
521.166	5.57
521.365	5.47
521.564	5.66
521.762	5.76
521.961	5.76
522.16	5.73
522.359	5.67
522.558	5.8
522.757	5.86
522.956	5.75
523.154	5.88
523.353	5.89
523.552	5.99
523.751	5.9
523.949	5.88
524.148	5.77
524.347	5.86
524.546	6
524.744	5.9
524.943	5.95
525.142	5.98
525.34	6.01
525.539	5.98
525.737	5.97
525.936	6
526.135	5.95
526.333	6.03
526.532	6.09
526.73	6.08
526.929	6.14
527.127	6.27
527.326	6.31
527.524	6.28
527.723	6.19
527.921	6.22
528.12	6.22
528.318	6.26
528.516	6.23
528.715	6.2
528.913	6.16
529.112	6.18
529.31	6.12
529.508	6.09
529.707	6.08
529.905	6.19
530.103	6.24
530.301	6.31
530.5	6.38
530.698	6.45
530.896	6.49
531.094	6.47
531.293	6.44
531.491	6.4
531.689	6.46
531.887	6.54
532.085	6.6
532.283	6.67
532.481	6.64
532.68	6.58
532.878	6.54
533.076	6.61
533.274	6.69
533.472	6.75
533.67	6.79
533.868	6.82
534.066	6.84
534.264	6.72
534.462	6.65
534.66	6.66
534.858	6.73
535.056	6.77
535.253	6.75
535.451	6.75
535.649	6.68
535.847	6.71
536.045	6.62
536.243	6.53
536.441	6.61
536.638	6.6
536.836	6.67
537.034	6.63
537.232	6.71
537.43	6.64
537.627	6.65
537.825	6.75
538.023	6.88
538.22	6.95
538.418	7.08
538.616	7.25
538.813	7.34
539.011	7.19
539.209	7.24
539.406	7.17
539.604	7.34
539.801	7.35
539.999	7.3
540.196	7.2
540.394	7.15
540.591	7.12
540.789	7.11
540.986	7.12
541.184	7.26
541.381	7.22
541.579	7.25
541.776	7.19
541.974	7.23
542.171	7.23
542.368	7.22
542.566	7.29
542.763	7.33
542.96	7.33
543.158	7.34
543.355	7.28
543.552	7.29
543.75	7.41
543.947	7.44
544.144	7.46
544.341	7.56
544.539	7.67
544.736	7.67
544.933	7.73
545.13	7.72
545.327	7.77
545.524	8.04
545.722	8.19
545.919	8.12
546.116	8.13
546.313	8.2
546.51	8.22
546.707	8.42
546.904	8.53
547.101	8.5
547.298	8.62
547.495	8.72
547.692	8.59
547.889	8.67
548.086	8.75
548.283	8.76
548.48	8.84
548.677	8.95
548.874	8.85
549.07	8.71
549.267	8.85
549.464	9.08
549.661	9.17
549.858	9.16
550.055	9.26
550.251	9.26
550.448	9.34
550.645	9.36
550.842	9.39
551.038	9.22
551.235	9.48
551.432	9.56
551.628	9.39
551.825	9.35
552.022	9.4
552.218	9.3
552.415	9.36
552.612	9.43
552.808	9.37
553.005	9.27
553.201	9.38
553.398	9.16
553.594	9.32
553.791	9.36
553.987	9.2
554.184	9.35
554.38	9.46
554.577	9.47
554.773	9.38
554.97	9.51
555.166	9.76
555.362	9.86
555.559	10.1
555.755	9.97
555.952	9.98
556.148	10.5
556.344	10.64
556.541	10.73
556.737	10.76
556.933	11.01
557.129	11.22
557.326	11.2
557.522	11.11
557.718	11.2
557.914	11.34
558.11	11.14
558.307	10.89
558.503	10.78
558.699	10.68
558.895	10.75
559.091	10.59
559.287	10.45
559.483	10.52
559.679	10.58
559.876	10.54
560.072	10.46
560.268	10.76
560.464	10.78
560.66	10.65
560.856	10.76
561.052	10.79
561.247	10.99
561.443	10.94
561.639	10.89
561.835	10.95
562.031	11.09
562.227	11.16
562.423	11.29
562.619	11.23
562.815	11.19
563.01	11.01
563.206	10.97
563.402	11.25
563.598	11.36
563.793	11.46
563.989	11.48
564.185	11.49
564.381	11.41
564.576	11.4
564.772	11.7
564.968	11.79
565.163	12.15
565.359	12.24
565.555	12.11
565.75	12.19
565.946	12.15
566.141	12.29
566.337	12.29
566.532	12.48
566.728	12.5
566.923	12.44
567.119	12.65
567.314	12.43
567.51	12.59
567.705	12.73
567.901	12.69
568.096	12.86
568.292	12.76
568.487	12.93
568.682	12.78
568.878	12.79
569.073	12.72
569.268	12.45
569.464	12.63
569.659	12.49
569.854	12.33
570.05	12.43
570.245	12.24
570.44	12.06
570.635	11.95
570.831	12.24
571.026	12.34
571.221	12.49
571.416	12.67
571.611	12.76
571.806	12.76
572.002	12.76
572.197	12.69
572.392	12.84
572.587	13.13
572.782	13.28
572.977	13.04
573.172	12.9
573.367	12.78
573.562	13.02
573.757	12.94
573.952	13.06
574.147	13.11
574.342	13.25
574.537	13.22
574.732	13.29
574.927	13.27
575.121	13.47
575.316	13.45
575.511	13.64
575.706	13.35
575.901	13.37
576.096	13.38
576.29	13.27
576.485	13.27
576.68	13.42
576.875	13.37
577.069	13.41
577.264	13.53
577.459	13.62
577.654	13.47
577.848	13.72
578.043	13.8
578.238	13.77
578.432	13.91
578.627	13.85
578.821	13.67
579.016	13.96
579.21	13.98
579.405	14.03
579.6	14.06
579.794	13.95
579.989	13.88
580.183	14.14
580.378	14.01
580.572	14.44
580.766	14.44
580.961	14.91
581.155	14.52
581.35	14.47
581.544	14.34
581.738	14.71
581.933	14.9
582.127	15.05
582.321	14.69
582.516	14.98
582.71	14.77
582.904	14.88
583.099	14.6
583.293	14.86
583.487	14.93
583.681	14.71
583.875	14.46
584.07	14.76
584.264	14.67
584.458	14.67
584.652	14.49
584.846	14.38
585.04	14.52
585.234	14.57
585.428	14.34
585.623	14.31
585.817	14.47
586.011	14.5
586.205	14.46
586.399	14.63
586.593	14.51
586.787	14.56
586.981	14.71
587.174	14.64
587.368	14.57
587.562	14.77
587.756	14.78
587.95	14.84
588.144	14.81
588.338	14.57
588.532	14.48
588.725	14.62
588.919	14.85
589.113	14.71
589.307	14.83
589.501	14.74
589.694	14.8
589.888	14.85
590.082	14.89
590.275	14.95
590.469	14.96
590.663	14.99
590.856	15.04
591.05	14.59
591.244	14.34
591.437	14.21
591.631	14.29
591.824	13.86
592.018	13.98
592.212	13.77
592.405	13.52
592.599	13.61
592.792	13.45
592.986	13.4
593.179	13.81
593.372	14.26
593.566	14.37
593.759	14.21
593.953	14.34
594.146	14.46
594.339	14.73
594.533	15.1
594.726	15.08
594.92	14.97
595.113	15.18
595.306	15.05
595.499	14.88
595.693	14.83
595.886	15.13
596.079	15.45
596.272	15.38
596.466	15.32
596.659	15.14
596.852	14.93
597.045	15.19
597.238	15
597.431	15.07
597.624	14.95
597.818	14.87
598.011	14.76
598.204	14.54
598.397	14.33
598.59	14.31
598.783	14.38
598.976	14.63
599.169	14.59
599.362	14.74
599.555	14.76
599.748	14.79
599.941	14.89
600.134	14.93
600.326	15.17
600.519	15.06
600.712	14.8
600.905	14.76
601.098	14.79
601.291	14.67
601.483	14.71
601.676	14.57
601.869	14.86
602.062	15.03
602.255	15.07
602.447	15.04
602.64	15.2
602.833	15.28
603.025	15.24
603.218	15.07
603.411	15.09
603.603	14.91
603.796	15.1
603.989	15.09
604.181	15.1
604.374	15.14
604.566	15.1
604.759	15
604.951	15.05
605.144	14.99
605.336	15.4
605.529	15.28
605.721	15.47
605.914	15.35
606.106	15.46
606.299	15.37
606.491	15.5
606.683	15.33
606.876	15.68
607.068	15.82
607.26	15.76
607.453	15.63
607.645	15.47
607.837	15.42
608.03	15.37
608.222	15.41
608.414	15.31
608.606	15.11
608.799	15.45
608.991	15.38
609.183	15.24
609.375	15.53
609.567	15.25
609.759	15.61
609.952	15.78
610.144	15.94
610.336	15.74
610.528	15.74
610.72	15.71
610.912	15.5
611.104	15.47
611.296	15.52
611.488	15.25
611.68	15.33
611.872	15.14
612.064	15.06
612.256	15.02
612.448	15.09
612.64	15.25
612.832	15.19
613.023	15.24
613.215	15.14
613.407	15.08
613.599	15.16
613.791	15.14
613.983	15.32
614.174	15.33
614.366	15.39
614.558	15.03
614.75	14.74
614.941	14.84
615.133	14.78
615.325	14.95
615.516	15.19
615.708	14.95
615.9	14.6
616.091	14.47
616.283	14.41
616.475	14.13
616.666	14.5
616.858	14.54
617.049	14.33
617.241	14.36
617.432	14.44
617.624	14.31
617.815	14.44
618.007	14.81
618.198	14.94
618.39	15.03
618.581	15.06
618.773	15.07
618.964	15.04
619.155	15.11
619.347	14.97
619.538	14.88
619.729	15.1
619.921	15.21
620.112	15.24
620.303	15.33
620.494	15.47
620.686	15.61
620.877	15.33
621.068	15.36
621.259	15.58
621.451	15.89
621.642	15.92
621.833	15.45
622.024	15.53
622.215	15.62
622.406	15.44
622.597	14.93
622.788	14.69
622.98	15.11
623.171	15.17
623.362	15.28
623.553	15.27
623.744	15.11
623.935	15.43
624.126	15.15
624.317	14.71
624.508	14.85
624.698	14.77
624.889	14.97
625.08	14.84
625.271	15.01
625.462	14.9
625.653	14.63
625.844	14.59
626.034	14.71
626.225	15.19
626.416	15.57
626.607	15.18
626.798	15.52
626.988	15.6
627.179	15.68
627.37	15.55
627.56	15.48
627.751	15.53
627.942	15.46
628.132	15.55
628.323	15.22
628.514	14.89
628.704	15.44
628.895	15.38
629.085	15.31
629.276	15.35
629.466	15.3
629.657	15.36
629.847	15.38
630.038	15.48
630.228	15.14
630.419	15.59
630.609	15.67
630.8	15.34
630.99	15.48
631.181	15.53
631.371	15.39
631.561	15.16
631.752	15.29
631.942	15.35
632.132	15.35
632.323	15.16
632.513	15.17
632.703	15.5
632.893	15.63
633.084	15.48
633.274	15.53
633.464	15.51
633.654	15.88
633.844	15.67
634.034	15.51
634.225	15.63
634.415	16.01
634.605	15.5
634.795	15.37
634.985	15.2
635.175	15.22
635.365	15.16
635.555	15.09
635.745	15.04
635.935	14.98
636.125	15.19
636.315	15.13
636.505	15.24
636.695	15.36
636.885	15.45
637.075	15.78
637.265	15.79
637.455	16.07
637.644	15.97
637.834	16.19
638.024	15.99
638.214	16.04
638.404	16.18
638.593	15.81
638.783	16.04
638.973	16.01
639.163	15.96
639.352	16.21
639.542	15.64
639.732	15.62
639.921	15.26
640.111	15.78
640.301	15.67
640.49	15.47
640.68	15.48
640.87	15.62
641.059	15.83
641.249	15.37
641.438	15.13
641.628	14.94
641.817	15.34
642.007	15.28
642.196	14.87
642.386	14.88
642.575	14.54
642.764	15.02
642.954	14.45
643.143	14.17
643.333	14.63
643.522	14.69
643.711	15.07
643.901	14.72
644.09	14.94
644.279	15.43
644.469	15.4
644.658	15.79
644.847	15.31
645.036	15.61
645.226	15.67
645.415	15.71
645.604	15.47
645.793	15.52
645.982	15.72
646.171	15.92
646.361	15.73
646.55	15.63
646.739	15.72
646.928	15.88
647.117	15.95
647.306	15.78
647.495	15.98
647.684	16.18
647.873	15.81
648.062	15.49
648.251	15.47
648.44	15.3
648.629	15.25
648.818	15.09
649.007	15.41
649.196	15.53
649.384	15.73
649.573	15.16
649.762	14.77
649.951	15.03
650.14	15.46
650.328	15.44
650.517	15.58
650.706	15.94
650.895	15.66
651.083	15.38
651.272	15.16
651.461	15.64
651.65	16.11
651.838	16.25
652.027	16.36
652.216	16.24
652.404	16.09
652.593	15.96
652.781	15.74
652.97	16.34
653.158	16
653.347	16.16
653.535	15.82
653.724	15.74
653.912	15.94
654.101	15.68
654.289	15.42
654.478	15.49
654.666	15.95
654.855	16.14
655.043	15.66
655.231	16.27
655.42	16.24
655.608	16.01
655.796	15.37
655.985	14.99
656.173	15.47
656.361	15.64
656.55	15.84
656.738	15.44
656.926	15.6
657.114	15.79
657.302	15.43
657.491	15.48
657.679	15.65
657.867	16.28
658.055	16.7
658.243	16.62
658.431	16.59
658.619	16.61
658.807	16.68
658.996	16.77
659.184	16.66
659.372	16.7
659.56	16.48
659.748	16.48
659.936	16.24
660.124	16.32
660.311	16.14
660.499	16.71
660.687	16.72
660.875	17.01
661.063	16.49
661.251	16.38
661.439	16.52
661.627	16.87
661.814	16.65
662.002	16.39
662.19	16.01
662.378	16.42
662.565	15.6
662.753	15.2
662.941	14.94
663.129	15.35
663.316	15.36
663.504	14.99
663.692	15.12
663.879	15.57
664.067	15.96
664.254	16.03
664.442	16.12
664.63	16.73
664.817	16.84
665.005	16.76
665.192	16.6
665.38	16.72
665.567	16.89
665.755	16.57
665.942	16.09
666.13	15.78
666.317	15.64
666.504	15.28
666.692	14.98
666.879	14.92
667.067	14.66
667.254	15.16
667.441	15.78
667.629	15.67
667.816	15.67
668.003	15.58
668.19	16.01
668.378	15.99
668.565	15.65
668.752	15.66
668.939	15.37
669.127	15.15
669.314	14.99
669.501	14.67
669.688	14.6
669.875	14.59
670.062	15.05
670.249	15.22
670.436	14.91
670.623	15.59
670.81	15.82
670.997	16.22
671.184	16.73
671.371	16.42
671.558	16.43
671.745	16.29
671.932	16.04
672.119	15.85
672.306	15.92
672.493	16.39
672.68	16.14
672.867	16.07
673.054	15.62
673.24	15.22
673.427	15.33
673.614	15.48
673.801	15.86
673.988	16.01
674.174	15.6
674.361	14.91
674.548	15.34
674.734	15.2
674.921	14.95
675.108	15.39
675.294	15.58
675.481	15.8
675.668	15.3
675.854	15.31
676.041	15.09
676.227	15.34
676.414	15.41
676.601	15.14
676.787	15.06
676.974	14.74
677.16	15.11
677.347	15.4
677.533	15.93
677.719	16.48
677.906	16.28
678.092	16.5
678.279	16.75
678.465	17.45
678.651	17.82
678.838	18.01
679.024	18.23
679.21	17.92
679.397	17.82
679.583	17.11
679.769	16.85
679.955	16.67
680.142	16.31
680.328	16.25
680.514	15.82
680.7	15.38
680.886	15.45
681.073	15.54
681.259	15.54
681.445	15.11
681.631	14.98
681.817	15.14
682.003	15.18
682.189	15.38
682.375	15.53
682.561	15.84
682.747	15.59
682.933	15.72
683.119	15.46
683.305	15.19
683.491	15.45
683.677	16.11
683.863	16.29
684.049	16.9
684.235	17.41
684.42	17.32
684.606	17.03
684.792	17.17
684.978	17.4
685.164	17.41
685.349	17.52
685.535	17.77
685.721	17.13
685.907	16.75
686.092	16.47
686.278	16.02
686.464	15.4
686.649	15.64
686.835	15.98
687.021	15.54
687.206	15.65
687.392	15.77
687.577	15.47
687.763	15.72
687.948	15.93
688.134	16.21
688.319	16.43
688.505	16.52
688.69	15.88
688.876	15.9
689.061	16.6
689.247	16.61
689.432	16.62
689.618	16.97
689.803	16.81
689.988	16.78
690.174	15.81
690.359	15.65
690.544	16.19
690.73	16.54
690.915	16.69
691.1	16.19
691.285	16.08
691.471	15.99
691.656	15.86
691.841	15.78
692.026	15.99
692.211	16.9
692.396	16.93
692.582	17.11
692.767	17.78
692.952	17.73
693.137	17.74
693.322	17.81
693.507	18.4
693.692	18.36
693.877	18.48
694.062	18.62
694.247	18.82
694.432	18.71
694.617	18.62
694.802	18.23
694.987	18.37
695.172	18
695.357	18.48
695.541	17.48
695.726	17.51
695.911	17.27
696.096	16.84
696.281	15.89
696.466	16.39
696.65	16.4
696.835	16.02
697.02	16.07
697.204	16.66
697.389	16.83
697.574	17.32
697.759	17.23
697.943	17.44
698.128	17.27
698.312	17.78
698.497	17.59
698.682	17.42
698.866	17.38
699.051	17.2
699.235	16.68
699.42	16.24
699.604	16.26
699.789	16.38
699.973	16.48
700.158	16.79
700.342	16.03
700.527	15.66
700.711	15.64
700.895	15.86
701.08	15.58
701.264	15.48
701.448	15.71
701.633	15.36
701.817	15.34
702.001	15.17
702.186	15.35
702.37	15.96
702.554	16.28
702.738	16.25
702.923	16.26
703.107	16.43
703.291	16.38
703.475	16.06
703.659	16.66
703.843	17.59
704.027	18.08
704.212	17.02
704.396	16.4
704.58	16.89
704.764	17.06
704.948	16.13
705.132	16.23
705.316	16.49
705.5	16.64
705.684	16.38
705.868	15.28
706.052	14.93
706.235	14.99
706.419	16.05
706.603	15.67
706.787	15.44
706.971	16.8
707.155	16.63
707.339	17.01
707.522	16.83
707.706	16.97
707.89	17.42
708.074	17.7
708.257	17.99
708.441	17.24
708.625	17.75
708.808	17.53
708.992	16.91
709.176	16.47
709.359	15.96
709.543	16.78
709.727	17
709.91	17.33
710.094	16.28
710.277	16.07
710.461	16.39
710.644	16.38
710.828	17.15
711.011	17
711.195	17.24
711.378	17.89
711.562	17.52
711.745	17.48
711.928	17.3
712.112	18.9
712.295	18.4
712.478	18.65
712.662	18.38
712.845	17.56
713.028	17.76
713.212	18.57
713.395	17.8
713.578	17.58
713.761	17.19
713.945	17.03
714.128	15.75
714.311	16.41
714.494	16.48
714.677	16.04
714.86	16.55
715.043	16.8
715.227	15.43
715.41	16.19
715.593	16.55
715.776	16.18
715.959	15.92
716.142	15.56
716.325	15.68
716.508	15.51
716.691	15.7
716.874	16.1
717.057	15.55
717.239	16.66
717.422	15.8
717.605	15.35
717.788	15.23
717.971	16.04
718.154	16.95
718.337	15.97
718.519	16.25
718.702	16.68
718.885	16.2
719.068	16.02
719.25	16.62
719.433	17.04
719.616	17.43
719.798	18.12
719.981	17.06
720.164	16.66
720.346	17.51
720.529	16.63
720.712	16.25
720.894	15.57
721.077	16.35
721.259	14.85
721.442	14.05
721.624	13.97
721.807	13.49
721.989	13.28
722.172	12.27
722.354	12.15
722.537	12.6
722.719	13.19
722.901	13.25
723.084	12.65
723.266	12.53
723.448	12.43
723.631	11.08
723.813	11.74
723.995	12.33
724.178	13.49
724.36	12.81
724.542	12.74
724.724	12.38
724.907	12.4
725.089	12.66
725.271	13.58
725.453	13.76
725.635	15.26
725.817	14.61
725.999	14.13
726.181	13.98
726.364	15.32
726.546	15.75
726.728	15.57
726.91	16.01
727.092	16.6
727.274	16.07
727.456	17.07
727.638	17.65
727.819	18.19
728.001	18.7
728.183	18.77
728.365	18.65
728.547	18.38
728.729	18.37
728.911	18.07
729.093	18.33
729.274	18.19
729.456	18.18
729.638	17.52
729.82	17.67
730.001	17.35
730.183	18.21
730.365	18.52
730.546	18.44
730.728	19.09
730.91	20.29
731.091	19.96
731.273	21.23
731.455	20.65
731.636	20.19
731.818	19.53
731.999	20.41
732.181	20.03
732.362	19.31
732.544	20.2
732.725	19.84
732.907	18.98
733.088	18.55
733.27	18.38
733.451	19.18
733.633	20.55
733.814	21.7
733.995	21.92
734.177	21.9
734.358	21.75
734.539	21.43
734.721	20.01
734.902	20.34
735.083	21.23
735.264	21.16
735.446	21.56
735.627	20.98
735.808	20.83
735.989	18.9
736.17	19.55
736.351	20.17
736.533	19.71
736.714	21.31
736.895	21.36
737.076	21.34
737.257	20.56
737.438	19.76
737.619	18.2
737.8	17.19
737.981	18.29
738.162	17.82
738.343	18.51
738.524	17.49
738.705	17.73
738.886	17.59
739.067	17.62
739.247	18.14
739.428	17.44
739.609	18.65
739.79	17.13
739.971	16.74
740.151	16.32
740.332	16.4
740.513	18.48
740.694	17.76
740.874	18.02
741.055	17.58
741.236	16.86
741.417	17.44
741.597	17.7
741.778	18.91
741.958	18.68
742.139	19.31
742.32	19.45
742.5	19.07
742.681	20.34
742.861	20.33
743.042	19.76
743.222	20.38
743.403	21.27
743.583	20.91
743.764	21.71
743.944	22.02
744.124	22.03
744.305	20.49
744.485	19.65
744.666	20.08
744.846	18.26
745.026	18.22
745.207	19.2
745.387	18.19
745.567	18.04
745.747	18.33
745.928	18.95
746.108	17.77
746.288	16.49
746.468	17.49
746.648	17.05
746.829	18.29
747.009	18.32
747.189	17.11
747.369	17.31
747.549	18.11
747.729	18.04
747.909	17.63
748.089	18.31
748.269	19.85
748.449	20.65
748.629	20.35
748.809	20.26
748.989	20.23
749.169	20.37
749.349	21.14
749.529	19.74
749.709	18.78
749.889	18.35
750.068	17.22
750.248	18.41
750.428	16.9
750.608	16.53
750.788	16.89
750.967	17.38
751.147	17.43
751.327	18.28
751.507	18.19
751.686	18.61
751.866	19.7
752.046	20.23
752.225	17.96
752.405	18.57
752.585	18.97
752.764	20
752.944	20.76
753.123	20.58
753.303	18.35
753.482	18.2
753.662	17.76
753.841	16
754.021	16.5
754.2	17.87
754.38	17
754.559	16.42
754.739	15.67
754.918	14.98
755.097	14.22
755.277	14.32
755.456	14.84
755.635	15.38
755.815	16.91
755.994	17.55
756.173	16.7
756.352	17.24
756.532	17.7
756.711	16.71
756.89	15.94
757.069	16.85
757.248	18.42
757.427	18.82
757.607	18.57
757.786	16.63
757.965	14.1
758.144	13.96
758.323	14.15
758.502	13.03
758.681	13.86
758.86	14.34
759.039	13.8
759.218	14.63
759.397	14.98
759.576	16.73
759.755	18.1
759.934	19.66
760.113	20.57
760.291	21.56
760.47	21.97
760.649	21.51
760.828	21.29
761.007	22.04
761.186	20.15
761.364	19.39
761.543	18.37
761.722	19.2
761.901	18.72
762.079	18.64
762.258	17.1
762.437	15.81
762.615	16.01
762.794	15.4
762.972	14.58
763.151	15.01
763.33	14.96
763.508	15.06
763.687	14.57
763.865	15.65
764.044	15.52
764.222	16.18
764.401	17.51
764.579	17.99
764.758	17.94
764.936	18.68
765.114	18.58
765.293	18.66
765.471	17.99
765.65	18.32
765.828	17.16
766.006	16.92
766.184	16.47
766.363	16.64
766.541	16.79
766.719	18.02
766.898	17.94
767.076	16.56
767.254	17.56
767.432	18.35
767.61	18.17
767.788	16.95
767.967	17.17
768.145	17.78
768.323	15.54
768.501	16.15
768.679	16.24
768.857	15.97
769.035	17.31
769.213	16.64
769.391	17.83
769.569	16.02
769.747	20.04
769.925	19.21
770.103	20.62
770.281	21.39
770.459	19.3
770.636	18.34
770.814	18.74
770.992	20.31
771.17	21.22
771.348	19.29
771.525	20.53
771.703	18
771.881	19.4
772.059	17.74
772.236	20.98
772.414	22.34
772.592	22.07
772.769	20.73
772.947	20.92
773.125	20.51
773.302	19.46
773.48	19.27
773.657	19.49
773.835	17.76
774.013	17.11
774.19	14.9
774.368	13
774.545	15.53
774.723	16.99
774.9	18.48
775.077	16.16
775.255	17.92
775.432	17.51
775.61	18.13
775.787	21.78
775.964	22.72
776.142	20.58
776.319	20.52
776.496	18.76
776.674	19.96
776.851	18
777.028	21.21
777.205	21.83
777.382	20.08
777.56	20.95
777.737	18.4
777.914	14.76
778.091	14.74
778.268	17.25
778.445	15.38
778.622	14.97
778.8	15.1
778.977	12.67
779.154	11.69
779.331	13.97
779.508	12.58
779.685	12.22
779.862	16.07
780.038	18.49
780.215	18.67
780.392	19.33
780.569	16.97
780.746	14.73
780.923	14.94
781.1	14.03
781.277	14.68
781.453	12.57
781.63	13.32
781.807	12.95
781.984	13.48
782.16	11.67
782.337	11.74
782.514	13.42
782.691	15.85
782.867	15.4
783.044	17.13
783.221	17.22
783.397	19
783.574	19.73
783.75	18.61
783.927	17.32
784.103	16.55
784.28	17.21
784.456	16.11
784.633	14.82
784.809	13.86
784.986	13.16
785.162	11.67
785.339	11.37
785.515	9.9
785.692	8.93
785.868	10.37
786.044	11.8
786.221	13.38
786.397	15.44
786.573	14.25
786.749	15.5
786.926	16.36
787.102	15.35
787.278	15.75
787.454	16.82
787.631	17.43
787.807	18.52
787.983	17.13
788.159	15.16
788.335	14.97
788.511	18.35
788.687	22.28
788.863	21.46
789.039	24.23
789.216	25.07
789.392	23.79
789.568	24.65
789.744	22.88
789.919	23.42
790.095	24.21
790.271	24.23
790.447	21.6
790.623	17.64
790.799	18.23
790.975	18.25
791.151	16.5
791.327	18.35
791.502	20.33
791.678	16.94
791.854	15.77
792.03	15.51
792.205	11.21
792.381	11.85
792.557	13.55
792.733	12.03
792.908	14.8
793.084	14.34
793.259	16.41
793.435	12.93
793.611	16.17
793.786	16.13
793.962	16.04
794.137	19.41
794.313	20.33
794.488	19.63
794.664	19.73
794.839	15.92
795.015	18.18
795.19	15.15
795.366	15.07
795.541	14.98
795.716	13.79
795.892	14.87
796.067	15
796.242	17.32
796.418	18.07
796.593	19.63
796.768	21.01
796.944	19.56
797.119	19.35
797.294	18.93
797.469	18.24
797.644	22.2
797.82	22.03
797.995	22.29
798.17	18.14
798.345	17.89
798.52	13.41
798.695	10.34
798.87	11.53
799.045	10.84
799.22	12.02
799.395	13.77
799.57	11.1
799.745	13.29
799.92	13.97
800.095	13.97
800.27	11.98
800.445	15.12
800.62	16.13
800.795	17.6
800.97	19.93
801.145	20.15
801.319	20.4
801.494	22.67
801.669	21.45
801.844	20.58
802.018	21.97
802.193	20.7
802.368	19.86
802.543	18.74
802.717	20.6
802.892	20.65
803.067	19.83
803.241	21.99
803.416	21.06
803.59	18.15
803.765	15.64
803.94	12.54
804.114	17.65
804.289	18.31
804.463	19.34
804.638	14.76
804.812	10.5
804.986	11.94
805.161	10.31
805.335	9.82
805.51	10.07
805.684	11.1
805.858	13.62
806.033	13.57
806.207	12.18
806.381	11.74
806.556	15.2
806.73	20.02
806.904	17.1
807.078	18.68
807.253	18.6
807.427	21.37
807.601	24.9
807.775	27.35
807.949	22.9
808.123	23.49
808.298	25.11
808.472	21.83
808.646	24.11
808.82	24.32
808.994	17.38
809.168	17.38
809.342	15.47
809.516	8.8
809.69	7.13
809.864	6.22
810.038	9.03
810.212	11.28
810.385	10.39
810.559	2.85
810.733	5.94
810.907	4.16
811.081	-0.16
811.255	0.17
811.428	8.23
811.602	3.07
811.776	7.46
811.95	11.47
812.123	11.04
812.297	9.15
812.471	15.45
812.644	15.83
812.818	25.3
812.992	31.25
813.165	26.09
813.339	18.52
813.512	23.81
813.686	29.11
813.86	26.36
814.033	24.44
814.207	28.41
814.38	24.65
814.554	21.49
814.727	15.74
814.9	17.73
815.074	20.33
815.247	24.56
815.421	24.44
815.594	18.96
815.767	16.47
815.941	13.94
816.114	9.75
816.287	9.79
816.46	16.05
816.634	18.4
816.807	17.2
816.98	18.81
817.153	19.79
817.327	15.78
817.5	18.23
817.673	19.75
817.846	21.43
818.019	27.26
818.192	32.92
818.365	30.88
818.538	33.1
818.711	31.38
818.884	30.22
819.057	27.54
819.23	29.17
819.403	24.84
819.576	22.62
819.749	22.33
819.922	18.39
820.095	15.56
820.268	15.12
820.441	13.6
820.614	12.35
820.786	11.48
820.959	13.85
821.132	13.84
821.305	14.37
821.477	15.24
821.65	15.21
821.823	14.61
821.996	15.16
822.168	15.37
822.341	15.44
822.514	14.83
822.686	15.72
822.859	15.81
823.031	15.9
823.204	16.22
823.376	15.88
823.549	15.73
823.722	16.12
823.894	16.71
824.067	16.45
824.239	16.15
824.411	17.35
824.584	16.77
824.756	16.57
824.929	16.06
825.101	16.76
825.273	15.94
825.446	16.7
825.618	17.52
825.79	17.13
825.963	18.13
826.135	18.76
826.307	18.3
826.479	18.97
826.652	18.81
826.824	18.97
826.996	17.93
827.168	17.94
827.34	16.68
827.512	16.41
827.684	16.99
827.856	17.5
828.029	17.43
828.201	18.48
828.373	18.79
828.545	19.2
828.717	21.13
828.889	21.21
829.061	23.41
829.232	25.51
829.404	23.61
829.576	21.16
829.748	19.58
829.92	21.31
830.092	18.95
830.264	17.24
830.436	14.02
830.607	12.43
830.779	13.27
830.951	13.69
831.123	11.46
831.294	15.43
831.466	13.61
831.638	12.12
831.809	10.97
831.981	15.91
832.153	19.44
832.324	22.66
832.496	20.35
832.667	20.52
832.839	21.25
833.011	22.38
833.182	25.61
833.354	29.82
833.525	29.17
833.697	27.26
833.868	26.22
834.039	22.93
834.211	21.38
834.382	23.08
834.554	21.37
834.725	19.69
834.896	19.06
835.068	19.04
835.239	19.57
835.41	20.25
835.581	21.43
835.753	19.37
835.924	20.41
836.095	20.45
836.266	20.62
836.438	21.4
836.609	22.2
836.78	21.48
836.951	16.83
837.122	11.86
837.293	10.84
837.464	6.96
837.635	7.2
837.806	7.36
837.977	9.61
838.148	9.33
838.319	8.2
838.49	0.56
838.661	0.96
838.832	4.18
839.003	9.78
839.174	3.93
839.345	5.75
839.516	13.62
839.687	15.2
839.857	18.29
840.028	11.61
840.199	23.06
840.37	31.51
840.54	33.51
840.711	31.02
840.882	31.86
841.053	31.9
841.223	34.08
841.394	30.97
841.564	25.56
841.735	23.7
841.906	21.9
842.076	16.31
842.247	10.7
842.417	5.84
842.588	1.63
842.758	2.31
842.929	2.1
843.099	-0.17
843.27	-5.14
843.44	9.38
843.611	16.66
843.781	15.21
843.951	11.63
844.122	21.43
844.292	27.74
844.462	40.04
844.633	34.35
844.803	36.09
844.973	31.98
845.144	35.4
845.314	34.2
845.484	30.54
845.654	42.72
845.824	46.19
845.995	39.76
846.165	38.62
846.335	34.17
846.505	35.06
846.675	43.48
846.845	46.18
847.015	55.51
847.185	53.89
847.355	49.04
847.525	50.96
847.695	49.93
847.865	55.33
848.035	64.25
848.205	82.67
848.375	79.01
848.545	63.33
848.715	47
848.884	35.13
849.054	29.88
849.224	34.18
849.394	27.62
849.564	27.78
849.733	31.37
849.903	25.92
850.073	19.18
850.243	24.06
850.412	27.22
850.582	38.99
850.752	42.2
850.921	45.66
851.091	50.56
851.26	61.04
851.43	52.75
851.599	48.04
851.769	41.54
851.939	54.28
852.108	49.05
852.278	66.72
852.447	66.03
852.616	47.84
852.786	33.12
852.955	28.48
853.125	14.73
853.294	19.41
853.463	21.54
853.633	38.13
853.802	21.8
853.971	41.11
854.141	16.87
854.31	30.34
854.479	45.27
854.648	59.44
854.818	67.13
854.987	63.25
855.156	68.53
855.325	67.32
855.494	52.85
855.663	60.45
855.832	67.37
856.001	72.98
856.171	61.1
856.34	61.9
856.509	44.01
856.678	40.92
856.847	47.15
857.016	43.05
857.185	34.17
857.353	51.78
857.522	55.83
857.691	37.19
857.86	12.09
858.029	26.74
858.198	21.48
858.367	36.5
858.535	37.68
858.704	42.2
858.873	46.78
859.042	59.37
859.21	49.14
859.379	41.22
859.548	28.31
859.717	48
859.885	22.4
860.054	13.56
860.222	13.76
860.391	25.13
860.56	22.77
860.728	19.34
860.897	7.9
861.065	26.14
861.234	27.03
861.402	42.46
861.571	38.03
861.739	43.45
861.908	50.25
862.076	36.64
862.244	19.85
862.413	34.58
862.581	42.27
862.749	36.41
862.918	27.69
863.086	29.79
863.254	8.97
863.423	5.41
863.591	17.9
863.759	5.79
863.927	41.41
864.096	47.79
864.264	43.73
864.432	14.06
864.6	17.8
864.768	45.98
864.936	42.99
865.104	63.34
865.272	57.09
865.44	124.89
865.608	114.38
865.776	83.6
865.944	55.57
866.112	31.07
866.28	42.66
866.448	34.97
866.616	25.19
866.784	31.06
866.952	44.86
867.12	43.62
867.288	29.17
867.455	24.08
867.623	26.04
867.791	28.68
867.959	32.28
868.127	56.51
868.294	57.13
868.462	53.73
868.63	41.37
868.797	9.2
868.965	33.69
869.133	52.51
869.3	35.05
869.468	68.39
869.636	61.9
869.803	66.11
869.971	59.72
870.138	46.59
870.306	36.85
870.473	41.82
870.641	28.91
870.808	3.23
870.975	8.63
871.143	1.29
871.31	-12.2
871.478	-23.17
871.645	-21.25
871.812	-42.91
871.98	-8.21
872.147	7.23
872.314	5.49
872.482	6.75
872.649	14.99
872.816	19.94
872.983	46.12
873.15	35.21
873.318	22.21
873.485	5.94
873.652	-6.38
873.819	-36.24
873.986	-30.56
874.153	-15.36
874.32	-14.51
874.487	-17.37
874.654	-43.47
874.821	-23.36
874.988	-70.21
875.155	-8.81
875.322	29.08
875.489	34.41
875.656	31.49
875.823	37.94
875.99	29.78
876.157	47.41
876.324	55.48
876.49	25.18
876.657	12.73
876.824	22.78
876.991	14.5
877.157	6.46
877.324	35.53
877.491	49.95
877.658	28.74
877.824	43.63
877.991	37.7
878.157	51.5
878.324	80.49
878.491	85.08
878.657	79.52
878.824	76.18
878.99	83.46
879.157	76.68
879.323	66.9
879.49	76.44
879.656	55.95
879.823	45.64
879.989	34.38
880.156	37.64
880.322	36.34
880.488	28.97
880.655	15.12
880.821	13.26
880.987	15.08
881.154	16.38
881.32	13.14
881.486	11.92
881.652	18.05
881.819	18.9
881.985	17.17
882.151	18.13
882.317	18.41
882.483	26.49
882.649	24.13
882.816	19.56
882.982	18.14
883.148	21.17
883.314	23.31
883.48	20.76
883.646	14.04
883.812	17.02
883.978	15.45
884.144	17.11
884.31	16.66
884.476	19.12
884.642	22.32
884.807	24.36
884.973	21.93
885.139	22.65
885.305	23.26
885.471	24.82
885.637	23.01
885.802	23.22
885.968	20.52
886.134	15.45
886.3	12.45
886.465	8.55
886.631	8.64
886.797	8.77
886.962	6.89
887.128	4.63
887.293	5.29
887.459	-1.76
887.625	8.74
887.79	16.48
887.956	23.74
888.121	30.01
888.287	33.31
888.452	31.86
888.618	35.57
888.783	31.23
