Data from 2938120_Reflection_1.txt Node
Date: Sat Jul 11 17:51:07 EDT 2015
User: robert
Spectrometer: USB4E03001
Autoset integration time: false
Trigger mode: 4
Integration Time (sec): 1.000000E-1
Scans to average: 10
Electric dark correction enabled: true
Nonlinearity correction enabled: false
Boxcar width: 5
Stray light correction enabled: false
XAxis mode: Wavelengths
Stop averaging: false
Number of Pixels in Spectrum: 3648
>>>>>Begin Spectral Data<<<<<
177.566	466.67
177.785	-6.21
178.005	73.9
178.225	60.28
178.445	59
178.665	98.61
178.885	108.96
179.105	107.1
179.324	67.48
179.544	17.62
179.764	14.35
179.984	11.33
180.204	29.34
180.423	-27.73
180.643	-310.62
180.863	425.43
181.083	-139.52
181.302	-71.09
181.522	10.44
181.742	64.98
181.961	103.57
182.181	100.65
182.401	47.99
182.621	124.86
182.84	199.72
183.06	128.25
183.279	98.37
183.499	123.36
183.719	122.74
183.938	124.72
184.158	181.5
184.377	154.92
184.597	151.47
184.816	148.32
185.036	139.19
185.256	134.86
185.475	157.31
185.695	141.83
185.914	135.83
186.134	111.29
186.353	120.04
186.572	75.91
186.792	80.23
187.011	100.56
187.231	113.06
187.45	81.52
187.67	94.7
187.889	87.54
188.108	115.34
188.328	130.02
188.547	130.7
188.766	127.73
188.986	149.67
189.205	205.47
189.424	187.74
189.644	209.92
189.863	298.07
190.082	1680.82
190.302	518.36
190.521	464.41
190.74	412.72
190.959	-3052.91
191.178	-1625.86
191.398	1086.11
191.617	324.21
191.836	337.84
192.055	568.64
192.274	462.17
192.494	298.29
192.713	1072.26
192.932	973.72
193.151	-10330.93
193.37	-1971.95
193.589	-434.35
193.808	-2455.41
194.027	-1672.81
194.246	919.64
194.465	17403.39
194.685	1768.1
194.904	-4034.41
195.123	930.69
195.342	-1057.1
195.561	616.2
195.78	241.31
195.999	236.78
196.218	528.18
196.436	384.16
196.655	344.66
196.874	184.32
197.093	180.99
197.312	137.03
197.531	130.78
197.75	131.6
197.969	148.86
198.188	164.74
198.407	171.4
198.625	158.42
198.844	189.68
199.063	169.82
199.282	232.95
199.501	236.2
199.719	396
199.938	274.09
200.157	276.66
200.376	-839.71
200.594	223.22
200.813	153.23
201.032	156.23
201.251	137.18
201.469	194.88
201.688	138.23
201.907	170.08
202.125	147.89
202.344	212.83
202.563	243.89
202.781	292.97
203	216.37
203.218	209.33
203.437	260.98
203.656	264.36
203.874	178.1
204.093	138.18
204.311	120.03
204.53	103.09
204.748	85.5
204.967	72.65
205.185	64.7
205.404	60.53
205.622	61.74
205.841	63.88
206.059	83.5
206.278	95.14
206.496	114.93
206.715	98.09
206.933	103.54
207.151	202.58
207.37	324.07
207.588	409.64
207.806	290.47
208.025	268.46
208.243	27.08
208.461	85.36
208.68	106.4
208.898	-38.18
209.116	68.15
209.335	98.77
209.553	214.64
209.771	106.27
209.989	473.77
210.208	-1030.82
210.426	-960.75
210.644	-1442.3
210.862	388.12
211.081	332.02
211.299	386.21
211.517	646.78
211.735	677.97
211.953	273.15
212.171	284.91
212.39	222.82
212.608	180.79
212.826	131.8
213.044	122.17
213.262	129.23
213.48	92.9
213.698	78.82
213.916	67.19
214.134	49.34
214.352	43.31
214.57	37.11
214.788	57
215.006	63.92
215.224	61.69
215.442	65.37
215.66	50.26
215.878	72.4
216.096	109.57
216.314	114.17
216.532	133.71
216.75	88.43
216.968	124.68
217.185	105.01
217.403	143.67
217.621	183.07
217.839	172.53
218.057	161.84
218.275	177.36
218.492	149.75
218.71	125.04
218.928	91.27
219.146	177.92
219.363	180.75
219.581	338.64
219.799	-177.46
220.017	-2597.94
220.234	-103.26
220.452	12.94
220.67	-27.61
220.887	284.32
221.105	460.46
221.323	238
221.54	124.94
221.758	95.92
221.976	84.03
222.193	84.63
222.411	86.01
222.629	80.59
222.846	93.41
223.064	101.91
223.281	99.57
223.499	87.4
223.716	94.86
223.934	101.9
224.151	99.27
224.369	108.39
224.586	110.79
224.804	102.58
225.021	87.26
225.239	82.69
225.456	56.66
225.674	36.83
225.891	49.8
226.108	46.22
226.326	47.77
226.543	43.55
226.76	24.75
226.978	33.33
227.195	27.82
227.413	44.82
227.63	36.81
227.847	43.38
228.064	44.24
228.282	43.14
228.499	41.01
228.716	36.11
228.934	35.7
229.151	38.68
229.368	33.56
229.585	33.01
229.802	31.56
230.02	32.16
230.237	30.38
230.454	30.64
230.671	27.62
230.888	23.56
231.105	26.13
231.323	23.88
231.54	20.78
231.757	25.82
231.974	31.43
232.191	31.98
232.408	31.32
232.625	35.3
232.842	36.07
233.059	37.58
233.276	41.85
233.493	43.05
233.71	47.5
233.927	47.07
234.144	42.25
234.361	40.79
234.578	38.23
234.795	32.17
235.012	27.19
235.229	25.15
235.446	24.15
235.663	24.13
235.879	21.67
236.096	15.33
236.313	18
236.53	21.76
236.747	27.47
236.964	28.08
237.181	37.29
237.397	38.88
237.614	42.88
237.831	39.86
238.048	41.94
238.264	43.88
238.481	47.26
238.698	42.79
238.915	36.22
239.131	31.51
239.348	30.01
239.565	26.56
239.781	26.56
239.998	24.68
240.215	31.53
240.431	31.77
240.648	29.44
240.865	26.81
241.081	29.78
241.298	31.78
241.514	28.64
241.731	26.78
241.947	25.08
242.164	24.15
242.38	22.98
242.597	19.52
242.814	19.67
243.03	20.03
243.246	20.62
243.463	21.04
243.679	20.18
243.896	20.53
244.112	22.04
244.329	22.48
244.545	25.83
244.762	25.67
244.978	28.02
245.194	27.35
245.411	27.21
245.627	26.55
245.843	22.39
246.06	22.35
246.276	22.04
246.492	22.48
246.709	21.38
246.925	18.97
247.141	17.63
247.357	16.59
247.574	16.91
247.79	17.23
248.006	16.98
248.222	17.39
248.439	16.98
248.655	15.95
248.871	14.54
249.087	15.22
249.303	15.87
249.519	18.51
249.736	19.71
249.952	18.83
250.168	18.4
250.384	19.58
250.6	19.05
250.816	16.52
251.032	19.75
251.248	19.36
251.464	21.27
251.68	21.3
251.896	21.94
252.112	20.51
252.328	20.62
252.544	19.73
252.76	21.35
252.976	22.54
253.192	24.7
253.408	23.67
253.624	25.43
253.84	23.66
254.056	25.69
254.272	23.79
254.487	25.41
254.703	23.89
254.919	23.62
255.135	20.65
255.351	22.34
255.567	19.27
255.782	19.33
255.998	19.12
256.214	19.7
256.43	18.46
256.646	16.79
256.861	16.84
257.077	19.2
257.293	19.15
257.508	18.29
257.724	16.81
257.94	18.3
258.155	17.4
258.371	18.67
258.587	16.73
258.802	15.53
259.018	15.57
259.234	15.59
259.449	14.31
259.665	13.12
259.88	12.81
260.096	11.95
260.312	11.18
260.527	11.52
260.743	10.59
260.958	11.39
261.174	11.27
261.389	10.66
261.605	10.21
261.82	10.93
262.036	12.98
262.251	13.3
262.466	14.48
262.682	16.08
262.897	16.58
263.113	16.29
263.328	16.14
263.543	16.96
263.759	18.77
263.974	18.04
264.189	17.21
264.405	16.58
264.62	16.37
264.835	16.15
265.051	18.18
265.266	18.71
265.481	19.24
265.696	19.66
265.912	18.71
266.127	18.25
266.342	18.9
266.557	18.56
266.773	18.21
266.988	19.45
267.203	18.55
267.418	17.46
267.633	16.51
267.848	17.04
268.064	17.73
268.279	18.16
268.494	19.46
268.709	19.85
268.924	20.25
269.139	19.19
269.354	18.71
269.569	19.06
269.784	18.4
269.999	18.04
270.214	16.2
270.429	15.8
270.644	16.53
270.859	16.18
271.074	15.17
271.289	14.29
271.504	15.57
271.719	15.65
271.934	15.98
272.149	15.76
272.363	15
272.578	14.66
272.793	13.7
273.008	13.23
273.223	12.75
273.438	12.81
273.653	14.13
273.867	13.52
274.082	13.55
274.297	13.4
274.512	14.79
274.726	15.23
274.941	15.29
275.156	15.15
275.371	13.88
275.585	14.18
275.8	16.09
276.015	15.28
276.229	16.16
276.444	14.48
276.659	13.39
276.873	12.05
277.088	11.61
277.302	13.36
277.517	14.42
277.732	15.01
277.946	13.41
278.161	12.36
278.375	12.25
278.59	12.84
278.804	14.52
279.019	16.1
279.233	16.4
279.448	17.13
279.662	17.47
279.877	16.37
280.091	16.55
280.306	18.28
280.52	17.33
280.735	17.7
280.949	15.63
281.163	15.43
281.378	13.88
281.592	15.74
281.806	17.25
282.021	17.1
282.235	18.8
282.449	19.19
282.664	18.48
282.878	18.78
283.092	18.21
283.307	19
283.521	18.89
283.735	19.71
283.949	17.8
284.164	16.7
284.378	16.19
284.592	14.73
284.806	14.3
285.02	13.11
285.234	13.87
285.449	14.52
285.663	14.85
285.877	14.89
286.091	15.5
286.305	15.3
286.519	14.79
286.733	14.51
286.947	14.45
287.161	13.48
287.375	15.28
287.589	15.02
287.803	15.66
288.017	16.17
288.231	17.16
288.445	16.74
288.659	17.89
288.873	19.74
289.087	19.78
289.301	19.3
289.515	21.48
289.729	22.11
289.943	21.69
290.157	21.36
290.371	21.48
290.584	21.05
290.798	21.31
291.012	21.01
291.226	20.78
291.44	21.14
291.654	21.29
291.867	20.17
292.081	19.36
292.295	20.62
292.509	20.15
292.722	18.72
292.936	18.09
293.15	18.58
293.364	19.95
293.577	21.24
293.791	22.54
294.005	23.91
294.218	24.6
294.432	24.14
294.645	23.38
294.859	23.66
295.073	23.78
295.286	23.47
295.5	23.39
295.713	24.38
295.927	22.78
296.14	21.23
296.354	20.56
296.568	19.25
296.781	20.65
296.994	19.41
297.208	18.63
297.421	18.69
297.635	18.3
297.848	18.73
298.062	16.84
298.275	16.04
298.489	16.31
298.702	16.8
298.915	17.56
299.129	16.71
299.342	18.16
299.555	18.54
299.769	19.8
299.982	20.81
300.195	20.09
300.409	21.14
300.622	22.53
300.835	23.49
301.048	22.67
301.262	22.64
301.475	21.56
301.688	21.11
301.901	21.97
302.115	20.66
302.328	20.44
302.541	20.76
302.754	19
302.967	19.9
303.18	18.47
303.393	20.62
303.607	22.23
303.82	22.06
304.033	21.18
304.246	21.31
304.459	21.15
304.672	21.55
304.885	20.97
305.098	22.3
305.311	20.25
305.524	21.13
305.737	19.2
305.95	19.54
306.163	19.52
306.376	19.22
306.589	18.74
306.802	19.34
307.015	19.74
307.228	18.82
307.44	18.25
307.653	19.17
307.866	18.71
308.079	18.89
308.292	15.84
308.505	16.59
308.718	16.21
308.93	17.12
309.143	15.44
309.356	15.07
309.569	13.92
309.781	14.51
309.994	14.28
310.207	15.84
310.42	14.92
310.632	16.13
310.845	15.71
311.058	16.13
311.27	14.5
311.483	16.07
311.696	15.46
311.908	18.51
312.121	18.78
312.333	18.91
312.546	17.35
312.759	18.05
312.971	17.06
313.184	17.02
313.396	16.85
313.609	18.29
313.821	17.7
314.034	18.68
314.246	17.08
314.459	15.42
314.671	16.35
314.884	16.34
315.096	16.97
315.309	18.65
315.521	19.47
315.733	20.27
315.946	19.95
316.158	19.8
316.371	19.23
316.583	20.6
316.795	21.36
317.008	19.96
317.22	20.42
317.432	21.1
317.644	21.31
317.857	21.2
318.069	21.82
318.281	22.99
318.494	24.13
318.706	24.34
318.918	22.98
319.13	22.18
319.342	24.57
319.555	24.76
319.767	25.25
319.979	23.47
320.191	22.85
320.403	23.17
320.615	21.71
320.827	21.8
321.039	22.51
321.252	22.8
321.464	24.74
321.676	23.1
321.888	21.72
322.1	21.61
322.312	21.45
322.524	21.16
322.736	20.53
322.948	20.83
323.16	21.01
323.372	19.48
323.584	18.6
323.796	18.81
324.007	17.58
324.219	17.83
324.431	16.05
324.643	16.74
324.855	17.94
325.067	18.61
325.279	18.21
325.491	17.16
325.702	18.51
325.914	18.03
326.126	16.98
326.338	18.15
326.55	19.14
326.761	20.36
326.973	20.89
327.185	19.44
327.396	18.83
327.608	17.93
327.82	18.68
328.032	18.2
328.243	19.13
328.455	19.42
328.666	18.63
328.878	16.8
329.09	15.67
329.301	13.99
329.513	14.92
329.725	14.31
329.936	15.43
330.148	16.56
330.359	15.04
330.571	15.43
330.782	15.52
330.994	17.08
331.205	19.57
331.417	20.7
331.628	21.36
331.84	21.34
332.051	22.11
332.262	23.63
332.474	21.44
332.685	22.72
332.897	23.07
333.108	21.37
333.319	20.53
333.531	20.64
333.742	21.45
333.953	21.55
334.165	22.05
334.376	22.14
334.587	20.68
334.799	21.56
335.01	21.4
335.221	20.05
335.432	20.27
335.644	19.07
335.855	18.82
336.066	17.7
336.277	17.56
336.488	15.77
336.7	14.2
336.911	14.21
337.122	15.14
337.333	16.12
337.544	17.79
337.755	19.43
337.966	19.32
338.177	17.84
338.388	16.99
338.599	17.95
338.811	18.06
339.022	19.21
339.233	19.57
339.444	18.38
339.655	17.11
339.866	16.12
340.076	15.88
340.287	16.55
340.498	16.56
340.709	16.63
340.92	16.95
341.131	17.36
341.342	17.28
341.553	17.38
341.764	17.07
341.975	17.47
342.185	18.32
342.396	17.11
342.607	17.57
342.818	18.56
343.029	19.51
343.239	19.62
343.45	20.21
343.661	21
343.872	20.66
344.082	20.79
344.293	21.67
344.504	20.39
344.714	21.5
344.925	22
345.136	22.46
345.346	22.02
345.557	21.23
345.768	21.11
345.978	20.48
346.189	20.98
346.399	21.69
346.61	21.19
346.821	20.91
347.031	20.83
347.242	21.42
347.452	19.44
347.663	19.79
347.873	20.49
348.084	20.7
348.294	20.23
348.504	19.35
348.715	19.2
348.925	18.94
349.136	20.18
349.346	20.07
349.557	17.83
349.767	19.57
349.977	19.73
350.188	17.84
350.398	17.69
350.608	16.98
350.819	16.86
351.029	16.01
351.239	15.92
351.449	15.48
351.66	15.17
351.87	16.89
352.08	17.09
352.29	16.22
352.501	18.38
352.711	17.7
352.921	18.06
353.131	18.5
353.341	18.69
353.552	18.07
353.762	17.04
353.972	18.21
354.182	16.72
354.392	15.93
354.602	16.69
354.812	16.54
355.022	16.02
355.232	15.34
355.442	15.28
355.652	15.7
355.862	15.93
356.072	16.66
356.282	13.71
356.492	15.27
356.702	14.8
356.912	14.32
357.122	14.16
357.332	15.88
357.542	16.62
357.752	16.72
357.962	15.74
358.171	14.73
358.381	15.76
358.591	17.4
358.801	17.27
359.011	18.61
359.221	18.71
359.43	17.14
359.64	16.5
359.85	15.29
360.06	15.41
360.269	16.23
360.479	16.26
360.689	14.98
360.899	14.71
361.108	13.81
361.318	13.32
361.528	13.35
361.737	13.64
361.947	13.57
362.156	13.89
362.366	13.9
362.576	13.42
362.785	14.34
362.995	14.92
363.204	14.72
363.414	14.46
363.623	13.96
363.833	14.26
364.042	14.51
364.252	13.94
364.461	14.56
364.671	14.05
364.88	14.45
365.09	13.87
365.299	14.34
365.509	15.53
365.718	15.95
365.927	15.81
366.137	15.16
366.346	14.47
366.555	14.26
366.765	13.71
366.974	13.21
367.183	13.22
367.393	13.66
367.602	12.97
367.811	12.08
368.021	13.18
368.23	13.16
368.439	13.18
368.648	14.59
368.857	15.37
369.067	15.91
369.276	15.42
369.485	14.6
369.694	14.93
369.903	14.83
370.112	14.63
370.321	13.72
370.531	14.38
370.74	14.5
370.949	13.9
371.158	14.15
371.367	13.93
371.576	14.46
371.785	14.2
371.994	13.66
372.203	13.55
372.412	13.66
372.621	14.2
372.83	13.76
373.039	13.93
373.248	13.41
373.457	13.6
373.666	14.05
373.874	14.09
374.083	14.15
374.292	13.86
374.501	13.62
374.71	13.4
374.919	13.13
375.128	13.33
375.336	13.05
375.545	13.38
375.754	12.54
375.963	11.71
376.171	12.16
376.38	12.32
376.589	12.76
376.798	12.55
377.006	12.62
377.215	12.31
377.424	12
377.632	11.78
377.841	11.5
378.05	11.13
378.258	11.57
378.467	11.32
378.675	11.32
378.884	10.54
379.093	10.33
379.301	9.82
379.51	9.99
379.718	10.12
379.927	10.03
380.135	10.05
380.344	10.28
380.552	10.51
380.761	9.9
380.969	9.83
381.177	10.23
381.386	10.7
381.594	10.73
381.803	10.4
382.011	9.75
382.219	9.62
382.428	9.68
382.636	9.44
382.845	8.55
383.053	8.98
383.261	8.9
383.469	8.52
383.678	8.54
383.886	8.94
384.094	9.22
384.302	9.27
384.511	9.78
384.719	9.55
384.927	9.23
385.135	9.9
385.343	9.77
385.552	10.36
385.76	10.46
385.968	10.54
386.176	10.33
386.384	10.09
386.592	9.99
386.8	9.9
387.008	10.01
387.216	10.89
387.424	10.68
387.633	10.66
387.841	10.55
388.049	10.39
388.257	10.13
388.465	9.79
388.672	9.36
388.88	10.07
389.088	9.46
389.296	9.55
389.504	9.17
389.712	8.58
389.92	8.35
390.128	8.29
390.336	8.64
390.544	8
390.751	8.04
390.959	7.85
391.167	7.41
391.375	7.45
391.583	7.2
391.79	6.67
391.998	6.89
392.206	6.96
392.414	6.63
392.621	6.26
392.829	6.62
393.037	6.85
393.244	7.19
393.452	6.72
393.66	7.08
393.867	6.94
394.075	7.2
394.283	7.38
394.49	7.01
394.698	7.26
394.905	7.23
395.113	7.16
395.32	7.1
395.528	6.98
395.735	7.17
395.943	6.79
396.15	6.76
396.358	6.78
396.565	6.7
396.773	7.28
396.98	7.04
397.188	7.11
397.395	7.15
397.602	7.04
397.81	6.89
398.017	6.94
398.225	6.84
398.432	7.2
398.639	7.14
398.847	6.84
399.054	6.46
399.261	6.53
399.468	6.54
399.676	6.57
399.883	6.14
400.09	6.05
400.297	6.33
400.505	6.38
400.712	6.13
400.919	6.08
401.126	6.54
401.333	6.45
401.54	6.46
401.748	6.32
401.955	5.84
402.162	6.45
402.369	6.51
402.576	6.13
402.783	5.97
402.99	6
403.197	5.7
403.404	5.31
403.611	5.42
403.818	5.55
404.025	5.5
404.232	5.91
404.439	5.89
404.646	5.97
404.853	5.98
405.06	6.12
405.267	5.96
405.474	6.2
405.681	6.35
405.887	6.34
406.094	6.1
406.301	6.17
406.508	5.91
406.715	5.81
406.922	5.8
407.128	5.97
407.335	5.93
407.542	5.92
407.749	6.02
407.955	6.06
408.162	6.43
408.369	6.41
408.575	6.61
408.782	6.65
408.989	6.54
409.195	6.44
409.402	6.47
409.609	6.59
409.815	6.7
410.022	6.47
410.228	6.63
410.435	6.43
410.642	6.36
410.848	6.32
411.055	6.72
411.261	6.92
411.468	7.05
411.674	6.86
411.881	6.61
412.087	6.37
412.294	6.5
412.5	6.34
412.706	6.43
412.913	6.3
413.119	5.98
413.326	5.6
413.532	5.21
413.738	5.4
413.945	5.28
414.151	5.68
414.357	5.74
414.564	5.55
414.77	5.62
414.976	5.61
415.182	5.65
415.389	6.08
415.595	6.14
415.801	6.16
416.007	6.04
416.214	6.09
416.42	5.62
416.626	5.75
416.832	5.92
417.038	5.67
417.244	5.43
417.45	5.65
417.657	5.13
417.863	5.08
418.069	5.2
418.275	5.21
418.481	5.04
418.687	5.26
418.893	5.09
419.099	5.04
419.305	4.88
419.511	4.9
419.717	4.66
419.923	4.91
420.129	4.77
420.335	4.75
420.541	4.76
420.746	4.88
420.952	4.76
421.158	4.8
421.364	4.69
421.57	4.82
421.776	4.77
421.982	4.84
422.187	4.84
422.393	4.96
422.599	4.87
422.805	4.74
423.01	4.82
423.216	4.87
423.422	5
423.628	5.18
423.833	5.15
424.039	5.25
424.245	5.36
424.45	5.36
424.656	5.32
424.862	5.47
425.067	5.52
425.273	5.43
425.478	5.37
425.684	5.34
425.889	5.21
426.095	5.21
426.301	5.21
426.506	5.15
426.712	5.17
426.917	5.25
427.123	4.91
427.328	4.94
427.533	5.05
427.739	5.13
427.944	5.05
428.15	5.09
428.355	5.01
428.561	4.98
428.766	4.74
428.971	4.97
429.177	5.08
429.382	5.25
429.587	5.16
429.793	5.11
429.998	5.13
430.203	5.03
430.408	5.06
430.614	5.5
430.819	5.39
431.024	5.56
431.229	5.22
431.434	4.98
431.64	4.9
431.845	4.94
432.05	4.93
432.255	4.81
432.46	4.81
432.665	4.84
432.87	4.52
433.076	4.54
433.281	4.47
433.486	4.45
433.691	4.48
433.896	4.55
434.101	4.44
434.306	4.33
434.511	4.49
434.716	4.52
434.921	4.62
435.126	4.64
435.331	4.7
435.535	4.74
435.74	4.72
435.945	4.76
436.15	4.93
436.355	4.91
436.56	5.01
436.765	4.96
436.97	5.07
437.174	4.99
437.379	5.01
437.584	4.89
437.789	4.94
437.993	5.23
438.198	5.38
438.403	5.25
438.608	5.37
438.812	5.21
439.017	4.93
439.222	4.86
439.426	4.71
439.631	4.68
439.836	4.62
440.04	4.51
440.245	4.39
440.45	4.11
440.654	4.01
440.859	3.9
441.063	3.96
441.268	4.05
441.472	3.94
441.677	4.11
441.881	4.01
442.086	4.03
442.29	4.18
442.495	4.1
442.699	4.07
442.904	4.1
443.108	4.38
443.312	4.36
443.517	4.48
443.721	4.52
443.925	4.39
444.13	4.54
444.334	4.4
444.538	4.14
444.743	4.2
444.947	4.3
445.151	4.25
445.356	4.03
445.56	4.19
445.764	4.16
445.968	4.26
446.173	4.22
446.377	4.13
446.581	4.29
446.785	4.34
446.989	4.26
447.193	4.32
447.398	4.3
447.602	4.26
447.806	4.25
448.01	4.38
448.214	4.27
448.418	4.33
448.622	4.39
448.826	4.35
449.03	4.4
449.234	4.45
449.438	4.4
449.642	4.63
449.846	4.79
450.05	4.77
450.254	4.54
450.458	4.59
450.662	4.68
450.866	4.61
451.069	4.84
451.273	4.78
451.477	4.65
451.681	4.59
451.885	4.6
452.089	4.38
452.292	4.4
452.496	4.6
452.7	4.75
452.904	4.64
453.107	4.63
453.311	4.26
453.515	4.28
453.719	4.44
453.922	4.52
454.126	4.36
454.33	4.6
454.533	4.58
454.737	4.43
454.94	4.37
455.144	4.36
455.348	4.29
455.551	4.54
455.755	4.5
455.958	4.44
456.162	4.48
456.365	4.44
456.569	4.12
456.772	4.11
456.976	4.24
457.179	4.1
457.383	4.11
457.586	4.17
457.79	4.16
457.993	4.32
458.196	4.19
458.4	4.19
458.603	4.1
458.807	4.15
459.01	4.08
459.213	4.1
459.417	4.2
459.62	4.28
459.823	4.4
460.026	4.29
460.23	4.16
460.433	4.29
460.636	4.35
460.839	4.48
461.042	4.69
461.246	4.69
461.449	4.58
461.652	4.53
461.855	4.51
462.058	4.43
462.261	4.52
462.464	4.52
462.668	4.62
462.871	4.54
463.074	4.63
463.277	4.5
463.48	4.53
463.683	4.79
463.886	4.65
464.089	4.57
464.292	4.55
464.495	4.44
464.698	4.44
464.901	4.38
465.104	4.2
465.306	4.05
465.509	4.05
465.712	4.18
465.915	4.06
466.118	4.23
466.321	4.39
466.524	4.26
466.726	4.35
466.929	4.44
467.132	4.23
467.335	4.35
467.538	4.38
467.74	4.29
467.943	4.09
468.146	4.19
468.348	4.19
468.551	4.19
468.754	4.43
468.956	4.55
469.159	4.46
469.362	4.52
469.564	4.69
469.767	4.89
469.969	4.87
470.172	5.14
470.375	4.99
470.577	4.97
470.78	4.73
470.982	4.6
471.185	4.56
471.387	4.55
471.59	4.69
471.792	4.54
471.995	4.3
472.197	4.35
472.399	4.36
472.602	4.45
472.804	4.66
473.007	4.66
473.209	4.72
473.411	4.78
473.614	4.72
473.816	4.67
474.018	4.67
474.22	4.74
474.423	4.72
474.625	4.63
474.827	4.51
475.03	4.34
475.232	4.39
475.434	4.45
475.636	4.44
475.838	4.54
476.04	4.54
476.243	4.62
476.445	4.65
476.647	4.75
476.849	4.66
477.051	4.8
477.253	4.7
477.455	4.69
477.657	4.58
477.859	4.39
478.061	4.46
478.263	4.5
478.465	4.23
478.667	4.26
478.869	4.21
479.071	4.26
479.273	4.08
479.475	3.96
479.677	3.9
479.879	3.74
480.081	3.77
480.283	3.82
480.485	3.83
480.686	4.1
480.888	4.02
481.09	4.02
481.292	3.86
481.494	3.89
481.695	4.02
481.897	4.13
482.099	4.15
482.301	4.18
482.502	4.1
482.704	3.86
482.906	3.77
483.107	3.76
483.309	3.78
483.511	3.81
483.712	3.78
483.914	3.78
484.115	3.8
484.317	3.81
484.519	3.78
484.72	3.77
484.922	3.87
485.123	3.84
485.325	3.89
485.526	3.89
485.728	3.92
485.929	3.91
486.131	3.87
486.332	3.84
486.534	3.86
486.735	3.84
486.936	3.87
487.138	3.85
487.339	3.91
487.541	3.84
487.742	3.79
487.943	3.77
488.144	3.82
488.346	3.89
488.547	3.89
488.748	3.92
488.95	3.95
489.151	3.94
489.352	4.02
489.553	3.99
489.755	4.01
489.956	4.04
490.157	4.04
490.358	3.96
490.559	3.96
490.76	3.93
490.961	3.87
491.163	3.87
491.364	3.86
491.565	3.75
491.766	3.78
491.967	3.85
492.168	3.95
492.369	3.97
492.57	4.04
492.771	3.9
492.972	3.93
493.173	3.95
493.374	4
493.575	4.02
493.776	4.2
493.976	4.33
494.177	4.23
494.378	4.03
494.579	4.04
494.78	4.03
494.981	4.2
495.182	4.12
495.382	4.24
495.583	4.34
495.784	4.32
495.985	4.14
496.185	4.14
496.386	4.03
496.587	4.26
496.788	4.25
496.988	4.34
497.189	4.37
497.39	4.36
497.59	4.34
497.791	4.25
497.992	4.24
498.192	4.25
498.393	4.17
498.593	4.43
498.794	4.36
498.994	4.5
499.195	4.36
499.395	4.39
499.596	4.45
499.796	4.31
499.997	4.34
500.197	4.4
500.398	4.47
500.598	4.55
500.799	4.61
500.999	4.54
501.199	4.33
501.4	4.42
501.6	4.35
501.801	4.37
502.001	4.39
502.201	4.33
502.402	4.23
502.602	4.31
502.802	4.2
503.002	4.1
503.203	4.02
503.403	4.07
503.603	4.02
503.803	4.13
504.003	4.23
504.204	4.36
504.404	4.45
504.604	4.78
504.804	4.77
505.004	4.81
505.204	4.8
505.404	4.83
505.604	4.87
505.804	4.87
506.005	4.72
506.205	4.66
506.405	4.65
506.605	4.6
506.805	4.39
507.005	4.32
507.204	4.38
507.404	4.38
507.604	4.47
507.804	4.55
508.004	4.66
508.204	4.76
508.404	4.78
508.604	4.79
508.804	4.85
509.003	4.86
509.203	4.94
509.403	4.89
509.603	4.87
509.803	4.97
510.002	5.03
510.202	5.07
510.402	5.1
510.602	4.97
510.801	4.93
511.001	4.94
511.201	4.98
511.4	4.96
511.6	5.01
511.8	5
511.999	4.98
512.199	4.95
512.398	4.97
512.598	4.92
512.797	5.05
512.997	5.15
513.197	5.23
513.396	5.19
513.596	5.3
513.795	5.25
513.994	5.32
514.194	5.18
514.393	5.14
514.593	5.08
514.792	5.23
514.992	5.12
515.191	5.07
515.39	5
515.59	4.95
515.789	4.94
515.988	5
516.188	4.97
516.387	4.93
516.586	4.97
516.786	4.83
516.985	4.69
517.184	4.8
517.383	4.87
517.582	4.81
517.782	4.81
517.981	4.76
518.18	4.81
518.379	4.86
518.578	4.93
518.777	4.97
518.976	5.09
519.176	5.04
519.375	5.02
519.574	4.98
519.773	5
519.972	4.98
520.171	5.01
520.37	4.98
520.569	4.92
520.768	5.07
520.967	5.11
521.166	5.15
521.365	5.38
521.564	5.47
521.762	5.57
521.961	5.62
522.16	5.63
522.359	5.62
522.558	5.44
522.757	5.59
522.956	5.43
523.154	5.25
523.353	5.06
523.552	5
523.751	4.99
523.949	4.96
524.148	4.93
524.347	5.02
524.546	4.99
524.744	5.16
524.943	5.16
525.142	5.15
525.34	5.21
525.539	5.27
525.737	5.31
525.936	5.15
526.135	5.01
526.333	4.99
526.532	4.99
526.73	4.86
526.929	4.9
527.127	4.82
527.326	4.86
527.524	4.93
527.723	4.99
527.921	4.99
528.12	5.1
528.318	5.13
528.516	5.15
528.715	5.15
528.913	5.27
529.112	5.28
529.31	5.33
529.508	5.29
529.707	5.24
529.905	5.19
530.103	5.13
530.301	5.14
530.5	5.27
530.698	5.26
530.896	5.38
531.094	5.47
531.293	5.4
531.491	5.49
531.689	5.61
531.887	5.72
532.085	5.87
532.283	5.87
532.481	5.85
532.68	5.77
532.878	5.76
533.076	5.72
533.274	5.61
533.472	5.61
533.67	5.54
533.868	5.46
534.066	5.4
534.264	5.38
534.462	5.38
534.66	5.47
534.858	5.49
535.056	5.57
535.253	5.58
535.451	5.65
535.649	5.75
535.847	5.67
536.045	5.74
536.243	5.81
536.441	5.81
536.638	5.95
536.836	5.85
537.034	5.9
537.232	5.87
537.43	5.86
537.627	5.77
537.825	5.69
538.023	5.8
538.22	5.96
538.418	5.95
538.616	6
538.813	6
539.011	6.14
539.209	6.1
539.406	6.08
539.604	6.15
539.801	6.26
539.999	6.43
540.196	6.41
540.394	6.27
540.591	6.23
540.789	6.16
540.986	6.12
541.184	6.01
541.381	6.04
541.579	6.08
541.776	6.06
541.974	6
542.171	5.95
542.368	5.95
542.566	5.92
542.763	6
542.96	6.12
543.158	6.09
543.355	6.23
543.552	6.25
543.75	6.29
543.947	6.35
544.144	6.46
544.341	6.47
544.539	6.58
544.736	6.72
544.933	6.73
545.13	6.7
545.327	6.9
545.524	6.9
545.722	6.85
545.919	6.87
546.116	7
546.313	7.14
546.51	7.16
546.707	7.16
546.904	7.15
547.101	7.19
547.298	7.12
547.495	7.15
547.692	7.12
547.889	7.36
548.086	7.34
548.283	7.27
548.48	7.33
548.677	7.45
548.874	7.56
549.07	7.66
549.267	7.64
549.464	7.89
549.661	7.81
549.858	8.05
550.055	8.08
550.251	8.27
550.448	8.35
550.645	8.14
550.842	8.18
551.038	8.01
551.235	8.15
551.432	8.15
551.628	8.12
551.825	8.2
552.022	7.97
552.218	8.03
552.415	8.09
552.612	7.94
552.808	8.15
553.005	8.09
553.201	8.27
553.398	8.24
553.594	8.25
553.791	8.37
553.987	8.65
554.184	8.85
554.38	8.72
554.577	8.63
554.773	8.96
554.97	8.83
555.166	8.92
555.362	8.88
555.559	8.89
555.755	9.13
555.952	9.07
556.148	8.82
556.344	8.86
556.541	8.96
556.737	9.12
556.933	9.17
557.129	9.2
557.326	9.36
557.522	9.45
557.718	9.66
557.914	9.56
558.11	9.6
558.307	9.65
558.503	9.83
558.699	10.02
558.895	9.9
559.091	9.77
559.287	10.11
559.483	9.97
559.679	9.92
559.876	9.92
560.072	10.21
560.268	10.24
560.464	10.3
560.66	10.04
560.856	10.01
561.052	10.11
561.247	10.29
561.443	10.37
561.639	10.62
561.835	10.66
562.031	10.58
562.227	10.3
562.423	10.29
562.619	10.45
562.815	10.85
563.01	10.81
563.206	10.94
563.402	10.91
563.598	10.8
563.793	10.67
563.989	11.09
564.185	11.2
564.381	11.41
564.576	11.36
564.772	11.28
564.968	11.03
565.163	10.9
565.359	10.85
565.555	10.74
565.75	10.78
565.946	10.72
566.141	10.48
566.337	10.57
566.532	10.39
566.728	10.39
566.923	10.48
567.119	10.61
567.314	10.96
567.51	11.16
567.705	11.16
567.901	11.18
568.096	11.37
568.292	11.41
568.487	11.43
568.682	11.5
568.878	11.54
569.073	11.61
569.268	11.77
569.464	11.48
569.659	11.4
569.854	11.46
570.05	11.43
570.245	11.48
570.44	11.62
570.635	11.54
570.831	11.59
571.026	11.75
571.221	11.6
571.416	11.47
571.611	11.63
571.806	11.71
572.002	11.85
572.197	11.73
572.392	11.8
572.587	11.8
572.782	11.91
572.977	11.87
573.172	11.79
573.367	11.85
573.562	12.01
573.757	12.02
573.952	11.94
574.147	11.81
574.342	11.97
574.537	11.92
574.732	11.87
574.927	11.78
575.121	12.06
575.316	12
575.511	12.15
575.706	12.08
575.901	12.15
576.096	12.05
576.29	11.95
576.485	11.89
576.68	12.03
576.875	11.91
577.069	11.8
577.264	11.78
577.459	11.99
577.654	11.85
577.848	11.83
578.043	11.69
578.238	11.84
578.432	11.95
578.627	12.33
578.821	12.45
579.016	12.76
579.21	12.96
579.405	12.99
579.6	12.99
579.794	13.1
579.989	13.09
580.183	13.12
580.378	13.09
580.572	13.36
580.766	13.31
580.961	13.22
581.155	13.24
581.35	13.29
581.544	13.13
581.738	13.19
581.933	13.12
582.127	13.44
582.321	13.43
582.516	13.61
582.71	13.77
582.904	13.73
583.099	13.58
583.293	13.45
583.487	13.58
583.681	13.66
583.875	13.7
584.07	13.85
584.264	13.57
584.458	14.29
584.652	14.2
584.846	13.93
585.04	13.63
585.234	13.54
585.428	13.65
585.623	13.59
585.817	13.75
586.011	13.55
586.205	13.43
586.399	13.33
586.593	12.72
586.787	12.8
586.981	12.89
587.174	13.35
587.368	13.6
587.562	13.36
587.756	13.44
587.95	13.15
588.144	13.49
588.338	13.78
588.532	13.99
588.725	14.2
588.919	14.28
589.113	14.34
589.307	14.21
589.501	14.09
589.694	14.39
589.888	14.47
590.082	14.6
590.275	14.6
590.469	14.31
590.663	14.28
590.856	14.1
591.05	13.93
591.244	14.13
591.437	14.2
591.631	14.35
591.824	14.26
592.018	14.22
592.212	14.3
592.405	14.1
592.599	14.22
592.792	14.08
592.986	14.1
593.179	14.17
593.372	14.02
593.566	14.13
593.759	14.08
593.953	14.37
594.146	14.44
594.339	14.56
594.533	14.58
594.726	14.67
594.92	14.83
595.113	14.89
595.306	14.75
595.499	14.67
595.693	14.34
595.886	14.49
596.079	14.37
596.272	14.15
596.466	13.85
596.659	13.94
596.852	13.97
597.045	14.01
597.238	13.99
597.431	14.07
597.624	14.23
597.818	14.3
598.011	14.12
598.204	13.85
598.397	13.92
598.59	14.1
598.783	14.32
598.976	14.19
599.169	14.29
599.362	14.36
599.555	14.67
599.748	14.67
599.941	14.66
600.134	14.49
600.326	14.74
600.519	14.81
600.712	14.73
600.905	14.68
601.098	14.86
601.291	14.88
601.483	14.89
601.676	14.59
601.869	14.53
602.062	14.39
602.255	14.6
602.447	14.66
602.64	14.7
602.833	14.88
603.025	14.73
603.218	14.68
603.411	14.53
603.603	14.53
603.796	14.51
603.989	14.35
604.181	14.44
604.374	14.54
604.566	14.46
604.759	14.49
604.951	14.58
605.144	14.48
605.336	14.45
605.529	14.49
605.721	14.42
605.914	14.58
606.106	14.75
606.299	14.84
606.491	14.81
606.683	14.72
606.876	14.78
607.068	14.43
607.26	14.54
607.453	14.62
607.645	14.62
607.837	14.44
608.03	14.4
608.222	14.42
608.414	14.49
608.606	14.4
608.799	14.57
608.991	14.56
609.183	14.71
609.375	14.89
609.567	14.68
609.759	14.62
609.952	14.85
610.144	14.61
610.336	14.39
610.528	14.43
610.72	14.31
610.912	13.99
611.104	13.89
611.296	13.62
611.488	13.44
611.68	13.76
611.872	13.67
612.064	13.51
612.256	13.75
612.448	14
612.64	13.95
612.832	14.15
613.023	14.57
613.215	14.71
613.407	15.13
613.599	15.09
613.791	14.69
613.983	14.82
614.174	15.19
614.366	15.53
614.558	15.36
614.75	15.33
614.941	15.46
615.133	15.39
615.325	15.35
615.516	15.44
615.708	15.57
615.9	15.89
616.091	15.6
616.283	15.25
616.475	14.74
616.666	15.07
616.858	15.17
617.049	14.96
617.241	15.19
617.432	15.11
617.624	14.89
617.815	14.76
618.007	14.64
618.198	15.12
618.39	15.26
618.581	15.34
618.773	15.04
618.964	14.68
619.155	14.91
619.347	14.7
619.538	14.76
619.729	14.8
619.921	14.93
620.112	14.84
620.303	14.29
620.494	14
620.686	14.13
620.877	14.38
621.068	14.73
621.259	14.58
621.451	14.45
621.642	14.54
621.833	14.92
622.024	14.41
622.215	14.57
622.406	15.11
622.597	15.33
622.788	15.32
622.98	15.34
623.171	15.43
623.362	15.41
623.553	15.69
623.744	15.2
623.935	14.77
624.126	15.32
624.317	15.09
624.508	14.72
624.698	14.83
624.889	15.14
625.08	14.9
625.271	14.65
625.462	14.65
625.653	14.4
625.844	14.55
626.034	14.8
626.225	14.93
626.416	14.92
626.607	15.32
626.798	15.43
626.988	15.11
627.179	15.37
627.37	15.64
627.56	15.74
627.751	15.77
627.942	15.98
628.132	15.95
628.323	15.58
628.514	15.54
628.704	15.61
628.895	15.5
629.085	15.49
629.276	15.62
629.466	15.61
629.657	15.57
629.847	15.7
630.038	15.83
630.228	15.91
630.419	15.98
630.609	16.24
630.8	15.71
630.99	15.55
631.181	15.56
631.371	15.66
631.561	15.3
631.752	15.03
631.942	15.02
632.132	14.98
632.323	14.83
632.513	14.8
632.703	14.73
632.893	14.83
633.084	14.98
633.274	14.8
633.464	14.35
633.654	14.69
633.844	14.74
634.034	14.8
634.225	14.79
634.415	14.66
634.605	14.65
634.795	14.43
634.985	14.64
635.175	14.49
635.365	14.61
635.555	14.73
635.745	14.52
635.935	14.81
636.125	14.74
636.315	14.71
636.505	14.43
636.695	14.58
636.885	15
637.075	15.02
637.265	15.35
637.455	15.32
637.644	15.19
637.834	15.17
638.024	14.93
638.214	15.34
638.404	15.5
638.593	15.95
638.783	15.97
638.973	15.89
639.163	15.65
639.352	15.53
639.542	15.82
639.732	16.23
639.921	16.04
640.111	15.83
640.301	15.3
640.49	14.87
640.68	14.7
640.87	14.81
641.059	14.65
641.249	15.11
641.438	15.01
641.628	15.16
641.817	15.32
642.007	15.51
642.196	15.94
642.386	16.28
642.575	16.69
642.764	16.79
642.954	16.38
643.143	16.2
643.333	15.98
643.522	16.28
643.711	15.7
643.901	15.02
644.09	15.45
644.279	15.71
644.469	14.94
644.658	14.84
644.847	14.8
645.036	15.05
645.226	15.43
645.415	15.33
645.604	14.85
645.793	14.95
645.982	15.11
646.171	14.54
646.361	14.46
646.55	14.73
646.739	14.49
646.928	14.17
647.117	14.35
647.306	14.45
647.495	14.69
647.684	15.05
647.873	14.95
648.062	14.8
648.251	15.41
648.44	15.19
648.629	15.7
648.818	15.83
649.007	16.02
649.196	15.65
649.384	15.55
649.573	15.53
649.762	15.27
649.951	15.43
650.14	15.38
650.328	15.1
650.517	15.26
650.706	15.28
650.895	15.37
651.083	15.33
651.272	15.89
651.461	15.98
651.65	15.76
651.838	15.88
652.027	16.06
652.216	15.98
652.404	15.91
652.593	15.98
652.781	15.38
652.97	14.95
653.158	15.11
653.347	14.67
653.535	14.52
653.724	14.24
653.912	14.05
654.101	14.19
654.289	14.31
654.478	14.43
654.666	14.34
654.855	14.99
655.043	15.27
655.231	15.13
655.42	14.79
655.608	14.68
655.796	15.56
655.985	15.75
656.173	15.37
656.361	15.99
656.55	16.01
656.738	16.47
656.926	16.36
657.114	16.36
657.302	16.09
657.491	16.41
657.679	16.37
657.867	15.94
658.055	16.05
658.243	16.45
658.431	16.05
658.619	15.79
658.807	15.35
658.996	15.15
659.184	15.4
659.372	15.67
659.56	15.71
659.748	15.86
659.936	16
660.124	15.97
660.311	15.85
660.499	15.66
660.687	15.89
660.875	15.63
661.063	15.83
661.251	15.47
661.439	15.41
661.627	15.66
661.814	15.7
662.002	15.68
662.19	15.93
662.378	15.68
662.565	15.67
662.753	15.88
662.941	16.02
663.129	16.2
663.316	16.41
663.504	16.77
663.692	17
663.879	17.01
664.067	16.41
664.254	16.07
664.442	16.55
664.63	16.96
664.817	16.97
665.005	16.96
665.192	16.68
665.38	16.7
665.567	16.44
665.755	16.14
665.942	16.34
666.13	17.2
666.317	17.15
666.504	16.54
666.692	16.24
666.879	15.67
667.067	16
667.254	16.65
667.441	16.48
667.629	16.63
667.816	16.25
668.003	16.06
668.19	15.76
668.378	16.17
668.565	16.66
668.752	16.94
668.939	16.51
669.127	16.69
669.314	15.92
669.501	15.79
669.688	16
669.875	16.53
670.062	16.97
670.249	16.67
670.436	15.98
670.623	16
670.81	15.65
670.997	16.18
671.184	15.89
671.371	16.09
671.558	16.62
671.745	16.19
671.932	15.54
672.119	15.02
672.306	15.59
672.493	16.4
672.68	16.27
672.867	16.66
673.054	16.97
673.24	16.73
673.427	17.06
673.614	16.84
673.801	17.43
673.988	18
674.174	18.09
674.361	17.56
674.548	17.24
674.734	17.03
674.921	16.58
675.108	16.24
675.294	16.49
675.481	15.76
675.668	15.73
675.854	15.85
676.041	15.69
676.227	15.59
676.414	15.85
676.601	15.65
676.787	16.07
676.974	16.39
677.16	16.66
677.347	16.7
677.533	17.01
677.719	17.19
677.906	16.48
678.092	16.7
678.279	16.7
678.465	16.58
678.651	16.38
678.838	16.56
679.024	16.48
679.21	16.75
679.397	16.52
679.583	16.47
679.769	16.01
679.955	16.2
680.142	16.26
680.328	16.33
680.514	16.52
680.7	16.67
680.886	16.14
681.073	16.21
681.259	15.81
681.445	15.61
681.631	15.41
681.817	15.43
682.003	15.28
682.189	15.09
682.375	15.1
682.561	15.03
682.747	14.89
682.933	14.77
683.119	14.68
683.305	14.96
683.491	15.43
683.677	15.55
683.863	16.25
684.049	16.36
684.235	16.5
684.42	16.41
684.606	15.86
684.792	16.2
684.978	16.34
685.164	16.46
685.349	16.07
685.535	16.09
685.721	15.68
685.907	15.15
686.092	15.1
686.278	14.8
686.464	14.74
686.649	15.37
686.835	15.13
687.021	15.41
687.206	15.3
687.392	16.34
687.577	16.8
687.763	17.23
687.948	17.31
688.134	17.72
688.319	18.12
688.505	18.25
688.69	18.14
688.876	18.5
689.061	18.32
689.247	18.25
689.432	17.42
689.618	17.29
689.803	17.72
689.988	17.96
690.174	18.2
690.359	17.83
690.544	17.21
690.73	17.59
690.915	17.5
691.1	17.58
691.285	17.78
691.471	17.98
691.656	18
691.841	17.58
692.026	17.04
692.211	16.3
692.396	16.72
692.582	17.51
692.767	16.76
692.952	16.68
693.137	16.7
693.322	17.2
693.507	16.94
693.692	16.43
693.877	16.17
694.062	16.31
694.247	16.49
694.432	16.03
694.617	16.03
694.802	15.86
694.987	15.84
695.172	15.77
695.357	14.76
695.541	15.06
695.726	15.38
695.911	15.84
696.096	16.44
696.281	16.79
696.466	16.77
696.65	16.97
696.835	16.96
697.02	17.38
697.204	17.44
697.389	17.2
697.574	17.16
697.759	17.37
697.943	17.2
698.128	17.26
698.312	17.13
698.497	17.31
698.682	16.94
698.866	17.1
699.051	16.47
699.235	16.25
699.42	16.76
699.604	17.12
699.789	16.97
699.973	17.45
700.158	17.14
700.342	16.95
700.527	17.01
700.711	17.2
700.895	17.5
701.08	18.08
701.264	18.29
701.448	18.26
701.633	17.91
701.817	17.87
702.001	17.25
702.186	17.06
702.37	17.53
702.554	17.44
702.738	17.47
702.923	17.36
703.107	16.79
703.291	17.03
703.475	16.74
703.659	15.97
703.843	15.68
704.027	16.26
704.212	16.29
704.396	15.84
704.58	15.95
704.764	15.34
704.948	15.84
705.132	15.79
705.316	15.6
705.5	16.45
705.684	16.94
705.868	17.53
706.052	17.16
706.235	18.07
706.419	18.49
706.603	18.93
706.787	19.91
706.971	19.97
707.155	19.75
707.339	19.5
707.522	18.88
707.706	19.35
707.89	18.4
708.074	18.75
708.257	17.48
708.441	17.34
708.625	15.65
708.808	15.6
708.992	15.63
709.176	15.8
709.359	16.24
709.543	16.44
709.727	15.91
709.91	16.31
710.094	16.13
710.277	17.16
710.461	16.6
710.644	17.63
710.828	17.33
711.011	17.2
711.195	18.31
711.378	19.01
711.562	19.02
711.745	19.13
711.928	18.89
712.112	18.95
712.295	18.24
712.478	19.12
712.662	19.33
712.845	19.07
713.028	18.97
713.212	18.11
713.395	17.97
713.578	18.43
713.761	18.41
713.945	19.02
714.128	18.82
714.311	19.55
714.494	18.56
714.677	18.59
714.86	19.14
715.043	19.21
715.227	19.89
715.41	19.35
715.593	18.9
715.776	18.97
715.959	18.84
716.142	18.76
716.325	19.05
716.508	19.49
716.691	19.7
716.874	19.47
717.057	19.02
717.239	18.02
717.422	17.85
717.605	18.33
717.788	18.24
717.971	18.59
718.154	18.74
718.337	18.08
718.519	17.8
718.702	17.25
718.885	16.75
719.068	16.71
719.25	17.38
719.433	17.65
719.616	18.06
719.798	18.34
719.981	17.8
720.164	17.25
720.346	17.7
720.529	18.49
720.712	18.1
720.894	18.2
721.077	18.54
721.259	18.54
721.442	18.56
721.624	17.27
721.807	16.8
721.989	17.11
722.172	17.45
722.354	17.8
722.537	17.85
722.719	19.1
722.901	19.87
723.084	19.6
723.266	19.2
723.448	19.06
723.631	20.37
723.813	20.73
723.995	19.5
724.178	20.63
724.36	20.63
724.542	20.91
724.724	19.88
724.907	19.34
725.089	20.82
725.271	21.24
725.453	20.76
725.635	19.84
725.817	19.83
725.999	21.24
726.181	20.53
726.364	19.01
726.546	18.3
726.728	18.9
726.91	19.69
727.092	18.83
727.274	19.25
727.456	20.06
727.638	20.69
727.819	20.7
728.001	19.76
728.183	19.24
728.365	19.9
728.547	19.32
728.729	19.51
728.911	19.36
729.093	18.5
729.274	18.43
729.456	17.91
729.638	16.97
729.82	17.17
730.001	17.19
730.183	17.95
730.365	18.69
730.546	19.03
730.728	18.52
730.91	17.85
731.091	18.51
731.273	18.13
731.455	17.19
731.636	17.81
731.818	18.28
731.999	19.49
732.181	19.47
732.362	18.58
732.544	19.58
732.725	19.86
732.907	20.42
733.088	20.64
733.27	20.58
733.451	21.76
733.633	21.95
733.814	21.89
733.995	21.29
734.177	22.15
734.358	22.95
734.539	22.62
734.721	23.3
734.902	23.46
735.083	23.62
735.264	24.18
735.446	24.49
735.627	24
735.808	23.79
735.989	23.46
736.17	21.84
736.351	21.24
736.533	21.38
736.714	20.29
736.895	20.29
737.076	19.7
737.257	19.07
737.438	18.59
737.619	19.67
737.8	19.58
737.981	20.5
738.162	20.86
738.343	20.22
738.524	20.17
738.705	20.13
738.886	19.38
739.067	19.57
739.247	20.26
739.428	20.56
739.609	19.23
739.79	18.49
739.971	18.09
740.151	18.81
740.332	19.45
740.513	19.73
740.694	19.45
740.874	19.42
741.055	18.63
741.236	19
741.417	20.23
741.597	20.27
741.778	22.22
741.958	22.58
742.139	22.62
742.32	21.89
742.5	21.22
742.681	22.35
742.861	23.25
743.042	24.45
743.222	22.54
743.403	21.39
743.583	22.56
743.764	21.48
743.944	20.9
744.124	21.42
744.305	22.71
744.485	23.51
744.666	23.98
744.846	24.4
745.026	23.76
745.207	25.51
745.387	25.82
745.567	24.91
745.747	24.64
745.928	23.63
746.108	23.04
746.288	23.38
746.468	23.34
746.648	23.61
746.829	22.87
747.009	22.88
747.189	22.23
747.369	22.7
747.549	23.55
747.729	24.15
747.909	25.29
748.089	24.97
748.269	25.48
748.449	25.01
748.629	24.67
748.809	24.05
748.989	24.18
749.169	24.75
749.349	25.13
749.529	24.85
749.709	25.81
749.889	24.22
750.068	23.53
750.248	22.7
750.428	22.94
750.608	22.23
750.788	23.62
750.967	24.78
751.147	23.52
751.327	23.02
751.507	22.3
751.686	21.07
751.866	22.42
752.046	23.08
752.225	23.23
752.405	22.21
752.585	22.26
752.764	21.18
752.944	20.94
753.123	21.86
753.303	20.63
753.482	20.78
753.662	20.46
753.841	20.42
754.021	20.09
754.2	19.26
754.38	19.54
754.559	20.03
754.739	19.91
754.918	19.1
755.097	17.22
755.277	16.74
755.456	17.08
755.635	18.06
755.815	18.33
755.994	17.36
756.173	17.48
756.352	16.74
756.532	16.87
756.711	17.17
756.89	17.42
757.069	19.45
757.248	21.09
757.427	21.35
757.607	21.35
757.786	20.57
757.965	20.94
758.144	21.38
758.323	22.48
758.502	22.14
758.681	21.81
758.86	21.08
759.039	21.89
759.218	21.57
759.397	21.58
759.576	19.16
759.755	19.04
759.934	20.06
760.113	19.02
760.291	19.08
760.47	20.85
760.649	22.1
760.828	22.58
761.007	21.42
761.186	21.14
761.364	19.82
761.543	20.98
761.722	21.78
761.901	21.26
762.079	22.61
762.258	21.85
762.437	19.69
762.615	19.48
762.794	19.8
762.972	19.84
763.151	19.61
763.33	20.71
763.508	19.83
763.687	19.85
763.865	20.01
764.044	19.38
764.222	20.43
764.401	20.38
764.579	20.34
764.758	19.66
764.936	20.21
765.114	20.43
765.293	19.18
765.471	19.39
765.65	18.97
765.828	18.7
766.006	18.13
766.184	17.46
766.363	17.8
766.541	17.3
766.719	18.14
766.898	18.69
767.076	18.3
767.254	20.69
767.432	22.43
767.61	23.24
767.788	23.48
767.967	25.36
768.145	24.56
768.323	24.47
768.501	24.8
768.679	24.59
768.857	22.9
769.035	24.3
769.213	22.22
769.391	21.61
769.569	21.45
769.747	21.61
769.925	19.58
770.103	20.19
770.281	20.59
770.459	21.22
770.636	21.75
770.814	21.42
770.992	20.08
771.17	20.22
771.348	20.62
771.525	17.45
771.703	18.34
771.881	19.23
772.059	18.25
772.236	19.31
772.414	17.36
772.592	16.82
772.769	17.58
772.947	18.41
773.125	17.05
773.302	18.09
773.48	21.36
773.657	20.47
773.835	22.1
774.013	22.4
774.19	20.99
774.368	21.33
774.545	22.75
774.723	22.03
774.9	23.29
775.077	25.54
775.255	26.29
775.432	26.33
775.61	27.44
775.787	27.62
775.964	29.09
776.142	29.02
776.319	30.2
776.496	28.35
776.674	29.03
776.851	25.49
777.028	26.98
777.205	27.37
777.382	28.25
777.56	26.55
777.737	26.64
777.914	25.48
778.091	27.11
778.268	26.47
778.445	27.04
778.622	27.95
778.8	28.98
778.977	27.86
779.154	26.02
779.331	24.79
779.508	25.2
779.685	23.35
779.862	24.18
780.038	22.59
780.215	23.46
780.392	23.02
780.569	21.98
780.746	23.34
780.923	21.74
781.1	21.47
781.277	23.16
781.453	23.79
781.63	24.95
781.807	25.32
781.984	26.56
782.16	26.62
782.337	26.73
782.514	29.44
782.691	28.43
782.867	31.17
783.044	33.32
783.221	32.51
783.397	33.76
783.574	35.73
783.75	34.25
783.927	32.63
784.103	33.12
784.28	32.42
784.456	31.17
784.633	33.36
784.809	30.94
784.986	29.74
785.162	26.82
785.339	22.91
785.515	19.38
785.692	17.41
785.868	18.29
786.044	16.19
786.221	17.71
786.397	18.93
786.573	17.63
786.749	19.2
786.926	15.69
787.102	18.27
787.278	19.53
787.454	20.95
787.631	24.16
787.807	22.32
787.983	22.22
788.159	22.75
788.335	19.59
788.511	19.4
788.687	21.86
788.863	24.65
789.039	25.24
789.216	25.04
789.392	23.92
789.568	24.19
789.744	27.84
789.919	28.05
790.095	25.22
790.271	27.13
790.447	28.95
790.623	25.08
790.799	22.43
790.975	22.9
791.151	25.31
791.327	25.99
791.502	25.58
791.678	25.97
791.854	27
792.03	30.15
792.205	30.65
792.381	27.64
792.557	31.23
792.733	33.21
792.908	32.7
793.084	30.3
793.259	29.22
793.435	28.42
793.611	25.78
793.786	25.43
793.962	24.33
794.137	21.22
794.313	20.99
794.488	19.78
794.664	19.02
794.839	18.48
795.015	19.32
795.19	19
795.366	23
795.541	23.88
795.716	24.61
795.892	24.48
796.067	27.69
796.242	29.67
796.418	27.75
796.593	29.64
796.768	28.24
796.944	26.44
797.119	27.95
797.294	22.16
797.469	24.31
797.644	23.54
797.82	24.87
797.995	21.77
798.17	21.95
798.345	22.28
798.52	20.02
798.695	20.82
798.87	23.56
799.045	21.03
799.22	23.53
799.395	19.98
799.57	21.71
799.745	21.8
799.92	23.76
800.095	21.62
800.27	22.61
800.445	25.19
800.62	24.39
800.795	23.27
800.97	25.4
801.145	28.19
801.319	30.78
801.494	30.37
801.669	32
801.844	32.41
802.018	34.23
802.193	35.88
802.368	34.45
802.543	35.47
802.717	37.86
802.892	35.66
803.067	34.02
803.241	33
803.416	30.03
803.59	25.54
803.765	24.84
803.94	20.06
804.114	18.65
804.289	20.06
804.463	21.1
804.638	20.43
804.812	25.06
804.986	22.23
805.161	21.6
805.335	24.7
805.51	27.67
805.684	25.18
805.858	28.91
806.033	25.18
806.207	23.53
806.381	22.66
806.556	20.93
806.73	20.62
806.904	22.56
807.078	22.56
807.253	19.37
807.427	19.21
807.601	21.94
807.775	19.05
807.949	23.24
808.123	24.63
808.298	27.65
808.472	29.2
808.646	27.4
808.82	25.89
808.994	25.41
809.168	29.33
809.342	27.33
809.516	27.39
809.69	31.01
809.864	31.8
810.038	31.7
810.212	30.55
810.385	27.38
810.559	29.06
810.733	30.56
810.907	30.41
811.081	28.4
811.255	27.17
811.428	28.9
811.602	28.79
811.776	30.86
811.95	31.84
812.123	29.8
812.297	29.44
812.471	31.81
812.644	30.86
812.818	31.82
812.992	33.07
813.165	35.68
813.339	35.81
813.512	32.04
813.686	26.39
813.86	26.8
814.033	24.08
814.207	28.77
814.38	27.8
814.554	29.72
814.727	30.81
814.9	30.22
815.074	30.56
815.247	29.68
815.421	35.27
815.594	35.83
815.767	37.49
815.941	42.4
816.114	42.42
816.287	42.4
816.46	41.1
816.634	38.35
816.807	38.95
816.98	38.55
817.153	37.41
817.327	29.79
817.5	33.8
817.673	30.06
817.846	27.57
818.019	23.93
818.192	20.19
818.365	19.36
818.538	21.87
818.711	20.66
818.884	19.62
819.057	17.96
819.23	23.49
819.403	22.61
819.576	23.26
819.749	25.62
819.922	24.48
820.095	25.39
820.268	26.97
820.441	27.7
820.614	27.3
820.786	27.79
820.959	26.79
821.132	26.25
821.305	25.2
821.477	23.54
821.65	22.46
821.823	22.93
821.996	22.43
822.168	21.91
822.341	20.94
822.514	20.26
822.686	20.21
822.859	20.23
823.031	20.31
823.204	20.35
823.376	20.22
823.549	20.24
823.722	20.44
823.894	20.78
824.067	20.72
824.239	20.52
824.411	21.5
824.584	21.89
824.756	22.98
824.929	22.06
825.101	23.16
825.273	24.83
825.446	24.92
825.618	25.57
825.79	25.29
825.963	26.7
826.135	28.03
826.307	27.83
826.479	25.23
826.652	24.3
826.824	25.22
826.996	24.13
827.168	24.23
827.34	24.62
827.512	23.73
827.684	24.88
827.856	23.18
828.029	23
828.201	23.22
828.373	24.69
828.545	24.84
828.717	25.08
828.889	25.83
829.061	25.35
829.232	25.47
829.404	25.1
829.576	24.42
829.748	24.27
829.92	25.47
830.092	26.55
830.264	29.15
830.436	29.57
830.607	33.09
830.779	30.8
830.951	29.38
831.123	30.49
831.294	32.25
831.466	31.36
831.638	34.76
831.809	30
831.981	26.08
832.153	27.13
832.324	29.64
832.496	26.76
832.667	29.72
832.839	32.14
833.011	32.98
833.182	30.11
833.354	29.52
833.525	27.12
833.697	31.49
833.868	31.78
834.039	32.23
834.211	30.21
834.382	30.7
834.554	29.74
834.725	27.15
834.896	24.89
835.068	26.31
835.239	24.58
835.41	27.28
835.581	26.32
835.753	27.48
835.924	25.55
836.095	23.8
836.266	20.29
836.438	20.32
836.609	20.98
836.78	23.75
836.951	23.46
837.122	26.35
837.293	23.87
837.464	21.12
837.635	22.64
837.806	22
837.977	24.94
838.148	30.65
838.319	30.85
838.49	33.74
838.661	39.14
838.832	41.7
839.003	41.16
839.174	40.58
839.345	37.73
839.516	38.9
839.687	43.5
839.857	41.62
840.028	35.79
840.199	35
840.37	36.73
840.54	27.79
840.711	25.19
840.882	25.12
841.053	26.95
841.223	31.4
841.394	27.39
841.564	24.5
841.735	25.35
841.906	22.78
842.076	21.99
842.247	17.31
842.417	15.23
842.588	14.28
842.758	16.07
842.929	10.55
843.099	20.68
843.27	25.03
843.44	23.53
843.611	30.37
843.781	27.82
843.951	27.79
844.122	39.29
844.292	39.31
844.462	45.75
844.633	50.89
844.803	46.92
844.973	35.45
845.144	35.09
845.314	41.46
845.484	34.43
845.654	43
845.824	40.54
845.995	31.48
846.165	40.31
846.335	43.58
846.505	48.91
846.675	64.98
846.845	62.28
847.015	59.79
847.185	61.56
847.355	53.87
847.525	57.13
847.695	56.63
847.865	49.76
848.035	48.16
848.205	35.92
848.375	34.38
848.545	17.37
848.715	24.41
848.884	28.52
849.054	21.93
849.224	30.81
849.394	50.45
849.564	46.38
849.733	60.06
849.903	50.98
850.073	71.51
850.243	76.47
850.412	89.54
850.582	88.41
850.752	97.55
850.921	115.65
851.091	101.34
851.26	70.14
851.43	91.56
851.599	82.33
851.769	108.17
851.939	80.71
852.108	69.61
852.278	78.84
852.447	70.82
852.616	66.54
852.786	64.83
852.955	67.02
853.125	60.72
853.294	55.4
853.463	68.65
853.633	59.25
853.802	66.74
853.971	66.16
854.141	56.91
854.31	59.83
854.479	60.92
854.648	59.18
854.818	54.93
854.987	59.91
855.156	58.16
855.325	55.9
855.494	52.17
855.663	51.82
855.832	50.81
856.001	51.91
856.171	58.15
856.34	60.4
856.509	62.47
856.678	60.75
856.847	58.65
857.016	56.09
857.185	42.54
857.353	44.33
857.522	41.47
857.691	37.08
857.86	35
858.029	25.26
858.198	4.48
858.367	15.19
858.535	17.81
858.704	13.74
858.873	33.09
859.042	40.37
859.21	56.22
859.379	58.38
859.548	67.12
859.717	69.13
859.885	74.07
860.054	79.71
860.222	77.03
860.391	58.41
860.56	67.21
860.728	46.53
860.897	55.96
861.065	39.85
861.234	55.64
861.402	57.27
861.571	55.62
861.739	59.7
861.908	71.09
862.076	67.26
862.244	78.58
862.413	72.26
862.581	81.66
862.749	72.07
862.918	73.93
863.086	79.31
863.254	77.13
863.423	84.06
863.591	80.29
863.759	73.28
863.927	63.69
864.096	65.73
864.264	59.72
864.432	50.32
864.6	54.87
864.768	57.7
864.936	44.06
865.104	62.37
865.272	58.78
865.44	61.54
865.608	70.87
865.776	75.54
865.944	87.38
866.112	93.8
866.28	106.54
866.448	110.69
866.616	133.3
866.784	145.74
866.952	81.31
867.12	78.24
867.288	44.24
867.455	27.94
867.623	36.28
867.791	15.53
867.959	15.22
868.127	21.83
868.294	28.45
868.462	7.6
868.63	20.34
868.797	28.49
868.965	28.69
869.133	45.74
869.3	53.45
869.468	61.92
869.636	73.11
869.803	82.77
869.971	89
870.138	111.25
870.306	130.73
870.473	123.75
870.641	117.43
870.808	118.62
870.975	107.01
871.143	100.34
871.31	98.25
871.478	88.14
871.645	81.54
871.812	71.88
871.98	62.15
872.147	49.91
872.314	42.8
872.482	37.42
872.649	30.73
872.816	39.83
872.983	49.48
873.15	42.74
873.318	30.95
873.485	36.25
873.652	33.75
873.819	43.88
873.986	44.08
874.153	57.16
874.32	67.18
874.487	61.67
874.654	37.9
874.821	27.56
874.988	34.07
875.155	48.96
875.322	17.82
875.489	28.21
875.656	4.36
875.823	-14.89
875.99	-20.78
876.157	-34.18
876.324	-7.3
876.49	0.14
876.657	6.42
876.824	-1.41
876.991	-1.26
877.157	9.86
877.324	7.02
877.491	24.02
877.658	27.54
877.824	27.14
877.991	31.54
878.157	32.35
878.324	37.76
878.491	32.24
878.657	43.97
878.824	51.29
878.99	50.48
879.157	47.9
879.323	39.78
879.49	36.16
879.656	41.13
879.823	42.64
879.989	40.97
880.156	39.54
880.322	35.31
880.488	30.19
880.655	20.08
880.821	16.66
880.987	25.39
881.154	16.55
881.32	25.8
881.486	20.47
881.652	22.53
881.819	19.71
881.985	19.7
882.151	21.32
882.317	23.12
882.483	29.96
882.649	32.5
882.816	29.46
882.982	28.57
883.148	28.57
883.314	29.92
883.48	28.35
883.646	29.06
883.812	31.32
883.978	33.14
884.144	32.84
884.31	30.16
884.476	29.32
884.642	29.85
884.807	36.8
884.973	37.49
885.139	38.93
885.305	37.95
885.471	40.56
885.637	36.89
885.802	36.39
885.968	37.84
886.134	40.6
886.3	43.67
886.465	44.64
886.631	43.07
886.797	41.22
886.962	34.31
887.128	37.22
887.293	28.85
887.459	28.38
887.625	27.3
887.79	29
887.956	24.83
888.121	19.96
888.287	16.96
888.452	9.88
888.618	14.24
888.783	24.55
