Data from LC_159_Reflection_2.txt Node
Date: Mon Nov 16 22:31:42 EST 2015
User: robert
Spectrometer: USB4E03001
Autoset integration time: false
Trigger mode: 4
Integration Time (sec): 1.000000E-1
Scans to average: 15
Electric dark correction enabled: true
Nonlinearity correction enabled: false
Boxcar width: 5
Stray light correction enabled: false
XAxis mode: Wavelengths
Stop averaging: false
Number of Pixels in Spectrum: 3648
>>>>>Begin Spectral Data<<<<<
177.566	5006.02
177.785	381.29
178.005	-2984.03
178.225	242.51
178.445	351.09
178.665	2.4
178.885	-318.49
179.105	264.49
179.324	653.27
179.544	-156.22
179.764	-1093.56
179.984	-416.91
180.204	-372.28
180.423	-377.4
180.643	-507.58
180.863	-440.72
181.083	-315.95
181.302	-456.71
181.522	-322.32
181.742	-235.81
181.961	-443.96
182.181	-390.82
182.401	-554.94
182.621	-2073.76
182.84	-883.64
183.06	-534.32
183.279	-271.02
183.499	-228.92
183.719	-166.34
183.938	-162.48
184.158	-214.95
184.377	-124.63
184.597	-173.83
184.816	-114.12
185.036	-73.99
185.256	-47.02
185.475	-68.08
185.695	-94.42
185.914	-122.22
186.134	-226.02
186.353	-342.69
186.572	-435.19
186.792	-628.99
187.011	-249.43
187.231	-223.68
187.45	-131.24
187.67	-480.76
187.889	-1292.75
188.108	2585.02
188.328	-604.8
188.547	-206.34
188.766	-340.62
188.986	-539.72
189.205	-369.63
189.424	-221.89
189.644	-843.68
189.863	-1033.66
190.082	-634.47
190.302	-1672.55
190.521	-866.53
190.74	948.77
190.959	434.27
191.178	583.43
191.398	463.57
191.617	389.56
191.836	409.29
192.055	785.62
192.274	349.19
192.494	399.03
192.713	351.81
192.932	831.65
193.151	707.45
193.37	1384.47
193.589	-884.14
193.808	-234.31
194.027	-355.92
194.246	-2689.11
194.465	558.21
194.685	1579.17
194.904	806.04
195.123	-1201.1
195.342	-730.61
195.561	-299.67
195.78	-393.85
195.999	19070.42
196.218	650.03
196.436	532.64
196.655	-2435.06
196.874	-869.17
197.093	-828.15
197.312	-407.89
197.531	1219.77
197.75	430.71
197.969	-1390.78
198.188	-312.4
198.407	-52.75
198.625	-70.75
198.844	-84.48
199.063	-31.53
199.282	-98.39
199.501	-69.21
199.719	-59.92
199.938	-4.65
200.157	5.09
200.376	17.77
200.594	-2.74
200.813	-46.09
201.032	-52.47
201.251	-39.56
201.469	-51.29
201.688	-47.86
201.907	-196.04
202.125	-372.48
202.344	15871.43
202.563	3204.48
202.781	511.57
203	1359.14
203.218	1169.5
203.437	1058.59
203.656	524.87
203.874	316.87
204.093	321.3
204.311	362.24
204.53	338.54
204.748	485
204.967	310.29
205.185	293.27
205.404	387.72
205.622	239.59
205.841	162.42
206.059	150.78
206.278	181.66
206.496	257.39
206.715	182.67
206.933	190.83
207.151	164.81
207.37	195.65
207.588	260.65
207.806	226.95
208.025	509.2
208.243	-1020.83
208.461	1882.06
208.68	-16831.76
208.898	736.19
209.116	734.04
209.335	697.46
209.553	781.21
209.771	7044.58
209.989	1470.38
210.208	3107.98
210.426	-4758.7
210.644	2723.84
210.862	-2454.83
211.081	1150.23
211.299	-428.79
211.517	2104.35
211.735	-511.74
211.953	-150528.57
212.171	-2856.63
212.39	-9000.9
212.608	-22482.61
212.826	921.23
213.044	645.19
213.262	518.57
213.48	2606.96
213.698	400.19
213.916	525.38
214.134	350.63
214.352	771.17
214.57	483.48
214.788	604
215.006	533.14
215.224	459.14
215.442	339.76
215.66	261.33
215.878	238.64
216.096	194.33
216.314	216.09
216.532	385.52
216.75	313.32
216.968	309.92
217.185	635.56
217.403	1059.06
217.621	-3074.94
217.839	-1020.79
218.057	-1412.02
218.275	2331.55
218.492	763.08
218.71	1189.67
218.928	330.57
219.146	301.97
219.363	242.94
219.581	196.08
219.799	132.51
220.017	113.86
220.234	105.31
220.452	97.27
220.67	98.59
220.887	98.79
221.105	131.1
221.323	110
221.54	116.22
221.758	119.37
221.976	139.54
222.193	125.05
222.411	95.76
222.629	110.67
222.846	117.75
223.064	119.4
223.281	114.78
223.499	100.51
223.716	93.71
223.934	65.75
224.151	71.35
224.369	48.25
224.586	65.66
224.804	65.48
225.021	53.84
225.239	46.84
225.456	53.98
225.674	44.9
225.891	32.25
226.108	53.82
226.326	57.09
226.543	48.13
226.76	49.97
226.978	42.88
227.195	52.07
227.413	44.93
227.63	42.07
227.847	33.67
228.064	30.84
228.282	27.45
228.499	23.32
228.716	20.81
228.934	18.2
229.151	19.61
229.368	18.87
229.585	15.67
229.802	17.23
230.02	16
230.237	18.11
230.454	20.35
230.671	23.05
230.888	21.55
231.105	24.09
231.323	27.7
231.54	26.37
231.757	27.59
231.974	24.93
232.191	20.55
232.408	24.59
232.625	22.96
232.842	22.67
233.059	19.93
233.276	23.15
233.493	23.86
233.71	26.17
233.927	28.43
234.144	31.41
234.361	33.65
234.578	37.83
234.795	30.72
235.012	31.56
235.229	31.01
235.446	31.21
235.663	31.7
235.879	29.83
236.096	27.62
236.313	25.76
236.53	17.99
236.747	19.51
236.964	14.55
237.181	19.1
237.397	15.88
237.614	14.75
237.831	13.39
238.048	11.45
238.264	16.36
238.481	13.74
238.698	17.37
238.915	19.75
239.131	16.97
239.348	21.32
239.565	23.2
239.781	25.87
239.998	25.82
240.215	26.96
240.431	28.4
240.648	23.8
240.865	24.66
241.081	21.72
241.298	20.65
241.514	21.16
241.731	18.05
241.947	18.14
242.164	17.34
242.38	16.18
242.597	15.37
242.814	15.12
243.03	15.55
243.246	16.02
243.463	16.96
243.679	18.33
243.896	17.48
244.112	20.86
244.329	20.1
244.545	20.29
244.762	19.8
244.978	21.07
245.194	22.98
245.411	21.36
245.627	20.89
245.843	19.98
246.06	18.26
246.276	17.98
246.492	15.96
246.709	16.04
246.925	15.1
247.141	15.38
247.357	15.11
247.574	14.58
247.79	14.75
248.006	14.12
248.222	13.53
248.439	14.18
248.655	15.3
248.871	15.61
249.087	15.57
249.303	15.76
249.519	16.37
249.736	16.95
249.952	16.31
250.168	18.41
250.384	17.96
250.6	18.61
250.816	16.8
251.032	14.2
251.248	13.64
251.464	13.86
251.68	15.78
251.896	15.21
252.112	14.72
252.328	16.15
252.544	15.05
252.76	15.92
252.976	15.33
253.192	16.02
253.408	17.67
253.624	21.41
253.84	21.09
254.056	22.26
254.272	23.62
254.487	25.19
254.703	24.23
254.919	24.72
255.135	25.78
255.351	28.51
255.567	30.69
255.782	30.58
255.998	23.84
256.214	25.18
256.43	21.05
256.646	19.31
256.861	17.67
257.077	18.14
257.293	17.14
257.508	15.95
257.724	15.84
257.94	14.76
258.155	13.35
258.371	13.13
258.587	12.71
258.802	12.67
259.018	13.75
259.234	12.86
259.449	12.49
259.665	12.22
259.88	12.79
260.096	12.86
260.312	12.26
260.527	12.82
260.743	13.21
260.958	13.22
261.174	13.43
261.389	13.7
261.605	14.38
261.82	14.64
262.036	15.4
262.251	15.25
262.466	14.68
262.682	16.61
262.897	15.31
263.113	16.29
263.328	16.98
263.543	17.51
263.759	17.59
263.974	18.7
264.189	19.73
264.405	19.8
264.62	19.47
264.835	19.57
265.051	16.61
265.266	19.66
265.481	18.97
265.696	19.46
265.912	18.48
266.127	15.9
266.342	15.76
266.557	15.75
266.773	15.23
266.988	15.28
267.203	16.03
267.418	15.77
267.633	14.07
267.848	14.29
268.064	12.06
268.279	12.46
268.494	11.52
268.709	10.99
268.924	11
269.139	12.04
269.354	11.41
269.569	10.31
269.784	9.89
269.999	9.69
270.214	9.41
270.429	10.58
270.644	10.11
270.859	11.06
271.074	9.92
271.289	9.01
271.504	8.47
271.719	9.6
271.934	9.6
272.149	10.24
272.363	10.78
272.578	9.62
272.793	9.2
273.008	9.05
273.223	9.51
273.438	9.54
273.653	9.78
273.867	8.46
274.082	7.95
274.297	7.91
274.512	9.49
274.726	8.87
274.941	10.93
275.156	11.49
275.371	13.9
275.585	14.94
275.8	16.13
276.015	16.18
276.229	17.14
276.444	18.03
276.659	18.81
276.873	18.16
277.088	19.65
277.302	18.94
277.517	18.43
277.732	17.78
277.946	17.16
278.161	18.05
278.375	17.32
278.59	18.45
278.804	16.78
279.019	16.31
279.233	14.91
279.448	14.06
279.662	13.71
279.877	14.58
280.091	13.9
280.306	12.59
280.52	11.67
280.735	10.84
280.949	11.59
281.163	11.84
281.378	11.37
281.592	11.29
281.806	11.11
282.021	10.83
282.235	10.52
282.449	10.3
282.664	11.48
282.878	10.89
283.092	12.31
283.307	10.62
283.521	11.16
283.735	10.67
283.949	12.25
284.164	11.56
284.378	11.43
284.592	10.66
284.806	10.76
285.02	9.69
285.234	9.65
285.449	8.74
285.663	9.27
285.877	9.34
286.091	9.44
286.305	7.79
286.519	7.85
286.733	7.5
286.947	8.02
287.161	7.56
287.375	8.21
287.589	7.61
287.803	7.76
288.017	7.83
288.231	7.37
288.445	7.79
288.659	9.37
288.873	9.02
289.087	10.23
289.301	10.59
289.515	11.64
289.729	11.78
289.943	12.85
290.157	13.06
290.371	14.02
290.584	14.17
290.798	15.15
291.012	14.92
291.226	14.88
291.44	15
291.654	14.48
291.867	13.25
292.081	12.53
292.295	12.15
292.509	12.15
292.722	11.18
292.936	10.58
293.15	9.78
293.364	9.29
293.577	9.62
293.791	8.73
294.005	9.68
294.218	10.24
294.432	10.14
294.645	10.55
294.859	10.41
295.073	9.71
295.286	10.89
295.5	10.58
295.713	10.58
295.927	11.39
296.14	12.59
296.354	12.13
296.568	12.18
296.781	12.87
296.994	12.97
297.208	12.25
297.421	12.26
297.635	11.19
297.848	11.16
298.062	11.34
298.275	11.8
298.489	11.48
298.702	11.74
298.915	11.74
299.129	11.75
299.342	11.79
299.555	12.49
299.769	13.33
299.982	14.2
300.195	15.15
300.409	15.12
300.622	14.2
300.835	14.21
301.048	13.92
301.262	13.37
301.475	13.21
301.688	13.08
301.901	13.61
302.115	13.94
302.328	13.98
302.541	13.1
302.754	13.05
302.967	13.63
303.18	13.69
303.393	13.58
303.607	13.26
303.82	13.73
304.033	13.47
304.246	13.8
304.459	13.07
304.672	12.94
304.885	13.49
305.098	12.85
305.311	12.01
305.524	11.88
305.737	11.81
305.95	13.55
306.163	12.23
306.376	11.72
306.589	10.66
306.802	9.94
307.015	9.95
307.228	10.34
307.44	10.51
307.653	10.37
307.866	9.87
308.079	11.55
308.292	11.41
308.505	12.08
308.718	12.31
308.93	12.33
309.143	13.18
309.356	13.25
309.569	13.15
309.781	14.72
309.994	14.74
310.207	14.67
310.42	13.04
310.632	11.84
310.845	11.56
311.058	11.01
311.27	12.68
311.483	12.69
311.696	12.25
311.908	11.96
312.121	11.48
312.333	12.2
312.546	11.49
312.759	11.5
312.971	12.04
313.184	12.88
313.396	13.79
313.609	13.53
313.821	12.55
314.034	13.69
314.246	13.54
314.459	12.82
314.671	11.97
314.884	11.6
315.096	12.65
315.309	12.62
315.521	13.28
315.733	12.39
315.946	10.78
316.158	11.11
316.371	10.17
316.583	10.9
316.795	11.54
317.008	12.66
317.22	15.7
317.432	15.45
317.644	14.78
317.857	13.23
318.069	13.59
318.281	14.27
318.494	14
318.706	15.29
318.918	14.67
319.13	14.8
319.342	14.36
319.555	13
319.767	12.94
319.979	13.92
320.191	14.02
320.403	14.27
320.615	14.34
320.827	14.68
321.039	13.58
321.252	13.07
321.464	11.49
321.676	12.25
321.888	11.03
322.1	11.54
322.312	9.93
322.524	8.92
322.736	8.38
322.948	7.57
323.16	6.86
323.372	7.11
323.584	7.55
323.796	7.68
324.007	6.17
324.219	6.54
324.431	5.78
324.643	6.62
324.855	6.5
325.067	7.53
325.279	7.47
325.491	7.73
325.702	7.24
325.914	6.92
326.126	8.94
326.338	9.64
326.55	9.76
326.761	9.99
326.973	10.53
327.185	12.29
327.396	11.66
327.608	12.45
327.82	13.39
328.032	13.58
328.243	13.21
328.455	12.63
328.666	11.83
328.878	11.71
329.09	11.77
329.301	11.72
329.513	11.47
329.725	12.54
329.936	12.73
330.148	12.39
330.359	11.46
330.571	12.41
330.782	11.67
330.994	13.08
331.205	13.63
331.417	13.77
331.628	14.04
331.84	13.44
332.051	12.15
332.262	11.36
332.474	11.21
332.685	12.88
332.897	12.69
333.108	13.36
333.319	12.79
333.531	12.33
333.742	12.89
333.953	11.76
334.165	11.75
334.376	12.75
334.587	13.01
334.799	12.6
335.01	12.27
335.221	12.44
335.432	11.28
335.644	10.94
335.855	11.08
336.066	10.7
336.277	11.97
336.488	12.26
336.7	10.16
336.911	10.66
337.122	11.05
337.333	11.09
337.544	11.7
337.755	11.74
337.966	11.3
338.177	10.61
338.388	10.2
338.599	10.12
338.811	9.84
339.022	11.5
339.233	11.2
339.444	11.75
339.655	10.51
339.866	9.7
340.076	10.83
340.287	11.67
340.498	12.57
340.709	12.62
340.92	11.59
341.131	11.81
341.342	11.8
341.553	11.33
341.764	10.95
341.975	12.16
342.185	12.1
342.396	11.36
342.607	11.23
342.818	11.42
343.029	11.78
343.239	12.52
343.45	12.46
343.661	12
343.872	12.31
344.082	12.2
344.293	11.73
344.504	11.67
344.714	11.29
344.925	10.89
345.136	11.25
345.346	10.15
345.557	10.42
345.768	10.09
345.978	9.82
346.189	9.91
346.399	9.89
346.61	10.44
346.821	10.43
347.031	11.21
347.242	10.91
347.452	10.42
347.663	11.59
347.873	11.34
348.084	10.91
348.294	11.69
348.504	11.04
348.715	11.14
348.925	10.06
349.136	9.95
349.346	8.39
349.557	8.8
349.767	8.94
349.977	8.56
350.188	8.98
350.398	10.54
350.608	10.53
350.819	11.02
351.029	10.89
351.239	11.1
351.449	10.79
351.66	12.2
351.87	13.15
352.08	12.27
352.29	12.39
352.501	11.16
352.711	10.06
352.921	10.01
353.131	9.53
353.341	9.73
353.552	9.71
353.762	10.06
353.972	9.86
354.182	10.11
354.392	10.22
354.602	9.7
354.812	9.78
355.022	10.18
355.232	9.53
355.442	10.14
355.652	10.16
355.862	9.79
356.072	9.79
356.282	8.8
356.492	8.25
356.702	8.41
356.912	9.26
357.122	9.78
357.332	9.18
357.542	9.75
357.752	9.47
357.962	9.46
358.171	9.69
358.381	10.59
358.591	11.08
358.801	10.45
359.011	10.6
359.221	10.03
359.43	9.78
359.64	10.43
359.85	11.04
360.06	10.79
360.269	10.56
360.479	10.46
360.689	9.49
360.899	9.5
361.108	9.56
361.318	9.58
361.528	9.43
361.737	8.9
361.947	8.12
362.156	7.57
362.366	7.82
362.576	7.6
362.785	7.55
362.995	7.19
363.204	7.1
363.414	7.32
363.623	7.17
363.833	7.65
364.042	7.92
364.252	8.63
364.461	8.51
364.671	8.01
364.88	8.63
365.09	9.02
365.299	9.38
365.509	8.92
365.718	8.42
365.927	7.81
366.137	7.41
366.346	7.62
366.555	7.11
366.765	6.96
366.974	7.47
367.183	7.22
367.393	6.43
367.602	6.26
367.811	6.53
368.021	6.63
368.23	7.1
368.439	6.73
368.648	7.08
368.857	7.6
369.067	7.71
369.276	7.7
369.485	7.98
369.694	8.46
369.903	8.88
370.112	9.04
370.321	9.08
370.531	8.99
370.74	9.31
370.949	8.4
371.158	8.4
371.367	8.33
371.576	8.11
371.785	7.14
371.994	6.65
372.203	6.58
372.412	6.56
372.621	6.53
372.83	6.86
373.039	7
373.248	7.43
373.457	7.2
373.666	7.15
373.874	6.82
374.083	7.73
374.292	8.24
374.501	8.16
374.71	7.63
374.919	7.96
375.128	7.76
375.336	7.49
375.545	7.3
375.754	6.76
375.963	6.41
376.171	6.4
376.38	6.19
376.589	6.33
376.798	6.17
377.006	7.13
377.215	7.03
377.424	7.15
377.632	7.07
377.841	7.17
378.05	7.41
378.258	7.52
378.467	7.73
378.675	7.59
378.884	7.26
379.093	7.12
379.301	6.32
379.51	6.22
379.718	5.87
379.927	5.88
380.135	5.37
380.344	5.33
380.552	5.45
380.761	5.53
380.969	5.61
381.177	5.53
381.386	5.28
381.594	5.28
381.803	5.47
382.011	5.62
382.219	5.15
382.428	4.94
382.636	4.8
382.845	5.05
383.053	5.14
383.261	5.15
383.469	5.68
383.678	6.22
383.886	6.28
384.094	5.78
384.302	5.79
384.511	6.5
384.719	7.22
384.927	7.18
385.135	7.14
385.343	7.11
385.552	6.64
385.76	6.21
385.968	5.81
386.176	5.57
386.384	5.46
386.592	5.03
386.8	4.81
387.008	4.47
387.216	4.82
387.424	4.65
387.633	4.56
387.841	4.67
388.049	4.71
388.257	4.75
388.465	5.07
388.672	5.43
388.88	5.44
389.088	5.25
389.296	5.45
389.504	5.51
389.712	5.59
389.92	5.55
390.128	5.63
390.336	5.65
390.544	5.82
390.751	5.5
390.959	5.42
391.167	5.8
391.375	5.83
391.583	5.75
391.79	5.5
391.998	5.35
392.206	5.45
392.414	5.37
392.621	5.32
392.829	5.5
393.037	5.74
393.244	5.7
393.452	5.75
393.66	6.09
393.867	6.19
394.075	6.11
394.283	6.29
394.49	6.11
394.698	6.27
394.905	6.24
395.113	5.78
395.32	5.79
395.528	5.73
395.735	5.59
395.943	5.37
396.15	5.4
396.358	5.45
396.565	5.35
396.773	5.68
396.98	5.71
397.188	5.61
397.395	5.76
397.602	5.74
397.81	5.47
398.017	5.69
398.225	5.44
398.432	5.38
398.639	5.42
398.847	5.45
399.054	4.86
399.261	4.51
399.468	4.69
399.676	4.53
399.883	4.33
400.09	4.82
400.297	4.59
400.505	5.03
400.712	4.63
400.919	4.81
401.126	4.92
401.333	5.09
401.54	5.34
401.748	5.47
401.955	5.8
402.162	6.01
402.369	5.87
402.576	5.79
402.783	5.6
402.99	5.78
403.197	5.51
403.404	5.11
403.611	5.23
403.818	5.15
404.025	4.95
404.232	4.85
404.439	4.72
404.646	4.48
404.853	4.35
405.06	4.16
405.267	4.1
405.474	4.07
405.681	4.1
405.887	3.78
406.094	3.78
406.301	3.85
406.508	3.96
406.715	4.15
406.922	4.33
407.128	4.18
407.335	4.22
407.542	4.28
407.749	4.26
407.955	4.4
408.162	4.57
408.369	4.92
408.575	4.76
408.782	4.63
408.989	4.37
409.195	4.38
409.402	4.72
409.609	5.02
409.815	5.08
410.022	5.27
410.228	5.16
410.435	5.4
410.642	4.74
410.848	4.99
411.055	4.68
411.261	4.85
411.468	4.94
411.674	4.85
411.881	4.55
412.087	4.75
412.294	4.48
412.5	4.22
412.706	3.97
412.913	4.23
413.119	3.84
413.326	4.02
413.532	4.09
413.738	3.68
413.945	3.86
414.151	3.77
414.357	3.7
414.564	3.65
414.77	3.83
414.976	3.84
415.182	4.11
415.389	4.16
415.595	3.99
415.801	3.75
416.007	4.12
416.214	3.92
416.42	4.11
416.626	4.03
416.832	4.05
417.038	4.07
417.244	4.22
417.45	3.87
417.657	4.11
417.863	4.38
418.069	4.55
418.275	4.49
418.481	4.49
418.687	4.35
418.893	4.34
419.099	4.39
419.305	4.43
419.511	4.39
419.717	4.47
419.923	4.22
420.129	4.24
420.335	4.12
420.541	4.18
420.746	4.17
420.952	4.35
421.158	4.28
421.364	4.28
421.57	4.41
421.776	4.37
421.982	4.36
422.187	4.35
422.393	4.23
422.599	4.2
422.805	4.1
423.01	4.05
423.216	3.89
423.422	3.84
423.628	3.82
423.833	3.69
424.039	3.7
424.245	3.75
424.45	3.89
424.656	3.92
424.862	3.94
425.067	3.95
425.273	4.04
425.478	4.09
425.684	4.13
425.889	4.34
426.095	4.42
426.301	4.43
426.506	4.42
426.712	4.5
426.917	4.38
427.123	4.51
427.328	4.54
427.533	4.58
427.739	4.49
427.944	4.48
428.15	4.24
428.355	4.22
428.561	4.24
428.766	4.16
428.971	4.13
429.177	4.25
429.382	4.17
429.587	4.37
429.793	4.18
429.998	4.28
430.203	4.25
430.408	4.22
430.614	4.17
430.819	4.14
431.024	4.29
431.229	4.15
431.434	4.27
431.64	4.14
431.845	4
432.05	4.15
432.255	4.11
432.46	4.13
432.665	4.13
432.87	4.12
433.076	4.02
433.281	3.97
433.486	4.05
433.691	3.84
433.896	3.86
434.101	3.74
434.306	3.75
434.511	3.69
434.716	3.77
434.921	3.69
435.126	3.45
435.331	3.49
435.535	3.45
435.74	3.4
435.945	3.58
436.15	3.54
436.355	3.8
436.56	3.9
436.765	4.1
436.97	3.95
437.174	4.12
437.379	4.31
437.584	4.5
437.789	4.42
437.993	4.37
438.198	4.43
438.403	4.64
438.608	4.48
438.812	4.29
439.017	4.12
439.222	4.16
439.426	4.17
439.631	4.21
439.836	3.92
440.04	4.13
440.245	4.12
440.45	3.99
440.654	3.85
440.859	3.74
441.063	3.7
441.268	3.71
441.472	3.68
441.677	3.62
441.881	3.47
442.086	3.57
442.29	3.28
442.495	3.21
442.699	3.35
442.904	3.31
443.108	3.38
443.312	3.39
443.517	3.29
443.721	3.27
443.925	3.17
444.13	3.36
444.334	3.41
444.538	3.48
444.743	3.56
444.947	3.33
445.151	3.37
445.356	3.35
445.56	3.43
445.764	3.44
445.968	3.46
446.173	3.52
446.377	3.48
446.581	3.47
446.785	3.56
446.989	3.62
447.193	3.68
447.398	3.67
447.602	3.71
447.806	3.83
448.01	4.03
448.214	4.2
448.418	4.27
448.622	4.34
448.826	4.25
449.03	4.15
449.234	4.19
449.438	4.14
449.642	4.28
449.846	4.36
450.05	4.22
450.254	4.13
450.458	4.28
450.662	4.21
450.866	4.1
451.069	4.17
451.273	4.17
451.477	3.97
451.681	3.97
451.885	3.68
452.089	3.59
452.292	3.45
452.496	3.5
452.7	3.14
452.904	3.06
453.107	3.09
453.311	3.3
453.515	3.38
453.719	3.35
453.922	3.64
454.126	3.75
454.33	3.82
454.533	3.83
454.737	3.63
454.94	3.74
455.144	3.97
455.348	4.04
455.551	3.93
455.755	3.75
455.958	3.85
456.162	3.63
456.365	3.74
456.569	3.57
456.772	3.7
456.976	3.82
457.179	3.82
457.383	3.69
457.586	3.68
457.79	3.56
457.993	3.78
458.196	3.62
458.4	3.67
458.603	3.53
458.807	3.64
459.01	3.75
459.213	3.62
459.417	3.46
459.62	3.51
459.823	3.46
460.026	3.52
460.23	3.5
460.433	3.63
460.636	3.65
460.839	3.66
461.042	3.71
461.246	3.68
461.449	3.74
461.652	3.96
461.855	3.74
462.058	3.79
462.261	3.64
462.464	3.58
462.668	3.59
462.871	3.57
463.074	3.59
463.277	3.35
463.48	3.23
463.683	3.39
463.886	3.37
464.089	3.52
464.292	3.58
464.495	3.65
464.698	3.63
464.901	3.72
465.104	3.62
465.306	3.8
465.509	3.97
465.712	3.86
465.915	3.9
466.118	3.69
466.321	3.8
466.524	3.76
466.726	3.81
466.929	3.85
467.132	3.78
467.335	3.83
467.538	3.62
467.74	3.62
467.943	3.82
468.146	3.73
468.348	3.82
468.551	3.96
468.754	4.02
468.956	4.03
469.159	4.15
469.362	4.15
469.564	4.18
469.767	4.28
469.969	4.14
470.172	3.97
470.375	3.94
470.577	4.02
470.78	3.82
470.982	3.68
471.185	3.67
471.387	3.69
471.59	3.67
471.792	3.74
471.995	3.69
472.197	3.63
472.399	3.71
472.602	3.62
472.804	3.54
473.007	3.52
473.209	3.56
473.411	3.41
473.614	3.3
473.816	3.21
474.018	3.23
474.22	3.32
474.423	3.46
474.625	3.5
474.827	3.68
475.03	3.82
475.232	3.92
475.434	3.94
475.636	4.17
475.838	4.15
476.04	4.1
476.243	3.97
476.445	4.06
476.647	4.02
476.849	3.83
477.051	3.63
477.253	3.71
477.455	3.63
477.657	3.55
477.859	3.53
478.061	3.44
478.263	3.51
478.465	3.52
478.667	3.32
478.869	3.31
479.071	3.43
479.273	3.49
479.475	3.17
479.677	3.1
479.879	3.08
480.081	3.13
480.283	3.31
480.485	3.25
480.686	3.21
480.888	3.35
481.09	3.4
481.292	3.25
481.494	3.34
481.695	3.45
481.897	3.33
482.099	3.3
482.301	3.31
482.502	3.22
482.704	3.26
482.906	3.27
483.107	3.23
483.309	3.19
483.511	3.29
483.712	3.18
483.914	3.15
484.115	3.2
484.317	3.2
484.519	3.15
484.72	3.14
484.922	3.11
485.123	3.16
485.325	3.13
485.526	3.16
485.728	3.1
485.929	3.14
486.131	3.15
486.332	3.18
486.534	3.13
486.735	3.15
486.936	3.13
487.138	3.14
487.339	3.09
487.541	3.1
487.742	3.05
487.943	3.07
488.144	3.05
488.346	2.99
488.547	3.01
488.748	3.14
488.95	3.08
489.151	3.14
489.352	3.16
489.553	3.15
489.755	3.15
489.956	3.13
490.157	3.18
490.358	3.19
490.559	3.34
490.76	3.31
490.961	3.18
491.163	3.25
491.364	3.26
491.565	3.19
491.766	3.23
491.967	3.26
492.168	3.28
492.369	3.24
492.57	3.28
492.771	3.27
492.972	3.25
493.173	3.35
493.374	3.32
493.575	3.26
493.776	3.34
493.976	3.43
494.177	3.46
494.378	3.64
494.579	3.54
494.78	3.76
494.981	3.7
495.182	3.62
495.382	3.58
495.583	3.61
495.784	3.64
495.985	3.62
496.185	3.54
496.386	3.41
496.587	3.49
496.788	3.6
496.988	3.55
497.189	3.57
497.39	3.67
497.59	3.67
497.791	3.71
497.992	3.67
498.192	3.74
498.393	3.73
498.593	3.89
498.794	3.71
498.994	3.76
499.195	3.69
499.395	3.74
499.596	3.81
499.796	3.73
499.997	3.74
500.197	3.86
500.398	3.88
500.598	3.9
500.799	3.7
500.999	3.73
501.199	3.64
501.4	3.57
501.6	3.53
501.801	3.54
502.001	3.64
502.201	3.66
502.402	3.63
502.602	3.66
502.802	3.79
503.002	3.96
503.203	4.07
503.403	4.02
503.603	4.08
503.803	4.12
504.003	4.09
504.204	4.12
504.404	4.05
504.604	3.93
504.804	3.93
505.004	3.88
505.204	3.97
505.404	3.93
505.604	4.09
505.804	4.01
506.005	3.93
506.205	3.87
506.405	3.99
506.605	4.08
506.805	4.3
507.005	4.28
507.204	4.21
507.404	4.09
507.604	4
507.804	3.89
508.004	4.03
508.204	4.17
508.404	4.13
508.604	4.07
508.804	4.13
509.003	4.07
509.203	4.03
509.403	4.03
509.603	4.1
509.803	4.27
510.002	4.35
510.202	4.27
510.402	4.18
510.602	4.37
510.801	4.33
511.001	4.34
511.201	4.4
511.4	4.41
511.6	4.44
511.8	4.37
511.999	4.44
512.199	4.4
512.398	4.44
512.598	4.58
512.797	4.61
512.997	4.82
513.197	4.76
513.396	4.82
513.596	4.89
513.795	5.04
513.994	5.16
514.194	4.98
514.393	5.15
514.593	5.28
514.792	5.14
514.992	5.06
515.191	4.87
515.39	4.89
515.59	4.71
515.789	4.75
515.988	4.58
516.188	4.55
516.387	4.58
516.586	4.45
516.786	4.43
516.985	4.46
517.184	4.41
517.383	4.56
517.582	4.61
517.782	4.72
517.981	4.69
518.18	4.79
518.379	4.8
518.578	4.78
518.777	4.86
518.976	4.74
519.176	4.84
519.375	4.97
519.574	4.87
519.773	4.82
519.972	4.68
520.171	4.62
520.37	4.62
520.569	4.62
520.768	4.62
520.967	4.67
521.166	4.78
521.365	4.75
521.564	4.76
521.762	4.9
521.961	4.95
522.16	5.05
522.359	5.1
522.558	4.99
522.757	5.08
522.956	5.09
523.154	5
523.353	5.02
523.552	4.97
523.751	4.94
523.949	4.89
524.148	4.88
524.347	5.03
524.546	5.06
524.744	5.09
524.943	5.1
525.142	5.06
525.34	5.13
525.539	5.1
525.737	5.18
525.936	5.27
526.135	5.25
526.333	5.21
526.532	5.18
526.73	5.2
526.929	5.17
527.127	5.1
527.326	5.11
527.524	5.11
527.723	5.13
527.921	5.1
528.12	5.02
528.318	5.03
528.516	5.08
528.715	5.09
528.913	5.06
529.112	5.08
529.31	5.08
529.508	5.11
529.707	5.09
529.905	5.09
530.103	5.08
530.301	5.09
530.5	5.12
530.698	5.13
530.896	5.21
531.094	5.23
531.293	5.31
531.491	5.44
531.689	5.48
531.887	5.58
532.085	5.61
532.283	5.6
532.481	5.68
532.68	5.6
532.878	5.66
533.076	5.63
533.274	5.61
533.472	5.64
533.67	5.55
533.868	5.58
534.066	5.59
534.264	5.5
534.462	5.57
534.66	5.56
534.858	5.68
535.056	5.62
535.253	5.57
535.451	5.7
535.649	5.72
535.847	5.92
536.045	5.87
536.243	5.94
536.441	6.18
536.638	6.24
536.836	6.25
537.034	6.17
537.232	6.27
537.43	6.37
537.627	6.39
537.825	6.34
538.023	6.22
538.22	6.34
538.418	6.27
538.616	6.31
538.813	6.32
539.011	6.41
539.209	6.61
539.406	6.61
539.604	6.74
539.801	6.87
539.999	7.04
540.196	7.11
540.394	7.16
540.591	7.23
540.789	7.08
540.986	6.99
541.184	6.97
541.381	6.92
541.579	6.85
541.776	6.81
541.974	6.72
542.171	6.68
542.368	6.69
542.566	6.66
542.763	6.65
542.96	6.73
543.158	6.84
543.355	6.88
543.552	6.96
543.75	7.16
543.947	7.04
544.144	7.02
544.341	7.07
544.539	7.12
544.736	7.2
544.933	7.17
545.13	7.21
545.327	7.13
545.524	7.12
545.722	7.12
545.919	7.11
546.116	7.36
546.313	7.5
546.51	7.51
546.707	7.47
546.904	7.47
547.101	7.57
547.298	7.74
547.495	7.8
547.692	7.78
547.889	7.75
548.086	7.72
548.283	7.72
548.48	7.88
548.677	7.87
548.874	7.99
549.07	8.09
549.267	8.17
549.464	8
549.661	8.09
549.858	8.3
550.055	8.5
550.251	8.51
550.448	8.57
550.645	8.6
550.842	8.81
551.038	8.84
551.235	8.64
551.432	8.6
551.628	8.82
551.825	9
552.022	9.04
552.218	9.09
552.415	9.31
552.612	9.25
552.808	9.03
553.005	9.02
553.201	9.13
553.398	9.33
553.594	9.4
553.791	9.45
553.987	9.47
554.184	9.55
554.38	9.44
554.577	9.25
554.773	9.52
554.97	9.71
555.166	9.88
555.362	9.89
555.559	10.09
555.755	10.17
555.952	10.11
556.148	10.02
556.344	10
556.541	10.07
556.737	10.29
556.933	10.2
557.129	10.15
557.326	10.1
557.522	10.09
557.718	10.08
557.914	10.03
558.11	10.2
558.307	10.37
558.503	10.54
558.699	10.7
558.895	10.96
559.091	11.12
559.287	11.36
559.483	11.43
559.679	11.56
559.876	11.6
560.072	11.8
560.268	11.83
560.464	11.91
560.66	11.88
560.856	12.08
561.052	11.96
561.247	12.07
561.443	12.06
561.639	12.31
561.835	12.39
562.031	12.39
562.227	12.5
562.423	12.56
562.619	12.6
562.815	12.69
563.01	12.63
563.206	12.74
563.402	12.72
563.598	12.71
563.793	12.58
563.989	12.49
564.185	12.6
564.381	12.72
564.576	12.88
564.772	12.91
564.968	12.96
565.163	12.95
565.359	12.75
565.555	12.68
565.75	12.87
565.946	12.96
566.141	13.21
566.337	13.26
566.532	13.4
566.728	13.44
566.923	13.48
567.119	13.45
567.314	13.42
567.51	13.64
567.705	13.88
567.901	13.94
568.096	13.95
568.292	14.08
568.487	14.18
568.682	14.01
568.878	13.95
569.073	14.21
569.268	14.28
569.464	14.53
569.659	14.64
569.854	14.78
570.05	14.84
570.245	14.84
570.44	14.76
570.635	14.85
570.831	14.83
571.026	15.05
571.221	14.91
571.416	15.06
571.611	15.11
571.806	15.08
572.002	15
572.197	15.06
572.392	15.1
572.587	15.13
572.782	15.15
572.977	15.37
573.172	15.33
573.367	15.48
573.562	15.54
573.757	15.51
573.952	15.68
574.147	15.86
574.342	16.02
574.537	16.06
574.732	16.15
574.927	16.18
575.121	16.2
575.316	16.29
575.511	16.24
575.706	16.29
575.901	16.37
576.096	16.6
576.29	16.55
576.485	16.52
576.68	16.82
576.875	16.82
577.069	16.88
577.264	16.8
577.459	17.11
577.654	17.23
577.848	17.4
578.043	17.6
578.238	17.4
578.432	17.31
578.627	17.36
578.821	17.39
579.016	17.39
579.21	17.59
579.405	17.7
579.6	17.55
579.794	17.67
579.989	17.57
580.183	17.67
580.378	17.83
580.572	18.12
580.766	18.06
580.961	18.08
581.155	18.45
581.35	18.65
581.544	18.83
581.738	18.68
581.933	18.79
582.127	19.2
582.321	19.33
582.516	19.46
582.71	19.57
582.904	19.68
583.099	19.59
583.293	19.51
583.487	19.31
583.681	19.43
583.875	19.6
584.07	19.5
584.264	19.14
584.458	19.06
584.652	18.81
584.846	18.76
585.04	18.96
585.234	19.16
585.428	19.12
585.623	19.12
585.817	19.04
586.011	19.11
586.205	19.63
586.399	19.8
586.593	19.87
586.787	20.23
586.981	20.14
587.174	20.05
587.368	19.89
587.562	20.06
587.756	20.11
587.95	20.07
588.144	20.15
588.338	19.98
588.532	20.2
588.725	20.2
588.919	20.19
589.113	20.25
589.307	20.33
589.501	20.5
589.694	20.37
589.888	20.57
590.082	20.94
590.275	21.01
590.469	20.98
590.663	20.77
590.856	20.87
591.05	20.94
591.244	21.06
591.437	21.14
591.631	21.15
591.824	21.32
592.018	21.35
592.212	21.24
592.405	21.13
592.599	21.32
592.792	21.39
592.986	21.44
593.179	21.45
593.372	21.52
593.566	21.71
593.759	21.67
593.953	21.89
594.146	21.78
594.339	21.76
594.533	22.14
594.726	21.92
594.92	21.99
595.113	21.88
595.306	21.81
595.499	21.77
595.693	21.66
595.886	21.84
596.079	21.74
596.272	21.9
596.466	21.98
596.659	21.88
596.852	22.04
597.045	22.09
597.238	22.16
597.431	22.29
597.624	22.26
597.818	22.3
598.011	22.33
598.204	22.32
598.397	22.39
598.59	22.36
598.783	22.47
598.976	22.31
599.169	22.51
599.362	22.51
599.555	22.61
599.748	23.02
599.941	22.84
600.134	22.91
600.326	23.09
600.519	23.26
600.712	23.27
600.905	23.12
601.098	23.56
601.291	23.64
601.483	23.8
601.676	23.76
601.869	23.7
602.062	24.22
602.255	24.1
602.447	23.99
602.64	23.78
602.833	24.05
603.025	24.09
603.218	23.93
603.411	23.82
603.603	23.64
603.796	23.49
603.989	23.44
604.181	23.29
604.374	23.42
604.566	23.49
604.759	23.38
604.951	23.27
605.144	23.34
605.336	23.38
605.529	23.46
605.721	23.61
605.914	23.86
606.106	23.86
606.299	24.04
606.491	24.12
606.683	24.11
606.876	24.22
607.068	24.32
607.26	24.43
607.453	24.32
607.645	24.25
607.837	24.29
608.03	24.36
608.222	24.29
608.414	24.27
608.606	24.35
608.799	24.55
608.991	24.6
609.183	24.5
609.375	24.41
609.567	24.51
609.759	24.54
609.952	24.57
610.144	24.42
610.336	24.54
610.528	24.34
610.72	24.21
610.912	24.13
611.104	24.38
611.296	24.4
611.488	24.61
611.68	24.65
611.872	24.79
612.064	25.09
612.256	25.24
612.448	25.48
612.64	25.54
612.832	25.59
613.023	25.63
613.215	25.55
613.407	25.72
613.599	25.61
613.791	25.55
613.983	25.34
614.174	25.09
614.366	25.18
614.558	25.12
614.75	25.14
614.941	25.34
615.133	25.5
615.325	25.69
615.516	25.79
615.708	25.81
615.9	25.82
616.091	25.77
616.283	25.92
616.475	25.68
616.666	25.73
616.858	26.22
617.049	26.12
617.241	26.22
617.432	26.24
617.624	26.33
617.815	26.21
618.007	26.72
618.198	27.03
618.39	27.31
618.581	27.76
618.773	27.75
618.964	27.5
619.155	27.66
619.347	27.65
619.538	27.54
619.729	27.45
619.921	27.44
620.112	27.16
620.303	27.25
620.494	26.92
620.686	26.72
620.877	26.8
621.068	26.82
621.259	26.77
621.451	26.69
621.642	26.65
621.833	26.56
622.024	26.91
622.215	27.08
622.406	27.1
622.597	27.26
622.788	27.19
622.98	27.09
623.171	27.31
623.362	27.54
623.553	27.9
623.744	27.84
623.935	27.87
624.126	27.8
624.317	27.68
624.508	27.63
624.698	27.43
624.889	27.61
625.08	27.66
625.271	27.7
625.462	27.6
625.653	27.04
625.844	27.12
626.034	27.13
626.225	27.03
626.416	27.01
626.607	26.99
626.798	27.26
626.988	27.11
627.179	27.2
627.37	27.07
627.56	27.07
627.751	27.57
627.942	27.8
628.132	27.75
628.323	27.92
628.514	28.12
628.704	28.19
628.895	28.08
629.085	28.09
629.276	28
629.466	27.93
629.657	27.83
629.847	27.59
630.038	27.59
630.228	28
630.419	27.97
630.609	27.86
630.8	27.75
630.99	27.78
631.181	28.19
631.371	28.45
631.561	28.69
631.752	28.91
631.942	28.83
632.132	28.89
632.323	28.67
632.513	28.8
632.703	29.07
632.893	29.08
633.084	29.02
633.274	28.78
633.464	28.49
633.654	28.35
633.844	28.27
634.034	28.35
634.225	28.19
634.415	28.04
634.605	28.16
634.795	28.1
634.985	28.38
635.175	28.41
635.365	28.39
635.555	28.7
635.745	28.76
635.935	28.99
636.125	28.98
636.315	29.11
636.505	29.4
636.695	29.25
636.885	29.06
637.075	28.79
637.265	28.77
637.455	28.87
637.644	28.65
637.834	28.87
638.024	28.69
638.214	28.95
638.404	29.17
638.593	29.1
638.783	29.25
638.973	29.52
639.163	29.31
639.352	29.54
639.542	29.86
639.732	30.06
639.921	30.11
640.111	30.46
640.301	30.49
640.49	30.32
640.68	30.1
640.87	29.95
641.059	29.86
641.249	30.38
641.438	30.34
641.628	29.72
641.817	29.56
642.007	29.67
642.196	29.23
642.386	29.21
642.575	29.24
642.764	29.48
642.954	29.5
643.143	29.63
643.333	29.77
643.522	29.98
643.711	30.35
643.901	30.39
644.09	30.45
644.279	30.74
644.469	30.81
644.658	31.07
644.847	31.49
645.036	31.58
645.226	31.26
645.415	31.31
645.604	31.15
645.793	31.22
645.982	31.24
646.171	31.08
646.361	31.35
646.55	31.71
646.739	31.36
646.928	31.25
647.117	31.36
647.306	31.79
647.495	31.59
647.684	31.61
647.873	31.92
648.062	32.24
648.251	32.32
648.44	32
648.629	31.66
648.818	31.86
649.007	31.49
649.196	31.68
649.384	31.63
649.573	31.8
649.762	31.6
649.951	31.26
650.14	31.22
650.328	31.3
650.517	31.44
650.706	31.54
650.895	31.68
651.083	32.12
651.272	31.67
651.461	31.67
651.65	32.02
651.838	32.07
652.027	32.1
652.216	32.03
652.404	32.07
652.593	32.23
652.781	31.92
652.97	31.88
653.158	31.92
653.347	32.3
653.535	32.19
653.724	31.74
653.912	32.36
654.101	32.4
654.289	32.52
654.478	32.58
654.666	32.43
654.855	32.38
655.043	31.88
655.231	31.44
655.42	31.33
655.608	31.7
655.796	31.52
655.985	30.99
656.173	31.17
656.361	31.07
656.55	30.87
656.738	30.76
656.926	31.19
657.114	31.64
657.302	31.99
657.491	31.96
657.679	31.8
657.867	32.06
658.055	31.97
658.243	31.85
658.431	31.97
658.619	32.15
658.807	32.45
658.996	32.51
659.184	32.41
659.372	32.42
659.56	32.45
659.748	32.21
659.936	32.32
660.124	32.56
660.311	32.68
660.499	32.79
660.687	32.85
660.875	32.78
661.063	32.62
661.251	32.83
661.439	32.71
661.627	32.83
661.814	33.06
662.002	32.79
662.19	32.56
662.378	32.29
662.565	32.28
662.753	32.12
662.941	32.27
663.129	32.46
663.316	32.47
663.504	32.35
663.692	32.75
663.879	32.81
664.067	33.33
664.254	33.7
664.442	33.88
664.63	33.86
664.817	33.98
665.005	33.82
665.192	34.08
665.38	33.88
665.567	34.11
665.755	33.95
665.942	34.12
666.13	33.84
666.317	34.04
666.504	34.3
666.692	34.28
666.879	34.41
667.067	34.18
667.254	33.69
667.441	33.83
667.629	33.85
667.816	33.5
668.003	33.59
668.19	33.77
668.378	33.44
668.565	33.31
668.752	33.31
668.939	33.43
669.127	33.53
669.314	33.63
669.501	33.9
669.688	33.78
669.875	34.13
670.062	34.11
670.249	34.3
670.436	34.41
670.623	34.32
670.81	34.28
670.997	33.83
671.184	34.05
671.371	34.58
671.558	34.42
671.745	34.62
671.932	34.13
672.119	33.81
672.306	33.86
672.493	34
672.68	34.03
672.867	34.26
673.054	34.3
673.24	34.37
673.427	34.23
673.614	34.38
673.801	34.68
673.988	35.63
674.174	36.01
674.361	35.77
674.548	35.7
674.734	35.7
674.921	35.87
675.108	36.58
675.294	36.41
675.481	36.13
675.668	36.12
675.854	35.93
676.041	35.72
676.227	35.61
676.414	35.99
676.601	36.44
676.787	36.66
676.974	36.46
677.16	36.16
677.347	35.76
677.533	36.03
677.719	35.71
677.906	35.43
678.092	35.5
678.279	35.36
678.465	35.02
678.651	34.58
678.838	34.71
679.024	34.43
679.21	34.34
679.397	34.83
679.583	35.09
679.769	35.15
679.955	34.89
680.142	34.78
680.328	35.17
680.514	34.98
680.7	34.78
680.886	35.01
681.073	35.4
681.259	35.09
681.445	35.03
681.631	34.71
681.817	34.92
682.003	35.29
682.189	34.89
682.375	34.54
682.561	35.02
682.747	35.58
682.933	35.6
683.119	35.49
683.305	35.6
683.491	35.86
683.677	35.85
683.863	36.23
684.049	36.39
684.235	36.8
684.42	36.98
684.606	36.55
684.792	36.72
684.978	36.48
685.164	36.86
685.349	37.41
685.535	37.5
685.721	37.42
685.907	36.83
686.092	37.06
686.278	36.97
686.464	36.85
686.649	37.12
686.835	36.68
687.021	37.19
687.206	37.11
687.392	36.59
687.577	36.26
687.763	36.24
687.948	36.5
688.134	36.43
688.319	36.62
688.505	36.5
688.69	36.86
688.876	36.86
689.061	36.46
689.247	36.45
689.432	36.54
689.618	36.73
689.803	37.46
689.988	37.1
690.174	36.83
690.359	36.58
690.544	36.5
690.73	36.49
690.915	36.34
691.1	36.35
691.285	36.52
691.471	37.04
691.656	37.16
691.841	36.57
692.026	37
692.211	37.52
692.396	37.82
692.582	38.44
692.767	38.49
692.952	38.93
693.137	38.89
693.322	38.59
693.507	38.86
693.692	39.05
693.877	38.83
694.062	38.99
694.247	38.62
694.432	39.1
694.617	39.19
694.802	38.84
694.987	39.03
695.172	39.24
695.357	39.41
695.541	38.95
695.726	38.97
695.911	39.72
696.096	39.22
696.281	39.63
696.466	38.91
696.65	38.68
696.835	39.08
697.02	39.12
697.204	38.82
697.389	38.75
697.574	38.58
697.759	38.45
697.943	37.75
698.128	37.94
698.312	37.71
698.497	37.47
698.682	37.3
698.866	37
699.051	36.9
699.235	36.84
699.42	36.71
699.604	36.76
699.789	36.69
699.973	36.87
700.158	37.01
700.342	37.12
700.527	37.45
700.711	37.93
700.895	37.87
701.08	37.76
701.264	37.93
701.448	37.84
701.633	37.89
701.817	37.66
702.001	37.81
702.186	37.47
702.37	37.5
702.554	37.71
702.738	37.32
702.923	37.68
703.107	38.49
703.291	38.75
703.475	39.13
703.659	39.09
703.843	39.46
704.027	40.15
704.212	40.57
704.396	40.99
704.58	40.67
704.764	40.62
704.948	39.88
705.132	39.06
705.316	39.17
705.5	39.33
705.684	39.82
705.868	39.73
706.052	38.67
706.235	38.45
706.419	37.85
706.603	38.07
706.787	38.18
706.971	39.25
707.155	39.1
707.339	39.49
707.522	39.35
707.706	39.07
707.89	38.88
708.074	39.23
708.257	39.21
708.441	39.46
708.625	39.71
708.808	40.22
708.992	40
709.176	40.2
709.359	39.55
709.543	39.94
709.727	39.8
709.91	39.98
710.094	40.54
710.277	41.21
710.461	41.1
710.644	41.01
710.828	40.39
711.011	40.39
711.195	40.15
711.378	40.32
711.562	39.96
711.745	39.92
711.928	39.71
712.112	39
712.295	38.7
712.478	38.57
712.662	38.47
712.845	38.37
713.028	38.58
713.212	38.66
713.395	38.01
713.578	38.18
713.761	38.52
713.945	38.62
714.128	38.88
714.311	39.12
714.494	39.25
714.677	39.65
714.86	39.97
715.043	39.91
715.227	40.03
715.41	40.47
715.593	40.32
715.776	40.45
715.959	40.38
716.142	40.93
716.325	40.79
716.508	40.64
716.691	40.75
716.874	41.05
717.057	40.86
717.239	41.36
717.422	41.21
717.605	41.35
717.788	41.4
717.971	42.18
718.154	40.94
718.337	40.95
718.519	40.95
718.702	41.35
718.885	41.66
719.068	41.46
719.25	41.18
719.433	41.8
719.616	41.58
719.798	40.91
719.981	40.78
720.164	41.83
720.346	41.63
720.529	41.89
720.712	40.7
720.894	40.46
721.077	40.75
721.259	40.98
721.442	41.21
721.624	41.1
721.807	41.29
721.989	40.41
722.172	40.36
722.354	40.23
722.537	40.48
722.719	39.99
722.901	39.66
723.084	39.68
723.266	39.2
723.448	39.02
723.631	39.18
723.813	39.83
723.995	40.2
724.178	39.78
724.36	40.09
724.542	40.07
724.724	41.34
724.907	41.44
725.089	40.64
725.271	41.8
725.453	41.32
725.635	41.26
725.817	41.23
725.999	41.01
726.181	41.89
726.364	41.34
726.546	41.44
726.728	40.81
726.91	39.87
727.092	39.94
727.274	38.97
727.456	40.08
727.638	40.55
727.819	40.3
728.001	40.86
728.183	40.51
728.365	40.93
728.547	40.63
728.729	41.11
728.911	42.11
729.093	42.89
729.274	42.28
729.456	41.22
729.638	41.26
729.82	41.25
730.001	41.18
730.183	41.41
730.365	41.74
730.546	41.61
730.728	41.1
730.91	40.86
731.091	40.87
731.273	41.68
731.455	42.18
731.636	41.96
731.818	42.23
731.999	42.48
732.181	42.39
732.362	42.14
732.544	43.2
732.725	43.48
732.907	43.58
733.088	43.59
733.27	44.17
733.451	43.87
733.633	44.49
733.814	44.39
733.995	44.42
734.177	44.48
734.358	44.33
734.539	43.07
734.721	43.11
734.902	42.95
735.083	42.41
735.264	41.56
735.446	41.78
735.627	40.99
735.808	40.34
735.989	40.22
736.17	40.04
736.351	40.11
736.533	40.12
736.714	39.5
736.895	40.08
737.076	40.33
737.257	40.75
737.438	40.49
737.619	40.65
737.8	41.89
737.981	42.43
738.162	42.34
738.343	43.42
738.524	44.03
738.705	45.14
738.886	44.64
739.067	44.36
739.247	43.9
739.428	43.87
739.609	43.99
739.79	43.86
739.971	42.7
740.151	42.79
740.332	42.64
740.513	42.53
740.694	42.41
740.874	42.6
741.055	42.82
741.236	43.36
741.417	43.51
741.597	43.52
741.778	43.6
741.958	44.19
742.139	45.31
742.32	45.12
742.5	45.22
742.681	44.91
742.861	44.97
743.042	45.28
743.222	45.68
743.403	46.38
743.583	45.89
743.764	46.25
743.944	46.3
744.124	45.99
744.305	45.32
744.485	45.55
744.666	44.9
744.846	44.9
745.026	45.22
745.207	46.11
745.387	46.15
745.567	46.95
745.747	46.49
745.928	46.08
746.108	45.53
746.288	45.66
746.468	45.63
746.648	46.5
746.829	47.14
747.009	48.15
747.189	47.05
747.369	46.84
747.549	46.73
747.729	46.04
747.909	46.21
748.089	45.45
748.269	45.81
748.449	46.28
748.629	45.64
748.809	45.3
748.989	43.83
749.169	44.61
749.349	43.68
749.529	43.72
749.709	43.51
749.889	44.19
750.068	44.29
750.248	44.35
750.428	43.23
750.608	44.04
750.788	43.59
750.967	43.9
751.147	42.64
751.327	42.7
751.507	41.76
751.686	41.8
751.866	41.65
752.046	41.37
752.225	41.82
752.405	42.64
752.585	42.91
752.764	42.6
752.944	43.01
753.123	42.06
753.303	43.01
753.482	44.27
753.662	44.37
753.841	43.42
754.021	44.17
754.2	44.46
754.38	44.23
754.559	43.58
754.739	43.82
754.918	42.98
755.097	44.15
755.277	44.51
755.456	44.38
755.635	44.9
755.815	45
755.994	44.78
756.173	42.69
756.352	42.47
756.532	42.47
756.711	42.84
756.89	42.25
757.069	42.37
757.248	41.59
757.427	40.48
757.607	40.22
757.786	40.97
757.965	40.25
758.144	41.9
758.323	42.94
758.502	42.95
758.681	43.15
758.86	43.57
759.039	43.17
759.218	43.37
759.397	44.32
759.576	44.34
759.755	42.8
759.934	43.37
760.113	43.43
760.291	41.49
760.47	41.3
760.649	41.12
760.828	41.73
761.007	41.66
761.186	41.27
761.364	41.24
761.543	40.98
761.722	41.69
761.901	41.61
762.079	41.24
762.258	42.08
762.437	42.96
762.615	42.67
762.794	42.89
762.972	42.31
763.151	42.1
763.33	42.13
763.508	42.27
763.687	42.1
763.865	42.69
764.044	42.37
764.222	42.23
764.401	42.12
764.579	42.31
764.758	42.03
764.936	42.95
765.114	43.38
765.293	43.61
765.471	43.97
765.65	45.12
765.828	44.9
766.006	45.66
766.184	46.91
766.363	46.86
766.541	46.17
766.719	46.81
766.898	46.86
767.076	46.88
767.254	46.69
767.432	46.3
767.61	45.3
767.788	45.4
767.967	44.92
768.145	44.56
768.323	43.94
768.501	45.28
768.679	44.18
768.857	44.68
769.035	44.84
769.213	45.94
769.391	46.66
769.569	47.91
769.747	49.9
769.925	49.82
770.103	48.86
770.281	49.06
770.459	49.84
770.636	50.48
770.814	50.58
770.992	50.87
771.17	49.39
771.348	50.13
771.525	49.63
771.703	47.59
771.881	47.89
772.059	48.31
772.236	47.34
772.414	46.95
772.592	46.99
772.769	46.44
772.947	46.01
773.125	46.2
773.302	46
773.48	46.13
773.657	45.63
773.835	44.28
774.013	45.83
774.19	48.21
774.368	45.6
774.545	46.57
774.723	46.88
774.9	46.54
775.077	45.73
775.255	45.53
775.432	46.62
775.61	47.37
775.787	48.07
775.964	45.93
776.142	45.53
776.319	48.19
776.496	47.55
776.674	46.67
776.851	47.08
777.028	47.75
777.205	47.58
777.382	46.11
777.56	45.44
777.737	47.91
777.914	47.86
778.091	48.13
778.268	46.85
778.445	47.3
778.622	48.01
778.8	48.62
778.977	48.87
779.154	53.4
779.331	53.18
779.508	54.75
779.685	53.02
779.862	53.63
780.038	52.05
780.215	53.47
780.392	53.41
780.569	53.67
780.746	53.2
780.923	53.03
781.1	49.46
781.277	49.22
781.453	47.34
781.63	46.51
781.807	46.1
781.984	47
782.16	46.19
782.337	46.19
782.514	45.13
782.691	47.34
782.867	47.08
783.044	44.49
783.221	44.81
783.397	45.58
783.574	45.8
783.75	48.01
783.927	48.19
784.103	48.22
784.28	48.08
784.456	48.76
784.633	47.55
784.809	48.7
784.986	48.76
785.162	49.22
785.339	48.05
785.515	47.85
785.692	44.9
785.868	44.44
786.044	44.98
786.221	43.83
786.397	44.29
786.573	44.61
786.749	43.93
786.926	45.83
787.102	45.96
787.278	46.67
787.454	49.29
787.631	50.99
787.807	51.7
787.983	49.7
788.159	49.93
788.335	50.03
788.511	48.95
788.687	49.51
788.863	48.98
789.039	49.58
789.216	48.76
789.392	48.36
789.568	48.09
789.744	49.09
789.919	49.46
790.095	49.97
790.271	49.02
790.447	49.13
790.623	49.46
790.799	50.77
790.975	48.56
791.151	50.98
791.327	50.53
791.502	50.83
791.678	49.77
791.854	51.38
792.03	52.58
792.205	54.1
792.381	54.09
792.557	53.71
792.733	51.94
792.908	53.63
793.084	52.68
793.259	51.95
793.435	52.05
793.611	51.41
793.786	51.14
793.962	50.27
794.137	48.58
794.313	47.3
794.488	46.56
794.664	49.05
794.839	48.62
795.015	49.8
795.19	50.03
795.366	48.34
795.541	47.56
795.716	46.85
795.892	48.52
796.067	49.21
796.242	50.84
796.418	50.99
796.593	51
796.768	51.97
796.944	51.48
797.119	49.88
797.294	52.02
797.469	53.81
797.644	56.15
797.82	55.38
797.995	53.32
798.17	52.64
798.345	52.87
798.52	50.51
798.695	50.52
798.87	49.94
799.045	51.05
799.22	51.54
799.395	50.27
799.57	49.04
799.745	47.97
799.92	50.07
800.095	51.45
800.27	51.87
800.445	52.34
800.62	50.33
800.795	52.62
800.97	54.49
801.145	50.71
801.319	52.46
801.494	51.33
801.669	52.96
801.844	53.22
802.018	53.26
802.193	52.78
802.368	52.64
802.543	53.61
802.717	50.93
802.892	47.69
803.067	49.06
803.241	48.18
803.416	52.19
803.59	51.72
803.765	51.85
803.94	51.18
804.114	49.94
804.289	50.39
804.463	50.78
804.638	49.65
804.812	52.48
804.986	51.62
805.161	50.44
805.335	45.73
805.51	41.66
805.684	39.62
805.858	38.86
806.033	39.24
806.207	39.23
806.381	42.03
806.556	42.37
806.73	42
806.904	43.53
807.078	43
807.253	45.5
807.427	47.54
807.601	48.82
807.775	50.99
807.949	52.34
808.123	53.96
808.298	52.3
808.472	53.36
808.646	52.88
808.82	51.82
808.994	52.52
809.168	52.07
809.342	52.76
809.516	53.28
809.69	51.25
809.864	49.14
810.038	49.51
810.212	48.92
810.385	48.43
810.559	49.6
810.733	51.59
810.907	51.33
811.081	53.59
811.255	54.08
811.428	53.57
811.602	54.77
811.776	59.94
811.95	55.95
812.123	55.89
812.297	55.95
812.471	54.88
812.644	52.82
812.818	58.16
812.992	54.24
813.165	54.47
813.339	54.18
813.512	51.64
813.686	50
813.86	53.4
814.033	54.78
814.207	56.51
814.38	56.37
814.554	56.08
814.727	54.38
814.9	52.31
815.074	51.7
815.247	54.13
815.421	55.79
815.594	57.41
815.767	54.91
815.941	50.73
816.114	48.65
816.287	48.89
816.46	48.76
816.634	44.69
816.807	50.71
816.98	51.02
817.153	50.54
817.327	48.46
817.5	43.14
817.673	46.61
817.846	48.95
818.019	51.88
818.192	52.46
818.365	54.57
818.538	55.59
818.711	51.44
818.884	52.02
819.057	50.21
819.23	53.33
819.403	55.33
819.576	53.33
819.749	52.72
819.922	50.35
820.095	48.54
820.268	47.97
820.441	47.3
820.614	46.18
820.786	45.34
820.959	44.82
821.132	43.89
821.305	42.48
821.477	42.43
821.65	43.42
821.823	44.24
821.996	42.93
822.168	42.61
822.341	42.47
822.514	42.9
822.686	42.26
822.859	42.12
823.031	41.95
823.204	42.73
823.376	42.94
823.549	42.98
823.722	42.88
823.894	43.89
824.067	43.85
824.239	44.38
824.411	44.47
824.584	45.25
824.756	45.8
824.929	45.59
825.101	45.77
825.273	45.42
825.446	45
825.618	44.59
825.79	44.21
825.963	44.11
826.135	42.91
826.307	42.09
826.479	41.97
826.652	41.29
826.824	40.74
826.996	39.7
827.168	39.88
827.34	40.07
827.512	39.99
827.684	40
827.856	40.51
828.029	42.24
828.201	43.62
828.373	43.07
828.545	44.15
828.717	45.6
828.889	46.71
829.061	47.27
829.232	48.24
829.404	48.58
829.576	49.23
829.748	48.45
829.92	47.86
830.092	47.4
830.264	48.06
830.436	48.5
830.607	48.54
830.779	47.96
830.951	47.93
831.123	46.94
831.294	46.83
831.466	47.19
831.638	47.57
831.809	46.39
831.981	48.27
832.153	47.44
832.324	47.3
832.496	48.04
832.667	49.83
832.839	50.18
833.011	49.39
833.182	48.96
833.354	48.6
833.525	51.14
833.697	52.51
833.868	49.27
834.039	51.52
834.211	50
834.382	48.7
834.554	48.14
834.725	46.51
834.896	45.47
835.068	45.59
835.239	46.76
835.41	46.17
835.581	45.72
835.753	45.97
835.924	44.08
836.095	43.64
836.266	42.54
836.438	41.18
836.609	41.77
836.78	42.35
836.951	42.6
837.122	39.47
837.293	37.74
837.464	36.41
837.635	37.99
837.806	39.81
837.977	39.64
838.148	44.78
838.319	45.15
838.49	46.51
838.661	46.4
838.832	45.82
839.003	47.59
839.174	48.92
839.345	50.69
839.516	52.9
839.687	51.55
839.857	54.27
840.028	51.09
840.199	54.35
840.37	53.24
840.54	54.04
840.711	51.92
840.882	52.01
841.053	50.58
841.223	50.04
841.394	46.05
841.564	50.71
841.735	47.16
841.906	46.24
842.076	34.31
842.247	36.56
842.417	40.02
842.588	43.82
842.758	44.66
842.929	48.58
843.099	50.32
843.27	57.31
843.44	56.23
843.611	60.41
843.781	58.44
843.951	66.04
844.122	64.18
844.292	63.2
844.462	63.46
844.633	61.44
844.803	63.29
844.973	64.97
845.144	61.04
845.314	58.37
845.484	55.25
845.654	57.72
845.824	60.1
845.995	62
846.165	62.72
846.335	64.27
846.505	68.3
846.675	70.04
846.845	68.28
847.015	69.76
847.185	68.92
847.355	72
847.525	77.83
847.695	85.21
847.865	81.87
848.035	86.09
848.205	79.57
848.375	76.89
848.545	60.14
848.715	59.77
848.884	56.16
849.054	52.9
849.224	51.7
849.394	46.04
849.564	44.72
849.733	47.8
849.903	47.85
850.073	53.11
850.243	61.2
850.412	68.39
850.582	70.13
850.752	75.74
850.921	74.03
851.091	78.75
851.26	84.82
851.43	82.48
851.599	79.02
851.769	79.83
851.939	75.16
852.108	78.64
852.278	78.47
852.447	73.88
852.616	74.41
852.786	70.25
852.955	58.49
853.125	64.4
853.294	61.62
853.463	65.24
853.633	62.18
853.802	61.08
853.971	59.88
854.141	63.11
854.31	60.08
854.479	50.95
854.648	62.21
854.818	69.68
854.987	60.46
855.156	69.28
855.325	75.67
855.494	78.83
855.663	83.53
855.832	80.53
856.001	84.91
856.171	91.85
856.34	104.44
856.509	106.78
856.678	123.09
856.847	130.79
857.016	112.05
857.185	108.75
857.353	105.15
857.522	112.67
857.691	105.19
857.86	107.01
858.029	93.73
858.198	90.94
858.367	95.6
858.535	87.09
858.704	89.36
858.873	98.14
859.042	102.49
859.21	99.26
859.379	91.09
859.548	81.76
859.717	70.54
859.885	74.78
860.054	74.72
860.222	67.42
860.391	70.33
860.56	65.05
860.728	57.54
860.897	45.32
861.065	47.33
861.234	53.64
861.402	70.11
861.571	70.19
861.739	81.55
861.908	82.89
862.076	86.61
862.244	88.2
862.413	85.2
862.581	101.33
862.749	91.75
862.918	87.65
863.086	82.97
863.254	76.05
863.423	75.84
863.591	73.21
863.759	73.64
863.927	65.07
864.096	58.79
864.264	65.8
864.432	56.73
864.6	64.31
864.768	63.82
864.936	64.91
865.104	64.5
865.272	69.57
865.44	69.15
865.608	69.4
865.776	73.69
865.944	83
866.112	79.09
866.28	84.86
866.448	86.58
866.616	84.42
866.784	85.74
866.952	88.69
867.12	90.28
867.288	95.88
867.455	92.54
867.623	97.34
867.791	90.88
867.959	90.63
868.127	86.8
868.294	82.05
868.462	79.19
868.63	78.45
868.797	84.34
868.965	80.72
869.133	73.32
869.3	68.21
869.468	62.59
869.636	47.09
869.803	42.03
869.971	46.25
870.138	48.82
870.306	51.1
870.473	51.41
870.641	47.48
870.808	42.99
870.975	39.73
871.143	47.84
871.31	49.71
871.478	72.56
871.645	69.4
871.812	56.87
871.98	64.58
872.147	69.7
872.314	70.59
872.482	68.28
872.649	68.98
872.816	63.04
872.983	59.93
873.15	64.07
873.318	55.9
873.485	59.18
873.652	72.97
873.819	61.46
873.986	58.94
874.153	61.51
874.32	60.76
874.487	60.5
874.654	71.11
874.821	76.81
874.988	73.36
875.155	72.49
875.322	74.99
875.489	60.05
875.656	67.1
875.823	65.44
875.99	54.22
876.157	60.21
876.324	63.02
876.49	54.14
876.657	52.31
876.824	46.5
876.991	50.79
877.157	51.94
877.324	62.35
877.491	64.51
877.658	65.26
877.824	67.66
877.991	65.43
878.157	66.49
878.324	69.69
878.491	75.34
878.657	83.42
878.824	76.44
878.99	67.79
879.157	66.02
879.323	59.52
879.49	59.54
879.656	65.05
879.823	64.52
879.989	63.16
880.156	65.43
880.322	64.75
880.488	57.22
880.655	60.16
880.821	64.64
880.987	60.56
881.154	64.96
881.32	66.21
881.486	66.66
881.652	64.63
881.819	61.11
881.985	57.34
882.151	53.1
882.317	54.3
882.483	51.28
882.649	51.66
882.816	51.17
882.982	49.68
883.148	46.14
883.314	43.16
883.48	46.06
883.646	46.74
883.812	46.81
883.978	46.6
884.144	47.28
884.31	46.39
884.476	46.56
884.642	47.21
884.807	47.29
884.973	48.38
885.139	48.6
885.305	47.66
885.471	47
885.637	45.25
885.802	45.46
885.968	45.61
886.134	47.16
886.3	44.76
886.465	44.11
886.631	43.64
886.797	45.97
886.962	45.73
887.128	44.56
887.293	45.9
887.459	51.86
887.625	52.54
887.79	54.68
887.956	53.86
888.121	59.23
888.287	59.92
888.452	63.4
888.618	62.57
888.783	72.98
