Data from LC_155_Reflection_1.txt Node
Date: Mon Nov 16 22:18:09 EST 2015
User: robert
Spectrometer: USB4E03001
Autoset integration time: false
Trigger mode: 4
Integration Time (sec): 1.000000E-1
Scans to average: 15
Electric dark correction enabled: true
Nonlinearity correction enabled: false
Boxcar width: 5
Stray light correction enabled: false
XAxis mode: Wavelengths
Stop averaging: false
Number of Pixels in Spectrum: 3648
>>>>>Begin Spectral Data<<<<<
177.566	1002.41
177.785	47.61
178.005	-731.93
178.225	101.64
178.445	126.09
178.665	106.85
178.885	76.47
179.105	862.62
179.324	747.2
179.544	-98.38
179.764	-829.87
179.984	-159.29
180.204	-121.55
180.423	-208.98
180.643	-348
180.863	-284.74
181.083	-262.53
181.302	-314.55
181.522	-278.32
181.742	-233.21
181.961	-405.71
182.181	-301.85
182.401	-417.84
182.621	-1843.76
182.84	-762.77
183.06	-538.47
183.279	-259.1
183.499	-213.62
183.719	-205.84
183.938	-173.54
184.158	-240.26
184.377	-167.82
184.597	-274.04
184.816	-166.48
185.036	-117.7
185.256	-95.42
185.475	-111.11
185.695	-211.71
185.914	-283.1
186.134	-476.07
186.353	-585.11
186.572	-627.68
186.792	-1069.46
187.011	-361.16
187.231	-442.71
187.45	-294.81
187.67	-754.26
187.889	-2086.5
188.108	3483.12
188.328	-798.25
188.547	-337.32
188.766	-642.76
188.986	-1033.41
189.205	-668.98
189.424	-514.21
189.644	-1222.73
189.863	-1315.7
190.082	-911.79
190.302	-2076.37
190.521	-1263.65
190.74	1247.01
190.959	446.27
191.178	608.35
191.398	439.27
191.617	333.25
191.836	260.07
192.055	613.44
192.274	315.45
192.494	343.03
192.713	267.95
192.932	463.77
193.151	431.54
193.37	790.09
193.589	-551.08
193.808	-136.3
194.027	-303.64
194.246	-3424.3
194.465	590.16
194.685	1552.78
194.904	809.77
195.123	-1119.56
195.342	-714.87
195.561	-316.14
195.78	-548.89
195.999	24956.34
196.218	919.45
196.436	746.71
196.655	-2689.81
196.874	-969.98
197.093	-1278.19
197.312	-975
197.531	3000.38
197.75	1013.72
197.969	-3681.8
198.188	-771.42
198.407	-214.02
198.625	-257.42
198.844	-186.94
199.063	-185.4
199.282	-461.5
199.501	-297.61
199.719	-228.41
199.938	-134.8
200.157	-134.14
200.376	-152.88
200.594	-234.16
200.813	-499.02
201.032	-353.44
201.251	-349.67
201.469	-330.21
201.688	-257.96
201.907	-430.7
202.125	-651.32
202.344	23415.48
202.563	4348.54
202.781	678.01
203	2081.64
203.218	1691.17
203.437	1523.36
203.656	665.15
203.874	380.35
204.093	338.92
204.311	445.13
204.53	444.89
204.748	701.71
204.967	452.08
205.185	473.71
205.404	458.69
205.622	297.26
205.841	220.95
206.059	277.59
206.278	342.89
206.496	910.57
206.715	468.8
206.933	356.75
207.151	321.93
207.37	343.18
207.588	329.13
207.806	331.82
208.025	626.77
208.243	-1200.69
208.461	1910.16
208.68	-18551.76
208.898	669.39
209.116	758.33
209.335	754.09
209.553	754.27
209.771	8049.17
209.989	1573.63
210.208	2995.44
210.426	-4924.91
210.644	2653.81
210.862	-2293.03
211.081	927.72
211.299	-376.59
211.517	2008.88
211.735	-502.06
211.953	-154514.29
212.171	-2831.02
212.39	-9135.14
212.608	-23541.3
212.826	978.56
213.044	663.39
213.262	532.27
213.48	3431.01
213.698	420.39
213.916	509.81
214.134	344.75
214.352	684.66
214.57	414.4
214.788	486.78
215.006	443.46
215.224	363.7
215.442	339.65
215.66	339.41
215.878	244.31
216.096	252.69
216.314	302.54
216.532	584.98
216.75	498.47
216.968	503.48
217.185	1189.2
217.403	1997.8
217.621	-5919.15
217.839	-1603.18
218.057	-1825.46
218.275	3666.16
218.492	1144.16
218.71	1701.08
218.928	446.1
219.146	424.71
219.363	327.49
219.581	256.72
219.799	210.84
220.017	196.45
220.234	179.97
220.452	191.51
220.67	218.99
220.887	250.06
221.105	298.18
221.323	257.94
221.54	252.63
221.758	344.24
221.976	335.7
222.193	312.43
222.411	199.87
222.629	207.88
222.846	210.54
223.064	206.06
223.281	170.09
223.499	143.53
223.716	152.63
223.934	124.57
224.151	115.03
224.369	98.92
224.586	97.94
224.804	118.41
225.021	105.22
225.239	86.8
225.456	87.74
225.674	89.71
225.891	73.77
226.108	91.04
226.326	79.07
226.543	70.62
226.76	77.58
226.978	70.21
227.195	69.27
227.413	59.93
227.63	52.57
227.847	43.09
228.064	39.66
228.282	36.7
228.499	30.23
228.716	27.12
228.934	26.07
229.151	22.84
229.368	22.39
229.585	21.45
229.802	23.78
230.02	23.31
230.237	24.42
230.454	25.5
230.671	27.97
230.888	30.1
231.105	30.68
231.323	33.01
231.54	34.51
231.757	36.91
231.974	40.9
232.191	38.18
232.408	42.63
232.625	43.43
232.842	38.45
233.059	40.08
233.276	39.28
233.493	46.52
233.71	45.91
233.927	50.74
234.144	47.41
234.361	43.1
234.578	46.41
234.795	43
235.012	43.37
235.229	47.23
235.446	46.25
235.663	41.7
235.879	40.75
236.096	36.6
236.313	36.23
236.53	38.27
236.747	41.28
236.964	39.16
237.181	39.84
237.397	41.04
237.614	40.83
237.831	38.98
238.048	43.23
238.264	49.01
238.481	51.65
238.698	50.03
238.915	52.89
239.131	51.52
239.348	52.66
239.565	53.58
239.781	51.58
239.998	46.67
240.215	44.05
240.431	41.1
240.648	36.81
240.865	33.89
241.081	31.94
241.298	27.58
241.514	27.77
241.731	26.64
241.947	26.59
242.164	25.83
242.38	25.38
242.597	25.16
242.814	24.89
243.03	24.74
243.246	25.49
243.463	25.69
243.679	27.16
243.896	24.82
244.112	25.78
244.329	24.39
244.545	23.71
244.762	22.93
244.978	22.87
245.194	22.64
245.411	20.16
245.627	18.78
245.843	18.48
246.06	17.09
246.276	18.23
246.492	16.37
246.709	16.48
246.925	16.94
247.141	16.64
247.357	16.2
247.574	15.94
247.79	16.43
248.006	16.04
248.222	15.26
248.439	15.18
248.655	15.5
248.871	16.53
249.087	17.09
249.303	15.98
249.519	17.23
249.736	19.05
249.952	18.99
250.168	19.92
250.384	22.09
250.6	24.16
250.816	24.23
251.032	22.16
251.248	20.41
251.464	19.61
251.68	20.06
251.896	19.78
252.112	18.56
252.328	20.09
252.544	18.64
252.76	17.52
252.976	15.36
253.192	16.98
253.408	18.09
253.624	20.35
253.84	20.08
254.056	22.41
254.272	22.67
254.487	21.98
254.703	22.69
254.919	22.89
255.135	22.77
255.351	25.04
255.567	25.92
255.782	26.88
255.998	24.82
256.214	26.05
256.43	23.81
256.646	24.26
256.861	24.52
257.077	22.36
257.293	21.31
257.508	19.14
257.724	20.06
257.94	17.69
258.155	15.84
258.371	16.44
258.587	14.62
258.802	14.4
259.018	14.16
259.234	12.85
259.449	13.05
259.665	13.32
259.88	14.1
260.096	13.82
260.312	13.02
260.527	13.16
260.743	12.88
260.958	13.75
261.174	13.37
261.389	13.53
261.605	15.04
261.82	15.3
262.036	15.77
262.251	16.71
262.466	16.3
262.682	18.79
262.897	19.32
263.113	19.82
263.328	18.34
263.543	19.49
263.759	18.47
263.974	18.18
264.189	18.38
264.405	18.2
264.62	17.51
264.835	19.96
265.051	19.39
265.266	20.56
265.481	21.1
265.696	23.71
265.912	24.01
266.127	23.65
266.342	20.69
266.557	20.35
266.773	19.87
266.988	19.95
267.203	19.06
267.418	17.83
267.633	16.91
267.848	16.79
268.064	14.24
268.279	13.73
268.494	14.23
268.709	15.01
268.924	15.18
269.139	16.03
269.354	14.34
269.569	13.15
269.784	13.48
269.999	13.88
270.214	12.55
270.429	13.63
270.644	13.15
270.859	12.53
271.074	13.37
271.289	12.91
271.504	12.09
271.719	13.02
271.934	13.47
272.149	12.92
272.363	13.96
272.578	13.92
272.793	13.31
273.008	13.4
273.223	13.65
273.438	13.46
273.653	13.52
273.867	13.73
274.082	12.8
274.297	13.1
274.512	15.24
274.726	13.63
274.941	14.47
275.156	15.35
275.371	15.4
275.585	16.11
275.8	17.02
276.015	17.78
276.229	17.85
276.444	19.39
276.659	19.11
276.873	17.8
277.088	17.73
277.302	17.38
277.517	17.96
277.732	21.1
277.946	20.41
278.161	21.21
278.375	19.83
278.59	19.59
278.804	18.94
279.019	19.17
279.233	18.45
279.448	18.81
279.662	18.24
279.877	18.66
280.091	15.31
280.306	14.27
280.52	13.09
280.735	13.22
280.949	13.21
281.163	14.85
281.378	13.92
281.592	12.69
281.806	12.72
282.021	12.55
282.235	11.8
282.449	12.86
282.664	13.64
282.878	12.97
283.092	14.43
283.307	14.4
283.521	13.77
283.735	13.72
283.949	15.65
284.164	15.53
284.378	15.87
284.592	14.87
284.806	14.37
285.02	14.07
285.234	14.19
285.449	12.72
285.663	13.01
285.877	12.26
286.091	12.04
286.305	11.02
286.519	10.44
286.733	9.06
286.947	9.83
287.161	9.84
287.375	10.63
287.589	10.59
287.803	11.22
288.017	10.86
288.231	11.17
288.445	11.89
288.659	12.76
288.873	12.77
289.087	15.24
289.301	14.87
289.515	15.01
289.729	14.06
289.943	14.78
290.157	15.29
290.371	16.71
290.584	15.78
290.798	16.74
291.012	17.97
291.226	17.56
291.44	17.55
291.654	17.82
291.867	18.11
292.081	17.75
292.295	18.35
292.509	17.91
292.722	17.27
292.936	17.86
293.15	17.26
293.364	15.72
293.577	16.04
293.791	15.05
294.005	15.66
294.218	15.8
294.432	16.73
294.645	15.14
294.859	14.32
295.073	14
295.286	14.48
295.5	13.98
295.713	14.07
295.927	14.75
296.14	14.69
296.354	14.28
296.568	13.22
296.781	13.45
296.994	13.75
297.208	13.52
297.421	13.04
297.635	12.42
297.848	11.98
298.062	11.56
298.275	11.4
298.489	11.91
298.702	12.47
298.915	12.84
299.129	12.84
299.342	12.77
299.555	14.19
299.769	15.94
299.982	15.86
300.195	16.86
300.409	17.84
300.622	17.79
300.835	18.29
301.048	16.81
301.262	16.96
301.475	15.32
301.688	16.54
301.901	16.11
302.115	15.33
302.328	16.29
302.541	16.02
302.754	16.08
302.967	15.64
303.18	15.95
303.393	16.9
303.607	16.31
303.82	17.83
304.033	16.25
304.246	16.83
304.459	16.63
304.672	16.76
304.885	17.01
305.098	16.2
305.311	17.04
305.524	16.01
305.737	16.01
305.95	17.38
306.163	16.87
306.376	17.03
306.589	15.74
306.802	14.87
307.015	14.94
307.228	15.18
307.44	15.44
307.653	15.31
307.866	14.19
308.079	15.35
308.292	15.29
308.505	15.95
308.718	15.58
308.93	15.81
309.143	16.4
309.356	15.96
309.569	15.94
309.781	15.98
309.994	15.91
310.207	16.85
310.42	15.34
310.632	14.24
310.845	14.04
311.058	13.79
311.27	14.25
311.483	13.79
311.696	13.37
311.908	12.97
312.121	12.83
312.333	12.81
312.546	12.41
312.759	12.8
312.971	13.28
313.184	14.13
313.396	14.56
313.609	14.62
313.821	14.23
314.034	15.5
314.246	16.29
314.459	16.07
314.671	16.53
314.884	15.69
315.096	14.52
315.309	13.98
315.521	13.34
315.733	13.41
315.946	12.23
316.158	11.93
316.371	10.89
316.583	10.24
316.795	9.91
317.008	10.16
317.22	12.72
317.432	13.45
317.644	13.7
317.857	13.53
318.069	14.15
318.281	14.96
318.494	15.13
318.706	15.64
318.918	15.61
319.13	17.03
319.342	16.61
319.555	15.38
319.767	16.52
319.979	17.16
320.191	16.75
320.403	16.35
320.615	16.04
320.827	17.76
321.039	17.45
321.252	17.67
321.464	16.42
321.676	15.94
321.888	15.42
322.1	15.24
322.312	12.47
322.524	12.28
322.736	11.67
322.948	12.14
323.16	11.03
323.372	11.68
323.584	11.13
323.796	11.63
324.007	11.75
324.219	10.81
324.431	10.66
324.643	12.39
324.855	11.78
325.067	12.22
325.279	11.8
325.491	12.54
325.702	11.55
325.914	11.95
326.126	13.38
326.338	13.72
326.55	14.19
326.761	14.39
326.973	14.84
327.185	16.42
327.396	16.49
327.608	17
327.82	17.15
328.032	17.76
328.243	17.65
328.455	17.56
328.666	16.46
328.878	17.98
329.09	17.36
329.301	16.65
329.513	15.45
329.725	16.01
329.936	15.89
330.148	15.45
330.359	15.01
330.571	14.73
330.782	13.21
330.994	13.81
331.205	13.84
331.417	15.06
331.628	16.43
331.84	16.96
332.051	16.6
332.262	16.57
332.474	16.44
332.685	17.46
332.897	17.47
333.108	17.88
333.319	17.41
333.531	17.19
333.742	17.39
333.953	15.96
334.165	15.82
334.376	16.53
334.587	17
334.799	17.1
335.01	16.09
335.221	16.55
335.432	15.98
335.644	16.19
335.855	16.02
336.066	15.19
336.277	15.99
336.488	16.49
336.7	15.37
336.911	15.12
337.122	14.77
337.333	15.85
337.544	15.91
337.755	16.81
337.966	17.5
338.177	17.18
338.388	17.94
338.599	18.75
338.811	18.45
339.022	19.36
339.233	19.1
339.444	19.02
339.655	17.44
339.866	17.84
340.076	18.05
340.287	17.32
340.498	17.84
340.709	16.55
340.92	15.17
341.131	14.93
341.342	14.87
341.553	15.04
341.764	15.5
341.975	16.92
342.185	16.29
342.396	15.23
342.607	15.83
342.818	15.32
343.029	15.99
343.239	16.46
343.45	16.96
343.661	16.29
343.872	15.85
344.082	15.51
344.293	15.3
344.504	15.36
344.714	14.85
344.925	14.51
345.136	14.4
345.346	15.18
345.557	15.14
345.768	14.54
345.978	14.08
346.189	14.98
346.399	14.99
346.61	15.28
346.821	15.73
347.031	15.92
347.242	15.55
347.452	16.26
347.663	14.57
347.873	14.89
348.084	15.16
348.294	16.55
348.504	15.59
348.715	16.26
348.925	15.06
349.136	14.17
349.346	14.11
349.557	14.66
349.767	15.17
349.977	15.93
350.188	16.08
350.398	16.58
350.608	15.99
350.819	15.93
351.029	15.32
351.239	15.83
351.449	16.51
351.66	17.81
351.87	18.72
352.08	17.93
352.29	17.75
352.501	17.02
352.711	16.64
352.921	17.06
353.131	17.44
353.341	17.59
353.552	17.3
353.762	17.34
353.972	17.14
354.182	17.21
354.392	17
354.602	17.07
354.812	17.25
355.022	17.45
355.232	17.06
355.442	17.26
355.652	17.25
355.862	16.94
356.072	16.69
356.282	15.9
356.492	15.24
356.702	15.09
356.912	15.35
357.122	15.09
357.332	14.49
357.542	14.64
357.752	14.24
357.962	14.04
358.171	14.24
358.381	14.74
358.591	14.95
358.801	14.64
359.011	15.32
359.221	14.94
359.43	15.17
359.64	15.98
359.85	15.94
360.06	16.13
360.269	15.74
360.479	15.67
360.689	14.87
360.899	14.82
361.108	14.64
361.318	14.17
361.528	13.95
361.737	13.77
361.947	12.94
362.156	13.17
362.366	12.85
362.576	12.93
362.785	12.59
362.995	12.36
363.204	12.15
363.414	12.39
363.623	12.08
363.833	12.49
364.042	12.56
364.252	12.94
364.461	12.13
364.671	12.21
364.88	12.82
365.09	13.4
365.299	13.57
365.509	13.09
365.718	12.81
365.927	12.91
366.137	12.61
366.346	12.35
366.555	12.07
366.765	12.61
366.974	12.53
367.183	12.26
367.393	12.09
367.602	12.4
367.811	12.84
368.021	12.6
368.23	12.66
368.439	12.36
368.648	12.96
368.857	13.51
369.067	13.67
369.276	13.6
369.485	13.56
369.694	13.64
369.903	13.8
370.112	13.98
370.321	14.13
370.531	13.82
370.74	14.02
370.949	13.64
371.158	13.07
371.367	12.93
371.576	13.04
371.785	12.53
371.994	12.31
372.203	12.05
372.412	11.97
372.621	12.32
372.83	12.54
373.039	12.64
373.248	11.99
373.457	11.81
373.666	11.25
373.874	11.39
374.083	12.26
374.292	12.32
374.501	12.13
374.71	11.58
374.919	11.57
375.128	11.33
375.336	11.39
375.545	12.03
375.754	11.83
375.963	11.94
376.171	11.77
376.38	11.34
376.589	10.96
376.798	10.73
377.006	10.89
377.215	10.74
377.424	10.73
377.632	10.26
377.841	9.84
378.05	9.92
378.258	9.76
378.467	9.27
378.675	9.21
378.884	9.73
379.093	9.86
379.301	9.81
379.51	9.77
379.718	9.69
379.927	9.78
380.135	9.58
380.344	9.71
380.552	9.61
380.761	10.18
380.969	10.25
381.177	10.23
381.386	10.07
381.594	9.97
381.803	10.23
382.011	10.17
382.219	9.76
382.428	9.54
382.636	9.03
382.845	9.52
383.053	9.67
383.261	9.08
383.469	9
383.678	8.91
383.886	9.17
384.094	8.68
384.302	8.64
384.511	9.33
384.719	9.76
384.927	10.01
385.135	9.78
385.343	9.6
385.552	9.76
385.76	9.64
385.968	9.76
386.176	9.39
386.384	9.28
386.592	9.26
386.8	8.89
387.008	9.08
387.216	9.47
387.424	9.5
387.633	9.48
387.841	9.46
388.049	9.27
388.257	9.22
388.465	9.39
388.672	9.63
388.88	10.01
389.088	10.21
389.296	9.93
389.504	9.85
389.712	9.74
389.92	9.52
390.128	9.44
390.336	9.28
390.544	9.63
390.751	9.44
390.959	9.29
391.167	9.04
391.375	8.78
391.583	8.66
391.79	8.57
391.998	8.35
392.206	8.44
392.414	8.39
392.621	8.61
392.829	8.46
393.037	8.56
393.244	8.38
393.452	8.46
393.66	8.45
393.867	8.77
394.075	8.49
394.283	8.76
394.49	8.6
394.698	8.71
394.905	8.62
395.113	8.41
395.32	8.63
395.528	8.71
395.735	8.51
395.943	8.6
396.15	8.28
396.358	8.53
396.565	8.19
396.773	8.44
396.98	8.3
397.188	8.45
397.395	8.46
397.602	8.14
397.81	8.16
398.017	8.63
398.225	8.8
398.432	9.12
398.639	8.97
398.847	9.28
399.054	9.07
399.261	9.18
399.468	9
399.676	8.85
399.883	8.98
400.09	8.89
400.297	8.56
400.505	8.55
400.712	8.27
400.919	8.45
401.126	8.38
401.333	8.51
401.54	8.49
401.748	8.47
401.955	8.67
402.162	8.68
402.369	8.73
402.576	8.75
402.783	8.43
402.99	8.54
403.197	7.93
403.404	7.9
403.611	7.79
403.818	7.82
404.025	7.84
404.232	7.7
404.439	7.47
404.646	7.37
404.853	7.01
405.06	7.1
405.267	6.86
405.474	7.28
405.681	7.13
405.887	7.04
406.094	6.88
406.301	7.03
406.508	7.1
406.715	7.39
406.922	7.54
407.128	7.84
407.335	8.01
407.542	8.23
407.749	8.27
407.955	8.45
408.162	8.63
408.369	9.03
408.575	8.81
408.782	8.63
408.989	8.42
409.195	8.36
409.402	8.5
409.609	8.48
409.815	8.42
410.022	8.46
410.228	8.2
410.435	8.16
410.642	7.81
410.848	8.02
411.055	8.15
411.261	8.24
411.468	8.21
411.674	7.93
411.881	7.9
412.087	8.1
412.294	7.95
412.5	7.86
412.706	7.86
412.913	7.94
413.119	7.75
413.326	7.73
413.532	7.82
413.738	7.78
413.945	8.04
414.151	7.81
414.357	7.6
414.564	7.58
414.77	7.82
414.976	7.7
415.182	7.65
415.389	7.51
415.595	7.4
415.801	7.14
416.007	7.24
416.214	7.01
416.42	7.06
416.626	7.04
416.832	7.05
417.038	6.85
417.244	6.93
417.45	6.8
417.657	6.91
417.863	7.13
418.069	7.28
418.275	7.32
418.481	7.27
418.687	7.24
418.893	7.21
419.099	7.29
419.305	7.55
419.511	7.5
419.717	7.61
419.923	7.59
420.129	7.51
420.335	7.47
420.541	7.4
420.746	7.51
420.952	7.57
421.158	7.62
421.364	7.64
421.57	7.54
421.776	7.55
421.982	7.45
422.187	7.27
422.393	7.27
422.599	7.24
422.805	7.3
423.01	7.31
423.216	7.24
423.422	7.19
423.628	7.14
423.833	7.11
424.039	7.15
424.245	7.21
424.45	7.51
424.656	7.48
424.862	7.49
425.067	7.48
425.273	7.39
425.478	7.44
425.684	7.38
425.889	7.5
426.095	7.51
426.301	7.4
426.506	7.46
426.712	7.32
426.917	7.3
427.123	7.55
427.328	7.54
427.533	7.53
427.739	7.53
427.944	7.56
428.15	7.18
428.355	7.26
428.561	7.16
428.766	7.14
428.971	7.14
429.177	7.11
429.382	6.87
429.587	6.79
429.793	6.73
429.998	6.64
430.203	6.45
430.408	6.68
430.614	6.76
430.819	6.97
431.024	6.93
431.229	6.91
431.434	7.08
431.64	6.86
431.845	6.94
432.05	7.11
432.255	7.24
432.46	7.27
432.665	7.22
432.87	7.18
433.076	7.17
433.281	7.25
433.486	7.24
433.691	7.04
433.896	7.06
434.101	6.95
434.306	7
434.511	6.9
434.716	7.2
434.921	7.2
435.126	6.97
435.331	6.98
435.535	6.93
435.74	7.02
435.945	7.18
436.15	7.18
436.355	7.3
436.56	7.28
436.765	7.42
436.97	7.26
437.174	7.23
437.379	7.45
437.584	7.46
437.789	7.31
437.993	7.22
438.198	7.19
438.403	7.39
438.608	7.29
438.812	7.02
439.017	6.91
439.222	6.88
439.426	6.89
439.631	6.79
439.836	6.67
440.04	6.86
440.245	6.78
440.45	6.77
440.654	6.68
440.859	6.67
441.063	6.77
441.268	6.76
441.472	6.9
441.677	6.86
441.881	6.73
442.086	6.81
442.29	6.69
442.495	6.71
442.699	6.72
442.904	6.66
443.108	6.67
443.312	6.81
443.517	6.72
443.721	6.46
443.925	6.5
444.13	6.73
444.334	6.71
444.538	6.62
444.743	6.67
444.947	6.54
445.151	6.6
445.356	6.54
445.56	6.35
445.764	6.37
445.968	6.31
446.173	6.29
446.377	6.22
446.581	6.19
446.785	6.27
446.989	6.24
447.193	6.3
447.398	6.3
447.602	6.32
447.806	6.45
448.01	6.63
448.214	6.82
448.418	6.81
448.622	6.91
448.826	7.04
449.03	6.97
449.234	7.12
449.438	7.05
449.642	7
449.846	7.02
450.05	6.95
450.254	6.79
450.458	7.08
450.662	7.08
450.866	6.83
451.069	6.63
451.273	6.76
451.477	6.59
451.681	6.61
451.885	6.52
452.089	6.44
452.292	6.47
452.496	6.56
452.7	6.22
452.904	6.14
453.107	6.24
453.311	6.42
453.515	6.38
453.719	6.31
453.922	6.31
454.126	6.42
454.33	6.51
454.533	6.4
454.737	6.28
454.94	6.41
455.144	6.53
455.348	6.48
455.551	6.32
455.755	6.3
455.958	6.4
456.162	6.37
456.365	6.3
456.569	6.25
456.772	6.3
456.976	6.36
457.179	6.33
457.383	6.24
457.586	6.52
457.79	6.48
457.993	6.47
458.196	6.29
458.4	6.39
458.603	6.32
458.807	6.41
459.01	6.52
459.213	6.38
459.417	6.22
459.62	6.28
459.823	6.12
460.026	6.06
460.23	6.06
460.433	6.15
460.636	6.19
460.839	6.24
461.042	6.22
461.246	6.33
461.449	6.37
461.652	6.53
461.855	6.46
462.058	6.47
462.261	6.4
462.464	6.33
462.668	6.6
462.871	6.55
463.074	6.73
463.277	6.61
463.48	6.58
463.683	6.62
463.886	6.76
464.089	6.68
464.292	6.84
464.495	7.14
464.698	7.15
464.901	6.94
465.104	6.99
465.306	6.86
465.509	6.96
465.712	6.79
465.915	6.78
466.118	6.55
466.321	6.65
466.524	6.54
466.726	6.69
466.929	6.84
467.132	6.75
467.335	6.71
467.538	6.55
467.74	6.45
467.943	6.52
468.146	6.66
468.348	6.64
468.551	6.67
468.754	6.71
468.956	6.47
469.159	6.46
469.362	6.5
469.564	6.32
469.767	6.52
469.969	6.52
470.172	6.42
470.375	6.29
470.577	6.38
470.78	6.39
470.982	6.38
471.185	6.41
471.387	6.33
471.59	6.33
471.792	6.45
471.995	6.35
472.197	6.39
472.399	6.25
472.602	6.06
472.804	5.97
473.007	5.86
473.209	5.79
473.411	5.71
473.614	5.55
473.816	5.62
474.018	5.68
474.22	5.92
474.423	6.03
474.625	6.11
474.827	6.32
475.03	6.45
475.232	6.57
475.434	6.58
475.636	6.73
475.838	6.95
476.04	6.85
476.243	6.71
476.445	6.68
476.647	6.56
476.849	6.44
477.051	6.37
477.253	6.32
477.455	6.28
477.657	6.2
477.859	6.19
478.061	6.1
478.263	6.14
478.465	6.18
478.667	6.09
478.869	6.17
479.071	6.33
479.273	6.38
479.475	6.26
479.677	6.32
479.879	6.29
480.081	6.31
480.283	6.15
480.485	6.12
480.686	6.12
480.888	6.05
481.09	5.99
481.292	5.82
481.494	5.77
481.695	5.85
481.897	5.69
482.099	5.72
482.301	5.6
482.502	5.63
482.704	5.59
482.906	5.6
483.107	5.57
483.309	5.57
483.511	5.68
483.712	5.65
483.914	5.6
484.115	5.65
484.317	5.63
484.519	5.66
484.72	5.69
484.922	5.69
485.123	5.67
485.325	5.69
485.526	5.67
485.728	5.63
485.929	5.61
486.131	5.66
486.332	5.67
486.534	5.67
486.735	5.68
486.936	5.57
487.138	5.57
487.339	5.58
487.541	5.6
487.742	5.65
487.943	5.63
488.144	5.66
488.346	5.59
488.547	5.6
488.748	5.63
488.95	5.57
489.151	5.69
489.352	5.69
489.553	5.63
489.755	5.63
489.956	5.58
490.157	5.57
490.358	5.53
490.559	5.63
490.76	5.55
490.961	5.52
491.163	5.56
491.364	5.56
491.565	5.55
491.766	5.61
491.967	5.62
492.168	5.64
492.369	5.65
492.57	5.69
492.771	5.68
492.972	5.79
493.173	5.82
493.374	5.83
493.575	5.86
493.776	5.92
493.976	6.01
494.177	6.08
494.378	6.17
494.579	6.14
494.78	6.38
494.981	6.34
495.182	6.22
495.382	6.21
495.583	6.15
495.784	6.15
495.985	6.26
496.185	6.18
496.386	6.07
496.587	6.15
496.788	6.23
496.988	6.11
497.189	6.19
497.39	6.23
497.59	6.28
497.791	6.4
497.992	6.34
498.192	6.32
498.393	6.33
498.593	6.44
498.794	6.32
498.994	6.4
499.195	6.49
499.395	6.57
499.596	6.63
499.796	6.59
499.997	6.74
500.197	6.93
500.398	6.98
500.598	7.09
500.799	7.06
500.999	7.09
501.199	7
501.4	7
501.6	6.85
501.801	6.83
502.001	6.93
502.201	6.84
502.402	6.76
502.602	6.78
502.802	6.65
503.002	6.72
503.203	6.77
503.403	6.86
503.603	6.72
503.803	6.79
504.003	6.81
504.204	6.88
504.404	6.95
504.604	6.8
504.804	6.86
505.004	7
505.204	6.99
505.404	7.22
505.604	7.23
505.804	7.32
506.005	7.4
506.205	7.45
506.405	7.51
506.605	7.43
506.805	7.63
507.005	7.54
507.204	7.47
507.404	7.41
507.604	7.23
507.804	7.11
508.004	7.11
508.204	7.19
508.404	7.28
508.604	7.08
508.804	7.16
509.003	7.14
509.203	7.19
509.403	7.2
509.603	7.29
509.803	7.36
510.002	7.5
510.202	7.56
510.402	7.43
510.602	7.45
510.801	7.6
511.001	7.6
511.201	7.57
511.4	7.64
511.6	7.74
511.8	7.8
511.999	7.88
512.199	7.83
512.398	7.8
512.598	7.9
512.797	7.92
512.997	7.98
513.197	7.98
513.396	8.11
513.596	8.15
513.795	8.32
513.994	8.34
514.194	8.24
514.393	8.32
514.593	8.33
514.792	8.44
514.992	8.49
515.191	8.34
515.39	8.33
515.59	8.17
515.789	8.11
515.988	8.02
516.188	7.93
516.387	7.92
516.586	7.92
516.786	8.02
516.985	7.88
517.184	7.76
517.383	7.99
517.582	8.16
517.782	8.28
517.981	8.21
518.18	8.14
518.379	8.25
518.578	8.28
518.777	8.33
518.976	8.23
519.176	8.44
519.375	8.55
519.574	8.59
519.773	8.53
519.972	8.41
520.171	8.49
520.37	8.63
520.569	8.62
520.768	8.69
520.967	8.82
521.166	8.92
521.365	8.91
521.564	8.93
521.762	8.79
521.961	8.93
522.16	9.12
522.359	9.09
522.558	9.13
522.757	9.17
522.956	9.19
523.154	8.91
523.353	9.02
523.552	8.98
523.751	9.07
523.949	9.11
524.148	9.04
524.347	9.1
524.546	9.12
524.744	9.03
524.943	9.16
525.142	9.09
525.34	9.23
525.539	9.18
525.737	9.2
525.936	9.19
526.135	9.21
526.333	9.16
526.532	9.17
526.73	9.29
526.929	9.29
527.127	9.26
527.326	9.33
527.524	9.36
527.723	9.37
527.921	9.39
528.12	9.42
528.318	9.48
528.516	9.52
528.715	9.48
528.913	9.46
529.112	9.51
529.31	9.5
529.508	9.53
529.707	9.54
529.905	9.59
530.103	9.6
530.301	9.63
530.5	9.62
530.698	9.67
530.896	9.77
531.094	9.91
531.293	9.97
531.491	10.08
531.689	10.12
531.887	10.2
532.085	10.33
532.283	10.31
532.481	10.31
532.68	10.28
532.878	10.29
533.076	10.35
533.274	10.24
533.472	10.31
533.67	10.3
533.868	10.27
534.066	10.32
534.264	10.23
534.462	10.3
534.66	10.35
534.858	10.45
535.056	10.56
535.253	10.54
535.451	10.67
535.649	10.65
535.847	10.78
536.045	10.88
536.243	10.96
536.441	11.11
536.638	11.22
536.836	11.22
537.034	11.26
537.232	11.33
537.43	11.41
537.627	11.55
537.825	11.67
538.023	11.66
538.22	11.84
538.418	11.79
538.616	11.85
538.813	11.98
539.011	12.15
539.209	12.24
539.406	12.22
539.604	12.32
539.801	12.37
539.999	12.37
540.196	12.45
540.394	12.48
540.591	12.54
540.789	12.47
540.986	12.34
541.184	12.35
541.381	12.33
541.579	12.35
541.776	12.34
541.974	12.29
542.171	12.32
542.368	12.34
542.566	12.3
542.763	12.33
542.96	12.35
543.158	12.42
543.355	12.49
543.552	12.65
543.75	12.84
543.947	12.8
544.144	12.87
544.341	12.98
544.539	13
544.736	13.18
544.933	13.17
545.13	13.26
545.327	13.3
545.524	13.24
545.722	13.36
545.919	13.34
546.116	13.61
546.313	13.81
546.51	13.9
546.707	13.98
546.904	14
547.101	14.11
547.298	14.29
547.495	14.47
547.692	14.5
547.889	14.32
548.086	14.47
548.283	14.43
548.48	14.45
548.677	14.36
548.874	14.31
549.07	14.36
549.267	14.54
549.464	14.5
549.661	14.63
549.858	14.92
550.055	15.2
550.251	15.16
550.448	15.28
550.645	15.12
550.842	15.16
551.038	15.37
551.235	15.28
551.432	15.28
551.628	15.49
551.825	15.6
552.022	15.58
552.218	15.59
552.415	15.68
552.612	15.72
552.808	15.79
553.005	15.96
553.201	16.03
553.398	16.14
553.594	16.23
553.791	16.22
553.987	16.23
554.184	16.39
554.38	16.38
554.577	16.33
554.773	16.39
554.97	16.55
555.166	16.76
555.362	16.73
555.559	16.68
555.755	16.74
555.952	16.9
556.148	16.96
556.344	16.94
556.541	16.85
556.737	17.13
556.933	17.26
557.129	17.19
557.326	17.15
557.522	17.26
557.718	17.59
557.914	17.71
558.11	17.74
558.307	17.6
558.503	17.61
558.699	17.97
558.895	17.93
559.091	17.95
559.287	18.02
559.483	18.01
559.679	18.24
559.876	18.14
560.072	18.12
560.268	18.23
560.464	18.34
560.66	18.36
560.856	18.4
561.052	18.58
561.247	18.73
561.443	18.88
561.639	19.13
561.835	19.32
562.031	19.45
562.227	19.46
562.423	19.46
562.619	19.68
562.815	19.85
563.01	19.82
563.206	19.71
563.402	19.69
563.598	19.85
563.793	19.77
563.989	19.54
564.185	19.55
564.381	19.83
564.576	19.89
564.772	20.04
564.968	20.09
565.163	20.11
565.359	19.97
565.555	19.99
565.75	20.11
565.946	20.25
566.141	20.33
566.337	20.44
566.532	20.43
566.728	20.57
566.923	20.43
567.119	20.46
567.314	20.45
567.51	20.67
567.705	20.75
567.901	20.71
568.096	20.81
568.292	20.98
568.487	21.1
568.682	21.14
568.878	21.21
569.073	21.43
569.268	21.6
569.464	21.91
569.659	22.1
569.854	22.14
570.05	22.21
570.245	22.07
570.44	22.25
570.635	22.38
570.831	22.31
571.026	22.4
571.221	22.39
571.416	22.21
571.611	22.13
571.806	22.25
572.002	22.3
572.197	22.4
572.392	22.44
572.587	22.36
572.782	22.3
572.977	22.55
573.172	22.5
573.367	22.55
573.562	22.75
573.757	22.9
573.952	22.84
574.147	23.07
574.342	23.25
574.537	23.41
574.732	23.42
574.927	23.47
575.121	23.56
575.316	23.67
575.511	23.78
575.706	23.82
575.901	23.75
576.096	23.88
576.29	23.89
576.485	23.82
576.68	23.9
576.875	23.82
577.069	23.94
577.264	24
577.459	24.14
577.654	24.14
577.848	24.34
578.043	24.59
578.238	24.61
578.432	24.47
578.627	24.42
578.821	24.38
579.016	24.58
579.21	24.67
579.405	24.52
579.6	24.6
579.794	24.6
579.989	24.52
580.183	24.84
580.378	24.94
580.572	25.25
580.766	25.2
580.961	25.32
581.155	25.49
581.35	25.55
581.544	25.51
581.738	25.38
581.933	25.51
582.127	25.85
582.321	25.64
582.516	25.81
582.71	25.91
582.904	26.2
583.099	26.15
583.293	25.99
583.487	26.17
583.681	26.56
583.875	26.61
584.07	26.82
584.264	26.68
584.458	26.52
584.652	26.4
584.846	26.3
585.04	26.37
585.234	26.69
585.428	26.92
585.623	26.78
585.817	26.58
586.011	26.78
586.205	26.98
586.399	27.22
586.593	27.65
586.787	27.96
586.981	27.85
587.174	27.85
587.368	27.61
587.562	27.65
587.756	27.66
587.95	27.94
588.144	27.78
588.338	27.82
588.532	27.81
588.725	27.65
588.919	27.43
589.113	27.58
589.307	27.57
589.501	27.67
589.694	27.74
589.888	27.95
590.082	27.94
590.275	28.17
590.469	28.11
590.663	27.78
590.856	28.04
591.05	28.26
591.244	28.23
591.437	28.48
591.631	28.58
591.824	28.59
592.018	28.58
592.212	28.43
592.405	28.28
592.599	28.28
592.792	28.48
592.986	28.42
593.179	28.5
593.372	28.57
593.566	28.59
593.759	28.48
593.953	28.52
594.146	28.38
594.339	28.61
594.533	28.94
594.726	28.84
594.92	28.84
595.113	28.67
595.306	28.42
595.499	28.47
595.693	28.5
595.886	28.76
596.079	28.68
596.272	28.66
596.466	28.47
596.659	28.28
596.852	28.35
597.045	28.37
597.238	28.45
597.431	28.44
597.624	28.3
597.818	28.07
598.011	27.88
598.204	27.92
598.397	28.2
598.59	28.28
598.783	28.13
598.976	28.02
599.169	28.35
599.362	28.49
599.555	28.8
599.748	29.27
599.941	29.59
600.134	29.87
600.326	30.21
600.519	30.24
600.712	30.08
600.905	30.28
601.098	30.63
601.291	30.47
601.483	30.49
601.676	30.42
601.869	30.31
602.062	30.17
602.255	30.02
602.447	29.95
602.64	29.65
602.833	30.02
603.025	29.85
603.218	29.64
603.411	29.53
603.603	29.38
603.796	29.36
603.989	29.33
604.181	29.43
604.374	29.63
604.566	29.62
604.759	29.6
604.951	29.47
605.144	29.66
605.336	29.79
605.529	29.86
605.721	29.93
605.914	29.88
606.106	29.9
606.299	29.96
606.491	29.91
606.683	29.92
606.876	29.97
607.068	30.07
607.26	30.26
607.453	30.3
607.645	30.39
607.837	30.63
608.03	30.84
608.222	30.9
608.414	30.83
608.606	30.84
608.799	30.86
608.991	31.04
609.183	31.06
609.375	31.07
609.567	30.91
609.759	31.04
609.952	31.01
610.144	31.06
610.336	31.11
610.528	31.14
610.72	31.25
610.912	31.29
611.104	31.35
611.296	31.57
611.488	31.54
611.68	31.74
611.872	31.6
612.064	31.7
612.256	31.65
612.448	31.7
612.64	31.57
612.832	31.54
613.023	31.57
613.215	31.65
613.407	31.6
613.599	31.58
613.791	31.52
613.983	31.46
614.174	31.26
614.366	31.31
614.558	31.39
614.75	31.54
614.941	31.63
615.133	31.74
615.325	31.82
615.516	31.7
615.708	31.63
615.9	31.59
616.091	31.79
616.283	31.99
616.475	31.95
616.666	32.08
616.858	32.44
617.049	32.35
617.241	32.28
617.432	32.24
617.624	32.27
617.815	32.37
618.007	32.55
618.198	32.7
618.39	32.7
618.581	32.92
618.773	32.65
618.964	32.49
619.155	32.45
619.347	32.49
619.538	32.66
619.729	32.58
619.921	32.7
620.112	32.77
620.303	32.63
620.494	32.62
620.686	32.58
620.877	32.48
621.068	32.56
621.259	32.71
621.451	32.65
621.642	32.22
621.833	32.34
622.024	32.35
622.215	32.39
622.406	32.42
622.597	32.57
622.788	32.53
622.98	32.74
623.171	32.86
623.362	32.84
623.553	33.13
623.744	33.31
623.935	33.27
624.126	33.05
624.317	33.04
624.508	33.29
624.698	33.35
624.889	33.31
625.08	33.5
625.271	33.52
625.462	33.47
625.653	33.29
625.844	33.59
626.034	33.61
626.225	33.78
626.416	33.7
626.607	33.29
626.798	33.07
626.988	33.15
627.179	32.99
627.37	32.76
627.56	32.72
627.751	32.74
627.942	32.72
628.132	32.7
628.323	32.65
628.514	32.84
628.704	33.04
628.895	33.19
629.085	33.14
629.276	33.1
629.466	33.09
629.657	33.11
629.847	32.96
630.038	33.11
630.228	33.24
630.419	33.32
630.609	33.34
630.8	33.22
630.99	33.26
631.181	33.6
631.371	33.85
631.561	34.13
631.752	34.34
631.942	34.55
632.132	34.22
632.323	34.14
632.513	34.2
632.703	34.34
632.893	34.44
633.084	34.21
633.274	33.84
633.464	33.65
633.654	33.64
633.844	33.69
634.034	33.46
634.225	33.65
634.415	33.55
634.605	33.87
634.795	33.52
634.985	33.64
635.175	33.83
635.365	33.81
635.555	34.04
635.745	34.08
635.935	34.02
636.125	34.29
636.315	34.39
636.505	34.58
636.695	34.21
636.885	34.35
637.075	34.25
637.265	34.38
637.455	34.33
637.644	34.39
637.834	34.42
638.024	34.28
638.214	34.32
638.404	34.27
638.593	34.56
638.783	34.81
638.973	35.02
639.163	35.16
639.352	34.87
639.542	35.36
639.732	35.2
639.921	35.25
640.111	35.43
640.301	35.28
640.49	35.32
640.68	35.32
640.87	35.22
641.059	35.23
641.249	35.37
641.438	35.47
641.628	34.93
641.817	35.03
642.007	34.77
642.196	34.62
642.386	34.99
642.575	35.34
642.764	34.73
642.954	34.88
643.143	34.99
643.333	35.35
643.522	35.53
643.711	35.54
643.901	35.37
644.09	35.85
644.279	36.24
644.469	35.98
644.658	35.79
644.847	36.09
645.036	36
645.226	35.71
645.415	35.41
645.604	35.07
645.793	35.43
645.982	35.59
646.171	35.43
646.361	35.57
646.55	35.92
646.739	35.61
646.928	35.95
647.117	35.99
647.306	36.08
647.495	36.25
647.684	36.74
647.873	36.77
648.062	36.78
648.251	36.83
648.44	36.59
648.629	36.39
648.818	36.52
649.007	35.98
649.196	36.19
649.384	36.04
649.573	35.91
649.762	35.74
649.951	35.77
650.14	36.16
650.328	35.99
650.517	35.95
650.706	35.84
650.895	36.08
651.083	36.72
651.272	36.4
651.461	36.75
651.65	36.91
651.838	36.77
652.027	36.37
652.216	35.72
652.404	35.86
652.593	36.05
652.781	36.26
652.97	36.26
653.158	36.12
653.347	36.72
653.535	36.66
653.724	36.09
653.912	36.73
654.101	37.1
654.289	37.55
654.478	37.38
654.666	37.56
654.855	37.69
655.043	37.46
655.231	37.09
655.42	36.94
655.608	36.85
655.796	36.85
655.985	36.71
656.173	36.94
656.361	36.75
656.55	36.81
656.738	36.18
656.926	35.97
657.114	36.27
657.302	36.68
657.491	36.04
657.679	35.99
657.867	36.4
658.055	36.34
658.243	36.04
658.431	36.33
658.619	36.17
658.807	36.43
658.996	36.42
659.184	35.93
659.372	35.97
659.56	36.07
659.748	35.78
659.936	35.83
660.124	35.67
660.311	35.94
660.499	35.88
660.687	36.12
660.875	36.14
661.063	35.97
661.251	36.55
661.439	36.43
661.627	37.01
661.814	37.45
662.002	37.23
662.19	37.13
662.378	36.89
662.565	36.8
662.753	36.91
662.941	36.94
663.129	37.42
663.316	37.12
663.504	37.02
663.692	36.8
663.879	37.04
664.067	37.1
664.254	37.01
664.442	36.72
664.63	36.65
664.817	36.58
665.005	36.48
665.192	36.83
665.38	37.11
665.567	37.16
665.755	36.59
665.942	36.48
666.13	36.91
666.317	37.48
666.504	37.99
666.692	38.39
666.879	38.38
667.067	38.41
667.254	37.66
667.441	37.66
667.629	37.76
667.816	37.86
668.003	37.6
668.19	37.86
668.378	37.31
668.565	37.27
668.752	37.01
668.939	36.84
669.127	36.89
669.314	37.17
669.501	37.02
669.688	36.86
669.875	37.28
670.062	37.75
670.249	37.33
670.436	37.63
670.623	37.81
670.81	37.96
670.997	38.17
671.184	38.17
671.371	38.49
671.558	38.5
671.745	39.02
671.932	38.74
672.119	38.14
672.306	37.81
672.493	37.87
672.68	37.73
672.867	37.63
673.054	37.4
673.24	37.47
673.427	37.32
673.614	37.54
673.801	37.32
673.988	37.75
674.174	38.08
674.361	38.48
674.548	38.55
674.734	38.52
674.921	38.17
675.108	38.65
675.294	38.23
675.481	38.37
675.668	38.15
675.854	37.81
676.041	37.46
676.227	37.64
676.414	37.81
676.601	38.14
676.787	38.25
676.974	38.78
677.16	38.5
677.347	39.27
677.533	39.15
677.719	39.13
677.906	39.43
678.092	39.58
678.279	39.39
678.465	39.03
678.651	38.7
678.838	38.63
679.024	38.43
679.21	38.68
679.397	38.47
679.583	38.54
679.769	38.48
679.955	38.22
680.142	38.62
680.328	38.77
680.514	38.72
680.7	38.57
680.886	38.58
681.073	38.55
681.259	38.17
681.445	38.33
681.631	38.1
681.817	38.35
682.003	38.36
682.189	38.27
682.375	38.43
682.561	38.44
682.747	38.84
682.933	39.08
683.119	39.32
683.305	39.36
683.491	39.1
683.677	39.12
683.863	38.96
684.049	39.33
684.235	39.1
684.42	38.81
684.606	38.81
684.792	38.62
684.978	38.31
685.164	38.2
685.349	38.48
685.535	38.7
685.721	38.48
685.907	38.39
686.092	38.14
686.278	38.05
686.464	38.12
686.649	38.39
686.835	38.33
687.021	38.81
687.206	38.78
687.392	38.5
687.577	38.4
687.763	38.65
687.948	38.6
688.134	38.92
688.319	39.18
688.505	39.12
688.69	39.45
688.876	39.47
689.061	39.02
689.247	39.07
689.432	39.19
689.618	39.12
689.803	39.24
689.988	39.33
690.174	39.06
690.359	39.13
690.544	39.11
690.73	38.99
690.915	38.77
691.1	39.09
691.285	39.13
691.471	39.84
691.656	39.85
691.841	39.72
692.026	40.21
692.211	40.75
692.396	40.38
692.582	40.24
692.767	40.49
692.952	40.7
693.137	40.45
693.322	40.31
693.507	40.43
693.692	40.89
693.877	41.43
694.062	41.16
694.247	40.86
694.432	41.45
694.617	42.15
694.802	41.67
694.987	41.82
695.172	42.21
695.357	42.45
695.541	41.8
695.726	41.8
695.911	42.12
696.096	41.54
696.281	41.66
696.466	41.12
696.65	40.31
696.835	40.42
697.02	40.45
697.204	40.47
697.389	40.24
697.574	39.63
697.759	39.39
697.943	38.56
698.128	38.82
698.312	38.61
698.497	38.52
698.682	38.47
698.866	38.37
699.051	38.11
699.235	37.89
699.42	37.94
699.604	38.38
699.789	38.17
699.973	38.57
700.158	38.93
700.342	39.05
700.527	39.12
700.711	39.74
700.895	39.87
701.08	40.35
701.264	40.67
701.448	41.18
701.633	41.47
701.817	41.77
702.001	41.96
702.186	41.42
702.37	41.87
702.554	42.24
702.738	42.04
702.923	42.25
703.107	42.39
703.291	42.49
703.475	41.89
703.659	41.73
703.843	41.89
704.027	41.27
704.212	41.73
704.396	41.43
704.58	41.21
704.764	41.18
704.948	40.83
705.132	40.17
705.316	39.94
705.5	40.43
705.684	40.77
705.868	40.65
706.052	40.74
706.235	40.57
706.419	40.72
706.603	40.9
706.787	41.04
706.971	41.87
707.155	41.96
707.339	41.71
707.522	41.17
707.706	40.7
707.89	41.15
708.074	41.5
708.257	41.39
708.441	41.09
708.625	41.55
708.808	41.61
708.992	40.84
709.176	41.17
709.359	41.46
709.543	41.54
709.727	42.02
709.91	41.3
710.094	41.17
710.277	41.37
710.461	41.14
710.644	40.9
710.828	40.41
711.011	40.66
711.195	40.74
711.378	40.85
711.562	40.97
711.745	40.38
711.928	40.75
712.112	40.7
712.295	40.56
712.478	40.66
712.662	40.96
712.845	41.04
713.028	40.98
713.212	41.17
713.395	40.62
713.578	41.09
713.761	41.17
713.945	41.4
714.128	41.21
714.311	41.5
714.494	41.7
714.677	41.48
714.86	42.1
715.043	41.83
715.227	41.96
715.41	42.57
715.593	42.41
715.776	42.32
715.959	41.94
716.142	43.09
716.325	43.07
716.508	43.28
716.691	43.33
716.874	43.27
717.057	43.64
717.239	43.41
717.422	42.94
717.605	42.3
717.788	42.29
717.971	42.39
718.154	41.96
718.337	41.86
718.519	42.03
718.702	42.51
718.885	42.25
719.068	42.75
719.25	43.2
719.433	43.31
719.616	44.46
719.798	44.68
719.981	45.31
720.164	44.87
720.346	44.67
720.529	44.41
720.712	44.01
720.894	44.26
721.077	44.21
721.259	44.23
721.442	44.44
721.624	44.39
721.807	44.82
721.989	44.31
722.172	44.83
722.354	45.15
722.537	45.35
722.719	45.02
722.901	44.67
723.084	44.64
723.266	43.98
723.448	43.75
723.631	42.69
723.813	42.7
723.995	42.48
724.178	42.5
724.36	42.85
724.542	41.79
724.724	41.65
724.907	42.05
725.089	41.98
725.271	42.17
725.453	42.34
725.635	43.11
725.817	43.66
725.999	43.89
726.181	43.66
726.364	43.02
726.546	43.76
726.728	44.29
726.91	43.87
727.092	43.56
727.274	43.36
727.456	43.94
727.638	44.26
727.819	43.41
728.001	43.81
728.183	43.87
728.365	44.35
728.547	44.53
728.729	44.72
728.911	44.88
729.093	45.48
729.274	44.89
729.456	43.93
729.638	43.61
729.82	44.55
730.001	45.13
730.183	44.95
730.365	45.11
730.546	44.77
730.728	43.58
730.91	43.57
731.091	42.99
731.273	42.98
731.455	43.2
731.636	43.42
731.818	43.1
731.999	42.18
732.181	41.71
732.362	41.12
732.544	41.41
732.725	42.32
732.907	42.39
733.088	42.88
733.27	43.65
733.451	44.04
733.633	44.34
733.814	44.13
733.995	44.77
734.177	44.99
734.358	45.8
734.539	46.07
734.721	45.42
734.902	45.52
735.083	45.11
735.264	45.42
735.446	45.69
735.627	45.08
735.808	45.05
735.989	44.41
736.17	44.97
736.351	44.71
736.533	44.19
736.714	44.34
736.895	44.59
737.076	43.86
737.257	44.02
737.438	43.49
737.619	44.1
737.8	44.58
737.981	44.5
738.162	44.61
738.343	44.17
738.524	44.31
738.705	44.68
738.886	44.24
739.067	44.88
739.247	44.12
739.428	44.63
739.609	43.26
739.79	43.37
739.971	43.53
740.151	43.66
740.332	44.64
740.513	44.01
740.694	44.82
740.874	45.1
741.055	44.73
741.236	45.46
741.417	46
741.597	46.27
741.778	46.4
741.958	46.87
742.139	46.77
742.32	45.93
742.5	46.48
742.681	45.97
742.861	45.32
743.042	45.96
743.222	45.76
743.403	44.87
743.583	45.91
743.764	45.82
743.944	45.89
744.124	45.07
744.305	45.6
744.485	46.65
744.666	46.07
744.846	46.54
745.026	46.7
745.207	46.72
745.387	46.2
745.567	46.48
745.747	46.08
745.928	45.88
746.108	46.84
746.288	46.03
746.468	45.08
746.648	45.07
746.829	44.99
747.009	45.22
747.189	45.39
747.369	46.24
747.549	45.72
747.729	45.81
747.909	45.25
748.089	44.67
748.269	44.65
748.449	45.11
748.629	45.33
748.809	46.3
748.989	46.39
749.169	45.96
749.349	45.43
749.529	46.26
749.709	45.97
749.889	46.18
750.068	46.18
750.248	46.56
750.428	47.3
750.608	47.72
750.788	45.94
750.967	46.08
751.147	45.89
751.327	46.85
751.507	45.78
751.686	45.8
751.866	46.57
752.046	46.69
752.225	47.17
752.405	47.1
752.585	47.26
752.764	47.74
752.944	47.69
753.123	47.7
753.303	47.14
753.482	48.16
753.662	48.15
753.841	47.16
754.021	48.33
754.2	48.56
754.38	47.75
754.559	47.49
754.739	47.89
754.918	46.89
755.097	47.01
755.277	46.73
755.456	45.99
755.635	46.07
755.815	45.56
755.994	44.18
756.173	43.11
756.352	43.07
756.532	42.64
756.711	42.38
756.89	41.69
757.069	41.44
757.248	41.26
757.427	41.51
757.607	42.23
757.786	43.13
757.965	42.92
758.144	43.71
758.323	45.07
758.502	45.87
758.681	46.36
758.86	47.61
759.039	48.49
759.218	49.81
759.397	48.93
759.576	47.82
759.755	46.96
759.934	47.44
760.113	47.23
760.291	45.79
760.47	45.64
760.649	45.53
760.828	45.63
761.007	45.18
761.186	43.6
761.364	43.83
761.543	43.62
761.722	44.07
761.901	43.79
762.079	44.61
762.258	44.62
762.437	44.26
762.615	43.75
762.794	43.49
762.972	42.65
763.151	42.77
763.33	43.08
763.508	42.97
763.687	43.28
763.865	43.86
764.044	43.31
764.222	43.04
764.401	43
764.579	42.74
764.758	42.54
764.936	43.97
765.114	43.88
765.293	43.28
765.471	44.41
765.65	44.47
765.828	44.76
766.006	45.05
766.184	45.73
766.363	45.27
766.541	45.51
766.719	46.23
766.898	45.38
767.076	45.59
767.254	46.94
767.432	46.21
767.61	45.9
767.788	46.19
767.967	45.76
768.145	45.2
768.323	46.28
768.501	46.86
768.679	46.26
768.857	46.57
769.035	47.66
769.213	47.85
769.391	48.14
769.569	48.58
769.747	48.1
769.925	47.11
770.103	46.69
770.281	46.94
770.459	48.5
770.636	49.16
770.814	49.64
770.992	49.32
771.17	48.19
771.348	49.17
771.525	49.43
771.703	49.34
771.881	51.39
772.059	53.47
772.236	52.86
772.414	52.03
772.592	51.77
772.769	52.14
772.947	51.28
773.125	50.88
773.302	49.79
773.48	49.63
773.657	49.38
773.835	47.97
774.013	47.83
774.19	48.97
774.368	48.05
774.545	48.74
774.723	47.51
774.9	47.97
775.077	48.5
775.255	49.34
775.432	49.28
775.61	49.4
775.787	48.29
775.964	46.59
776.142	46.57
776.319	47.82
776.496	47.57
776.674	47.95
776.851	48.05
777.028	47.27
777.205	47.31
777.382	47.32
777.56	46.26
777.737	49.76
777.914	49.6
778.091	49.41
778.268	48.86
778.445	48.21
778.622	48.31
778.8	50.01
778.977	50.54
779.154	55.02
779.331	55.98
779.508	57.17
779.685	56.85
779.862	57.35
780.038	56.09
780.215	57.24
780.392	58.9
780.569	58.38
780.746	57.5
780.923	58.98
781.1	54.51
781.277	53.38
781.453	52.52
781.63	50.27
781.807	51.04
781.984	52.88
782.16	53.38
782.337	52.3
782.514	53.27
782.691	54.47
782.867	52.32
783.044	51.05
783.221	52.16
783.397	54.83
783.574	53.64
783.75	54.45
783.927	53.47
784.103	50.92
784.28	51.57
784.456	49.21
784.633	49.03
784.809	50.04
784.986	48.86
785.162	48.57
785.339	46.78
785.515	48.41
785.692	46.74
785.868	46.2
786.044	48.05
786.221	45.5
786.397	47.9
786.573	48.04
786.749	47.96
786.926	50.71
787.102	49.08
787.278	48.05
787.454	47.04
787.631	48.74
787.807	48.01
787.983	47.42
788.159	48.88
788.335	49.12
788.511	48.51
788.687	50.06
788.863	48.29
789.039	48.67
789.216	48.6
789.392	50.62
789.568	50.52
789.744	52.37
789.919	51.54
790.095	50.76
790.271	51.72
790.447	51.32
790.623	50.38
790.799	51.66
790.975	52
791.151	53.13
791.327	53.18
791.502	53.73
791.678	53.02
791.854	52.17
792.03	52.55
792.205	52.39
792.381	53.66
792.557	55.85
792.733	56.2
792.908	56.82
793.084	55.87
793.259	56.23
793.435	54.17
793.611	55.2
793.786	57.79
793.962	58.44
794.137	57.71
794.313	55.57
794.488	54.55
794.664	56.58
794.839	56.62
795.015	57.47
795.19	56.56
795.366	58.81
795.541	56.63
795.716	55.77
795.892	56.51
796.067	54.39
796.242	55.6
796.418	53.26
796.593	51.04
796.768	50.06
796.944	49.85
797.119	49.93
797.294	47.61
797.469	48.67
797.644	48.17
797.82	47.52
797.995	48.67
798.17	45.64
798.345	45.55
798.52	45.14
798.695	46.53
798.87	47.45
799.045	47.16
799.22	48.27
799.395	47
799.57	48.28
799.745	48.72
799.92	49.1
800.095	51.22
800.27	53.68
800.445	55.73
800.62	54.38
800.795	54.89
800.97	54.64
801.145	53.59
801.319	54.3
801.494	55.97
801.669	56.25
801.844	56.13
802.018	55.58
802.193	55.27
802.368	53.81
802.543	53.66
802.717	52
802.892	52.88
803.067	54.38
803.241	54.68
803.416	53.72
803.59	54.09
803.765	54.12
803.94	55.8
804.114	53.92
804.289	54.87
804.463	55.68
804.638	55.09
804.812	56.92
804.986	53.77
805.161	54.09
805.335	52.89
805.51	53.17
805.684	52.47
805.858	49.88
806.033	48.95
806.207	47.85
806.381	49.39
806.556	49.75
806.73	47.98
806.904	50.1
807.078	50.47
807.253	52.05
807.427	50.95
807.601	52.58
807.775	54.38
807.949	58.53
808.123	61.16
808.298	62.2
808.472	63.39
808.646	63.52
808.82	61.86
808.994	62.18
809.168	60.05
809.342	60.66
809.516	62.6
809.69	62.66
809.864	60.56
810.038	60.75
810.212	59.97
810.385	59.32
810.559	59.54
810.733	62.34
810.907	61.56
811.081	63.09
811.255	62.08
811.428	59.5
811.602	60.23
811.776	59.69
811.95	58.02
812.123	56.65
812.297	57.89
812.471	58.07
812.644	57.06
812.818	57.42
812.992	56.91
813.165	58.63
813.339	56.03
813.512	53.82
813.686	55.97
813.86	57.29
814.033	56.36
814.207	55.21
814.38	56.49
814.554	57.15
814.727	56.68
814.9	54.1
815.074	54.65
815.247	53.79
815.421	57.49
815.594	59.24
815.767	55.56
815.941	58.65
816.114	60.98
816.287	60.18
816.46	59.53
816.634	60.21
816.807	64.68
816.98	62.87
817.153	66.83
817.327	65.6
817.5	63.7
817.673	65.01
817.846	62.09
818.019	59.88
818.192	58.44
818.365	57.7
818.538	56.79
818.711	51.01
818.884	51.76
819.057	52.39
819.23	50.6
819.403	46.73
819.576	46.99
819.749	48.54
819.922	48.96
820.095	49.51
820.268	50.06
820.441	49.89
820.614	49.87
820.786	48.86
820.959	47.3
821.132	47.49
821.305	46.31
821.477	44.93
821.65	43.85
821.823	42.99
821.996	41.51
822.168	40.86
822.341	40.89
822.514	41.26
822.686	40.98
822.859	40.71
823.031	40.53
823.204	41.59
823.376	41.94
823.549	42.41
823.722	42.55
823.894	43.35
824.067	43.78
824.239	44.48
824.411	45.13
824.584	45.49
824.756	45.76
824.929	46.05
825.101	46.02
825.273	46.47
825.446	46.42
825.618	46.32
825.79	46.1
825.963	45.49
826.135	44.57
826.307	43.63
826.479	43.69
826.652	43.94
826.824	43.86
826.996	43.89
827.168	43.32
827.34	42.95
827.512	43.52
827.684	43.79
827.856	44.19
828.029	45.59
828.201	46.13
828.373	46.22
828.545	47.07
828.717	47.32
828.889	46.76
829.061	48.05
829.232	48.95
829.404	48.99
829.576	50.17
829.748	50.19
829.92	49.63
830.092	49.9
830.264	49.7
830.436	49.15
830.607	50.93
830.779	53.42
830.951	53.15
831.123	51.31
831.294	52.28
831.466	51.42
831.638	52.1
831.809	52.13
831.981	54.5
832.153	55.56
832.324	55.06
832.496	53.71
832.667	53.11
832.839	52.54
833.011	53.39
833.182	50.64
833.354	49.75
833.525	50.88
833.697	51.69
833.868	48.72
834.039	51.08
834.211	50.68
834.382	49.62
834.554	49.28
834.725	48.89
834.896	48.41
835.068	49.49
835.239	50.45
835.41	49.81
835.581	48.57
835.753	49.22
835.924	47.55
836.095	49.04
836.266	49.96
836.438	48.45
836.609	47.69
836.78	50.2
836.951	51.47
837.122	49.03
837.293	49.7
837.464	48.62
837.635	49.08
837.806	49.75
837.977	49.93
838.148	49.86
838.319	51.76
838.49	54.12
838.661	54.01
838.832	53.6
839.003	57.36
839.174	60.13
839.345	63.71
839.516	67.12
839.687	67.32
839.857	64.13
840.028	68.18
840.199	66.73
840.37	69.42
840.54	69.55
840.711	66.3
840.882	66.85
841.053	63.09
841.223	59.69
841.394	56.33
841.564	57.51
841.735	59.02
841.906	56.36
842.076	50.51
842.247	47.58
842.417	47.24
842.588	50.12
842.758	53.15
842.929	57.23
843.099	61.76
843.27	64.35
843.44	63.46
843.611	63.35
843.781	57.11
843.951	62.76
844.122	62.18
844.292	64.3
844.462	66.26
844.633	66.06
844.803	63.06
844.973	59.83
845.144	60.27
845.314	56.31
845.484	55.45
845.654	65.21
845.824	71.84
845.995	80.5
846.165	77.38
846.335	76.26
846.505	72.17
846.675	80.2
846.845	86.43
847.015	86.51
847.185	85.71
847.355	91.03
847.525	96
847.695	105.74
847.865	101.19
848.035	105.15
848.205	104.53
848.375	116.28
848.545	97.05
848.715	98.17
848.884	94.62
849.054	104.49
849.224	102.75
849.394	94.14
849.564	85.32
849.733	88.06
849.903	84.88
850.073	88.73
850.243	79.56
850.412	81.02
850.582	79.55
850.752	75.98
850.921	76.85
851.091	78.92
851.26	81.66
851.43	78.65
851.599	77.63
851.769	81.27
851.939	74.22
852.108	78.58
852.278	90.59
852.447	82.6
852.616	87.08
852.786	86.68
852.955	84.27
853.125	89.44
853.294	90.88
853.463	91.82
853.633	95.98
853.802	98.42
853.971	98.53
854.141	90.4
854.31	94.85
854.479	94.65
854.648	93.59
854.818	85.65
854.987	85.04
855.156	88.93
855.325	82.5
855.494	79.72
855.663	84.29
855.832	78.63
856.001	80.45
856.171	79.59
856.34	81.86
856.509	83.43
856.678	90.58
856.847	95.75
857.016	90.49
857.185	87.01
857.353	84.96
857.522	88.47
857.691	90.28
857.86	94.59
858.029	82.11
858.198	83.23
858.367	89.46
858.535	103.01
858.704	94.85
858.873	102.24
859.042	103.79
859.21	103.33
859.379	107.02
859.548	99.75
859.717	102.67
859.885	120.7
860.054	116.67
860.222	100.92
860.391	102.19
860.56	94.27
860.728	93.76
860.897	95.92
861.065	100.09
861.234	91.55
861.402	102.42
861.571	91.69
861.739	89.12
861.908	96.86
862.076	112.8
862.244	108.36
862.413	107.48
862.581	102.41
862.749	101.25
862.918	89.48
863.086	82.8
863.254	75.45
863.423	80.38
863.591	89.78
863.759	87.56
863.927	82.15
864.096	82.8
864.264	89.76
864.432	89.12
864.6	96.43
864.768	102.65
864.936	118.35
865.104	118.92
865.272	124.6
865.44	122.04
865.608	112.62
865.776	114.12
865.944	116.4
866.112	109.19
866.28	103.69
866.448	105.13
866.616	100.37
866.784	96.14
866.952	95.83
867.12	87.87
867.288	82.64
867.455	76.73
867.623	78.99
867.791	74.47
867.959	78.45
868.127	80.88
868.294	74.55
868.462	75.08
868.63	74.34
868.797	78.04
868.965	86.69
869.133	83.82
869.3	92.69
869.468	85.72
869.636	73.29
869.803	77.85
869.971	83.36
870.138	80.53
870.306	79.14
870.473	72.21
870.641	71.83
870.808	68.6
870.975	71.02
871.143	72.82
871.31	70.45
871.478	86.18
871.645	75.36
871.812	71.07
871.98	74.35
872.147	72.13
872.314	75.34
872.482	70.09
872.649	69.32
872.816	64.57
872.983	64.5
873.15	70.56
873.318	75.93
873.485	87.66
873.652	90.76
873.819	102.97
873.986	110.63
874.153	107.03
874.32	103.08
874.487	100.89
874.654	99.82
874.821	95.06
874.988	89.1
875.155	84.6
875.322	81.04
875.489	73.93
875.656	64.89
875.823	64.95
875.99	54.25
876.157	59.44
876.324	68.84
876.49	68.05
876.657	74.05
876.824	73.75
876.991	72.57
877.157	71.48
877.324	81.85
877.491	79.92
877.658	83.53
877.824	86.35
877.991	77.36
878.157	72.68
878.324	72.62
878.491	79.44
878.657	87.47
878.824	90.52
878.99	89.28
879.157	92.39
879.323	89.25
879.49	88.68
879.656	95.41
879.823	105.33
879.989	103.32
880.156	103.59
880.322	95.95
880.488	87.4
880.655	82.86
880.821	87.24
880.987	79.13
881.154	78.7
881.32	80.67
881.486	73.28
881.652	67.89
881.819	65.6
881.985	61.24
882.151	60.24
882.317	60.51
882.483	58.16
882.649	55.57
882.816	53.23
882.982	50.91
883.148	48.05
883.314	46.9
883.48	46.65
883.646	45.34
883.812	43.04
883.978	42.59
884.144	42.77
884.31	41.94
884.476	42.69
884.642	44.67
884.807	45.87
884.973	46.83
885.139	48.19
885.305	48.94
885.471	48.95
885.637	50.62
885.802	51.31
885.968	50.16
886.134	52.03
886.3	50.22
886.465	47.27
886.631	45.47
886.797	47.23
886.962	46.48
887.128	48.64
887.293	50.99
887.459	55.1
887.625	52.33
887.79	57.23
887.956	54.75
888.121	57.83
888.287	60.79
888.452	66.33
888.618	61.77
888.783	65.69
