Data from LC_169_Reflection_1.txt Node
Date: Mon Nov 16 23:09:39 EST 2015
User: robert
Spectrometer: USB4E03001
Autoset integration time: false
Trigger mode: 4
Integration Time (sec): 1.000000E-1
Scans to average: 15
Electric dark correction enabled: true
Nonlinearity correction enabled: false
Boxcar width: 5
Stray light correction enabled: false
XAxis mode: Wavelengths
Stop averaging: false
Number of Pixels in Spectrum: 3648
>>>>>Begin Spectral Data<<<<<
177.566	-1273.49
177.785	187.66
178.005	-1790.76
178.225	138.83
178.445	-10.38
178.665	250.34
178.885	19.05
179.105	-429.91
179.324	-824.77
179.544	-28.26
179.764	-638.07
179.984	-110.53
180.204	-245.68
180.423	-245.17
180.643	-313.93
180.863	-170.86
181.083	-149.14
181.302	-175.91
181.522	-187.08
181.742	-177.4
181.961	-255.72
182.181	-221.81
182.401	-249.1
182.621	-1209.46
182.84	-554.22
183.06	-330.27
183.279	-151.18
183.499	-132.27
183.719	-104.62
183.938	-81.14
184.158	-50.93
184.377	-45.55
184.597	-95.63
184.816	-84.9
185.036	-36.18
185.256	-17.07
185.475	-27.37
185.695	-54.18
185.914	-97.17
186.134	-258.26
186.353	-325.65
186.572	-506.17
186.792	-741.57
187.011	-283.28
187.231	-227.42
187.45	-159.04
187.67	-557.77
187.889	-1599.38
188.108	3300
188.328	-746.73
188.547	-277.87
188.766	-479.13
188.986	-678.14
189.205	-463.49
189.424	-318.14
189.644	-1152.45
189.863	-1382.93
190.082	-977.32
190.302	-2180.81
190.521	-1457.4
190.74	1489.32
190.959	600.17
191.178	940.6
191.398	812.27
191.617	722.27
191.836	618.61
192.055	1514.53
192.274	602.91
192.494	647.16
192.713	724.95
192.932	1398.74
193.151	1087.58
193.37	1778.98
193.589	-1125.18
193.808	-303.85
194.027	-390.92
194.246	-3904.47
194.465	683.57
194.685	1649.42
194.904	665.86
195.123	-837.85
195.342	-535.13
195.561	-279.24
195.78	-529.13
195.999	21335.21
196.218	692.83
196.436	620.09
196.655	-1994.3
196.874	-723.1
197.093	-1127.03
197.312	-1022.29
197.531	2640.11
197.75	715.07
197.969	-1896.93
198.188	-346.78
198.407	-51.28
198.625	-112.04
198.844	-93.41
199.063	-112.28
199.282	-283.35
199.501	-136.53
199.719	-93.42
199.938	-42.84
200.157	-79.46
200.376	-86.75
200.594	-120.56
200.813	-306.05
201.032	-208.89
201.251	-196.49
201.469	-189.3
201.688	-122.37
201.907	-273.54
202.125	-480.02
202.344	20308.33
202.563	3500.19
202.781	568.2
203	1749.59
203.218	1455.42
203.437	1215.02
203.656	586.73
203.874	310.95
204.093	304.06
204.311	392.46
204.53	351.39
204.748	477.35
204.967	276.04
205.185	242.01
205.404	279.92
205.622	167.64
205.841	148.32
206.059	155.73
206.278	210.15
206.496	455.09
206.715	234.85
206.933	203.98
207.151	187.53
207.37	248.75
207.588	328.43
207.806	316.29
208.025	625.2
208.243	-1146.83
208.461	1887.29
208.68	-15312.94
208.898	657.89
209.116	718.47
209.335	650.67
209.553	703.97
209.771	7286.67
209.989	1354.33
210.208	3169.01
210.426	-5644.71
210.644	3145.03
210.862	-2703.49
211.081	1265.39
211.299	-476.41
211.517	1896.38
211.735	-485.39
211.953	-139885.71
212.171	-2318.98
212.39	-5624.32
212.608	-9021.74
212.826	480.01
213.044	285.01
213.262	302.92
213.48	1906.75
213.698	263.27
213.916	408.68
214.134	284.05
214.352	659.43
214.57	419.9
214.788	543.33
215.006	451.55
215.224	359.45
215.442	272.16
215.66	226.91
215.878	175.56
216.096	189.9
216.314	190.23
216.532	403.83
216.75	302.26
216.968	308.19
217.185	702.46
217.403	1526.91
217.621	-4235.7
217.839	-1212.92
218.057	-1538.4
218.275	2911.59
218.492	915.91
218.71	1451.45
218.928	408.38
219.146	377.36
219.363	279.64
219.581	221.26
219.799	156.84
220.017	173.31
220.234	149.23
220.452	166.32
220.67	176.17
220.887	171.63
221.105	187.41
221.323	138.53
221.54	142.86
221.758	188.37
221.976	214.78
222.193	172.88
222.411	99.83
222.629	128.32
222.846	121.15
223.064	126.9
223.281	111.95
223.499	96.52
223.716	107.65
223.934	92.9
224.151	86.32
224.369	67.66
224.586	77.27
224.804	102.93
225.021	105.15
225.239	93.1
225.456	84.82
225.674	93.36
225.891	87.97
226.108	97.37
226.326	103.83
226.543	93.21
226.76	93.56
226.978	82.96
227.195	80.47
227.413	68.61
227.63	58.2
227.847	56.62
228.064	48.96
228.282	45.41
228.499	35.93
228.716	30.43
228.934	27.98
229.151	27.91
229.368	25.18
229.585	22.62
229.802	23.9
230.02	24.16
230.237	24.27
230.454	26.03
230.671	25.7
230.888	27.2
231.105	28.65
231.323	32.58
231.54	31.61
231.757	33.15
231.974	31.94
232.191	29.47
232.408	35.07
232.625	30.29
232.842	27.18
233.059	29.4
233.276	30.36
233.493	31.49
233.71	26.98
233.927	28.54
234.144	30.17
234.361	30.51
234.578	35.03
234.795	33.93
235.012	35.73
235.229	34.41
235.446	34.38
235.663	33.41
235.879	34.42
236.096	34.92
236.313	34.5
236.53	36.72
236.747	40.55
236.964	38.4
237.181	36.69
237.397	36.66
237.614	41.88
237.831	38.34
238.048	38.18
238.264	39.1
238.481	35.85
238.698	34.55
238.915	31.83
239.131	30.67
239.348	32.97
239.565	33.62
239.781	34.45
239.998	30.71
240.215	28.87
240.431	29.06
240.648	26.59
240.865	28.86
241.081	26.1
241.298	24.61
241.514	24.83
241.731	21.65
241.947	21.48
242.164	19.25
242.38	19.43
242.597	19.63
242.814	19.2
243.03	18.56
243.246	18.58
243.463	20.12
243.679	21.12
243.896	19.04
244.112	21.16
244.329	22.03
244.545	23.82
244.762	23.47
244.978	25.28
245.194	23.63
245.411	23.4
245.627	20.49
245.843	19.88
246.06	19.39
246.276	19.26
246.492	16.98
246.709	16.03
246.925	15.07
247.141	15.01
247.357	14.52
247.574	15.27
247.79	15.03
248.006	14.41
248.222	13.6
248.439	13.46
248.655	13.46
248.871	13.89
249.087	14.62
249.303	14.41
249.519	14.12
249.736	14.81
249.952	12.93
250.168	15
250.384	16.84
250.6	18.14
250.816	16.89
251.032	16.52
251.248	15.91
251.464	13.19
251.68	13.54
251.896	15.2
252.112	14.37
252.328	17.25
252.544	15.74
252.76	16
252.976	15.57
253.192	15.78
253.408	15.29
253.624	18.03
253.84	20.12
254.056	23.41
254.272	21.84
254.487	21.79
254.703	20.7
254.919	19.04
255.135	16.93
255.351	15.28
255.567	17.29
255.782	20.4
255.998	16.57
256.214	15.94
256.43	10.42
256.646	11.47
256.861	13.11
257.077	14.48
257.293	14.9
257.508	16.81
257.724	18.88
257.94	18.34
258.155	16.85
258.371	16.39
258.587	15.18
258.802	16.92
259.018	17.53
259.234	15.05
259.449	14.38
259.665	13.6
259.88	13.06
260.096	12.99
260.312	11.75
260.527	11.68
260.743	11.4
260.958	12.13
261.174	11.57
261.389	11.54
261.605	12.82
261.82	13.32
262.036	13.64
262.251	14.36
262.466	13.64
262.682	15.44
262.897	14.67
263.113	15.19
263.328	14.57
263.543	15.2
263.759	14.62
263.974	15.8
264.189	14.69
264.405	16.21
264.62	16.82
264.835	18.13
265.051	17.13
265.266	20.7
265.481	21.99
265.696	23.27
265.912	22.57
266.127	20.61
266.342	18.25
266.557	17.44
266.773	17.09
266.988	16.38
267.203	16.26
267.418	16.21
267.633	14.1
267.848	14.46
268.064	12.4
268.279	12.49
268.494	12.29
268.709	12.62
268.924	13.53
269.139	13.39
269.354	12.83
269.569	11.67
269.784	12.37
269.999	13.23
270.214	12.23
270.429	14.54
270.644	14.16
270.859	13.27
271.074	13.49
271.289	13.21
271.504	12.38
271.719	12.38
271.934	12.38
272.149	11.44
272.363	11.62
272.578	10.79
272.793	9.89
273.008	9.73
273.223	10.04
273.438	10.13
273.653	9.87
273.867	9.95
274.082	9.74
274.297	10.09
274.512	10.83
274.726	9.44
274.941	9.66
275.156	9.69
275.371	10.69
275.585	12.04
275.8	12.08
276.015	11.05
276.229	11.57
276.444	12.56
276.659	13.04
276.873	12.77
277.088	13.58
277.302	14.96
277.517	15.58
277.732	16.33
277.946	16.59
278.161	17.5
278.375	17.97
278.59	19.02
278.804	18.87
279.019	19.33
279.233	19.3
279.448	19.12
279.662	17.89
279.877	16.5
280.091	14.47
280.306	12.98
280.52	12.76
280.735	11.26
280.949	10.46
281.163	11.39
281.378	9.44
281.592	10.2
281.806	10.36
282.021	10.8
282.235	11.62
282.449	12.09
282.664	12.82
282.878	11.56
283.092	13.65
283.307	13.29
283.521	13.15
283.735	14.51
283.949	13.79
284.164	13.41
284.378	13.63
284.592	12.13
284.806	11.79
285.02	12.4
285.234	12.96
285.449	12.61
285.663	12.3
285.877	11.54
286.091	11.08
286.305	10.84
286.519	11
286.733	9.9
286.947	10.49
287.161	10.98
287.375	10.12
287.589	10.38
287.803	10.55
288.017	10.9
288.231	10.18
288.445	9.89
288.659	11.3
288.873	10.48
289.087	12.17
289.301	12.59
289.515	12.46
289.729	11.93
289.943	11.82
290.157	11.02
290.371	11.84
290.584	12.17
290.798	13.45
291.012	13.48
291.226	14.11
291.44	14.48
291.654	14.23
291.867	14.03
292.081	14.11
292.295	14.96
292.509	15.66
292.722	15.13
292.936	15.81
293.15	15.3
293.364	14.15
293.577	14.81
293.791	13.44
294.005	14.4
294.218	14.91
294.432	15.65
294.645	13.97
294.859	13.57
295.073	13.94
295.286	14.13
295.5	12.56
295.713	12.59
295.927	11.8
296.14	12.21
296.354	11.06
296.568	11.14
296.781	11.44
296.994	11.21
297.208	11.05
297.421	10.74
297.635	9.55
297.848	10.47
298.062	10.75
298.275	11.71
298.489	11.85
298.702	12.71
298.915	12.61
299.129	12.02
299.342	12.05
299.555	13.02
299.769	13.59
299.982	14.81
300.195	15.41
300.409	15.56
300.622	15.39
300.835	16.08
301.048	16.05
301.262	16.26
301.475	16.24
301.688	18.26
301.901	18.46
302.115	18.42
302.328	18.19
302.541	17.8
302.754	18.01
302.967	18.95
303.18	18.04
303.393	17.52
303.607	17.04
303.82	17.59
304.033	16.57
304.246	15.9
304.459	16.11
304.672	16.93
304.885	17.38
305.098	17.05
305.311	15.27
305.524	16.41
305.737	16.22
305.95	17.64
306.163	16.95
306.376	16.75
306.589	16.69
306.802	15.79
307.015	15.89
307.228	15.56
307.44	15.4
307.653	15.19
307.866	14.19
308.079	16.15
308.292	15.89
308.505	17.02
308.718	16.98
308.93	17.03
309.143	17.33
309.356	17.22
309.569	17
309.781	17.79
309.994	17.36
310.207	17.54
310.42	15.98
310.632	14.75
310.845	14.09
311.058	13.29
311.27	13.44
311.483	13.48
311.696	13
311.908	13.09
312.121	12.71
312.333	14.66
312.546	14.22
312.759	14.68
312.971	15.51
313.184	16.27
313.396	16.61
313.609	17.26
313.821	17.56
314.034	18.31
314.246	18.46
314.459	17.79
314.671	16.38
314.884	16.47
315.096	16.97
315.309	17.01
315.521	17.17
315.733	16.94
315.946	15.67
316.158	15.19
316.371	14.94
316.583	14.89
316.795	16.04
317.008	17.29
317.22	19.47
317.432	17.82
317.644	18.59
317.857	18.26
318.069	19.22
318.281	19.85
318.494	19.63
318.706	20.4
318.918	21.35
319.13	21.29
319.342	21.6
319.555	20.39
319.767	22.5
319.979	20.51
320.191	21.44
320.403	21.95
320.615	21.85
320.827	24.03
321.039	23.84
321.252	23.13
321.464	24.03
321.676	23.35
321.888	22.17
322.1	21.5
322.312	20.86
322.524	19.13
322.736	18.33
322.948	18.02
323.16	16
323.372	15.73
323.584	16.08
323.796	14.48
324.007	14.08
324.219	14.53
324.431	14.46
324.643	15.65
324.855	15.37
325.067	15.24
325.279	16.25
325.491	16.77
325.702	16.15
325.914	16.29
326.126	17.51
326.338	18.23
326.55	18.92
326.761	19.29
326.973	19.67
327.185	21.12
327.396	22.01
327.608	21.65
327.82	21.77
328.032	22.45
328.243	21.93
328.455	22.18
328.666	22.37
328.878	21.97
329.09	21.9
329.301	22.23
329.513	21.44
329.725	21.23
329.936	21.45
330.148	22.01
330.359	21.7
330.571	22
330.782	21.4
330.994	22.32
331.205	22.46
331.417	21.85
331.628	21.57
331.84	22.21
332.051	22.53
332.262	23.12
332.474	23.1
332.685	24.33
332.897	24.1
333.108	24.73
333.319	22.82
333.531	22.69
333.742	24
333.953	23.83
334.165	24.27
334.376	24.02
334.587	23.4
334.799	22.83
335.01	21.34
335.221	21.59
335.432	21.19
335.644	20.74
335.855	21.47
336.066	21.69
336.277	21.77
336.488	21.57
336.7	21.08
336.911	21.53
337.122	21.43
337.333	23.09
337.544	23.85
337.755	23.99
337.966	24.94
338.177	24.75
338.388	24.41
338.599	24.95
338.811	24.61
339.022	24.98
339.233	24.71
339.444	25.05
339.655	23.04
339.866	22.42
340.076	22.98
340.287	23.18
340.498	23.1
340.709	22
340.92	21.46
341.131	21.42
341.342	20.95
341.553	21.15
341.764	21.54
341.975	22.94
342.185	22.34
342.396	22
342.607	22.07
342.818	21.99
343.029	22.78
343.239	22.96
343.45	23.05
343.661	22.92
343.872	22.6
344.082	22.55
344.293	22.66
344.504	24.3
344.714	23.04
344.925	21.92
345.136	21.25
345.346	19.56
345.557	19.9
345.768	19.76
345.978	20.35
346.189	20.79
346.399	20.05
346.61	20.26
346.821	19.48
347.031	21.04
347.242	21.36
347.452	21.94
347.663	23.02
347.873	23.48
348.084	23.96
348.294	24.41
348.504	24.41
348.715	24.6
348.925	22.99
349.136	22.18
349.346	20.73
349.557	20.94
349.767	20.83
349.977	20.82
350.188	20.72
350.398	20.82
350.608	20.19
350.819	19.79
351.029	19.99
351.239	20.78
351.449	20.99
351.66	22.02
351.87	22.87
352.08	22.51
352.29	22.25
352.501	21.78
352.711	21.36
352.921	21.83
353.131	21.21
353.341	21
353.552	20.68
353.762	20.6
353.972	20.38
354.182	20.06
354.392	20.72
354.602	21.13
354.812	20.66
355.022	21.19
355.232	20.79
355.442	21.18
355.652	21.36
355.862	20.76
356.072	21.26
356.282	20.8
356.492	20.73
356.702	19.96
356.912	20.13
357.122	20.62
357.332	20.05
357.542	20.51
357.752	21.01
357.962	20.85
358.171	21.26
358.381	21.36
358.591	21.23
358.801	20.96
359.011	21.99
359.221	21.97
359.43	21.68
359.64	21.74
359.85	21.32
360.06	21.05
360.269	21.09
360.479	20.77
360.689	20.23
360.899	20.5
361.108	20.6
361.318	20.45
361.528	19.81
361.737	19.33
361.947	18.69
362.156	18.36
362.366	17.92
362.576	18.05
362.785	18.1
362.995	17.89
363.204	17.97
363.414	17.92
363.623	17.11
363.833	17.89
364.042	17.92
364.252	18.19
364.461	18.81
364.671	18.86
364.88	18.85
365.09	19.5
365.299	20.12
365.509	19.45
365.718	19.18
365.927	19.41
366.137	19.15
366.346	19.65
366.555	19.47
366.765	18.67
366.974	18.7
367.183	18.59
367.393	17.49
367.602	17.09
367.811	17.24
368.021	16.51
368.23	16.4
368.439	16.15
368.648	16.2
368.857	16.54
369.067	17.02
369.276	17.24
369.485	17.45
369.694	18.12
369.903	18.2
370.112	18.39
370.321	19.19
370.531	19.35
370.74	19.13
370.949	18.94
371.158	19.29
371.367	19.25
371.576	18.84
371.785	18.42
371.994	18.28
372.203	18.25
372.412	18.13
372.621	18.27
372.83	18.33
373.039	18.53
373.248	17.94
373.457	17.81
373.666	17.54
373.874	17.79
374.083	18.12
374.292	18.11
374.501	17.48
374.71	17.01
374.919	17.24
375.128	17.08
375.336	17.22
375.545	17.69
375.754	17.41
375.963	17.26
376.171	16.61
376.38	16.4
376.589	16.51
376.798	16.54
377.006	17.37
377.215	16.97
377.424	16.91
377.632	16.62
377.841	16.74
378.05	16.49
378.258	16.31
378.467	16.31
378.675	15.93
378.884	16.02
379.093	16.26
379.301	15.35
379.51	15.29
379.718	14.96
379.927	15.22
380.135	14.4
380.344	14.59
380.552	14.8
380.761	15.11
380.969	15.34
381.177	15.14
381.386	14.5
381.594	15.13
381.803	14.87
382.011	15.3
382.219	14.51
382.428	14.35
382.636	14.07
382.845	14.43
383.053	14.16
383.261	14.02
383.469	14.09
383.678	14.65
383.886	13.98
384.094	13.84
384.302	13.77
384.511	14.29
384.719	14.8
384.927	14.81
385.135	14.37
385.343	14.77
385.552	14.54
385.76	14.44
385.968	14.33
386.176	14.28
386.384	14.16
386.592	13.86
386.8	13.31
387.008	13.65
387.216	14.03
387.424	13.94
387.633	13.68
387.841	13.49
388.049	13.28
388.257	13.24
388.465	13.59
388.672	13.94
388.88	14.16
389.088	14.37
389.296	13.9
389.504	13.85
389.712	14.05
389.92	14
390.128	14.15
390.336	14.24
390.544	14.55
390.751	14.09
390.959	13.68
391.167	13.61
391.375	13.8
391.583	13.4
391.79	12.91
391.998	12.75
392.206	12.69
392.414	12.55
392.621	12.5
392.829	12.37
393.037	12.74
393.244	12.95
393.452	13.01
393.66	12.84
393.867	13.31
394.075	13.47
394.283	13.65
394.49	13.44
394.698	13.79
394.905	13.69
395.113	13.4
395.32	13.26
395.528	13.39
395.735	13.12
395.943	12.91
396.15	12.88
396.358	13.23
396.565	12.81
396.773	13.28
396.98	13.12
397.188	13.01
397.395	12.95
397.602	12.91
397.81	12.76
398.017	12.89
398.225	13.12
398.432	13.34
398.639	12.97
398.847	13.3
399.054	12.97
399.261	12.69
399.468	13
399.676	13
399.883	12.95
400.09	12.98
400.297	13.07
400.505	13.01
400.712	12.52
400.919	12.82
401.126	12.81
401.333	13.03
401.54	13.14
401.748	13.15
401.955	13.16
402.162	13.24
402.369	13.15
402.576	13.15
402.783	13.08
402.99	13.26
403.197	12.99
403.404	12.79
403.611	12.74
403.818	12.85
404.025	12.68
404.232	12.49
404.439	12.29
404.646	12.06
404.853	11.71
405.06	11.73
405.267	11.54
405.474	11.46
405.681	11.33
405.887	11.24
406.094	11.1
406.301	11.06
406.508	11.52
406.715	11.67
406.922	11.92
407.128	12.01
407.335	11.99
407.542	12.16
407.749	12.23
407.955	12.54
408.162	12.42
408.369	12.74
408.575	12.78
408.782	12.4
408.989	12.29
409.195	11.89
409.402	12.19
409.609	12.17
409.815	12.13
410.022	12.2
410.228	11.92
410.435	12.01
410.642	11.64
410.848	11.83
411.055	11.7
411.261	11.61
411.468	11.92
411.674	11.56
411.881	11.65
412.087	11.67
412.294	11.49
412.5	11.29
412.706	11.26
412.913	11.35
413.119	11.06
413.326	11.16
413.532	11.31
413.738	11.05
413.945	11.28
414.151	10.99
414.357	11.01
414.564	11.06
414.77	11.25
414.976	11.14
415.182	11.41
415.389	11.51
415.595	11.46
415.801	11.47
416.007	11.56
416.214	11.46
416.42	11.61
416.626	11.53
416.832	11.55
417.038	11.55
417.244	11.64
417.45	11.45
417.657	11.35
417.863	11.52
418.069	11.61
418.275	11.83
418.481	11.77
418.687	11.78
418.893	11.72
419.099	11.55
419.305	11.74
419.511	11.67
419.717	11.65
419.923	11.51
420.129	11.47
420.335	11.39
420.541	11.22
420.746	11.12
420.952	11.11
421.158	11.08
421.364	11.2
421.57	11.15
421.776	11.19
421.982	11.1
422.187	11.06
422.393	10.92
422.599	10.84
422.805	10.93
423.01	11.02
423.216	10.81
423.422	10.77
423.628	10.8
423.833	10.66
424.039	10.61
424.245	10.66
424.45	10.94
424.656	10.99
424.862	10.98
425.067	11.07
425.273	11.13
425.478	11.41
425.684	11.43
425.889	11.67
426.095	11.72
426.301	11.9
426.506	11.99
426.712	11.86
426.917	11.95
427.123	12.15
427.328	12.11
427.533	12.2
427.739	12.18
427.944	12.24
428.15	11.93
428.355	12.01
428.561	11.91
428.766	11.99
428.971	12.07
429.177	12.13
429.382	12.2
429.587	12.19
429.793	12.03
429.998	12.05
430.203	12.08
430.408	11.89
430.614	11.91
430.819	11.88
431.024	11.85
431.229	11.7
431.434	11.71
431.64	11.5
431.845	11.44
432.05	11.63
432.255	11.55
432.46	11.57
432.665	11.74
432.87	11.69
433.076	11.78
433.281	11.81
433.486	11.89
433.691	11.73
433.896	11.63
434.101	11.62
434.306	11.58
434.511	11.56
434.716	11.61
434.921	11.56
435.126	11.38
435.331	11.26
435.535	11.23
435.74	11.16
435.945	11.31
436.15	11.38
436.355	11.5
436.56	11.47
436.765	11.43
436.97	11.21
437.174	11.22
437.379	11.44
437.584	11.55
437.789	11.5
437.993	11.56
438.198	11.56
438.403	11.69
438.608	11.61
438.812	11.42
439.017	11.53
439.222	11.59
439.426	11.56
439.631	11.48
439.836	11.36
440.04	11.51
440.245	11.47
440.45	11.38
440.654	11.34
440.859	11.22
441.063	11.18
441.268	11.11
441.472	11.22
441.677	11.33
441.881	11.33
442.086	11.23
442.29	11.05
442.495	11.1
442.699	11.21
442.904	11.14
443.108	11.14
443.312	11.23
443.517	11.15
443.721	10.97
443.925	10.8
444.13	10.8
444.334	10.96
444.538	11
444.743	10.89
444.947	10.76
445.151	10.68
445.356	10.68
445.56	10.71
445.764	10.84
445.968	10.88
446.173	10.94
446.377	11.01
446.581	10.98
446.785	11.01
446.989	11.01
447.193	11.11
447.398	11.2
447.602	11.22
447.806	11.3
448.01	11.33
448.214	11.46
448.418	11.37
448.622	11.44
448.826	11.53
449.03	11.5
449.234	11.66
449.438	11.55
449.642	11.53
449.846	11.53
450.05	11.38
450.254	11.28
450.458	11.35
450.662	11.35
450.866	11.14
451.069	10.97
451.273	10.95
451.477	10.71
451.681	10.71
451.885	10.56
452.089	10.85
452.292	10.81
452.496	10.93
452.7	10.75
452.904	10.81
453.107	10.84
453.311	11.02
453.515	10.99
453.719	11.02
453.922	11.07
454.126	11.09
454.33	10.83
454.533	10.81
454.737	10.7
454.94	10.76
455.144	10.79
455.348	10.87
455.551	10.78
455.755	10.66
455.958	10.72
456.162	10.71
456.365	10.83
456.569	10.7
456.772	10.77
456.976	10.76
457.179	10.81
457.383	10.76
457.586	10.84
457.79	10.84
457.993	10.96
458.196	10.87
458.4	10.83
458.603	10.76
458.807	10.92
459.01	11.01
459.213	11.01
459.417	10.82
459.62	10.94
459.823	10.83
460.026	10.78
460.23	10.77
460.433	10.88
460.636	10.87
460.839	11.05
461.042	11.01
461.246	11.03
461.449	10.91
461.652	11.05
461.855	10.92
462.058	10.94
462.261	10.82
462.464	10.75
462.668	10.88
462.871	10.89
463.074	10.82
463.277	10.65
463.48	10.79
463.683	10.94
463.886	11
464.089	10.96
464.292	11.07
464.495	11.28
464.698	11.36
464.901	11.09
465.104	11.2
465.306	11.12
465.509	11.31
465.712	11.14
465.915	11.04
466.118	10.9
466.321	10.96
466.524	10.83
466.726	10.9
466.929	10.84
467.132	10.85
467.335	10.78
467.538	10.6
467.74	10.62
467.943	10.68
468.146	10.87
468.348	10.95
468.551	11.03
468.754	11.13
468.956	11.04
469.159	11.19
469.362	11.23
469.564	11.2
469.767	11.35
469.969	11.21
470.172	11.02
470.375	10.99
470.577	10.91
470.78	10.81
470.982	10.76
471.185	10.74
471.387	10.56
471.59	10.6
471.792	10.62
471.995	10.65
472.197	10.72
472.399	10.71
472.602	10.66
472.804	10.59
473.007	10.55
473.209	10.46
473.411	10.39
473.614	10.41
473.816	10.41
474.018	10.34
474.22	10.34
474.423	10.5
474.625	10.38
474.827	10.51
475.03	10.59
475.232	10.82
475.434	10.77
475.636	10.89
475.838	11
476.04	10.87
476.243	10.87
476.445	10.9
476.647	10.68
476.849	10.78
477.051	10.63
477.253	10.73
477.455	10.55
477.657	10.58
477.859	10.54
478.061	10.45
478.263	10.44
478.465	10.52
478.667	10.45
478.869	10.62
479.071	10.64
479.273	10.55
479.475	10.36
479.677	10.41
479.879	10.35
480.081	10.4
480.283	10.4
480.485	10.3
480.686	10.24
480.888	10.29
481.09	10.2
481.292	10.1
481.494	10.26
481.695	10.45
481.897	10.34
482.099	10.34
482.301	10.28
482.502	10.29
482.704	10.37
482.906	10.36
483.107	10.3
483.309	10.22
483.511	10.29
483.712	10.18
483.914	10.08
484.115	10.1
484.317	10.11
484.519	10.12
484.72	10.12
484.922	10.13
485.123	10.15
485.325	10.14
485.526	10.21
485.728	10.17
485.929	10.19
486.131	10.25
486.332	10.31
486.534	10.27
486.735	10.2
486.936	10.19
487.138	10.16
487.339	10.13
487.541	10.2
487.742	10.19
487.943	10.23
488.144	10.27
488.346	10.19
488.547	10.17
488.748	10.27
488.95	10.29
489.151	10.3
489.352	10.33
489.553	10.31
489.755	10.27
489.956	10.22
490.157	10.21
490.358	10.12
490.559	10.25
490.76	10.22
490.961	10.15
491.163	10.24
491.364	10.33
491.565	10.28
491.766	10.29
491.967	10.28
492.168	10.25
492.369	10.28
492.57	10.36
492.771	10.37
492.972	10.36
493.173	10.42
493.374	10.44
493.575	10.4
493.776	10.4
493.976	10.57
494.177	10.64
494.378	10.74
494.579	10.69
494.78	10.79
494.981	10.75
495.182	10.81
495.382	10.78
495.583	10.67
495.784	10.61
495.985	10.75
496.185	10.72
496.386	10.69
496.587	10.76
496.788	10.84
496.988	10.92
497.189	10.92
497.39	10.93
497.59	10.88
497.791	10.88
497.992	10.95
498.192	10.91
498.393	10.93
498.593	10.86
498.794	10.83
498.994	10.87
499.195	10.75
499.395	10.84
499.596	10.86
499.796	10.88
499.997	10.95
500.197	11.01
500.398	11.08
500.598	11.1
500.799	11.24
500.999	11.28
501.199	11.11
501.4	11.14
501.6	11.04
501.801	11.1
502.001	11.16
502.201	11.14
502.402	10.92
502.602	10.82
502.802	10.72
503.002	10.76
503.203	10.78
503.403	10.8
503.603	10.78
503.803	10.84
504.003	10.8
504.204	10.86
504.404	10.95
504.604	11.1
504.804	11.27
505.004	11.3
505.204	11.28
505.404	11.41
505.604	11.57
505.804	11.51
506.005	11.46
506.205	11.36
506.405	11.3
506.605	11.19
506.805	11.22
507.005	11.24
507.204	11.31
507.404	11.34
507.604	11.16
507.804	11.18
508.004	11.26
508.204	11.33
508.404	11.41
508.604	11.42
508.804	11.53
509.003	11.5
509.203	11.45
509.403	11.32
509.603	11.32
509.803	11.46
510.002	11.54
510.202	11.49
510.402	11.49
510.602	11.58
510.801	11.62
511.001	11.51
511.201	11.52
511.4	11.49
511.6	11.57
511.8	11.48
511.999	11.61
512.199	11.53
512.398	11.63
512.598	11.69
512.797	11.81
512.997	11.89
513.197	12.05
513.396	12.18
513.596	12.32
513.795	12.48
513.994	12.58
514.194	12.36
514.393	12.3
514.593	12.38
514.792	12.37
514.992	12.19
515.191	12.16
515.39	12.15
515.59	11.98
515.789	11.9
515.988	11.77
516.188	11.84
516.387	11.86
516.586	11.89
516.786	11.94
516.985	12.01
517.184	12.07
517.383	12.24
517.582	12.22
517.782	12.32
517.981	12.33
518.18	12.36
518.379	12.32
518.578	12.36
518.777	12.43
518.976	12.31
519.176	12.41
519.375	12.47
519.574	12.39
519.773	12.42
519.972	12.41
520.171	12.41
520.37	12.45
520.569	12.55
520.768	12.57
520.967	12.67
521.166	12.73
521.365	12.54
521.564	12.67
521.762	12.74
521.961	12.71
522.16	12.76
522.359	12.73
522.558	12.73
522.757	12.76
522.956	12.81
523.154	12.54
523.353	12.73
523.552	12.76
523.751	12.74
523.949	12.65
524.148	12.75
524.347	12.81
524.546	12.89
524.744	12.83
524.943	12.98
525.142	13
525.34	13.24
525.539	13.13
525.737	13.25
525.936	13.18
526.135	13.12
526.333	13.04
526.532	13
526.73	13.14
526.929	13.14
527.127	12.99
527.326	12.96
527.524	12.97
527.723	13.06
527.921	13.07
528.12	13.14
528.318	13.23
528.516	13.29
528.715	13.25
528.913	13.18
529.112	13.25
529.31	13.26
529.508	13.27
529.707	13.28
529.905	13.29
530.103	13.25
530.301	13.26
530.5	13.27
530.698	13.3
530.896	13.47
531.094	13.61
531.293	13.63
531.491	13.75
531.689	13.87
531.887	13.96
532.085	14
532.283	14.06
532.481	14.07
532.68	14.03
532.878	14.04
533.076	14.05
533.274	13.99
533.472	14
533.67	13.99
533.868	14.06
534.066	14.06
534.264	13.98
534.462	14.02
534.66	14.04
534.858	14.15
535.056	14.2
535.253	14.2
535.451	14.3
535.649	14.43
535.847	14.68
536.045	14.65
536.243	14.74
536.441	14.95
536.638	15.09
536.836	15.12
537.034	15.15
537.232	15.29
537.43	15.36
537.627	15.47
537.825	15.5
538.023	15.43
538.22	15.56
538.418	15.55
538.616	15.65
538.813	15.82
539.011	16.1
539.209	16.08
539.406	16.05
539.604	16.23
539.801	16.29
539.999	16.26
540.196	16.21
540.394	16.27
540.591	16.35
540.789	16.36
540.986	16.18
541.184	16.11
541.381	16.2
541.579	16.19
541.776	16.16
541.974	16.12
542.171	16.16
542.368	16.2
542.566	16.19
542.763	16.24
542.96	16.22
543.158	16.39
543.355	16.46
543.552	16.55
543.75	16.73
543.947	16.69
544.144	16.83
544.341	16.98
544.539	17.16
544.736	17.22
544.933	17.28
545.13	17.33
545.327	17.28
545.524	17.28
545.722	17.37
545.919	17.33
546.116	17.5
546.313	17.51
546.51	17.53
546.707	17.54
546.904	17.62
547.101	17.72
547.298	17.89
547.495	18
547.692	18.04
547.889	17.96
548.086	18.11
548.283	18.34
548.48	18.36
548.677	18.4
548.874	18.42
549.07	18.6
549.267	18.67
549.464	18.57
549.661	18.75
549.858	19.06
550.055	19.32
550.251	19.22
550.448	19.1
550.645	19.37
550.842	19.45
551.038	19.63
551.235	19.52
551.432	19.47
551.628	19.67
551.825	19.79
552.022	19.71
552.218	19.73
552.415	20.01
552.612	20.01
552.808	19.86
553.005	19.97
553.201	20.21
553.398	20.34
553.594	20.48
553.791	20.6
553.987	20.6
554.184	20.73
554.38	20.83
554.577	20.72
554.773	21.15
554.97	21.5
555.166	21.71
555.362	21.61
555.559	21.77
555.755	21.82
555.952	21.95
556.148	22.02
556.344	22.12
556.541	22.3
556.737	22.38
556.933	22.22
557.129	22.08
557.326	22.06
557.522	22.31
557.718	22.45
557.914	22.38
558.11	22.33
558.307	22.23
558.503	22.43
558.699	22.42
558.895	22.76
559.091	22.88
559.287	23.12
559.483	23.31
559.679	23.35
559.876	23.34
560.072	23.64
560.268	23.77
560.464	23.92
560.66	23.76
560.856	24.07
561.052	23.99
561.247	24.07
561.443	24.08
561.639	24.02
561.835	24.18
562.031	24.19
562.227	24.06
562.423	24.03
562.619	24.33
562.815	24.62
563.01	24.63
563.206	24.65
563.402	24.8
563.598	25.01
563.793	25.08
563.989	24.91
564.185	25.11
564.381	25.59
564.576	25.75
564.772	25.79
564.968	25.8
565.163	25.66
565.359	25.49
565.555	25.6
565.75	25.61
565.946	25.7
566.141	25.8
566.337	25.94
566.532	25.82
566.728	25.93
566.923	25.95
567.119	25.85
567.314	25.93
567.51	26.37
567.705	26.33
567.901	26.33
568.096	26.54
568.292	26.72
568.487	26.64
568.682	26.71
568.878	26.74
569.073	26.82
569.268	26.93
569.464	27.22
569.659	27.2
569.854	27.27
570.05	27.32
570.245	27.23
570.44	27.33
570.635	27.49
570.831	27.48
571.026	27.74
571.221	27.77
571.416	27.81
571.611	27.63
571.806	27.56
572.002	27.55
572.197	27.72
572.392	27.75
572.587	27.81
572.782	27.91
572.977	28.16
573.172	28.05
573.367	28.11
573.562	28.35
573.757	28.36
573.952	28.62
574.147	28.86
574.342	28.91
574.537	28.91
574.732	28.86
574.927	28.73
575.121	28.8
575.316	28.73
575.511	28.84
575.706	28.85
575.901	29.11
576.096	29.08
576.29	28.97
576.485	29.12
576.68	29.42
576.875	29.45
577.069	29.62
577.264	29.42
577.459	29.71
577.654	29.57
577.848	29.48
578.043	29.58
578.238	29.53
578.432	29.6
578.627	29.36
578.821	29.35
579.016	29.37
579.21	29.6
579.405	29.79
579.6	29.85
579.794	30.3
579.989	30.23
580.183	30.21
580.378	30.38
580.572	30.49
580.766	30.58
580.961	30.44
581.155	30.66
581.35	30.62
581.544	30.4
581.738	30.26
581.933	30.23
582.127	30.66
582.321	30.59
582.516	30.5
582.71	30.71
582.904	30.84
583.099	30.81
583.293	30.73
583.487	30.78
583.681	31.41
583.875	31.64
584.07	31.73
584.264	31.52
584.458	31.62
584.652	31.64
584.846	31.53
585.04	31.62
585.234	31.62
585.428	31.54
585.623	31.44
585.817	31.06
586.011	30.84
586.205	30.96
586.399	31.11
586.593	31.31
586.787	31.74
586.981	31.83
587.174	31.86
587.368	31.92
587.562	32.09
587.756	32.23
587.95	32.29
588.144	32.54
588.338	32.28
588.532	32.35
588.725	32.27
588.919	32.3
589.113	32.18
589.307	32.17
589.501	32.18
589.694	32.41
589.888	32.25
590.082	32.46
590.275	32.44
590.469	32.6
590.663	32.42
590.856	32.57
591.05	32.32
591.244	32.44
591.437	32.62
591.631	32.79
591.824	32.64
592.018	32.95
592.212	32.94
592.405	32.99
592.599	32.97
592.792	33.11
592.986	33
593.179	33
593.372	32.98
593.566	33.1
593.759	33.28
593.953	33.43
594.146	33.3
594.339	33.46
594.533	33.62
594.726	33.77
594.92	33.64
595.113	33.65
595.306	33.74
595.499	33.61
595.693	33.49
595.886	33.39
596.079	33.38
596.272	33.47
596.466	33.26
596.659	33.17
596.852	33.15
597.045	33.44
597.238	33.6
597.431	33.8
597.624	33.98
597.818	34.07
598.011	34.19
598.204	34.07
598.397	34
598.59	34.08
598.783	34.34
598.976	34.35
599.169	34.19
599.362	34.32
599.555	34.38
599.748	34.63
599.941	34.62
600.134	34.62
600.326	34.96
600.519	35.34
600.712	35.36
600.905	35.03
601.098	35.33
601.291	35.79
601.483	35.78
601.676	35.87
601.869	35.89
602.062	36.01
602.255	35.98
602.447	35.88
602.64	35.82
602.833	36.17
603.025	36.1
603.218	35.93
603.411	35.58
603.603	35.32
603.796	35.26
603.989	35.12
604.181	34.95
604.374	35.2
604.566	35.15
604.759	34.98
604.951	34.82
605.144	34.95
605.336	34.97
605.529	35.21
605.721	35.34
605.914	35.22
606.106	35.42
606.299	35.54
606.491	35.41
606.683	35.45
606.876	35.57
607.068	35.65
607.26	35.76
607.453	35.94
607.645	35.94
607.837	36.06
608.03	36.2
608.222	36.14
608.414	36.25
608.606	36.15
608.799	36.49
608.991	36.49
609.183	36.51
609.375	36.57
609.567	36.34
609.759	36.47
609.952	36.48
610.144	36.62
610.336	36.59
610.528	36.51
610.72	36.62
610.912	36.47
611.104	36.8
611.296	36.85
611.488	36.88
611.68	37.04
611.872	36.92
612.064	37.12
612.256	37.06
612.448	37.13
612.64	37
612.832	37.16
613.023	37.4
613.215	37.22
613.407	37.2
613.599	37.39
613.791	37.47
613.983	37.5
614.174	37.41
614.366	37.44
614.558	37.5
614.75	37.7
614.941	37.7
615.133	37.46
615.325	37.82
615.516	38.05
615.708	37.84
615.9	37.5
616.091	37.55
616.283	37.69
616.475	37.56
616.666	37.51
616.858	37.91
617.049	37.76
617.241	37.77
617.432	37.72
617.624	37.79
617.815	37.8
618.007	38.21
618.198	38.34
618.39	38.13
618.581	38.15
618.773	38.35
618.964	38.16
619.155	38.47
619.347	38.49
619.538	38.4
619.729	38.28
619.921	38.31
620.112	38.2
620.303	38.07
620.494	38.21
620.686	38.36
620.877	38.19
621.068	38.16
621.259	38.07
621.451	38.15
621.642	37.72
621.833	37.56
622.024	37.65
622.215	37.8
622.406	37.8
622.597	37.9
622.788	37.99
622.98	38.08
623.171	38.2
623.362	38.21
623.553	38.53
623.744	38.63
623.935	38.91
624.126	38.88
624.317	38.81
624.508	38.96
624.698	38.88
624.889	38.9
625.08	38.97
625.271	39.11
625.462	38.93
625.653	38.65
625.844	38.77
626.034	38.52
626.225	38.68
626.416	38.58
626.607	38.59
626.798	38.77
626.988	38.81
627.179	38.8
627.37	38.54
627.56	38.79
627.751	39.07
627.942	39.04
628.132	38.96
628.323	38.84
628.514	39.06
628.704	39.1
628.895	39.05
629.085	38.9
629.276	38.81
629.466	39.05
629.657	39.08
629.847	38.95
630.038	39.08
630.228	39.11
630.419	39.37
630.609	39.36
630.8	39.23
630.99	38.84
631.181	38.96
631.371	39.04
631.561	38.98
631.752	38.89
631.942	38.82
632.132	38.89
632.323	39.19
632.513	39.01
632.703	38.93
632.893	39.24
633.084	39.57
633.274	39.53
633.464	39.46
633.654	39.44
633.844	39.27
634.034	39.03
634.225	39.06
634.415	39.06
634.605	39.21
634.795	39.18
634.985	39.09
635.175	39.21
635.365	39.05
635.555	39.12
635.745	38.99
635.935	39.09
636.125	39.2
636.315	39.21
636.505	39.02
636.695	38.97
636.885	38.85
637.075	38.9
637.265	38.85
637.455	38.89
637.644	38.94
637.834	39.31
638.024	39.54
638.214	39.74
638.404	39.84
638.593	40.18
638.783	40.08
638.973	40.54
639.163	40.27
639.352	40.09
639.542	40.17
639.732	40.29
639.921	40.57
640.111	40.69
640.301	40.57
640.49	40.23
640.68	40.15
640.87	40.27
641.059	40.36
641.249	40.57
641.438	40.53
641.628	40.63
641.817	40.54
642.007	40.39
642.196	40.25
642.386	40.56
642.575	41.13
642.764	40.92
642.954	40.83
643.143	40.87
643.333	41.2
643.522	41.42
643.711	41.72
643.901	41.75
644.09	41.67
644.279	41.91
644.469	41.83
644.658	41.59
644.847	41.87
645.036	41.94
645.226	41.72
645.415	41.4
645.604	41.15
645.793	40.91
645.982	40.92
646.171	40.74
646.361	40.95
646.55	41.01
646.739	41.04
646.928	41.12
647.117	41.23
647.306	40.87
647.495	40.85
647.684	40.96
647.873	41.49
648.062	41.6
648.251	41.96
648.44	41.32
648.629	41.02
648.818	41.12
649.007	40.89
649.196	40.84
649.384	41.24
649.573	41.39
649.762	41.34
649.951	40.88
650.14	40.88
650.328	40.6
650.517	40.78
650.706	40.93
650.895	41.29
651.083	41.65
651.272	41.27
651.461	41.49
651.65	41.72
651.838	41.6
652.027	41.53
652.216	41.1
652.404	41.21
652.593	41.26
652.781	41.31
652.97	40.91
653.158	40.93
653.347	41.46
653.535	41.19
653.724	40.6
653.912	40.93
654.101	40.85
654.289	41.13
654.478	41.13
654.666	40.77
654.855	40.6
655.043	40.27
655.231	39.81
655.42	39.88
655.608	39.91
655.796	39.84
655.985	39.9
656.173	40.23
656.361	40.28
656.55	40.17
656.738	40.46
656.926	40.94
657.114	41.5
657.302	41.7
657.491	41.12
657.679	40.92
657.867	41.38
658.055	41.36
658.243	41.17
658.431	41.17
658.619	41.42
658.807	41.41
658.996	41.38
659.184	40.76
659.372	40.81
659.56	41.1
659.748	41.11
659.936	40.85
660.124	40.81
660.311	40.99
660.499	41.15
660.687	41.05
660.875	41
661.063	40.84
661.251	41.33
661.439	41.33
661.627	41.34
661.814	41.59
662.002	41.69
662.19	41.86
662.378	41.97
662.565	42.11
662.753	42.15
662.941	42.33
663.129	42.38
663.316	42.39
663.504	42.08
663.692	42.17
663.879	42.05
664.067	42.14
664.254	42.23
664.442	42.2
664.63	42.07
664.817	42.36
665.005	42.27
665.192	42.61
665.38	42.55
665.567	42.76
665.755	42.82
665.942	42.96
666.13	43.56
666.317	43.45
666.504	43.04
666.692	43.33
666.879	43.02
667.067	43.08
667.254	42.83
667.441	42.83
667.629	42.93
667.816	42.96
668.003	42.87
668.19	42.34
668.378	42.25
668.565	42.48
668.752	42.23
668.939	42.19
669.127	42.09
669.314	42
669.501	42.03
669.688	41.99
669.875	41.8
670.062	42.03
670.249	42.27
670.436	42.1
670.623	42.2
670.81	42.15
670.997	42.05
671.184	42.2
671.371	42.73
671.558	42.69
671.745	43.08
671.932	43.39
672.119	43.13
672.306	42.89
672.493	43.57
672.68	43.41
672.867	44.17
673.054	44.16
673.24	44.2
673.427	44.07
673.614	44.34
673.801	44.04
673.988	44.07
674.174	44.43
674.361	44.38
674.548	43.77
674.734	44.08
674.921	43.33
675.108	43.91
675.294	43.4
675.481	42.75
675.668	42.66
675.854	42.6
676.041	42.59
676.227	42.37
676.414	42.57
676.601	43.02
676.787	43.07
676.974	43.17
677.16	42.86
677.347	43.24
677.533	43.56
677.719	43.33
677.906	43.2
678.092	43.4
678.279	42.98
678.465	42.69
678.651	42.52
678.838	42.52
679.024	42.34
679.21	42.02
679.397	42.5
679.583	42.68
679.769	42.75
679.955	42.4
680.142	42.11
680.328	42.99
680.514	42.97
680.7	42.4
680.886	42.46
681.073	42.93
681.259	42.89
681.445	42.72
681.631	42.43
681.817	42.34
682.003	43
682.189	42.85
682.375	42.42
682.561	42.66
682.747	43.27
682.933	43.26
683.119	42.87
683.305	43.01
683.491	42.8
683.677	43.24
683.863	43.52
684.049	43.19
684.235	43.25
684.42	43.08
684.606	43.44
684.792	43.9
684.978	43.62
685.164	43.83
685.349	44.53
685.535	44.73
685.721	44.03
685.907	43.91
686.092	43.93
686.278	44.14
686.464	44.11
686.649	43.86
686.835	43.48
687.021	43.75
687.206	43.7
687.392	43.04
687.577	42.45
687.763	42.77
687.948	42.75
688.134	42.81
688.319	42.97
688.505	43.55
688.69	43.7
688.876	43.78
689.061	43.91
689.247	43.99
689.432	43.83
689.618	44.06
689.803	43.94
689.988	43.94
690.174	44.29
690.359	44.24
690.544	43.43
690.73	43.22
690.915	43.03
691.1	42.78
691.285	42.82
691.471	43.46
691.656	44.15
691.841	44.36
692.026	44.76
692.211	44.91
692.396	44.84
692.582	45.71
692.767	46.18
692.952	46.35
693.137	46.29
693.322	46.13
693.507	45.72
693.692	45.42
693.877	45.48
694.062	45.15
694.247	44.87
694.432	45.38
694.617	45.4
694.802	45.01
694.987	44.85
695.172	45.09
695.357	45.04
695.541	44.92
695.726	45.38
695.911	45.74
696.096	45.53
696.281	45.62
696.466	44.94
696.65	44.45
696.835	44.8
697.02	44.93
697.204	44.99
697.389	45.17
697.574	45.1
697.759	44.44
697.943	44.14
698.128	44.41
698.312	44.03
698.497	43.69
698.682	43.61
698.866	43.54
699.051	43.58
699.235	43.33
699.42	43.25
699.604	43.27
699.789	43.37
699.973	43.28
700.158	43.03
700.342	43.31
700.527	44.06
700.711	44.33
700.895	43.79
701.08	43.96
701.264	44.19
701.448	44.31
701.633	44.79
701.817	45.09
702.001	45.39
702.186	45.38
702.37	45.96
702.554	45.58
702.738	45.76
702.923	46.46
703.107	46.57
703.291	46.68
703.475	46.24
703.659	46.18
703.843	46.33
704.027	46.5
704.212	46.81
704.396	46.22
704.58	45.85
704.764	45.96
704.948	44.94
705.132	44.81
705.316	45.09
705.5	46.02
705.684	46.01
705.868	45.2
706.052	44.85
706.235	44.85
706.419	44.79
706.603	45.1
706.787	44.89
706.971	46.23
707.155	45.56
707.339	45.38
707.522	45.11
707.706	45.08
707.89	45.39
708.074	45.62
708.257	45.39
708.441	45.58
708.625	45.53
708.808	45.37
708.992	45.17
709.176	45.37
709.359	45.21
709.543	44.73
709.727	44.74
709.91	44.76
710.094	44.52
710.277	45.15
710.461	45.1
710.644	45.55
710.828	45.45
711.011	45.11
711.195	45.17
711.378	45.52
711.562	46.16
711.745	45.81
711.928	45.62
712.112	45.28
712.295	45.21
712.478	45.28
712.662	45.74
712.845	45.74
713.028	45.83
713.212	45.79
713.395	45.59
713.578	45.12
713.761	45.59
713.945	45.68
714.128	45.75
714.311	45.35
714.494	44.96
714.677	44.44
714.86	44.57
715.043	44.69
715.227	44.47
715.41	44.73
715.593	44.87
715.776	44.86
715.959	45.1
716.142	45.73
716.325	46.1
716.508	46.24
716.691	46.61
716.874	46.53
717.057	46.17
717.239	47.04
717.422	46.25
717.605	46.5
717.788	46.39
717.971	46.71
718.154	46.35
718.337	46.49
718.519	47.06
718.702	47.08
718.885	47.76
719.068	47.76
719.25	47.41
719.433	47.95
719.616	47.52
719.798	47.14
719.981	47.24
720.164	47.32
720.346	47.05
720.529	47.1
720.712	47.1
720.894	46.42
721.077	46.42
721.259	46.83
721.442	47.51
721.624	47.01
721.807	47.6
721.989	47.02
722.172	46.71
722.354	46.68
722.537	46.78
722.719	45.52
722.901	45.74
723.084	45.78
723.266	45.58
723.448	45.29
723.631	46.03
723.813	45.73
723.995	45.74
724.178	45.95
724.36	45.7
724.542	44.73
724.724	45.63
724.907	46.15
725.089	46.53
725.271	46.72
725.453	46.03
725.635	46.24
725.817	46.8
725.999	47.12
726.181	47.21
726.364	47.23
726.546	47.65
726.728	47.9
726.91	47.21
727.092	46.91
727.274	46.98
727.456	47.28
727.638	47.44
727.819	46.37
728.001	46.1
728.183	46.11
728.365	46.18
728.547	46.14
728.729	46.58
728.911	46.78
729.093	47.22
729.274	46.04
729.456	46.22
729.638	45.92
729.82	46.75
730.001	46.87
730.183	47.68
730.365	47.72
730.546	47.53
730.728	46.1
730.91	45.65
731.091	45.36
731.273	45.73
731.455	45.19
731.636	45.64
731.818	45.69
731.999	45.33
732.181	45.05
732.362	45.05
732.544	45.79
732.725	46.16
732.907	46.67
733.088	46.88
733.27	47.9
733.451	48.63
733.633	49.42
733.814	49.25
733.995	49.96
734.177	49.79
734.358	50.03
734.539	50.24
734.721	50.27
734.902	49.73
735.083	49.43
735.264	49.32
735.446	49.17
735.627	48.66
735.808	48.21
735.989	47.54
736.17	47.46
736.351	46.8
736.533	46.02
736.714	45.8
736.895	46.85
737.076	47.31
737.257	46.8
737.438	46.22
737.619	46.02
737.8	46.66
737.981	47.03
738.162	47.47
738.343	48.51
738.524	48.49
738.705	48.36
738.886	47.77
739.067	47.72
739.247	48.06
739.428	49.17
739.609	48.38
739.79	48.79
739.971	48.12
740.151	47.47
740.332	47.42
740.513	47.58
740.694	48.99
740.874	48.93
741.055	49.11
741.236	49.22
741.417	49.26
741.597	49.05
741.778	49.87
741.958	49.7
742.139	50.48
742.32	50.51
742.5	50.95
742.681	51.11
742.861	50.95
743.042	49.94
743.222	49.72
743.403	48.05
743.583	48.22
743.764	47.28
743.944	48.64
744.124	49.31
744.305	48.06
744.485	47.83
744.666	46.86
744.846	47.88
745.026	49.08
745.207	48.26
745.387	49.58
745.567	51
745.747	50.54
745.928	50.2
746.108	49.1
746.288	50.12
746.468	49.59
746.648	49.8
746.829	48.92
747.009	49.09
747.189	49.7
747.369	49.8
747.549	49.01
747.729	49.35
747.909	49.11
748.089	49.14
748.269	48.79
748.449	50.21
748.629	49.83
748.809	50.33
748.989	50.08
749.169	50.59
749.349	50.14
749.529	50.38
749.709	48.96
749.889	49.91
750.068	49.37
750.248	50.07
750.428	49.4
750.608	50.1
750.788	49.9
750.967	49.7
751.147	49.8
751.327	49.47
751.507	48.54
751.686	49.69
751.866	49.71
752.046	50.25
752.225	49.19
752.405	49.51
752.585	49
752.764	48.9
752.944	48.98
753.123	48.51
753.303	49.34
753.482	51.56
753.662	51.21
753.841	50.07
754.021	50.34
754.2	51.13
754.38	50.71
754.559	51.25
754.739	50.91
754.918	51.55
755.097	50.93
755.277	50.21
755.456	48.73
755.635	48.85
755.815	49.24
755.994	49.07
756.173	48.4
756.352	47.64
756.532	47.45
756.711	47.77
756.89	45.65
757.069	46.77
757.248	46.55
757.427	45.99
757.607	46.68
757.786	46.56
757.965	46.44
758.144	47.37
758.323	48.09
758.502	47.91
758.681	48.01
758.86	49.48
759.039	49.09
759.218	50.29
759.397	51.26
759.576	50.31
759.755	49.59
759.934	49.02
760.113	49.1
760.291	48.77
760.47	49.02
760.649	48.94
760.828	49.08
761.007	48.51
761.186	47.19
761.364	46.7
761.543	46.44
761.722	46.58
761.901	46.22
762.079	46.55
762.258	46.36
762.437	46.65
762.615	45.97
762.794	45.39
762.972	45.4
763.151	44.99
763.33	45.15
763.508	45.4
763.687	45.76
763.865	46.44
764.044	45.1
764.222	44.7
764.401	44.48
764.579	44.49
764.758	44.29
764.936	44.8
765.114	44.6
765.293	44.35
765.471	44.86
765.65	44.92
765.828	44.84
766.006	45.17
766.184	45.52
766.363	44.85
766.541	44.34
766.719	45.26
766.898	44.89
767.076	46.41
767.254	46.75
767.432	46.86
767.61	46.4
767.788	47.29
767.967	47.79
768.145	48.43
768.323	48.78
768.501	50.04
768.679	49.94
768.857	50.42
769.035	50.48
769.213	51.13
769.391	51.6
769.569	52.52
769.747	52.95
769.925	52.13
770.103	51.27
770.281	50.35
770.459	51.7
770.636	51.22
770.814	51.44
770.992	51.47
771.17	50.76
771.348	50.19
771.525	51.57
771.703	50.03
771.881	51.61
772.059	53.44
772.236	53.69
772.414	53.13
772.592	52.87
772.769	51.79
772.947	50.56
773.125	50.96
773.302	51.43
773.48	49.9
773.657	49.95
773.835	49.33
774.013	48.69
774.19	50.8
774.368	50.8
774.545	51.27
774.723	52.98
774.9	53.31
775.077	53.24
775.255	52.14
775.432	53.4
775.61	53.42
775.787	52.77
775.964	53.25
776.142	53.04
776.319	52.53
776.496	52.58
776.674	51.4
776.851	51.57
777.028	49.65
777.205	49.91
777.382	48.98
777.56	48.5
777.737	52.17
777.914	51.24
778.091	50.9
778.268	51.5
778.445	52.77
778.622	51.52
778.8	51.66
778.977	52.97
779.154	60.23
779.331	61.19
779.508	61.76
779.685	59.2
779.862	58.65
780.038	57.72
780.215	58.21
780.392	56.72
780.569	57.07
780.746	57.53
780.923	58.38
781.1	52.37
781.277	51.09
781.453	50.94
781.63	50.71
781.807	51.6
781.984	51.26
782.16	50.94
782.337	50.83
782.514	51.32
782.691	53.82
782.867	54.07
783.044	52.39
783.221	53.79
783.397	54.85
783.574	55.03
783.75	55.28
783.927	57.6
784.103	56.38
784.28	57.71
784.456	57.34
784.633	55.06
784.809	54.21
784.986	54.16
785.162	52.92
785.339	50.82
785.515	50.59
785.692	50.15
785.868	49.93
786.044	50.78
786.221	50.02
786.397	50.74
786.573	51.61
786.749	51.87
786.926	54.25
787.102	54.07
787.278	53.98
787.454	54.96
787.631	54.54
787.807	52.5
787.983	51.73
788.159	50.54
788.335	50.2
788.511	49.45
788.687	49.27
788.863	47.88
789.039	48.34
789.216	48.06
789.392	47.45
789.568	48
789.744	49.98
789.919	49.39
790.095	49.37
790.271	49.86
790.447	49.9
790.623	49.56
790.799	49.5
790.975	49.61
791.151	52.4
791.327	52.5
791.502	52.53
791.678	50.34
791.854	50.98
792.03	52.12
792.205	54
792.381	54.31
792.557	56.75
792.733	57.37
792.908	56.63
793.084	55.09
793.259	55.49
793.435	55.4
793.611	57.21
793.786	58.02
793.962	58.37
794.137	56.12
794.313	56.21
794.488	51.97
794.664	52.45
794.839	53.6
795.015	54.28
795.19	55.16
795.366	54.81
795.541	53.49
795.716	53.88
795.892	53.35
796.067	54.72
796.242	52.71
796.418	53.53
796.593	53.39
796.768	52.64
796.944	51.3
797.119	50.08
797.294	50.51
797.469	52.46
797.644	53.88
797.82	53
797.995	51.12
798.17	52.7
798.345	52.75
798.52	51.75
798.695	52.61
798.87	53.27
799.045	52.17
799.22	53.08
799.395	53.08
799.57	52.56
799.745	53.38
799.92	54.98
800.095	56.79
800.27	56.8
800.445	57.17
800.62	55.14
800.795	54.88
800.97	56.79
801.145	54.31
801.319	54.46
801.494	52.08
801.669	53.95
801.844	53.43
802.018	49.88
802.193	52.85
802.368	53.24
802.543	54.19
802.717	55.49
802.892	55.05
803.067	56.36
803.241	56
803.416	58.76
803.59	59.37
803.765	60.79
803.94	61.53
804.114	57.75
804.289	57.32
804.463	58.63
804.638	56.09
804.812	58.41
804.986	57.26
805.161	55.08
805.335	53.79
805.51	50.67
805.684	50.3
805.858	50.3
806.033	48.41
806.207	46.84
806.381	46.13
806.556	47.2
806.73	45.66
806.904	46.07
807.078	46.94
807.253	47.16
807.427	48.1
807.601	46.07
807.775	48.79
807.949	53.13
808.123	54.93
808.298	55.07
808.472	54.65
808.646	54.29
808.82	55.07
808.994	56.1
809.168	56.83
809.342	57.95
809.516	59.76
809.69	58.2
809.864	57.56
810.038	61.57
810.212	59.31
810.385	59.68
810.559	60.41
810.733	61.18
810.907	58.66
811.081	57.25
811.255	56.98
811.428	55.42
811.602	53.36
811.776	53.81
811.95	49.33
812.123	52.12
812.297	51.63
812.471	53.21
812.644	50.42
812.818	55.52
812.992	55.28
813.165	54.06
813.339	53.74
813.512	54.52
813.686	56.36
813.86	57.52
814.033	56.97
814.207	57.69
814.38	54.94
814.554	57.39
814.727	53.09
814.9	55.61
815.074	57.82
815.247	54.22
815.421	53.62
815.594	52.83
815.767	52.31
815.941	50.81
816.114	52.03
816.287	55.69
816.46	54.93
816.634	54.24
816.807	54.37
816.98	52.27
817.153	57.58
817.327	60.79
817.5	60.24
817.673	63.04
817.846	61.67
818.019	62.39
818.192	58.84
818.365	59.97
818.538	61.59
818.711	57.37
818.884	57.43
819.057	54.85
819.23	52.51
819.403	50.31
819.576	46.82
819.749	49.86
819.922	48.16
820.095	47.55
820.268	48.02
820.441	47.69
820.614	46.26
820.786	45.3
820.959	47.34
821.132	47.35
821.305	45.41
821.477	44.62
821.65	43.71
821.823	43.75
821.996	43.13
822.168	41.94
822.341	41.35
822.514	41.72
822.686	41.7
822.859	41.38
823.031	40.96
823.204	41.48
823.376	41.58
823.549	41.61
823.722	41.7
823.894	42.54
824.067	43.07
824.239	43.49
824.411	43.98
824.584	44.35
824.756	44.37
824.929	45.07
825.101	45.57
825.273	46.29
825.446	46.38
825.618	45.96
825.79	45.65
825.963	45.02
826.135	45.16
826.307	44.89
826.479	45.11
826.652	43.94
826.824	43.42
826.996	42.45
827.168	41.9
827.34	41.57
827.512	42.39
827.684	42.21
827.856	42.46
828.029	42.56
828.201	41.92
828.373	41.14
828.545	42.35
828.717	43.04
828.889	43.79
829.061	44.49
829.232	46.08
829.404	45.78
829.576	46.09
829.748	46.08
829.92	47.06
830.092	48.77
830.264	48.69
830.436	49.46
830.607	49.77
830.779	50.76
830.951	51.61
831.123	49.94
831.294	48.56
831.466	48.21
831.638	47.67
831.809	46.32
831.981	48.12
832.153	48.99
832.324	47.89
832.496	48.08
832.667	49.14
832.839	48.11
833.011	47.84
833.182	48.3
833.354	48.69
833.525	49.67
833.697	48.75
833.868	44.54
834.039	48.05
834.211	48.69
834.382	46.98
834.554	47.1
834.725	47.55
834.896	48.36
835.068	48.78
835.239	47
835.41	48.17
835.581	49.43
835.753	51.52
835.924	48.98
836.095	47.74
836.266	48.18
836.438	45.52
836.609	45.26
836.78	44.68
836.951	45.52
837.122	45.82
837.293	46.69
837.464	47.05
837.635	46.78
837.806	47.31
837.977	47.86
838.148	51.32
838.319	55.76
838.49	56.26
838.661	57.4
838.832	56.77
839.003	58.62
839.174	55.73
839.345	56.9
839.516	58.99
839.687	59.19
839.857	62.62
840.028	59.49
840.199	56.63
840.37	58.47
840.54	57.32
840.711	54.73
840.882	56.35
841.053	58
841.223	53.26
841.394	51.29
841.564	55.77
841.735	56.06
841.906	55.3
842.076	49.71
842.247	47.4
842.417	49.26
842.588	55.61
842.758	55.05
842.929	56.37
843.099	61.93
843.27	66.12
843.44	60.09
843.611	58.35
843.781	57.17
843.951	65.68
844.122	69.21
844.292	73.77
844.462	73.16
844.633	73.93
844.803	73.89
844.973	72.23
845.144	69.1
845.314	70.64
845.484	73.38
845.654	76.7
845.824	76.64
845.995	74.43
846.165	68.12
846.335	66.37
846.505	66.43
846.675	65.65
846.845	65.61
847.015	67.91
847.185	73.8
847.355	71.86
847.525	74.7
847.695	81.09
847.865	81.31
848.035	87.65
848.205	85.72
848.375	93.92
848.545	80.06
848.715	82.93
848.884	81.36
849.054	76.99
849.224	80.93
849.394	79.17
849.564	72.03
849.733	70.9
849.903	70.48
850.073	74.39
850.243	74.23
850.412	82.76
850.582	81.47
850.752	85.4
850.921	81.83
851.091	80.24
851.26	83.14
851.43	79.46
851.599	76.16
851.769	71.96
851.939	68.66
852.108	67.5
852.278	72.37
852.447	68.3
852.616	68.48
852.786	67.34
852.955	69.41
853.125	73.53
853.294	73.53
853.463	73.96
853.633	84.6
853.802	84.12
853.971	84.99
854.141	83.38
854.31	85.45
854.479	76.13
854.648	82.29
854.818	75.76
854.987	75.38
855.156	72.65
855.325	73.2
855.494	68.3
855.663	73.51
855.832	58.18
856.001	58
856.171	57.94
856.34	71.74
856.509	74.26
856.678	85.16
856.847	83.47
857.016	88.12
857.185	88.47
857.353	91.85
857.522	90.91
857.691	106.83
857.86	103
858.029	97.73
858.198	95.88
858.367	97.52
858.535	96.84
858.704	76.88
858.873	77.75
859.042	79.88
859.21	78.92
859.379	83.97
859.548	70.97
859.717	76.83
859.885	82.34
860.054	71.34
860.222	58.47
860.391	52.36
860.56	65.85
860.728	76.75
860.897	65.96
861.065	54.4
861.234	61.21
861.402	70.76
861.571	66.52
861.739	67.88
861.908	74.63
862.076	82.34
862.244	89.14
862.413	88.39
862.581	84.65
862.749	86.54
862.918	91.2
863.086	78.97
863.254	78.11
863.423	84.39
863.591	87.6
863.759	82.54
863.927	78.25
864.096	73.25
864.264	74.03
864.432	71.99
864.6	74.66
864.768	71.29
864.936	75.76
865.104	75.84
865.272	72.02
865.44	73.36
865.608	72.82
865.776	77.48
865.944	79.95
866.112	78.15
866.28	76.76
866.448	77.25
866.616	70.87
866.784	79.24
866.952	78.93
867.12	81.39
867.288	80.88
867.455	79.87
867.623	77.19
867.791	76.13
867.959	83.55
868.127	79.84
868.294	83.87
868.462	87.32
868.63	86.35
868.797	86.61
868.965	81.81
869.133	80.12
869.3	77.25
869.468	79.43
869.636	74.22
869.803	77.66
869.971	90.02
870.138	94.93
870.306	92.6
870.473	77.79
870.641	83.67
870.808	86.88
870.975	83.33
871.143	87.81
871.31	85.43
871.478	95.46
871.645	80.24
871.812	77.94
871.98	80.59
872.147	83.72
872.314	86.33
872.482	77.22
872.649	78.17
872.816	76.46
872.983	72.54
873.15	71.97
873.318	77.39
873.485	91.31
873.652	91.26
873.819	97.09
873.986	103.17
874.153	105.76
874.32	111.16
874.487	98.38
874.654	99.13
874.821	105
874.988	99.75
875.155	90.76
875.322	86.23
875.489	86.07
875.656	61.63
875.823	56.11
875.99	54.15
876.157	55.22
876.324	65.95
876.49	68.01
876.657	64.75
876.824	69.28
876.991	75.83
877.157	72.61
877.324	70.33
877.491	74.8
877.658	77.35
877.824	75.97
877.991	72.27
878.157	76.9
878.324	77.07
878.491	81.14
878.657	86.79
878.824	79.99
878.99	76.33
879.157	78.25
879.323	75.59
879.49	75.78
879.656	80.37
879.823	78.35
879.989	74.96
880.156	76.84
880.322	71.23
880.488	66.61
880.655	67.62
880.821	67.62
880.987	68.03
881.154	66.68
881.32	62.33
881.486	53.78
881.652	56.58
881.819	55.84
881.985	52
882.151	53.94
882.317	54.36
882.483	51.28
882.649	52.34
882.816	51.32
882.982	51.18
883.148	51.12
883.314	50.56
883.48	50.17
883.646	48
883.812	46.56
883.978	46.34
884.144	46
884.31	44.86
884.476	45.33
884.642	44.1
884.807	46.14
884.973	47.13
885.139	46.69
885.305	46.85
885.471	47.5
885.637	47.86
885.802	46.29
885.968	46.39
886.134	48.7
886.3	46.86
886.465	46.38
886.631	39.93
886.797	39.69
886.962	39.95
887.128	38.59
887.293	37.53
887.459	38.99
887.625	38.42
887.79	41.42
887.956	40.58
888.121	42.28
888.287	43.7
888.452	52
888.618	49.95
888.783	59.75
