Data from LC_169_Reflection_2.txt Node
Date: Mon Nov 16 23:09:43 EST 2015
User: robert
Spectrometer: USB4E03001
Autoset integration time: false
Trigger mode: 4
Integration Time (sec): 1.000000E-1
Scans to average: 15
Electric dark correction enabled: true
Nonlinearity correction enabled: false
Boxcar width: 5
Stray light correction enabled: false
XAxis mode: Wavelengths
Stop averaging: false
Number of Pixels in Spectrum: 3648
>>>>>Begin Spectral Data<<<<<
177.566	3586.75
177.785	208.04
178.005	-2031.93
178.225	158.87
178.445	234.43
178.665	-320.55
178.885	353.22
179.105	1044.86
179.324	2132.24
179.544	-339.21
179.764	-1140.12
179.984	-332.67
180.204	-339.13
180.423	-361.2
180.643	-425.86
180.863	-257.57
181.083	-275.51
181.302	-322.84
181.522	-307.28
181.742	-246.92
181.961	-371.15
182.181	-332.91
182.401	-446.84
182.621	-1758.49
182.84	-827.4
183.06	-648.03
183.279	-484.71
183.499	-368.51
183.719	-300.66
183.938	-269.91
184.158	-275.12
184.377	-182.54
184.597	-284.69
184.816	-208.52
185.036	-152.38
185.256	-102.95
185.475	-113.13
185.695	-118.88
185.914	-150.05
186.134	-315.92
186.353	-455.84
186.572	-670.38
186.792	-1117.29
187.011	-436.53
187.231	-398.01
187.45	-277.24
187.67	-817.61
187.889	-2109.25
188.108	4426.58
188.328	-1100.06
188.547	-418.24
188.766	-785.35
188.986	-1164.41
189.205	-903.49
189.424	-641.81
189.644	-1729.79
189.863	-1922.79
190.082	-1239.32
190.302	-2692.5
190.521	-1461.43
190.74	1295.43
190.959	539.08
191.178	652.19
191.398	501.2
191.617	356.35
191.836	286.12
192.055	518.98
192.274	221.87
192.494	289.35
192.713	334.93
192.932	686.42
193.151	696.2
193.37	1472.29
193.589	-1148.76
193.808	-347.55
194.027	-514.88
194.246	-5327.09
194.465	1078.84
194.685	2918.98
194.904	1371.69
195.123	-1874.13
195.342	-1174.95
195.561	-524.75
195.78	-722.67
195.999	29350.7
196.218	1015.89
196.436	876.77
196.655	-3313.99
196.874	-1145.47
197.093	-1496.27
197.312	-1236.92
197.531	3376.05
197.75	1206.25
197.969	-4044.44
198.188	-822.62
198.407	-211.91
198.625	-269.01
198.844	-205.38
199.063	-177.73
199.282	-391.09
199.501	-255.45
199.719	-187.74
199.938	-111.8
200.157	-93.27
200.376	-106.07
200.594	-191.69
200.813	-471.34
201.032	-309.7
201.251	-285.69
201.469	-267.47
201.688	-189.05
201.907	-348.72
202.125	-477.28
202.344	17240.48
202.563	3451.46
202.781	511.02
203	1409.99
203.218	946.51
203.437	777.75
203.656	399.71
203.874	243.73
204.093	247.51
204.311	288.12
204.53	323.47
204.748	514.25
204.967	331.97
205.185	394.81
205.404	370.72
205.622	264.65
205.841	194.95
206.059	237.01
206.278	292.55
206.496	722.62
206.715	388.35
206.933	303.11
207.151	268.66
207.37	291.12
207.588	318.71
207.806	325.24
208.025	665.3
208.243	-1480.56
208.461	2261.88
208.68	-18567.06
208.898	737.55
209.116	839.58
209.335	825.65
209.553	807.54
209.771	8152.08
209.989	1464.39
210.208	3403.23
210.426	-5466.21
210.644	2658.11
210.862	-2196.2
211.081	1144.72
211.299	-584.71
211.517	2446.92
211.735	-488.98
211.953	-172900
212.171	-2803.61
212.39	-7284.68
212.608	-15430.43
212.826	824
213.044	559.27
213.262	583.65
213.48	3093.67
213.698	311.14
213.916	456.81
214.134	327.54
214.352	579.84
214.57	383.78
214.788	574.73
215.006	519.6
215.224	380.39
215.442	327.33
215.66	272.87
215.878	214.68
216.096	232.56
216.314	245.49
216.532	500.99
216.75	436.41
216.968	433.52
217.185	850.66
217.403	1678.47
217.621	-4904.96
217.839	-1467.08
218.057	-1835.29
218.275	3493.75
218.492	1109.02
218.71	1601.52
218.928	483.1
219.146	458.08
219.363	360.54
219.581	290.62
219.799	205.43
220.017	211.39
220.234	213.97
220.452	222.22
220.67	226.89
220.887	228.09
221.105	268.5
221.323	201.57
221.54	199.13
221.758	279.21
221.976	314.63
222.193	296.25
222.411	218.86
222.629	206.91
222.846	195.77
223.064	213.59
223.281	181.03
223.499	168.68
223.716	180.75
223.934	151.5
224.151	142.14
224.369	119.4
224.586	142.71
224.804	142.18
225.021	131.65
225.239	108.18
225.456	100.49
225.674	97.44
225.891	76.22
226.108	85.87
226.326	76.03
226.543	73.82
226.76	70.61
226.978	59.35
227.195	64.58
227.413	55.78
227.63	55.82
227.847	46.86
228.064	42.55
228.282	42.2
228.499	36.55
228.716	34.03
228.934	29.98
229.151	30.76
229.368	29.52
229.585	28.16
229.802	30.05
230.02	27.51
230.237	29.73
230.454	30.9
230.671	31.25
230.888	32.73
231.105	35.48
231.323	37.04
231.54	36.93
231.757	35.05
231.974	34.53
232.191	30.74
232.408	39.58
232.625	37.41
232.842	40.97
233.059	43.42
233.276	42.58
233.493	41.77
233.71	41.91
233.927	43.55
234.144	45.41
234.361	43.1
234.578	47.4
234.795	41.77
235.012	45.46
235.229	44.48
235.446	41.85
235.663	41.41
235.879	43.34
236.096	43.59
236.313	42.9
236.53	48.16
236.747	47.32
236.964	42.81
237.181	44.91
237.397	41.01
237.614	40.68
237.831	36.98
238.048	37.08
238.264	37.48
238.481	33.84
238.698	33.95
238.915	29.87
239.131	30.29
239.348	30.55
239.565	31.46
239.781	33.44
239.998	31.28
240.215	34.45
240.431	31.4
240.648	29.43
240.865	28.74
241.081	25.59
241.298	25.7
241.514	26.52
241.731	24.28
241.947	22.79
242.164	19.65
242.38	18.65
242.597	17.93
242.814	18.1
243.03	18.15
243.246	17.9
243.463	19.56
243.679	19.62
243.896	17.36
244.112	18.8
244.329	18.94
244.545	21.28
244.762	20.62
244.978	21.05
245.194	21.29
245.411	18.97
245.627	19.63
245.843	18.37
246.06	16.28
246.276	17.63
246.492	15.35
246.709	15.83
246.925	15.35
247.141	16
247.357	15.18
247.574	14.99
247.79	14.68
248.006	14.19
248.222	14.08
248.439	14.41
248.655	14.59
248.871	16.09
249.087	15.05
249.303	15.52
249.519	15.51
249.736	16.34
249.952	15.22
250.168	19.03
250.384	19.71
250.6	19.16
250.816	19.69
251.032	16.37
251.248	15.75
251.464	14.65
251.68	13.37
251.896	14.04
252.112	14.99
252.328	17.64
252.544	16.13
252.76	16.34
252.976	16.28
253.192	16.03
253.408	18.53
253.624	22.44
253.84	25.61
254.056	27.78
254.272	28.56
254.487	28.06
254.703	26.5
254.919	24.79
255.135	23.22
255.351	23.33
255.567	26.23
255.782	26.59
255.998	21.34
256.214	20
256.43	17.42
256.646	17.68
256.861	17.22
257.077	17.1
257.293	18.26
257.508	17.55
257.724	19.16
257.94	16.54
258.155	15.83
258.371	15.2
258.587	13.65
258.802	13.71
259.018	13.57
259.234	12.56
259.449	13.19
259.665	12.13
259.88	12.93
260.096	12.64
260.312	12.07
260.527	11.84
260.743	11.77
260.958	12.18
261.174	12.1
261.389	12.56
261.605	13.29
261.82	13.26
262.036	14.45
262.251	14.74
262.466	14.56
262.682	16.32
262.897	17.08
263.113	17.57
263.328	17.44
263.543	18.67
263.759	18.21
263.974	18.32
264.189	16.7
264.405	17.61
264.62	17.94
264.835	19.19
265.051	19.2
265.266	21.08
265.481	22.72
265.696	24.72
265.912	23.55
266.127	21.04
266.342	19.61
266.557	20.18
266.773	18.78
266.988	18.22
267.203	18.52
267.418	16.86
267.633	14.9
267.848	14.06
268.064	11.93
268.279	12.36
268.494	11.66
268.709	12.56
268.924	12.55
269.139	12.42
269.354	11.88
269.569	9.91
269.784	10.83
269.999	11.13
270.214	10.32
270.429	13.77
270.644	13.02
270.859	13.82
271.074	14.2
271.289	14.13
271.504	15.17
271.719	15.6
271.934	15.99
272.149	15.97
272.363	15.84
272.578	15.43
272.793	14.42
273.008	14.84
273.223	15.1
273.438	14.54
273.653	14.75
273.867	13.17
274.082	13.12
274.297	13.87
274.512	14.74
274.726	14.67
274.941	15.18
275.156	13.82
275.371	14.39
275.585	15.51
275.8	16.28
276.015	15.56
276.229	16.29
276.444	17.52
276.659	17.47
276.873	16.6
277.088	17.15
277.302	18.19
277.517	19.51
277.732	20.17
277.946	18.79
278.161	19.51
278.375	20.57
278.59	20.51
278.804	18.79
279.019	18.18
279.233	17.13
279.448	16.32
279.662	15.71
279.877	14.9
280.091	13.16
280.306	12.14
280.52	11.92
280.735	9.41
280.949	10.67
281.163	11.65
281.378	10.84
281.592	11.75
281.806	12.71
282.021	11.56
282.235	12.01
282.449	12.8
282.664	14.62
282.878	13.81
283.092	16.03
283.307	15.48
283.521	14.82
283.735	16.01
283.949	16.54
284.164	16.13
284.378	16.49
284.592	15.21
284.806	14.92
285.02	14.22
285.234	13.4
285.449	12.36
285.663	11.39
285.877	11.9
286.091	11.63
286.305	11.19
286.519	11.06
286.733	11.27
286.947	11.97
287.161	12.06
287.375	12.37
287.589	12.48
287.803	12.8
288.017	13.45
288.231	12.55
288.445	12.28
288.659	13.14
288.873	12
289.087	11.64
289.301	11.02
289.515	10.29
289.729	9.4
289.943	10.5
290.157	10.29
290.371	12.31
290.584	12.65
290.798	13.13
291.012	11.46
291.226	12.5
291.44	13.19
291.654	14.21
291.867	15.64
292.081	16.48
292.295	16.38
292.509	16.78
292.722	15.99
292.936	16.59
293.15	16.74
293.364	17.45
293.577	16.96
293.791	16.93
294.005	17.72
294.218	17.28
294.432	17.75
294.645	17.89
294.859	17.06
295.073	15.98
295.286	15.59
295.5	14.36
295.713	15.41
295.927	16.34
296.14	16.33
296.354	15.48
296.568	15.14
296.781	15.19
296.994	14.98
297.208	15.28
297.421	15.29
297.635	14.91
297.848	15.74
298.062	14.86
298.275	14.59
298.489	14.53
298.702	13.94
298.915	13.87
299.129	13.83
299.342	13.74
299.555	13.94
299.769	14.93
299.982	16.11
300.195	15.93
300.409	16.84
300.622	16.18
300.835	16.94
301.048	19.27
301.262	19.23
301.475	18.44
301.688	20.09
301.901	21.15
302.115	20.94
302.328	20.47
302.541	20.38
302.754	20.78
302.967	21.72
303.18	21.18
303.393	19.26
303.607	18.97
303.82	20.07
304.033	18.54
304.246	18.52
304.459	18.24
304.672	19.12
304.885	18.82
305.098	17.89
305.311	17.66
305.524	18.38
305.737	18.47
305.95	20.22
306.163	18.77
306.376	18.56
306.589	18.12
306.802	17.05
307.015	16.18
307.228	17.72
307.44	17.54
307.653	17.81
307.866	17.62
308.079	19.68
308.292	19.13
308.505	20.76
308.718	21.61
308.93	20.86
309.143	21.78
309.356	21.53
309.569	21.25
309.781	21.22
309.994	21.04
310.207	20.66
310.42	18.91
310.632	18.38
310.845	18.66
311.058	17.61
311.27	18.19
311.483	18.26
311.696	18.29
311.908	17.91
312.121	18.74
312.333	18.55
312.546	18.27
312.759	18.83
312.971	18.65
313.184	18.15
313.396	18.88
313.609	19.32
313.821	18.5
314.034	18.49
314.246	18.06
314.459	16.65
314.671	17.17
314.884	17.36
315.096	17.13
315.309	16.93
315.521	18.01
315.733	17.06
315.946	16.55
316.158	16.51
316.371	16.24
316.583	17.86
316.795	19.87
317.008	20.45
317.22	21.19
317.432	20.98
317.644	21.43
317.857	19.45
318.069	19.73
318.281	19.79
318.494	20.53
318.706	21.21
318.918	20.27
319.13	20.11
319.342	19.98
319.555	19.46
319.767	19.83
319.979	20.62
320.191	21.46
320.403	22.83
320.615	22.95
320.827	24.28
321.039	23.91
321.252	24.49
321.464	24.78
321.676	24.83
321.888	24.9
322.1	25.27
322.312	22.33
322.524	21.77
322.736	20.79
322.948	21.02
323.16	18.75
323.372	19.03
323.584	18.11
323.796	17.35
324.007	16.65
324.219	16.71
324.431	17.06
324.643	18.22
324.855	18.54
325.067	19.14
325.279	19.46
325.491	20.32
325.702	20.19
325.914	21.03
326.126	22.11
326.338	22.58
326.55	22.33
326.761	22.57
326.973	23.71
327.185	24.12
327.396	24.88
327.608	24.09
327.82	25.12
328.032	25.96
328.243	25.53
328.455	26.12
328.666	26.66
328.878	27.88
329.09	27.35
329.301	27.02
329.513	27.74
329.725	27.12
329.936	27.15
330.148	26.47
330.359	26.53
330.571	27.43
330.782	25.14
330.994	25.95
331.205	25.55
331.417	25.79
331.628	26.34
331.84	25.6
332.051	25.2
332.262	26.53
332.474	26.12
332.685	26.01
332.897	25.11
333.108	25.7
333.319	23.62
333.531	23.26
333.742	23.94
333.953	23.91
334.165	23.75
334.376	24.22
334.587	23.58
334.799	23.78
335.01	23.49
335.221	23.88
335.432	23.81
335.644	24.1
335.855	24.51
336.066	24.23
336.277	23.57
336.488	23.42
336.7	23.09
336.911	23.5
337.122	23.43
337.333	24.21
337.544	25.27
337.755	25.76
337.966	26.04
338.177	26.23
338.388	26.17
338.599	27.11
338.811	27.29
339.022	27.69
339.233	26.98
339.444	28.11
339.655	26.06
339.866	25.03
340.076	25.17
340.287	25.62
340.498	25.8
340.709	25.56
340.92	24.48
341.131	25.65
341.342	25.65
341.553	26.02
341.764	24.86
341.975	25.98
342.185	26.04
342.396	25.67
342.607	25.84
342.818	25.06
343.029	24.48
343.239	24.86
343.45	23.95
343.661	22.22
343.872	21.49
344.082	22.01
344.293	21.94
344.504	23.73
344.714	23.63
344.925	22.98
345.136	23.4
345.346	22.62
345.557	23.11
345.768	22.64
345.978	23.32
346.189	24.47
346.399	24.09
346.61	24.57
346.821	22.67
347.031	23.5
347.242	23.77
347.452	23.84
347.663	25.1
347.873	25.01
348.084	24.93
348.294	26.33
348.504	26.31
348.715	26.6
348.925	25.56
349.136	25.41
349.346	24.6
349.557	24.43
349.767	23.92
349.977	23.51
350.188	23.56
350.398	24.58
350.608	23.4
350.819	22.51
351.029	22.32
351.239	22.9
351.449	22.53
351.66	22.49
351.87	22.37
352.08	22.44
352.29	22.4
352.501	21.59
352.711	20.45
352.921	20.89
353.131	21.25
353.341	20.67
353.552	20.59
353.762	21.24
353.972	21.53
354.182	21.83
354.392	21.61
354.602	21.44
354.812	22.11
355.022	22.49
355.232	22.5
355.442	22.3
355.652	22.41
355.862	22.68
356.072	22.86
356.282	22.33
356.492	22.46
356.702	22.7
356.912	23.07
357.122	22.78
357.332	22.76
357.542	22.73
357.752	22.82
357.962	22.91
358.171	22.46
358.381	22.39
358.591	22.25
358.801	21.99
359.011	22.35
359.221	22.32
359.43	22.27
359.64	22.29
359.85	21.92
360.06	21.69
360.269	21.51
360.479	21.4
360.689	20.83
360.899	20.77
361.108	20.76
361.318	20.11
361.528	19.45
361.737	19.38
361.947	19.02
362.156	19.07
362.366	18.9
362.576	18.89
362.785	18.74
362.995	18.78
363.204	18.66
363.414	18.56
363.623	18.74
363.833	19.57
364.042	19.24
364.252	19.19
364.461	18.92
364.671	18.77
364.88	18.95
365.09	19.52
365.299	19.72
365.509	19.13
365.718	18.54
365.927	18.23
366.137	17.92
366.346	18.31
366.555	18.49
366.765	18.71
366.974	19.22
367.183	19.49
367.393	19.06
367.602	18.59
367.811	19.27
368.021	19.34
368.23	18.78
368.439	18.49
368.648	18.37
368.857	18.76
369.067	18.73
369.276	18.33
369.485	17.87
369.694	18.25
369.903	19.05
370.112	19.15
370.321	19.05
370.531	19.51
370.74	19.7
370.949	19.75
371.158	18.99
371.367	19.04
371.576	18.88
371.785	18.47
371.994	18.14
372.203	18
372.412	17.82
372.621	18.43
372.83	18.45
373.039	18.49
373.248	17.86
373.457	18.13
373.666	17.81
373.874	17.94
374.083	18.19
374.292	17.58
374.501	16.79
374.71	16.44
374.919	16.62
375.128	16.36
375.336	16.35
375.545	16.99
375.754	16.85
375.963	16.65
376.171	16.46
376.38	16.74
376.589	17.1
376.798	16.9
377.006	17.1
377.215	17.01
377.424	17.24
377.632	17.04
377.841	16.77
378.05	16.65
378.258	16.55
378.467	16.7
378.675	16.4
378.884	16.6
379.093	16.79
379.301	16.45
379.51	15.95
379.718	15.76
379.927	15.89
380.135	15.66
380.344	15.74
380.552	15.86
380.761	16.16
380.969	16.04
381.177	15.71
381.386	15.51
381.594	15.53
381.803	15.62
382.011	15.39
382.219	14.86
382.428	14.24
382.636	13.78
382.845	13.8
383.053	13.44
383.261	13.39
383.469	13.33
383.678	13.84
383.886	13.91
384.094	13.79
384.302	14.06
384.511	14.02
384.719	14.74
384.927	14.9
385.135	15.09
385.343	14.99
385.552	14.96
385.76	14.76
385.968	14.3
386.176	14.09
386.384	13.64
386.592	13.4
386.8	13.5
387.008	13.54
387.216	13.7
387.424	13.64
387.633	13.55
387.841	13.52
388.049	13.63
388.257	13.68
388.465	13.68
388.672	14.36
388.88	14.37
389.088	14.62
389.296	14.1
389.504	14.14
389.712	14.23
389.92	14.06
390.128	13.89
390.336	13.77
390.544	14.37
390.751	14.21
390.959	13.72
391.167	13.93
391.375	13.78
391.583	13.8
391.79	13.58
391.998	13.32
392.206	13.49
392.414	13.34
392.621	13.31
392.829	13.1
393.037	13.32
393.244	13.32
393.452	13.16
393.66	13.03
393.867	13.11
394.075	13.05
394.283	12.96
394.49	12.79
394.698	13.08
394.905	13.04
395.113	12.52
395.32	12.64
395.528	12.75
395.735	12.78
395.943	12.83
396.15	12.8
396.358	13.17
396.565	13.18
396.773	13.65
396.98	13.65
397.188	13.55
397.395	13.71
397.602	13.52
397.81	13.47
398.017	13.43
398.225	13.29
398.432	13.36
398.639	12.86
398.847	13.05
399.054	12.46
399.261	12.24
399.468	12.38
399.676	12.11
399.883	12.15
400.09	12.15
400.297	12.31
400.505	12.48
400.712	12.35
400.919	12.58
401.126	12.58
401.333	12.75
401.54	12.78
401.748	12.81
401.955	13.23
402.162	13.1
402.369	12.93
402.576	12.63
402.783	12.58
402.99	12.56
403.197	12.51
403.404	12.12
403.611	12.15
403.818	12.25
404.025	12.27
404.232	12.07
404.439	12.03
404.646	11.99
404.853	11.9
405.06	11.82
405.267	11.82
405.474	11.76
405.681	11.74
405.887	11.78
406.094	11.62
406.301	11.67
406.508	11.72
406.715	11.73
406.922	11.91
407.128	11.98
407.335	11.96
407.542	12.04
407.749	12.15
407.955	12.48
408.162	12.4
408.369	12.64
408.575	12.53
408.782	12.4
408.989	12.32
409.195	12.27
409.402	12.36
409.609	12.46
409.815	12.5
410.022	12.44
410.228	12.22
410.435	12.13
410.642	11.75
410.848	12.03
411.055	12.06
411.261	12.12
411.468	12.17
411.674	11.92
411.881	11.93
412.087	11.96
412.294	11.92
412.5	11.79
412.706	11.84
412.913	12.08
413.119	11.67
413.326	11.57
413.532	11.81
413.738	11.7
413.945	11.93
414.151	11.73
414.357	11.67
414.564	11.72
414.77	11.93
414.976	11.68
415.182	11.71
415.389	12.02
415.595	11.94
415.801	11.59
416.007	11.69
416.214	11.67
416.42	11.75
416.626	11.57
416.832	11.51
417.038	11.45
417.244	11.67
417.45	11.46
417.657	11.38
417.863	11.64
418.069	11.78
418.275	11.75
418.481	11.72
418.687	11.67
418.893	11.63
419.099	11.7
419.305	11.8
419.511	11.69
419.717	11.71
419.923	11.53
420.129	11.27
420.335	11.31
420.541	11.31
420.746	11.38
420.952	11.41
421.158	11.39
421.364	11.28
421.57	11.24
421.776	11.16
421.982	11.15
422.187	11
422.393	11.11
422.599	10.88
422.805	10.73
423.01	10.53
423.216	10.47
423.422	10.47
423.628	10.55
423.833	10.35
424.039	10.46
424.245	10.5
424.45	10.68
424.656	10.6
424.862	10.75
425.067	10.82
425.273	10.88
425.478	10.94
425.684	10.95
425.889	10.95
426.095	11.03
426.301	10.92
426.506	11.03
426.712	11.17
426.917	11.08
427.123	11.14
427.328	11.16
427.533	11.29
427.739	11.31
427.944	11.32
428.15	11.14
428.355	11.25
428.561	11.34
428.766	11.07
428.971	10.92
429.177	11.12
429.382	11.25
429.587	11.35
429.793	11.22
429.998	11.21
430.203	11.25
430.408	11.43
430.614	11.52
430.819	11.45
431.024	11.81
431.229	11.66
431.434	11.82
431.64	11.46
431.845	11.46
432.05	11.56
432.255	11.28
432.46	11.18
432.665	11.07
432.87	11.05
433.076	11.21
433.281	11.12
433.486	11.3
433.691	11.16
433.896	11.19
434.101	11.24
434.306	11.36
434.511	11.49
434.716	11.63
434.921	11.83
435.126	11.57
435.331	11.46
435.535	11.43
435.74	11.34
435.945	11.43
436.15	11.46
436.355	11.44
436.56	11.24
436.765	11.36
436.97	11.3
437.174	11.1
437.379	11.34
437.584	11.45
437.789	11.41
437.993	11.48
438.198	11.48
438.403	11.59
438.608	11.56
438.812	11.43
439.017	11.4
439.222	11.39
439.426	11.36
439.631	11.28
439.836	11.14
440.04	11.19
440.245	11.07
440.45	11.02
440.654	10.91
440.859	10.82
441.063	10.85
441.268	10.8
441.472	10.81
441.677	10.84
441.881	10.78
442.086	10.82
442.29	10.79
442.495	10.81
442.699	10.76
442.904	10.74
443.108	10.67
443.312	10.72
443.517	10.69
443.721	10.64
443.925	10.49
444.13	10.55
444.334	10.51
444.538	10.43
444.743	10.33
444.947	10.25
445.151	10.31
445.356	10.32
445.56	10.32
445.764	10.3
445.968	10.35
446.173	10.46
446.377	10.51
446.581	10.49
446.785	10.5
446.989	10.57
447.193	10.65
447.398	10.68
447.602	10.66
447.806	10.77
448.01	11.04
448.214	11.04
448.418	10.91
448.622	10.96
448.826	11.07
449.03	11.15
449.234	11.2
449.438	11.17
449.642	11.09
449.846	11.15
450.05	11.14
450.254	10.87
450.458	10.99
450.662	11.14
450.866	10.96
451.069	10.84
451.273	10.64
451.477	10.57
451.681	10.56
451.885	10.52
452.089	10.69
452.292	10.55
452.496	10.53
452.7	10.39
452.904	10.41
453.107	10.47
453.311	10.63
453.515	10.79
453.719	10.85
453.922	11.05
454.126	11.18
454.33	10.97
454.533	10.97
454.737	10.94
454.94	10.88
455.144	10.89
455.348	10.89
455.551	10.79
455.755	10.59
455.958	10.53
456.162	10.36
456.365	10.39
456.569	10.39
456.772	10.41
456.976	10.53
457.179	10.68
457.383	10.75
457.586	10.93
457.79	10.95
457.993	11.08
458.196	10.93
458.4	10.91
458.603	10.75
458.807	10.77
459.01	10.86
459.213	10.7
459.417	10.53
459.62	10.44
459.823	10.28
460.026	10.23
460.23	10.32
460.433	10.53
460.636	10.53
460.839	10.6
461.042	10.7
461.246	10.67
461.449	10.61
461.652	10.72
461.855	10.69
462.058	10.72
462.261	10.73
462.464	10.57
462.668	10.45
462.871	10.49
463.074	10.63
463.277	10.32
463.48	10.35
463.683	10.6
463.886	10.6
464.089	10.55
464.292	10.56
464.495	10.69
464.698	10.69
464.901	10.66
465.104	10.65
465.306	10.39
465.509	10.53
465.712	10.43
465.915	10.43
466.118	10.45
466.321	10.47
466.524	10.61
466.726	10.62
466.929	10.66
467.132	10.6
467.335	10.49
467.538	10.53
467.74	10.46
467.943	10.61
468.146	10.74
468.348	10.71
468.551	10.9
468.754	10.92
468.956	10.76
469.159	10.76
469.362	11
469.564	10.94
469.767	10.97
469.969	10.98
470.172	10.72
470.375	10.66
470.577	10.75
470.78	10.74
470.982	10.61
471.185	10.61
471.387	10.67
471.59	10.55
471.792	10.71
471.995	10.62
472.197	10.79
472.399	10.76
472.602	10.57
472.804	10.44
473.007	10.35
473.209	10.27
473.411	10.29
473.614	10.33
473.816	10.29
474.018	10.24
474.22	10.28
474.423	10.19
474.625	10.42
474.827	10.68
475.03	10.82
475.232	10.91
475.434	10.89
475.636	10.9
475.838	10.71
476.04	10.75
476.243	10.94
476.445	10.9
476.647	10.94
476.849	10.73
477.051	10.49
477.253	10.49
477.455	10.49
477.657	10.55
477.859	10.53
478.061	10.51
478.263	10.41
478.465	10.27
478.667	10.33
478.869	10.37
479.071	10.44
479.273	10.45
479.475	10.27
479.677	10.17
479.879	10.08
480.081	10.09
480.283	10.23
480.485	10.26
480.686	10.16
480.888	10.25
481.09	10.19
481.292	10.12
481.494	10.09
481.695	10.19
481.897	10.13
482.099	10.09
482.301	10.16
482.502	10.06
482.704	10.02
482.906	10
483.107	9.89
483.309	9.83
483.511	9.9
483.712	9.89
483.914	9.82
484.115	9.83
484.317	9.85
484.519	9.81
484.72	9.81
484.922	9.78
485.123	9.81
485.325	9.83
485.526	9.89
485.728	9.86
485.929	9.83
486.131	9.88
486.332	9.93
486.534	9.83
486.735	9.77
486.936	9.71
487.138	9.75
487.339	9.7
487.541	9.73
487.742	9.67
487.943	9.67
488.144	9.67
488.346	9.65
488.547	9.54
488.748	9.65
488.95	9.6
489.151	9.66
489.352	9.71
489.553	9.73
489.755	9.72
489.956	9.7
490.157	9.68
490.358	9.68
490.559	9.73
490.76	9.84
490.961	9.78
491.163	9.9
491.364	9.93
491.565	9.83
491.766	9.85
491.967	9.88
492.168	9.87
492.369	9.98
492.57	10.01
492.771	10.03
492.972	10.02
493.173	10.15
493.374	10.1
493.575	10.13
493.776	10.23
493.976	10.32
494.177	10.38
494.378	10.53
494.579	10.37
494.78	10.46
494.981	10.47
495.182	10.44
495.382	10.39
495.583	10.36
495.784	10.47
495.985	10.57
496.185	10.57
496.386	10.49
496.587	10.65
496.788	10.75
496.988	10.67
497.189	10.69
497.39	10.77
497.59	10.75
497.791	10.91
497.992	10.87
498.192	10.9
498.393	10.86
498.593	10.85
498.794	10.61
498.994	10.64
499.195	10.72
499.395	10.73
499.596	10.8
499.796	10.8
499.997	10.74
500.197	10.73
500.398	10.65
500.598	10.78
500.799	10.75
500.999	10.86
501.199	10.69
501.4	10.76
501.6	10.61
501.801	10.61
502.001	10.77
502.201	10.83
502.402	10.77
502.602	10.73
502.802	10.65
503.002	10.8
503.203	10.82
503.403	10.98
503.603	10.86
503.803	10.98
504.003	10.98
504.204	10.86
504.404	10.88
504.604	10.78
504.804	10.9
505.004	10.87
505.204	10.86
505.404	10.94
505.604	11.01
505.804	10.98
506.005	10.91
506.205	10.95
506.405	11.04
506.605	11.03
506.805	11.18
507.005	11.2
507.204	11.22
507.404	11.2
507.604	11.14
507.804	11.15
508.004	11.34
508.204	11.37
508.404	11.33
508.604	11.3
508.804	11.28
509.003	11.34
509.203	11.31
509.403	11.39
509.603	11.48
509.803	11.62
510.002	11.66
510.202	11.66
510.402	11.62
510.602	11.68
510.801	11.75
511.001	11.77
511.201	11.73
511.4	11.67
511.6	11.64
511.8	11.56
511.999	11.69
512.199	11.54
512.398	11.44
512.598	11.69
512.797	11.73
512.997	11.85
513.197	11.94
513.396	12.08
513.596	12.2
513.795	12.44
513.994	12.57
514.194	12.35
514.393	12.53
514.593	12.66
514.792	12.58
514.992	12.56
515.191	12.44
515.39	12.55
515.59	12.47
515.789	12.49
515.988	12.31
516.188	12.32
516.387	12.36
516.586	12.2
516.786	12.3
516.985	12.28
517.184	12.35
517.383	12.47
517.582	12.43
517.782	12.5
517.981	12.44
518.18	12.42
518.379	12.47
518.578	12.42
518.777	12.58
518.976	12.4
519.176	12.52
519.375	12.54
519.574	12.42
519.773	12.4
519.972	12.29
520.171	12.39
520.37	12.4
520.569	12.4
520.768	12.58
520.967	12.6
521.166	12.72
521.365	12.61
521.564	12.68
521.762	12.95
521.961	12.88
522.16	13.01
522.359	12.92
522.558	12.96
522.757	12.88
522.956	12.92
523.154	12.78
523.353	12.92
523.552	13.05
523.751	13.11
523.949	13
524.148	13.18
524.347	13.31
524.546	13.42
524.744	13.4
524.943	13.53
525.142	13.49
525.34	13.69
525.539	13.72
525.737	13.82
525.936	13.8
526.135	13.74
526.333	13.63
526.532	13.56
526.73	13.66
526.929	13.67
527.127	13.69
527.326	13.68
527.524	13.63
527.723	13.69
527.921	13.65
528.12	13.6
528.318	13.68
528.516	13.77
528.715	13.77
528.913	13.7
529.112	13.73
529.31	13.7
529.508	13.73
529.707	13.76
529.905	13.76
530.103	13.79
530.301	13.84
530.5	13.88
530.698	13.92
530.896	14.08
531.094	14.21
531.293	14.36
531.491	14.54
531.689	14.65
531.887	14.75
532.085	14.72
532.283	14.75
532.481	14.85
532.68	14.83
532.878	14.86
533.076	14.79
533.274	14.83
533.472	14.8
533.67	14.71
533.868	14.73
534.066	14.78
534.264	14.78
534.462	14.78
534.66	14.78
534.858	14.85
535.056	14.86
535.253	14.93
535.451	14.96
535.649	15.05
535.847	15.31
536.045	15.32
536.243	15.38
536.441	15.55
536.638	15.69
536.836	15.72
537.034	15.77
537.232	15.86
537.43	15.93
537.627	16.05
537.825	16.01
538.023	15.9
538.22	16.04
538.418	16.09
538.616	16.14
538.813	16.21
539.011	16.38
539.209	16.42
539.406	16.56
539.604	16.67
539.801	16.88
539.999	17.07
540.196	17.16
540.394	17.24
540.591	17.38
540.789	17.45
540.986	17.46
541.184	17.47
541.381	17.48
541.579	17.47
541.776	17.56
541.974	17.43
542.171	17.48
542.368	17.52
542.566	17.49
542.763	17.48
542.96	17.5
543.158	17.59
543.355	17.65
543.552	17.86
543.75	18.03
543.947	17.94
544.144	18.05
544.341	18.18
544.539	18.32
544.736	18.46
544.933	18.5
545.13	18.59
545.327	18.62
545.524	18.67
545.722	18.75
545.919	18.72
546.116	19.02
546.313	19.09
546.51	19.18
546.707	19.29
546.904	19.45
547.101	19.48
547.298	19.62
547.495	19.77
547.692	19.88
547.889	19.78
548.086	20.03
548.283	20.1
548.48	20.27
548.677	20.17
548.874	20.17
549.07	20.24
549.267	20.38
549.464	20.31
549.661	20.4
549.858	20.67
550.055	21.09
550.251	20.91
550.448	20.85
550.645	20.79
550.842	21.04
551.038	21.29
551.235	21.36
551.432	21.57
551.628	21.78
551.825	21.96
552.022	21.99
552.218	21.97
552.415	22.2
552.612	22.45
552.808	22.68
553.005	22.86
553.201	22.97
553.398	22.9
553.594	22.99
553.791	23.17
553.987	23.2
554.184	23.39
554.38	23.41
554.577	23.45
554.773	23.66
554.97	23.88
555.166	23.98
555.362	23.91
555.559	24.15
555.755	24.26
555.952	24.11
556.148	24.15
556.344	24.01
556.541	24.11
556.737	24.35
556.933	24.49
557.129	24.47
557.326	24.58
557.522	24.93
557.718	25.03
557.914	25.04
558.11	25.21
558.307	25.25
558.503	25.38
558.699	25.51
558.895	25.59
559.091	25.48
559.287	25.51
559.483	25.57
559.679	25.6
559.876	25.65
560.072	25.77
560.268	26.08
560.464	26.26
560.66	26.38
560.856	26.56
561.052	26.72
561.247	26.81
561.443	26.97
561.639	26.99
561.835	27.22
562.031	27.37
562.227	27.55
562.423	27.43
562.619	27.57
562.815	27.87
563.01	28.05
563.206	28.07
563.402	28.32
563.598	28.28
563.793	28.5
563.989	28.25
564.185	28.3
564.381	28.43
564.576	28.81
564.772	28.9
564.968	28.86
565.163	28.69
565.359	28.5
565.555	28.32
565.75	28.56
565.946	28.57
566.141	28.7
566.337	28.96
566.532	29.09
566.728	29.08
566.923	29.21
567.119	29.23
567.314	29.39
567.51	29.64
567.705	29.74
567.901	29.74
568.096	29.89
568.292	30.27
568.487	30.24
568.682	30.2
568.878	30.26
569.073	30.24
569.268	30.47
569.464	30.66
569.659	30.82
569.854	30.96
570.05	31.18
570.245	31.2
570.44	31.03
570.635	31.26
570.831	31.3
571.026	31.52
571.221	31.67
571.416	31.51
571.611	31.39
571.806	31.4
572.002	31.63
572.197	31.7
572.392	31.74
572.587	31.93
572.782	31.94
572.977	32.21
573.172	32.25
573.367	32.31
573.562	32.7
573.757	32.98
573.952	33.13
574.147	33.17
574.342	33.33
574.537	33.55
574.732	33.53
574.927	33.43
575.121	33.29
575.316	33.31
575.511	33.22
575.706	33.23
575.901	33.1
576.096	33.15
576.29	33.2
576.485	33.04
576.68	33.12
576.875	33.14
577.069	33.31
577.264	33.39
577.459	33.53
577.654	33.78
577.848	33.66
578.043	33.95
578.238	34.06
578.432	33.94
578.627	34.14
578.821	34.11
579.016	34.21
579.21	34.5
579.405	34.59
579.6	34.55
579.794	34.62
579.989	34.62
580.183	34.72
580.378	34.71
580.572	34.99
580.766	35.03
580.961	35.06
581.155	35.32
581.35	35.21
581.544	35.17
581.738	35.15
581.933	35.28
582.127	35.73
582.321	35.62
582.516	35.45
582.71	35.67
582.904	35.72
583.099	35.66
583.293	35.55
583.487	35.93
583.681	36.22
583.875	36.27
584.07	36.2
584.264	35.9
584.458	35.84
584.652	36.13
584.846	35.93
585.04	36.07
585.234	36.34
585.428	36.4
585.623	36.1
585.817	35.98
586.011	36.21
586.205	36.57
586.399	36.65
586.593	36.94
586.787	37.09
586.981	37.23
587.174	37.29
587.368	37.26
587.562	37.08
587.756	37.17
587.95	37.37
588.144	37.31
588.338	37.32
588.532	37.5
588.725	37.49
588.919	37.57
589.113	37.65
589.307	37.69
589.501	37.79
589.694	38.04
589.888	38.08
590.082	38.15
590.275	38.25
590.469	38.31
590.663	38.17
590.856	38.26
591.05	38.1
591.244	38.09
591.437	38.2
591.631	38.04
591.824	37.92
592.018	38.03
592.212	37.81
592.405	37.7
592.599	37.71
592.792	37.87
592.986	37.91
593.179	38.16
593.372	38.23
593.566	38.2
593.759	38.42
593.953	38.76
594.146	38.62
594.339	38.98
594.533	39.03
594.726	38.83
594.92	38.78
595.113	38.82
595.306	38.71
595.499	38.66
595.693	38.81
595.886	38.91
596.079	38.92
596.272	38.79
596.466	38.57
596.659	38.55
596.852	38.76
597.045	38.95
597.238	38.95
597.431	38.98
597.624	38.97
597.818	38.7
598.011	38.54
598.204	38.28
598.397	38.5
598.59	38.5
598.783	38.74
598.976	38.5
599.169	38.51
599.362	38.65
599.555	38.87
599.748	39.15
599.941	39.27
600.134	39.27
600.326	39.64
600.519	39.87
600.712	40
600.905	39.88
601.098	40.22
601.291	40.4
601.483	40.29
601.676	40.3
601.869	40.18
602.062	40.55
602.255	40.71
602.447	40.74
602.64	40.56
602.833	40.67
603.025	40.67
603.218	40.73
603.411	40.67
603.603	40.66
603.796	40.51
603.989	40.58
604.181	40.31
604.374	40.39
604.566	40.35
604.759	40.46
604.951	40.32
605.144	40.34
605.336	40.31
605.529	40.25
605.721	40.2
605.914	40.34
606.106	40.45
606.299	40.66
606.491	40.79
606.683	40.8
606.876	40.78
607.068	41.18
607.26	41.33
607.453	41.32
607.645	41.43
607.837	41.58
608.03	41.56
608.222	41.24
608.414	41.19
608.606	41.01
608.799	41.18
608.991	41.21
609.183	41.19
609.375	41.12
609.567	41.06
609.759	40.94
609.952	40.88
610.144	40.96
610.336	41.22
610.528	41.15
610.72	40.83
610.912	40.82
611.104	40.9
611.296	40.72
611.488	40.73
611.68	40.94
611.872	40.95
612.064	41.19
612.256	41.14
612.448	41.13
612.64	40.99
612.832	41.64
613.023	41.7
613.215	41.76
613.407	41.9
613.599	42
613.791	41.93
613.983	41.99
614.174	41.92
614.366	42.13
614.558	41.99
614.75	42.11
614.941	41.81
615.133	41.86
615.325	41.92
615.516	42.01
615.708	41.72
615.9	41.54
616.091	41.57
616.283	41.59
616.475	41.34
616.666	41.32
616.858	41.68
617.049	41.98
617.241	41.69
617.432	41.5
617.624	41.63
617.815	41.96
618.007	41.95
618.198	42.23
618.39	41.83
618.581	41.86
618.773	42.07
618.964	42
619.155	41.9
619.347	42.17
619.538	42.36
619.729	42.29
619.921	42.44
620.112	42.73
620.303	42.94
620.494	43.41
620.686	43.47
620.877	43.37
621.068	43.12
621.259	43.23
621.451	43.18
621.642	43.01
621.833	42.56
622.024	42.42
622.215	42.39
622.406	42.24
622.597	42.3
622.788	42.39
622.98	42.54
623.171	42.91
623.362	42.92
623.553	43.28
623.744	43.38
623.935	43.91
624.126	43.88
624.317	43.93
624.508	43.71
624.698	43.57
624.889	43.46
625.08	43.52
625.271	43.5
625.462	43.45
625.653	42.81
625.844	42.85
626.034	42.6
626.225	42.72
626.416	42.79
626.607	42.8
626.798	42.91
626.988	43.2
627.179	43.14
627.37	43.03
627.56	43.08
627.751	43.43
627.942	43.58
628.132	43.73
628.323	43.77
628.514	43.65
628.704	43.65
628.895	43.7
629.085	43.54
629.276	43.56
629.466	43.55
629.657	43.51
629.847	43.46
630.038	43.2
630.228	43.18
630.419	43.19
630.609	43.21
630.8	43.16
630.99	43.03
631.181	42.77
631.371	42.76
631.561	43
631.752	43.07
631.942	42.87
632.132	42.93
632.323	43.17
632.513	42.89
632.703	42.96
632.893	43.12
633.084	42.96
633.274	43.12
633.464	42.98
633.654	42.89
633.844	42.89
634.034	43
634.225	43.13
634.415	42.79
634.605	42.97
634.795	43.09
634.985	42.98
635.175	43.05
635.365	42.88
635.555	43.21
635.745	43.05
635.935	43.32
636.125	43.25
636.315	43.2
636.505	43.23
636.695	43.16
636.885	42.79
637.075	42.66
637.265	42.97
637.455	43.02
637.644	42.81
637.834	43
638.024	42.78
638.214	42.85
638.404	43.17
638.593	43.72
638.783	43.81
638.973	44.33
639.163	44.35
639.352	44.35
639.542	44.48
639.732	44.74
639.921	44.7
640.111	44.74
640.301	45.07
640.49	44.84
640.68	44.59
640.87	44.52
641.059	44.5
641.249	44.75
641.438	44.57
641.628	44.34
641.817	44.09
642.007	44.05
642.196	43.92
642.386	44.08
642.575	44.03
642.764	43.84
642.954	43.9
643.143	43.89
643.333	44.17
643.522	44.03
643.711	44.4
643.901	44.46
644.09	44.69
644.279	44.88
644.469	44.31
644.658	44.49
644.847	44.54
645.036	44.19
645.226	43.48
645.415	43.28
645.604	43.58
645.793	43.44
645.982	43.43
646.171	43.14
646.361	43.65
646.55	44.15
646.739	44.09
646.928	44.08
647.117	44.43
647.306	44.83
647.495	44.85
647.684	45.04
647.873	45.22
648.062	45.21
648.251	45.32
648.44	44.79
648.629	44.24
648.818	44.3
649.007	44.04
649.196	44.14
649.384	43.95
649.573	43.85
649.762	43.59
649.951	43.57
650.14	43.65
650.328	44.1
650.517	44.26
650.706	44.46
650.895	44.41
651.083	44.9
651.272	44.68
651.461	45.11
651.65	45.57
651.838	45.44
652.027	45.68
652.216	45.62
652.404	45.48
652.593	45.34
652.781	45.61
652.97	45.6
653.158	45.31
653.347	45.69
653.535	45.63
653.724	44.87
653.912	45.38
654.101	45.35
654.289	45.36
654.478	45.34
654.666	45.26
654.855	45.02
655.043	44.84
655.231	44.87
655.42	44.97
655.608	44.85
655.796	45.12
655.985	44.65
656.173	44.44
656.361	44.54
656.55	44.4
656.738	44.44
656.926	44.65
657.114	44.96
657.302	44.93
657.491	44.47
657.679	44.6
657.867	44.75
658.055	44.9
658.243	44.77
658.431	44.72
658.619	44.83
658.807	45.04
658.996	45.06
659.184	44.83
659.372	45.04
659.56	45.13
659.748	44.87
659.936	44.74
660.124	44.98
660.311	45.13
660.499	45.21
660.687	45.03
660.875	45.3
661.063	45.2
661.251	45.3
661.439	45.22
661.627	45.48
661.814	45.51
662.002	45.37
662.19	45.3
662.378	45.32
662.565	45.48
662.753	45.91
662.941	45.37
663.129	45.26
663.316	45.36
663.504	45.26
663.692	45.6
663.879	45.95
664.067	46.37
664.254	46.05
664.442	45.84
664.63	45.83
664.817	45.48
665.005	45.23
665.192	45.34
665.38	45.34
665.567	45.17
665.755	44.54
665.942	44.92
666.13	44.74
666.317	45.04
666.504	45.23
666.692	45.3
666.879	45.45
667.067	45.66
667.254	45.59
667.441	45.46
667.629	45.69
667.816	46.12
668.003	45.6
668.19	45.57
668.378	45.27
668.565	45.15
668.752	45.12
668.939	44.92
669.127	45.77
669.314	45.72
669.501	45.61
669.688	45.77
669.875	45.63
670.062	46.04
670.249	46.22
670.436	46.21
670.623	46.68
670.81	46.69
670.997	46.74
671.184	45.97
671.371	46.87
671.558	46.96
671.745	46.77
671.932	46.28
672.119	45.6
672.306	45.25
672.493	45.57
672.68	45.24
672.867	45.62
673.054	45.53
673.24	45.48
673.427	44.67
673.614	45
673.801	45.56
673.988	46.22
674.174	46.64
674.361	46.99
674.548	46.78
674.734	46.71
674.921	45.99
675.108	46.42
675.294	46.07
675.481	45.83
675.668	45.71
675.854	45.09
676.041	45.01
676.227	44.9
676.414	45.02
676.601	45.2
676.787	45.27
676.974	45.53
677.16	45.25
677.347	45.31
677.533	45.17
677.719	44.83
677.906	44.69
678.092	45.17
678.279	45
678.465	44.81
678.651	44.57
678.838	44.93
679.024	44.73
679.21	44.57
679.397	44.85
679.583	45.29
679.769	45.9
679.955	45.98
680.142	45.38
680.328	45.73
680.514	45.6
680.7	45.47
680.886	45.39
681.073	45.28
681.259	45.47
681.445	45.53
681.631	45.35
681.817	45.04
682.003	45.26
682.189	45.31
682.375	44.97
682.561	45.07
682.747	45.53
682.933	45.63
683.119	45.75
683.305	45.71
683.491	45.35
683.677	45.57
683.863	45.83
684.049	46.09
684.235	45.95
684.42	46.04
684.606	46.09
684.792	46.13
684.978	45.54
685.164	46
685.349	46.08
685.535	46.82
685.721	46.34
685.907	45.71
686.092	45.51
686.278	45.91
686.464	45.76
686.649	45.89
686.835	45.38
687.021	45.84
687.206	45.95
687.392	45.17
687.577	44.99
687.763	45.47
687.948	45.8
688.134	45.15
688.319	45.21
688.505	45.59
688.69	45.7
688.876	45.97
689.061	45.8
689.247	45.44
689.432	46.05
689.618	45.33
689.803	45.13
689.988	45.21
690.174	45.78
690.359	45.7
690.544	45.88
690.73	46.33
690.915	46.15
691.1	46.39
691.285	46.5
691.471	47.04
691.656	47.96
691.841	48.21
692.026	48.35
692.211	48.97
692.396	49.18
692.582	48.61
692.767	48.14
692.952	48.21
693.137	47.97
693.322	47.88
693.507	47.7
693.692	47.59
693.877	47.23
694.062	47.13
694.247	46.16
694.432	46.6
694.617	46.7
694.802	46.92
694.987	47.02
695.172	46.82
695.357	46.57
695.541	46.41
695.726	46.41
695.911	47.2
696.096	47.06
696.281	47.43
696.466	46.91
696.65	46.98
696.835	46.99
697.02	47.21
697.204	47.49
697.389	47.74
697.574	47.31
697.759	47.13
697.943	46.68
698.128	46.81
698.312	46.64
698.497	46.07
698.682	46.17
698.866	46.17
699.051	46.11
699.235	45.89
699.42	45.91
699.604	46.15
699.789	45.88
699.973	45.88
700.158	45.84
700.342	45.73
700.527	46.28
700.711	46.53
700.895	46.37
701.08	46.71
701.264	46.83
701.448	46.7
701.633	46.96
701.817	47.14
702.001	47.28
702.186	46.93
702.37	47.62
702.554	47.42
702.738	47.12
702.923	46.81
703.107	46.68
703.291	47.04
703.475	47.12
703.659	46.9
703.843	46.75
704.027	47.08
704.212	47.47
704.396	47.23
704.58	47.29
704.764	47.12
704.948	46.89
705.132	46.45
705.316	46.6
705.5	47.04
705.684	47.43
705.868	47.71
706.052	46.73
706.235	46.92
706.419	46.73
706.603	46.74
706.787	47.02
706.971	48.33
707.155	48.18
707.339	48.1
707.522	47.8
707.706	47.28
707.89	47.59
708.074	48.06
708.257	47.56
708.441	47.78
708.625	47.66
708.808	48.28
708.992	47.57
709.176	47.67
709.359	47.53
709.543	47.67
709.727	47.88
709.91	47.57
710.094	47.81
710.277	48.22
710.461	48.02
710.644	48.5
710.828	48.3
711.011	48.18
711.195	47.65
711.378	47.61
711.562	47.46
711.745	47.32
711.928	47.71
712.112	47.49
712.295	47.56
712.478	47.58
712.662	47.85
712.845	47.36
713.028	47.63
713.212	48.54
713.395	48.48
713.578	48.55
713.761	48.45
713.945	48.01
714.128	48.06
714.311	47.87
714.494	47.84
714.677	47.55
714.86	47.69
715.043	47.78
715.227	47.49
715.41	47.53
715.593	47.37
715.776	47.27
715.959	47.35
716.142	47.89
716.325	47.58
716.508	47.77
716.691	48.05
716.874	48.05
717.057	47.59
717.239	47.95
717.422	47.79
717.605	48.08
717.788	48.11
717.971	48.27
718.154	47.81
718.337	48.34
718.519	49.16
718.702	49.4
718.885	49.32
719.068	50.15
719.25	50.28
719.433	50.44
719.616	50.1
719.798	50.14
719.981	50.59
720.164	50.62
720.346	50.55
720.529	50.2
720.712	49.33
720.894	49.48
721.077	48.77
721.259	48.45
721.442	48.65
721.624	49.26
721.807	49.58
721.989	48.78
722.172	48.88
722.354	48.66
722.537	48.03
722.719	48.19
722.901	49.03
723.084	49.44
723.266	49.09
723.448	49.24
723.631	48.67
723.813	48.87
723.995	48.85
724.178	48.72
724.36	49.17
724.542	48.56
724.724	48.99
724.907	48.32
725.089	47.55
725.271	48
725.453	47.48
725.635	47.81
725.817	47.85
725.999	48.51
726.181	48.8
726.364	48.03
726.546	49.24
726.728	48.84
726.91	48.48
727.092	49.08
727.274	49.11
727.456	49.81
727.638	50.43
727.819	50.61
728.001	49.71
728.183	49.81
728.365	49.67
728.547	49.27
728.729	49.11
728.911	49.81
729.093	48.87
729.274	47.46
729.456	47.34
729.638	46.75
729.82	46.63
730.001	46.71
730.183	46.94
730.365	47.84
730.546	48.05
730.728	48.14
730.91	47.32
731.091	48.21
731.273	48.83
731.455	48.01
731.636	47.96
731.818	48.35
731.999	48.6
732.181	48.36
732.362	47.99
732.544	47.7
732.725	47.53
732.907	47.92
733.088	48.21
733.27	49.72
733.451	49.84
733.633	50.44
733.814	49.58
733.995	50.35
734.177	50.07
734.358	49.97
734.539	50.26
734.721	50.57
734.902	49.98
735.083	49.49
735.264	49.18
735.446	50.17
735.627	48.86
735.808	48.66
735.989	48.64
736.17	48.89
736.351	48.28
736.533	47.51
736.714	46.6
736.895	47.55
737.076	47.9
737.257	47.2
737.438	46.92
737.619	48.11
737.8	49.47
737.981	48.37
738.162	48.39
738.343	49.44
738.524	49.26
738.705	49.78
738.886	49.44
739.067	49.79
739.247	49.46
739.428	49.05
739.609	47.99
739.79	47.88
739.971	47.42
740.151	46.93
740.332	46.12
740.513	46.08
740.694	46.6
740.874	46.46
741.055	45.38
741.236	45.46
741.417	46.49
741.597	46.3
741.778	45.73
741.958	45.81
742.139	46.82
742.32	47.3
742.5	48.34
742.681	48.89
742.861	48.67
743.042	49.05
743.222	49.34
743.403	48.41
743.583	49.29
743.764	49.2
743.944	50.69
744.124	50.24
744.305	50.91
744.485	50.01
744.666	47.96
744.846	48.32
745.026	48.77
745.207	48.97
745.387	49.46
745.567	49.68
745.747	49.99
745.928	48.77
746.108	48.81
746.288	48.03
746.468	48.32
746.648	50.13
746.829	50.37
747.009	50.54
747.189	50.74
747.369	50.71
747.549	49.91
747.729	50.17
747.909	50.23
748.089	50.18
748.269	50.21
748.449	51.17
748.629	50.72
748.809	50.53
748.989	50.06
749.169	49.91
749.349	49.9
749.529	50.91
749.709	49.94
749.889	51.38
750.068	50.79
750.248	51.69
750.428	51.88
750.608	51.36
750.788	51.2
750.967	50.8
751.147	50.56
751.327	50.19
751.507	48.78
751.686	50.68
751.866	50.73
752.046	51.15
752.225	50.69
752.405	50.82
752.585	51.19
752.764	51.11
752.944	51.91
753.123	52.05
753.303	52.38
753.482	54
753.662	53.19
753.841	52.23
754.021	52.23
754.2	52.23
754.38	51.35
754.559	51.46
754.739	51.24
754.918	51.05
755.097	50.66
755.277	50.68
755.456	50.54
755.635	49.78
755.815	48.98
755.994	48.37
756.173	48.19
756.352	47.75
756.532	46.92
756.711	46.94
756.89	46.46
757.069	47.39
757.248	46.37
757.427	45.5
757.607	45.96
757.786	46.69
757.965	46.63
758.144	46.57
758.323	47.34
758.502	47.47
758.681	48.04
758.86	47.76
759.039	46.93
759.218	48.6
759.397	48.47
759.576	47.75
759.755	47.88
759.934	48.1
760.113	48.27
760.291	47.53
760.47	48.11
760.649	47.86
760.828	48.74
761.007	48.91
761.186	47.34
761.364	47.59
761.543	48.17
761.722	47.86
761.901	47.49
762.079	48.19
762.258	49.1
762.437	49.65
762.615	49.29
762.794	49.17
762.972	48.36
763.151	48.55
763.33	49.14
763.508	48.68
763.687	48.48
763.865	48.8
764.044	48.19
764.222	47.34
764.401	46.63
764.579	47.17
764.758	46.52
764.936	47.42
765.114	47.41
765.293	46.81
765.471	47.22
765.65	47.81
765.828	48.41
766.006	48.55
766.184	48.91
766.363	48.92
766.541	48.34
766.719	48.97
766.898	48.97
767.076	49.19
767.254	49.42
767.432	49.95
767.61	49.79
767.788	49.75
767.967	49.77
768.145	50.36
768.323	50.64
768.501	51.11
768.679	50.73
768.857	49.96
769.035	50.72
769.213	50.71
769.391	50.63
769.569	50.34
769.747	50.74
769.925	50.47
770.103	49.76
770.281	49.77
770.459	49.74
770.636	50.22
770.814	50.43
770.992	49.78
771.17	49.76
771.348	50.22
771.525	49.93
771.703	49.17
771.881	50.45
772.059	51.34
772.236	51.04
772.414	51.19
772.592	50.84
772.769	51.05
772.947	50.86
773.125	50.7
773.302	49.11
773.48	49.61
773.657	49.33
773.835	47.56
774.013	47.95
774.19	49.09
774.368	48.31
774.545	50.24
774.723	51.83
774.9	50.83
775.077	51.25
775.255	52.81
775.432	53.98
775.61	54.87
775.787	54.47
775.964	54.04
776.142	54.06
776.319	55.33
776.496	54.2
776.674	52.64
776.851	53.72
777.028	52.56
777.205	52.49
777.382	51.7
777.56	51.82
777.737	55.3
777.914	54.22
778.091	55
778.268	55.29
778.445	56.26
778.622	55.83
778.8	55.84
778.977	56.45
779.154	61.02
779.331	61.02
779.508	61.72
779.685	59.92
779.862	58.71
780.038	56.92
780.215	57.56
780.392	56.88
780.569	57.03
780.746	57.2
780.923	58.22
781.1	52.44
781.277	51.92
781.453	49.8
781.63	49.42
781.807	51.44
781.984	52.96
782.16	51.66
782.337	52.3
782.514	52.25
782.691	54
782.867	53.17
783.044	53.85
783.221	56
783.397	58.29
783.574	58.16
783.75	58.92
783.927	59.43
784.103	59.87
784.28	58.72
784.456	58.39
784.633	57.69
784.809	59.57
784.986	57.07
785.162	54.75
785.339	52.82
785.515	52.91
785.692	52.24
785.868	51.2
786.044	52.59
786.221	53.34
786.397	55.42
786.573	54.17
786.749	50.73
786.926	53.51
787.102	53.48
787.278	53.27
787.454	53.32
787.631	52.79
787.807	51.36
787.983	50.26
788.159	47.55
788.335	46.58
788.511	47.05
788.687	50.59
788.863	49.87
789.039	50.99
789.216	50.22
789.392	51.95
789.568	53.28
789.744	54.31
789.919	53.59
790.095	53.56
790.271	54.28
790.447	53.97
790.623	53.75
790.799	53.08
790.975	50.52
791.151	51.83
791.327	51.13
791.502	51.18
791.678	50.42
791.854	52.64
792.03	55.37
792.205	57.37
792.381	58.51
792.557	58.5
792.733	59.16
792.908	61.49
793.084	60.16
793.259	57.47
793.435	55.9
793.611	57.36
793.786	54.43
793.962	52.52
794.137	49.62
794.313	47.12
794.488	44.35
794.664	45.91
794.839	45.65
795.015	47.49
795.19	48.25
795.366	48.33
795.541	47.27
795.716	48.24
795.892	52.01
796.067	51.19
796.242	52.46
796.418	54.11
796.593	53.81
796.768	54.54
796.944	54.49
797.119	54.66
797.294	53.73
797.469	54.99
797.644	55.38
797.82	54.11
797.995	54.29
798.17	54.96
798.345	55.79
798.52	54.27
798.695	54.87
798.87	53.9
799.045	55.06
799.22	56.47
799.395	57.52
799.57	59.44
799.745	56.82
799.92	58.05
800.095	59.33
800.27	55.91
800.445	56.75
800.62	54.56
800.795	56.41
800.97	56.6
801.145	54.64
801.319	53.94
801.494	52.61
801.669	54.8
801.844	55.33
802.018	53.31
802.193	56.75
802.368	55.65
802.543	57.19
802.717	55.72
802.892	54.92
803.067	56.99
803.241	54.48
803.416	53.27
803.59	52.78
803.765	52.98
803.94	54.89
804.114	53.34
804.289	55.68
804.463	55.85
804.638	52.91
804.812	53.82
804.986	51.86
805.161	51.23
805.335	52.79
805.51	53.83
805.684	52.08
805.858	51.63
806.033	51.11
806.207	48.56
806.381	48.92
806.556	49.87
806.73	49.81
806.904	51.3
807.078	52.13
807.253	50.47
807.427	49.25
807.601	48.02
807.775	48.91
807.949	50.47
808.123	51.75
808.298	53.1
808.472	57.11
808.646	55.63
808.82	54.76
808.994	54.01
809.168	54.46
809.342	56.27
809.516	60.23
809.69	59.06
809.864	57.73
810.038	60.24
810.212	57.7
810.385	53.95
810.559	57.32
810.733	58.66
810.907	59.79
811.081	60.71
811.255	58.64
811.428	57.23
811.602	57.6
811.776	58.21
811.95	55.43
812.123	55.47
812.297	57.93
812.471	57.43
812.644	57.19
812.818	58.48
812.992	56.21
813.165	58.51
813.339	54.56
813.512	53.1
813.686	53.41
813.86	54.14
814.033	52.94
814.207	51.27
814.38	46.47
814.554	46.65
814.727	45.24
814.9	47.86
815.074	47.66
815.247	50.18
815.421	49.23
815.594	47.29
815.767	45.5
815.941	50.02
816.114	51.17
816.287	55.31
816.46	54.23
816.634	53.63
816.807	54.52
816.98	55.36
817.153	57.44
817.327	57.47
817.5	60.41
817.673	63.61
817.846	61.57
818.019	63.28
818.192	62.66
818.365	65.72
818.538	65.79
818.711	61.66
818.884	57.72
819.057	56.69
819.23	58.7
819.403	55.8
819.576	52.83
819.749	52.79
819.922	51.13
820.095	51.31
820.268	48.67
820.441	50.89
820.614	50.71
820.786	50.71
820.959	49.7
821.132	48.35
821.305	47.94
821.477	47.9
821.65	47.73
821.823	48.31
821.996	46.83
822.168	46.33
822.341	45.57
822.514	46.3
822.686	46.51
822.859	46.68
823.031	46.31
823.204	46.43
823.376	46.58
823.549	46.23
823.722	45.47
823.894	46.47
824.067	46.1
824.239	46.63
824.411	46.4
824.584	46.39
824.756	46.24
824.929	46.85
825.101	47.01
825.273	47.78
825.446	48.21
825.618	48.41
825.79	47.55
825.963	48.93
826.135	48.54
826.307	47.89
826.479	47.74
826.652	47.7
826.824	46.53
826.996	46.34
827.168	45.65
827.34	45.64
827.512	45.61
827.684	46.02
827.856	45.96
828.029	46.85
828.201	47.71
828.373	47.94
828.545	48.65
828.717	50.19
828.889	50.17
829.061	50.05
829.232	49.94
829.404	50.23
829.576	50.04
829.748	49.97
829.92	49.49
830.092	49.63
830.264	49.06
830.436	49.02
830.607	48.3
830.779	50.29
830.951	51.64
831.123	51.72
831.294	50.92
831.466	50.1
831.638	48.72
831.809	47.08
831.981	48.85
832.153	49.44
832.324	47.68
832.496	49.07
832.667	50.19
832.839	49.57
833.011	49.4
833.182	50
833.354	50.09
833.525	51.8
833.697	52.52
833.868	48.74
834.039	51.07
834.211	50.79
834.382	49.78
834.554	49.88
834.725	48.75
834.896	49.62
835.068	50.82
835.239	51.33
835.41	51.19
835.581	51.51
835.753	52.73
835.924	51.4
836.095	51.71
836.266	52.98
836.438	50.22
836.609	51.93
836.78	52.35
836.951	53.28
837.122	52.94
837.293	52.28
837.464	53.11
837.635	55.23
837.806	55.44
837.977	57.88
838.148	57.15
838.319	59.83
838.49	59.62
838.661	59.32
838.832	58.96
839.003	60.78
839.174	62.14
839.345	63.2
839.516	65.04
839.687	66.41
839.857	64.37
840.028	67.23
840.199	68.19
840.37	68.39
840.54	68.48
840.711	63.95
840.882	67.14
841.053	65.25
841.223	63.72
841.394	59.9
841.564	62.84
841.735	65.78
841.906	58.91
842.076	49.7
842.247	51.98
842.417	55.08
842.588	60.36
842.758	56.03
842.929	59.26
843.099	60.92
843.27	62.34
843.44	59.22
843.611	57.71
843.781	60.86
843.951	68.24
844.122	69.14
844.292	66.79
844.462	67.13
844.633	68
844.803	67.33
844.973	68.95
845.144	70.21
845.314	75.96
845.484	75.81
845.654	74.07
845.824	76.94
845.995	75.17
846.165	68.37
846.335	67.7
846.505	68.31
846.675	72.29
846.845	68.67
847.015	66.33
847.185	58.44
847.355	62.07
847.525	71.53
847.695	73.14
847.865	65.05
848.035	73.35
848.205	70.57
848.375	78.36
848.545	57.43
848.715	63.19
848.884	66.13
849.054	66.15
849.224	64.78
849.394	64.35
849.564	57.54
849.733	64.17
849.903	68.22
850.073	75.05
850.243	69.45
850.412	81.42
850.582	76.85
850.752	81.77
850.921	85.11
851.091	87.69
851.26	88.14
851.43	90.28
851.599	87.16
851.769	82.76
851.939	75.29
852.108	75.73
852.278	80.21
852.447	71.93
852.616	68.64
852.786	65.14
852.955	62.37
853.125	64.1
853.294	64.42
853.463	61.44
853.633	60.38
853.802	64.94
853.971	72.13
854.141	65.95
854.31	69.97
854.479	64.88
854.648	72.94
854.818	70.63
854.987	60.78
855.156	65.37
855.325	69.47
855.494	84.44
855.663	88.45
855.832	85.26
856.001	95.05
856.171	104.69
856.34	112.45
856.509	109.1
856.678	123.05
856.847	137.35
857.016	129.3
857.185	126.66
857.353	117.72
857.522	114.25
857.691	110.52
857.86	106.46
858.029	92.95
858.198	101.19
858.367	99.98
858.535	96.44
858.704	87.46
858.873	90.47
859.042	92.75
859.21	87.11
859.379	98.98
859.548	90.85
859.717	93.73
859.885	97.13
860.054	85.68
860.222	70.94
860.391	79.92
860.56	78.01
860.728	74.91
860.897	71.22
861.065	72.17
861.234	61.15
861.402	69.83
861.571	66.37
861.739	69.1
861.908	78.97
862.076	98.78
862.244	97.25
862.413	93.05
862.581	98.2
862.749	92.04
862.918	90.91
863.086	93.28
863.254	96.44
863.423	102.14
863.591	107.54
863.759	96.37
863.927	87.21
864.096	82.02
864.264	88.68
864.432	79.09
864.6	86.06
864.768	79.67
864.936	79.5
865.104	75.22
865.272	77.54
865.44	85.89
865.608	83.05
865.776	84.95
865.944	85.58
866.112	80.69
866.28	84.21
866.448	77.7
866.616	85.89
866.784	85.48
866.952	91.16
867.12	88.79
867.288	87.17
867.455	85.94
867.623	91.43
867.791	86.27
867.959	84.68
868.127	89.28
868.294	93.26
868.462	83.78
868.63	78.03
868.797	76.77
868.965	78.39
869.133	71.05
869.3	74.5
869.468	69.08
869.636	58.99
869.803	63.21
869.971	58.22
870.138	55.61
870.306	58.16
870.473	64.75
870.641	61.58
870.808	52.82
870.975	53.7
871.143	55.3
871.31	50.76
871.478	63.79
871.645	60.39
871.812	61.02
871.98	56.31
872.147	58.98
872.314	55.81
872.482	55.71
872.649	63.36
872.816	64.34
872.983	62.02
873.15	59.64
873.318	60.79
873.485	75.59
873.652	71.92
873.819	88.06
873.986	99.7
874.153	106.07
874.32	100.72
874.487	99.11
874.654	93.54
874.821	96.65
874.988	95.33
875.155	90.93
875.322	81.84
875.489	88.07
875.656	76.49
875.823	65.26
875.99	53.37
876.157	54.96
876.324	52.66
876.49	59.38
876.657	61.3
876.824	77.87
876.991	85.36
877.157	84.56
877.324	88.41
877.491	97.69
877.658	104.78
877.824	106.31
877.991	106.46
878.157	114.54
878.324	109.35
878.491	115.36
878.657	117.68
878.824	116.63
878.99	111.43
879.157	106.8
879.323	97.88
879.49	93.25
879.656	98.59
879.823	95.42
879.989	94.1
880.156	89.66
880.322	86.1
880.488	79.25
880.655	74.54
880.821	79.93
880.987	79.89
881.154	74.94
881.32	74.27
881.486	70.28
881.652	69.19
881.819	66.12
881.985	63.33
882.151	62.28
882.317	58.47
882.483	55.43
882.649	53.83
882.816	54.65
882.982	54.1
883.148	51.32
883.314	50.51
883.48	51.92
883.646	50.67
883.812	49.68
883.978	50.35
884.144	51.22
884.31	50.14
884.476	49.87
884.642	49.57
884.807	51.24
884.973	51.21
885.139	50.31
885.305	49.79
885.471	50.25
885.637	50.86
885.802	49.28
885.968	50.56
886.134	53.15
886.3	54.01
886.465	53.03
886.631	49.79
886.797	54.47
886.962	54.48
887.128	54.01
887.293	55.13
887.459	58.78
887.625	61.5
887.79	57.97
887.956	54.19
888.121	53.77
888.287	54.15
888.452	59.85
888.618	52.82
888.783	61.58
