Data from LC_154_Reflection_1.txt Node
Date: Mon Nov 16 22:14:53 EST 2015
User: robert
Spectrometer: USB4E03001
Autoset integration time: false
Trigger mode: 4
Integration Time (sec): 1.000000E-1
Scans to average: 15
Electric dark correction enabled: true
Nonlinearity correction enabled: false
Boxcar width: 5
Stray light correction enabled: false
XAxis mode: Wavelengths
Stop averaging: false
Number of Pixels in Spectrum: 3648
>>>>>Begin Spectral Data<<<<<
177.566	2950.6
177.785	254.22
178.005	-1800.84
178.225	162.35
178.445	195.9
178.665	442.81
178.885	762.75
179.105	1254.21
179.324	1855.61
179.544	-177.89
179.764	-813.62
179.984	-206.96
180.204	-224.54
180.423	-185.35
180.643	-283.98
180.863	-248.83
181.083	-205.12
181.302	-282.29
181.522	-262.72
181.742	-212.33
181.961	-345.71
182.181	-325.5
182.401	-478.58
182.621	-1838.82
182.84	-816.26
183.06	-544.6
183.279	-277.63
183.499	-196.56
183.719	-143.69
183.938	-150.32
184.158	-167.35
184.377	-125.31
184.597	-201.22
184.816	-136.29
185.036	-74.13
185.256	-71.7
185.475	-109.96
185.695	-148.73
185.914	-221.23
186.134	-431.64
186.353	-555.28
186.572	-716.63
186.792	-1109.12
187.011	-436.73
187.231	-366.6
187.45	-255.05
187.67	-564.52
187.889	-1178.88
188.108	2609.49
188.328	-635.15
188.547	-192.68
188.766	-323.31
188.986	-465.35
189.205	-289.72
189.424	-158.63
189.644	-485.29
189.863	-738.41
190.082	-662.42
190.302	-1593.14
190.521	-678.29
190.74	538.51
190.959	262.68
191.178	396.5
191.398	407.85
191.617	376.74
191.836	345.24
192.055	762.19
192.274	306.27
192.494	320.58
192.713	324.06
192.932	916.73
193.151	861.7
193.37	1455.69
193.589	-811.55
193.808	-218.37
194.027	-336.37
194.246	-3829.05
194.465	817.46
194.685	2268.17
194.904	1096.85
195.123	-1529.1
195.342	-890.38
195.561	-416.12
195.78	-633.96
195.999	27656.34
196.218	890.43
196.436	657.69
196.655	-1855.61
196.874	-594.09
197.093	-591.8
197.312	-415.3
197.531	1217.11
197.75	487.57
197.969	-1510.4
198.188	-353.86
198.407	-76.12
198.625	-87.33
198.844	-97.51
199.063	-151.64
199.282	-305.57
199.501	-231.73
199.719	-156.84
199.938	-111.26
200.157	-130.81
200.376	-120.84
200.594	-200.08
200.813	-448.56
201.032	-288.84
201.251	-247.08
201.469	-204.41
201.688	-163.61
201.907	-277.12
202.125	-445.4
202.344	18269.05
202.563	2887.52
202.781	534.89
203	1414.04
203.218	948.72
203.437	981.4
203.656	481.81
203.874	292.07
204.093	278.39
204.311	359.45
204.53	302.28
204.748	403.45
204.967	240.62
205.185	211.88
205.404	273.89
205.622	209.45
205.841	164.52
206.059	180.43
206.278	208.85
206.496	457.39
206.715	325.26
206.933	324.58
207.151	300.02
207.37	339.35
207.588	379.06
207.806	353.37
208.025	794.77
208.243	-1546.92
208.461	2429.9
208.68	-19185.88
208.898	787.13
209.116	846.02
209.335	761.38
209.553	710.9
209.771	6995.42
209.989	1192.35
210.208	2232.89
210.426	-2495.56
210.644	1341.89
210.862	-1206.18
211.081	714.17
211.299	-217.71
211.517	538.04
211.735	-176.57
211.953	-78271.43
212.171	-1384.04
212.39	-5064.86
212.608	-16460.87
212.826	742.89
213.044	558.87
213.262	424.25
213.48	1816.88
213.698	266.82
213.916	373.2
214.134	244.73
214.352	439.79
214.57	277.69
214.788	320.48
215.006	286
215.224	263.68
215.442	194.55
215.66	184.9
215.878	160.32
216.096	156
216.314	155.74
216.532	268.72
216.75	250.95
216.968	224.29
217.185	597.96
217.403	1054.06
217.621	-2626
217.839	-833.94
218.057	-1005.55
218.275	1976.68
218.492	638.36
218.71	1090.03
218.928	337.54
219.146	309.93
219.363	280.46
219.581	195.11
219.799	158.23
220.017	165.25
220.234	158.96
220.452	157.71
220.67	174.15
220.887	162.25
221.105	155.14
221.323	116.24
221.54	108.7
221.758	103.6
221.976	139.52
222.193	109.28
222.411	91.49
222.629	105.94
222.846	113.28
223.064	115.52
223.281	110.38
223.499	106.59
223.716	103.1
223.934	94.94
224.151	99.72
224.369	81.96
224.586	79.96
224.804	78.13
225.021	77.71
225.239	67.29
225.456	61.37
225.674	62.55
225.891	47.8
226.108	63.51
226.326	62.73
226.543	54.71
226.76	55.99
226.978	54.54
227.195	58.78
227.413	42.97
227.63	34.95
227.847	34.76
228.064	30.28
228.282	26.65
228.499	23.06
228.716	19.51
228.934	16.21
229.151	15.31
229.368	13.9
229.585	11.94
229.802	13.72
230.02	14.49
230.237	14.01
230.454	16.66
230.671	19.78
230.888	19.76
231.105	21.71
231.323	24.63
231.54	26.33
231.757	27.96
231.974	30.32
232.191	33.06
232.408	37.18
232.625	39.53
232.842	36.02
233.059	38.14
233.276	39.11
233.493	37.24
233.71	37.82
233.927	43.9
234.144	47.26
234.361	44.23
234.578	44.6
234.795	44.48
235.012	43.19
235.229	45.88
235.446	43.14
235.663	40
235.879	44.38
236.096	42.14
236.313	34.86
236.53	31.12
236.747	31.71
236.964	30.55
237.181	29.39
237.397	28.19
237.614	23.61
237.831	25.67
238.048	30.62
238.264	28.14
238.481	29.79
238.698	33.59
238.915	32.07
239.131	34.27
239.348	32.67
239.565	33.97
239.781	35.84
239.998	38.26
240.215	37.71
240.431	35.23
240.648	32.59
240.865	31.63
241.081	28.62
241.298	27.97
241.514	24.93
241.731	24.96
241.947	24.76
242.164	22.05
242.38	19.26
242.597	18.01
242.814	16.68
243.03	16.86
243.246	15.06
243.463	16.07
243.679	16.31
243.896	15.67
244.112	15.16
244.329	13.81
244.545	16.25
244.762	17.14
244.978	19.33
245.194	20.17
245.411	20.06
245.627	21.43
245.843	21.13
246.06	19.23
246.276	18.89
246.492	18.6
246.709	17.3
246.925	16.46
247.141	15.88
247.357	14.36
247.574	14.22
247.79	14.06
248.006	13.37
248.222	12.63
248.439	13.63
248.655	13.65
248.871	13.73
249.087	14.57
249.303	13.99
249.519	15.11
249.736	16.38
249.952	16.83
250.168	18.6
250.384	20.36
250.6	22.65
250.816	22.09
251.032	20.99
251.248	21.03
251.464	20.05
251.68	19.32
251.896	19.16
252.112	18.42
252.328	19.71
252.544	17.97
252.76	17.09
252.976	14.82
253.192	13.77
253.408	14.24
253.624	16.53
253.84	17.02
254.056	20.17
254.272	19.45
254.487	20.77
254.703	20.64
254.919	22.56
255.135	21.18
255.351	23.35
255.567	26.99
255.782	30.37
255.998	24.25
256.214	24.24
256.43	19.88
256.646	19.99
256.861	19.06
257.077	17.57
257.293	14.7
257.508	15.5
257.724	16.29
257.94	15.18
258.155	12.55
258.371	12.3
258.587	10.67
258.802	11.26
259.018	12.23
259.234	11.44
259.449	11.8
259.665	11.61
259.88	12.7
260.096	12.07
260.312	10.35
260.527	10.75
260.743	11.93
260.958	12.53
261.174	12.1
261.389	12.1
261.605	12.78
261.82	12.45
262.036	12.98
262.251	13.16
262.466	13.58
262.682	16.46
262.897	16.52
263.113	15.31
263.328	15.43
263.543	16.13
263.759	15.53
263.974	15.55
264.189	15.92
264.405	16.36
264.62	14.93
264.835	15.25
265.051	14.17
265.266	16.41
265.481	17.42
265.696	18.56
265.912	18.49
266.127	16.41
266.342	14.75
266.557	15.11
266.773	15.53
266.988	15.79
267.203	15.68
267.418	14.78
267.633	12.98
267.848	13.53
268.064	11.99
268.279	12.42
268.494	13.22
268.709	14.34
268.924	14.65
269.139	15.04
269.354	14.19
269.569	13.17
269.784	13.64
269.999	14.27
270.214	13.36
270.429	14.08
270.644	13.98
270.859	13.81
271.074	13.64
271.289	12.94
271.504	12.17
271.719	12.04
271.934	12.07
272.149	12.01
272.363	12.2
272.578	11.41
272.793	10.94
273.008	10.47
273.223	9.47
273.438	9.67
273.653	10.41
273.867	10.33
274.082	9.62
274.297	9.69
274.512	10.25
274.726	9.26
274.941	10.26
275.156	11.51
275.371	12.11
275.585	13.89
275.8	13.52
276.015	12.22
276.229	12.39
276.444	13.97
276.659	14.06
276.873	13.13
277.088	12.71
277.302	12.94
277.517	12.96
277.732	14.2
277.946	13.3
278.161	13.79
278.375	14.07
278.59	13.2
278.804	12.84
279.019	12.97
279.233	13.77
279.448	15.1
279.662	14.35
279.877	14.55
280.091	13.51
280.306	13.66
280.52	12.93
280.735	11.95
280.949	13.68
281.163	13.75
281.378	12.3
281.592	12.41
281.806	11.77
282.021	11.36
282.235	10.58
282.449	10.78
282.664	12.53
282.878	12.97
283.092	14.43
283.307	13.68
283.521	13.33
283.735	14.05
283.949	13.69
284.164	13.69
284.378	14.25
284.592	13.7
284.806	13.27
285.02	12.23
285.234	10.98
285.449	9.87
285.663	9.34
285.877	9.04
286.091	8.8
286.305	8.64
286.519	8.61
286.733	7.75
286.947	7.96
287.161	7.94
287.375	7.77
287.589	9.31
287.803	10.29
288.017	10.24
288.231	11.1
288.445	11.13
288.659	11.4
288.873	11.38
289.087	12.32
289.301	12.4
289.515	12.2
289.729	11.52
289.943	11.03
290.157	10.3
290.371	12.75
290.584	12.36
290.798	13.95
291.012	14.8
291.226	14.76
291.44	14.76
291.654	15.07
291.867	15.5
292.081	16.43
292.295	16.88
292.509	17.29
292.722	15.73
292.936	15.98
293.15	15.7
293.364	14.17
293.577	14.37
293.791	14.07
294.005	15.41
294.218	15.8
294.432	15.49
294.645	14.69
294.859	15
295.073	15.4
295.286	15.49
295.5	15.12
295.713	16.24
295.927	16.64
296.14	16.79
296.354	15.12
296.568	14.65
296.781	14.83
296.994	15.56
297.208	15.23
297.421	14.44
297.635	14.48
297.848	14.16
298.062	13.21
298.275	14.03
298.489	13.99
298.702	15.16
298.915	15.87
299.129	16.65
299.342	15.72
299.555	15.77
299.769	17
299.982	16.85
300.195	17.89
300.409	19.39
300.622	18.39
300.835	19.83
301.048	19.46
301.262	18.54
301.475	17.88
301.688	19.41
301.901	20.88
302.115	19.99
302.328	19.93
302.541	19.43
302.754	19.22
302.967	20.36
303.18	19.93
303.393	19.83
303.607	19.5
303.82	19.04
304.033	18.58
304.246	17.58
304.459	18.43
304.672	17.84
304.885	17.69
305.098	17.18
305.311	16.01
305.524	15.66
305.737	15.88
305.95	16.8
306.163	17.11
306.376	17.54
306.589	16.99
306.802	16.06
307.015	17.73
307.228	17.53
307.44	17.37
307.653	17.83
307.866	16.91
308.079	17.68
308.292	18.93
308.505	20.12
308.718	19.16
308.93	18.85
309.143	18.81
309.356	18.77
309.569	18.98
309.781	20.83
309.994	20.67
310.207	21.22
310.42	19.69
310.632	18.52
310.845	17.46
311.058	17.01
311.27	17.94
311.483	17.8
311.696	16.79
311.908	16.79
312.121	15.41
312.333	16.01
312.546	15.03
312.759	15.46
312.971	15.9
313.184	16.49
313.396	17.28
313.609	17.4
313.821	17.25
314.034	18.04
314.246	18.07
314.459	18.02
314.671	16.93
314.884	17.88
315.096	17.58
315.309	17.57
315.521	18.3
315.733	17.45
315.946	15.82
316.158	16.44
316.371	16.79
316.583	17.65
316.795	17.35
317.008	17.93
317.22	19.87
317.432	20.38
317.644	19.72
317.857	18.2
318.069	18.85
318.281	20.2
318.494	19.71
318.706	20.19
318.918	18.15
319.13	19.18
319.342	19.57
319.555	17.94
319.767	17.93
319.979	17.38
320.191	17.25
320.403	17.34
320.615	17.64
320.827	18.2
321.039	17.1
321.252	18.24
321.464	17.73
321.676	18.22
321.888	17.73
322.1	18.02
322.312	18.3
322.524	18.22
322.736	17.76
322.948	15.68
323.16	15.88
323.372	16.39
323.584	16.33
323.796	14.24
324.007	12.95
324.219	13.15
324.431	12.9
324.643	12.62
324.855	12.9
325.067	13.1
325.279	14.74
325.491	14.96
325.702	14.12
325.914	13.67
326.126	16.09
326.338	16.83
326.55	17.13
326.761	17.89
326.973	19.06
327.185	19.77
327.396	19.89
327.608	19.76
327.82	19.66
328.032	19.83
328.243	19.35
328.455	19.76
328.666	19.44
328.878	19.41
329.09	18.19
329.301	17.88
329.513	17.57
329.725	16.87
329.936	16.99
330.148	16.67
330.359	16.38
330.571	16.38
330.782	15.2
330.994	15.47
331.205	16.48
331.417	16.67
331.628	16.88
331.84	16.81
332.051	18.2
332.262	18.59
332.474	18.02
332.685	19.2
332.897	19.86
333.108	20.85
333.319	19.63
333.531	18.8
333.742	19.76
333.953	18.97
334.165	18.28
334.376	17.45
334.587	16.49
334.799	17.09
335.01	16.29
335.221	16.37
335.432	14.7
335.644	14.98
335.855	14.9
336.066	14.14
336.277	14.66
336.488	15.59
336.7	15.56
336.911	15.98
337.122	15.75
337.333	16.06
337.544	16.44
337.755	17.06
337.966	17.41
338.177	17.58
338.388	17.86
338.599	18.16
338.811	17.42
339.022	17.31
339.233	17.36
339.444	17.62
339.655	16.6
339.866	17.04
340.076	17.53
340.287	17.88
340.498	17.97
340.709	18.53
340.92	17.5
341.131	17.77
341.342	17.99
341.553	17.2
341.764	16.65
341.975	17.87
342.185	17
342.396	16.96
342.607	16.87
342.818	16.42
343.029	15.89
343.239	16.78
343.45	17.01
343.661	16.88
343.872	17.14
344.082	17.63
344.293	17.68
344.504	18.16
344.714	17.54
344.925	16.54
345.136	17.42
345.346	18.03
345.557	18.07
345.768	17.91
345.978	17.54
346.189	17.97
346.399	17.73
346.61	18.2
346.821	18.44
347.031	19.09
347.242	19.52
347.452	19.25
347.663	18.28
347.873	18.33
348.084	17.72
348.294	18.27
348.504	18.13
348.715	17.83
348.925	16.91
349.136	16.63
349.346	15.42
349.557	15.37
349.767	15.35
349.977	16.19
350.188	15.51
350.398	16.35
350.608	16.1
350.819	15.47
351.029	16.14
351.239	16.6
351.449	17.01
351.66	18.21
351.87	19.01
352.08	18.85
352.29	17.86
352.501	17.8
352.711	16.86
352.921	17.17
353.131	17.67
353.341	17.04
353.552	16.27
353.762	15.93
353.972	15.87
354.182	16.13
354.392	15.47
354.602	16
354.812	16.09
355.022	16.57
355.232	15.85
355.442	15.96
355.652	16.43
355.862	15.8
356.072	15.71
356.282	14.99
356.492	14.33
356.702	14.64
356.912	14.6
357.122	14.84
357.332	14.78
357.542	15.49
357.752	15.05
357.962	14.71
358.171	15.48
358.381	15.27
358.591	15.13
358.801	14.4
359.011	14.97
359.221	14.51
359.43	14.64
359.64	15.14
359.85	14.84
360.06	15.41
360.269	15.68
360.479	15.35
360.689	15.19
360.899	15.08
361.108	15.2
361.318	15.15
361.528	14.88
361.737	14.56
361.947	13.69
362.156	13.59
362.366	13.3
362.576	12.99
362.785	13.01
362.995	12.78
363.204	12.98
363.414	13.3
363.623	12.72
363.833	13.37
364.042	13.58
364.252	14.11
364.461	14.33
364.671	13.97
364.88	14.3
365.09	15.09
365.299	15.4
365.509	14.81
365.718	14.34
365.927	14.23
366.137	14.1
366.346	13.92
366.555	13.5
366.765	13.23
366.974	13.46
367.183	13.12
367.393	12.17
367.602	11.85
367.811	12.2
368.021	12.1
368.23	12.12
368.439	11.77
368.648	11.84
368.857	12.22
369.067	12.7
369.276	12.75
369.485	13.33
369.694	13.67
369.903	13.85
370.112	14.26
370.321	14.54
370.531	14.46
370.74	14.3
370.949	13.88
371.158	14.16
371.367	14.44
371.576	14.54
371.785	13.49
371.994	13.28
372.203	13.47
372.412	13.14
372.621	13.54
372.83	13.7
373.039	13.86
373.248	14.04
373.457	13.61
373.666	12.6
373.874	12.23
374.083	12.89
374.292	12.28
374.501	11.72
374.71	11.48
374.919	11.31
375.128	11.08
375.336	11.07
375.545	11.01
375.754	10.66
375.963	11.03
376.171	10.73
376.38	10.58
376.589	11.37
376.798	11.38
377.006	11.52
377.215	11.73
377.424	11.72
377.632	11.46
377.841	11.44
378.05	11.52
378.258	11.15
378.467	11.35
378.675	11.36
378.884	10.71
379.093	10.9
379.301	10.53
379.51	9.98
379.718	9.76
379.927	9.97
380.135	9.59
380.344	9.69
380.552	9.84
380.761	10.03
380.969	9.57
381.177	10.07
381.386	9.93
381.594	10.08
381.803	10.25
382.011	10.41
382.219	10.03
382.428	10.05
382.636	10.04
382.845	10.46
383.053	10.21
383.261	10.14
383.469	10.23
383.678	10.6
383.886	10.6
384.094	10.52
384.302	10.58
384.511	10.83
384.719	11.15
384.927	11.15
385.135	10.87
385.343	11.26
385.552	11.45
385.76	11.11
385.968	10.76
386.176	10.61
386.384	10.47
386.592	10.13
386.8	10.1
387.008	10.05
387.216	9.96
387.424	9.77
387.633	9.7
387.841	9.71
388.049	9.5
388.257	9.27
388.465	9.3
388.672	9.35
388.88	9.37
389.088	9.3
389.296	8.95
389.504	8.93
389.712	9.1
389.92	8.68
390.128	8.48
390.336	8.62
390.544	9.14
390.751	9.2
390.959	9.29
391.167	9.29
391.375	9.49
391.583	9.4
391.79	9.48
391.998	9.36
392.206	9.63
392.414	9.76
392.621	9.77
392.829	9.45
393.037	9.46
393.244	9.22
393.452	9.32
393.66	9.42
393.867	9.72
394.075	9.62
394.283	9.56
394.49	9.14
394.698	9.05
394.905	9.16
395.113	8.95
395.32	8.96
395.528	8.95
395.735	9.13
395.943	8.62
396.15	8.66
396.358	8.67
396.565	8.43
396.773	8.93
396.98	8.95
397.188	8.83
397.395	8.88
397.602	8.77
397.81	8.74
398.017	8.63
398.225	8.82
398.432	8.67
398.639	8.72
398.847	8.92
399.054	8.63
399.261	8.58
399.468	8.54
399.676	8.56
399.883	8.58
400.09	8.64
400.297	8.76
400.505	8.66
400.712	8.73
400.919	8.63
401.126	8.86
401.333	9.02
401.54	8.91
401.748	9.01
401.955	9.29
402.162	9.19
402.369	9.26
402.576	9.1
402.783	9.05
402.99	9
403.197	8.82
403.404	8.44
403.611	8.4
403.818	8.52
404.025	8.44
404.232	8.22
404.439	8.5
404.646	8.49
404.853	8.44
405.06	8.58
405.267	8.47
405.474	8.7
405.681	8.58
405.887	8.5
406.094	8.55
406.301	8.51
406.508	8.56
406.715	8.5
406.922	8.54
407.128	8.58
407.335	8.51
407.542	8.47
407.749	8.48
407.955	8.93
408.162	8.77
408.369	8.88
408.575	8.81
408.782	8.55
408.989	8.35
409.195	8.3
409.402	8.26
409.609	8.53
409.815	8.52
410.022	8.52
410.228	8.05
410.435	8.18
410.642	7.74
410.848	8.09
411.055	8.26
411.261	8.42
411.468	8.54
411.674	8.2
411.881	7.99
412.087	8.32
412.294	8.26
412.5	8.25
412.706	8.24
412.913	8.43
413.119	8.03
413.326	8.01
413.532	8.08
413.738	7.84
413.945	8.23
414.151	8.01
414.357	7.86
414.564	7.77
414.77	7.98
414.976	7.94
415.182	8.23
415.389	8.36
415.595	8.23
415.801	8.06
416.007	8.02
416.214	7.93
416.42	8.1
416.626	7.87
416.832	7.89
417.038	7.95
417.244	8.05
417.45	7.66
417.657	7.75
417.863	7.92
418.069	7.92
418.275	8.08
418.481	7.98
418.687	7.94
418.893	7.96
419.099	7.93
419.305	7.94
419.511	8.02
419.717	8.2
419.923	8.06
420.129	7.96
420.335	7.91
420.541	7.88
420.746	7.93
420.952	7.96
421.158	7.97
421.364	8
421.57	8.04
421.776	7.81
421.982	7.74
422.187	7.62
422.393	7.64
422.599	7.58
422.805	7.52
423.01	7.41
423.216	7.25
423.422	7.17
423.628	7.22
423.833	7.14
424.039	7.26
424.245	7.24
424.45	7.51
424.656	7.54
424.862	7.6
425.067	7.61
425.273	7.7
425.478	7.85
425.684	7.9
425.889	7.98
426.095	8.08
426.301	8.06
426.506	8.08
426.712	8.03
426.917	7.88
427.123	8.09
427.328	8.11
427.533	8.09
427.739	8.21
427.944	8.39
428.15	8.08
428.355	8
428.561	7.94
428.766	7.95
428.971	7.94
429.177	8.33
429.382	8.27
429.587	8.31
429.793	8.41
429.998	8.21
430.203	8.15
430.408	8.27
430.614	8.27
430.819	8.44
431.024	8.54
431.229	8.38
431.434	8.24
431.64	7.95
431.845	8.03
432.05	7.97
432.255	8.02
432.46	7.94
432.665	7.81
432.87	7.77
433.076	7.66
433.281	7.8
433.486	7.77
433.691	7.52
433.896	7.43
434.101	7.29
434.306	7.35
434.511	7.35
434.716	7.42
434.921	7.6
435.126	7.54
435.331	7.53
435.535	7.26
435.74	7.32
435.945	7.56
436.15	7.75
436.355	7.67
436.56	7.66
436.765	7.7
436.97	7.54
437.174	7.44
437.379	7.47
437.584	7.61
437.789	7.72
437.993	7.69
438.198	7.71
438.403	7.76
438.608	7.98
438.812	7.77
439.017	7.77
439.222	7.79
439.426	7.82
439.631	7.89
439.836	7.71
440.04	7.79
440.245	7.81
440.45	7.83
440.654	7.7
440.859	7.64
441.063	7.73
441.268	7.58
441.472	7.71
441.677	7.79
441.881	7.66
442.086	7.76
442.29	7.67
442.495	7.63
442.699	7.64
442.904	7.72
443.108	7.72
443.312	7.71
443.517	7.8
443.721	7.71
443.925	7.67
444.13	7.75
444.334	7.69
444.538	7.54
444.743	7.55
444.947	7.37
445.151	7.38
445.356	7.25
445.56	7.31
445.764	7.34
445.968	7.41
446.173	7.36
446.377	7.41
446.581	7.34
446.785	7.32
446.989	7.31
447.193	7.35
447.398	7.33
447.602	7.4
447.806	7.5
448.01	7.66
448.214	7.71
448.418	7.73
448.622	7.77
448.826	7.89
449.03	8
449.234	8.03
449.438	8.09
449.642	8.18
449.846	8.13
450.05	8.01
450.254	7.75
450.458	7.73
450.662	7.68
450.866	7.48
451.069	7.44
451.273	7.54
451.477	7.54
451.681	7.61
451.885	7.49
452.089	7.64
452.292	7.71
452.496	7.77
452.7	7.74
452.904	7.72
453.107	7.74
453.311	7.87
453.515	7.83
453.719	7.78
453.922	7.82
454.126	7.87
454.33	7.78
454.533	7.57
454.737	7.45
454.94	7.34
455.144	7.48
455.348	7.63
455.551	7.54
455.755	7.35
455.958	7.51
456.162	7.33
456.365	7.42
456.569	7.36
456.772	7.52
456.976	7.63
457.179	7.72
457.383	7.61
457.586	7.69
457.79	7.69
457.993	7.75
458.196	7.59
458.4	7.6
458.603	7.48
458.807	7.63
459.01	7.69
459.213	7.68
459.417	7.58
459.62	7.58
459.823	7.39
460.026	7.28
460.23	7.39
460.433	7.43
460.636	7.54
460.839	7.65
461.042	7.71
461.246	7.76
461.449	7.68
461.652	7.79
461.855	7.82
462.058	8
462.261	8
462.464	8.03
462.668	8.29
462.871	8.29
463.074	8.38
463.277	8.06
463.48	8.02
463.683	8.09
463.886	8.14
464.089	8.08
464.292	8.03
464.495	8.13
464.698	7.95
464.901	7.58
465.104	7.45
465.306	7.23
465.509	7.38
465.712	7.27
465.915	7.19
466.118	7.08
466.321	7.08
466.524	7.14
466.726	7.21
466.929	7.38
467.132	7.55
467.335	7.51
467.538	7.42
467.74	7.32
467.943	7.51
468.146	7.68
468.348	7.66
468.551	7.82
468.754	7.7
468.956	7.69
469.159	7.56
469.362	7.44
469.564	7.49
469.767	7.54
469.969	7.48
470.172	7.18
470.375	7.18
470.577	7.18
470.78	6.98
470.982	7.05
471.185	7.02
471.387	7.16
471.59	7.18
471.792	7.29
471.995	7.38
472.197	7.49
472.399	7.5
472.602	7.43
472.804	7.32
473.007	7.3
473.209	7.17
473.411	7.06
473.614	7.03
473.816	7.11
474.018	7.07
474.22	7.21
474.423	7.3
474.625	7.46
474.827	7.57
475.03	7.81
475.232	8.01
475.434	8.05
475.636	8.14
475.838	8.15
476.04	8.13
476.243	7.99
476.445	7.94
476.647	7.86
476.849	7.78
477.051	7.6
477.253	7.45
477.455	7.4
477.657	7.38
477.859	7.45
478.061	7.26
478.263	7.19
478.465	7.26
478.667	7.14
478.869	7.17
479.071	7.09
479.273	7.22
479.475	7.17
479.677	7.12
479.879	7.1
480.081	7.07
480.283	7.1
480.485	7.1
480.686	7.09
480.888	7.16
481.09	7.17
481.292	7.14
481.494	7.1
481.695	7.15
481.897	6.97
482.099	6.94
482.301	6.87
482.502	6.91
482.704	6.91
482.906	6.86
483.107	6.79
483.309	6.78
483.511	6.82
483.712	6.76
483.914	6.68
484.115	6.72
484.317	6.71
484.519	6.69
484.72	6.71
484.922	6.68
485.123	6.73
485.325	6.77
485.526	6.79
485.728	6.74
485.929	6.79
486.131	6.86
486.332	6.92
486.534	6.91
486.735	7
486.936	6.89
487.138	6.94
487.339	6.82
487.541	6.8
487.742	6.76
487.943	6.84
488.144	6.83
488.346	6.81
488.547	6.77
488.748	6.83
488.95	6.77
489.151	6.88
489.352	6.91
489.553	6.94
489.755	6.95
489.956	6.99
490.157	6.93
490.358	6.95
490.559	7.06
490.76	7
490.961	6.95
491.163	7.02
491.364	6.97
491.565	6.87
491.766	6.9
491.967	6.88
492.168	6.8
492.369	6.85
492.57	6.78
492.771	6.77
492.972	6.85
493.173	6.88
493.374	6.83
493.575	6.91
493.776	7.05
493.976	7.11
494.177	7.26
494.378	7.4
494.579	7.41
494.78	7.77
494.981	7.72
495.182	7.66
495.382	7.64
495.583	7.68
495.784	7.57
495.985	7.56
496.185	7.59
496.386	7.41
496.587	7.5
496.788	7.39
496.988	7.23
497.189	7.28
497.39	7.34
497.59	7.36
497.791	7.34
497.992	7.42
498.192	7.35
498.393	7.44
498.593	7.52
498.794	7.35
498.994	7.46
499.195	7.42
499.395	7.46
499.596	7.53
499.796	7.51
499.997	7.45
500.197	7.52
500.398	7.56
500.598	7.45
500.799	7.52
500.999	7.7
501.199	7.66
501.4	7.64
501.6	7.59
501.801	7.55
502.001	7.59
502.201	7.75
502.402	7.7
502.602	7.64
502.802	7.68
503.002	7.53
503.203	7.53
503.403	7.49
503.603	7.49
503.803	7.42
504.003	7.4
504.204	7.42
504.404	7.34
504.604	7.31
504.804	7.36
505.004	7.32
505.204	7.38
505.404	7.37
505.604	7.53
505.804	7.4
506.005	7.5
506.205	7.51
506.405	7.51
506.605	7.66
506.805	7.67
507.005	7.66
507.204	7.65
507.404	7.65
507.604	7.64
507.804	7.52
508.004	7.61
508.204	7.55
508.404	7.59
508.604	7.57
508.804	7.52
509.003	7.47
509.203	7.54
509.403	7.59
509.603	7.58
509.803	7.62
510.002	7.72
510.202	7.71
510.402	7.64
510.602	7.64
510.801	7.81
511.001	7.85
511.201	7.84
511.4	7.84
511.6	7.84
511.8	7.89
511.999	7.95
512.199	7.92
512.398	8.04
512.598	8.24
512.797	8.28
512.997	8.25
513.197	8.3
513.396	8.48
513.596	8.53
513.795	8.58
513.994	8.59
514.194	8.43
514.393	8.42
514.593	8.44
514.792	8.42
514.992	8.37
515.191	8.25
515.39	8.17
515.59	8.03
515.789	8.01
515.988	7.91
516.188	8.01
516.387	8.12
516.586	8.03
516.786	8.04
516.985	8.02
517.184	8.05
517.383	8.07
517.582	8.08
517.782	8.23
517.981	8.19
518.18	8.22
518.379	8.13
518.578	8
518.777	8.14
518.976	8.03
519.176	8.11
519.375	8.09
519.574	8.14
519.773	8.17
519.972	8.03
520.171	7.94
520.37	7.99
520.569	8.01
520.768	8.1
520.967	8.08
521.166	8.25
521.365	8.15
521.564	8.22
521.762	8.28
521.961	8.32
522.16	8.44
522.359	8.46
522.558	8.45
522.757	8.45
522.956	8.47
523.154	8.41
523.353	8.42
523.552	8.44
523.751	8.61
523.949	8.51
524.148	8.49
524.347	8.5
524.546	8.62
524.744	8.47
524.943	8.59
525.142	8.57
525.34	8.63
525.539	8.67
525.737	8.71
525.936	8.54
526.135	8.46
526.333	8.34
526.532	8.3
526.73	8.28
526.929	8.34
527.127	8.24
527.326	8.19
527.524	8.15
527.723	8.1
527.921	8.1
528.12	8.16
528.318	8.21
528.516	8.27
528.715	8.25
528.913	8.27
529.112	8.27
529.31	8.28
529.508	8.32
529.707	8.34
529.905	8.36
530.103	8.37
530.301	8.33
530.5	8.36
530.698	8.39
530.896	8.48
531.094	8.57
531.293	8.66
531.491	8.8
531.689	8.86
531.887	8.98
532.085	9.02
532.283	8.96
532.481	9.05
532.68	9.01
532.878	9.02
533.076	9
533.274	8.91
533.472	8.94
533.67	8.9
533.868	8.95
534.066	8.93
534.264	8.87
534.462	8.92
534.66	8.9
534.858	9.03
535.056	9.03
535.253	9.03
535.451	9.15
535.649	9.18
535.847	9.37
536.045	9.31
536.243	9.32
536.441	9.6
536.638	9.71
536.836	9.79
537.034	9.75
537.232	9.89
537.43	9.99
537.627	10.05
537.825	10.07
538.023	9.98
538.22	10.12
538.418	10.23
538.616	10.08
538.813	10.17
539.011	10.33
539.209	10.35
539.406	10.29
539.604	10.46
539.801	10.51
539.999	10.46
540.196	10.48
540.394	10.55
540.591	10.55
540.789	10.53
540.986	10.44
541.184	10.47
541.381	10.52
541.579	10.52
541.776	10.48
541.974	10.46
542.171	10.52
542.368	10.55
542.566	10.49
542.763	10.56
542.96	10.57
543.158	10.71
543.355	10.65
543.552	10.72
543.75	10.82
543.947	10.72
544.144	10.69
544.341	10.78
544.539	10.91
544.736	11.04
544.933	10.96
545.13	11.09
545.327	11
545.524	11.06
545.722	11.21
545.919	11.26
546.116	11.53
546.313	11.7
546.51	11.79
546.707	11.75
546.904	11.84
547.101	12.03
547.298	12.1
547.495	12.21
547.692	12.2
547.889	12.04
548.086	12.16
548.283	12.11
548.48	12.15
548.677	12.14
548.874	12.32
549.07	12.38
549.267	12.5
549.464	12.53
549.661	12.73
549.858	13.1
550.055	13.4
550.251	13.51
550.448	13.67
550.645	13.77
550.842	13.79
551.038	13.84
551.235	13.85
551.432	13.66
551.628	13.78
551.825	13.77
552.022	13.73
552.218	13.78
552.415	13.78
552.612	13.86
552.808	13.9
553.005	14
553.201	14.01
553.398	14.12
553.594	14.31
553.791	14.44
553.987	14.61
554.184	14.76
554.38	14.78
554.577	14.85
554.773	14.99
554.97	15.16
555.166	15.31
555.362	15.39
555.559	15.57
555.755	15.64
555.952	15.77
556.148	16
556.344	15.94
556.541	15.98
556.737	16.17
556.933	16.29
557.129	16.25
557.326	16.38
557.522	16.6
557.718	16.69
557.914	16.84
558.11	16.96
558.307	16.77
558.503	16.85
558.699	16.95
558.895	17.15
559.091	17.13
559.287	17.35
559.483	17.37
559.679	17.4
559.876	17.42
560.072	17.51
560.268	17.51
560.464	17.64
560.66	17.82
560.856	18.17
561.052	18.01
561.247	18.12
561.443	18.2
561.639	18.27
561.835	18.31
562.031	18.3
562.227	18.37
562.423	18.5
562.619	18.64
562.815	18.73
563.01	18.75
563.206	18.97
563.402	19.02
563.598	19.06
563.793	19.19
563.989	19.32
564.185	19.49
564.381	19.68
564.576	19.64
564.772	19.63
564.968	19.61
565.163	19.49
565.359	19.36
565.555	19.35
565.75	19.55
565.946	19.58
566.141	19.5
566.337	19.61
566.532	19.61
566.728	19.72
566.923	19.7
567.119	19.78
567.314	19.82
567.51	20.08
567.705	20.3
567.901	20.18
568.096	20.24
568.292	20.42
568.487	20.42
568.682	20.59
568.878	20.58
569.073	20.89
569.268	21.14
569.464	21.37
569.659	21.45
569.854	21.5
570.05	21.61
570.245	21.7
570.44	21.83
570.635	21.87
570.831	21.66
571.026	21.91
571.221	21.82
571.416	21.6
571.611	21.65
571.806	21.72
572.002	21.72
572.197	21.9
572.392	21.78
572.587	21.9
572.782	22.12
572.977	22.39
573.172	22.35
573.367	22.49
573.562	22.7
573.757	22.68
573.952	22.8
574.147	23.08
574.342	23.17
574.537	23.42
574.732	23.29
574.927	23.26
575.121	23.3
575.316	23.4
575.511	23.37
575.706	23.44
575.901	23.45
576.096	23.35
576.29	23.3
576.485	23.26
576.68	23.6
576.875	23.66
577.069	23.72
577.264	23.76
577.459	23.93
577.654	23.94
577.848	23.98
578.043	24.21
578.238	24.4
578.432	24.32
578.627	24.36
578.821	24.34
579.016	24.52
579.21	24.7
579.405	24.71
579.6	24.7
579.794	24.94
579.989	25.05
580.183	25.38
580.378	25.45
580.572	25.67
580.766	25.76
580.961	25.76
581.155	25.86
581.35	25.71
581.544	25.77
581.738	25.8
581.933	25.85
582.127	26.23
582.321	26.13
582.516	26.05
582.71	25.87
582.904	25.94
583.099	25.7
583.293	25.63
583.487	25.79
583.681	25.9
583.875	26.05
584.07	26.29
584.264	25.88
584.458	25.86
584.652	25.83
584.846	25.86
585.04	26
585.234	26.01
585.428	26.14
585.623	26.17
585.817	26.1
586.011	26.21
586.205	26.21
586.399	26.49
586.593	26.59
586.787	26.89
586.981	27.03
587.174	26.95
587.368	27.18
587.562	27.21
587.756	27.15
587.95	27.35
588.144	27.2
588.338	27.11
588.532	27.04
588.725	27
588.919	26.99
589.113	27.06
589.307	27.31
589.501	27.17
589.694	27.17
589.888	27.24
590.082	27.16
590.275	27.2
590.469	27.27
590.663	27.05
590.856	27.14
591.05	27.06
591.244	27.18
591.437	27.37
591.631	27.7
591.824	27.9
592.018	28.03
592.212	28.21
592.405	28.11
592.599	28.26
592.792	28.53
592.986	28.6
593.179	28.83
593.372	28.85
593.566	28.54
593.759	28.44
593.953	28.36
594.146	28.38
594.339	28.51
594.533	28.79
594.726	28.77
594.92	28.77
595.113	28.78
595.306	28.51
595.499	28.46
595.693	28.59
595.886	28.69
596.079	28.68
596.272	28.7
596.466	28.52
596.659	28.47
596.852	28.49
597.045	28.68
597.238	28.56
597.431	28.65
597.624	28.62
597.818	28.7
598.011	28.69
598.204	28.85
598.397	28.98
598.59	29.07
598.783	29.1
598.976	28.94
599.169	28.91
599.362	29.11
599.555	29.38
599.748	29.68
599.941	29.54
600.134	29.35
600.326	29.49
600.519	29.41
600.712	29.19
600.905	29.31
601.098	29.65
601.291	29.69
601.483	29.65
601.676	29.61
601.869	29.55
602.062	29.67
602.255	30.02
602.447	30.05
602.64	30.04
602.833	30.43
603.025	30.3
603.218	30.26
603.411	30.31
603.603	30.21
603.796	30.19
603.989	30.31
604.181	30.33
604.374	30.29
604.566	30.12
604.759	30.19
604.951	30.1
605.144	30.11
605.336	30.1
605.529	30.13
605.721	30.22
605.914	30.16
606.106	30.14
606.299	30.14
606.491	30.17
606.683	30.27
606.876	30.27
607.068	30.45
607.26	30.77
607.453	30.78
607.645	30.65
607.837	30.83
608.03	31.14
608.222	30.93
608.414	31.05
608.606	31.14
608.799	31.18
608.991	31.16
609.183	31.24
609.375	31.18
609.567	31.23
609.759	31.36
609.952	31.16
610.144	31.06
610.336	31.31
610.528	31.15
610.72	31.09
610.912	31.14
611.104	31.35
611.296	31.2
611.488	31.25
611.68	31.28
611.872	31.22
612.064	31.44
612.256	31.43
612.448	31.55
612.64	31.52
612.832	31.58
613.023	31.5
613.215	31.29
613.407	31.32
613.599	31.32
613.791	31.38
613.983	31.62
614.174	31.72
614.366	31.99
614.558	31.95
614.75	32.22
614.941	32.28
615.133	32.54
615.325	32.79
615.516	32.82
615.708	32.71
615.9	32.55
616.091	32.57
616.283	32.35
616.475	32.22
616.666	32.14
616.858	32.29
617.049	32.22
617.241	32.11
617.432	31.92
617.624	32
617.815	32.01
618.007	32.08
618.198	32.08
618.39	32.21
618.581	32.17
618.773	32.51
618.964	32.44
619.155	32.61
619.347	32.74
619.538	32.87
619.729	33.04
619.921	33.08
620.112	33.24
620.303	33.56
620.494	33.73
620.686	33.72
620.877	33.36
621.068	33.31
621.259	33.21
621.451	33
621.642	32.82
621.833	32.7
622.024	32.97
622.215	33.05
622.406	32.85
622.597	32.78
622.788	32.85
622.98	33.07
623.171	33.07
623.362	33.23
623.553	33.33
623.744	33.4
623.935	33.43
624.126	33.25
624.317	33.23
624.508	32.92
624.698	32.94
624.889	32.76
625.08	32.96
625.271	33.14
625.462	32.96
625.653	32.98
625.844	33
626.034	33.1
626.225	33.02
626.416	32.91
626.607	33.03
626.798	33.14
626.988	33.52
627.179	33.25
627.37	33.08
627.56	33.25
627.751	33.29
627.942	33.3
628.132	33.1
628.323	33.39
628.514	33.5
628.704	33.48
628.895	33.44
629.085	33.07
629.276	33.19
629.466	33.28
629.657	33.29
629.847	33.37
630.038	33.44
630.228	33.53
630.419	33.3
630.609	33.39
630.8	33.5
630.99	33.45
631.181	33.92
631.371	33.92
631.561	34
631.752	34.18
631.942	34.14
632.132	34.47
632.323	34.71
632.513	34.99
632.703	35
632.893	34.85
633.084	34.79
633.274	34.43
633.464	34.5
633.654	34.59
633.844	34.45
634.034	34.51
634.225	34.43
634.415	34.36
634.605	34.42
634.795	34.32
634.985	34.64
635.175	34.57
635.365	34.6
635.555	34.72
635.745	34.58
635.935	34.6
636.125	34.39
636.315	34.3
636.505	34.19
636.695	34.06
636.885	34.06
637.075	33.98
637.265	34.49
637.455	34.66
637.644	34.62
637.834	34.9
638.024	34.87
638.214	35.16
638.404	35.19
638.593	35.59
638.783	35.61
638.973	35.96
639.163	35.74
639.352	35.37
639.542	35.71
639.732	35.86
639.921	35.95
640.111	36.17
640.301	35.82
640.49	35.83
640.68	35.77
640.87	35.76
641.059	35.32
641.249	35.69
641.438	35.99
641.628	35.73
641.817	35.76
642.007	35.56
642.196	35.17
642.386	35.45
642.575	35.77
642.764	35.18
642.954	34.86
643.143	35.41
643.333	35.53
643.522	35.07
643.711	35.02
643.901	34.67
644.09	34.64
644.279	34.97
644.469	34.92
644.658	34.87
644.847	35.2
645.036	35.65
645.226	35.48
645.415	35.13
645.604	35.45
645.793	35.37
645.982	35.24
646.171	35.1
646.361	35.37
646.55	35.9
646.739	35.42
646.928	35.57
647.117	35.46
647.306	35.39
647.495	35.56
647.684	35.66
647.873	35.91
648.062	36.32
648.251	36.61
648.44	36.24
648.629	36.09
648.818	36.4
649.007	36.25
649.196	36.27
649.384	36.03
649.573	35.98
649.762	35.87
649.951	35.77
650.14	35.77
650.328	35.79
650.517	36.17
650.706	36.01
650.895	36.28
651.083	36.38
651.272	36.45
651.461	36.78
651.65	37.53
651.838	38.02
652.027	38.1
652.216	37.75
652.404	37.92
652.593	38.02
652.781	38.06
652.97	37.89
653.158	38.32
653.347	38.61
653.535	38.26
653.724	37.3
653.912	36.95
654.101	37.09
654.289	37.38
654.478	37.38
654.666	37.1
654.855	37.08
655.043	36.94
655.231	36.82
655.42	36.6
655.608	37.06
655.796	37.28
655.985	37.3
656.173	37.34
656.361	36.98
656.55	36.81
656.738	36.64
656.926	36.86
657.114	36.89
657.302	36.57
657.491	36.34
657.679	36.07
657.867	36.06
658.055	35.79
658.243	35.58
658.431	35.95
658.619	36
658.807	36.1
658.996	36
659.184	36.09
659.372	36.3
659.56	36.39
659.748	36.49
659.936	36.88
660.124	37.11
660.311	37.48
660.499	37.45
660.687	37.48
660.875	37.56
661.063	37.56
661.251	37.29
661.439	37.01
661.627	37.13
661.814	37.23
662.002	36.74
662.19	36.46
662.378	36.27
662.565	36.75
662.753	36.61
662.941	36.99
663.129	37.14
663.316	37.69
663.504	37.95
663.692	38.03
663.879	38.12
664.067	38.47
664.254	39.02
664.442	38.61
664.63	38.18
664.817	38.49
665.005	38.05
665.192	38.14
665.38	38.13
665.567	38.16
665.755	38.33
665.942	38.37
666.13	38.62
666.317	38.52
666.504	38.62
666.692	38.71
666.879	38.52
667.067	38.51
667.254	38.29
667.441	37.75
667.629	37.71
667.816	37.32
668.003	37.21
668.19	36.83
668.378	36.22
668.565	36.3
668.752	35.9
668.939	35.9
669.127	35.89
669.314	36.08
669.501	36.84
669.688	36.99
669.875	37.49
670.062	37.76
670.249	38.2
670.436	38.57
670.623	38.55
670.81	38.88
670.997	38.8
671.184	39.07
671.371	39.16
671.558	38.8
671.745	39.08
671.932	38.58
672.119	38.13
672.306	37.67
672.493	37.89
672.68	38.16
672.867	38.61
673.054	38.7
673.24	38.65
673.427	39.09
673.614	39.27
673.801	39.36
673.988	40.13
674.174	40.66
674.361	40.89
674.548	40.7
674.734	40.75
674.921	40.12
675.108	40.53
675.294	40.02
675.481	39.31
675.668	39.52
675.854	39.32
676.041	38.86
676.227	38.51
676.414	38.79
676.601	39.6
676.787	39.59
676.974	39.85
677.16	39.61
677.347	39.77
677.533	40.03
677.719	39.57
677.906	39.28
678.092	39.37
678.279	39.18
678.465	38.81
678.651	38.18
678.838	38.12
679.024	38.32
679.21	38.03
679.397	38.27
679.583	37.92
679.769	37.75
679.955	37.72
680.142	37.77
680.328	38.25
680.514	38.18
680.7	38.29
680.886	38.69
681.073	38.8
681.259	38.88
681.445	39.19
681.631	39.05
681.817	39.37
682.003	39.39
682.189	39.16
682.375	39.03
682.561	39.06
682.747	39.46
682.933	38.93
683.119	38.43
683.305	38.66
683.491	38.49
683.677	38.46
683.863	38.66
684.049	38.76
684.235	38.92
684.42	38.74
684.606	38.95
684.792	38.87
684.978	39.08
685.164	39.73
685.349	39.66
685.535	39.75
685.721	39.94
685.907	39.56
686.092	39.61
686.278	39.98
686.464	39.89
686.649	40.02
686.835	39.54
687.021	39.74
687.206	39.55
687.392	39.29
687.577	38.8
687.763	39.1
687.948	38.93
688.134	38.68
688.319	38.53
688.505	38.71
688.69	38.82
688.876	38.96
689.061	38.96
689.247	39.14
689.432	39.38
689.618	39.43
689.803	39.7
689.988	40.11
690.174	40.43
690.359	40.19
690.544	40.37
690.73	40.04
690.915	40.07
691.1	39.81
691.285	39.54
691.471	39.87
691.656	40.29
691.841	39.87
692.026	39.97
692.211	40.29
692.396	40.68
692.582	40.75
692.767	41.03
692.952	41.12
693.137	41.1
693.322	41.12
693.507	40.79
693.692	41.04
693.877	41.19
694.062	41.41
694.247	41.42
694.432	41.64
694.617	41.98
694.802	42.28
694.987	42.75
695.172	42.85
695.357	43.33
695.541	43.46
695.726	43.57
695.911	44.17
696.096	43.79
696.281	43.87
696.466	43.14
696.65	42.45
696.835	42.05
697.02	41.36
697.204	40.99
697.389	40.37
697.574	40.13
697.759	39.63
697.943	39.06
698.128	39.2
698.312	38.86
698.497	38.74
698.682	38.81
698.866	38.67
699.051	38.64
699.235	38.69
699.42	38.71
699.604	38.84
699.789	38.8
699.973	38.81
700.158	38.84
700.342	39.03
700.527	39.4
700.711	39.69
700.895	40.05
701.08	40.71
701.264	41.18
701.448	41.36
701.633	41.71
701.817	41.7
702.001	42.14
702.186	42.17
702.37	42.29
702.554	42.31
702.738	42.01
702.923	41.55
703.107	41.28
703.291	41.22
703.475	41.24
703.659	41.04
703.843	41.03
704.027	41.15
704.212	40.97
704.396	40.78
704.58	40.66
704.764	40.68
704.948	40.65
705.132	40.6
705.316	40.68
705.5	41.52
705.684	41.94
705.868	41.63
706.052	41.08
706.235	40.92
706.419	40.84
706.603	40.7
706.787	40.63
706.971	41.26
707.155	41.17
707.339	41.46
707.522	40.71
707.706	40.42
707.89	41.13
708.074	41.56
708.257	41.88
708.441	42.27
708.625	42.77
708.808	43.59
708.992	43.48
709.176	43.24
709.359	43.01
709.543	42.84
709.727	42.72
709.91	42.72
710.094	42.69
710.277	43.02
710.461	42.62
710.644	42.3
710.828	41.92
711.011	42.15
711.195	42.67
711.378	42.98
711.562	42.59
711.745	42.42
711.928	42.21
712.112	42.02
712.295	41.73
712.478	42
712.662	42.44
712.845	42.23
713.028	41.64
713.212	41.19
713.395	40.8
713.578	41.89
713.761	41.49
713.945	41.62
714.128	41.71
714.311	41.57
714.494	41.1
714.677	40.54
714.86	39.92
715.043	40.54
715.227	40.67
715.41	40.57
715.593	40.12
715.776	40.88
715.959	40.72
716.142	40.95
716.325	40.82
716.508	41.33
716.691	42.04
716.874	42.32
717.057	42.32
717.239	42.1
717.422	42.44
717.605	42.28
717.788	42.24
717.971	42.77
718.154	42.45
718.337	42.68
718.519	42.64
718.702	42.35
718.885	43.11
719.068	42.54
719.25	43.48
719.433	42.95
719.616	43.22
719.798	42.26
719.981	42.68
720.164	42.87
720.346	43.14
720.529	43.99
720.712	44.44
720.894	44.15
721.077	44.71
721.259	44.31
721.442	45.61
721.624	45.97
721.807	47.08
721.989	46.13
722.172	46.55
722.354	46.84
722.537	46.85
722.719	46.21
722.901	47.21
723.084	47.07
723.266	47.01
723.448	46.72
723.631	46.43
723.813	46.67
723.995	46.72
724.178	46.75
724.36	46.48
724.542	45.01
724.724	45.37
724.907	45.26
725.089	44.72
725.271	44.9
725.453	43.96
725.635	43.78
725.817	43.68
725.999	44.14
726.181	43.65
726.364	43.06
726.546	44.07
726.728	43.71
726.91	42.39
727.092	42.88
727.274	42.69
727.456	42.88
727.638	42.42
727.819	41.77
728.001	41.97
728.183	42.67
728.365	42.55
728.547	42.13
728.729	42.49
728.911	43.4
729.093	43.45
729.274	42.79
729.456	43.05
729.638	43.7
729.82	43.71
730.001	43.33
730.183	42.56
730.365	43.32
730.546	43.62
730.728	43.35
730.91	42.77
731.091	42.68
731.273	42.73
731.455	42.02
731.636	42.55
731.818	42.63
731.999	43.01
732.181	43.42
732.362	42.99
732.544	43.31
732.725	43.47
732.907	43.58
733.088	43.76
733.27	44.52
733.451	44.84
733.633	45.22
733.814	45.11
733.995	45.11
734.177	45.42
734.358	45.65
734.539	45.35
734.721	45.41
734.902	45.73
735.083	45.1
735.264	45.46
735.446	46.38
735.627	44.64
735.808	45.14
735.989	44.83
736.17	44.51
736.351	44.22
736.533	43.75
736.714	42.71
736.895	41.96
737.076	42.46
737.257	42.46
737.438	41.9
737.619	43.11
737.8	42.99
737.981	42.69
738.162	43.16
738.343	43.83
738.524	43.7
738.705	44.63
738.886	45.03
739.067	45.35
739.247	44.43
739.428	44.24
739.609	43.8
739.79	44.47
739.971	43.75
740.151	43.15
740.332	42.94
740.513	42.85
740.694	43.47
740.874	43.88
741.055	43.59
741.236	44.2
741.417	44.73
741.597	44.66
741.778	44.63
741.958	45.43
742.139	45.72
742.32	46.39
742.5	47.1
742.681	47.36
742.861	46.59
743.042	46.6
743.222	46.15
743.403	45.95
743.583	45.54
743.764	45.16
743.944	46.39
744.124	46.37
744.305	45.17
744.485	45.47
744.666	44.57
744.846	45.24
745.026	45.88
745.207	46.29
745.387	46.31
745.567	46.93
745.747	47.08
745.928	45.82
746.108	46.13
746.288	46.82
746.468	46.21
746.648	46.22
746.829	46.52
747.009	45.39
747.189	45.04
747.369	44.83
747.549	44.82
747.729	45
747.909	45.37
748.089	45.2
748.269	44.91
748.449	45.56
748.629	45.94
748.809	45.51
748.989	46.88
749.169	48.12
749.349	48.43
749.529	48.87
749.709	47.87
749.889	48.81
750.068	48.21
750.248	48.44
750.428	48.68
750.608	47.76
750.788	47.69
750.967	46.95
751.147	46.03
751.327	45.54
751.507	45.7
751.686	46.63
751.866	46.02
752.046	46.61
752.225	46.65
752.405	46.65
752.585	47.09
752.764	47.57
752.944	47.47
753.123	47.29
753.303	47.85
753.482	47.18
753.662	46.67
753.841	47.15
754.021	47.07
754.2	47.51
754.38	46.89
754.559	46.23
754.739	45.74
754.918	46.14
755.097	46.79
755.277	47.2
755.456	47.59
755.635	48.21
755.815	47.39
755.994	47.48
756.173	47.14
756.352	45.84
756.532	46.46
756.711	46.33
756.89	45.28
757.069	45.87
757.248	44.89
757.427	44.6
757.607	44.68
757.786	45.1
757.965	44.68
758.144	44.92
758.323	47.02
758.502	47.6
758.681	48.19
758.86	48.57
759.039	47.32
759.218	47.88
759.397	47.9
759.576	46.45
759.755	45.5
759.934	46.37
760.113	46.69
760.291	45.76
760.47	45.21
760.649	45.55
760.828	45.83
761.007	45.51
761.186	44.71
761.364	44.87
761.543	45.11
761.722	45.1
761.901	44.02
762.079	43.1
762.258	43.24
762.437	43.31
762.615	42.13
762.794	42.22
762.972	42.64
763.151	42.82
763.33	42.35
763.508	42.42
763.687	42.35
763.865	42.72
764.044	42.99
764.222	42.89
764.401	42.73
764.579	42.73
764.758	42.28
764.936	42.8
765.114	42.71
765.293	43.32
765.471	43.8
765.65	44.5
765.828	44.56
766.006	44.59
766.184	45.26
766.363	44.96
766.541	44.76
766.719	45.53
766.898	44.76
767.076	45.08
767.254	44.91
767.432	45.66
767.61	45.51
767.788	45.59
767.967	45.4
768.145	44.7
768.323	45.55
768.501	46.55
768.679	46.84
768.857	46.1
769.035	46.22
769.213	46.55
769.391	47.27
769.569	47.96
769.747	49.2
769.925	49.06
770.103	48.96
770.281	48.86
770.459	50.1
770.636	50.11
770.814	52.47
770.992	51.79
771.17	51.95
771.348	51.62
771.525	51.21
771.703	50.19
771.881	51.71
772.059	52.49
772.236	52.63
772.414	51.52
772.592	50.87
772.769	49.31
772.947	50.34
773.125	49.58
773.302	48.72
773.48	49.56
773.657	49.65
773.835	49.13
774.013	49.82
774.19	51.16
774.368	51.04
774.545	50.47
774.723	51.46
774.9	50.15
775.077	50.4
775.255	50.12
775.432	50.41
775.61	50.64
775.787	49.11
775.964	47.01
776.142	47.13
776.319	47.61
776.496	48.82
776.674	48.35
776.851	50.28
777.028	49.95
777.205	50.29
777.382	48.36
777.56	47.53
777.737	50.83
777.914	50.5
778.091	49.33
778.268	49.89
778.445	50.73
778.622	50.57
778.8	49.4
778.977	50.16
779.154	53.83
779.331	53.71
779.508	54.99
779.685	53.72
779.862	55.13
780.038	53.97
780.215	54.4
780.392	52.53
780.569	51.91
780.746	53.66
780.923	53.96
781.1	50.17
781.277	50.55
781.453	49.86
781.63	48.6
781.807	48.1
781.984	50.48
782.16	48.87
782.337	49.8
782.514	49.66
782.691	51.6
782.867	50.39
783.044	49.02
783.221	50.63
783.397	50.03
783.574	50.03
783.75	51.86
783.927	49.9
784.103	50.59
784.28	51.4
784.456	52.72
784.633	50.46
784.809	52.27
784.986	53.7
785.162	52.15
785.339	51.75
785.515	51.93
785.692	49.51
785.868	49.08
786.044	49.24
786.221	49.79
786.397	51.09
786.573	51.42
786.749	50.28
786.926	51.55
787.102	52.21
787.278	54.14
787.454	55.52
787.631	56.41
787.807	57.86
787.983	57.68
788.159	55.98
788.335	54.27
788.511	52.72
788.687	52.71
788.863	51.27
789.039	51.23
789.216	48.86
789.392	48.66
789.568	48.15
789.744	48.01
789.919	47.84
790.095	47.16
790.271	49.69
790.447	48.2
790.623	49.04
790.799	50.59
790.975	48.87
791.151	51.63
791.327	51.96
791.502	52.28
791.678	51.51
791.854	52.7
792.03	53.47
792.205	53.14
792.381	55.81
792.557	55.78
792.733	53.44
792.908	55.15
793.084	53.56
793.259	53.08
793.435	52.91
793.611	52.69
793.786	50.94
793.962	50.55
794.137	49.21
794.313	48.4
794.488	49.12
794.664	52.39
794.839	51.87
795.015	53.2
795.19	51.67
795.366	51.71
795.541	52.35
795.716	53.48
795.892	54.78
796.067	55.36
796.242	54.69
796.418	52.82
796.593	54.46
796.768	55.76
796.944	55.21
797.119	55.19
797.294	57.57
797.469	57.49
797.644	57.9
797.82	57.71
797.995	55.53
798.17	55.5
798.345	55.53
798.52	51.37
798.695	50.13
798.87	48.18
799.045	48.12
799.22	48.13
799.395	48.29
799.57	49.05
799.745	48.73
799.92	49.74
800.095	50.99
800.27	51.68
800.445	54.7
800.62	54.98
800.795	58.48
800.97	58.92
801.145	55.5
801.319	56.99
801.494	54.56
801.669	55.23
801.844	57.86
802.018	57.57
802.193	57.29
802.368	53.57
802.543	52.58
802.717	51.16
802.892	51.78
803.067	53.43
803.241	51.83
803.416	52.49
803.59	52.17
803.765	49.21
803.94	49.24
804.114	48.58
804.289	50.19
804.463	51.74
804.638	49.89
804.812	52.78
804.986	51.07
805.161	49.88
805.335	51.53
805.51	50.66
805.684	50.93
805.858	49.24
806.033	49.01
806.207	48.63
806.381	48.3
806.556	49.16
806.73	45.62
806.904	45.56
807.078	45.13
807.253	43.97
807.427	44.22
807.601	45.3
807.775	47.41
807.949	46.01
808.123	47.45
808.298	46.23
808.472	46.97
808.646	45.92
808.82	45.23
808.994	45.18
809.168	46.93
809.342	47.99
809.516	48.73
809.69	48.58
809.864	49.3
810.038	49.2
810.212	48.96
810.385	48.71
810.559	51.52
810.733	54.82
810.907	56.91
811.081	54.71
811.255	54.67
811.428	54.7
811.602	54.95
811.776	56.77
811.95	54.69
812.123	57.47
812.297	59.46
812.471	59.79
812.644	58.97
812.818	61.27
812.992	61.4
813.165	62.34
813.339	57.54
813.512	52.39
813.686	53.38
813.86	54.58
814.033	54.04
814.207	50.75
814.38	47.27
814.554	48.12
814.727	46
814.9	46.57
815.074	48.37
815.247	51.55
815.421	53.85
815.594	53.88
815.767	51.78
815.941	50.78
816.114	54.77
816.287	56.96
816.46	55.44
816.634	53.56
816.807	54.46
816.98	51.17
817.153	52.28
817.327	54.94
817.5	56.56
817.673	57.85
817.846	56.38
818.019	54.23
818.192	53.84
818.365	53.36
818.538	54.65
818.711	52.26
818.884	54.05
819.057	52.48
819.23	49.71
819.403	46.73
819.576	46.42
819.749	48.34
819.922	47.61
820.095	46.83
820.268	46.59
820.441	45.96
820.614	45.67
820.786	44.72
820.959	44.07
821.132	45.28
821.305	44.83
821.477	43.45
821.65	42.99
821.823	43.36
821.996	42.65
822.168	42.23
822.341	41.52
822.514	41.22
822.686	40.37
822.859	39.99
823.031	39.39
823.204	39.33
823.376	39.83
823.549	39.66
823.722	39.01
823.894	39.4
824.067	38.8
824.239	40
824.411	40.35
824.584	40.96
824.756	41.57
824.929	42.18
825.101	42.37
825.273	42.16
825.446	41.93
825.618	42.05
825.79	42.29
825.963	43.26
826.135	42.39
826.307	42.29
826.479	42.77
826.652	42.15
826.824	41.87
826.996	41.55
827.168	41.46
827.34	41.29
827.512	42.02
827.684	42.32
827.856	42.25
828.029	42.8
828.201	43.05
828.373	42.23
828.545	42.47
828.717	43.31
828.889	43.53
829.061	45.05
829.232	46.85
829.404	46.96
829.576	47.06
829.748	47.18
829.92	46.91
830.092	47.28
830.264	47.34
830.436	47.87
830.607	48.16
830.779	49.23
830.951	49.01
831.123	47.52
831.294	46.53
831.466	44.88
831.638	44.13
831.809	42.07
831.981	43.69
832.153	45.34
832.324	45.83
832.496	45.82
832.667	48.18
832.839	47.61
833.011	48.73
833.182	49.4
833.354	50.88
833.525	54.24
833.697	54.04
833.868	50.16
834.039	50.48
834.211	50.43
834.382	50.47
834.554	49.24
834.725	49.37
834.896	48.21
835.068	48.01
835.239	46.43
835.41	44.6
835.581	45.01
835.753	46.44
835.924	45.91
836.095	46.52
836.266	44.24
836.438	43.55
836.609	43.31
836.78	44.78
836.951	45.48
837.122	46.4
837.293	47.46
837.464	49.09
837.635	50.39
837.806	51.37
837.977	53.13
838.148	57.77
838.319	57.77
838.49	59.44
838.661	61.63
838.832	61.15
839.003	61
839.174	62.12
839.345	60.89
839.516	62.4
839.687	64.32
839.857	59.96
840.028	57.89
840.199	59.24
840.37	55.47
840.54	55.19
840.711	52.37
840.882	53.62
841.053	53.95
841.223	56.35
841.394	54.48
841.564	54.91
841.735	57.49
841.906	56.18
842.076	50.14
842.247	54.3
842.417	51.48
842.588	54.53
842.758	57.93
842.929	57.02
843.099	57.5
843.27	58.93
843.44	57.76
843.611	59.86
843.781	55.07
843.951	61.69
844.122	61.7
844.292	64.27
844.462	70.31
844.633	71.79
844.803	72.13
844.973	72.24
845.144	77.31
845.314	81.28
845.484	76.17
845.654	89.55
845.824	93.07
845.995	95.93
846.165	89.8
846.335	89.36
846.505	89.44
846.675	93.7
846.845	90.99
847.015	85.14
847.185	76.91
847.355	86.6
847.525	83.75
847.695	91.7
847.865	84.5
848.035	90.46
848.205	78.49
848.375	77.54
848.545	62.79
848.715	66.75
848.884	69.92
849.054	70.51
849.224	65.86
849.394	71.72
849.564	62.61
849.733	70.09
849.903	67.5
850.073	73.02
850.243	62.68
850.412	66.59
850.582	64.76
850.752	63.88
850.921	61.2
851.091	60.56
851.26	61.33
851.43	60.14
851.599	47.75
851.769	52.14
851.939	52.61
852.108	60.86
852.278	64.43
852.447	60.61
852.616	57.24
852.786	57.42
852.955	56.44
853.125	57.31
853.294	63.41
853.463	74.37
853.633	78.83
853.802	73.5
853.971	82.9
854.141	89.38
854.31	89.07
854.479	91.21
854.648	99.74
854.818	95.45
854.987	90.46
855.156	86.24
855.325	89.28
855.494	94.92
855.663	99.66
855.832	87.3
856.001	86.85
856.171	98.89
856.34	102.64
856.509	99.71
856.678	104.43
856.847	102.37
857.016	102.62
857.185	89.17
857.353	81.99
857.522	83.01
857.691	90.82
857.86	89.52
858.029	80.64
858.198	86.73
858.367	87.34
858.535	94.1
858.704	89.25
858.873	92.64
859.042	112.66
859.21	118.39
859.379	110.31
859.548	94.39
859.717	88.63
859.885	81.67
860.054	69.7
860.222	63.97
860.391	66.31
860.56	69.77
860.728	64.23
860.897	39.63
861.065	33.04
861.234	48.11
861.402	58.94
861.571	58.34
861.739	67.51
861.908	81.07
862.076	86.87
862.244	90.6
862.413	84.94
862.581	89.09
862.749	93.97
862.918	87.7
863.086	81.27
863.254	79.47
863.423	89.09
863.591	91.58
863.759	86.27
863.927	79.7
864.096	67
864.264	74.13
864.432	68.69
864.6	76.13
864.768	81.36
864.936	87.83
865.104	89.64
865.272	86.2
865.44	88.71
865.608	79.93
865.776	84.76
865.944	92.04
866.112	93.62
866.28	97
866.448	94.44
866.616	87.28
866.784	85.7
866.952	83.81
867.12	83.95
867.288	74.21
867.455	79.34
867.623	78.01
867.791	73.64
867.959	72
868.127	67.31
868.294	70.53
868.462	69.44
868.63	68.77
868.797	74.02
868.965	77.84
869.133	78.12
869.3	77.77
869.468	77.53
869.636	77.15
869.803	83.06
869.971	92
870.138	83.06
870.306	84.8
870.473	86.44
870.641	79.28
870.808	71.34
870.975	79.58
871.143	86.28
871.31	84.79
871.478	91.15
871.645	82.09
871.812	78.46
871.98	82.36
872.147	79.26
872.314	72.12
872.482	67.84
872.649	67.39
872.816	61.8
872.983	52.58
873.15	48.75
873.318	47.21
873.485	50.25
873.652	49.94
873.819	59.89
873.986	61.73
874.153	68.72
874.32	68.46
874.487	79.1
874.654	84.18
874.821	92.88
874.988	92.38
875.155	87.34
875.322	89.45
875.489	104.69
875.656	88.57
875.823	85.54
875.99	77
876.157	86.12
876.324	77.61
876.49	72.97
876.657	72.69
876.824	69.78
876.991	76.4
877.157	67.7
877.324	62.26
877.491	64.46
877.658	69.69
877.824	74.72
877.991	72.99
878.157	76.49
878.324	71.09
878.491	70.09
878.657	84.14
878.824	84.44
878.99	86.17
879.157	88.76
879.323	83.2
879.49	79.84
879.656	82.56
879.823	80.03
879.989	68.55
880.156	76.82
880.322	74.24
880.488	70.47
880.655	70.01
880.821	69.24
880.987	63.28
881.154	67.34
881.32	73.49
881.486	69.86
881.652	73.64
881.819	75.03
881.985	66.49
882.151	62.5
882.317	59.62
882.483	56.92
882.649	56.53
882.816	55.48
882.982	51.92
883.148	47.45
883.314	45.36
883.48	42.52
883.646	42.47
883.812	42.66
883.978	42.95
884.144	42.62
884.31	40.41
884.476	41.46
884.642	41.86
884.807	43.07
884.973	42.72
885.139	42.21
885.305	43.42
885.471	43.81
885.637	44.6
885.802	44.58
885.968	43.23
886.134	45.88
886.3	44.31
886.465	41.61
886.631	41.59
886.797	46.11
886.962	48.56
887.128	48.17
887.293	49.07
887.459	52.5
887.625	53.77
887.79	57.34
887.956	53.51
888.121	55.49
888.287	60.81
888.452	61.22
888.618	54.64
888.783	55.53
