Data from LC_168_Reflection_1.txt Node
Date: Mon Nov 16 23:07:00 EST 2015
User: robert
Spectrometer: USB4E03001
Autoset integration time: false
Trigger mode: 4
Integration Time (sec): 1.000000E-1
Scans to average: 15
Electric dark correction enabled: true
Nonlinearity correction enabled: false
Boxcar width: 5
Stray light correction enabled: false
XAxis mode: Wavelengths
Stop averaging: false
Number of Pixels in Spectrum: 3648
>>>>>Begin Spectral Data<<<<<
177.566	2789.16
177.785	161.39
178.005	-2007.56
178.225	36.4
178.445	57.65
178.665	-255.14
178.885	159.1
179.105	593.46
179.324	1492.52
179.544	-195.92
179.764	-947.29
179.984	-271.03
180.204	-197.94
180.423	-276.17
180.643	-290.02
180.863	-249.73
181.083	-220.83
181.302	-270.84
181.522	-225.82
181.742	-190.58
181.961	-351.54
182.181	-284.93
182.401	-427.94
182.621	-1788.82
182.84	-797.57
183.06	-456.76
183.279	-257.8
183.499	-226.1
183.719	-158.76
183.938	-131.17
184.158	-69.41
184.377	-47.68
184.597	-91.66
184.816	-59.37
185.036	-28.17
185.256	-17.12
185.475	-52.75
185.695	-67.66
185.914	-99.49
186.134	-320.6
186.353	-418.22
186.572	-762.72
186.792	-1307.36
187.011	-577.98
187.231	-516.57
187.45	-337.95
187.67	-930.91
187.889	-2492.25
188.108	4560.13
188.328	-1138.6
188.547	-350.25
188.766	-726.69
188.986	-892.22
189.205	-473.38
189.424	-342.31
189.644	-1013.82
189.863	-1024.4
190.082	-725.61
190.302	-1585.26
190.521	-1030.26
190.74	940.69
190.959	420.65
191.178	635.58
191.398	607.54
191.617	577.7
191.836	489.65
192.055	1100.62
192.274	522.77
192.494	508.13
192.713	544.53
192.932	1095.5
193.151	1064.67
193.37	1988.62
193.589	-1117.37
193.808	-269.52
194.027	-352.95
194.246	-3263.41
194.465	635.74
194.685	1415.39
194.904	740.6
195.123	-1004.42
195.342	-618.36
195.561	-282.46
195.78	-473.82
195.999	20208.45
196.218	761.55
196.436	675.46
196.655	-2518.48
196.874	-970.58
197.093	-1601.3
197.312	-1111.51
197.531	2772.24
197.75	1075.4
197.969	-3395.04
198.188	-708.94
198.407	-173.01
198.625	-235.2
198.844	-178.32
199.063	-208.06
199.282	-357.97
199.501	-164.39
199.719	-150.57
199.938	-90.28
200.157	-89.3
200.376	-99.27
200.594	-161.3
200.813	-387.08
201.032	-256.53
201.251	-212.19
201.469	-192.9
201.688	-164.75
201.907	-307.05
202.125	-491.21
202.344	17452.38
202.563	2736.06
202.781	466.74
203	1324.21
203.218	1018.91
203.437	849.01
203.656	491.87
203.874	265.05
204.093	231.28
204.311	294.98
204.53	278.1
204.748	421.49
204.967	280.89
205.185	293.93
205.404	309.09
205.622	200.15
205.841	171.43
206.059	203.18
206.278	253.28
206.496	676.12
206.715	394.46
206.933	303.01
207.151	267.04
207.37	309.71
207.588	333.88
207.806	352.21
208.025	711.6
208.243	-1013.29
208.461	1373.24
208.68	-13347.06
208.898	564.49
209.116	673.2
209.335	704.59
209.553	691.76
209.771	6265.42
209.989	1173.13
210.208	2562.17
210.426	-4626.28
210.644	2991.06
210.862	-2457.21
211.081	1201.15
211.299	-536.14
211.517	1694.93
211.735	-460.76
211.953	-167828.57
212.171	-3068.67
212.39	-8815.32
212.608	-16467.39
212.826	791.47
213.044	532.27
213.262	443.82
213.48	2678.69
213.698	354.71
213.916	583.22
214.134	390.31
214.352	774.64
214.57	495.34
214.788	627.38
215.006	580.94
215.224	477.22
215.442	398.78
215.66	424.85
215.878	329.22
216.096	323.33
216.314	355.59
216.532	625.02
216.75	506.17
216.968	497.36
217.185	1099.76
217.403	1880.21
217.621	-5340.43
217.839	-1503.39
218.057	-1589.16
218.275	2898.63
218.492	922.97
218.71	1498.84
218.928	443.95
219.146	420.28
219.363	352.26
219.581	279.49
219.799	220.01
220.017	218.75
220.234	188.72
220.452	217.93
220.67	221.62
220.887	233.79
221.105	238.59
221.323	181.85
221.54	203.5
221.758	274.87
221.976	288.65
222.193	240.95
222.411	179.41
222.629	189.67
222.846	182.8
223.064	203.62
223.281	191.84
223.499	167.98
223.716	179.53
223.934	130.77
224.151	118.21
224.369	90.05
224.586	109.07
224.804	106.96
225.021	113.28
225.239	92.39
225.456	83.27
225.674	79.6
225.891	72.52
226.108	80.11
226.326	91.33
226.543	82.57
226.76	85
226.978	69.89
227.195	71.96
227.413	61.46
227.63	57.25
227.847	48.39
228.064	42.16
228.282	36.93
228.499	35.06
228.716	29.48
228.934	26.18
229.151	28.54
229.368	29.38
229.585	26.89
229.802	25.87
230.02	25.45
230.237	28.35
230.454	28.92
230.671	33.46
230.888	33.04
231.105	34.65
231.323	36.07
231.54	34.08
231.757	33.01
231.974	33.98
232.191	33.14
232.408	36.99
232.625	36.26
232.842	36.41
233.059	34.25
233.276	31.77
233.493	35.94
233.71	36.66
233.927	37.63
234.144	38.1
234.361	34.59
234.578	38.85
234.795	34.8
235.012	36.13
235.229	35.85
235.446	36.62
235.663	35.87
235.879	36.69
236.096	34.88
236.313	33.51
236.53	30.73
236.747	34.71
236.964	32.16
237.181	34.61
237.397	32.91
237.614	34.98
237.831	28.76
238.048	33.98
238.264	32.61
238.481	32.6
238.698	36.82
238.915	36.6
239.131	38.74
239.348	40.61
239.565	38.92
239.781	38.51
239.998	36.14
240.215	37.74
240.431	35.18
240.648	33.68
240.865	32.99
241.081	28.71
241.298	29
241.514	26.95
241.731	26.03
241.947	25.55
242.164	23.71
242.38	21.55
242.597	20.01
242.814	20.09
243.03	19.6
243.246	19.38
243.463	20.66
243.679	21.44
243.896	20.38
244.112	20.16
244.329	20
244.545	21.59
244.762	23.94
244.978	25.77
245.194	26.3
245.411	25.78
245.627	24.75
245.843	23.32
246.06	21.79
246.276	22.1
246.492	20.06
246.709	19.78
246.925	18.52
247.141	17.78
247.357	16.79
247.574	16.53
247.79	16.06
248.006	15.35
248.222	15.46
248.439	14.5
248.655	14.53
248.871	15.71
249.087	15.09
249.303	14.14
249.519	15.15
249.736	16.53
249.952	15.44
250.168	18.07
250.384	19.08
250.6	19.98
250.816	22.14
251.032	20.84
251.248	18.74
251.464	18.45
251.68	20.3
251.896	18.6
252.112	16.67
252.328	18.65
252.544	17.1
252.76	16.39
252.976	15.19
253.192	14.39
253.408	14.18
253.624	17.76
253.84	18.3
254.056	19.54
254.272	19.63
254.487	22.11
254.703	20.04
254.919	20.6
255.135	21.22
255.351	20.77
255.567	23.09
255.782	25.82
255.998	22.82
256.214	22.08
256.43	21.73
256.646	24.09
256.861	24.04
257.077	23.11
257.293	20.81
257.508	21.94
257.724	24.64
257.94	20.87
258.155	17.7
258.371	16.71
258.587	16.3
258.802	14.21
259.018	13.44
259.234	11.5
259.449	12.28
259.665	12.4
259.88	12.31
260.096	11.52
260.312	11.6
260.527	12.43
260.743	12.69
260.958	13.05
261.174	13.89
261.389	14.27
261.605	15.89
261.82	16.07
262.036	16.9
262.251	17.61
262.466	16.91
262.682	19.15
262.897	18.16
263.113	18.95
263.328	18.3
263.543	18.13
263.759	17.65
263.974	17.4
264.189	16.53
264.405	16.68
264.62	17.23
264.835	20.35
265.051	19.3
265.266	22.1
265.481	22.58
265.696	24.85
265.912	24.28
266.127	22.28
266.342	20.79
266.557	21.06
266.773	20.55
266.988	20.27
267.203	19.2
267.418	17.54
267.633	15.78
267.848	15.15
268.064	12.63
268.279	12.45
268.494	12.61
268.709	13.3
268.924	13.36
269.139	12.62
269.354	11.07
269.569	9.8
269.784	11.63
269.999	12.41
270.214	11.05
270.429	14.24
270.644	14.81
270.859	14.35
271.074	14.39
271.289	13.97
271.504	15.28
271.719	16.54
271.934	16.81
272.149	15.97
272.363	15.82
272.578	15.66
272.793	13.77
273.008	13.1
273.223	13.65
273.438	12.28
273.653	12.85
273.867	12.72
274.082	12.11
274.297	13.17
274.512	14.39
274.726	13.44
274.941	13.86
275.156	15.35
275.371	15.22
275.585	16.38
275.8	17.89
276.015	18.25
276.229	17
276.444	16.97
276.659	16.42
276.873	16
277.088	17.16
277.302	17.76
277.517	17.23
277.732	18.95
277.946	18.8
278.161	19.16
278.375	18.21
278.59	19.37
278.804	18.31
279.019	18.95
279.233	18.81
279.448	18.23
279.662	17.59
279.877	17.25
280.091	16.79
280.306	14.7
280.52	14.28
280.735	12.76
280.949	11.84
281.163	13.4
281.378	12.13
281.592	11.43
281.806	12.02
282.021	11.03
282.235	10.73
282.449	10.44
282.664	11.49
282.878	11.75
283.092	13.58
283.307	13.96
283.521	14.13
283.735	14.97
283.949	15.68
284.164	15.69
284.378	16.23
284.592	15.53
284.806	15.81
285.02	16.02
285.234	15.27
285.449	15.27
285.663	14.72
285.877	14.39
286.091	13.22
286.305	13.66
286.519	13.62
286.733	13.61
286.947	14.64
287.161	13.25
287.375	12.7
287.589	13.59
287.803	13.8
288.017	13.67
288.231	12.78
288.445	14.2
288.659	13.76
288.873	12.99
289.087	13.74
289.301	12.72
289.515	13.35
289.729	13.01
289.943	12.99
290.157	12.8
290.371	14.38
290.584	14.96
290.798	14.69
291.012	15.13
291.226	15.33
291.44	16.02
291.654	17.16
291.867	17.71
292.081	17.4
292.295	18.24
292.509	18.5
292.722	17.72
292.936	17.22
293.15	18.29
293.364	17.49
293.577	17.82
293.791	16.36
294.005	17.5
294.218	16.24
294.432	17.13
294.645	15.48
294.859	14.01
295.073	13.75
295.286	14.25
295.5	12.34
295.713	12.87
295.927	12.92
296.14	13.78
296.354	12.42
296.568	13.02
296.781	13.44
296.994	13.75
297.208	14.36
297.421	14.64
297.635	14.61
297.848	14.91
298.062	14.27
298.275	14.67
298.489	13.9
298.702	14.24
298.915	14.63
299.129	14.88
299.342	15.01
299.555	15.66
299.769	15.82
299.982	15.88
300.195	16.62
300.409	18.02
300.622	17.56
300.835	18.83
301.048	18.39
301.262	18.67
301.475	18.06
301.688	19.09
301.901	18.52
302.115	17.88
302.328	18.01
302.541	17.08
302.754	16.13
302.967	16.81
303.18	16.17
303.393	16.87
303.607	15.62
303.82	16.27
304.033	15.72
304.246	15.65
304.459	15.8
304.672	15.16
304.885	14.8
305.098	14.64
305.311	13.86
305.524	14.8
305.737	14.86
305.95	15.76
306.163	14.34
306.376	13.94
306.589	13.54
306.802	13.28
307.015	15.27
307.228	17.21
307.44	17.3
307.653	17
307.866	15.7
308.079	16.95
308.292	17.38
308.505	18.76
308.718	18.77
308.93	18.46
309.143	18.69
309.356	18.05
309.569	17.27
309.781	17.44
309.994	17.88
310.207	17.65
310.42	14.83
310.632	14.49
310.845	14.34
311.058	13.79
311.27	13.83
311.483	13.79
311.696	12.85
311.908	12.82
312.121	12.83
312.333	13.65
312.546	13.59
312.759	15.05
312.971	15.17
313.184	15.28
313.396	15.31
313.609	16.01
313.821	15.96
314.034	16.6
314.246	16.75
314.459	17.47
314.671	15.9
314.884	15.43
315.096	14.53
315.309	14.41
315.521	15.03
315.733	14.66
315.946	13.46
316.158	13.18
316.371	13.18
316.583	13.71
316.795	11.91
317.008	12.63
317.22	14.57
317.432	14.39
317.644	14.44
317.857	12.7
318.069	12.81
318.281	13.8
318.494	13.91
318.706	14.98
318.918	15.2
319.13	16.24
319.342	17.25
319.555	16.96
319.767	17.88
319.979	17.9
320.191	18.68
320.403	19.63
320.615	19.3
320.827	20.54
321.039	19.19
321.252	18.39
321.464	18.71
321.676	17.93
321.888	16.69
322.1	16.84
322.312	14.74
322.524	15.15
322.736	15.04
322.948	15.25
323.16	13.45
323.372	14.14
323.584	13.6
323.796	12.93
324.007	12.49
324.219	13.01
324.431	12.78
324.643	14.08
324.855	13.78
325.067	13.67
325.279	14.17
325.491	14.51
325.702	13.3
325.914	13.19
326.126	14.78
326.338	15.01
326.55	15.19
326.761	16.21
326.973	16.24
327.185	16.3
327.396	17.02
327.608	16.96
327.82	17.34
328.032	18.6
328.243	18.81
328.455	18.2
328.666	17.68
328.878	17.87
329.09	15.43
329.301	15.17
329.513	15.74
329.725	14.82
329.936	14.24
330.148	15.04
330.359	14.55
330.571	14.85
330.782	13.69
330.994	14.56
331.205	14.33
331.417	16.25
331.628	17.12
331.84	16.65
332.051	17.24
332.262	19.93
332.474	19.13
332.685	19.5
332.897	18.55
333.108	19.94
333.319	19.58
333.531	19.12
333.742	19.15
333.953	18.47
334.165	18.32
334.376	17.48
334.587	15.94
334.799	16.39
335.01	15.95
335.221	16.85
335.432	15.69
335.644	15.87
335.855	16.8
336.066	16.25
336.277	16.34
336.488	16.66
336.7	17.24
336.911	16.96
337.122	15.87
337.333	16.46
337.544	17.53
337.755	17.75
337.966	18.1
338.177	16.82
338.388	17.27
338.599	18.73
338.811	18.21
339.022	17.65
339.233	18.17
339.444	19.44
339.655	17.43
339.866	16.05
340.076	16.02
340.287	15.69
340.498	16.49
340.709	16.2
340.92	14.58
341.131	14.83
341.342	15.18
341.553	14.84
341.764	14.13
341.975	15.62
342.185	15.44
342.396	15.4
342.607	15.22
342.818	15.37
343.029	15.66
343.239	16.16
343.45	16.34
343.661	15.53
343.872	14.63
344.082	14.89
344.293	14.66
344.504	16.7
344.714	15.66
344.925	15.02
345.136	15.47
345.346	14.03
345.557	14.39
345.768	13.27
345.978	14.02
346.189	15.17
346.399	14.48
346.61	14.7
346.821	12.84
347.031	13.82
347.242	13.81
347.452	13.6
347.663	15.06
347.873	14.64
348.084	14.55
348.294	14.46
348.504	13.61
348.715	14.23
348.925	13.59
349.136	12.74
349.346	11.48
349.557	11.91
349.767	11.8
349.977	10.99
350.188	11.29
350.398	12.49
350.608	12.55
350.819	12.14
351.029	12.19
351.239	12.35
351.449	13.46
351.66	14.71
351.87	15.51
352.08	14.85
352.29	15.2
352.501	13.96
352.711	13.19
352.921	13.47
353.131	13.42
353.341	13.1
353.552	13.26
353.762	13.21
353.972	12.95
354.182	12.65
354.392	12.75
354.602	12.88
354.812	13.75
355.022	14.43
355.232	13.61
355.442	14.7
355.652	14.84
355.862	14.59
356.072	14.87
356.282	14.71
356.492	14.76
356.702	14.66
356.912	14.87
357.122	14.43
357.332	14.1
357.542	14.06
357.752	13.11
357.962	13.05
358.171	12.81
358.381	13.16
358.591	13.01
358.801	12.64
359.011	13.69
359.221	13.39
359.43	13.8
359.64	14.06
359.85	14.01
360.06	14.01
360.269	13.89
360.479	13.9
360.689	13.17
360.899	13.44
361.108	13.38
361.318	12.87
361.528	12.54
361.737	12.38
361.947	11.81
362.156	11.93
362.366	11.91
362.576	11.89
362.785	12.06
362.995	11.9
363.204	11.97
363.414	11.74
363.623	11.17
363.833	11.83
364.042	11.5
364.252	11.65
364.461	11.75
364.671	11.86
364.88	12.41
365.09	12.93
365.299	13.07
365.509	12.33
365.718	12.32
365.927	12.51
366.137	12.33
366.346	12.89
366.555	12.93
366.765	12.58
366.974	13.03
367.183	12.58
367.393	11.95
367.602	12.17
367.811	12.96
368.021	12.59
368.23	12.78
368.439	12.14
368.648	11.68
368.857	12.22
369.067	12.92
369.276	12.45
369.485	12.42
369.694	12.41
369.903	12.41
370.112	12
370.321	12.4
370.531	12.02
370.74	12.55
370.949	12.62
371.158	12.21
371.367	11.94
371.576	11.68
371.785	11.1
371.994	11.15
372.203	11.16
372.412	11.39
372.621	11.59
372.83	11.87
373.039	11.96
373.248	11.68
373.457	11.5
373.666	11.22
373.874	11.4
374.083	12.45
374.292	12.01
374.501	11.69
374.71	11.32
374.919	11.24
375.128	11.3
375.336	11.05
375.545	11.15
375.754	11.08
375.963	10.82
376.171	10.7
376.38	10.09
376.589	10.37
376.798	10.18
377.006	10.21
377.215	10.26
377.424	9.74
377.632	9.48
377.841	9.71
378.05	9.72
378.258	9.74
378.467	9.92
378.675	10.34
378.884	10.7
379.093	10.77
379.301	10.62
379.51	10.64
379.718	10.45
379.927	10.61
380.135	10.02
380.344	10.07
380.552	10.31
380.761	9.96
380.969	9.42
381.177	8.68
381.386	8.17
381.594	8.32
381.803	7.91
382.011	8.41
382.219	7.98
382.428	7.58
382.636	7.18
382.845	7.36
383.053	7.87
383.261	7.87
383.469	8.4
383.678	8.76
383.886	8.43
384.094	8.58
384.302	8.73
384.511	9.1
384.719	9.6
384.927	9.79
385.135	10.02
385.343	9.83
385.552	10.07
385.76	9.94
385.968	9.96
386.176	10.01
386.384	9.91
386.592	9.52
386.8	9.29
387.008	9.45
387.216	9.93
387.424	9.62
387.633	9.78
387.841	9.47
388.049	9.44
388.257	9.76
388.465	9.54
388.672	9.51
388.88	9.59
389.088	9.85
389.296	9.56
389.504	9.32
389.712	9.32
389.92	8.94
390.128	9.03
390.336	9
390.544	8.97
390.751	8.89
390.959	8.68
391.167	8.74
391.375	8.66
391.583	8.9
391.79	8.82
391.998	8.66
392.206	8.64
392.414	8.43
392.621	8.41
392.829	8.34
393.037	8.74
393.244	9.03
393.452	9.2
393.66	9.26
393.867	9.17
394.075	8.92
394.283	8.96
394.49	8.9
394.698	8.99
394.905	8.8
395.113	8.75
395.32	8.34
395.528	8.24
395.735	8.19
395.943	8.06
396.15	7.72
396.358	7.91
396.565	7.76
396.773	7.96
396.98	8.14
397.188	8.43
397.395	8.17
397.602	8.21
397.81	8.09
398.017	7.92
398.225	7.8
398.432	8.39
398.639	8.52
398.847	8.85
399.054	8.8
399.261	8.73
399.468	8.53
399.676	8.43
399.883	8.82
400.09	8.77
400.297	8.58
400.505	8.76
400.712	8.19
400.919	8.17
401.126	7.9
401.333	7.84
401.54	7.79
401.748	7.89
401.955	8.1
402.162	7.89
402.369	7.95
402.576	8.07
402.783	7.93
402.99	8.17
403.197	7.94
403.404	7.77
403.611	7.83
403.818	7.95
404.025	7.65
404.232	7.33
404.439	7.42
404.646	7.3
404.853	7.23
405.06	7.14
405.267	6.96
405.474	6.99
405.681	6.92
405.887	6.89
406.094	6.79
406.301	6.94
406.508	7.44
406.715	7.46
406.922	7.53
407.128	7.61
407.335	7.52
407.542	7.64
407.749	7.83
407.955	8.27
408.162	8.03
408.369	8.11
408.575	8.11
408.782	7.73
408.989	7.47
409.195	7.5
409.402	7.58
409.609	8.01
409.815	7.95
410.022	7.72
410.228	7.32
410.435	7.34
410.642	7.03
410.848	7.35
411.055	7.24
411.261	7.27
411.468	7.3
411.674	7.13
411.881	6.97
412.087	7.23
412.294	7.28
412.5	7.06
412.706	7.33
412.913	7.44
413.119	6.83
413.326	6.79
413.532	7.04
413.738	6.66
413.945	6.87
414.151	6.7
414.357	6.54
414.564	6.51
414.77	7
414.976	6.72
415.182	6.97
415.389	7.18
415.595	7.35
415.801	7.05
416.007	7.41
416.214	7.39
416.42	7.28
416.626	7.21
416.832	7.21
417.038	6.88
417.244	7.04
417.45	6.86
417.657	7.01
417.863	7.12
418.069	7.34
418.275	7.15
418.481	6.84
418.687	6.84
418.893	6.83
419.099	6.88
419.305	7.05
419.511	6.9
419.717	6.84
419.923	6.65
420.129	6.55
420.335	6.55
420.541	6.6
420.746	6.75
420.952	6.84
421.158	6.76
421.364	6.64
421.57	6.63
421.776	6.68
421.982	6.66
422.187	6.58
422.393	6.57
422.599	6.44
422.805	6.38
423.01	6.35
423.216	6.12
423.422	6.19
423.628	6.24
423.833	6.05
424.039	6.08
424.245	6.14
424.45	6.4
424.656	6.5
424.862	6.51
425.067	6.63
425.273	6.6
425.478	6.82
425.684	6.79
425.889	6.95
426.095	7.25
426.301	7.16
426.506	7.14
426.712	7.1
426.917	6.84
427.123	6.95
427.328	6.81
427.533	6.81
427.739	6.79
427.944	6.69
428.15	6.42
428.355	6.35
428.561	6.36
428.766	6.27
428.971	6.1
429.177	6.42
429.382	6.44
429.587	6.63
429.793	6.69
429.998	6.61
430.203	6.68
430.408	6.72
430.614	6.57
430.819	6.55
431.024	6.65
431.229	6.6
431.434	6.43
431.64	6.41
431.845	6.45
432.05	6.38
432.255	6.43
432.46	6.3
432.665	6.3
432.87	6.32
433.076	6.43
433.281	6.47
433.486	6.46
433.691	6.37
433.896	6.06
434.101	5.98
434.306	6.17
434.511	6.1
434.716	6.27
434.921	6.3
435.126	6.11
435.331	5.9
435.535	5.94
435.74	5.99
435.945	6.13
436.15	6.18
436.355	6.28
436.56	6.21
436.765	6.33
436.97	6.29
437.174	6.35
437.379	6.61
437.584	6.93
437.789	6.76
437.993	6.76
438.198	6.87
438.403	7.16
438.608	7.12
438.812	7.02
439.017	6.94
439.222	6.89
439.426	6.73
439.631	6.7
439.836	6.5
440.04	6.54
440.245	6.52
440.45	6.37
440.654	6.15
440.859	6.01
441.063	6.08
441.268	6.02
441.472	6.01
441.677	5.99
441.881	5.8
442.086	5.82
442.29	5.78
442.495	5.81
442.699	5.91
442.904	5.95
443.108	5.96
443.312	5.9
443.517	5.91
443.721	5.89
443.925	6.03
444.13	6.11
444.334	6.14
444.538	6.13
444.743	6.05
444.947	5.96
445.151	5.9
445.356	5.92
445.56	6
445.764	5.97
445.968	6
446.173	5.92
446.377	5.99
446.581	5.95
446.785	6
446.989	6.06
447.193	5.99
447.398	6.08
447.602	6.03
447.806	6.04
448.01	6.11
448.214	6.22
448.418	6.26
448.622	6.3
448.826	6.44
449.03	6.41
449.234	6.48
449.438	6.63
449.642	6.66
449.846	6.78
450.05	6.63
450.254	6.45
450.458	6.44
450.662	6.34
450.866	6.14
451.069	6.02
451.273	5.99
451.477	5.85
451.681	5.81
451.885	5.51
452.089	5.46
452.292	5.56
452.496	5.68
452.7	5.65
452.904	5.61
453.107	5.68
453.311	5.76
453.515	5.74
453.719	5.76
453.922	5.8
454.126	5.97
454.33	5.95
454.533	5.73
454.737	5.74
454.94	5.67
455.144	5.89
455.348	5.94
455.551	5.85
455.755	5.84
455.958	5.86
456.162	5.82
456.365	5.98
456.569	5.87
456.772	6.03
456.976	6.07
457.179	6.07
457.383	5.96
457.586	5.93
457.79	5.85
457.993	5.95
458.196	5.79
458.4	5.75
458.603	5.61
458.807	5.87
459.01	5.98
459.213	5.87
459.417	5.84
459.62	5.91
459.823	5.85
460.026	5.88
460.23	5.88
460.433	5.97
460.636	5.92
460.839	6.05
461.042	5.9
461.246	5.93
461.449	5.96
461.652	5.96
461.855	5.84
462.058	5.93
462.261	5.88
462.464	5.85
462.668	5.94
462.871	5.98
463.074	5.89
463.277	5.75
463.48	5.76
463.683	5.76
463.886	5.89
464.089	6.02
464.292	6.02
464.495	6.26
464.698	6.22
464.901	6.21
465.104	6.21
465.306	6.33
465.509	6.35
465.712	6.26
465.915	6.35
466.118	6.3
466.321	6.12
466.524	6.19
466.726	6.12
466.929	6.23
467.132	6.16
467.335	6.23
467.538	5.92
467.74	5.95
467.943	6.03
468.146	6.04
468.348	5.98
468.551	6.14
468.754	6.02
468.956	5.93
469.159	5.82
469.362	5.9
469.564	5.84
469.767	6.08
469.969	6.09
470.172	5.8
470.375	5.72
470.577	5.78
470.78	5.73
470.982	5.67
471.185	5.77
471.387	5.81
471.59	5.78
471.792	5.75
471.995	5.69
472.197	5.71
472.399	5.79
472.602	5.65
472.804	5.7
473.007	5.71
473.209	5.84
473.411	5.87
473.614	5.86
473.816	5.88
474.018	6.04
474.22	6.11
474.423	6.29
474.625	6.25
474.827	6.45
475.03	6.43
475.232	6.47
475.434	6.47
475.636	6.46
475.838	6.5
476.04	6.3
476.243	6.13
476.445	6.08
476.647	5.96
476.849	6
477.051	5.89
477.253	6
477.455	5.98
477.657	5.89
477.859	5.74
478.061	5.65
478.263	5.69
478.465	5.76
478.667	5.82
478.869	5.76
479.071	5.6
479.273	5.67
479.475	5.38
479.677	5.37
479.879	5.34
480.081	5.4
480.283	5.47
480.485	5.45
480.686	5.45
480.888	5.51
481.09	5.47
481.292	5.47
481.494	5.5
481.695	5.67
481.897	5.54
482.099	5.51
482.301	5.53
482.502	5.43
482.704	5.39
482.906	5.32
483.107	5.27
483.309	5.27
483.511	5.35
483.712	5.29
483.914	5.19
484.115	5.25
484.317	5.24
484.519	5.22
484.72	5.2
484.922	5.16
485.123	5.23
485.325	5.19
485.526	5.16
485.728	5.17
485.929	5.13
486.131	5.19
486.332	5.15
486.534	5.11
486.735	5.09
486.936	5.12
487.138	5.15
487.339	5.06
487.541	5.09
487.742	5.12
487.943	5.1
488.144	5.21
488.346	5.16
488.547	5.16
488.748	5.24
488.95	5.21
489.151	5.23
489.352	5.37
489.553	5.4
489.755	5.42
489.956	5.43
490.157	5.38
490.358	5.32
490.559	5.36
490.76	5.35
490.961	5.29
491.163	5.32
491.364	5.37
491.565	5.23
491.766	5.21
491.967	5.23
492.168	5.25
492.369	5.33
492.57	5.29
492.771	5.33
492.972	5.39
493.173	5.44
493.374	5.44
493.575	5.42
493.776	5.53
493.976	5.63
494.177	5.69
494.378	5.82
494.579	5.73
494.78	5.9
494.981	5.9
495.182	5.79
495.382	5.77
495.583	5.72
495.784	5.69
495.985	5.66
496.185	5.74
496.386	5.64
496.587	5.6
496.788	5.52
496.988	5.58
497.189	5.58
497.39	5.65
497.59	5.67
497.791	5.75
497.992	5.76
498.192	5.77
498.393	5.8
498.593	5.84
498.794	5.72
498.994	5.89
499.195	5.76
499.395	5.86
499.596	5.95
499.796	5.92
499.997	5.97
500.197	6.1
500.398	6.23
500.598	6.17
500.799	6.17
500.999	6.2
501.199	6.26
501.4	6.31
501.6	6.26
501.801	6.29
502.001	6.43
502.201	6.58
502.402	6.44
502.602	6.21
502.802	6.12
503.002	6.16
503.203	6.3
503.403	6.17
503.603	6.1
503.803	6.13
504.003	6.1
504.204	6.1
504.404	5.96
504.604	5.96
504.804	6.09
505.004	5.98
505.204	6
505.404	6.09
505.604	6.32
505.804	6.22
506.005	6.15
506.205	6.12
506.405	6.1
506.605	6.17
506.805	6.13
507.005	6.25
507.204	6.41
507.404	6.37
507.604	6.23
507.804	5.97
508.004	6.11
508.204	6.13
508.404	6.13
508.604	6.08
508.804	6.04
509.003	6.09
509.203	6.01
509.403	6.03
509.603	6.08
509.803	6.13
510.002	6.25
510.202	6.24
510.402	6.17
510.602	6.19
510.801	6.22
511.001	6.35
511.201	6.38
511.4	6.31
511.6	6.34
511.8	6.26
511.999	6.32
512.199	6.27
512.398	6.29
512.598	6.45
512.797	6.53
512.997	6.51
513.197	6.4
513.396	6.52
513.596	6.66
513.795	6.75
513.994	6.87
514.194	6.78
514.393	6.91
514.593	7
514.792	6.94
514.992	6.91
515.191	6.9
515.39	6.86
515.59	6.63
515.789	6.68
515.988	6.54
516.188	6.53
516.387	6.5
516.586	6.32
516.786	6.39
516.985	6.32
517.184	6.4
517.383	6.47
517.582	6.47
517.782	6.51
517.981	6.36
518.18	6.32
518.379	6.38
518.578	6.36
518.777	6.48
518.976	6.3
519.176	6.41
519.375	6.36
519.574	6.39
519.773	6.41
519.972	6.34
520.171	6.4
520.37	6.5
520.569	6.49
520.768	6.52
520.967	6.57
521.166	6.6
521.365	6.52
521.564	6.58
521.762	6.61
521.961	6.73
522.16	6.92
522.359	6.84
522.558	6.86
522.757	6.95
522.956	7.07
523.154	6.94
523.353	7.01
523.552	7.09
523.751	7.1
523.949	7.07
524.148	7.1
524.347	7.21
524.546	7.26
524.744	7.18
524.943	7.14
525.142	7.01
525.34	7.16
525.539	7.23
525.737	7.24
525.936	7.17
526.135	7.1
526.333	7.01
526.532	6.82
526.73	6.91
526.929	6.84
527.127	6.74
527.326	6.78
527.524	6.73
527.723	6.72
527.921	6.73
528.12	6.73
528.318	6.82
528.516	6.84
528.715	6.9
528.913	6.82
529.112	6.92
529.31	6.97
529.508	6.98
529.707	6.95
529.905	6.96
530.103	6.95
530.301	7
530.5	6.98
530.698	6.96
530.896	7.05
531.094	7.19
531.293	7.24
531.491	7.22
531.689	7.29
531.887	7.47
532.085	7.55
532.283	7.56
532.481	7.59
532.68	7.61
532.878	7.68
533.076	7.64
533.274	7.58
533.472	7.62
533.67	7.62
533.868	7.63
534.066	7.56
534.264	7.5
534.462	7.59
534.66	7.64
534.858	7.64
535.056	7.69
535.253	7.7
535.451	7.9
535.649	7.87
535.847	8.11
536.045	8.23
536.243	8.4
536.441	8.59
536.638	8.65
536.836	8.65
537.034	8.69
537.232	8.71
537.43	8.86
537.627	8.88
537.825	8.93
538.023	8.88
538.22	8.96
538.418	8.82
538.616	8.75
538.813	8.79
539.011	8.96
539.209	9.07
539.406	9.08
539.604	9.1
539.801	9.1
539.999	9.18
540.196	9.2
540.394	9.23
540.591	9.35
540.789	9.39
540.986	9.34
541.184	9.34
541.381	9.37
541.579	9.42
541.776	9.42
541.974	9.44
542.171	9.48
542.368	9.54
542.566	9.52
542.763	9.56
542.96	9.6
543.158	9.72
543.355	9.73
543.552	9.82
543.75	9.94
543.947	9.89
544.144	9.84
544.341	9.93
544.539	9.93
544.736	10.05
544.933	10.06
545.13	10.1
545.327	10.06
545.524	10.09
545.722	10.13
545.919	10.08
546.116	10.35
546.313	10.48
546.51	10.54
546.707	10.63
546.904	10.68
547.101	10.81
547.298	10.97
547.495	11.02
547.692	11.06
547.889	11.03
548.086	11.21
548.283	11.27
548.48	11.43
548.677	11.25
548.874	11.33
549.07	11.31
549.267	11.34
549.464	11.23
549.661	11.5
549.858	11.73
550.055	12.15
550.251	12.12
550.448	12.14
550.645	12.21
550.842	12.67
551.038	12.65
551.235	12.74
551.432	12.86
551.628	12.92
551.825	13.11
552.022	13.06
552.218	12.99
552.415	13.28
552.612	13.19
552.808	13.1
553.005	13.08
553.201	13.24
553.398	13.42
553.594	13.5
553.791	13.82
553.987	13.76
554.184	13.97
554.38	13.97
554.577	13.9
554.773	14.13
554.97	14.45
555.166	14.54
555.362	14.57
555.559	14.61
555.755	14.82
555.952	14.67
556.148	14.81
556.344	14.89
556.541	14.9
556.737	15.03
556.933	15.2
557.129	15.25
557.326	15.13
557.522	15.4
557.718	15.63
557.914	15.46
558.11	15.78
558.307	15.76
558.503	15.92
558.699	16.11
558.895	16.27
559.091	16.32
559.287	16.28
559.483	16.58
559.679	16.73
559.876	16.62
560.072	16.93
560.268	17.01
560.464	17.05
560.66	17.02
560.856	17.14
561.052	17.21
561.247	17.27
561.443	17.53
561.639	17.52
561.835	17.44
562.031	17.59
562.227	17.49
562.423	17.54
562.619	17.69
562.815	17.84
563.01	17.97
563.206	18
563.402	18.07
563.598	18.1
563.793	18.29
563.989	18.35
564.185	18.43
564.381	18.93
564.576	19.11
564.772	19.34
564.968	19.33
565.163	19.3
565.359	19.12
565.555	19.2
565.75	19.23
565.946	19.3
566.141	19.33
566.337	19.49
566.532	19.49
566.728	19.48
566.923	19.46
567.119	19.58
567.314	19.65
567.51	19.95
567.705	20.01
567.901	20.19
568.096	20.24
568.292	20.48
568.487	20.48
568.682	20.41
568.878	20.46
569.073	20.62
569.268	20.74
569.464	20.89
569.659	21
569.854	21.13
570.05	21.14
570.245	21.28
570.44	21.35
570.635	21.38
570.831	21.48
571.026	21.83
571.221	21.92
571.416	21.85
571.611	21.97
571.806	21.98
572.002	22.08
572.197	22.26
572.392	22.3
572.587	22.44
572.782	22.47
572.977	22.69
573.172	22.64
573.367	22.66
573.562	22.93
573.757	22.92
573.952	23.22
574.147	23.37
574.342	23.57
574.537	23.61
574.732	23.65
574.927	23.96
575.121	23.89
575.316	23.97
575.511	24.04
575.706	24.09
575.901	24.29
576.096	24.24
576.29	24.31
576.485	24.26
576.68	24.61
576.875	24.46
577.069	24.48
577.264	24.37
577.459	24.43
577.654	24.56
577.848	24.82
578.043	25.02
578.238	25.12
578.432	25
578.627	25.05
578.821	24.98
579.016	25.28
579.21	25.48
579.405	25.85
579.6	25.92
579.794	26.18
579.989	25.97
580.183	25.82
580.378	25.97
580.572	26.29
580.766	26.22
580.961	26.23
581.155	26.28
581.35	26.23
581.544	26.08
581.738	26.08
581.933	26
582.127	26.5
582.321	26.82
582.516	26.59
582.71	26.64
582.904	26.73
583.099	26.62
583.293	26.55
583.487	26.88
583.681	27.44
583.875	27.58
584.07	27.61
584.264	27.23
584.458	27.05
584.652	27.2
584.846	27.05
585.04	27.21
585.234	27.58
585.428	27.76
585.623	27.29
585.817	26.84
586.011	26.88
586.205	26.93
586.399	27.19
586.593	27.19
586.787	27.33
586.981	27.55
587.174	27.55
587.368	27.33
587.562	27.44
587.756	27.81
587.95	28.07
588.144	28.05
588.338	28.23
588.532	28.24
588.725	28.36
588.919	28.41
589.113	28.47
589.307	28.54
589.501	28.68
589.694	28.81
589.888	28.68
590.082	28.58
590.275	28.54
590.469	28.6
590.663	28.39
590.856	28.63
591.05	28.61
591.244	28.63
591.437	28.82
591.631	29.01
591.824	28.93
592.018	29.25
592.212	29.55
592.405	29.57
592.599	29.48
592.792	29.67
592.986	29.76
593.179	29.94
593.372	29.86
593.566	29.8
593.759	29.7
593.953	29.82
594.146	29.56
594.339	29.42
594.533	29.76
594.726	29.9
594.92	30.11
595.113	30.03
595.306	29.91
595.499	29.89
595.693	30.04
595.886	30.19
596.079	30.19
596.272	30.32
596.466	30.38
596.659	30.34
596.852	30.47
597.045	30.52
597.238	30.58
597.431	30.65
597.624	30.9
597.818	30.65
598.011	30.48
598.204	30.48
598.397	30.6
598.59	30.51
598.783	30.43
598.976	30.29
599.169	30.32
599.362	30.1
599.555	30.17
599.748	30.31
599.941	30.32
600.134	30.59
600.326	30.65
600.519	30.86
600.712	31.11
600.905	31.18
601.098	31.32
601.291	31.32
601.483	31.67
601.676	31.59
601.869	31.37
602.062	31.77
602.255	31.79
602.447	31.88
602.64	31.61
602.833	31.46
603.025	31.47
603.218	31.32
603.411	31.26
603.603	30.97
603.796	31.06
603.989	31.08
604.181	31
604.374	31.17
604.566	31.12
604.759	31.2
604.951	31.33
605.144	31.35
605.336	31.49
605.529	31.41
605.721	31.59
605.914	31.72
606.106	31.75
606.299	31.78
606.491	31.65
606.683	31.84
606.876	31.77
607.068	31.69
607.26	31.76
607.453	31.88
607.645	32.09
607.837	31.99
608.03	31.98
608.222	32.04
608.414	32.25
608.606	32.36
608.799	32.39
608.991	32.39
609.183	32.48
609.375	32.57
609.567	32.43
609.759	32.44
609.952	32.64
610.144	32.58
610.336	32.67
610.528	32.51
610.72	32.45
610.912	32.46
611.104	32.8
611.296	32.87
611.488	32.94
611.68	33.09
611.872	32.89
612.064	33.14
612.256	33.39
612.448	33.34
612.64	33.31
612.832	33.5
613.023	33.38
613.215	33.32
613.407	33.35
613.599	33.54
613.791	33.53
613.983	33.73
614.174	33.51
614.366	33.32
614.558	33.39
614.75	33.37
614.941	33.16
615.133	33.31
615.325	33.17
615.516	33.35
615.708	33.04
615.9	32.86
616.091	32.87
616.283	32.99
616.475	32.92
616.666	32.83
616.858	33.21
617.049	33.22
617.241	33.15
617.432	33.32
617.624	33.34
617.815	33.51
618.007	33.69
618.198	33.96
618.39	33.79
618.581	33.86
618.773	33.92
618.964	33.85
619.155	33.97
619.347	33.92
619.538	33.93
619.729	33.93
619.921	33.84
620.112	34.09
620.303	34.1
620.494	34.31
620.686	34.43
620.877	34.67
621.068	34.65
621.259	34.84
621.451	35.07
621.642	34.93
621.833	34.86
622.024	34.91
622.215	34.76
622.406	34.62
622.597	34.61
622.788	34.33
622.98	33.99
623.171	34.1
623.362	33.88
623.553	34.13
623.744	34.11
623.935	34.1
624.126	34.08
624.317	33.99
624.508	33.83
624.698	33.59
624.889	34.19
625.08	34.68
625.271	34.93
625.462	35.12
625.653	34.88
625.844	34.96
626.034	34.79
626.225	34.71
626.416	34.65
626.607	34.88
626.798	35.2
626.988	34.84
627.179	34.82
627.37	34.41
627.56	34.42
627.751	34.49
627.942	34.69
628.132	34.6
628.323	34.63
628.514	34.78
628.704	34.66
628.895	34.55
629.085	34.58
629.276	34.36
629.466	34.36
629.657	34.3
629.847	34.18
630.038	34.06
630.228	34.4
630.419	34.68
630.609	34.57
630.8	34.65
630.99	34.42
631.181	34.74
631.371	34.87
631.561	35.24
631.752	35.53
631.942	35.58
632.132	35.71
632.323	35.82
632.513	35.78
632.703	35.92
632.893	35.91
633.084	35.97
633.274	35.62
633.464	35.5
633.654	35.44
633.844	35.26
634.034	35.15
634.225	35.09
634.415	34.96
634.605	35.13
634.795	34.85
634.985	35.11
635.175	35.45
635.365	35.57
635.555	35.64
635.745	35.53
635.935	35.38
636.125	35.66
636.315	35.89
636.505	35.86
636.695	35.84
636.885	36.07
637.075	36.07
637.265	36.08
637.455	36.11
637.644	36.1
637.834	36.45
638.024	36.53
638.214	36.53
638.404	36.43
638.593	36.68
638.783	36.67
638.973	37.03
639.163	36.66
639.352	36.64
639.542	36.97
639.732	37.23
639.921	37.02
640.111	37.31
640.301	37.22
640.49	37.13
640.68	36.9
640.87	36.87
641.059	36.68
641.249	36.85
641.438	37.19
641.628	36.9
641.817	36.86
642.007	36.87
642.196	36.79
642.386	36.87
642.575	36.93
642.764	36.87
642.954	36.43
643.143	36.61
643.333	36.94
643.522	36.65
643.711	36.51
643.901	36.45
644.09	36.61
644.279	36.61
644.469	36.38
644.658	36.5
644.847	36.74
645.036	37.06
645.226	37.1
645.415	37.2
645.604	36.98
645.793	37.34
645.982	37.35
646.171	37.3
646.361	37.35
646.55	38
646.739	37.81
646.928	37.87
647.117	38.18
647.306	37.89
647.495	37.57
647.684	37.94
647.873	38.13
648.062	38.3
648.251	38.14
648.44	37.81
648.629	37.44
648.818	37.51
649.007	37.57
649.196	37.35
649.384	37.71
649.573	37.76
649.762	37.45
649.951	36.92
650.14	36.99
650.328	37.22
650.517	37.36
650.706	37.18
650.895	37.26
651.083	37.41
651.272	37.05
651.461	37.25
651.65	37.48
651.838	37.29
652.027	37.68
652.216	37.26
652.404	37.59
652.593	38.19
652.781	38.26
652.97	38.4
653.158	38.11
653.347	38.86
653.535	38.54
653.724	38.01
653.912	38.45
654.101	38.63
654.289	38.73
654.478	38.54
654.666	38.18
654.855	38.42
655.043	37.94
655.231	37.77
655.42	37.92
655.608	37.96
655.796	38.36
655.985	38.1
656.173	38.06
656.361	37.88
656.55	37.69
656.738	37.56
656.926	37.55
657.114	38.28
657.302	38.52
657.491	37.86
657.679	37.5
657.867	37.39
658.055	37.6
658.243	37.29
658.431	37.52
658.619	37.75
658.807	37.75
658.996	37.79
659.184	37.38
659.372	37.62
659.56	37.79
659.748	37.81
659.936	37.97
660.124	37.9
660.311	38.15
660.499	38.3
660.687	38.25
660.875	38.41
661.063	38.42
661.251	38.48
661.439	38.22
661.627	38.22
661.814	38.37
662.002	38.17
662.19	38.37
662.378	38.24
662.565	38.2
662.753	38.36
662.941	38.44
663.129	38.39
663.316	38.89
663.504	39.08
663.692	39.33
663.879	39.59
664.067	39.79
664.254	39.53
664.442	39.53
664.63	39.75
664.817	39.59
665.005	39.38
665.192	39.76
665.38	39.51
665.567	39.24
665.755	39.35
665.942	39.41
666.13	39.65
666.317	40.17
666.504	40.22
666.692	40.66
666.879	40.62
667.067	40.52
667.254	40.23
667.441	40
667.629	40.3
667.816	40.01
668.003	40.06
668.19	39.93
668.378	39.53
668.565	39.61
668.752	39.02
668.939	38.95
669.127	39.27
669.314	39.59
669.501	39.65
669.688	39.53
669.875	39.44
670.062	39.64
670.249	39.57
670.436	39.51
670.623	39.18
670.81	39.12
670.997	39
671.184	38.65
671.371	38.53
671.558	38.87
671.745	39.03
671.932	39.17
672.119	38.84
672.306	38.96
672.493	39.41
672.68	39.94
672.867	40.19
673.054	40.3
673.24	40.66
673.427	40.5
673.614	40.43
673.801	40.79
673.988	41.15
674.174	41.39
674.361	41.27
674.548	40.99
674.734	40.79
674.921	40.74
675.108	41.35
675.294	40.99
675.481	41.02
675.668	40.75
675.854	40.05
676.041	40
676.227	39.87
676.414	39.76
676.601	40.23
676.787	40.77
676.974	40.86
677.16	40.59
677.347	41.09
677.533	40.95
677.719	40.71
677.906	40.62
678.092	40.69
678.279	40.24
678.465	39.89
678.651	39.36
678.838	39.19
679.024	38.85
679.21	38.5
679.397	38.37
679.583	38.41
679.769	38.8
679.955	38.89
680.142	38.75
680.328	38.94
680.514	39.03
680.7	38.8
680.886	38.73
681.073	39.15
681.259	39.32
681.445	39.7
681.631	39.82
681.817	39.7
682.003	39.94
682.189	39.91
682.375	39.96
682.561	40.42
682.747	41.08
682.933	41.19
683.119	40.9
683.305	40.76
683.491	40.49
683.677	40.44
683.863	40.65
684.049	40.71
684.235	40.42
684.42	40.42
684.606	40.34
684.792	40.6
684.978	40.21
685.164	40.36
685.349	40.38
685.535	40.4
685.721	39.96
685.907	39.31
686.092	39.43
686.278	39.67
686.464	39.51
686.649	39.39
686.835	39.01
687.021	39.44
687.206	39.28
687.392	39.11
687.577	38.98
687.763	39.41
687.948	39.63
688.134	39.29
688.319	39.61
688.505	40.03
688.69	40.12
688.876	40.22
689.061	40.22
689.247	40.68
689.432	41.17
689.618	40.57
689.803	40.86
689.988	41.28
690.174	41.53
690.359	41.63
690.544	41.49
690.73	41.94
690.915	41.64
691.1	41.7
691.285	41.62
691.471	41.48
691.656	42.4
691.841	42.05
692.026	42.06
692.211	41.95
692.396	41.66
692.582	41.58
692.767	41.34
692.952	41.22
693.137	40.9
693.322	40.72
693.507	40.61
693.692	40.16
693.877	39.9
694.062	40.01
694.247	40.04
694.432	40.45
694.617	40.62
694.802	40.91
694.987	41.18
695.172	41.41
695.357	41.59
695.541	41.6
695.726	41.59
695.911	42.93
696.096	42.42
696.281	42.81
696.466	42.48
696.65	42.39
696.835	42.04
697.02	41.98
697.204	41.84
697.389	42.06
697.574	41.89
697.759	42.14
697.943	41.47
698.128	41.62
698.312	41.51
698.497	41.3
698.682	41.38
698.866	41.25
699.051	41.16
699.235	41.06
699.42	40.76
699.604	41.05
699.789	40.79
699.973	40.59
700.158	40.88
700.342	40.78
700.527	40.95
700.711	41.07
700.895	40.98
701.08	41.72
701.264	41.99
701.448	42.01
701.633	41.87
701.817	41.66
702.001	42.02
702.186	41.6
702.37	42.07
702.554	41.95
702.738	41.96
702.923	42.13
703.107	41.6
703.291	41.75
703.475	42
703.659	42.31
703.843	43.22
704.027	43.45
704.212	43.58
704.396	42.95
704.58	42.51
704.764	42.16
704.948	42
705.132	41.58
705.316	41.53
705.5	41.74
705.684	41.76
705.868	41.21
706.052	41.02
706.235	40.97
706.419	41.25
706.603	42.29
706.787	42.64
706.971	43.27
707.155	43.32
707.339	43.73
707.522	43.7
707.706	43.68
707.89	43.87
708.074	43.78
708.257	44.02
708.441	44.48
708.625	44.25
708.808	44.31
708.992	44.06
709.176	44.34
709.359	43.77
709.543	43.69
709.727	43.55
709.91	43.37
710.094	43.28
710.277	43.73
710.461	42.79
710.644	42.42
710.828	42.04
711.011	41.85
711.195	41.93
711.378	42.09
711.562	41.59
711.745	41.7
711.928	41.64
712.112	41.6
712.295	41.08
712.478	41.15
712.662	41.75
712.845	42.17
713.028	42.27
713.212	42.08
713.395	42.02
713.578	42.8
713.761	42.6
713.945	43
714.128	42.98
714.311	42.98
714.494	43.1
714.677	43.05
714.86	42.88
715.043	42.84
715.227	43
715.41	42.92
715.593	42.59
715.776	42.64
715.959	42.59
716.142	43.13
716.325	42.54
716.508	42.89
716.691	42.64
716.874	42.76
717.057	43.23
717.239	42.7
717.422	42.37
717.605	42.24
717.788	42.1
717.971	42.53
718.154	42.17
718.337	43.36
718.519	43.37
718.702	43.75
718.885	43.08
719.068	42.82
719.25	43.55
719.433	43.73
719.616	43.82
719.798	43.34
719.981	43.19
720.164	43.02
720.346	42.64
720.529	43.27
720.712	43.56
720.894	44.15
721.077	44.3
721.259	43.32
721.442	44.12
721.624	44.75
721.807	45.49
721.989	45.06
722.172	45.38
722.354	45.49
722.537	45.32
722.719	43.98
722.901	43.8
723.084	43.43
723.266	43.88
723.448	44.56
723.631	43.45
723.813	43.29
723.995	42.6
724.178	42.03
724.36	42.21
724.542	41.47
724.724	42.04
724.907	42.85
725.089	43.13
725.271	44.19
725.453	42.47
725.635	43.23
725.817	44.37
725.999	45.02
726.181	46.17
726.364	45.97
726.546	46.08
726.728	46.52
726.91	46.02
727.092	45.81
727.274	45.36
727.456	46.22
727.638	46.23
727.819	45.15
728.001	45.11
728.183	44.72
728.365	44.77
728.547	44.53
728.729	44.85
728.911	45.1
729.093	45.34
729.274	43.66
729.456	43.3
729.638	42.89
729.82	42.97
730.001	43.36
730.183	43.51
730.365	43.35
730.546	43.56
730.728	42.76
730.91	42.37
731.091	42.15
731.273	43.34
731.455	43.93
731.636	43.78
731.818	44.84
731.999	44.45
732.181	44.42
732.362	44.04
732.544	45.08
732.725	45.19
732.907	45.71
733.088	45.79
733.27	46.63
733.451	46.53
733.633	48.13
733.814	46.72
733.995	47.44
734.177	46.81
734.358	46.5
734.539	45.66
734.721	45.39
734.902	44.8
735.083	44.29
735.264	44.41
735.446	44.55
735.627	43.43
735.808	43.33
735.989	43.17
736.17	44.29
736.351	44.77
736.533	44.81
736.714	44.56
736.895	44.69
737.076	45.59
737.257	44.18
737.438	44.04
737.619	44.46
737.8	45.86
737.981	45.4
738.162	45.13
738.343	46.15
738.524	45.97
738.705	46.99
738.886	47.09
739.067	46.61
739.247	47.5
739.428	47.6
739.609	46.58
739.79	46.9
739.971	46.21
740.151	46.23
740.332	45.65
740.513	45.11
740.694	45.54
740.874	45.6
741.055	45.98
741.236	45.83
741.417	45.59
741.597	45.73
741.778	45.1
741.958	45.87
742.139	45.69
742.32	45.49
742.5	45.79
742.681	45.7
742.861	44.81
743.042	44.05
743.222	43.47
743.403	43.28
743.583	43.72
743.764	43.96
743.944	43.8
744.124	43.89
744.305	43.78
744.485	44.83
744.666	43.7
744.846	44.58
745.026	45.44
745.207	45.99
745.387	46.76
745.567	47.46
745.747	47.21
745.928	47.47
746.108	47.54
746.288	48.23
746.468	47.34
746.648	47.65
746.829	47.66
747.009	47.84
747.189	48.48
747.369	47.71
747.549	46.96
747.729	46.52
747.909	46.09
748.089	45.67
748.269	45.59
748.449	46.44
748.629	46.05
748.809	46.17
748.989	46.47
749.169	45.2
749.349	45.39
749.529	45.69
749.709	45.67
749.889	46.03
750.068	45.99
750.248	46
750.428	46.07
750.608	46.74
750.788	46.78
750.967	45.77
751.147	46.43
751.327	46.17
751.507	45.76
751.686	45.93
751.866	46.92
752.046	47.21
752.225	47.2
752.405	47.17
752.585	46.1
752.764	46.01
752.944	46.74
753.123	47.32
753.303	47.32
753.482	47.68
753.662	47.86
753.841	46.26
754.021	46.31
754.2	46.04
754.38	45.62
754.559	46.45
754.739	45.34
754.918	45.5
755.097	44.7
755.277	44.92
755.456	45.66
755.635	45.52
755.815	46.41
755.994	46.17
756.173	45.84
756.352	45.63
756.532	45.14
756.711	46.18
756.89	44.77
757.069	45.88
757.248	45.97
757.427	45.13
757.607	44.93
757.786	44.36
757.965	43.84
758.144	45.05
758.323	45.1
758.502	45.85
758.681	46.36
758.86	47.6
759.039	46.79
759.218	47.14
759.397	47.56
759.576	47.37
759.755	47.51
759.934	47.32
760.113	46.9
760.291	47.01
760.47	47.54
760.649	47.06
760.828	46.48
761.007	46.76
761.186	45.89
761.364	45.02
761.543	45.49
761.722	45.07
761.901	45.42
762.079	45.48
762.258	45.43
762.437	45.54
762.615	45.14
762.794	45.91
762.972	45.76
763.151	45.93
763.33	45.94
763.508	45.84
763.687	45.82
763.865	46.17
764.044	45.36
764.222	44.84
764.401	44.35
764.579	44.43
764.758	43.99
764.936	44.44
765.114	44.46
765.293	45.09
765.471	45.11
765.65	45.79
765.828	45.96
766.006	47.12
766.184	48.74
766.363	48.4
766.541	48.12
766.719	48.81
766.898	48.43
767.076	49.08
767.254	48.65
767.432	49.48
767.61	48.84
767.788	48.6
767.967	48.43
768.145	47.43
768.323	47.23
768.501	49.2
768.679	48.39
768.857	48.2
769.035	48.27
769.213	49.67
769.391	49.84
769.569	50.7
769.747	52.16
769.925	51.82
770.103	51.2
770.281	50.95
770.459	50.7
770.636	50.98
770.814	51.37
770.992	51.2
771.17	50.58
771.348	50.48
771.525	51.81
771.703	49.92
771.881	50.47
772.059	52.49
772.236	52.93
772.414	52.03
772.592	52.39
772.769	52.16
772.947	51.15
773.125	49.73
773.302	49.01
773.48	47.6
773.657	48.08
773.835	47.17
774.013	45.15
774.19	47.7
774.368	46.49
774.545	47.53
774.723	47.93
774.9	47.68
775.077	48.65
775.255	48.38
775.432	49.25
775.61	50.43
775.787	50.33
775.964	50.54
776.142	49.68
776.319	51.61
776.496	50.45
776.674	49.65
776.851	49.26
777.028	48.97
777.205	50.99
777.382	50.35
777.56	49.53
777.737	52.66
777.914	53.23
778.091	52.3
778.268	52.9
778.445	52.99
778.622	53.09
778.8	53.28
778.977	53.74
779.154	57.14
779.331	56.8
779.508	56
779.685	53.27
779.862	52.23
780.038	52.1
780.215	51.57
780.392	51.28
780.569	51.17
780.746	53.51
780.923	54.06
781.1	50.71
781.277	50.21
781.453	49.09
781.63	49.01
781.807	49.76
781.984	50.36
782.16	51.02
782.337	51.31
782.514	50.93
782.691	52.72
782.867	50.68
783.044	48.61
783.221	50.34
783.397	52.57
783.574	53.19
783.75	55.08
783.927	57.64
784.103	56.82
784.28	57.36
784.456	58.71
784.633	54.78
784.809	55.28
784.986	55.54
785.162	53.82
785.339	52.95
785.515	52.33
785.692	49.48
785.868	46.64
786.044	47.42
786.221	46.98
786.397	45.19
786.573	47.09
786.749	47.05
786.926	47.8
787.102	49.32
787.278	50.04
787.454	50.53
787.631	53.06
787.807	53.19
787.983	51.44
788.159	50.97
788.335	51.7
788.511	50.7
788.687	51.21
788.863	49.66
789.039	50.44
789.216	50.47
789.392	50.6
789.568	50.87
789.744	52.41
789.919	52.68
790.095	51.83
790.271	52.43
790.447	52.27
790.623	52.37
790.799	52.38
790.975	50.34
791.151	49.57
791.327	50.37
791.502	48.97
791.678	46.81
791.854	48.33
792.03	50.29
792.205	52.06
792.381	51.92
792.557	52.37
792.733	51.43
792.908	52.79
793.084	53.98
793.259	52.8
793.435	52.35
793.611	52.8
793.786	51.55
793.962	51.08
794.137	50.36
794.313	50.27
794.488	49.72
794.664	52.74
794.839	50.94
795.015	51.69
795.19	51.41
795.366	52.13
795.541	51.21
795.716	50.74
795.892	51.45
796.067	50.26
796.242	50.78
796.418	50.69
796.593	48.81
796.768	49.79
796.944	49.62
797.119	49.73
797.294	49.3
797.469	50.54
797.644	51.85
797.82	50.32
797.995	49.26
798.17	47.67
798.345	47.3
798.52	47.45
798.695	48.58
798.87	46.94
799.045	47.92
799.22	48.95
799.395	48.95
799.57	49.52
799.745	50.24
799.92	50.58
800.095	52.62
800.27	54.36
800.445	54.31
800.62	51.4
800.795	53.08
800.97	52.46
801.145	51.38
801.319	52.37
801.494	51.45
801.669	52.31
801.844	56.25
802.018	54.24
802.193	52.62
802.368	53.08
802.543	55.43
802.717	56.37
802.892	56.34
803.067	57.42
803.241	55.06
803.416	57.65
803.59	57.39
803.765	53.01
803.94	55.18
804.114	55.22
804.289	56.75
804.463	56.51
804.638	54.53
804.812	54.34
804.986	53.05
805.161	51.85
805.335	48.24
805.51	46.38
805.684	47.67
805.858	47.35
806.033	45.48
806.207	44.11
806.381	45.53
806.556	44.15
806.73	43.91
806.904	43.78
807.078	44.66
807.253	47.97
807.427	48.41
807.601	50.03
807.775	51.18
807.949	56.07
808.123	58.29
808.298	58.76
808.472	61.21
808.646	60.49
808.82	61.05
808.994	62.11
809.168	61.27
809.342	61.57
809.516	61.37
809.69	61.52
809.864	58.91
810.038	60.24
810.212	59.03
810.385	59.27
810.559	61.79
810.733	64.69
810.907	63.97
811.081	61.65
811.255	62.06
811.428	61.31
811.602	59.08
811.776	60.06
811.95	56.52
812.123	55.8
812.297	55.91
812.471	55.2
812.644	51.82
812.818	54.76
812.992	55.56
813.165	55.67
813.339	53.45
813.512	52.28
813.686	53.19
813.86	54.54
814.033	55.31
814.207	54.79
814.38	52.69
814.554	53.51
814.727	51.79
814.9	52.2
815.074	52.77
815.247	55.45
815.421	55.13
815.594	53.88
815.767	52.77
815.941	54.17
816.114	56.47
816.287	56.64
816.46	55.24
816.634	54.45
816.807	55.06
816.98	55.34
817.153	57.46
817.327	59.7
817.5	62.33
817.673	65.72
817.846	65.78
818.019	65.41
818.192	67.55
818.365	65.41
818.538	66.58
818.711	62.76
818.884	62.09
819.057	59.46
819.23	59.49
819.403	56.85
819.576	55.13
819.749	53.58
819.922	52.23
820.095	50.66
820.268	53.01
820.441	53.29
820.614	51.87
820.786	50.74
820.959	50.33
821.132	49.16
821.305	48.46
821.477	47.33
821.65	46.97
821.823	46.99
821.996	46.3
822.168	45.76
822.341	45.01
822.514	45.6
822.686	45.57
822.859	45.21
823.031	44.95
823.204	45.24
823.376	45.23
823.549	45.13
823.722	44.96
823.894	45.6
824.067	45.53
824.239	45.8
824.411	46.36
824.584	46.63
824.756	47.04
824.929	48.07
825.101	48.42
825.273	48.76
825.446	48.86
825.618	48.63
825.79	48.38
825.963	48.81
826.135	49.01
826.307	48.4
826.479	47.88
826.652	47.42
826.824	46
826.996	45.09
827.168	44.92
827.34	45.49
827.512	46.39
827.684	46.41
827.856	46.8
828.029	47.24
828.201	47.37
828.373	47.91
828.545	48.88
828.717	49.4
828.889	49.46
829.061	49.89
829.232	50.8
829.404	49.77
829.576	50.21
829.748	49.46
829.92	49.03
830.092	50.42
830.264	50.79
830.436	51.24
830.607	52.04
830.779	53.48
830.951	54.49
831.123	51.45
831.294	51.34
831.466	51.9
831.638	52.46
831.809	52.41
831.981	50.86
832.153	51.76
832.324	49.9
832.496	50.08
832.667	50.92
832.839	50.85
833.011	53.43
833.182	54.56
833.354	53.73
833.525	55.6
833.697	55.68
833.868	54.71
834.039	55.51
834.211	55.86
834.382	54.95
834.554	55.11
834.725	53.91
834.896	52.8
835.068	52.75
835.239	51.62
835.41	51.74
835.581	52.54
835.753	53.25
835.924	51.6
836.095	51.13
836.266	51.38
836.438	49.36
836.609	48.62
836.78	48.75
836.951	48.64
837.122	51.27
837.293	51.3
837.464	49.64
837.635	51.24
837.806	51
837.977	52.7
838.148	55.27
838.319	56.78
838.49	59.1
838.661	59.07
838.832	60.99
839.003	58.99
839.174	56.73
839.345	55.21
839.516	54.8
839.687	56.35
839.857	56.62
840.028	57.28
840.199	56.21
840.37	56.59
840.54	62.99
840.711	59.43
840.882	63.38
841.053	63.71
841.223	67.21
841.394	65.51
841.564	67.96
841.735	67.09
841.906	62.68
842.076	58.39
842.247	59.94
842.417	54.74
842.588	57.13
842.758	54.83
842.929	59.21
843.099	61.45
843.27	63.97
843.44	65.36
843.611	66.64
843.781	66.25
843.951	70.1
844.122	67.48
844.292	70.02
844.462	74.38
844.633	72.81
844.803	70.77
844.973	69.31
845.144	68.53
845.314	65.29
845.484	61.79
845.654	67.85
845.824	70.77
845.995	76.48
846.165	72.02
846.335	67.51
846.505	68.61
846.675	71.3
846.845	76.02
847.015	76.31
847.185	76.57
847.355	76.45
847.525	78.48
847.695	89.65
847.865	82.71
848.035	87
848.205	87.91
848.375	96.09
848.545	76.98
848.715	74.77
848.884	69.77
849.054	69.21
849.224	81.79
849.394	80.37
849.564	72.69
849.733	81.73
849.903	82.87
850.073	85.38
850.243	78.8
850.412	79.57
850.582	79.07
850.752	78.96
850.921	75.56
851.091	69.92
851.26	72.19
851.43	65.52
851.599	56.83
851.769	64.27
851.939	59.74
852.108	68.73
852.278	82.23
852.447	77.44
852.616	83.83
852.786	85.7
852.955	83.73
853.125	87.38
853.294	94.24
853.463	100.62
853.633	88.79
853.802	92.37
853.971	86.24
854.141	90.95
854.31	93.31
854.479	85.85
854.648	88.35
854.818	84.42
854.987	77.84
855.156	83.32
855.325	86.03
855.494	94.58
855.663	95.65
855.832	94.74
856.001	87.71
856.171	91.96
856.34	102.77
856.509	105.19
856.678	127.12
856.847	137.2
857.016	129.28
857.185	120.56
857.353	112.04
857.522	114.18
857.691	110.1
857.86	114.61
858.029	104.52
858.198	103.28
858.367	104.41
858.535	97.03
858.704	81.1
858.873	80.55
859.042	83.31
859.21	96.71
859.379	97.97
859.548	92.98
859.717	97.59
859.885	97.91
860.054	91.21
860.222	82.97
860.391	96.28
860.56	97.95
860.728	98.41
860.897	97.37
861.065	88.88
861.234	86.17
861.402	93.18
861.571	86.58
861.739	93.8
861.908	94.31
862.076	102.35
862.244	92.96
862.413	93.08
862.581	98.35
862.749	93.34
862.918	82.91
863.086	83.36
863.254	81.51
863.423	80.19
863.591	80.36
863.759	86.56
863.927	86.2
864.096	80.28
864.264	79.25
864.432	68.57
864.6	77.73
864.768	81.94
864.936	82.04
865.104	81.77
865.272	88.86
865.44	91.82
865.608	94.76
865.776	99.03
865.944	107.21
866.112	108.38
866.28	108.58
866.448	102.95
866.616	99.03
866.784	98.17
866.952	97.07
867.12	91.1
867.288	89.34
867.455	89.86
867.623	84.67
867.791	83.41
867.959	78.1
868.127	78.48
868.294	88.89
868.462	87.34
868.63	85.58
868.797	84.59
868.965	86.82
869.133	80.74
869.3	77.96
869.468	73.92
869.636	54.36
869.803	64.12
869.971	77.58
870.138	74.07
870.306	70.6
870.473	78.25
870.641	81.8
870.808	72.42
870.975	82.97
871.143	83.76
871.31	94.79
871.478	121.69
871.645	117.25
871.812	110.85
871.98	106.51
872.147	107.73
872.314	102.46
872.482	92.19
872.649	100.65
872.816	97.86
872.983	86.97
873.15	79.35
873.318	76.23
873.485	84.74
873.652	83.13
873.819	89.52
873.986	104.92
874.153	104.02
874.32	117.87
874.487	120.23
874.654	111.11
874.821	130.42
874.988	124.98
875.155	120.49
875.322	112.17
875.489	118.4
875.656	101.1
875.823	94.82
875.99	87.67
876.157	97.8
876.324	93.5
876.49	95.28
876.657	85.45
876.824	89.77
876.991	96.34
877.157	90.21
877.324	83.28
877.491	93.92
877.658	91.54
877.824	97.53
877.991	87.65
878.157	91.17
878.324	85.59
878.491	88.26
878.657	93.92
878.824	89.14
878.99	83.56
879.157	96.25
879.323	88.45
879.49	87.8
879.656	86.97
879.823	89.13
879.989	85.15
880.156	86.75
880.322	86.29
880.488	78.75
880.655	80.3
880.821	89
880.987	80.88
881.154	81.07
881.32	80.17
881.486	77.98
881.652	70.95
881.819	69.45
881.985	66.69
882.151	65.1
882.317	63.9
882.483	57.85
882.649	57.54
882.816	57.3
882.982	54.93
883.148	52.71
883.314	49.34
883.48	52.69
883.646	50.94
883.812	49.28
883.978	48.34
884.144	47.41
884.31	46.64
884.476	47.09
884.642	47.87
884.807	49.9
884.973	51.43
885.139	52.83
885.305	52.13
885.471	53.74
885.637	54.49
885.802	55.4
885.968	57.16
886.134	60.86
886.3	58.11
886.465	55.84
886.631	52.76
886.797	53.08
886.962	54.41
887.128	53.46
887.293	52.59
887.459	54.29
887.625	54.94
887.79	55.41
887.956	54.21
888.121	58.84
888.287	60.97
888.452	66.66
888.618	65.66
888.783	67.59
