Data from LC_190_Reflection_3.txt Node
Date: Tue Nov 17 13:31:00 EST 2015
User: robert
Spectrometer: USB4E03001
Autoset integration time: false
Trigger mode: 4
Integration Time (sec): 1.000000E-1
Scans to average: 15
Electric dark correction enabled: true
Nonlinearity correction enabled: false
Boxcar width: 5
Stray light correction enabled: false
XAxis mode: Wavelengths
Stop averaging: false
Number of Pixels in Spectrum: 3648
>>>>>Begin Spectral Data<<<<<
177.566	181.05
177.785	288.34
178.005	-1430.6
178.225	387.01
178.445	-444.58
178.665	-159.11
178.885	-43.61
179.105	-249.8
179.324	495.23
179.544	765.17
179.764	201.82
179.984	86.06
180.204	140.68
180.423	320.4
180.643	471.19
180.863	-1875.86
181.083	-2371.94
181.302	532.89
181.522	240.76
181.742	876.89
181.961	12098.04
182.181	-798.4
182.401	-222.78
182.621	-458.66
182.84	-397.23
183.06	-1235.44
183.279	1210.88
183.499	-8709.24
183.719	-801.09
183.938	-263.43
184.158	-357.13
184.377	-284.97
184.597	-257.76
184.816	254.97
185.036	285.13
185.256	306.35
185.475	179.98
185.695	220.76
185.914	156.63
186.134	167.73
186.353	92.95
186.572	79.49
186.792	116.57
187.011	108.33
187.231	278.63
187.45	953.07
187.67	253.16
187.889	277.57
188.108	234.12
188.328	198.76
188.547	224.95
188.766	-1034.4
188.986	1029.54
189.205	285.28
189.424	312.82
189.644	225.73
189.863	166.17
190.082	183.06
190.302	230.92
190.521	260.42
190.74	5657.79
190.959	716.47
191.178	178.81
191.398	143.36
191.617	364.87
191.836	297.07
192.055	230.73
192.274	-653.84
192.494	-397.24
192.713	-1262.36
192.932	-618.48
193.151	1190.2
193.37	18266.67
193.589	-734000
193.808	19605.62
194.027	-2727.52
194.246	-1188.18
194.465	5229.56
194.685	559.96
194.904	368.3
195.123	59216.67
195.342	1443.06
195.561	484.9
195.78	399.69
195.999	464.75
196.218	304.79
196.436	257.73
196.655	186.46
196.874	207.03
197.093	209.62
197.312	193.67
197.531	155.85
197.75	163.97
197.969	172.24
198.188	182.66
198.407	175.48
198.625	191.74
198.844	196.66
199.063	158.13
199.282	165.19
199.501	133.76
199.719	188.13
199.938	149.35
200.157	169.16
200.376	273.19
200.594	170.67
200.813	170.13
201.032	270.36
201.251	267.12
201.469	4259.13
201.688	1208.65
201.907	-5966.95
202.125	1803.58
202.344	1979.8
202.563	1738.67
202.781	1290.41
203	-1251
203.218	-183.92
203.437	-252.92
203.656	-149.5
203.874	-317.36
204.093	-541.4
204.311	-503.42
204.53	13380.26
204.748	-583.2
204.967	2379.69
205.185	470.14
205.404	279.6
205.622	309.47
205.841	229.74
206.059	247.04
206.278	206.98
206.496	206.49
206.715	188.69
206.933	190.67
207.151	162.16
207.37	155.23
207.588	179.55
207.806	207.7
208.025	177.07
208.243	183.19
208.461	187.31
208.68	306.96
208.898	-488.68
209.116	-1003.4
209.335	2325.15
209.553	-1566.32
209.771	664.96
209.989	290.69
210.208	374.14
210.426	324.99
210.644	341.86
210.862	256.93
211.081	192.05
211.299	136.12
211.517	167.37
211.735	162.85
211.953	157.2
212.171	181.85
212.39	416.74
212.608	377.01
212.826	581.52
213.044	547.78
213.262	527.84
213.48	-21619.4
213.698	-1075.08
213.916	463.13
214.134	-983.55
214.352	-293.84
214.57	-334.44
214.788	3177.81
215.006	1189.84
215.224	969.92
215.442	681.95
215.66	725.42
215.878	453.81
216.096	213.28
216.314	226.59
216.532	136.47
216.75	110.42
216.968	115.42
217.185	133.41
217.403	135.73
217.621	128.46
217.839	138.83
218.057	163.98
218.275	163.49
218.492	196.12
218.71	205.94
218.928	231.83
219.146	258.78
219.363	293.4
219.581	225.25
219.799	273.7
220.017	294.6
220.234	300.3
220.452	217.68
220.67	182.97
220.887	181.52
221.105	200.46
221.323	181.9
221.54	161.64
221.758	137.54
221.976	152.44
222.193	106.17
222.411	111.33
222.629	101.81
222.846	106.71
223.064	123.05
223.281	127.17
223.499	108.89
223.716	111.05
223.934	125.4
224.151	109.1
224.369	90.25
224.586	108.86
224.804	108.63
225.021	118.88
225.239	112.47
225.456	109.87
225.674	93.77
225.891	99.35
226.108	108.73
226.326	105.14
226.543	104.04
226.76	99.73
226.978	83.8
227.195	76.1
227.413	62.13
227.63	56.33
227.847	49.79
228.064	49.81
228.282	43.36
228.499	41.27
228.716	37.73
228.934	36.96
229.151	36.08
229.368	33.64
229.585	30.91
229.802	34.7
230.02	36.14
230.237	34.17
230.454	33.99
230.671	36.02
230.888	34.72
231.105	35.2
231.323	35.78
231.54	38.07
231.757	40.07
231.974	41.7
232.191	33.89
232.408	33.91
232.625	39.77
232.842	43.04
233.059	41.74
233.276	45.54
233.493	46.48
233.71	47.98
233.927	44.5
234.144	48.18
234.361	52.72
234.578	59.41
234.795	54.21
235.012	50.07
235.229	40.65
235.446	37.45
235.663	35.68
235.879	36.55
236.096	36.57
236.313	37.58
236.53	35.13
236.747	33.55
236.964	29.54
237.181	35.83
237.397	38.79
237.614	41.48
237.831	45.07
238.048	44.1
238.264	42.03
238.481	39.62
238.698	33.4
238.915	33.68
239.131	35.36
239.348	37.99
239.565	35.21
239.781	39.75
239.998	39.61
240.215	38.65
240.431	36.42
240.648	34.28
240.865	34.05
241.081	36.87
241.298	35.75
241.514	32.25
241.731	28.85
241.947	26.26
242.164	21.68
242.38	18.98
242.597	18.4
242.814	18.38
243.03	19.15
243.246	18.24
243.463	16.66
243.679	15.6
243.896	15.63
244.112	15.78
244.329	17.75
244.545	18.67
244.762	19.69
244.978	18.67
245.194	19.35
245.411	18.99
245.627	18.89
245.843	18.98
246.06	17.37
246.276	14.61
246.492	13.54
246.709	13.33
246.925	13.51
247.141	14.22
247.357	13.99
247.574	13.9
247.79	12.88
248.006	12.02
248.222	11.97
248.439	12.67
248.655	13.68
248.871	14.07
249.087	13.71
249.303	13.6
249.519	13.8
249.736	14.74
249.952	13.64
250.168	18.48
250.384	19.78
250.6	19.2
250.816	19.19
251.032	18.53
251.248	17.01
251.464	17.42
251.68	17.19
251.896	17.27
252.112	15.14
252.328	15.76
252.544	11.99
252.76	13.53
252.976	13.83
253.192	14.17
253.408	17.32
253.624	19.18
253.84	19.29
254.056	18.54
254.272	17.59
254.487	20.6
254.703	23.77
254.919	24.95
255.135	25.05
255.351	23.97
255.567	20.48
255.782	13.31
255.998	11.23
256.214	12.11
256.43	13.88
256.646	16.42
256.861	14.68
257.077	13.03
257.293	14.96
257.508	13.51
257.724	14.57
257.94	15.66
258.155	16.3
258.371	17.39
258.587	15.32
258.802	13.74
259.018	11.19
259.234	10.78
259.449	11.39
259.665	10.17
259.88	10.29
260.096	10.85
260.312	10.68
260.527	10.84
260.743	10.79
260.958	10.86
261.174	11
261.389	12.12
261.605	12.77
261.82	12.22
262.036	13.33
262.251	13.1
262.466	11.58
262.682	13.51
262.897	13.6
263.113	13.22
263.328	14.3
263.543	15.74
263.759	15.13
263.974	16.53
264.189	16.42
264.405	17.12
264.62	19.88
264.835	22.54
265.051	20.89
265.266	21.82
265.481	22.71
265.696	23.53
265.912	22.57
266.127	22.45
266.342	18.38
266.557	17.72
266.773	17.29
266.988	16.06
267.203	14.44
267.418	16.5
267.633	17.38
267.848	16.02
268.064	13.49
268.279	12.72
268.494	11.57
268.709	13.46
268.924	13.85
269.139	12.36
269.354	12.09
269.569	13.63
269.784	12.24
269.999	10.13
270.214	10.91
270.429	12.56
270.644	11.8
270.859	11.62
271.074	11.35
271.289	11.07
271.504	11.19
271.719	10.79
271.934	9.78
272.149	9.3
272.363	10.13
272.578	10.66
272.793	10.35
273.008	10.86
273.223	11.75
273.438	11.4
273.653	12.03
273.867	12.83
274.082	12.58
274.297	12.96
274.512	13.79
274.726	12.81
274.941	11.6
275.156	12.16
275.371	12.5
275.585	12.63
275.8	13.21
276.015	12.72
276.229	12.28
276.444	10.43
276.659	10.39
276.873	9.27
277.088	11.16
277.302	10.79
277.517	8.85
277.732	8.42
277.946	8.15
278.161	8.24
278.375	7.69
278.59	9.33
278.804	11.07
279.019	10.65
279.233	10.74
279.448	10.59
279.662	11.35
279.877	13.24
280.091	11.75
280.306	11.73
280.52	11.31
280.735	12.26
280.949	9.62
281.163	9.65
281.378	11
281.592	10.87
281.806	9.49
282.021	9.6
282.235	9.43
282.449	11.42
282.664	12.33
282.878	13.22
283.092	11.85
283.307	12.61
283.521	14.15
283.735	12.87
283.949	12.42
284.164	13.1
284.378	11.76
284.592	11.51
284.806	10.82
285.02	9.49
285.234	8.61
285.449	8.73
285.663	8.63
285.877	7.9
286.091	7.7
286.305	8.02
286.519	7.94
286.733	8.88
286.947	8.69
287.161	8.91
287.375	9.12
287.589	9.66
287.803	10.14
288.017	10.84
288.231	11.01
288.445	11.62
288.659	11.79
288.873	10.59
289.087	10.61
289.301	11.3
289.515	11.84
289.729	12.02
289.943	11.33
290.157	11.44
290.371	10.28
290.584	10.46
290.798	10.88
291.012	11.66
291.226	13.4
291.44	13.66
291.654	13.54
291.867	12.74
292.081	11.72
292.295	12.42
292.509	11.47
292.722	12.64
292.936	12.14
293.15	12.38
293.364	11.2
293.577	10.29
293.791	8.62
294.005	8.65
294.218	9.74
294.432	11.12
294.645	11.09
294.859	11.3
295.073	10.62
295.286	10.49
295.5	9.2
295.713	9.47
295.927	9.7
296.14	10.4
296.354	9.5
296.568	9.24
296.781	9.18
296.994	8.99
297.208	9.92
297.421	9.85
297.635	10.05
297.848	9.87
298.062	9.71
298.275	9.7
298.489	9.4
298.702	10.07
298.915	10.14
299.129	10.13
299.342	10.23
299.555	9.1
299.769	9.57
299.982	9.9
300.195	10.34
300.409	11.28
300.622	10.8
300.835	11.84
301.048	11.47
301.262	10.83
301.475	11.07
301.688	11.12
301.901	11.98
302.115	12.34
302.328	11.52
302.541	11.95
302.754	11.44
302.967	10.97
303.18	10.69
303.393	10.22
303.607	11
303.82	10.66
304.033	10.26
304.246	9.9
304.459	9.88
304.672	10.54
304.885	10.05
305.098	10.36
305.311	11.81
305.524	11.93
305.737	13.33
305.95	13.5
306.163	12.04
306.376	11.52
306.589	11.08
306.802	10.43
307.015	10.23
307.228	12.54
307.44	11.84
307.653	11.11
307.866	11.31
308.079	10.9
308.292	10.38
308.505	12.22
308.718	11.88
308.93	12.72
309.143	13.4
309.356	12.71
309.569	11.16
309.781	11.92
309.994	9.92
310.207	9.84
310.42	8.54
310.632	7.67
310.845	7.67
311.058	8.07
311.27	7.15
311.483	6.14
311.696	6.04
311.908	5.88
312.121	5.54
312.333	6.99
312.546	7.04
312.759	7.71
312.971	8.48
313.184	8.89
313.396	8.66
313.609	10.17
313.821	11.32
314.034	12.29
314.246	13.17
314.459	12.92
314.671	12.97
314.884	12.31
315.096	12.26
315.309	12.53
315.521	12.17
315.733	12.86
315.946	11.51
316.158	11.88
316.371	11.45
316.583	11.93
316.795	11.93
317.008	12.4
317.22	13.27
317.432	14.92
317.644	14.28
317.857	14.99
318.069	15.6
318.281	16.95
318.494	15.82
318.706	15.64
318.918	14.44
319.13	15.55
319.342	15.73
319.555	14.55
319.767	13.28
319.979	13.75
320.191	12.57
320.403	12.83
320.615	11.85
320.827	11.32
321.039	13.17
321.252	12.89
321.464	12.47
321.676	13.65
321.888	15.07
322.1	15.2
322.312	15.2
322.524	15.33
322.736	14.3
322.948	14.84
323.16	14.54
323.372	12.35
323.584	13.11
323.796	13.68
324.007	12.9
324.219	12.81
324.431	13.35
324.643	13.94
324.855	14.8
325.067	16.07
325.279	16.17
325.491	17.22
325.702	17.53
325.914	17.39
326.126	16.7
326.338	17.16
326.55	16.11
326.761	16.42
326.973	16.24
327.185	15.58
327.396	14.89
327.608	14.63
327.82	14.1
328.032	14.71
328.243	14.16
328.455	14.78
328.666	14.37
328.878	15.8
329.09	15.36
329.301	15.27
329.513	15.53
329.725	16.94
329.936	17.35
330.148	19.1
330.359	19.48
330.571	19.66
330.782	19.4
330.994	19.2
331.205	18.11
331.417	18.06
331.628	18.75
331.84	19.65
332.051	18.82
332.262	19.04
332.474	18.1
332.685	18.75
332.897	19.14
333.108	19.1
333.319	19.56
333.531	19.83
333.742	19.91
333.953	18.97
334.165	17.95
334.376	18.4
334.587	18.62
334.799	18.77
335.01	17.78
335.221	17.65
335.432	16.62
335.644	16.52
335.855	17.17
336.066	17.87
336.277	18.61
336.488	19.05
336.7	18.92
336.911	18.05
337.122	18.29
337.333	18.27
337.544	19.31
337.755	20.23
337.966	20.99
338.177	21.2
338.388	20.46
338.599	20.71
338.811	20.39
339.022	20.14
339.233	19.74
339.444	18.94
339.655	20.29
339.866	19.98
340.076	18.94
340.287	18
340.498	17.7
340.709	18.55
340.92	17.49
341.131	17.43
341.342	17.55
341.553	18.38
341.764	19.38
341.975	19.34
342.185	18.45
342.396	19.16
342.607	18.86
342.818	19.68
343.029	18.24
343.239	19.12
343.45	19.26
343.661	19.07
343.872	19.29
344.082	18.95
344.293	18.27
344.504	19.9
344.714	19.73
344.925	19.88
345.136	18.3
345.346	18.78
345.557	18.04
345.768	18.2
345.978	17.74
346.189	17.93
346.399	17.72
346.61	17.17
346.821	15.86
347.031	16.06
347.242	16.16
347.452	17.28
347.663	17.1
347.873	16.77
348.084	15.72
348.294	16.68
348.504	15.7
348.715	15.88
348.925	16.69
349.136	16.35
349.346	15.97
349.557	16.67
349.767	16.17
349.977	16.34
350.188	17.47
350.398	19.03
350.608	18.44
350.819	18.81
351.029	18.67
351.239	18.96
351.449	19.39
351.66	20.25
351.87	19.36
352.08	19.82
352.29	20.22
352.501	19.31
352.711	19.12
352.921	18.75
353.131	19.04
353.341	18.78
353.552	17.48
353.762	18.22
353.972	17.9
354.182	18.56
354.392	18.39
354.602	18.65
354.812	18.91
355.022	18.84
355.232	18.95
355.442	18.52
355.652	18.42
355.862	19.14
356.072	18.6
356.282	18.84
356.492	18.49
356.702	18.33
356.912	18.3
357.122	18.43
357.332	18.48
357.542	18.54
357.752	18.78
357.962	19.04
358.171	18.7
358.381	18.72
358.591	18.04
358.801	17.96
359.011	18.03
359.221	18.2
359.43	18.3
359.64	17.65
359.85	17.38
360.06	17.15
360.269	16.92
360.479	16.8
360.689	16.42
360.899	16.65
361.108	16.46
361.318	16.13
361.528	15.31
361.737	15.41
361.947	15.37
362.156	15.74
362.366	15.78
362.576	15.58
362.785	15.8
362.995	15.89
363.204	15.8
363.414	16.13
363.623	16.02
363.833	16.05
364.042	15.58
364.252	15.27
364.461	15.02
364.671	15.6
364.88	15.57
365.09	15.42
365.299	15.33
365.509	15.21
365.718	15.29
365.927	15.15
366.137	16.47
366.346	17.41
366.555	17.69
366.765	17.46
366.974	16.57
367.183	16.84
367.393	16.27
367.602	16.36
367.811	16.31
368.021	15.86
368.23	16.71
368.439	15.87
368.648	14.7
368.857	15.08
369.067	15.41
369.276	16.14
369.485	16.57
369.694	16.72
369.903	16.94
370.112	17.04
370.321	17.52
370.531	16.23
370.74	15.82
370.949	15.93
371.158	16.18
371.367	15.94
371.576	15.53
371.785	15.05
371.994	15.63
372.203	15.2
372.412	15.13
372.621	14.3
372.83	14.74
373.039	15.33
373.248	15.83
373.457	15.49
373.666	15.39
373.874	15.63
374.083	15.52
374.292	15.23
374.501	15.28
374.71	15.14
374.919	15.63
375.128	15.38
375.336	14.93
375.545	14.47
375.754	14.03
375.963	13.99
376.171	13.72
376.38	14.52
376.589	14.34
376.798	13.87
377.006	14.13
377.215	14.29
377.424	14.34
377.632	14.02
377.841	14.26
378.05	14.66
378.258	14.74
378.467	14.54
378.675	13.84
378.884	14.24
379.093	14.41
379.301	14.24
379.51	14.2
379.718	14.36
379.927	14.81
380.135	14.39
380.344	14.42
380.552	14.25
380.761	14.3
380.969	14.38
381.177	14.02
381.386	13.87
381.594	13.8
381.803	13.44
382.011	13.65
382.219	13.31
382.428	13.66
382.636	13.47
382.845	13.6
383.053	13.63
383.261	13.56
383.469	13.87
383.678	14.36
383.886	14.07
384.094	14.01
384.302	13.74
384.511	13.75
384.719	13.34
384.927	13.46
385.135	13.55
385.343	13.42
385.552	13.64
385.76	13.57
385.968	13.19
386.176	13.42
386.384	13.42
386.592	13.51
386.8	13.71
387.008	13.77
387.216	13.65
387.424	13.77
387.633	13.69
387.841	13.35
388.049	13.08
388.257	13.4
388.465	12.83
388.672	12.69
388.88	12.56
389.088	12.73
389.296	12.84
389.504	12.85
389.712	12.66
389.92	12.32
390.128	12.51
390.336	12.55
390.544	12.45
390.751	13.15
390.959	13.26
391.167	13.44
391.375	13.21
391.583	13.04
391.79	12.92
391.998	13
392.206	13.32
392.414	12.88
392.621	12.99
392.829	12.97
393.037	12.57
393.244	12.37
393.452	11.93
393.66	11.76
393.867	11.84
394.075	11.7
394.283	11.4
394.49	11.23
394.698	11.42
394.905	11.24
395.113	11.33
395.32	11.43
395.528	11.46
395.735	11.81
395.943	11.8
396.15	11.88
396.358	12
396.565	11.87
396.773	12.13
396.98	12.39
397.188	12.65
397.395	12.17
397.602	12.19
397.81	12.42
398.017	12.22
398.225	12.32
398.432	12.32
398.639	12.32
398.847	12.78
399.054	12.36
399.261	12.12
399.468	11.61
399.676	12.06
399.883	11.74
400.09	11.36
400.297	11.69
400.505	11.58
400.712	11.56
400.919	11.62
401.126	11.52
401.333	11.89
401.54	11.71
401.748	12.19
401.955	12.07
402.162	12.55
402.369	12.86
402.576	12.77
402.783	12.6
402.99	12.55
403.197	12.45
403.404	12.07
403.611	11.87
403.818	11.73
404.025	11.31
404.232	11.19
404.439	10.95
404.646	10.86
404.853	10.81
405.06	10.9
405.267	10.65
405.474	10.28
405.681	10.31
405.887	10.38
406.094	10.81
406.301	10.93
406.508	10.9
406.715	10.98
406.922	10.93
407.128	10.7
407.335	10.51
407.542	10.65
407.749	11.08
407.955	11.21
408.162	11.28
408.369	11.07
408.575	11.26
408.782	11.28
408.989	11.18
409.195	11.4
409.402	11.64
409.609	11.83
409.815	11.6
410.022	11.47
410.228	11.27
410.435	11.31
410.642	11.28
410.848	11.28
411.055	11.4
411.261	11.48
411.468	11.52
411.674	11.08
411.881	10.79
412.087	11.09
412.294	11.12
412.5	11.06
412.706	10.97
412.913	10.83
413.119	10.84
413.326	10.7
413.532	10.68
413.738	10.33
413.945	10.44
414.151	10.49
414.357	10.64
414.564	10.78
414.77	10.87
414.976	10.88
415.182	11.13
415.389	10.89
415.595	10.89
415.801	10.85
416.007	11.01
416.214	11.19
416.42	11.16
416.626	10.87
416.832	10.79
417.038	10.93
417.244	10.78
417.45	10.84
417.657	10.72
417.863	10.68
418.069	10.68
418.275	10.52
418.481	10.53
418.687	10.57
418.893	10.62
419.099	10.36
419.305	10.43
419.511	10.4
419.717	10.3
419.923	10.28
420.129	10.2
420.335	10.14
420.541	10.09
420.746	9.88
420.952	9.89
421.158	9.86
421.364	9.92
421.57	9.79
421.776	9.8
421.982	9.79
422.187	9.76
422.393	9.8
422.599	9.73
422.805	9.64
423.01	9.68
423.216	9.65
423.422	9.74
423.628	9.71
423.833	9.79
424.039	9.57
424.245	9.49
424.45	9.49
424.656	9.5
424.862	9.56
425.067	9.62
425.273	9.74
425.478	9.76
425.684	9.59
425.889	9.84
426.095	9.75
426.301	10.02
426.506	10.02
426.712	10.06
426.917	9.94
427.123	9.97
427.328	10.14
427.533	10
427.739	9.97
427.944	10.05
428.15	9.82
428.355	9.79
428.561	9.72
428.766	9.61
428.971	9.59
429.177	9.75
429.382	9.74
429.587	9.75
429.793	9.81
429.998	9.7
430.203	9.75
430.408	9.78
430.614	9.78
430.819	9.78
431.024	9.88
431.229	9.96
431.434	10.07
431.64	10.2
431.845	10.22
432.05	10.27
432.255	10.4
432.46	10.43
432.665	10.41
432.87	10.41
433.076	10.34
433.281	10.35
433.486	10.52
433.691	10.35
433.896	10.08
434.101	10
434.306	10.07
434.511	10.06
434.716	9.85
434.921	9.74
435.126	9.75
435.331	9.79
435.535	9.82
435.74	9.83
435.945	9.94
436.15	9.95
436.355	10.07
436.56	9.85
436.765	10.02
436.97	10.25
437.174	10.21
437.379	10.27
437.584	10.55
437.789	10.44
437.993	10.26
438.198	10.23
438.403	10.23
438.608	10.18
438.812	10.24
439.017	10.01
439.222	9.94
439.426	9.83
439.631	9.81
439.836	9.66
440.04	9.66
440.245	9.65
440.45	9.57
440.654	9.65
440.859	9.56
441.063	9.6
441.268	9.64
441.472	9.66
441.677	9.91
441.881	9.92
442.086	9.86
442.29	9.92
442.495	10.09
442.699	10.21
442.904	10.25
443.108	10.14
443.312	10.17
443.517	10.11
443.721	10.14
443.925	10.01
444.13	9.91
444.334	9.91
444.538	9.72
444.743	9.4
444.947	9.34
445.151	9.19
445.356	9.43
445.56	9.34
445.764	9.44
445.968	9.4
446.173	9.37
446.377	9.37
446.581	9.43
446.785	9.59
446.989	9.77
447.193	9.79
447.398	9.92
447.602	9.88
447.806	9.88
448.01	9.8
448.214	9.78
448.418	9.83
448.622	9.88
448.826	9.86
449.03	9.84
449.234	9.75
449.438	9.69
449.642	9.72
449.846	9.59
450.05	9.58
450.254	9.51
450.458	9.46
450.662	9.33
450.866	9.36
451.069	9.31
451.273	9.14
451.477	9.25
451.681	9.4
451.885	9.32
452.089	9.25
452.292	9.34
452.496	9.45
452.7	9.42
452.904	9.58
453.107	9.44
453.311	9.48
453.515	9.57
453.719	9.43
453.922	9.31
454.126	9.15
454.33	9.42
454.533	9.29
454.737	9.33
454.94	9.2
455.144	9.27
455.348	9.33
455.551	9.31
455.755	9.46
455.958	9.41
456.162	9.36
456.365	9.51
456.569	9.32
456.772	9.4
456.976	9.39
457.179	9.63
457.383	9.51
457.586	9.64
457.79	9.73
457.993	9.86
458.196	9.95
458.4	10.06
458.603	10.12
458.807	10.19
459.01	10.14
459.213	10.13
459.417	10.09
459.62	10.11
459.823	9.99
460.026	9.85
460.23	9.6
460.433	9.57
460.636	9.38
460.839	9.27
461.042	9.21
461.246	9.25
461.449	9.34
461.652	9.28
461.855	9.3
462.058	9.37
462.261	9.49
462.464	9.67
462.668	9.65
462.871	9.75
463.074	9.79
463.277	9.71
463.48	9.73
463.683	9.61
463.886	9.71
464.089	9.64
464.292	9.5
464.495	9.48
464.698	9.21
464.901	9.49
465.104	9.67
465.306	9.81
465.509	9.89
465.712	9.81
465.915	10.05
466.118	10.02
466.321	9.87
466.524	9.8
466.726	9.82
466.929	10.17
467.132	10.05
467.335	9.92
467.538	9.82
467.74	9.77
467.943	9.99
468.146	9.57
468.348	9.63
468.551	9.76
468.754	10.01
468.956	9.89
469.159	9.69
469.362	9.59
469.564	9.66
469.767	9.66
469.969	9.86
470.172	9.78
470.375	9.89
470.577	9.84
470.78	9.64
470.982	9.58
471.185	9.62
471.387	9.59
471.59	9.79
471.792	9.73
471.995	9.9
472.197	9.81
472.399	9.74
472.602	9.88
472.804	9.91
473.007	10.15
473.209	10.18
473.411	10.09
473.614	10.15
473.816	10.01
474.018	9.96
474.22	9.7
474.423	9.61
474.625	9.4
474.827	9.13
475.03	9.18
475.232	9.13
475.434	9.03
475.636	9.21
475.838	9.22
476.04	9.21
476.243	9.32
476.445	9.36
476.647	9.37
476.849	9.46
477.051	9.61
477.253	9.58
477.455	9.6
477.657	9.56
477.859	9.45
478.061	9.5
478.263	9.4
478.465	9.5
478.667	9.69
478.869	9.66
479.071	9.82
479.273	9.83
479.475	9.66
479.677	9.59
479.879	9.65
480.081	9.75
480.283	9.61
480.485	9.52
480.686	9.49
480.888	9.34
481.09	9.29
481.292	9.1
481.494	9.07
481.695	9.22
481.897	9.16
482.099	9.01
482.301	8.95
482.502	9.03
482.704	9.12
482.906	9.09
483.107	9.05
483.309	9.02
483.511	9.02
483.712	8.99
483.914	8.93
484.115	8.92
484.317	8.99
484.519	8.97
484.72	8.95
484.922	8.92
485.123	8.86
485.325	8.81
485.526	8.83
485.728	8.78
485.929	8.81
486.131	8.89
486.332	8.92
486.534	8.88
486.735	8.9
486.936	8.84
487.138	8.84
487.339	8.86
487.541	8.94
487.742	8.94
487.943	9.01
488.144	8.99
488.346	8.91
488.547	8.94
488.748	8.92
488.95	8.92
489.151	8.95
489.352	8.95
489.553	9
489.755	8.99
489.956	8.92
490.157	8.92
490.358	8.91
490.559	8.93
490.76	8.95
490.961	8.94
491.163	8.94
491.364	8.93
491.565	8.98
491.766	8.91
491.967	8.91
492.168	9.01
492.369	9.05
492.57	9.1
492.771	9.11
492.972	9.13
493.173	9.24
493.374	9.39
493.575	9.44
493.776	9.42
493.976	9.53
494.177	9.61
494.378	9.61
494.579	9.73
494.78	9.81
494.981	9.81
495.182	9.74
495.382	9.78
495.583	9.57
495.784	9.64
495.985	9.76
496.185	9.76
496.386	9.76
496.587	9.73
496.788	9.65
496.988	9.58
497.189	9.63
497.39	9.63
497.59	9.67
497.791	9.78
497.992	9.72
498.192	9.63
498.393	9.6
498.593	9.58
498.794	9.58
498.994	9.72
499.195	9.64
499.395	9.65
499.596	9.71
499.796	9.63
499.997	9.52
500.197	9.56
500.398	9.66
500.598	9.66
500.799	9.66
500.999	9.65
501.199	9.38
501.4	9.49
501.6	9.48
501.801	9.61
502.001	9.66
502.201	9.86
502.402	9.99
502.602	10.06
502.802	10.18
503.002	10.26
503.203	10.39
503.403	10.47
503.603	10.47
503.803	10.51
504.003	10.44
504.204	10.37
504.404	10.49
504.604	10.32
504.804	10.42
505.004	10.39
505.204	10.33
505.404	10.42
505.604	10.44
505.804	10.49
506.005	10.49
506.205	10.44
506.405	10.3
506.605	10.17
506.805	10.31
507.005	10.04
507.204	9.96
507.404	9.98
507.604	9.85
507.804	9.88
508.004	10
508.204	9.96
508.404	10.18
508.604	10.3
508.804	10.32
509.003	10.38
509.203	10.55
509.403	10.67
509.603	10.71
509.803	10.85
510.002	10.9
510.202	10.89
510.402	10.9
510.602	10.7
510.801	10.68
511.001	10.73
511.201	10.71
511.4	10.61
511.6	10.61
511.8	10.64
511.999	10.57
512.199	10.61
512.398	10.66
512.598	10.79
512.797	10.83
512.997	10.77
513.197	10.81
513.396	10.86
513.596	10.88
513.795	11
513.994	11.07
514.194	11.14
514.393	11.2
514.593	11.07
514.792	11.18
514.992	11.47
515.191	11.89
515.39	11.74
515.59	11.64
515.789	11.82
515.988	11.78
516.188	11.9
516.387	11.97
516.586	11.93
516.786	12.03
516.985	11.97
517.184	11.85
517.383	11.76
517.582	11.87
517.782	11.98
517.981	11.98
518.18	11.96
518.379	11.91
518.578	11.86
518.777	11.89
518.976	11.89
519.176	11.99
519.375	11.97
519.574	12.06
519.773	12.08
519.972	12.05
520.171	12.1
520.37	12.16
520.569	12.12
520.768	12.22
520.967	12.29
521.166	12.36
521.365	12.27
521.564	12.34
521.762	12.34
521.961	12.36
522.16	12.64
522.359	12.63
522.558	12.58
522.757	12.68
522.956	12.75
523.154	12.82
523.353	12.84
523.552	12.93
523.751	13.11
523.949	13.03
524.148	13.15
524.347	12.98
524.546	13.07
524.744	13.2
524.943	13.27
525.142	13.22
525.34	13.25
525.539	13.36
525.737	13.4
525.936	13.42
526.135	13.53
526.333	13.56
526.532	13.57
526.73	13.62
526.929	13.64
527.127	13.67
527.326	13.65
527.524	13.59
527.723	13.51
527.921	13.57
528.12	13.52
528.318	13.44
528.516	13.43
528.715	13.42
528.913	13.43
529.112	13.39
529.31	13.31
529.508	13.41
529.707	13.44
529.905	13.48
530.103	13.37
530.301	13.35
530.5	13.38
530.698	13.4
530.896	13.47
531.094	13.55
531.293	13.58
531.491	13.69
531.689	13.66
531.887	13.72
532.085	13.75
532.283	13.97
532.481	14.07
532.68	14.11
532.878	14.17
533.076	14.18
533.274	14.17
533.472	14.26
533.67	14.24
533.868	14.33
534.066	14.34
534.264	14.38
534.462	14.32
534.66	14.31
534.858	14.33
535.056	14.27
535.253	14.39
535.451	14.44
535.649	14.44
535.847	14.64
536.045	14.64
536.243	14.71
536.441	14.69
536.638	14.82
536.836	14.82
537.034	14.96
537.232	15.07
537.43	15.06
537.627	15.04
537.825	15.08
538.023	15.08
538.22	15.11
538.418	15.16
538.616	15.36
538.813	15.37
539.011	15.54
539.209	15.56
539.406	15.67
539.604	15.78
539.801	15.91
539.999	16.03
540.196	16.11
540.394	16.12
540.591	16.04
540.789	16.06
540.986	16.1
541.184	16.03
541.381	16.01
541.579	15.94
541.776	15.91
541.974	15.79
542.171	15.78
542.368	15.77
542.566	15.77
542.763	15.84
542.96	15.78
543.158	15.69
543.355	15.71
543.552	15.72
543.75	15.83
543.947	15.81
544.144	15.89
544.341	16
544.539	16.01
544.736	15.99
544.933	15.92
545.13	16.1
545.327	16.35
545.524	16.46
545.722	16.65
545.919	16.62
546.116	16.78
546.313	16.94
546.51	16.89
546.707	17.1
546.904	17.22
547.101	17.48
547.298	17.37
547.495	17.38
547.692	17.28
547.889	17.22
548.086	17.51
548.283	17.52
548.48	17.57
548.677	17.58
548.874	17.39
549.07	17.35
549.267	17.37
549.464	17.49
549.661	17.57
549.858	17.95
550.055	18.2
550.251	18.15
550.448	18.34
550.645	18.49
550.842	18.71
551.038	18.96
551.235	19.17
551.432	19.12
551.628	19.18
551.825	19.06
552.022	19.07
552.218	19
552.415	19.03
552.612	19.01
552.808	19
553.005	18.82
553.201	18.76
553.398	18.76
553.594	18.93
553.791	19.18
553.987	19.15
554.184	19.18
554.38	19.26
554.577	19.32
554.773	19.28
554.97	19.23
555.166	19.58
555.362	19.71
555.559	19.76
555.755	19.84
555.952	19.77
556.148	19.97
556.344	20.16
556.541	20.11
556.737	20.11
556.933	20.32
557.129	20.78
557.326	20.8
557.522	20.88
557.718	21.07
557.914	21.01
558.11	21.02
558.307	21.13
558.503	21.18
558.699	21.46
558.895	21.53
559.091	21.67
559.287	21.64
559.483	21.7
559.679	21.66
559.876	21.69
560.072	22.01
560.268	22.27
560.464	22.2
560.66	22.2
560.856	22.05
561.052	22.13
561.247	21.98
561.443	21.93
561.639	21.87
561.835	22.05
562.031	22.15
562.227	22.03
562.423	21.93
562.619	22.11
562.815	22.22
563.01	22.38
563.206	22.48
563.402	22.7
563.598	22.7
563.793	22.73
563.989	22.72
564.185	23.01
564.381	23.02
564.576	23.13
564.772	23.04
564.968	23.07
565.163	23.15
565.359	23.31
565.555	23.19
565.75	23.42
565.946	23.49
566.141	23.52
566.337	23.25
566.532	23.43
566.728	23.59
566.923	24.02
567.119	24.12
567.314	24.25
567.51	24.29
567.705	24.5
567.901	24.33
568.096	24.3
568.292	24.3
568.487	24.73
568.682	24.77
568.878	24.68
569.073	24.41
569.268	24.28
569.464	24.37
569.659	24.5
569.854	24.59
570.05	24.51
570.245	24.72
570.44	24.82
570.635	24.8
570.831	24.93
571.026	25.14
571.221	25.32
571.416	25.33
571.611	25.29
571.806	25.15
572.002	25.08
572.197	25.35
572.392	25.41
572.587	25.55
572.782	25.5
572.977	25.45
573.172	25.4
573.367	25.36
573.562	25.42
573.757	25.43
573.952	25.46
574.147	25.61
574.342	25.55
574.537	25.68
574.732	25.62
574.927	25.65
575.121	25.66
575.316	25.78
575.511	25.92
575.706	26.02
575.901	26.05
576.096	26.2
576.29	26.29
576.485	26.39
576.68	26.52
576.875	26.67
577.069	27.04
577.264	27.26
577.459	27.21
577.654	27.18
577.848	27.39
578.043	27.63
578.238	27.6
578.432	27.64
578.627	27.81
578.821	27.64
579.016	27.82
579.21	27.53
579.405	27.55
579.6	27.73
579.794	27.93
579.989	27.94
580.183	27.9
580.378	27.9
580.572	27.98
580.766	28.25
580.961	28.5
581.155	28.43
581.35	28.39
581.544	28.42
581.738	28.36
581.933	28.41
582.127	28.64
582.321	28.55
582.516	28.53
582.71	28.63
582.904	28.48
583.099	28.52
583.293	28.54
583.487	28.7
583.681	28.94
583.875	29.1
584.07	29.12
584.264	29.05
584.458	29.31
584.652	29.73
584.846	29.58
585.04	29.53
585.234	29.69
585.428	29.91
585.623	30.18
585.817	30.09
586.011	30.14
586.205	30.38
586.399	30.54
586.593	30.5
586.787	30.42
586.981	30.34
587.174	30.54
587.368	30.44
587.562	30.49
587.756	30.27
587.95	30.34
588.144	30.59
588.338	30.49
588.532	30.36
588.725	30.58
588.919	30.76
589.113	31.14
589.307	31.07
589.501	31.32
589.694	31.38
589.888	31.34
590.082	31.45
590.275	31.34
590.469	31.35
590.663	31.28
590.856	31.04
591.05	31.11
591.244	31.03
591.437	31.29
591.631	31.08
591.824	31.21
592.018	31.53
592.212	31.36
592.405	31.39
592.599	31.49
592.792	31.78
592.986	31.89
593.179	31.92
593.372	31.95
593.566	32.12
593.759	32.42
593.953	32.36
594.146	32.35
594.339	32.58
594.533	32.46
594.726	32.5
594.92	32.56
595.113	32.81
595.306	32.84
595.499	32.93
595.693	32.8
595.886	32.65
596.079	32.75
596.272	32.72
596.466	32.61
596.659	32.79
596.852	32.72
597.045	32.69
597.238	32.58
597.431	32.4
597.624	32.39
597.818	32.25
598.011	32.17
598.204	32.16
598.397	32.22
598.59	32.29
598.783	32.28
598.976	32.25
599.169	32.29
599.362	32.5
599.555	32.94
599.748	33.21
599.941	33.49
600.134	33.58
600.326	33.6
600.519	33.76
600.712	33.79
600.905	33.78
601.098	34.31
601.291	34.24
601.483	34.32
601.676	34.02
601.869	34.01
602.062	33.8
602.255	34.03
602.447	33.91
602.64	33.74
602.833	33.71
603.025	33.77
603.218	33.52
603.411	33.54
603.603	33.48
603.796	33.61
603.989	33.49
604.181	33.65
604.374	33.55
604.566	33.56
604.759	33.75
604.951	33.81
605.144	33.81
605.336	33.86
605.529	33.87
605.721	34.03
605.914	34.18
606.106	34.37
606.299	34.63
606.491	34.65
606.683	34.93
606.876	35.14
607.068	35.14
607.26	35.37
607.453	35.48
607.645	35.65
607.837	35.43
608.03	35.3
608.222	35.34
608.414	35.24
608.606	35.43
608.799	35.32
608.991	35.12
609.183	35.15
609.375	35.23
609.567	35.42
609.759	35.56
609.952	35.64
610.144	35.6
610.336	35.52
610.528	35.36
610.72	35.37
610.912	35.42
611.104	35.49
611.296	35.79
611.488	35.87
611.68	35.84
611.872	35.84
612.064	35.87
612.256	36.27
612.448	36.07
612.64	36.32
612.832	36.54
613.023	36.56
613.215	36.62
613.407	36.52
613.599	36.32
613.791	36.44
613.983	36.54
614.174	36.84
614.366	36.51
614.558	36.81
614.75	36.75
614.941	36.8
615.133	36.83
615.325	37.03
615.516	37.18
615.708	37.13
615.9	37
616.091	37.22
616.283	37.08
616.475	37.27
616.666	37.38
616.858	37.69
617.049	37.69
617.241	37.59
617.432	37.33
617.624	37.37
617.815	37.48
618.007	37.53
618.198	37.29
618.39	37.44
618.581	37.43
618.773	37.8
618.964	37.65
619.155	37.91
619.347	38.29
619.538	38.52
619.729	38.65
619.921	38.54
620.112	38.33
620.303	38.29
620.494	38.18
620.686	38.27
620.877	37.95
621.068	38.2
621.259	37.81
621.451	37.62
621.642	37.73
621.833	37.23
622.024	37.72
622.215	37.97
622.406	38.15
622.597	38.14
622.788	38.24
622.98	38.41
623.171	38.4
623.362	38.71
623.553	39.28
623.744	39.33
623.935	39.71
624.126	39.16
624.317	38.97
624.508	39
624.698	38.92
624.889	38.84
625.08	38.91
625.271	38.74
625.462	38.35
625.653	38.17
625.844	38.05
626.034	37.92
626.225	38.41
626.416	38.5
626.607	38.6
626.798	38.82
626.988	38.59
627.179	38.76
627.37	38.76
627.56	38.84
627.751	38.88
627.942	38.8
628.132	38.9
628.323	38.73
628.514	38.83
628.704	38.66
628.895	38.7
629.085	38.93
629.276	38.47
629.466	38.69
629.657	38.85
629.847	38.79
630.038	38.88
630.228	39.1
630.419	39.3
630.609	39.36
630.8	39.65
630.99	39.6
631.181	39.69
631.371	39.76
631.561	39.67
631.752	39.87
631.942	40.05
632.132	40.2
632.323	40.04
632.513	39.74
632.703	39.72
632.893	39.71
633.084	39.69
633.274	39.8
633.464	39.91
633.654	39.79
633.844	39.76
634.034	39.8
634.225	39.81
634.415	40.05
634.605	40.5
634.795	40.69
634.985	40.72
635.175	40.97
635.365	40.68
635.555	40.91
635.745	41.62
635.935	41.72
636.125	41.72
636.315	41.77
636.505	41.64
636.695	41.48
636.885	41.47
637.075	41.76
637.265	41.87
637.455	42.15
637.644	42.14
637.834	41.6
638.024	41.44
638.214	41.55
638.404	41.39
638.593	41.28
638.783	41.04
638.973	41.2
639.163	40.88
639.352	41.26
639.542	41.17
639.732	41.27
639.921	41.51
640.111	41.95
640.301	41.9
640.49	42.46
640.68	43.12
640.87	43.5
641.059	43.47
641.249	43.7
641.438	43.38
641.628	43.94
641.817	44.35
642.007	44.35
642.196	44.17
642.386	44.18
642.575	44.36
642.764	44.18
642.954	44.07
643.143	44.25
643.333	44.19
643.522	44.17
643.711	43.69
643.901	43.11
644.09	42.98
644.279	43.3
644.469	43.17
644.658	42.94
644.847	42.67
645.036	43.04
645.226	42.89
645.415	42.72
645.604	42.78
645.793	43.25
645.982	43.53
646.171	43.73
646.361	43.54
646.55	43.72
646.739	43.52
646.928	43.52
647.117	42.97
647.306	43.12
647.495	43.4
647.684	43.33
647.873	43.12
648.062	43.38
648.251	43.17
648.44	43.06
648.629	42.93
648.818	43.09
649.007	43.31
649.196	43.21
649.384	43
649.573	42.66
649.762	42.6
649.951	42.81
650.14	42.65
650.328	42.77
650.517	42.98
650.706	43.38
650.895	43.56
651.083	43.67
651.272	44.16
651.461	44.11
651.65	44.25
651.838	44.02
652.027	43.98
652.216	43.99
652.404	43.85
652.593	44.04
652.781	43.7
652.97	43.99
653.158	44.05
653.347	44.13
653.535	44.46
653.724	44.6
653.912	45.03
654.101	45.08
654.289	45.02
654.478	45.26
654.666	44.89
654.855	45.05
655.043	44.12
655.231	43.86
655.42	44.14
655.608	44.16
655.796	44.34
655.985	44.34
656.173	44.4
656.361	44.8
656.55	44.52
656.738	44.53
656.926	44.77
657.114	45.13
657.302	45.21
657.491	44.87
657.679	44.35
657.867	44.19
658.055	44.29
658.243	43.98
658.431	43.67
658.619	44.03
658.807	44.21
658.996	44.13
659.184	44.13
659.372	44.16
659.56	44.17
659.748	44.5
659.936	44.44
660.124	44.23
660.311	44.23
660.499	44.14
660.687	44.1
660.875	44.16
661.063	44.18
661.251	44.13
661.439	44.26
661.627	44.47
661.814	44.59
662.002	44.62
662.19	45.07
662.378	45.1
662.565	45.57
662.753	45.81
662.941	46.11
663.129	45.91
663.316	46.29
663.504	46.78
663.692	46.85
663.879	46.86
664.067	47.5
664.254	47.36
664.442	47.82
664.63	48.01
664.817	47.69
665.005	47.45
665.192	48
665.38	47.97
665.567	47.58
665.755	47.38
665.942	47.41
666.13	47.38
666.317	47.8
666.504	48.13
666.692	47.34
666.879	47.53
667.067	47.38
667.254	47.32
667.441	47.5
667.629	47.35
667.816	47.53
668.003	47.28
668.19	47.15
668.378	46.89
668.565	46.62
668.752	47.16
668.939	47.36
669.127	47.79
669.314	47.68
669.501	47.39
669.688	47.58
669.875	47.71
670.062	47.91
670.249	48.05
670.436	48.11
670.623	48.33
670.81	48.52
670.997	48.6
671.184	48.17
671.371	48.5
671.558	48.87
671.745	49.28
671.932	49.44
672.119	49.56
672.306	49.59
672.493	49.32
672.68	49.11
672.867	48.82
673.054	48.49
673.24	48.58
673.427	48.5
673.614	48.79
673.801	48.79
673.988	48.34
674.174	48.32
674.361	48.32
674.548	48.61
674.734	48.59
674.921	49.15
675.108	49.6
675.294	49.6
675.481	49.58
675.668	49.61
675.854	49.2
676.041	49.54
676.227	49.7
676.414	49.8
676.601	50.28
676.787	50.39
676.974	50.24
677.16	50.19
677.347	50.28
677.533	50.35
677.719	49.88
677.906	50.05
678.092	50.53
678.279	50.52
678.465	50.33
678.651	49.85
678.838	50.03
679.024	49.63
679.21	49.37
679.397	49.12
679.583	48.66
679.769	48.46
679.955	48.36
680.142	47.85
680.328	47.76
680.514	47.29
680.7	47.47
680.886	47.37
681.073	47.76
681.259	47.7
681.445	47.94
681.631	48.38
681.817	48.57
682.003	48.65
682.189	48.89
682.375	49.13
682.561	49.75
682.747	49.5
682.933	49.52
683.119	49.27
683.305	49.51
683.491	49.72
683.677	49.5
683.863	49.69
684.049	49.99
684.235	49.88
684.42	50.04
684.606	50.05
684.792	50.24
684.978	50.22
685.164	50.31
685.349	50.28
685.535	50.22
685.721	49.94
685.907	50.06
686.092	49.92
686.278	50.39
686.464	50.35
686.649	50.45
686.835	49.88
687.021	49.58
687.206	49.54
687.392	49.79
687.577	50.05
687.763	50.52
687.948	50.26
688.134	50.09
688.319	49.56
688.505	49.63
688.69	49.45
688.876	50.07
689.061	49.91
689.247	50.02
689.432	49.88
689.618	49.59
689.803	49.51
689.988	50.23
690.174	50.31
690.359	50.77
690.544	50.52
690.73	50.4
690.915	50.53
691.1	51.15
691.285	50.91
691.471	50.85
691.656	50.62
691.841	50.74
692.026	49.91
692.211	49.66
692.396	48.92
692.582	49.31
692.767	49.86
692.952	49.71
693.137	49.77
693.322	50.37
693.507	50.47
693.692	50.77
693.877	50.87
694.062	51.18
694.247	51.58
694.432	52.11
694.617	51.79
694.802	51.04
694.987	51.03
695.172	51.25
695.357	50.8
695.541	51.01
695.726	50.94
695.911	51.42
696.096	51.42
696.281	51.28
696.466	51.1
696.65	50.77
696.835	50.58
697.02	50.58
697.204	49.91
697.389	50.11
697.574	49.74
697.759	49.77
697.943	49.04
698.128	49
698.312	48.89
698.497	48.55
698.682	48.46
698.866	48.67
699.051	48.8
699.235	49.16
699.42	48.89
699.604	49.22
699.789	49.26
699.973	49.16
700.158	49.14
700.342	49.25
700.527	49.52
700.711	50.05
700.895	49.97
701.08	50.39
701.264	50.26
701.448	50.74
701.633	50.51
701.817	50.51
702.001	51.41
702.186	51.47
702.37	52.1
702.554	52.49
702.738	52.94
702.923	53.7
703.107	53.82
703.291	53.74
703.475	53.89
703.659	54.26
703.843	54.65
704.027	54.65
704.212	55.15
704.396	55.01
704.58	55.27
704.764	54.83
704.948	54.9
705.132	54.11
705.316	54.81
705.5	54.46
705.684	54.73
705.868	55.07
706.052	54.77
706.235	55.11
706.419	54.81
706.603	54.96
706.787	55.11
706.971	54.85
707.155	55.23
707.339	54.53
707.522	54.52
707.706	54.67
707.89	54.61
708.074	54.67
708.257	54.19
708.441	54.54
708.625	54.72
708.808	55.01
708.992	55.42
709.176	55.52
709.359	55.44
709.543	55.98
709.727	55.14
709.91	54.88
710.094	54.75
710.277	54.75
710.461	55.03
710.644	54.79
710.828	54.28
711.011	54.24
711.195	53.87
711.378	54.24
711.562	54.14
711.745	54.64
711.928	54.76
712.112	54.55
712.295	54.21
712.478	54.33
712.662	54.5
712.845	54.96
713.028	54.66
713.212	54.88
713.395	54.9
713.578	54.59
713.761	54.65
713.945	54.45
714.128	55.1
714.311	55.78
714.494	54.55
714.677	54.47
714.86	54.48
715.043	54.09
715.227	53.74
715.41	53.73
715.593	53.58
715.776	53.05
715.959	53.41
716.142	52.94
716.325	52.75
716.508	53.27
716.691	52.68
716.874	52.15
717.057	52.39
717.239	52.72
717.422	52.43
717.605	53.02
717.788	53.23
717.971	53.4
718.154	53.67
718.337	53.41
718.519	53.63
718.702	53.83
718.885	54.06
719.068	54.5
719.25	54.5
719.433	55.15
719.616	54.6
719.798	54.89
719.981	54.62
720.164	54.53
720.346	54.96
720.529	55.07
720.712	55.33
720.894	56.22
721.077	56.56
721.259	56.5
721.442	56.5
721.624	57.28
721.807	57.56
721.989	57.39
722.172	58.13
722.354	58.08
722.537	58.67
722.719	58.53
722.901	57.56
723.084	56.7
723.266	57.18
723.448	58.03
723.631	57.83
723.813	57.93
723.995	57.86
724.178	56.34
724.36	56.53
724.542	56.41
724.724	56.85
724.907	56.66
725.089	57.7
725.271	57.45
725.453	56.42
725.635	56.22
725.817	56.03
725.999	56.66
726.181	57.67
726.364	57.21
726.546	56.26
726.728	56.81
726.91	57.1
727.092	56.32
727.274	56.64
727.456	56.9
727.638	56.29
727.819	55.51
728.001	54.2
728.183	53.87
728.365	53.31
728.547	53.14
728.729	53.07
728.911	53.25
729.093	53.22
729.274	52.67
729.456	52.25
729.638	52.81
729.82	53.37
730.001	53.9
730.183	53.37
730.365	53.45
730.546	54.83
730.728	54.87
730.91	55.33
731.091	55.46
731.273	55.76
731.455	56.65
731.636	57.29
731.818	57.91
731.999	57.76
732.181	59.65
732.362	60.79
732.544	60.59
732.725	59.96
732.907	59.52
733.088	60.38
733.27	60.43
733.451	60.07
733.633	59.41
733.814	59.1
733.995	59.86
734.177	59.12
734.358	58.56
734.539	58.2
734.721	58.6
734.902	58.37
735.083	57.9
735.264	58.06
735.446	57.77
735.627	58.5
735.808	58.62
735.989	59.12
736.17	59.11
736.351	59.65
736.533	59.23
736.714	59.1
736.895	59.41
737.076	60.11
737.257	60.32
737.438	60.67
737.619	60.56
737.8	60.28
737.981	59.26
738.162	58.89
738.343	59.38
738.524	60.39
738.705	60.31
738.886	59.92
739.067	59.44
739.247	59.78
739.428	60
739.609	59.6
739.79	59.98
739.971	60.06
740.151	60.42
740.332	59.77
740.513	59.01
740.694	59.17
740.874	59.48
741.055	59.4
741.236	59.06
741.417	59.49
741.597	60.31
741.778	60.97
741.958	61.46
742.139	62.19
742.32	62.7
742.5	63.53
742.681	63.62
742.861	64.28
743.042	64.33
743.222	64.37
743.403	64.97
743.583	64.06
743.764	63.68
743.944	64.05
744.124	63.43
744.305	63.27
744.485	63.51
744.666	62.6
744.846	62.7
745.026	62.26
745.207	61.92
745.387	61.72
745.567	62.12
745.747	61.24
745.928	61.64
746.108	62.6
746.288	62.27
746.468	61.09
746.648	63.47
746.829	63.7
747.009	65.37
747.189	66.03
747.369	64.79
747.549	65.07
747.729	65.3
747.909	64.86
748.089	63.06
748.269	62.96
748.449	63.99
748.629	63
748.809	62.68
748.989	61.32
749.169	60.47
749.349	61.69
749.529	62.18
749.709	62.82
749.889	63.05
750.068	64.3
750.248	64.6
750.428	63.92
750.608	63.86
750.788	63.86
750.967	64
751.147	65.23
751.327	64.35
751.507	63.57
751.686	64.07
751.866	63.46
752.046	63.16
752.225	63.57
752.405	63.89
752.585	63.95
752.764	64.17
752.944	63.67
753.123	63.84
753.303	63.87
753.482	64.88
753.662	64.15
753.841	65.14
754.021	64.63
754.2	64.34
754.38	64.84
754.559	64.99
754.739	63.64
754.918	64.46
755.097	62.9
755.277	63.9
755.456	63.48
755.635	63.15
755.815	63.56
755.994	64.15
756.173	65.7
756.352	64.71
756.532	64.19
756.711	66.12
756.89	66.35
757.069	66.75
757.248	65.09
757.427	65.01
757.607	65.53
757.786	64.42
757.965	63.61
758.144	61.78
758.323	61.87
758.502	61.63
758.681	59.93
758.86	58.89
759.039	59.65
759.218	59.64
759.397	59.16
759.576	59.07
759.755	58.82
759.934	59.34
760.113	59.33
760.291	59.8
760.47	59.81
760.649	59.72
760.828	59.15
761.007	58.64
761.186	58.73
761.364	58.18
761.543	57.47
761.722	56.51
761.901	56.2
762.079	56.65
762.258	56.37
762.437	56.16
762.615	56.3
762.794	57.06
762.972	56.71
763.151	56.78
763.33	56.79
763.508	56.82
763.687	56.7
763.865	56.13
764.044	55.24
764.222	53.61
764.401	53.29
764.579	54.01
764.758	54.51
764.936	54.63
765.114	54.79
765.293	54.4
765.471	55.08
765.65	56.02
765.828	56.66
766.006	57.66
766.184	59.99
766.363	61.06
766.541	60.74
766.719	60.2
766.898	60.46
767.076	60.64
767.254	61.8
767.432	61.54
767.61	61.35
767.788	62.96
767.967	62.8
768.145	61.73
768.323	62.06
768.501	62.39
768.679	62.51
768.857	63.54
769.035	64.75
769.213	65.92
769.391	66.39
769.569	67.44
769.747	66.86
769.925	66.93
770.103	69.99
770.281	69.57
770.459	70.6
770.636	71.93
770.814	70.63
770.992	69.5
771.17	69.43
771.348	68.51
771.525	68.74
771.703	68.73
771.881	69.2
772.059	67.92
772.236	67.33
772.414	67.59
772.592	68.57
772.769	69.48
772.947	70.86
773.125	70.36
773.302	71.08
773.48	71.72
773.657	71.59
773.835	72.12
774.013	72.14
774.19	74.55
774.368	75.21
774.545	75.12
774.723	75.73
774.9	74.77
775.077	75.93
775.255	76.66
775.432	77.07
775.61	76.97
775.787	77.63
775.964	77.97
776.142	76.84
776.319	75.37
776.496	73.02
776.674	72.25
776.851	71.23
777.028	69.16
777.205	68.01
777.382	66.64
777.56	67.68
777.737	67.85
777.914	68.11
778.091	67.43
778.268	66.79
778.445	67.03
778.622	66.45
778.8	68.64
778.977	68.98
779.154	77.15
779.331	77.1
779.508	76.86
779.685	76.33
779.862	75.72
780.038	76.57
780.215	77.86
780.392	78.9
780.569	80.56
780.746	79.69
780.923	81.26
781.1	75.02
781.277	75
781.453	73.12
781.63	73.54
781.807	74.63
781.984	75.12
782.16	73.11
782.337	72.49
782.514	71.76
782.691	73.32
782.867	72.56
783.044	72.04
783.221	72.11
783.397	73.21
783.574	72.77
783.75	71.59
783.927	71.67
784.103	73.5
784.28	72.7
784.456	72.86
784.633	70.73
784.809	69.95
784.986	69.24
785.162	67.58
785.339	68.09
785.515	66.97
785.692	65.51
785.868	64.82
786.044	64.8
786.221	67.89
786.397	67.57
786.573	68.35
786.749	68.1
786.926	67.42
787.102	69.11
787.278	68.5
787.454	69.22
787.631	70.91
787.807	70.2
787.983	69.58
788.159	68.56
788.335	68.04
788.511	66.06
788.687	66.95
788.863	67.45
789.039	67.57
789.216	67.26
789.392	65.65
789.568	64.08
789.744	65.04
789.919	64.61
790.095	62.19
790.271	64.25
790.447	65.31
790.623	65.3
790.799	65.2
790.975	65.49
791.151	65.93
791.327	67.12
791.502	67.52
791.678	66.62
791.854	67.09
792.03	68.85
792.205	67.11
792.381	65.68
792.557	65.78
792.733	66.14
792.908	65.81
793.084	67.45
793.259	68.99
793.435	69.97
793.611	69.58
793.786	69.13
793.962	68.44
794.137	69.01
794.313	70.51
794.488	70.2
794.664	69.99
794.839	70.38
795.015	67.79
795.19	66.47
795.366	65.37
795.541	66.01
795.716	65.83
795.892	66.19
796.067	64.31
796.242	65.85
796.418	64.55
796.593	64.02
796.768	63.46
796.944	64.74
797.119	64.84
797.294	67.16
797.469	65.29
797.644	64.53
797.82	64.94
797.995	65.08
798.17	63.37
798.345	66.18
798.52	67.04
798.695	66.93
798.87	66.49
799.045	67.69
799.22	66.4
799.395	68.54
799.57	69.83
799.745	69.06
799.92	71.11
800.095	73.1
800.27	72.43
800.445	72.04
800.62	72.43
800.795	72.21
800.97	71.25
801.145	70.6
801.319	70.93
801.494	71.63
801.669	73.97
801.844	73.84
802.018	71.98
802.193	71.45
802.368	71.01
802.543	73.4
802.717	76.27
802.892	74.2
803.067	74.08
803.241	74.86
803.416	73.89
803.59	72.44
803.765	73.24
803.94	75.9
804.114	77.08
804.289	77.67
804.463	75.07
804.638	73.16
804.812	74.99
804.986	74.78
805.161	72.23
805.335	70.56
805.51	68.75
805.684	68.12
805.858	66.88
806.033	64.5
806.207	65.36
806.381	65.33
806.556	66.13
806.73	66.05
806.904	65.04
807.078	66.09
807.253	66.84
807.427	70.55
807.601	68.52
807.775	69.35
807.949	69.83
808.123	69.3
808.298	69.43
808.472	71.69
808.646	73.19
808.82	75.3
808.994	74.33
809.168	76.98
809.342	73.91
809.516	76.83
809.69	77.74
809.864	80.14
810.038	82.9
810.212	84.83
810.385	80.21
810.559	79.44
810.733	78.26
810.907	80.62
811.081	76.6
811.255	79.53
811.428	78.85
811.602	75.43
811.776	73.89
811.95	71.9
812.123	69.64
812.297	69.73
812.471	68.45
812.644	69.73
812.818	67.97
812.992	67.52
813.165	67.14
813.339	67.2
813.512	69.88
813.686	71.54
813.86	69.35
814.033	72.28
814.207	74.57
814.38	76.06
814.554	75.85
814.727	75.86
814.9	79.09
815.074	77.25
815.247	79.17
815.421	73.8
815.594	73.9
815.767	75.12
815.941	72.84
816.114	72.95
816.287	73.29
816.46	73.33
816.634	74.92
816.807	74.21
816.98	74.59
817.153	73.32
817.327	73.95
817.5	76.25
817.673	75.78
817.846	78.01
818.019	76.07
818.192	76.41
818.365	78.74
818.538	77.63
818.711	74.91
818.884	77.01
819.057	77.97
819.23	77.58
819.403	74.82
819.576	75.49
819.749	72.52
819.922	70.57
820.095	69.98
820.268	67.48
820.441	66.92
820.614	68.11
820.786	66.26
820.959	62.27
821.132	61.55
821.305	59.04
821.477	55.99
821.65	54.43
821.823	53.84
821.996	52.86
822.168	52
822.341	50.77
822.514	49.79
822.686	48.88
822.859	48.38
823.031	48.4
823.204	48.38
823.376	48.76
823.549	48.72
823.722	48.93
823.894	49.31
824.067	48.97
824.239	49.13
824.411	49.06
824.584	49.43
824.756	50.28
824.929	50.3
825.101	49.66
825.273	49.65
825.446	49.43
825.618	49.41
825.79	48.54
825.963	49.26
826.135	49.59
826.307	50.1
826.479	50
826.652	49.02
826.824	49.92
826.996	50.62
827.168	50.7
827.34	51.56
827.512	51.39
827.684	51.63
827.856	51.19
828.029	51.33
828.201	50.79
828.373	50.6
828.545	51.83
828.717	51.1
828.889	51.91
829.061	53.29
829.232	54.19
829.404	55.29
829.576	55.24
829.748	56.1
829.92	57.09
830.092	58.79
830.264	59.82
830.436	59.76
830.607	61.57
830.779	61.58
830.951	61.67
831.123	60.72
831.294	61.1
831.466	62.9
831.638	64.53
831.809	64.23
831.981	63.32
832.153	63.95
832.324	63.97
832.496	59.84
832.667	60.1
832.839	60.77
833.011	61.49
833.182	63.13
833.354	62.53
833.525	61.99
833.697	61.01
833.868	59.87
834.039	59.85
834.211	58.58
834.382	59.26
834.554	58.75
834.725	57.51
834.896	56.18
835.068	53.96
835.239	53.35
835.41	52.99
835.581	54.41
835.753	55.21
835.924	53.29
836.095	53.03
836.266	53.81
836.438	53.55
836.609	51.89
836.78	52.42
836.951	52.96
837.122	52.03
837.293	53.21
837.464	52.46
837.635	52.84
837.806	56.17
837.977	58.8
838.148	60.47
838.319	63.66
838.49	66.96
838.661	67.67
838.832	66.47
839.003	69.54
839.174	73.32
839.345	74.94
839.516	79.18
839.687	79.76
839.857	83.96
840.028	80.63
840.199	81.64
840.37	80.1
840.54	82.73
840.711	81.95
840.882	82.02
841.053	75.4
841.223	71.75
841.394	70.33
841.564	69.16
841.735	67.54
841.906	69.36
842.076	69.02
842.247	70.82
842.417	70.43
842.588	72.22
842.758	72.52
842.929	73
843.099	77.82
843.27	77.95
843.44	77.96
843.611	76.05
843.781	71.38
843.951	69.11
844.122	65.63
844.292	64.58
844.462	64.63
844.633	61.35
844.803	62.74
844.973	59.45
845.144	56.85
845.314	60.29
845.484	59.64
845.654	68.15
845.824	75.1
845.995	80.02
846.165	85.77
846.335	90.92
846.505	109.01
846.675	114.7
846.845	116.46
847.015	125.72
847.185	124.12
847.355	135.37
847.525	128.2
847.695	122.59
847.865	118.39
848.035	107.3
848.205	109.35
848.375	97.86
848.545	93.58
848.715	96.85
848.884	101.46
849.054	99.27
849.224	88.34
849.394	89.9
849.564	93.65
849.733	96.31
849.903	100.28
850.073	83.75
850.243	81.23
850.412	80.64
850.582	80.78
850.752	80.47
850.921	79.81
851.091	87.34
851.26	94.54
851.43	88.9
851.599	90.69
851.769	85.17
851.939	100.4
852.108	105.82
852.278	113.73
852.447	110.17
852.616	108.01
852.786	107.67
852.955	111.73
853.125	101.8
853.294	107.49
853.463	96.06
853.633	98.85
853.802	91.34
853.971	88.41
854.141	84.88
854.31	83.73
854.479	80.49
854.648	79.03
854.818	74.07
854.987	80.47
855.156	78.19
855.325	97.76
855.494	110.56
855.663	121.44
855.832	123.45
856.001	133.32
856.171	137.49
856.34	139.29
856.509	140.07
856.678	139.76
856.847	140.07
857.016	121.34
857.185	112.82
857.353	108.55
857.522	100.57
857.691	100.7
857.86	99.24
858.029	102.36
858.198	114.97
858.367	120.51
858.535	132.76
858.704	135.8
858.873	155.97
859.042	140.68
859.21	139.06
859.379	133.9
859.548	135.21
859.717	128.15
859.885	130.36
860.054	118.49
860.222	115.91
860.391	104.46
860.56	102.59
860.728	95.38
860.897	97.45
861.065	97
861.234	99.29
861.402	99.47
861.571	101.05
861.739	96.76
861.908	97.46
862.076	101.39
862.244	110.5
862.413	105.76
862.581	104.84
862.749	107.25
862.918	108.26
863.086	94.34
863.254	89.49
863.423	85.53
863.591	87.8
863.759	86.08
863.927	82.62
864.096	84.52
864.264	81.58
864.432	85.55
864.6	88.09
864.768	89.84
864.936	96.34
865.104	101.81
865.272	107.24
865.44	111.62
865.608	114.87
865.776	118.56
865.944	105.47
866.112	111.22
866.28	121.27
866.448	123.88
866.616	119.98
866.784	121.23
866.952	113.92
867.12	114.93
867.288	110.72
867.455	107.35
867.623	107.24
867.791	125.02
867.959	128.87
868.127	125.66
868.294	121.62
868.462	104.76
868.63	94.2
868.797	99.65
868.965	99.26
869.133	102.28
869.3	108.65
869.468	97.57
869.636	93.65
869.803	88.14
869.971	77.55
870.138	80.06
870.306	89.3
870.473	93.29
870.641	93.86
870.808	92.91
870.975	85.53
871.143	76.82
871.31	83.76
871.478	78.26
871.645	78.02
871.812	86.01
871.98	95.65
872.147	93.67
872.314	97.81
872.482	87.71
872.649	87.6
872.816	88.91
872.983	94.06
873.15	97.46
873.318	104.62
873.485	112.78
873.652	112.91
873.819	107.77
873.986	93.78
874.153	86.41
874.32	89.6
874.487	87.7
874.654	89.47
874.821	89.24
874.988	87.62
875.155	85.68
875.322	88.63
875.489	94.04
875.656	93.85
875.823	110.72
875.99	116.36
876.157	120.73
876.324	128.54
876.49	131.89
876.657	124.01
876.824	114.79
876.991	121.25
877.157	118.21
877.324	115.72
877.491	114.46
877.658	103.97
877.824	104.88
877.991	102.99
878.157	95.48
878.324	95.56
878.491	101.57
878.657	100.27
878.824	85.21
878.99	74.17
879.157	74.2
879.323	71.59
879.49	73.85
879.656	73.03
879.823	80.33
879.989	84.35
880.156	85.92
880.322	85.68
880.488	89.46
880.655	96.7
880.821	100.37
880.987	97.62
881.154	99.92
881.32	102.04
881.486	99.2
881.652	94.44
881.819	89.77
881.985	85.58
882.151	80.06
882.317	73.91
882.483	71.15
882.649	68.77
882.816	63.9
882.982	59.3
883.148	58.24
883.314	56.27
883.48	52.71
883.646	50.61
883.812	50.47
883.978	50.58
884.144	51.74
884.31	51.16
884.476	50.68
884.642	52.17
884.807	52.98
884.973	52.37
885.139	53.31
885.305	54.72
885.471	56.37
885.637	56.24
885.802	57.01
885.968	56.79
886.134	57.37
886.3	58.1
886.465	58.96
886.631	62.24
886.797	63.79
886.962	65.49
887.128	69.85
887.293	70.93
887.459	74
887.625	76.86
887.79	76.48
887.956	83.35
888.121	86.28
888.287	86.87
888.452	83.67
888.618	86.51
888.783	85.08
