Data from LC_196_Reflection_2.txt Node
Date: Tue Nov 17 13:49:49 EST 2015
User: robert
Spectrometer: USB4E03001
Autoset integration time: false
Trigger mode: 4
Integration Time (sec): 1.000000E-1
Scans to average: 15
Electric dark correction enabled: true
Nonlinearity correction enabled: false
Boxcar width: 5
Stray light correction enabled: false
XAxis mode: Wavelengths
Stop averaging: false
Number of Pixels in Spectrum: 3648
>>>>>Begin Spectral Data<<<<<
177.566	291.07
177.785	321.9
178.005	-1719.03
178.225	402.52
178.445	-419.61
178.665	-197.11
178.885	-352.17
179.105	-488.58
179.324	930.6
179.544	1269.03
179.764	415.86
179.984	184.35
180.204	213.12
180.423	489.78
180.643	617.12
180.863	-2069.16
181.083	-3501.53
181.302	639.88
181.522	352.02
181.742	1200.71
181.961	15202.94
182.181	-832.45
182.401	-136.76
182.621	-417.39
182.84	-392.91
183.06	-1236.42
183.279	1588.02
183.499	-7809.24
183.719	-754.01
183.938	-244.23
184.158	-341.06
184.377	-393.5
184.597	-357.5
184.816	423.54
185.036	359.5
185.256	411.21
185.475	258.89
185.695	362.83
185.914	298.6
186.134	334.36
186.353	201.18
186.572	248.7
186.792	206.13
187.011	223.15
187.231	776.08
187.45	3320.4
187.67	673.28
187.889	777.75
188.108	483.82
188.328	440.7
188.547	447.62
188.766	-2142.58
188.986	1868.72
189.205	539.3
189.424	612.41
189.644	483.05
189.863	324
190.082	302
190.302	327.27
190.521	486.94
190.74	10432.47
190.959	1451.82
191.178	403.45
191.398	338.72
191.617	874.14
191.836	573.88
192.055	352.82
192.274	-830.48
192.494	-566.65
192.713	-1610.11
192.932	-619.76
193.151	1348.05
193.37	21766.67
193.589	-802000
193.808	21820.22
194.027	-3463.76
194.246	-1554.31
194.465	6646.69
194.685	764.05
194.904	552.45
195.123	94404.17
195.342	2344.32
195.561	698.46
195.78	524.91
195.999	630.14
196.218	421.74
196.436	340.07
196.655	235.52
196.874	290.01
197.093	290.95
197.312	244.44
197.531	213.42
197.75	211.26
197.969	235.77
198.188	244.42
198.407	235.24
198.625	265.48
198.844	238.2
199.063	224.29
199.282	218.73
199.501	196.9
199.719	272.01
199.938	226.34
200.157	251.5
200.376	582.1
200.594	294.64
200.813	213.17
201.032	287.8
201.251	300.64
201.469	4257.59
201.688	1309.59
201.907	-6504.66
202.125	2080.44
202.344	2236.96
202.563	2188.38
202.781	1386.25
203	-1796.4
203.218	-308.9
203.437	-480.39
203.656	-372.52
203.874	-901.88
204.093	-1237.94
204.311	-1181.22
204.53	20540.79
204.748	-913.52
204.967	3325.61
205.185	685.03
205.404	293.05
205.622	305.19
205.841	240.58
206.059	265.69
206.278	219.7
206.496	218.62
206.715	210.54
206.933	250.59
207.151	192.86
207.37	192.85
207.588	182.34
207.806	237.84
208.025	212.86
208.243	205.75
208.461	212.87
208.68	275.95
208.898	-346.79
209.116	-660.54
209.335	1654.85
209.553	-1211.73
209.771	549.75
209.989	295.09
210.208	355.54
210.426	351.92
210.644	362.88
210.862	246.65
211.081	186.25
211.299	138.9
211.517	159.6
211.735	169.14
211.953	172.45
212.171	197.64
212.39	531.43
212.608	518.24
212.826	669.34
213.044	647.23
213.262	656.46
213.48	-29702.99
213.698	-1586.13
213.916	656.87
214.134	-1265.55
214.352	-366.44
214.57	-338.22
214.788	3283.54
215.006	1006.13
215.224	1063.28
215.442	695.21
215.66	690.15
215.878	411.98
216.096	190.01
216.314	238.49
216.532	154.58
216.75	117.7
216.968	159.02
217.185	166.24
217.403	208.51
217.621	191.15
217.839	200.21
218.057	219.1
218.275	207.35
218.492	223.36
218.71	236.32
218.928	263.68
219.146	297.84
219.363	317.18
219.581	245.86
219.799	213.31
220.017	223.74
220.234	211.75
220.452	167.28
220.67	181.39
220.887	227.84
221.105	229.9
221.323	220.69
221.54	212.83
221.758	173.51
221.976	191.36
222.193	152.47
222.411	161.73
222.629	182.86
222.846	202.58
223.064	182.93
223.281	161.84
223.499	167.93
223.716	170.02
223.934	156.17
224.151	147.95
224.369	128.86
224.586	156.62
224.804	128.37
225.021	127.71
225.239	122.82
225.456	117.29
225.674	100.43
225.891	98.16
226.108	94.05
226.326	97.37
226.543	85.73
226.76	82.31
226.978	73.7
227.195	74.49
227.413	65.33
227.63	60.98
227.847	60.53
228.064	57.31
228.282	49.13
228.499	46.31
228.716	39.68
228.934	39.21
229.151	39.11
229.368	36.85
229.585	36.37
229.802	38.98
230.02	37.53
230.237	35.88
230.454	38.02
230.671	40.92
230.888	37.77
231.105	43.64
231.323	43.42
231.54	45.16
231.757	48.06
231.974	47.07
232.191	43.4
232.408	46.31
232.625	50.05
232.842	48.28
233.059	46.69
233.276	51.07
233.493	45.47
233.71	48.68
233.927	44.78
234.144	45.77
234.361	47.17
234.578	50
234.795	43.71
235.012	42.57
235.229	39.61
235.446	39.92
235.663	49.14
235.879	52.66
236.096	57.61
236.313	60.87
236.53	60.48
236.747	60.61
236.964	58.95
237.181	63.48
237.397	62.8
237.614	67.29
237.831	67.97
238.048	60.98
238.264	57.81
238.481	52.02
238.698	50.4
238.915	49.89
239.131	48.99
239.348	51.1
239.565	49.89
239.781	53.29
239.998	52.62
240.215	51.45
240.431	47.17
240.648	43.58
240.865	42.1
241.081	39.36
241.298	34.9
241.514	32.85
241.731	30.81
241.947	27.61
242.164	20.98
242.38	17.7
242.597	16.6
242.814	17.77
243.03	18.83
243.246	20.15
243.463	18.97
243.679	19.24
243.896	18.5
244.112	16.08
244.329	18.97
244.545	22.13
244.762	23.62
244.978	23.39
245.194	23.02
245.411	23.3
245.627	20.46
245.843	21.03
246.06	18.94
246.276	15.59
246.492	16.27
246.709	15.25
246.925	15.24
247.141	15.95
247.357	16.53
247.574	16.15
247.79	15.79
248.006	15.3
248.222	15.51
248.439	16.24
248.655	16.23
248.871	16.12
249.087	15.92
249.303	17
249.519	16.51
249.736	16.38
249.952	16.16
250.168	18.53
250.384	19.21
250.6	19.56
250.816	17.22
251.032	19.11
251.248	18.34
251.464	19.79
251.68	18.99
251.896	19.1
252.112	15.28
252.328	16.82
252.544	15.19
252.76	14.58
252.976	11.81
253.192	14.81
253.408	16.4
253.624	15.75
253.84	16.48
254.056	15.05
254.272	13.29
254.487	17.67
254.703	16.52
254.919	17.88
255.135	21.11
255.351	26.39
255.567	23.04
255.782	21.38
255.998	26.64
256.214	25.71
256.43	27.02
256.646	30.04
256.861	26.82
257.077	29.14
257.293	27.04
257.508	27.16
257.724	24.7
257.94	25.39
258.155	24.94
258.371	23.02
258.587	19.59
258.802	18.95
259.018	16.54
259.234	15.74
259.449	15.3
259.665	14.14
259.88	13.08
260.096	13.67
260.312	13.53
260.527	13.29
260.743	13.47
260.958	14.12
261.174	13.97
261.389	14.42
261.605	15.98
261.82	14.82
262.036	15.61
262.251	15.34
262.466	14.55
262.682	15.44
262.897	15.65
263.113	13.64
263.328	14.51
263.543	17.03
263.759	17.38
263.974	17.44
264.189	17.76
264.405	19.19
264.62	23.84
264.835	23.08
265.051	23.4
265.266	24.26
265.481	27.11
265.696	27.33
265.912	26.11
266.127	24.62
266.342	22.3
266.557	21.84
266.773	20.85
266.988	17.85
267.203	18.89
267.418	19.76
267.633	19.46
267.848	17.09
268.064	15.26
268.279	14.36
268.494	15.23
268.709	16.35
268.924	19.01
269.139	17.93
269.354	19.8
269.569	19.19
269.784	17.43
269.999	17.16
270.214	17.22
270.429	18.47
270.644	16.86
270.859	15.92
271.074	15.25
271.289	14.27
271.504	14.37
271.719	13.01
271.934	12.98
272.149	13.03
272.363	13.8
272.578	14.82
272.793	14.85
273.008	15.38
273.223	16.13
273.438	15.65
273.653	14.87
273.867	15.53
274.082	15.52
274.297	16.04
274.512	17.08
274.726	16.74
274.941	15.66
275.156	17.15
275.371	17.31
275.585	18.78
275.8	20.69
276.015	22.04
276.229	21.55
276.444	20.13
276.659	19.8
276.873	19.14
277.088	20.12
277.302	20.33
277.517	17.5
277.732	17.24
277.946	16.04
278.161	17.93
278.375	16.04
278.59	17.26
278.804	18.24
279.019	19.38
279.233	18.31
279.448	16.66
279.662	17.3
279.877	18.18
280.091	17.92
280.306	16.91
280.52	14.1
280.735	13.41
280.949	12.09
281.163	12.89
281.378	12.84
281.592	12.8
281.806	12.57
282.021	12.99
282.235	12.88
282.449	14.77
282.664	15.52
282.878	15.16
283.092	16.07
283.307	16.43
283.521	16.15
283.735	14.54
283.949	14.57
284.164	14.25
284.378	12.75
284.592	11.55
284.806	10.37
285.02	10.12
285.234	9.88
285.449	10.56
285.663	10.55
285.877	10.12
286.091	10.87
286.305	11.53
286.519	11.98
286.733	12.59
286.947	13.14
287.161	13.37
287.375	13.49
287.589	14.95
287.803	14.86
288.017	14.76
288.231	14.74
288.445	15.07
288.659	15.44
288.873	14.29
289.087	14.8
289.301	15.76
289.515	16.23
289.729	16.62
289.943	16.59
290.157	16.51
290.371	15.88
290.584	16.78
290.798	16.82
291.012	17.38
291.226	18.47
291.44	18.65
291.654	18.42
291.867	17.8
292.081	16.49
292.295	15.89
292.509	15
292.722	15.8
292.936	14.98
293.15	14.82
293.364	12.82
293.577	12.94
293.791	11.71
294.005	12.91
294.218	12.16
294.432	12.95
294.645	13.24
294.859	13.48
295.073	12.92
295.286	12.68
295.5	11.53
295.713	11.95
295.927	11.57
296.14	12.13
296.354	10.11
296.568	11.28
296.781	11.19
296.994	11.52
297.208	11.73
297.421	12.01
297.635	12.67
297.848	12.36
298.062	12.25
298.275	12.48
298.489	12.62
298.702	14.16
298.915	13.66
299.129	13.54
299.342	13.04
299.555	13.22
299.769	13.94
299.982	13.69
300.195	14.32
300.409	14.45
300.622	14.43
300.835	14.51
301.048	13.95
301.262	13.61
301.475	14.3
301.688	14.46
301.901	14.37
302.115	14.51
302.328	14.76
302.541	15.05
302.754	15.84
302.967	15.92
303.18	16.22
303.393	16.12
303.607	17
303.82	17.17
304.033	16.38
304.246	16.96
304.459	17.04
304.672	17.3
304.885	19.06
305.098	18.19
305.311	18.52
305.524	17.91
305.737	17.84
305.95	18.38
306.163	16.38
306.376	16.02
306.589	15.39
306.802	13.84
307.015	13.11
307.228	11.99
307.44	11.82
307.653	11.37
307.866	11.39
308.079	11.66
308.292	10.38
308.505	12.08
308.718	13.22
308.93	12.42
309.143	12.95
309.356	13.19
309.569	13.53
309.781	14.2
309.994	12.83
310.207	13
310.42	11.98
310.632	12.36
310.845	12.26
311.058	11.52
311.27	10.53
311.483	10.61
311.696	10.45
311.908	9.48
312.121	8.66
312.333	10.58
312.546	10.22
312.759	10.67
312.971	10.98
313.184	11.39
313.396	11.37
313.609	13.22
313.821	14.26
314.034	15.36
314.246	16.76
314.459	17.98
314.671	17.03
314.884	17.08
315.096	17.47
315.309	16.84
315.521	16.31
315.733	16.55
315.946	15.96
316.158	14.93
316.371	13.98
316.583	13.23
316.795	11.84
317.008	12.03
317.22	11.4
317.432	12.05
317.644	11.37
317.857	11.14
318.069	11.51
318.281	12.11
318.494	11.89
318.706	11.09
318.918	10.75
319.13	12.6
319.342	12.91
319.555	13.06
319.767	12.34
319.979	13.11
320.191	14.24
320.403	15.75
320.615	15.37
320.827	16.14
321.039	17.67
321.252	18.8
321.464	18.36
321.676	20.19
321.888	20.66
322.1	21.81
322.312	20.4
322.524	20.7
322.736	19.31
322.948	19.5
323.16	18.72
323.372	17.29
323.584	16.36
323.796	16.43
324.007	14.58
324.219	14.45
324.431	14.48
324.643	15.45
324.855	14.75
325.067	15.38
325.279	15.18
325.491	15.66
325.702	16.58
325.914	16.52
326.126	16.31
326.338	16.74
326.55	16.33
326.761	16.21
326.973	16.82
327.185	16.4
327.396	15.72
327.608	16.39
327.82	16.3
328.032	16.62
328.243	16.16
328.455	16.13
328.666	16.3
328.878	16.7
329.09	15.32
329.301	14.84
329.513	15.6
329.725	16.34
329.936	16.49
330.148	17.5
330.359	17.45
330.571	18.65
330.782	18.5
330.994	17.45
331.205	17.78
331.417	18.57
331.628	18.24
331.84	18.79
332.051	18.21
332.262	17.64
332.474	15.99
332.685	16.14
332.897	15.73
333.108	16.01
333.319	16.3
333.531	16.22
333.742	14.85
333.953	14.49
334.165	12.65
334.376	13.21
334.587	13.09
334.799	13.85
335.01	13.66
335.221	13.41
335.432	12.2
335.644	12.77
335.855	12.46
336.066	13.92
336.277	14.3
336.488	15.27
336.7	14.64
336.911	14.43
337.122	14.43
337.333	14.21
337.544	14.92
337.755	15.13
337.966	14.92
338.177	15.35
338.388	15
338.599	15.79
338.811	15.04
339.022	14.91
339.233	13.95
339.444	13.83
339.655	13.8
339.866	13.73
340.076	13.75
340.287	13.12
340.498	12.74
340.709	12.81
340.92	12.14
341.131	12.37
341.342	12.38
341.553	13.51
341.764	13.11
341.975	13
342.185	11.96
342.396	11.85
342.607	12.59
342.818	13.33
343.029	12.67
343.239	11.93
343.45	11.85
343.661	12.46
343.872	11.92
344.082	12.73
344.293	13.03
344.504	15.49
344.714	15.68
344.925	15.26
345.136	14.64
345.346	15.42
345.557	15.4
345.768	16.36
345.978	16.37
346.189	16.96
346.399	16.66
346.61	16.59
346.821	14.54
347.031	14.85
347.242	14.63
347.452	14.75
347.663	14.13
347.873	14.72
348.084	13.45
348.294	13.15
348.504	12.65
348.715	12.59
348.925	11.92
349.136	12.12
349.346	12.06
349.557	12.13
349.767	11.69
349.977	10.86
350.188	10.68
350.398	11.41
350.608	10.6
350.819	10.82
351.029	10.62
351.239	11.76
351.449	12.16
351.66	13.04
351.87	13.53
352.08	14.06
352.29	15.51
352.501	15.14
352.711	15.6
352.921	15.66
353.131	16.08
353.341	16.13
353.552	14.42
353.762	13.7
353.972	12.14
354.182	13.62
354.392	13.95
354.602	14.38
354.812	14.73
355.022	14.37
355.232	14.87
355.442	14.22
355.652	13.83
355.862	14.63
356.072	14.65
356.282	15.44
356.492	13.62
356.702	12.77
356.912	12.31
357.122	12.72
357.332	12.72
357.542	12.51
357.752	12.68
357.962	13.03
358.171	13
358.381	13.53
358.591	12.93
358.801	13.19
359.011	12.95
359.221	13.14
359.43	12.96
359.64	12.2
359.85	11.93
360.06	11.72
360.269	11.54
360.479	10.99
360.689	10.48
360.899	10.64
361.108	10.37
361.318	10.57
361.528	9.78
361.737	9.45
361.947	9.66
362.156	9.77
362.366	9.7
362.576	9.5
362.785	9.52
362.995	9.28
363.204	9.18
363.414	9.34
363.623	9.36
363.833	9.8
364.042	10.07
364.252	9.7
364.461	9.46
364.671	10
364.88	10.09
365.09	10.42
365.299	11.04
365.509	11.08
365.718	11.08
365.927	11.01
366.137	11.35
366.346	11.45
366.555	12.01
366.765	12.04
366.974	11.64
367.183	11.81
367.393	11.62
367.602	11.12
367.811	11.05
368.021	10.85
368.23	11.44
368.439	11.1
368.648	10.74
368.857	10.65
369.067	10.73
369.276	10.69
369.485	11.07
369.694	11.21
369.903	11.58
370.112	12.02
370.321	12.07
370.531	11.35
370.74	10.24
370.949	9.72
371.158	9.55
371.367	9.43
371.576	10.22
371.785	9.91
371.994	9.67
372.203	9.34
372.412	9.18
372.621	8.77
372.83	8.97
373.039	10.18
373.248	10.74
373.457	10.97
373.666	11.13
373.874	10.16
374.083	9.98
374.292	10.36
374.501	10.62
374.71	10.74
374.919	10.78
375.128	10.54
375.336	10.36
375.545	10.57
375.754	10.19
375.963	9.96
376.171	10.37
376.38	10.51
376.589	10.19
376.798	9.8
377.006	9.52
377.215	9.94
377.424	9.88
377.632	9.46
377.841	9.13
378.05	9.7
378.258	9.81
378.467	9.29
378.675	8.95
378.884	9.28
379.093	9.27
379.301	9.11
379.51	8.61
379.718	8.86
379.927	9.07
380.135	8.7
380.344	8.42
380.552	8.84
380.761	8.95
380.969	8.98
381.177	8.48
381.386	9.1
381.594	9.19
381.803	9.09
382.011	8.96
382.219	8.79
382.428	9.18
382.636	8.97
382.845	8.51
383.053	8.84
383.261	8.64
383.469	8.9
383.678	8.46
383.886	8.07
384.094	8.15
384.302	8.06
384.511	8.04
384.719	8.07
384.927	8.05
385.135	8.37
385.343	8.26
385.552	8.57
385.76	8.58
385.968	8.47
386.176	8.96
386.384	9.13
386.592	9
386.8	9.39
387.008	9.56
387.216	9.66
387.424	9.44
387.633	8.9
387.841	8.97
388.049	9.22
388.257	9.47
388.465	9.35
388.672	9.23
388.88	9.25
389.088	9.27
389.296	9.07
389.504	9.35
389.712	9.63
389.92	9.67
390.128	9.61
390.336	9.31
390.544	8.92
390.751	8.89
390.959	8.79
391.167	8.75
391.375	8.71
391.583	8.58
391.79	7.88
391.998	7.91
392.206	8.36
392.414	8.01
392.621	8.14
392.829	8.32
393.037	8.43
393.244	8.54
393.452	8.64
393.66	8.17
393.867	8.31
394.075	8.3
394.283	7.97
394.49	7.55
394.698	7.87
394.905	7.76
395.113	7.84
395.32	7.43
395.528	7.5
395.735	7.56
395.943	7.7
396.15	7.69
396.358	7.97
396.565	7.66
396.773	7.98
396.98	8.1
397.188	8.07
397.395	7.88
397.602	8.15
397.81	8.37
398.017	8.5
398.225	8.8
398.432	8.8
398.639	8.94
398.847	9.58
399.054	9.35
399.261	9.27
399.468	9.11
399.676	9.49
399.883	9.73
400.09	9.37
400.297	9.38
400.505	9.13
400.712	9.09
400.919	9.22
401.126	8.86
401.333	9.1
401.54	9.02
401.748	9.16
401.955	8.93
402.162	9
402.369	9.09
402.576	9
402.783	8.78
402.99	8.71
403.197	8.55
403.404	8.27
403.611	8.04
403.818	8.06
404.025	7.88
404.232	7.75
404.439	7.55
404.646	7.53
404.853	7.35
405.06	7.46
405.267	7.49
405.474	7.1
405.681	7.19
405.887	7.35
406.094	7.49
406.301	7.56
406.508	7.29
406.715	7.29
406.922	7.34
407.128	7.44
407.335	7.54
407.542	7.44
407.749	7.95
407.955	8.45
408.162	8.63
408.369	8.55
408.575	8.79
408.782	9.17
408.989	9.14
409.195	9.23
409.402	9.06
409.609	8.86
409.815	8.89
410.022	8.72
410.228	8.3
410.435	8.12
410.642	7.77
410.848	7.7
411.055	7.66
411.261	7.65
411.468	7.57
411.674	7.7
411.881	7.8
412.087	8.04
412.294	8.05
412.5	8.15
412.706	8.21
412.913	8.18
413.119	8.37
413.326	8.25
413.532	8.04
413.738	8.06
413.945	7.92
414.151	7.94
414.357	7.67
414.564	7.72
414.77	7.66
414.976	7.72
415.182	8.13
415.389	7.57
415.595	7.65
415.801	7.69
416.007	7.79
416.214	7.9
416.42	7.74
416.626	7.58
416.832	7.5
417.038	7.49
417.244	7.38
417.45	7.35
417.657	7.45
417.863	7.44
418.069	7.47
418.275	7.16
418.481	7.3
418.687	7.36
418.893	7.31
419.099	7.3
419.305	7.41
419.511	7.33
419.717	7.24
419.923	7.16
420.129	7.06
420.335	7.03
420.541	7.01
420.746	6.73
420.952	6.69
421.158	6.85
421.364	6.86
421.57	6.88
421.776	6.86
421.982	6.83
422.187	6.84
422.393	6.83
422.599	6.74
422.805	6.71
423.01	6.77
423.216	6.76
423.422	6.69
423.628	6.61
423.833	6.43
424.039	6.1
424.245	5.95
424.45	5.88
424.656	5.87
424.862	5.87
425.067	5.88
425.273	6
425.478	6.02
425.684	5.88
425.889	6.03
426.095	6.14
426.301	6.48
426.506	6.59
426.712	6.77
426.917	6.77
427.123	6.98
427.328	7.09
427.533	6.95
427.739	6.95
427.944	7.02
428.15	6.91
428.355	6.83
428.561	7.03
428.766	6.98
428.971	7.16
429.177	7.22
429.382	7.11
429.587	7.21
429.793	7.23
429.998	7.21
430.203	7.32
430.408	7.11
430.614	7.04
430.819	6.76
431.024	6.91
431.229	6.65
431.434	6.69
431.64	6.84
431.845	6.97
432.05	7.18
432.255	7.27
432.46	7.33
432.665	7.64
432.87	7.59
433.076	7.53
433.281	7.55
433.486	7.61
433.691	7.59
433.896	7.33
434.101	7.18
434.306	7.07
434.511	7.05
434.716	6.87
434.921	6.7
435.126	6.95
435.331	7.01
435.535	7.01
435.74	7.01
435.945	7.13
436.15	7.2
436.355	7.29
436.56	7.35
436.765	7.64
436.97	7.67
437.174	7.66
437.379	7.54
437.584	7.86
437.789	7.69
437.993	7.63
438.198	7.63
438.403	7.69
438.608	7.54
438.812	7.34
439.017	6.97
439.222	6.95
439.426	6.9
439.631	6.71
439.836	6.44
440.04	6.43
440.245	6.54
440.45	6.32
440.654	6.27
440.859	6.27
441.063	6.37
441.268	6.35
441.472	6.44
441.677	6.66
441.881	6.79
442.086	6.85
442.29	6.91
442.495	6.98
442.699	7.25
442.904	7.37
443.108	7.31
443.312	7.31
443.517	7.4
443.721	7.43
443.925	7.18
444.13	7.16
444.334	7.04
444.538	7.09
444.743	6.82
444.947	6.7
445.151	6.47
445.356	6.53
445.56	6.57
445.764	6.58
445.968	6.58
446.173	6.6
446.377	6.55
446.581	6.67
446.785	6.6
446.989	6.63
447.193	6.67
447.398	6.91
447.602	6.99
447.806	6.95
448.01	6.97
448.214	7.02
448.418	6.99
448.622	7.04
448.826	7.03
449.03	7.15
449.234	7.27
449.438	7.09
449.642	7.13
449.846	7.25
450.05	7.22
450.254	6.97
450.458	6.92
450.662	7.03
450.866	6.98
451.069	6.94
451.273	6.72
451.477	6.77
451.681	7.01
451.885	6.82
452.089	6.59
452.292	6.7
452.496	6.92
452.7	6.86
452.904	6.87
453.107	7.09
453.311	7.22
453.515	7.37
453.719	7.26
453.922	7.15
454.126	7.11
454.33	7.21
454.533	7.03
454.737	7.19
454.94	7.02
455.144	7.02
455.348	6.93
455.551	6.74
455.755	6.86
455.958	6.9
456.162	6.86
456.365	6.81
456.569	6.63
456.772	6.98
456.976	6.95
457.179	7.24
457.383	7.12
457.586	7.1
457.79	7.16
457.993	7.2
458.196	7.16
458.4	7.39
458.603	7.53
458.807	7.52
459.01	7.42
459.213	7.27
459.417	7.29
459.62	7.28
459.823	7.18
460.026	7.08
460.23	6.93
460.433	6.96
460.636	6.83
460.839	6.76
461.042	6.89
461.246	6.83
461.449	6.88
461.652	6.74
461.855	6.84
462.058	6.82
462.261	6.94
462.464	6.93
462.668	6.84
462.871	6.81
463.074	6.79
463.277	6.69
463.48	6.75
463.683	6.78
463.886	7.02
464.089	6.99
464.292	7.19
464.495	7.23
464.698	7.28
464.901	7.51
465.104	7.54
465.306	7.73
465.509	7.68
465.712	7.4
465.915	7.62
466.118	7.48
466.321	7.42
466.524	7.28
466.726	7.27
466.929	7.47
467.132	7.2
467.335	7.28
467.538	7.14
467.74	7.26
467.943	7.6
468.146	7.33
468.348	7.38
468.551	7.44
468.754	7.58
468.956	7.59
469.159	7.38
469.362	7.52
469.564	7.5
469.767	7.79
469.969	7.89
470.172	7.91
470.375	8.03
470.577	8.07
470.78	8.05
470.982	8.01
471.185	8.05
471.387	8.21
471.59	8.46
471.792	8.4
471.995	8.18
472.197	8
472.399	7.84
472.602	7.99
472.804	8.13
473.007	8.1
473.209	8.11
473.411	8.04
473.614	8.1
473.816	7.95
474.018	8.02
474.22	8.05
474.423	8.25
474.625	8.31
474.827	8.06
475.03	7.92
475.232	8.01
475.434	8.1
475.636	8.26
475.838	8.1
476.04	7.97
476.243	8.1
476.445	8.11
476.647	8.14
476.849	7.93
477.051	7.91
477.253	7.96
477.455	7.88
477.657	7.72
477.859	7.64
478.061	7.68
478.263	7.68
478.465	7.58
478.667	7.59
478.869	7.43
479.071	7.7
479.273	7.76
479.475	7.72
479.677	7.92
479.879	8.03
480.081	8.11
480.283	8.17
480.485	8.26
480.686	8.31
480.888	8.3
481.09	8.2
481.292	7.95
481.494	7.84
481.695	7.81
481.897	7.55
482.099	7.44
482.301	7.31
482.502	7.11
482.704	6.98
482.906	6.8
483.107	6.59
483.309	6.43
483.511	6.35
483.712	6.26
483.914	6.19
484.115	6.16
484.317	6.09
484.519	6.02
484.72	6.03
484.922	6.01
485.123	6.04
485.325	6.1
485.526	6.24
485.728	6.3
485.929	6.39
486.131	6.47
486.332	6.53
486.534	6.59
486.735	6.66
486.936	6.63
487.138	6.63
487.339	6.61
487.541	6.65
487.742	6.62
487.943	6.64
488.144	6.67
488.346	6.64
488.547	6.67
488.748	6.75
488.95	6.76
489.151	6.88
489.352	6.99
489.553	7.12
489.755	7.2
489.956	7.24
490.157	7.2
490.358	7.34
490.559	7.36
490.76	7.32
490.961	7.31
491.163	7.36
491.364	7.25
491.565	7.19
491.766	7.1
491.967	7.06
492.168	7.08
492.369	7.24
492.57	7.25
492.771	7.37
492.972	7.53
493.173	7.59
493.374	7.8
493.575	8
493.776	8.18
493.976	8.41
494.177	8.66
494.378	8.9
494.579	9.05
494.78	9.07
494.981	9.11
495.182	9.07
495.382	9.28
495.583	9.15
495.784	9.21
495.985	9.14
496.185	9.11
496.386	9.01
496.587	9.02
496.788	9.13
496.988	9.15
497.189	9.07
497.39	9.1
497.59	9.16
497.791	9.18
497.992	9.15
498.192	9.17
498.393	9.2
498.593	9.23
498.794	9.1
498.994	9.13
499.195	9.16
499.395	9.15
499.596	9.21
499.796	8.94
499.997	8.9
500.197	8.93
500.398	9.08
500.598	9.15
500.799	9.32
500.999	9.49
501.199	9.3
501.4	9.49
501.6	9.57
501.801	9.65
502.001	9.74
502.201	9.93
502.402	10.19
502.602	10.12
502.802	10.17
503.002	10.18
503.203	10.2
503.403	10.02
503.603	9.99
503.803	9.98
504.003	10.03
504.204	9.96
504.404	9.93
504.604	9.81
504.804	10.12
505.004	10.08
505.204	9.93
505.404	9.93
505.604	10.07
505.804	9.97
506.005	9.99
506.205	9.89
506.405	10
506.605	9.89
506.805	9.88
507.005	9.69
507.204	9.54
507.404	9.6
507.604	9.69
507.804	9.96
508.004	10.16
508.204	10.22
508.404	10.37
508.604	10.42
508.804	10.58
509.003	10.7
509.203	10.66
509.403	10.83
509.603	10.99
509.803	11.01
510.002	10.94
510.202	10.82
510.402	10.92
510.602	10.91
510.801	11.02
511.001	10.95
511.201	10.91
511.4	10.93
511.6	10.84
511.8	10.67
511.999	10.77
512.199	10.64
512.398	10.71
512.598	10.66
512.797	10.7
512.997	10.63
513.197	10.67
513.396	10.75
513.596	10.86
513.795	11.05
513.994	11.28
514.194	11.23
514.393	11.46
514.593	11.56
514.792	11.71
514.992	11.82
515.191	12.17
515.39	12.26
515.59	12.04
515.789	12.16
515.988	12.18
516.188	12.11
516.387	12.08
516.586	11.93
516.786	11.87
516.985	11.74
517.184	11.64
517.383	11.34
517.582	11.24
517.782	11.29
517.981	11.14
518.18	11.04
518.379	11.04
518.578	10.93
518.777	10.89
518.976	10.9
519.176	10.99
519.375	11
519.574	11.23
519.773	11.33
519.972	11.49
520.171	11.56
520.37	11.71
520.569	11.8
520.768	12.1
520.967	12.31
521.166	12.41
521.365	12.47
521.564	12.6
521.762	12.61
521.961	12.71
522.16	12.82
522.359	12.96
522.558	12.87
522.757	12.96
522.956	12.99
523.154	13.03
523.353	13.09
523.552	13.14
523.751	12.99
523.949	12.8
524.148	12.88
524.347	12.71
524.546	12.65
524.744	12.61
524.943	12.52
525.142	12.29
525.34	12.21
525.539	12.09
525.737	12.06
525.936	12.06
526.135	12
526.333	11.78
526.532	11.68
526.73	11.56
526.929	11.44
527.127	11.25
527.326	11.07
527.524	10.89
527.723	10.75
527.921	10.61
528.12	10.48
528.318	10.29
528.516	10.24
528.715	10.2
528.913	10.14
529.112	10.15
529.31	10.14
529.508	10.25
529.707	10.35
529.905	10.46
530.103	10.51
530.301	10.65
530.5	10.85
530.698	11.03
530.896	11.25
531.094	11.53
531.293	11.66
531.491	11.93
531.689	12.09
531.887	12.26
532.085	12.23
532.283	12.31
532.481	12.27
532.68	12.27
532.878	12.21
533.076	12.14
533.274	12.08
533.472	12.14
533.67	11.95
533.868	11.96
534.066	11.93
534.264	12.01
534.462	12.1
534.66	12.18
534.858	12.37
535.056	12.43
535.253	12.54
535.451	12.67
535.649	12.75
535.847	13.1
536.045	13.14
536.243	13.23
536.441	13.31
536.638	13.32
536.836	13.4
537.034	13.41
537.232	13.59
537.43	13.74
537.627	13.88
537.825	14.02
538.023	14.16
538.22	14.36
538.418	14.6
538.616	14.72
538.813	14.93
539.011	15.11
539.209	15.1
539.406	15.13
539.604	15.2
539.801	15.07
539.999	14.98
540.196	14.71
540.394	14.52
540.591	14.23
540.789	14.06
540.986	13.85
541.184	13.69
541.381	13.66
541.579	13.59
541.776	13.48
541.974	13.5
542.171	13.47
542.368	13.58
542.566	13.6
542.763	13.7
542.96	13.85
543.158	13.93
543.355	14.06
543.552	14.24
543.75	14.5
543.947	14.67
544.144	14.85
544.341	15.11
544.539	15.29
544.736	15.55
544.933	15.71
545.13	15.96
545.327	16.44
545.524	16.7
545.722	16.89
545.919	16.91
546.116	17.11
546.313	17.08
546.51	17.14
546.707	17.29
546.904	17.33
547.101	17.52
547.298	17.45
547.495	17.3
547.692	17.32
547.889	17.41
548.086	17.58
548.283	17.81
548.48	17.99
548.677	18.19
548.874	18.23
549.07	18.34
549.267	18.66
549.464	19
549.661	19.33
549.858	19.67
550.055	19.72
550.251	19.84
550.448	19.83
550.645	19.82
550.842	19.94
551.038	20.13
551.235	20.25
551.432	20.05
551.628	20.02
551.825	20.13
552.022	20.03
552.218	20.09
552.415	19.9
552.612	19.99
552.808	20.19
553.005	20.19
553.201	20.21
553.398	20.26
553.594	20.38
553.791	20.55
553.987	20.46
554.184	20.59
554.38	20.93
554.577	21.26
554.773	21.21
554.97	21.37
555.166	21.63
555.362	21.82
555.559	22.04
555.755	22.38
555.952	22.48
556.148	22.79
556.344	23.12
556.541	23.03
556.737	23.14
556.933	23.48
557.129	23.86
557.326	23.71
557.522	23.69
557.718	23.74
557.914	23.63
558.11	23.68
558.307	23.67
558.503	23.58
558.699	23.79
558.895	23.95
559.091	23.84
559.287	23.86
559.483	24.23
559.679	24.32
559.876	24.37
560.072	24.71
560.268	24.96
560.464	24.98
560.66	24.9
560.856	24.86
561.052	24.78
561.247	24.75
561.443	24.61
561.639	24.34
561.835	24.34
562.031	24.57
562.227	24.37
562.423	24.28
562.619	24.5
562.815	24.9
563.01	25.12
563.206	25.22
563.402	25.49
563.598	25.55
563.793	25.71
563.989	25.98
564.185	25.92
564.381	25.99
564.576	26.02
564.772	25.74
564.968	25.46
565.163	25.02
565.359	25.04
565.555	24.92
565.75	24.84
565.946	24.77
566.141	24.55
566.337	24.56
566.532	24.5
566.728	24.47
566.923	24.7
567.119	24.82
567.314	25.19
567.51	25.33
567.705	25.37
567.901	25.55
568.096	25.67
568.292	25.89
568.487	26.1
568.682	26.24
568.878	26.42
569.073	26.42
569.268	26.4
569.464	26.51
569.659	26.63
569.854	26.8
570.05	26.81
570.245	26.99
570.44	26.92
570.635	26.87
570.831	27.06
571.026	27.03
571.221	26.97
571.416	27
571.611	26.86
571.806	26.73
572.002	26.63
572.197	26.53
572.392	26.57
572.587	26.7
572.782	26.7
572.977	26.57
573.172	26.6
573.367	26.8
573.562	26.97
573.757	27.07
573.952	27.24
574.147	27.55
574.342	27.74
574.537	27.74
574.732	27.71
574.927	27.91
575.121	28.2
575.316	28.47
575.511	28.67
575.706	28.6
575.901	28.75
576.096	28.87
576.29	28.85
576.485	29.18
576.68	29.59
576.875	29.88
577.069	30.19
577.264	30.5
577.459	30.7
577.654	30.8
577.848	31.32
578.043	31.65
578.238	31.88
578.432	32.22
578.627	32.39
578.821	32.43
579.016	32.72
579.21	32.9
579.405	32.8
579.6	32.91
579.794	33.2
579.989	33.32
580.183	33.08
580.378	33.23
580.572	33.52
580.766	33.4
580.961	33.72
581.155	33.85
581.35	33.83
581.544	34.03
581.738	34.17
581.933	34.04
582.127	34.21
582.321	34.57
582.516	34.66
582.71	34.58
582.904	34.85
583.099	34.68
583.293	34.71
583.487	34.98
583.681	35.1
583.875	35.22
584.07	35.41
584.264	35.61
584.458	35.67
584.652	36
584.846	36.32
585.04	36.34
585.234	37.02
585.428	37.01
585.623	36.75
585.817	36.73
586.011	36.8
586.205	36.97
586.399	37
586.593	37.22
586.787	37.24
586.981	36.85
587.174	37.02
587.368	36.51
587.562	36.62
587.756	36.5
587.95	36.26
588.144	36.09
588.338	36.01
588.532	35.68
588.725	35.58
588.919	35.4
589.113	35.26
589.307	34.99
589.501	34.94
589.694	34.98
589.888	35.23
590.082	35.43
590.275	35.35
590.469	35.37
590.663	35.41
590.856	35.22
591.05	35.45
591.244	35.93
591.437	36.35
591.631	36.56
591.824	36.6
592.018	36.67
592.212	36.78
592.405	37.15
592.599	37.3
592.792	37.71
592.986	38.04
593.179	37.85
593.372	37.6
593.566	37.45
593.759	37.56
593.953	37.74
594.146	37.65
594.339	37.75
594.533	37.58
594.726	37.5
594.92	37.24
595.113	37.3
595.306	37.14
595.499	37.25
595.693	37.04
595.886	36.69
596.079	36.29
596.272	36.11
596.466	35.93
596.659	35.89
596.852	35.63
597.045	35.65
597.238	35.44
597.431	35.44
597.624	35.6
597.818	35.79
598.011	36.14
598.204	36.45
598.397	36.89
598.59	37.18
598.783	37.36
598.976	37.81
599.169	38.1
599.362	38.47
599.555	39.08
599.748	39.33
599.941	39.44
600.134	39.63
600.326	39.93
600.519	40.07
600.712	40.13
600.905	40.3
601.098	40.56
601.291	40.62
601.483	40.89
601.676	40.68
601.869	40.23
602.062	40.38
602.255	40.26
602.447	39.86
602.64	39.61
602.833	39.26
603.025	39.13
603.218	38.79
603.411	38.47
603.603	38.04
603.796	37.8
603.989	37.84
604.181	37.55
604.374	37.31
604.566	37.34
604.759	37.23
604.951	37.4
605.144	37.45
605.336	37.71
605.529	37.69
605.721	37.94
605.914	38.27
606.106	38.42
606.299	38.83
606.491	39.16
606.683	39.54
606.876	39.94
607.068	40.32
607.26	40.76
607.453	40.8
607.645	41.1
607.837	41.18
608.03	41.24
608.222	41.52
608.414	41.56
608.606	41.33
608.799	41.12
608.991	41.2
609.183	41.13
609.375	41.42
609.567	41.83
609.759	42.2
609.952	42.43
610.144	42.97
610.336	43.25
610.528	43.67
610.72	44.63
610.912	45.42
611.104	45.93
611.296	46.59
611.488	46.98
611.68	47.34
611.872	47.57
612.064	48.34
612.256	48.48
612.448	48.75
612.64	49.15
612.832	48.95
613.023	49.16
613.215	49.5
613.407	49.57
613.599	49.36
613.791	49.5
613.983	49.66
614.174	49.25
614.366	49
614.558	49.24
614.75	48.74
614.941	48.85
615.133	48.5
615.325	48.14
615.516	47.99
615.708	47.69
615.9	47.41
616.091	47.29
616.283	46.93
616.475	46.91
616.666	46.52
616.858	47.04
617.049	46.86
617.241	46.53
617.432	46.55
617.624	46.7
617.815	47.06
618.007	46.84
618.198	46.96
618.39	47.22
618.581	47.04
618.773	47.42
618.964	47.38
619.155	47.58
619.347	48.05
619.538	48.29
619.729	48.41
619.921	48.32
620.112	48.6
620.303	48.53
620.494	48.74
620.686	49.14
620.877	48.95
621.068	48.86
621.259	48.79
621.451	48.93
621.642	49.04
621.833	48.76
622.024	48.9
622.215	49.01
622.406	49.24
622.597	49.42
622.788	49.5
622.98	49.6
623.171	49.98
623.362	50.14
623.553	50.3
623.744	50.2
623.935	50.57
624.126	50.24
624.317	49.78
624.508	49.79
624.698	49.46
624.889	49.03
625.08	49.3
625.271	48.78
625.462	48.59
625.653	47.84
625.844	47.23
626.034	46.73
626.225	46.89
626.416	46.78
626.607	46.52
626.798	46.3
626.988	46.21
627.179	45.95
627.37	45.84
627.56	45.96
627.751	46.21
627.942	46.42
628.132	46.79
628.323	46.92
628.514	47.41
628.704	47.47
628.895	47.84
629.085	48.48
629.276	48.48
629.466	49.03
629.657	49.31
629.847	49.43
630.038	49.75
630.228	49.97
630.419	50.31
630.609	50.51
630.8	50.98
630.99	50.78
631.181	50.72
631.371	50.95
631.561	50.85
631.752	50.8
631.942	51.25
632.132	51.27
632.323	51.17
632.513	50.83
632.703	50.63
632.893	50.53
633.084	50.59
633.274	50.69
633.464	50.43
633.654	50.41
633.844	50.19
634.034	50
634.225	50.12
634.415	49.9
634.605	49.99
634.795	50.04
634.985	50.13
635.175	50.58
635.365	50.44
635.555	50.73
635.745	50.82
635.935	51.02
636.125	51.25
636.315	51.38
636.505	52.03
636.695	52.22
636.885	52.15
637.075	52.5
637.265	52.46
637.455	52.69
637.644	53.07
637.834	53.18
638.024	53.26
638.214	53.26
638.404	53.09
638.593	52.91
638.783	52.76
638.973	53.42
639.163	53.08
639.352	53.72
639.542	53.7
639.732	53.84
639.921	53.84
640.111	54.06
640.301	54.22
640.49	55.14
640.68	54.98
640.87	55.26
641.059	55.12
641.249	55.64
641.438	55.24
641.628	55.64
641.817	55.72
642.007	55.67
642.196	55.88
642.386	55.92
642.575	55.9
642.764	56.54
642.954	56.62
643.143	56.55
643.333	56.64
643.522	56.93
643.711	56.68
643.901	56.3
644.09	56.35
644.279	56.49
644.469	56.66
644.658	56.09
644.847	55.37
645.036	55.4
645.226	55.4
645.415	55.29
645.604	55.35
645.793	55.51
645.982	55.65
646.171	55.67
646.361	55.61
646.55	55.39
646.739	55.77
646.928	55.85
647.117	56.07
647.306	55.97
647.495	55.65
647.684	55.19
647.873	55.37
648.062	55.38
648.251	55.41
648.44	54.99
648.629	55.27
648.818	55.4
649.007	55.9
649.196	55.78
649.384	56.04
649.573	56.43
649.762	56.79
649.951	56.52
650.14	56.72
650.328	56.99
650.517	57.06
650.706	56.89
650.895	56.62
651.083	56.71
651.272	56.74
651.461	56.5
651.65	56.31
651.838	55.94
652.027	55.82
652.216	55.99
652.404	55.7
652.593	55.83
652.781	55.91
652.97	56.05
653.158	55.87
653.347	55.97
653.535	56.12
653.724	56.1
653.912	56.75
654.101	57.1
654.289	56.48
654.478	56.61
654.666	56.98
654.855	56.95
655.043	56.65
655.231	56.37
655.42	56.57
655.608	56.57
655.796	56.83
655.985	56.06
656.173	55.8
656.361	56.39
656.55	56.61
656.738	56.64
656.926	56.96
657.114	56.93
657.302	56.89
657.491	56.54
657.679	56.28
657.867	55.66
658.055	55.93
658.243	55.75
658.431	55.12
658.619	54.72
658.807	54.4
658.996	53.9
659.184	53.88
659.372	53.77
659.56	53.72
659.748	53.71
659.936	54.07
660.124	53.8
660.311	53.89
660.499	54.3
660.687	54.81
660.875	55.25
661.063	55.44
661.251	55.96
661.439	56.5
661.627	57.05
661.814	57.6
662.002	57.89
662.19	58.64
662.378	58.79
662.565	59.43
662.753	59.95
662.941	60.4
663.129	60.82
663.316	60.7
663.504	60.66
663.692	60.6
663.879	61.08
664.067	61.3
664.254	61.08
664.442	62.02
664.63	61.76
664.817	61.52
665.005	60.87
665.192	61.25
665.38	61.07
665.567	61.28
665.755	61.23
665.942	60.8
666.13	60.64
666.317	60.99
666.504	60.58
666.692	60.61
666.879	60.3
667.067	60.77
667.254	60.38
667.441	60.92
667.629	61.34
667.816	61.29
668.003	61.25
668.19	61.2
668.378	60.87
668.565	60.92
668.752	60.71
668.939	60.65
669.127	60.66
669.314	60.95
669.501	60.75
669.688	60.96
669.875	61.37
670.062	61.65
670.249	62.03
670.436	62.62
670.623	62.57
670.81	62.83
670.997	63.2
671.184	63.14
671.371	63.7
671.558	63.69
671.745	63.35
671.932	63.9
672.119	64.04
672.306	64.47
672.493	64.37
672.68	64.86
672.867	65.25
673.054	65.19
673.24	65.3
673.427	64.61
673.614	65.36
673.801	65.52
673.988	64.79
674.174	64.89
674.361	64.09
674.548	64.12
674.734	63.85
674.921	63.74
675.108	64.17
675.294	63.99
675.481	64.19
675.668	63.82
675.854	63.91
676.041	63.78
676.227	63.79
676.414	64.54
676.601	64.9
676.787	65.05
676.974	64.74
677.16	64.33
677.347	64.42
677.533	64.48
677.719	64.18
677.906	63.75
678.092	63.73
678.279	63.32
678.465	62.5
678.651	62.05
678.838	61.88
679.024	61.46
679.21	61.07
679.397	60.73
679.583	60.47
679.769	59.98
679.955	59.67
680.142	59.74
680.328	59.75
680.514	59.44
680.7	59.11
680.886	59.18
681.073	59.61
681.259	59.74
681.445	59.98
681.631	60.01
681.817	60.16
682.003	60.69
682.189	60.53
682.375	60.88
682.561	61.42
682.747	61.68
682.933	61.58
683.119	61.48
683.305	61.42
683.491	61.49
683.677	61.6
683.863	62.24
684.049	62.66
684.235	62.85
684.42	63.11
684.606	63.15
684.792	63.69
684.978	63.9
685.164	64.33
685.349	65.14
685.535	65.07
685.721	64.63
685.907	64.09
686.092	63.59
686.278	63.53
686.464	63.48
686.649	63.79
686.835	63.43
687.021	63.67
687.206	63.04
687.392	62.62
687.577	63.36
687.763	63.74
687.948	63.99
688.134	63.54
688.319	63.67
688.505	63.47
688.69	63.2
688.876	63.3
689.061	63.07
689.247	63.73
689.432	63.81
689.618	62.79
689.803	63.36
689.988	63.7
690.174	64.25
690.359	63.98
690.544	64.11
690.73	64.25
690.915	64.83
691.1	64.4
691.285	64.09
691.471	64.04
691.656	64.96
691.841	64.57
692.026	64.21
692.211	63.81
692.396	63.66
692.582	63.73
692.767	64.06
692.952	63.55
693.137	63.95
693.322	64.05
693.507	64.59
693.692	64.45
693.877	64.36
694.062	64.84
694.247	65.79
694.432	66.82
694.617	66.36
694.802	65.53
694.987	65.4
695.172	65.79
695.357	65.59
695.541	65.26
695.726	65.26
695.911	65.77
696.096	65.04
696.281	64.78
696.466	63.89
696.65	63.86
696.835	63.58
697.02	63.04
697.204	62.43
697.389	62.3
697.574	61.85
697.759	60.8
697.943	59.63
698.128	59.65
698.312	59.01
698.497	58.41
698.682	58.04
698.866	57.8
699.051	58.04
699.235	58.08
699.42	58.21
699.604	58.38
699.789	58.54
699.973	59
700.158	58.89
700.342	59.29
700.527	60.17
700.711	60.8
700.895	61.63
701.08	62.31
701.264	62.58
701.448	63.01
701.633	63
701.817	63.77
702.001	64.82
702.186	65.64
702.37	66.38
702.554	67.41
702.738	68.67
702.923	69.25
703.107	69.47
703.291	70.04
703.475	69.92
703.659	71.06
703.843	71.63
704.027	71.63
704.212	72.29
704.396	72.76
704.58	72.61
704.764	71.92
704.948	72.7
705.132	72.16
705.316	72.52
705.5	73.03
705.684	73.31
705.868	73.7
706.052	73.79
706.235	74.23
706.419	73.44
706.603	73.54
706.787	74.1
706.971	73.64
707.155	73.38
707.339	73.38
707.522	72.96
707.706	72.65
707.89	72.21
708.074	72.05
708.257	71.17
708.441	71.3
708.625	71.58
708.808	71.28
708.992	71.28
709.176	71.62
709.359	71.15
709.543	71.34
709.727	71.1
709.91	71.26
710.094	70.86
710.277	71.11
710.461	71.64
710.644	71.09
710.828	71.07
711.011	71.77
711.195	72.01
711.378	72.69
711.562	72.7
711.745	73.01
711.928	73.24
712.112	73.11
712.295	72.42
712.478	71.4
712.662	72.14
712.845	71.82
713.028	70.77
713.212	70.82
713.395	70.16
713.578	70.74
713.761	70.18
713.945	70.16
714.128	70.9
714.311	71.27
714.494	71.3
714.677	70.86
714.86	70.94
715.043	70.68
715.227	69.97
715.41	70.45
715.593	70.13
715.776	70.05
715.959	69.41
716.142	69.12
716.325	68.46
716.508	68.49
716.691	67.61
716.874	67.18
717.057	66.86
717.239	68
717.422	67.01
717.605	65.97
717.788	65.98
717.971	66.75
718.154	66.96
718.337	68.15
718.519	68.55
718.702	68.56
718.885	68.49
719.068	69.5
719.25	69
719.433	69.98
719.616	71.09
719.798	71.04
719.981	70.71
720.164	69.95
720.346	69.94
720.529	70.35
720.712	71.08
720.894	71.61
721.077	71.6
721.259	71.8
721.442	71.3
721.624	71.53
721.807	71.79
721.989	72.02
722.172	72.74
722.354	72.6
722.537	73.23
722.719	73.79
722.901	73.7
723.084	73.82
723.266	74.14
723.448	74.78
723.631	75.15
723.813	75.92
723.995	75.14
724.178	74.99
724.36	75.19
724.542	74.81
724.724	74.6
724.907	74.99
725.089	75.11
725.271	75.12
725.453	74.62
725.635	74.32
725.817	74.09
725.999	75.08
726.181	74.67
726.364	73.85
726.546	73.17
726.728	72.55
726.91	71.61
727.092	70.91
727.274	69.78
727.456	69.86
727.638	69
727.819	68.08
728.001	67.32
728.183	67.52
728.365	67.55
728.547	67.12
728.729	68.15
728.911	69.37
729.093	69.02
729.274	69.76
729.456	69.71
729.638	69.99
729.82	70.99
730.001	70.97
730.183	70.65
730.365	70.64
730.546	71.83
730.728	71.12
730.91	70.78
731.091	71.53
731.273	71.14
731.455	71.56
731.636	72.03
731.818	72.25
731.999	72.16
732.181	72.58
732.362	73.1
732.544	72.88
732.725	72.84
732.907	72.7
733.088	73.22
733.27	74.36
733.451	74.75
733.633	74.96
733.814	75.08
733.995	76.19
734.177	76.83
734.358	76.81
734.539	76.67
734.721	76.98
734.902	77.09
735.083	77.62
735.264	77.44
735.446	77.19
735.627	77.17
735.808	76.69
735.989	76.87
736.17	76.87
736.351	77.38
736.533	77.14
736.714	77.26
736.895	76.54
737.076	76.53
737.257	75.83
737.438	75.82
737.619	76.22
737.8	76.53
737.981	76.75
738.162	76.35
738.343	76.82
738.524	77.8
738.705	77.95
738.886	78.09
739.067	77.61
739.247	78.13
739.428	78.16
739.609	77.74
739.79	78.04
739.971	76.98
740.151	77.5
740.332	76.42
740.513	75.95
740.694	75.8
740.874	76.85
741.055	76.52
741.236	76.64
741.417	76.85
741.597	76.38
741.778	76.74
741.958	76.7
742.139	76.89
742.32	77.78
742.5	78.53
742.681	78.86
742.861	79.22
743.042	79.45
743.222	79.41
743.403	79.22
743.583	80.28
743.764	80.81
743.944	82.27
744.124	82.69
744.305	82.9
744.485	83
744.666	82.35
744.846	82.21
745.026	82.99
745.207	82.46
745.387	84.2
745.567	83.79
745.747	82.79
745.928	81.57
746.108	80.91
746.288	80.13
746.468	78.45
746.648	80
746.829	79.36
747.009	79.09
747.189	79.47
747.369	78.07
747.549	78.5
747.729	79.09
747.909	79.29
748.089	79.96
748.269	81.15
748.449	82.63
748.629	82.24
748.809	83.14
748.989	82.04
749.169	81.56
749.349	82.32
749.529	82.23
749.709	81.92
749.889	81.74
750.068	81.83
750.248	81.9
750.428	80.79
750.608	80.12
750.788	80.37
750.967	81.42
751.147	81.88
751.327	81.96
751.507	81.56
751.686	82.04
751.866	82.71
752.046	81.75
752.225	81.56
752.405	83.01
752.585	83.94
752.764	84.3
752.944	83.37
753.123	83.98
753.303	82.7
753.482	83.13
753.662	82.34
753.841	81.9
754.021	82.3
754.2	81.93
754.38	81.91
754.559	82.16
754.739	80.93
754.918	81.75
755.097	80.93
755.277	81.67
755.456	82.43
755.635	82.69
755.815	83.4
755.994	83.88
756.173	84.55
756.352	83.78
756.532	83.07
756.711	84.55
756.89	85.09
757.069	84.43
757.248	83.14
757.427	83.1
757.607	83.58
757.786	85.31
757.965	83.66
758.144	83.26
758.323	81.69
758.502	82.16
758.681	79.92
758.86	78.26
759.039	78.26
759.218	78.91
759.397	77.11
759.576	75.62
759.755	72.21
759.934	72.05
760.113	71.79
760.291	72.71
760.47	71.24
760.649	71.59
760.828	71.83
761.007	72.72
761.186	72.21
761.364	71.84
761.543	71.42
761.722	71.24
761.901	70.94
762.079	68.92
762.258	67.99
762.437	67.67
762.615	67.57
762.794	67.91
762.972	67
763.151	66.08
763.33	66.41
763.508	66.06
763.687	65.4
763.865	64.92
764.044	65.65
764.222	64.87
764.401	64.9
764.579	65.2
764.758	64.12
764.936	64.81
765.114	66.22
765.293	66.61
765.471	67.2
765.65	68.87
765.828	70.48
766.006	71.22
766.184	73.24
766.363	74.04
766.541	73.32
766.719	75.04
766.898	75.24
767.076	75.22
767.254	75.52
767.432	75.56
767.61	75.29
767.788	75.96
767.967	76.59
768.145	77.85
768.323	78.67
768.501	79.77
768.679	80.96
768.857	80.97
769.035	82.41
769.213	82.92
769.391	84.34
769.569	85.26
769.747	86.6
769.925	85.94
770.103	86.15
770.281	85.59
770.459	85.89
770.636	85.94
770.814	86.17
770.992	86.09
771.17	86.44
771.348	85.61
771.525	85.45
771.703	84.5
771.881	85.05
772.059	83.72
772.236	84.79
772.414	85.87
772.592	86.14
772.769	86.69
772.947	87.23
773.125	88.75
773.302	89.82
773.48	91.02
773.657	90.1
773.835	90.01
774.013	91.75
774.19	91.4
774.368	92.36
774.545	93.49
774.723	93.59
774.9	92.89
775.077	92.19
775.255	91.18
775.432	91.9
775.61	92.52
775.787	93.62
775.964	93.12
776.142	92.36
776.319	93.11
776.496	90.72
776.674	90.23
776.851	88.09
777.028	88.35
777.205	88.76
777.382	86.6
777.56	87.63
777.737	90.34
777.914	90.83
778.091	91.31
778.268	89.2
778.445	89.58
778.622	89.16
778.8	92.63
778.977	92.07
779.154	103.3
779.331	103.04
779.508	102.25
779.685	101.48
779.862	101.06
780.038	101.51
780.215	102.31
780.392	101.69
780.569	102.48
780.746	100.18
780.923	99.59
781.1	88.12
781.277	88.37
781.453	88.22
781.63	87.09
781.807	87.23
781.984	86.24
782.16	85.57
782.337	85.21
782.514	85.32
782.691	87.49
782.867	90.12
783.044	92.2
783.221	93.44
783.397	93.51
783.574	91.14
783.75	88.19
783.927	89.28
784.103	89.99
784.28	87.59
784.456	88.27
784.633	87.82
784.809	87.15
784.986	85.11
785.162	83.24
785.339	83.07
785.515	83.47
785.692	84.99
785.868	84.07
786.044	83.6
786.221	84.76
786.397	81.8
786.573	79.11
786.749	77.38
786.926	78.2
787.102	80.2
787.278	79.86
787.454	79.7
787.631	80.52
787.807	79.5
787.983	79.44
788.159	81.15
788.335	82.47
788.511	82.9
788.687	84.72
788.863	85.54
789.039	84.71
789.216	84.51
789.392	83.48
789.568	82.8
789.744	85.44
789.919	85.75
790.095	83.77
790.271	83.76
790.447	83.48
790.623	81.52
790.799	80.82
790.975	80.6
791.151	81.27
791.327	82.27
791.502	82.41
791.678	81.71
791.854	80.22
792.03	80.98
792.205	82.07
792.381	82.9
792.557	84.2
792.733	83.76
792.908	85.04
793.084	84.88
793.259	86.82
793.435	87.1
793.611	85.88
793.786	86.25
793.962	85.43
794.137	83.86
794.313	82.83
794.488	81.18
794.664	81.91
794.839	78.95
795.015	78.13
795.19	75.2
795.366	73.31
795.541	73.4
795.716	72.37
795.892	74.43
796.067	74.33
796.242	75.82
796.418	76.39
796.593	76.56
796.768	78.43
796.944	78.23
797.119	78.54
797.294	81.14
797.469	80.93
797.644	80.61
797.82	80.25
797.995	79.86
798.17	78.72
798.345	79.83
798.52	79.64
798.695	78.2
798.87	78.26
799.045	79.34
799.22	78.14
799.395	78.51
799.57	81.34
799.745	80.59
799.92	80.39
800.095	83.06
800.27	81.59
800.445	81.54
800.62	81.06
800.795	80.94
800.97	81.41
801.145	80.25
801.319	79.26
801.494	78.11
801.669	79.22
801.844	80.83
802.018	77.69
802.193	78.14
802.368	76.77
802.543	78.18
802.717	81.24
802.892	78.24
803.067	81.01
803.241	82.12
803.416	81.21
803.59	80.71
803.765	78.93
803.94	79.65
804.114	79.83
804.289	81.64
804.463	80.94
804.638	77.81
804.812	80.65
804.986	78.04
805.161	79.39
805.335	79.26
805.51	78.98
805.684	78.1
805.858	76.55
806.033	76.25
806.207	75
806.381	74.54
806.556	77.05
806.73	77.99
806.904	81.62
807.078	80.16
807.253	80.4
807.427	80.21
807.601	81.52
807.775	84.69
807.949	83.58
808.123	83.02
808.298	83.32
808.472	81.93
808.646	81.09
808.82	79.45
808.994	77.55
809.168	79.92
809.342	80.08
809.516	82.13
809.69	83.1
809.864	84.91
810.038	89.47
810.212	89.79
810.385	88.42
810.559	90.48
810.733	90.8
810.907	92.65
811.081	89.43
811.255	91.21
811.428	90.58
811.602	87.48
811.776	85.86
811.95	82.07
812.123	82.43
812.297	82.52
812.471	78.54
812.644	77.3
812.818	77.97
812.992	79
813.165	76.28
813.339	75.47
813.512	76.51
813.686	75.94
813.86	73.44
814.033	74.57
814.207	74.2
814.38	74.92
814.554	73.6
814.727	74.15
814.9	75.92
815.074	76.48
815.247	76.91
815.421	71.45
815.594	72.54
815.767	74.4
815.941	72.96
816.114	74.78
816.287	74.48
816.46	71.11
816.634	69.59
816.807	69.13
816.98	68.88
817.153	69.32
817.327	71.52
817.5	74.51
817.673	75.29
817.846	76.39
818.019	74.17
818.192	76.35
818.365	81.58
818.538	82.4
818.711	79.94
818.884	81.92
819.057	81.97
819.23	84.99
819.403	83.01
819.576	81.84
819.749	79.9
819.922	78.6
820.095	77.68
820.268	77.05
820.441	74.83
820.614	74.46
820.786	72.26
820.959	69.6
821.132	66.55
821.305	63.35
821.477	61.05
821.65	60.25
821.823	59.33
821.996	57.74
822.168	56.51
822.341	55.9
822.514	54.7
822.686	54.16
822.859	53.6
823.031	52.86
823.204	52.75
823.376	52.77
823.549	52
823.722	52.24
823.894	52.84
824.067	53.06
824.239	52.98
824.411	53.33
824.584	53.42
824.756	53.91
824.929	54.61
825.101	54.83
825.273	55.13
825.446	55.03
825.618	55.15
825.79	54.22
825.963	54.5
826.135	54.44
826.307	55.02
826.479	55.37
826.652	55.43
826.824	55.15
826.996	55.79
827.168	56.34
827.34	58.03
827.512	57.52
827.684	58.77
827.856	58.34
828.029	58.96
828.201	57.24
828.373	56.11
828.545	56.43
828.717	58.01
828.889	57.38
829.061	57.16
829.232	58.27
829.404	59.07
829.576	59.02
829.748	59.76
829.92	61.62
830.092	63.86
830.264	65.98
830.436	65.98
830.607	65.82
830.779	67.46
830.951	68.88
831.123	67.35
831.294	68.94
831.466	69.7
831.638	71.39
831.809	68.89
831.981	69.17
832.153	69.32
832.324	70.02
832.496	67.6
832.667	69.6
832.839	72.55
833.011	73.06
833.182	74.65
833.354	75.5
833.525	75.22
833.697	73.82
833.868	72.39
834.039	72.98
834.211	72.03
834.382	72.33
834.554	70.42
834.725	68.22
834.896	65.97
835.068	62.49
835.239	61.3
835.41	61.74
835.581	63.55
835.753	64.28
835.924	62.36
836.095	60.42
836.266	61.25
836.438	60.84
836.609	59.82
836.78	61.56
836.951	64.46
837.122	64.78
837.293	65.54
837.464	66.77
837.635	66.06
837.806	69.68
837.977	72.17
838.148	73.27
838.319	75.64
838.49	79.12
838.661	79.14
838.832	79.24
839.003	78.6
839.174	78.9
839.345	79.05
839.516	81.17
839.687	83.92
839.857	89.65
840.028	83.58
840.199	83.37
840.37	80.26
840.54	82.74
840.711	79.48
840.882	79.91
841.053	73.91
841.223	68.47
841.394	70.74
841.564	69.85
841.735	67.46
841.906	72.05
842.076	69.52
842.247	72.29
842.417	68.75
842.588	71.73
842.758	74.77
842.929	80.8
843.099	86.89
843.27	83.37
843.44	82.33
843.611	82.34
843.781	79.83
843.951	82.07
844.122	78.5
844.292	81.33
844.462	84.45
844.633	78.92
844.803	81.9
844.973	79.09
845.144	80.95
845.314	80.79
845.484	81.07
845.654	91.41
845.824	93.84
845.995	97.5
846.165	101.62
846.335	98.82
846.505	121.01
846.675	121.02
846.845	120.4
847.015	124.95
847.185	126.26
847.355	129.15
847.525	129.27
847.695	134.84
847.865	137.66
848.035	132.02
848.205	141.56
848.375	130.48
848.545	129.34
848.715	141.09
848.884	142.12
849.054	141.11
849.224	133.01
849.394	127.72
849.564	131.81
849.733	126.55
849.903	125.35
850.073	113.54
850.243	105.06
850.412	94.7
850.582	80.12
850.752	82.12
850.921	86.04
851.091	87.39
851.26	93.74
851.43	83.74
851.599	83.65
851.769	80.2
851.939	88.77
852.108	92.57
852.278	98.94
852.447	106.57
852.616	107.25
852.786	101.29
852.955	100.23
853.125	89.84
853.294	101.16
853.463	100.75
853.633	107.05
853.802	102.68
853.971	101.38
854.141	103.19
854.31	106.43
854.479	109.58
854.648	110.08
854.818	109.73
854.987	112.88
855.156	117.89
855.325	126.11
855.494	132.83
855.663	133.67
855.832	129.53
856.001	134.57
856.171	133.03
856.34	128.88
856.509	134.76
856.678	138.31
856.847	134.82
857.016	122.12
857.185	116.76
857.353	122.03
857.522	122.96
857.691	121.11
857.86	126.84
858.029	137.12
858.198	140.81
858.367	137.95
858.535	147.47
858.704	157.55
858.873	175.04
859.042	162.68
859.21	154.81
859.379	146.43
859.548	155.15
859.717	148.54
859.885	149.35
860.054	137.9
860.222	130.57
860.391	128.65
860.56	126.53
860.728	124.23
860.897	132.58
861.065	127.55
861.234	128.23
861.402	125.43
861.571	126.25
861.739	120.85
861.908	138.19
862.076	148.67
862.244	150.91
862.413	146.65
862.581	141.48
862.749	142.99
862.918	153.36
863.086	142.76
863.254	142.41
863.423	138.02
863.591	121.01
863.759	111.18
863.927	100.96
864.096	100.76
864.264	100.52
864.432	93.55
864.6	88.49
864.768	87.88
864.936	88.99
865.104	92.57
865.272	85.85
865.44	97.53
865.608	91.66
865.776	106.62
865.944	101.66
866.112	107.7
866.28	121.78
866.448	122.65
866.616	113.08
866.784	125.07
866.952	119.39
867.12	122.31
867.288	114.43
867.455	115.84
867.623	113.39
867.791	124.35
867.959	125.17
868.127	117.62
868.294	135.43
868.462	134.17
868.63	108.39
868.797	93.4
868.965	94.91
869.133	101.84
869.3	125.24
869.468	116.2
869.636	109.83
869.803	105.27
869.971	99.23
870.138	99.49
870.306	96.06
870.473	107.42
870.641	117.69
870.808	123.25
870.975	111.48
871.143	99.12
871.31	102.69
871.478	94.35
871.645	92.45
871.812	102.83
871.98	104.73
872.147	111.13
872.314	102.45
872.482	98.84
872.649	97.32
872.816	108.5
872.983	112.3
873.15	112.09
873.318	118.42
873.485	125.23
873.652	125.38
873.819	127.21
873.986	120.16
874.153	127.17
874.32	115.12
874.487	114.42
874.654	109.56
874.821	114.6
874.988	114.17
875.155	112.9
875.322	107.93
875.489	106.74
875.656	104.01
875.823	114.41
875.99	110.51
876.157	132.87
876.324	132.06
876.49	143.34
876.657	127.09
876.824	116.37
876.991	113.35
877.157	118.09
877.324	124.12
877.491	124.62
877.658	111.08
877.824	109.95
877.991	104.31
878.157	103.5
878.324	103.92
878.491	97.14
878.657	98.55
878.824	94.16
878.99	86.14
879.157	89.03
879.323	85.79
879.49	84.92
879.656	87.02
879.823	92.44
879.989	94.2
880.156	90.91
880.322	91.48
880.488	90.92
880.655	94.32
880.821	105.71
880.987	96.88
881.154	93.12
881.32	95.72
881.486	96.7
881.652	91.84
881.819	87.42
881.985	83.4
882.151	81.76
882.317	78.24
882.483	75.84
882.649	71.98
882.816	66.9
882.982	63.2
883.148	63.06
883.314	60.06
883.48	58.53
883.646	56.82
883.812	57.47
883.978	57.49
884.144	58.17
884.31	58
884.476	56.04
884.642	56.48
884.807	61.21
884.973	59.32
885.139	60.78
885.305	61.95
885.471	63.71
885.637	62.85
885.802	62.9
885.968	65.31
886.134	65.33
886.3	67.15
886.465	70.13
886.631	68
886.797	74.38
886.962	72.85
887.128	73.42
887.293	71.33
887.459	73.45
887.625	77.23
887.79	74.33
887.956	80.88
888.121	82.71
888.287	82.52
888.452	80.51
888.618	76.15
888.783	79
