Data from LC_188_Reflection_3.txt Node
Date: Tue Nov 17 13:25:33 EST 2015
User: robert
Spectrometer: USB4E03001
Autoset integration time: false
Trigger mode: 4
Integration Time (sec): 1.000000E-1
Scans to average: 15
Electric dark correction enabled: true
Nonlinearity correction enabled: false
Boxcar width: 5
Stray light correction enabled: false
XAxis mode: Wavelengths
Stop averaging: false
Number of Pixels in Spectrum: 3648
>>>>>Begin Spectral Data<<<<<
177.566	10.86
177.785	6.14
178.005	320.15
178.225	94.77
178.445	-28.97
178.665	137.74
178.885	-89.77
179.105	-51.18
179.324	12.73
179.544	303.98
179.764	69.52
179.984	15
180.204	19.96
180.423	-93.97
180.643	-22.33
180.863	488.12
181.083	756.12
181.302	-144.44
181.522	-27.16
181.742	-44.4
181.961	-1516.67
182.181	152.61
182.401	80.02
182.621	138.22
182.84	118.98
183.06	501.95
183.279	-393.94
183.499	3211.76
183.719	265.86
183.938	107.18
184.158	102.66
184.377	158.98
184.597	141.56
184.816	68.65
185.036	79.9
185.256	73.05
185.475	83.7
185.695	94.9
185.914	114.05
186.134	129.36
186.353	79
186.572	77.36
186.792	72.63
187.011	66.94
187.231	-102.22
187.45	-203.37
187.67	64.93
187.889	78.24
188.108	51.84
188.328	56.97
188.547	10.15
188.766	350.77
188.986	-44.13
189.205	63.17
189.424	91.58
189.644	95.06
189.863	47.17
190.082	22.6
190.302	44.38
190.521	112.3
190.74	-1409.74
190.959	-58.72
191.178	50.99
191.398	-30.56
191.617	-137.57
191.836	-190.22
192.055	-82.59
192.274	443.63
192.494	124.52
192.713	552.62
192.932	424.88
193.151	-159.56
193.37	-4312.7
193.589	93600
193.808	2074.16
194.027	-7.82
194.246	-155.44
194.465	822.38
194.685	137.16
194.904	109.3
195.123	7962.5
195.342	380.73
195.561	66.83
195.78	81.83
195.999	84.27
196.218	39.09
196.436	51.02
196.655	48.99
196.874	54.8
197.093	54.41
197.312	36.9
197.531	46.32
197.75	29.56
197.969	38.28
198.188	24.97
198.407	26.89
198.625	30.89
198.844	31.78
199.063	4.07
199.282	1.17
199.501	-26.22
199.719	-20.15
199.938	-23.46
200.157	9.45
200.376	-155.14
200.594	-36.31
200.813	5.91
201.032	20.48
201.251	69.75
201.469	1336.22
201.688	323.78
201.907	-1410.17
202.125	75.21
202.344	103.43
202.563	77.79
202.781	61.86
203	-253.84
203.218	10
203.437	21.35
203.656	107.25
203.874	131.14
204.093	63.9
204.311	103.8
204.53	1471.05
204.748	-30.97
204.967	289.85
205.185	175.84
205.404	54.97
205.622	65.14
205.841	40.01
206.059	45.9
206.278	11.64
206.496	26.1
206.715	42.37
206.933	-7.61
207.151	-1.94
207.37	9.27
207.588	-22.86
207.806	-74.84
208.025	-50.23
208.243	-33.86
208.461	-55.66
208.68	-140.92
208.898	348.95
209.116	621.57
209.335	-921.58
209.553	1088.87
209.771	-503.09
209.989	-134.96
210.208	-193.09
210.426	-180.87
210.644	-151.39
210.862	-83.63
211.081	-33.96
211.299	-26.58
211.517	-30.31
211.735	-34.99
211.953	0.39
212.171	-13.46
212.39	-64.13
212.608	-28.76
212.826	-64.7
213.044	-87.45
213.262	-142.7
213.48	8964.18
213.698	367.79
213.916	-128.8
214.134	290.46
214.352	159.22
214.57	113.3
214.788	-962.84
215.006	-166.2
215.224	-174.75
215.442	-158.27
215.66	-18.2
215.878	6.79
216.096	32.48
216.314	67.67
216.532	62.74
216.75	57.62
216.968	54.15
217.185	55.76
217.403	65.37
217.621	71.33
217.839	97.52
218.057	95.41
218.275	107.88
218.492	107.43
218.71	95.38
218.928	118.53
219.146	123.84
219.363	125.81
219.581	126.43
219.799	101.3
220.017	71.32
220.234	37.13
220.452	26.14
220.67	12.63
220.887	9.67
221.105	10.65
221.323	-13.38
221.54	-31.41
221.758	-23.6
221.976	-60.61
222.193	-21.01
222.411	-18.38
222.629	-27.87
222.846	-33.37
223.064	-37.14
223.281	-33.02
223.499	-39.61
223.716	-30.1
223.934	-13.74
224.151	-4.43
224.369	8.38
224.586	0.7
224.804	25.6
225.021	44.15
225.239	28.05
225.456	25.56
225.674	18.14
225.891	21.99
226.108	24.84
226.326	20.15
226.543	23.01
226.76	16.52
226.978	17.57
227.195	20.17
227.413	15.73
227.63	25.47
227.847	21.37
228.064	20.38
228.282	18.62
228.499	19.09
228.716	17.96
228.934	17.24
229.151	22.42
229.368	15.49
229.585	12.06
229.802	15.7
230.02	15.65
230.237	15.8
230.454	16.45
230.671	17.85
230.888	15.63
231.105	17.04
231.323	14.14
231.54	7.64
231.757	15.71
231.974	19.16
232.191	8.81
232.408	7.72
232.625	11.65
232.842	16.1
233.059	13.43
233.276	17.86
233.493	12.47
233.71	14.86
233.927	15.56
234.144	14.47
234.361	9.13
234.578	20.38
234.795	17.96
235.012	15.59
235.229	8.15
235.446	2.68
235.663	2.76
235.879	2.86
236.096	4.94
236.313	5.63
236.53	6.09
236.747	9.77
236.964	2.53
237.181	4.22
237.397	6.88
237.614	12.81
237.831	16.86
238.048	11.82
238.264	15.88
238.481	15.07
238.698	11.21
238.915	12.38
239.131	13.93
239.348	15.48
239.565	15.23
239.781	16.5
239.998	14.43
240.215	14.59
240.431	16.73
240.648	15.09
240.865	14.19
241.081	14.66
241.298	14.05
241.514	13.81
241.731	12.44
241.947	10.59
242.164	9.97
242.38	8.15
242.597	9.16
242.814	8.55
243.03	9.22
243.246	8.39
243.463	10.09
243.679	7.77
243.896	5.78
244.112	5.35
244.329	7
244.545	4.75
244.762	7.57
244.978	4.81
245.194	4.87
245.411	6.37
245.627	9.23
245.843	8.19
246.06	8.01
246.276	7.68
246.492	8.46
246.709	8.55
246.925	10.1
247.141	10.16
247.357	10.85
247.574	10.95
247.79	9.98
248.006	9.49
248.222	10.11
248.439	10.67
248.655	10.31
248.871	11.09
249.087	10.88
249.303	10.06
249.519	9.2
249.736	9.08
249.952	7.02
250.168	8.82
250.384	7
250.6	5.77
250.816	4.59
251.032	6.03
251.248	3.38
251.464	3.13
251.68	3.93
251.896	2.69
252.112	0.58
252.328	5.47
252.544	4
252.76	5.08
252.976	4.28
253.192	6.79
253.408	7.86
253.624	9.93
253.84	10.46
254.056	8.65
254.272	9.29
254.487	12.97
254.703	10.4
254.919	9.65
255.135	12.47
255.351	10.85
255.567	7.32
255.782	2.88
255.998	0.78
256.214	0.54
256.43	1.83
256.646	3.62
256.861	2.19
257.077	2.68
257.293	6.2
257.508	5.26
257.724	6.48
257.94	6.61
258.155	7.92
258.371	8.68
258.587	7.78
258.802	7.24
259.018	7.28
259.234	7.84
259.449	8.27
259.665	7.48
259.88	7.15
260.096	8.04
260.312	8.23
260.527	7.86
260.743	7.83
260.958	8.13
261.174	8.48
261.389	8.45
261.605	8.74
261.82	8.11
262.036	8.56
262.251	8.28
262.466	6.96
262.682	8.31
262.897	9.52
263.113	7.37
263.328	8.57
263.543	8.79
263.759	8.48
263.974	7.31
264.189	7.96
264.405	7.71
264.62	9.03
264.835	9.83
265.051	6.38
265.266	6.85
265.481	10.25
265.696	9.77
265.912	10.98
266.127	9.24
266.342	7.82
266.557	5.77
266.773	6.13
266.988	5.25
267.203	5.18
267.418	8.18
267.633	6.97
267.848	6.08
268.064	4.34
268.279	3.94
268.494	5.52
268.709	6.39
268.924	7.02
269.139	5.47
269.354	5.77
269.569	5.54
269.784	2.74
269.999	3.65
270.214	2.48
270.429	4.32
270.644	3.03
270.859	3.31
271.074	3.29
271.289	3.85
271.504	4
271.719	4.1
271.934	4.5
272.149	5.61
272.363	6.34
272.578	8.02
272.793	7.66
273.008	8.51
273.223	8.41
273.438	8.18
273.653	8.21
273.867	8.26
274.082	8.24
274.297	8.32
274.512	8.35
274.726	7.12
274.941	5.3
275.156	5.53
275.371	3.45
275.585	4.54
275.8	5.72
276.015	6.44
276.229	7.19
276.444	5.98
276.659	5.71
276.873	4.09
277.088	4.93
277.302	5.51
277.517	5.52
277.732	6.58
277.946	5.44
278.161	4.96
278.375	5.09
278.59	3.77
278.804	4.25
279.019	4.38
279.233	6.05
279.448	5.19
279.662	6.49
279.877	5.29
280.091	5.65
280.306	6.35
280.52	6.32
280.735	5.61
280.949	6.77
281.163	7.11
281.378	7.94
281.592	7.64
281.806	7.83
282.021	7.31
282.235	7.41
282.449	8.37
282.664	7.96
282.878	8.44
283.092	7.87
283.307	8.28
283.521	8.29
283.735	6.56
283.949	5.35
284.164	4.92
284.378	4.33
284.592	4.58
284.806	3.4
285.02	2.74
285.234	1.96
285.449	2.76
285.663	2.42
285.877	3.26
286.091	4.4
286.305	5.59
286.519	5.85
286.733	6.43
286.947	6.93
287.161	6.74
287.375	7.52
287.589	7.88
287.803	7.63
288.017	7.76
288.231	7.1
288.445	6.88
288.659	6.24
288.873	5.48
289.087	5.5
289.301	5.89
289.515	6.89
289.729	7.38
289.943	6.83
290.157	6.61
290.371	6.2
290.584	6.62
290.798	6.43
291.012	7.61
291.226	9.25
291.44	9.53
291.654	9.59
291.867	9.65
292.081	7.93
292.295	8.82
292.509	7.73
292.722	8.76
292.936	8.29
293.15	7.91
293.364	6.24
293.577	4.53
293.791	4.05
294.005	4.33
294.218	4.26
294.432	5.69
294.645	6.25
294.859	7.19
295.073	6.25
295.286	6.71
295.5	6.91
295.713	7.73
295.927	8.66
296.14	8.76
296.354	7.73
296.568	8.09
296.781	8.48
296.994	8.27
297.208	9.05
297.421	9.03
297.635	9.58
297.848	9.54
298.062	9.43
298.275	9.08
298.489	8.42
298.702	9.63
298.915	9.61
299.129	9.52
299.342	9.23
299.555	8.62
299.769	9.58
299.982	8.44
300.195	7.94
300.409	7.21
300.622	7.2
300.835	8.8
301.048	7.19
301.262	6.34
301.475	6.27
301.688	6.96
301.901	7.06
302.115	6.15
302.328	6.27
302.541	6.95
302.754	7.87
302.967	8.54
303.18	7.78
303.393	8.81
303.607	9.83
303.82	9.08
304.033	8.52
304.246	8.57
304.459	9.14
304.672	10.02
304.885	10.83
305.098	10.49
305.311	9.94
305.524	9.44
305.737	8.72
305.95	9.34
306.163	8.55
306.376	8.05
306.589	8.19
306.802	7.54
307.015	6.7
307.228	7.31
307.44	7.74
307.653	7.45
307.866	7.81
308.079	7.44
308.292	6.35
308.505	7.71
308.718	8.04
308.93	7.43
309.143	8.29
309.356	8.02
309.569	6.67
309.781	6.73
309.994	6.37
310.207	5.9
310.42	5.19
310.632	5.23
310.845	5.24
311.058	4.89
311.27	4.9
311.483	4.47
311.696	4.86
311.908	5.35
312.121	4.99
312.333	5.29
312.546	5.89
312.759	6.8
312.971	6.78
313.184	7.35
313.396	7.43
313.609	8.78
313.821	9.98
314.034	10.74
314.246	10.84
314.459	10.43
314.671	10.41
314.884	9.94
315.096	9.69
315.309	8.9
315.521	8.15
315.733	8.12
315.946	7.6
316.158	6.7
316.371	5.46
316.583	5.05
316.795	5.77
317.008	6.34
317.22	6.4
317.432	8.26
317.644	9.01
317.857	8.42
318.069	10.55
318.281	10.56
318.494	10.62
318.706	10.48
318.918	11
319.13	11.43
319.342	11.8
319.555	11.11
319.767	10.16
319.979	10.46
320.191	10.79
320.403	9.51
320.615	8.97
320.827	7.96
321.039	10.41
321.252	10.23
321.464	9.15
321.676	9.61
321.888	10.68
322.1	10.19
322.312	10.69
322.524	11.33
322.736	10.16
322.948	10.14
323.16	10.4
323.372	8.1
323.584	8.87
323.796	11.1
324.007	10.52
324.219	11.49
324.431	12.46
324.643	12.74
324.855	12.63
325.067	14.19
325.279	14.91
325.491	16.12
325.702	17.04
325.914	16.45
326.126	15.21
326.338	16.68
326.55	15.72
326.761	15.26
326.973	15.68
327.185	15.34
327.396	14.95
327.608	14.97
327.82	14.22
328.032	14.5
328.243	14.16
328.455	14.56
328.666	14.11
328.878	14.9
329.09	15.32
329.301	14.56
329.513	15.34
329.725	16.54
329.936	16.3
330.148	17.6
330.359	18
330.571	18.46
330.782	18.94
330.994	18.37
331.205	17.9
331.417	18.1
331.628	18.21
331.84	19.37
332.051	18.46
332.262	19.29
332.474	18.88
332.685	19.49
332.897	20.12
333.108	20.31
333.319	20.33
333.531	20.56
333.742	19.99
333.953	20
334.165	19.21
334.376	20.14
334.587	19.94
334.799	19.68
335.01	20.53
335.221	20.23
335.432	19.78
335.644	20.63
335.855	21.45
336.066	23.04
336.277	23.66
336.488	23.92
336.7	23.69
336.911	23.86
337.122	24.48
337.333	23.78
337.544	24.15
337.755	24.53
337.966	24.09
338.177	24
338.388	23.04
338.599	23.2
338.811	23.1
339.022	23.49
339.233	22.55
339.444	21.54
339.655	21.44
339.866	21.11
340.076	20.9
340.287	21.52
340.498	21.7
340.709	22.7
340.92	22.18
341.131	21.97
341.342	21.8
341.553	23.25
341.764	24.21
341.975	24.21
342.185	24.33
342.396	24.29
342.607	23.77
342.818	24.23
343.029	23.52
343.239	23.82
343.45	23.91
343.661	23.46
343.872	22.89
344.082	23.35
344.293	23.22
344.504	24.53
344.714	24.15
344.925	23.91
345.136	23.01
345.346	22.95
345.557	21.76
345.768	21.87
345.978	22
346.189	22.49
346.399	21.97
346.61	21.68
346.821	20.17
347.031	20.21
347.242	20.43
347.452	20.88
347.663	20.35
347.873	21.22
348.084	21.05
348.294	21.4
348.504	20.86
348.715	21.18
348.925	21.54
349.136	22.05
349.346	22.13
349.557	22.27
349.767	21.85
349.977	21.82
350.188	23.13
350.398	23.43
350.608	23.44
350.819	23.21
351.029	22.56
351.239	22.6
351.449	22.09
351.66	22.4
351.87	22.01
352.08	22.46
352.29	23.39
352.501	21.46
352.711	21.57
352.921	21.37
353.131	21.44
353.341	21.98
353.552	21.23
353.762	21.41
353.972	21.55
354.182	22.19
354.392	21.85
354.602	21.76
354.812	21.89
355.022	21.67
355.232	21.78
355.442	21.86
355.652	21.71
355.862	22.88
356.072	22.93
356.282	22.83
356.492	22.15
356.702	22.05
356.912	22.09
357.122	22.18
357.332	22.12
357.542	22.05
357.752	21.9
357.962	21.84
358.171	21.05
358.381	21.16
358.591	20.97
358.801	21.2
359.011	20.74
359.221	20.8
359.43	21.2
359.64	20.84
359.85	20.58
360.06	20.93
360.269	20.68
360.479	20.43
360.689	20.41
360.899	20.49
361.108	20.26
361.318	21.01
361.528	20.44
361.737	20.27
361.947	20.65
362.156	20.88
362.366	20.68
362.576	20.63
362.785	20.84
362.995	20.98
363.204	20.84
363.414	20.88
363.623	20.4
363.833	20.49
364.042	20.51
364.252	19.77
364.461	19.55
364.671	19.47
364.88	19.37
365.09	19.44
365.299	19.24
365.509	19.45
365.718	19.68
365.927	19.7
366.137	20.38
366.346	20.94
366.555	21.77
366.765	21.59
366.974	21.3
367.183	21.12
367.393	20.76
367.602	20.7
367.811	20.47
368.021	20.03
368.23	20.7
368.439	20.38
368.648	19.82
368.857	19.34
369.067	19.82
369.276	20.5
369.485	21.44
369.694	22.04
369.903	22.01
370.112	22.02
370.321	22.04
370.531	21.07
370.74	20.91
370.949	20.77
371.158	21.08
371.367	20.7
371.576	20.44
371.785	19.93
371.994	19.64
372.203	19.25
372.412	19.37
372.621	19.41
372.83	19.77
373.039	19.86
373.248	19.89
373.457	20.02
373.666	19.97
373.874	19.75
374.083	19.41
374.292	19.12
374.501	19.53
374.71	19.42
374.919	19.16
375.128	18.71
375.336	18.67
375.545	18.71
375.754	17.8
375.963	17.73
376.171	17.91
376.38	18.74
376.589	18.86
376.798	18.89
377.006	19.04
377.215	19.69
377.424	19.84
377.632	19.52
377.841	19.29
378.05	19.95
378.258	20.06
378.467	19.68
378.675	19.12
378.884	19.14
379.093	18.98
379.301	19.11
379.51	18.8
379.718	19
379.927	19.07
380.135	18.97
380.344	18.88
380.552	18.48
380.761	18.47
380.969	18.5
381.177	18.66
381.386	17.87
381.594	17.67
381.803	17.54
382.011	17.52
382.219	17.67
382.428	17.7
382.636	17.53
382.845	18.01
383.053	18.17
383.261	17.69
383.469	17.56
383.678	18.24
383.886	17.97
384.094	17.9
384.302	17.74
384.511	17.41
384.719	17.53
384.927	17.45
385.135	17.5
385.343	17.46
385.552	17.68
385.76	17.45
385.968	17.35
386.176	17.1
386.384	17.13
386.592	16.77
386.8	17.22
387.008	16.95
387.216	17.14
387.424	16.85
387.633	16.64
387.841	16.84
388.049	17.05
388.257	17.23
388.465	17.29
388.672	17.14
388.88	17.26
389.088	17.27
389.296	17.74
389.504	17.73
389.712	17.92
389.92	17.8
390.128	17.53
390.336	17.23
390.544	17.13
390.751	17.27
390.959	17.28
391.167	17.45
391.375	16.95
391.583	16.48
391.79	15.96
391.998	15.85
392.206	16.16
392.414	15.9
392.621	16.18
392.829	15.77
393.037	15.53
393.244	15.48
393.452	15.49
393.66	15.37
393.867	15.56
394.075	15.68
394.283	15.54
394.49	15.25
394.698	15.6
394.905	15.39
395.113	15.66
395.32	15.49
395.528	15.54
395.735	15.46
395.943	15.79
396.15	15.83
396.358	16.01
396.565	15.82
396.773	15.81
396.98	15.82
397.188	16.03
397.395	16.37
397.602	16.68
397.81	16.73
398.017	16.68
398.225	16.62
398.432	16.44
398.639	16.58
398.847	16.72
399.054	16.7
399.261	16.52
399.468	16
399.676	15.56
399.883	15.47
400.09	15.39
400.297	15.44
400.505	15.37
400.712	15.47
400.919	15.12
401.126	14.94
401.333	15.09
401.54	15.22
401.748	15.62
401.955	15.75
402.162	15.92
402.369	15.86
402.576	15.73
402.783	15.49
402.99	15.37
403.197	15.46
403.404	15.55
403.611	15.45
403.818	15.2
404.025	14.85
404.232	14.69
404.439	14.53
404.646	14.52
404.853	14.6
405.06	14.8
405.267	14.78
405.474	14.62
405.681	14.48
405.887	14.5
406.094	14.62
406.301	14.79
406.508	14.76
406.715	14.57
406.922	14.44
407.128	14.5
407.335	14.14
407.542	14.19
407.749	14.51
407.955	14.64
408.162	14.72
408.369	14.65
408.575	14.69
408.782	14.81
408.989	15.02
409.195	15.16
409.402	14.93
409.609	15.16
409.815	14.93
410.022	14.77
410.228	14.6
410.435	14.41
410.642	14.38
410.848	14.45
411.055	14.42
411.261	14.29
411.468	14.49
411.674	14.43
411.881	14.34
412.087	14.74
412.294	14.55
412.5	14.54
412.706	14.75
412.913	14.51
413.119	14.31
413.326	14.32
413.532	14.22
413.738	14.03
413.945	13.77
414.151	13.87
414.357	13.81
414.564	13.85
414.77	13.99
414.976	13.98
415.182	14.28
415.389	14.23
415.595	14.25
415.801	14.3
416.007	14.34
416.214	14.63
416.42	14.64
416.626	14.37
416.832	14.35
417.038	14.52
417.244	14.25
417.45	14.25
417.657	14.29
417.863	14.29
418.069	14.16
418.275	13.88
418.481	14.01
418.687	13.98
418.893	14.15
419.099	14.04
419.305	14.06
419.511	14.16
419.717	14.14
419.923	14.04
420.129	13.85
420.335	14.04
420.541	14.08
420.746	14.03
420.952	13.99
421.158	13.92
421.364	13.99
421.57	13.9
421.776	13.74
421.982	13.71
422.187	13.75
422.393	13.86
422.599	13.68
422.805	13.66
423.01	13.53
423.216	13.63
423.422	13.65
423.628	13.77
423.833	13.75
424.039	13.68
424.245	13.73
424.45	13.73
424.656	13.68
424.862	13.73
425.067	13.76
425.273	13.81
425.478	13.73
425.684	13.54
425.889	13.49
426.095	13.44
426.301	13.65
426.506	13.57
426.712	13.45
426.917	13.45
427.123	13.53
427.328	13.52
427.533	13.53
427.739	13.32
427.944	13.47
428.15	13.24
428.355	13.2
428.561	12.99
428.766	12.86
428.971	12.87
429.177	12.99
429.382	12.92
429.587	12.96
429.793	13
429.998	13.1
430.203	13.14
430.408	13.21
430.614	13.1
430.819	13.27
431.024	13.43
431.229	13.43
431.434	13.39
431.64	13.37
431.845	13.5
432.05	13.54
432.255	13.51
432.46	13.5
432.665	13.75
432.87	13.87
433.076	13.7
433.281	13.77
433.486	13.79
433.691	13.67
433.896	13.56
434.101	13.48
434.306	13.48
434.511	13.64
434.716	13.46
434.921	13.22
435.126	13.32
435.331	13.34
435.535	13.27
435.74	13.19
435.945	13.33
436.15	13.33
436.355	13.29
436.56	13.18
436.765	13.31
436.97	13.48
437.174	13.33
437.379	13.34
437.584	13.54
437.789	13.5
437.993	13.59
438.198	13.53
438.403	13.72
438.608	13.7
438.812	13.57
439.017	13.35
439.222	13.28
439.426	13.4
439.631	13.2
439.836	13.14
440.04	13
440.245	13.06
440.45	12.94
440.654	12.79
440.859	12.7
441.063	12.82
441.268	12.78
441.472	12.89
441.677	12.86
441.881	13.02
442.086	13.06
442.29	13.18
442.495	13.27
442.699	13.38
442.904	13.5
443.108	13.5
443.312	13.54
443.517	13.49
443.721	13.44
443.925	13.35
444.13	13.28
444.334	13.13
444.538	13.09
444.743	12.84
444.947	12.78
445.151	12.74
445.356	12.87
445.56	12.82
445.764	12.9
445.968	12.89
446.173	12.96
446.377	12.86
446.581	12.97
446.785	12.99
446.989	13.06
447.193	13.2
447.398	13.26
447.602	13.26
447.806	13.27
448.01	13.27
448.214	13.23
448.418	13.23
448.622	13.33
448.826	13.16
449.03	13.09
449.234	12.97
449.438	12.72
449.642	12.62
449.846	12.51
450.05	12.44
450.254	12.29
450.458	12.04
450.662	11.94
450.866	11.85
451.069	12.02
451.273	11.94
451.477	12.16
451.681	12.34
451.885	12.5
452.089	12.33
452.292	12.23
452.496	12.28
452.7	12.56
452.904	12.63
453.107	12.68
453.311	12.6
453.515	12.71
453.719	12.66
453.922	12.64
454.126	12.36
454.33	12.61
454.533	12.61
454.737	12.5
454.94	12.4
455.144	12.44
455.348	12.42
455.551	12.49
455.755	12.69
455.958	12.51
456.162	12.25
456.365	12.35
456.569	12.14
456.772	12.31
456.976	12.57
457.179	12.73
457.383	12.72
457.586	12.75
457.79	12.76
457.993	12.85
458.196	12.96
458.4	13.23
458.603	13.26
458.807	13.28
459.01	13.28
459.213	13.21
459.417	13.04
459.62	13.03
459.823	12.87
460.026	12.82
460.23	12.63
460.433	12.52
460.636	12.39
460.839	12.3
461.042	12.24
461.246	12.07
461.449	11.95
461.652	12.05
461.855	12.08
462.058	12.14
462.261	12.22
462.464	12.19
462.668	12.08
462.871	12.1
463.074	12.19
463.277	12.28
463.48	12.38
463.683	12.48
463.886	12.46
464.089	12.47
464.292	12.5
464.495	12.45
464.698	12.44
464.901	12.77
465.104	12.85
465.306	12.92
465.509	13.01
465.712	12.91
465.915	13.04
466.118	13.01
466.321	12.84
466.524	12.79
466.726	12.62
466.929	12.8
467.132	12.79
467.335	12.74
467.538	12.6
467.74	12.46
467.943	12.55
468.146	12.37
468.348	12.43
468.551	12.58
468.754	12.64
468.956	12.79
469.159	12.66
469.362	12.45
469.564	12.43
469.767	12.55
469.969	12.62
470.172	12.87
470.375	12.81
470.577	12.69
470.78	12.61
470.982	12.63
471.185	12.56
471.387	12.62
471.59	12.86
471.792	12.85
471.995	12.77
472.197	12.73
472.399	12.54
472.602	12.78
472.804	12.86
473.007	12.8
473.209	12.73
473.411	12.6
473.614	12.46
473.816	12.35
474.018	12.4
474.22	12.4
474.423	12.61
474.625	12.56
474.827	12.25
475.03	12.25
475.232	12.3
475.434	12.4
475.636	12.59
475.838	12.57
476.04	12.41
476.243	12.51
476.445	12.47
476.647	12.28
476.849	12.08
477.051	12.31
477.253	12.25
477.455	12.13
477.657	11.97
477.859	11.92
478.061	12.05
478.263	12.12
478.465	12.07
478.667	12.14
478.869	12.22
479.071	12.47
479.273	12.51
479.475	12.41
479.677	12.56
479.879	12.73
480.081	12.76
480.283	12.67
480.485	12.7
480.686	12.69
480.888	12.73
481.09	12.69
481.292	12.52
481.494	12.36
481.695	12.52
481.897	12.45
482.099	12.51
482.301	12.58
482.502	12.62
482.704	12.72
482.906	12.78
483.107	12.71
483.309	12.72
483.511	12.75
483.712	12.75
483.914	12.69
484.115	12.7
484.317	12.61
484.519	12.54
484.72	12.53
484.922	12.44
485.123	12.39
485.325	12.37
485.526	12.33
485.728	12.31
485.929	12.33
486.131	12.38
486.332	12.35
486.534	12.34
486.735	12.37
486.936	12.43
487.138	12.43
487.339	12.42
487.541	12.48
487.742	12.51
487.943	12.53
488.144	12.54
488.346	12.45
488.547	12.46
488.748	12.47
488.95	12.47
489.151	12.43
489.352	12.48
489.553	12.47
489.755	12.45
489.956	12.32
490.157	12.28
490.358	12.31
490.559	12.39
490.76	12.39
490.961	12.45
491.163	12.52
491.364	12.53
491.565	12.56
491.766	12.54
491.967	12.55
492.168	12.63
492.369	12.65
492.57	12.62
492.771	12.64
492.972	12.63
493.173	12.64
493.374	12.58
493.575	12.56
493.776	12.45
493.976	12.52
494.177	12.52
494.378	12.54
494.579	12.52
494.78	12.57
494.981	12.48
495.182	12.44
495.382	12.38
495.583	12.48
495.784	12.48
495.985	12.47
496.185	12.47
496.386	12.43
496.587	12.33
496.788	12.44
496.988	12.33
497.189	12.35
497.39	12.49
497.59	12.54
497.791	12.55
497.992	12.59
498.192	12.66
498.393	12.54
498.593	12.57
498.794	12.61
498.994	12.74
499.195	12.7
499.395	12.81
499.596	12.81
499.796	12.79
499.997	12.7
500.197	12.57
500.398	12.62
500.598	12.73
500.799	12.75
500.999	12.78
501.199	12.55
501.4	12.72
501.6	12.76
501.801	12.79
502.001	12.9
502.201	12.99
502.402	13.04
502.602	13.07
502.802	13.12
503.002	13.07
503.203	13.14
503.403	13.17
503.603	13.16
503.803	13.12
504.003	13.14
504.204	13.15
504.404	13.09
504.604	13.2
504.804	13.41
505.004	13.39
505.204	13.46
505.404	13.56
505.604	13.52
505.804	13.32
506.005	13.3
506.205	13.21
506.405	13.09
506.605	13.15
506.805	13.18
507.005	12.99
507.204	12.99
507.404	13.04
507.604	13.07
507.804	13.25
508.004	13.51
508.204	13.54
508.404	13.67
508.604	13.77
508.804	13.74
509.003	13.84
509.203	13.86
509.403	13.99
509.603	14.02
509.803	14.02
510.002	14.06
510.202	14.06
510.402	14.16
510.602	14.16
510.801	14.2
511.001	14.33
511.201	14.18
511.4	14.06
511.6	14.03
511.8	13.92
511.999	13.95
512.199	13.89
512.398	13.93
512.598	14.01
512.797	14.1
512.997	14.05
513.197	14.05
513.396	14.14
513.596	14.37
513.795	14.35
513.994	14.52
514.194	14.52
514.393	14.67
514.593	14.66
514.792	14.77
514.992	14.78
515.191	15.07
515.39	15.14
515.59	15.08
515.789	15.11
515.988	15.17
516.188	15.23
516.387	15.28
516.586	15.12
516.786	15.18
516.985	15.03
517.184	15.08
517.383	15.14
517.582	15.15
517.782	15.32
517.981	15.37
518.18	15.48
518.379	15.52
518.578	15.59
518.777	15.65
518.976	15.66
519.176	15.8
519.375	15.76
519.574	15.64
519.773	15.68
519.972	15.66
520.171	15.65
520.37	15.62
520.569	15.6
520.768	15.59
520.967	15.67
521.166	15.72
521.365	15.6
521.564	15.73
521.762	15.85
521.961	15.91
522.16	15.94
522.359	16.08
522.558	16.07
522.757	16.05
522.956	16.14
523.154	16.21
523.353	16.23
523.552	16.36
523.751	16.41
523.949	16.31
524.148	16.39
524.347	16.4
524.546	16.36
524.744	16.59
524.943	16.72
525.142	16.74
525.34	16.74
525.539	16.88
525.737	16.96
525.936	17.08
526.135	17.17
526.333	17.13
526.532	17.21
526.73	17.3
526.929	17.28
527.127	17.37
527.326	17.4
527.524	17.5
527.723	17.44
527.921	17.45
528.12	17.41
528.318	17.45
528.516	17.51
528.715	17.51
528.913	17.56
529.112	17.54
529.31	17.52
529.508	17.56
529.707	17.52
529.905	17.57
530.103	17.56
530.301	17.59
530.5	17.6
530.698	17.62
530.896	17.63
531.094	17.63
531.293	17.72
531.491	17.89
531.689	17.88
531.887	18.12
532.085	18.16
532.283	18.31
532.481	18.4
532.68	18.39
532.878	18.47
533.076	18.66
533.274	18.7
533.472	18.69
533.67	18.56
533.868	18.68
534.066	18.6
534.264	18.65
534.462	18.59
534.66	18.63
534.858	18.72
535.056	18.72
535.253	18.7
535.451	18.64
535.649	18.76
535.847	18.94
536.045	19.07
536.243	19.15
536.441	19.2
536.638	19.24
536.836	19.19
537.034	19.23
537.232	19.39
537.43	19.44
537.627	19.68
537.825	19.7
538.023	19.67
538.22	19.65
538.418	19.75
538.616	19.7
538.813	19.98
539.011	20.2
539.209	20.36
539.406	20.43
539.604	20.52
539.801	20.41
539.999	20.52
540.196	20.68
540.394	20.7
540.591	20.73
540.789	20.89
540.986	20.88
541.184	20.94
541.381	20.96
541.579	20.9
541.776	20.89
541.974	20.96
542.171	21
542.368	21.04
542.566	21.03
542.763	21.07
542.96	21.08
543.158	21.09
543.355	21.06
543.552	21.08
543.75	21.26
543.947	21.36
544.144	21.41
544.341	21.51
544.539	21.48
544.736	21.57
544.933	21.57
545.13	21.69
545.327	21.91
545.524	22.05
545.722	22.29
545.919	22.23
546.116	22.33
546.313	22.48
546.51	22.55
546.707	22.79
546.904	22.97
547.101	23.11
547.298	23.08
547.495	22.86
547.692	22.85
547.889	22.8
548.086	22.91
548.283	22.98
548.48	22.93
548.677	22.99
548.874	22.99
549.07	22.83
549.267	23.01
549.464	23.23
549.661	23.55
549.858	23.67
550.055	23.61
550.251	23.83
550.448	23.98
550.645	24.2
550.842	24.17
551.038	24.27
551.235	24.64
551.432	24.62
551.628	24.77
551.825	24.88
552.022	24.97
552.218	25.32
552.415	25.35
552.612	25.51
552.808	25.69
553.005	25.78
553.201	25.75
553.398	25.77
553.594	25.9
553.791	26.06
553.987	25.9
554.184	25.91
554.38	25.99
554.577	26.12
554.773	26.11
554.97	26.05
555.166	26.39
555.362	26.57
555.559	26.57
555.755	26.81
555.952	26.81
556.148	27.22
556.344	27.44
556.541	27.26
556.737	27.34
556.933	27.65
557.129	27.86
557.326	27.88
557.522	28.21
557.718	28.48
557.914	28.3
558.11	28.3
558.307	28.14
558.503	28.28
558.699	28.56
558.895	28.65
559.091	28.55
559.287	28.59
559.483	28.64
559.679	28.65
559.876	28.67
560.072	29.04
560.268	29.27
560.464	29.57
560.66	29.55
560.856	29.79
561.052	29.93
561.247	30.01
561.443	30.22
561.639	30.29
561.835	30.27
562.031	30.31
562.227	30.28
562.423	30.36
562.619	30.6
562.815	30.92
563.01	30.93
563.206	31.05
563.402	31.08
563.598	30.98
563.793	31.14
563.989	31.18
564.185	31.45
564.381	31.55
564.576	31.58
564.772	31.52
564.968	31.22
565.163	31.13
565.359	31.18
565.555	31.32
565.75	31.52
565.946	31.62
566.141	31.8
566.337	31.85
566.532	31.83
566.728	32
566.923	32.24
567.119	32.52
567.314	32.88
567.51	33.05
567.705	33.16
567.901	33.18
568.096	33.13
568.292	33.19
568.487	33.29
568.682	33.55
568.878	33.47
569.073	33.53
569.268	33.6
569.464	33.65
569.659	33.88
569.854	33.97
570.05	34.06
570.245	34.3
570.44	34.4
570.635	34.47
570.831	34.69
571.026	34.9
571.221	34.98
571.416	35
571.611	35.07
571.806	35.07
572.002	35.17
572.197	35.25
572.392	35.26
572.587	35.4
572.782	35.52
572.977	35.29
573.172	35.4
573.367	35.47
573.562	35.55
573.757	35.56
573.952	35.5
574.147	35.64
574.342	35.77
574.537	35.82
574.732	35.67
574.927	35.75
575.121	35.81
575.316	35.87
575.511	35.93
575.706	36.17
575.901	36.17
576.096	36.08
576.29	36.07
576.485	35.94
576.68	36.09
576.875	36.32
577.069	36.53
577.264	36.7
577.459	36.57
577.654	36.52
577.848	36.53
578.043	36.68
578.238	36.96
578.432	37.02
578.627	37.14
578.821	37.21
579.016	37.22
579.21	37.16
579.405	37.34
579.6	37.56
579.794	37.5
579.989	37.5
580.183	37.47
580.378	37.47
580.572	37.72
580.766	38.01
580.961	38.08
581.155	38.23
581.35	38.34
581.544	38.46
581.738	38.43
581.933	38.67
582.127	38.59
582.321	38.57
582.516	38.68
582.71	38.64
582.904	38.53
583.099	38.62
583.293	38.64
583.487	38.4
583.681	38.31
583.875	38.51
584.07	38.66
584.264	39.01
584.458	39.38
584.652	39.5
584.846	39.62
585.04	39.59
585.234	39.83
585.428	39.9
585.623	40.15
585.817	40.45
586.011	40.38
586.205	40.53
586.399	40.58
586.593	40.41
586.787	40.44
586.981	40.19
587.174	40.58
587.368	40.42
587.562	40.39
587.756	40.1
587.95	39.94
588.144	39.79
588.338	39.59
588.532	39.58
588.725	39.71
588.919	39.69
589.113	39.77
589.307	39.48
589.501	39.37
589.694	39.67
589.888	39.72
590.082	39.85
590.275	40.13
590.469	40.27
590.663	40.09
590.856	40.11
591.05	40.22
591.244	40.26
591.437	40.44
591.631	40.51
591.824	40.2
592.018	40.36
592.212	40.27
592.405	40.1
592.599	40.15
592.792	40.65
592.986	40.6
593.179	40.72
593.372	40.76
593.566	40.73
593.759	40.94
593.953	41.1
594.146	41.13
594.339	41.31
594.533	41.43
594.726	41.51
594.92	41.19
595.113	41.29
595.306	41.23
595.499	41.3
595.693	41.17
595.886	41.03
596.079	40.99
596.272	40.95
596.466	40.85
596.659	40.85
596.852	40.73
597.045	40.86
597.238	40.78
597.431	40.68
597.624	40.89
597.818	41.06
598.011	41.19
598.204	41.11
598.397	41.42
598.59	41.35
598.783	41.47
598.976	41.42
599.169	41.54
599.362	41.85
599.555	42.13
599.748	42.03
599.941	42.08
600.134	42.36
600.326	42.67
600.519	42.47
600.712	42.59
600.905	42.65
601.098	42.98
601.291	42.87
601.483	42.69
601.676	42.57
601.869	42.64
602.062	42.59
602.255	42.31
602.447	42.32
602.64	42.56
602.833	42.45
603.025	42.44
603.218	42.38
603.411	42.57
603.603	42.65
603.796	42.67
603.989	42.54
604.181	42.71
604.374	42.71
604.566	42.67
604.759	42.52
604.951	42.68
605.144	42.74
605.336	42.81
605.529	42.49
605.721	42.73
605.914	42.75
606.106	42.81
606.299	42.91
606.491	43.1
606.683	43.29
606.876	43.48
607.068	43.63
607.26	43.67
607.453	43.66
607.645	43.81
607.837	43.44
608.03	43.36
608.222	43.5
608.414	43.65
608.606	43.45
608.799	43.33
608.991	43.32
609.183	43.14
609.375	43.32
609.567	43.48
609.759	43.47
609.952	43.49
610.144	43.45
610.336	43.26
610.528	43.1
610.72	43.12
610.912	43.11
611.104	43.18
611.296	43.24
611.488	43.26
611.68	43.19
611.872	43.37
612.064	43.67
612.256	43.93
612.448	44.24
612.64	44.35
612.832	44.59
613.023	44.81
613.215	44.73
613.407	44.77
613.599	44.52
613.791	44.58
613.983	44.6
614.174	44.34
614.366	44.32
614.558	44.32
614.75	44.31
614.941	44.38
615.133	44.34
615.325	44.17
615.516	44.52
615.708	44.37
615.9	44.51
616.091	44.47
616.283	44.62
616.475	44.67
616.666	44.45
616.858	44.59
617.049	44.57
617.241	44.32
617.432	44.55
617.624	44.47
617.815	44.95
618.007	44.62
618.198	44.87
618.39	44.98
618.581	45.02
618.773	45.22
618.964	45.12
619.155	45.37
619.347	45.61
619.538	45.57
619.729	45.85
619.921	45.65
620.112	45.71
620.303	45.42
620.494	45.21
620.686	45.2
620.877	45.01
621.068	45.1
621.259	44.71
621.451	44.79
621.642	45.03
621.833	44.76
622.024	45.03
622.215	45.01
622.406	45.34
622.597	45.41
622.788	45.42
622.98	45.52
623.171	45.81
623.362	46
623.553	45.94
623.744	45.84
623.935	45.88
624.126	45.76
624.317	45.66
624.508	45.51
624.698	45.64
624.889	45.48
625.08	45.51
625.271	45.29
625.462	45.3
625.653	45.32
625.844	44.87
626.034	44.75
626.225	44.69
626.416	44.67
626.607	44.75
626.798	44.68
626.988	44.72
627.179	44.87
627.37	44.64
627.56	44.67
627.751	44.52
627.942	44.9
628.132	44.91
628.323	44.9
628.514	45.14
628.704	45.02
628.895	44.9
629.085	45.32
629.276	44.97
629.466	45.17
629.657	44.96
629.847	44.94
630.038	45.1
630.228	44.92
630.419	45.16
630.609	45.13
630.8	45.33
630.99	45.3
631.181	45.11
631.371	45.29
631.561	45.31
631.752	45.51
631.942	45.91
632.132	45.78
632.323	46.33
632.513	46.17
632.703	46.28
632.893	46.13
633.084	46.23
633.274	46.26
633.464	46.26
633.654	46.12
633.844	45.94
634.034	45.9
634.225	46.1
634.415	45.87
634.605	45.99
634.795	45.9
634.985	46.06
635.175	46.04
635.365	45.85
635.555	45.96
635.745	45.96
635.935	45.95
636.125	45.7
636.315	45.6
636.505	45.65
636.695	45.51
636.885	45.38
637.075	45.45
637.265	45.48
637.455	45.78
637.644	46.1
637.834	46.16
638.024	46.42
638.214	46.48
638.404	46.27
638.593	46.18
638.783	46.07
638.973	46.26
639.163	45.93
639.352	46.32
639.542	46.03
639.732	46.01
639.921	45.9
640.111	46.07
640.301	46.17
640.49	46.54
640.68	46.59
640.87	46.97
641.059	46.87
641.249	46.96
641.438	46.67
641.628	46.73
641.817	46.66
642.007	46.83
642.196	46.41
642.386	46.3
642.575	46.22
642.764	46.24
642.954	46.05
643.143	46.27
643.333	46.56
643.522	46.53
643.711	46.19
643.901	46.11
644.09	46.14
644.279	46.38
644.469	46.65
644.658	46.69
644.847	46.67
645.036	46.77
645.226	46.74
645.415	46.35
645.604	46.52
645.793	47.22
645.982	47.23
646.171	47.27
646.361	47.53
646.55	47.54
646.739	47.36
646.928	47.41
647.117	47.11
647.306	47.07
647.495	47.08
647.684	46.89
647.873	46.59
648.062	46.51
648.251	46.27
648.44	46.01
648.629	45.87
648.818	46.05
649.007	46.08
649.196	46.18
649.384	46.21
649.573	46.43
649.762	46.84
649.951	46.76
650.14	47.03
650.328	47.02
650.517	47.15
650.706	47.67
650.895	47.69
651.083	47.71
651.272	47.85
651.461	48.15
651.65	47.94
651.838	47.7
652.027	47.76
652.216	47.71
652.404	47.67
652.593	47.63
652.781	47.14
652.97	47.13
653.158	47.19
653.347	46.98
653.535	46.8
653.724	46.98
653.912	46.94
654.101	47.08
654.289	46.53
654.478	46.69
654.666	46.79
654.855	46.63
655.043	46.51
655.231	46.73
655.42	46.84
655.608	46.7
655.796	47.07
655.985	47.1
656.173	46.98
656.361	47.64
656.55	47.82
656.738	48.15
656.926	48.38
657.114	48.42
657.302	48.13
657.491	47.95
657.679	47.84
657.867	47.53
658.055	47.75
658.243	47.8
658.431	47.51
658.619	47.4
658.807	47.11
658.996	47.18
659.184	47.37
659.372	47.39
659.56	47.5
659.748	47.42
659.936	47.16
660.124	46.54
660.311	46.48
660.499	46.51
660.687	46.7
660.875	46.71
661.063	46.57
661.251	46.37
661.439	46.3
661.627	46.44
661.814	46.48
662.002	46.77
662.19	47.51
662.378	47.65
662.565	47.7
662.753	47.81
662.941	47.81
663.129	47.73
663.316	47.66
663.504	47.86
663.692	47.96
663.879	48.35
664.067	48.43
664.254	48.25
664.442	48.67
664.63	48.62
664.817	48.43
665.005	48.34
665.192	48.75
665.38	48.86
665.567	48.91
665.755	48.5
665.942	47.99
666.13	48.21
666.317	48.15
666.504	47.66
666.692	47.44
666.879	47.97
667.067	47.95
667.254	47.82
667.441	48.12
667.629	47.73
667.816	48.03
668.003	48.24
668.19	47.89
668.378	47.56
668.565	47.6
668.752	47.95
668.939	47.03
669.127	47.2
669.314	47.35
669.501	47.1
669.688	47.47
669.875	47.24
670.062	47.43
670.249	48
670.436	48.55
670.623	48.4
670.81	48.57
670.997	48.84
671.184	48.56
671.371	48.52
671.558	48.45
671.745	48.39
671.932	48.79
672.119	48.75
672.306	48.49
672.493	48.48
672.68	48.32
672.867	48.47
673.054	48.69
673.24	49.09
673.427	49.04
673.614	49.31
673.801	49.39
673.988	48.95
674.174	48.67
674.361	48.35
674.548	48.4
674.734	48.71
674.921	48.76
675.108	48.87
675.294	48.78
675.481	48.74
675.668	48.8
675.854	48.87
676.041	49.16
676.227	49.52
676.414	50
676.601	50.14
676.787	49.77
676.974	49.53
677.16	49.05
677.347	48.39
677.533	48.51
677.719	48.24
677.906	48
678.092	48.41
678.279	48.37
678.465	48.07
678.651	47.88
678.838	48.18
679.024	48.08
679.21	48.28
679.397	48.48
679.583	48.06
679.769	47.68
679.955	48.01
680.142	47.68
680.328	47.63
680.514	47.42
680.7	47.46
680.886	47.66
681.073	47.71
681.259	47.72
681.445	48.06
681.631	48.26
681.817	48.62
682.003	48.49
682.189	48.3
682.375	48.17
682.561	48.35
682.747	48.06
682.933	48.04
683.119	47.54
683.305	47.88
683.491	47.71
683.677	47.67
683.863	47.7
684.049	47.93
684.235	47.72
684.42	47.64
684.606	47.43
684.792	47.86
684.978	47.68
685.164	48.68
685.349	48.21
685.535	48.32
685.721	48.34
685.907	48.13
686.092	47.83
686.278	48.28
686.464	48.83
686.649	48.69
686.835	48.11
687.021	48.25
687.206	47.36
687.392	47.57
687.577	47.96
687.763	48
687.948	48.07
688.134	47.75
688.319	47.62
688.505	47.19
688.69	47.26
688.876	47.51
689.061	47.12
689.247	47.92
689.432	48.15
689.618	47.53
689.803	47.72
689.988	47.98
690.174	48.71
690.359	48.95
690.544	49.26
690.73	49.2
690.915	49.42
691.1	50.2
691.285	49.62
691.471	49.15
691.656	48.9
691.841	48.81
692.026	48.42
692.211	47.32
692.396	46.98
692.582	46.86
692.767	47.32
692.952	47.2
693.137	46.66
693.322	46.79
693.507	47.18
693.692	47.55
693.877	47.32
694.062	47.42
694.247	47.97
694.432	48.4
694.617	48.21
694.802	47.93
694.987	47.87
695.172	47.94
695.357	47.92
695.541	47.64
695.726	47.73
695.911	48.4
696.096	48.01
696.281	48.2
696.466	47.85
696.65	47.76
696.835	47.53
697.02	47.91
697.204	47.92
697.389	47.78
697.574	47.86
697.759	47.97
697.943	47.08
698.128	47.58
698.312	47.39
698.497	47.03
698.682	47.01
698.866	47.36
699.051	47.24
699.235	47.29
699.42	47.56
699.604	47.66
699.789	47.79
699.973	47.94
700.158	47.62
700.342	47.92
700.527	48.09
700.711	48.46
700.895	48.5
701.08	48.38
701.264	48.34
701.448	48.17
701.633	47.99
701.817	47.86
702.001	48.47
702.186	48.7
702.37	48.5
702.554	48.98
702.738	49.21
702.923	49.27
703.107	49.85
703.291	50.42
703.475	49.68
703.659	50.06
703.843	50.14
704.027	50.33
704.212	50.53
704.396	50.7
704.58	50.92
704.764	50.7
704.948	50.58
705.132	50.37
705.316	49.56
705.5	50.17
705.684	50.64
705.868	50.69
706.052	50.26
706.235	50.15
706.419	50.2
706.603	50.3
706.787	49.98
706.971	50.19
707.155	49.43
707.339	49.91
707.522	50.37
707.706	50.31
707.89	50.39
708.074	50.26
708.257	50.6
708.441	50.89
708.625	50.62
708.808	51
708.992	50.85
709.176	51.27
709.359	50.65
709.543	50.62
709.727	49.92
709.91	49.93
710.094	50.21
710.277	49.59
710.461	49.12
710.644	49.27
710.828	49.12
711.011	49.45
711.195	49.49
711.378	49.56
711.562	49.38
711.745	49.68
711.928	49.64
712.112	49.52
712.295	49.59
712.478	49.74
712.662	49.72
712.845	49.55
713.028	49.41
713.212	49.82
713.395	50.26
713.578	50.26
713.761	49.56
713.945	49.3
714.128	49.34
714.311	49.81
714.494	48.89
714.677	48.82
714.86	48.93
715.043	48.41
715.227	47.34
715.41	47.02
715.593	47.27
715.776	47.21
715.959	47.3
716.142	47.25
716.325	46.62
716.508	47.01
716.691	47.04
716.874	47.03
717.057	46.74
717.239	47.05
717.422	46.71
717.605	46.29
717.788	46.9
717.971	46.36
718.154	45.97
718.337	46.23
718.519	46.72
718.702	45.89
718.885	45.61
719.068	46.55
719.25	46.99
719.433	47.49
719.616	47.16
719.798	46.63
719.981	46.81
720.164	46.59
720.346	46.49
720.529	46.08
720.712	46.58
720.894	46.85
721.077	46.52
721.259	45.31
721.442	45.41
721.624	46.43
721.807	46.01
721.989	46.43
722.172	46.88
722.354	46.72
722.537	47.11
722.719	47.61
722.901	46.47
723.084	45.93
723.266	47.1
723.448	47.02
723.631	46.45
723.813	47.14
723.995	46.7
724.178	47.17
724.36	47.37
724.542	47.6
724.724	47.43
724.907	48.73
725.089	49.7
725.271	49.76
725.453	49.37
725.635	50.24
725.817	50.8
725.999	52.01
726.181	51.82
726.364	52.01
726.546	51.1
726.728	50.68
726.91	50.76
727.092	50.18
727.274	49.77
727.456	50.04
727.638	48.73
727.819	47.97
728.001	47.18
728.183	46.19
728.365	45.85
728.547	45.75
728.729	46.1
728.911	45.64
729.093	46.07
729.274	46.17
729.456	46.32
729.638	47.05
729.82	47.25
730.001	47.17
730.183	47.91
730.365	47.56
730.546	48.49
730.728	48.32
730.91	48.99
731.091	48.57
731.273	48.36
731.455	48.93
731.636	49.48
731.818	50.1
731.999	49.86
732.181	50.34
732.362	51.01
732.544	50.84
732.725	50.75
732.907	50.71
733.088	51.39
733.27	51.98
733.451	51.03
733.633	50.55
733.814	50.46
733.995	51.16
734.177	51.02
734.358	50.88
734.539	50.68
734.721	50.54
734.902	49.87
735.083	48.85
735.264	48.77
735.446	49.47
735.627	49.45
735.808	49.83
735.989	49.35
736.17	49.71
736.351	49.84
736.533	49.43
736.714	49.65
736.895	49.87
737.076	50.3
737.257	50.1
737.438	49.96
737.619	49.5
737.8	49.03
737.981	48.56
738.162	48.28
738.343	48.98
738.524	49.62
738.705	49.43
738.886	49.51
739.067	50.04
739.247	50.02
739.428	49.84
739.609	50.02
739.79	50.17
739.971	50.5
740.151	50.79
740.332	49.76
740.513	50.06
740.694	51.07
740.874	50.62
741.055	49.55
741.236	49.59
741.417	50.23
741.597	50.04
741.778	50.14
741.958	50.2
742.139	50.58
742.32	51.76
742.5	51.66
742.681	51.79
742.861	51.71
743.042	52.29
743.222	52.42
743.403	52.07
743.583	52.33
743.764	51.68
743.944	52.48
744.124	51.82
744.305	51.48
744.485	50.76
744.666	50.26
744.846	51.15
745.026	51.61
745.207	51.92
745.387	52.65
745.567	52.93
745.747	52.87
745.928	53.05
746.108	52.87
746.288	52.96
746.468	52.96
746.648	53.12
746.829	52.84
747.009	52.87
747.189	52.56
747.369	51.81
747.549	51.38
747.729	51.56
747.909	51.23
748.089	51.71
748.269	50.94
748.449	51.79
748.629	52.14
748.809	52.26
748.989	51.62
749.169	51.69
749.349	52.43
749.529	52.59
749.709	52.68
749.889	52.83
750.068	54.38
750.248	54.74
750.428	54.42
750.608	53.78
750.788	53.9
750.967	53.91
751.147	54.48
751.327	53.02
751.507	52.96
751.686	53.79
751.866	52.94
752.046	51.53
752.225	51.62
752.405	51.63
752.585	53.03
752.764	52.76
752.944	52.1
753.123	52.39
753.303	52.67
753.482	53.4
753.662	52.83
753.841	53.59
754.021	53.15
754.2	52.83
754.38	53.53
754.559	53.1
754.739	53.16
754.918	53.64
755.097	51.7
755.277	51.91
755.456	51.13
755.635	52.03
755.815	52.51
755.994	52.47
756.173	53.06
756.352	52.19
756.532	51.53
756.711	52.27
756.89	52.7
757.069	53.61
757.248	52.95
757.427	53.37
757.607	51.97
757.786	51.71
757.965	51.51
758.144	51.14
758.323	50.78
758.502	50.44
758.681	48.56
758.86	47.91
759.039	47.64
759.218	47.71
759.397	47.45
759.576	46.58
759.755	46.21
759.934	45.66
760.113	45.75
760.291	45.66
760.47	46.24
760.649	46.27
760.828	46.67
761.007	46.55
761.186	48.1
761.364	47.11
761.543	48.14
761.722	47.32
761.901	47.2
762.079	46.63
762.258	46.72
762.437	45.67
762.615	46.82
762.794	47.4
762.972	48.13
763.151	47.38
763.33	47.8
763.508	47.91
763.687	48.3
763.865	48.37
764.044	48.51
764.222	48.03
764.401	48.18
764.579	47.8
764.758	47.68
764.936	47.55
765.114	47.81
765.293	48.32
765.471	48.76
765.65	48.41
765.828	48.15
766.006	48.61
766.184	50.21
766.363	50.12
766.541	50.15
766.719	50.05
766.898	50.18
767.076	48.7
767.254	48.85
767.432	47.14
767.61	47.04
767.788	48.92
767.967	48.47
768.145	47.83
768.323	48.83
768.501	49.1
768.679	49.23
768.857	48.37
769.035	49.89
769.213	48.82
769.391	50.43
769.569	50.3
769.747	49.89
769.925	50.84
770.103	51.04
770.281	50.74
770.459	50.8
770.636	49.83
770.814	49.73
770.992	51.08
771.17	52.03
771.348	51.34
771.525	52.21
771.703	52.99
771.881	53.53
772.059	53.6
772.236	53.61
772.414	55.07
772.592	55.65
772.769	56.58
772.947	56.99
773.125	56.93
773.302	58.25
773.48	59.06
773.657	57.08
773.835	54.48
774.013	55.31
774.19	55.89
774.368	55.49
774.545	54.51
774.723	54.18
774.9	52.78
775.077	52.9
775.255	52.74
775.432	53.17
775.61	53.31
775.787	55.29
775.964	53.8
776.142	54.74
776.319	54.16
776.496	56.09
776.674	56.97
776.851	56.27
777.028	56.33
777.205	54.88
777.382	53.66
777.56	55.1
777.737	55.45
777.914	55.85
778.091	54.08
778.268	55.18
778.445	55.14
778.622	54.29
778.8	54.58
778.977	53.63
779.154	58.68
779.331	57.84
779.508	56.66
779.685	56.84
779.862	56.61
780.038	57.98
780.215	57.01
780.392	56
780.569	55.69
780.746	56.25
780.923	57.24
781.1	53.86
781.277	55.12
781.453	55.13
781.63	54.28
781.807	55.39
781.984	52.99
782.16	52.49
782.337	52.04
782.514	52.02
782.691	52.14
782.867	52.11
783.044	52.55
783.221	51.57
783.397	50.39
783.574	51.08
783.75	48.99
783.927	49.86
784.103	51.83
784.28	52.69
784.456	53.99
784.633	53.11
784.809	53.95
784.986	52.79
785.162	51.77
785.339	52.51
785.515	51.31
785.692	51.24
785.868	52
786.044	49.18
786.221	50.01
786.397	48.79
786.573	48.66
786.749	46.77
786.926	47.12
787.102	47.4
787.278	47.06
787.454	47.84
787.631	48.22
787.807	47.8
787.983	48.64
788.159	49.31
788.335	49.7
788.511	48.73
788.687	49.58
788.863	48.27
789.039	49.9
789.216	50.51
789.392	49.91
789.568	49.7
789.744	50.2
789.919	51.11
790.095	50.45
790.271	50.74
790.447	50.65
790.623	50.99
790.799	51.11
790.975	50.77
791.151	50.94
791.327	51.9
791.502	51.94
791.678	51.1
791.854	50.86
792.03	48.49
792.205	49.14
792.381	49.27
792.557	48.37
792.733	49.36
792.908	50.58
793.084	52.2
793.259	51.6
793.435	52.76
793.611	52.29
793.786	51.65
793.962	53.15
794.137	54.97
794.313	56.56
794.488	56.4
794.664	57.97
794.839	55.56
795.015	53.76
795.19	50.7
795.366	48.94
795.541	49.87
795.716	48.86
795.892	48.93
796.067	45.33
796.242	45.21
796.418	44.11
796.593	41.4
796.768	42.91
796.944	42.41
797.119	43.82
797.294	46.41
797.469	47.12
797.644	46.08
797.82	46.33
797.995	47.3
798.17	46.66
798.345	48.47
798.52	49.1
798.695	48.88
798.87	47.24
799.045	49.07
799.22	49.08
799.395	49.48
799.57	51.89
799.745	52.1
799.92	51.1
800.095	52.43
800.27	51.66
800.445	52.25
800.62	50.46
800.795	53.42
800.97	52.65
801.145	50.5
801.319	50.21
801.494	49.94
801.669	49.37
801.844	52.11
802.018	50.99
802.193	52.07
802.368	50.99
802.543	53.43
802.717	52.29
802.892	54.35
803.067	55.35
803.241	55.18
803.416	53.08
803.59	53.18
803.765	49.87
803.94	49.8
804.114	49.03
804.289	51.18
804.463	49.83
804.638	52.07
804.812	49.86
804.986	50.38
805.161	47.82
805.335	48.81
805.51	48.35
805.684	48.87
805.858	50.02
806.033	48.87
806.207	48.1
806.381	48.38
806.556	48.39
806.73	48.85
806.904	46.22
807.078	46.77
807.253	48.16
807.427	47.72
807.601	50.17
807.775	50.18
807.949	51.42
808.123	49.38
808.298	50.24
808.472	48.43
808.646	48.52
808.82	50.88
808.994	51.74
809.168	50.35
809.342	52.78
809.516	51.89
809.69	50.75
809.864	51.93
810.038	54.29
810.212	52.45
810.385	50.56
810.559	50.61
810.733	49.88
810.907	49.58
811.081	50.02
811.255	49.26
811.428	50.9
811.602	51.01
811.776	51.78
811.95	49.68
812.123	49.31
812.297	50.64
812.471	48.33
812.644	47.92
812.818	50.65
812.992	49.35
813.165	47.09
813.339	46.44
813.512	49.54
813.686	46.14
813.86	48.4
814.033	49.16
814.207	47.66
814.38	51.27
814.554	51.1
814.727	46.59
814.9	50.65
815.074	53.21
815.247	53.9
815.421	48.55
815.594	49.47
815.767	49.45
815.941	49.34
816.114	49.42
816.287	47.12
816.46	47.67
816.634	46.41
816.807	43.44
816.98	42.69
817.153	40.48
817.327	38.16
817.5	38.04
817.673	34.15
817.846	37.35
818.019	36.88
818.192	39.86
818.365	40.02
818.538	46.53
818.711	43.82
818.884	44.28
819.057	45.94
819.23	50.8
819.403	51.48
819.576	53.41
819.749	53.44
819.922	54.32
820.095	51.29
820.268	50.67
820.441	49.33
820.614	52.29
820.786	51.99
820.959	50.07
821.132	49.44
821.305	47.3
821.477	47.08
821.65	46.94
821.823	47.31
821.996	48.23
822.168	48.09
822.341	47.34
822.514	46.94
822.686	46.69
822.859	47.35
823.031	46.75
823.204	47.47
823.376	46.93
823.549	46.36
823.722	46.43
823.894	46.41
824.067	46.33
824.239	46.35
824.411	46.41
824.584	46.25
824.756	45.75
824.929	45.94
825.101	45.32
825.273	45.55
825.446	44.83
825.618	44.29
825.79	43.83
825.963	43.48
826.135	43.53
826.307	43.54
826.479	43.46
826.652	43.06
826.824	42.89
826.996	42.95
827.168	43.07
827.34	44.34
827.512	43.99
827.684	43.95
827.856	44.62
828.029	45.35
828.201	44.38
828.373	44.37
828.545	44.4
828.717	45.21
828.889	45.51
829.061	45.72
829.232	46.38
829.404	47.39
829.576	47.42
829.748	46.3
829.92	45.16
830.092	46.11
830.264	46.67
830.436	45.83
830.607	46.24
830.779	45.9
830.951	45.6
831.123	44.37
831.294	43.44
831.466	43.4
831.638	43.93
831.809	43.74
831.981	43.13
832.153	42.3
832.324	43.76
832.496	42.2
832.667	43.32
832.839	44.64
833.011	45.85
833.182	48.87
833.354	47.73
833.525	49.77
833.697	48.85
833.868	48.76
834.039	48.65
834.211	47.95
834.382	48.83
834.554	48.67
834.725	47.4
834.896	44.74
835.068	42.43
835.239	42.32
835.41	41.01
835.581	42.98
835.753	41.61
835.924	40.79
836.095	40.73
836.266	38.49
836.438	37.67
836.609	36.58
836.78	37.02
836.951	37.27
837.122	37.92
837.293	38.96
837.464	38.38
837.635	41.52
837.806	41.89
837.977	43.69
838.148	47.94
838.319	50.35
838.49	52.9
838.661	51.46
838.832	51.28
839.003	51.42
839.174	53.22
839.345	51.66
839.516	51.86
839.687	52.55
839.857	52.36
840.028	48.64
840.199	50.2
840.37	49.39
840.54	52.46
840.711	51.19
840.882	49.1
841.053	47.2
841.223	45.39
841.394	43.92
841.564	43.43
841.735	43.77
841.906	44.93
842.076	42.07
842.247	41.51
842.417	42.94
842.588	43.26
842.758	43.85
842.929	44.78
843.099	47.59
843.27	48.08
843.44	50.81
843.611	48.96
843.781	46.58
843.951	42.06
844.122	44.58
844.292	45.13
844.462	44.1
844.633	46.63
844.803	48.22
844.973	46.22
845.144	42.43
845.314	38.8
845.484	37.96
845.654	40.37
845.824	48.94
845.995	51.68
846.165	55.23
846.335	60.65
846.505	62.95
846.675	64.13
846.845	75.57
847.015	77.17
847.185	86.39
847.355	91.56
847.525	91.36
847.695	87.84
847.865	84.23
848.035	68.86
848.205	66.57
848.375	61.94
848.545	50.78
848.715	40.91
848.884	44
849.054	34.73
849.224	32.92
849.394	33.68
849.564	33.26
849.733	30.34
849.903	36.27
850.073	34.64
850.243	37.97
850.412	38.09
850.582	36.61
850.752	39.01
850.921	36.5
851.091	37.23
851.26	38.14
851.43	36.63
851.599	38.31
851.769	35.94
851.939	40.22
852.108	38.4
852.278	37.08
852.447	42.64
852.616	37.29
852.786	40.59
852.955	40.52
853.125	37.26
853.294	42.32
853.463	48.31
853.633	50.74
853.802	50.65
853.971	53.64
854.141	56.71
854.31	52.52
854.479	56.7
854.648	49.35
854.818	48.39
854.987	47.3
855.156	47
855.325	38.53
855.494	46.77
855.663	43.72
855.832	46.78
856.001	49.03
856.171	54.47
856.34	51.83
856.509	60.77
856.678	62.16
856.847	64.15
857.016	62.76
857.185	59.87
857.353	61.61
857.522	63.85
857.691	57.28
857.86	55.76
858.029	53.59
858.198	61.39
858.367	62.48
858.535	68.86
858.704	72.95
858.873	77.71
859.042	75.25
859.21	63.89
859.379	63.04
859.548	64.21
859.717	62.24
859.885	59.26
860.054	57.32
860.222	50.95
860.391	45.5
860.56	37.62
860.728	33.03
860.897	32.86
861.065	30.45
861.234	25.12
861.402	31.37
861.571	31.96
861.739	34.92
861.908	31.04
862.076	31.46
862.244	35.19
862.413	40.91
862.581	36.95
862.749	48.42
862.918	57.15
863.086	59.21
863.254	45.36
863.423	50.31
863.591	52.56
863.759	44.92
863.927	47.21
864.096	51.41
864.264	56.38
864.432	57.32
864.6	50.35
864.768	49.56
864.936	45.59
865.104	48.09
865.272	44.03
865.44	42.58
865.608	39.65
865.776	40.87
865.944	27.22
866.112	20.02
866.28	22.17
866.448	32.77
866.616	33.09
866.784	45.64
866.952	46.81
867.12	44.7
867.288	41.73
867.455	44.79
867.623	41.33
867.791	52.9
867.959	49.78
868.127	50.3
868.294	33.34
868.462	32.99
868.63	21.32
868.797	18.23
868.965	27.64
869.133	33.28
869.3	46.99
869.468	48.54
869.636	56.57
869.803	53.96
869.971	49.72
870.138	59.36
870.306	59.48
870.473	61.52
870.641	61.02
870.808	62.47
870.975	56.08
871.143	48.45
871.31	47.58
871.478	37.94
871.645	40.47
871.812	47.32
871.98	46.95
872.147	45.64
872.314	51.28
872.482	46.22
872.649	42.75
872.816	41.7
872.983	42.44
873.15	48.01
873.318	50.47
873.485	57.36
873.652	55.52
873.819	59.63
873.986	51.63
874.153	51.03
874.32	51.84
874.487	48.64
874.654	45.81
874.821	41.88
874.988	38.18
875.155	36.21
875.322	28.73
875.489	27.92
875.656	22.34
875.823	36.98
875.99	36.12
876.157	38.36
876.324	41.38
876.49	41.77
876.657	50.4
876.824	44.94
876.991	39.52
877.157	45.49
877.324	45.23
877.491	30.47
877.658	27.81
877.824	21.07
877.991	23.7
878.157	23.93
878.324	29.08
878.491	30.69
878.657	33.69
878.824	41.9
878.99	34.46
879.157	37.06
879.323	47.47
879.49	42.46
879.656	45.94
879.823	40.73
879.989	41.11
880.156	44.71
880.322	41.48
880.488	45.08
880.655	49.77
880.821	57.9
880.987	60.81
881.154	55.67
881.32	60.05
881.486	60.55
881.652	62.05
881.819	63.82
881.985	61.23
882.151	57.78
882.317	54.5
882.483	51.19
882.649	48.29
882.816	44.4
882.982	44.97
883.148	45.56
883.314	45.08
883.48	43.78
883.646	42.16
883.812	41.76
883.978	42.7
884.144	44.2
884.31	44.36
884.476	44.23
884.642	44.56
884.807	45.9
884.973	45.49
885.139	45.31
885.305	46.38
885.471	46.24
885.637	45.69
885.802	46.04
885.968	47.2
886.134	45.36
886.3	47.32
886.465	48.66
886.631	47.77
886.797	48.99
886.962	50.63
887.128	53.08
887.293	50.24
887.459	53.22
887.625	54.59
887.79	50.01
887.956	57.19
888.121	56.1
888.287	54.93
888.452	55.25
888.618	54.17
888.783	49.68
