Data from LC_194_Reflection_2.txt Node
Date: Tue Nov 17 13:43:33 EST 2015
User: robert
Spectrometer: USB4E03001
Autoset integration time: false
Trigger mode: 4
Integration Time (sec): 1.000000E-1
Scans to average: 15
Electric dark correction enabled: true
Nonlinearity correction enabled: false
Boxcar width: 5
Stray light correction enabled: false
XAxis mode: Wavelengths
Stop averaging: false
Number of Pixels in Spectrum: 3648
>>>>>Begin Spectral Data<<<<<
177.566	191.64
177.785	195.17
178.005	-691.42
178.225	431.59
178.445	-569.69
178.665	-121.37
178.885	-203.45
179.105	-377.95
179.324	872.58
179.544	1051.62
179.764	304.76
179.984	122.93
180.204	116.53
180.423	200.38
180.643	457.62
180.863	-1253.64
181.083	-1390.82
181.302	255.56
181.522	182.7
181.742	620.97
181.961	8136.27
182.181	-406.21
182.401	-111.89
182.621	-344.32
182.84	-356.1
183.06	-950.67
183.279	1400.96
183.499	-9442.86
183.719	-968.36
183.938	-279.26
184.158	-412.61
184.377	-527.94
184.597	-515
184.816	436.15
185.036	491.42
185.256	578.05
185.475	329.06
185.695	431.21
185.914	329.46
186.134	367.13
186.353	219.96
186.572	221.56
186.792	194.5
187.011	186.32
187.231	665.78
187.45	1741.19
187.67	354.19
187.889	419.56
188.108	322.39
188.328	291.62
188.547	244.7
188.766	-973.15
188.986	1018.99
189.205	262.7
189.424	330.76
189.644	254.45
189.863	200.61
190.082	184.3
190.302	251.74
190.521	395.92
190.74	8495.45
190.959	1362.62
191.178	345.13
191.398	344.36
191.617	925.86
191.836	597.41
192.055	366.76
192.274	-1172.76
192.494	-613.56
192.713	-1699.63
192.932	-575.79
193.151	1074.12
193.37	15669.84
193.589	-616450
193.808	17971.91
194.027	-2375.94
194.246	-1060.65
194.465	4716.57
194.685	452.84
194.904	344.15
195.123	51695.83
195.342	1378.13
195.561	438.14
195.78	331.22
195.999	402.35
196.218	260.22
196.436	228.02
196.655	175.05
196.874	200.72
197.093	209.49
197.312	184.4
197.531	177.07
197.75	172.45
197.969	201.11
198.188	201.85
198.407	199.96
198.625	207.8
198.844	205.56
199.063	161.29
199.282	141.67
199.501	127.36
199.719	167.06
199.938	147.32
200.157	184.95
200.376	421.6
200.594	293.6
200.813	200.37
201.032	318.09
201.251	329.41
201.469	5306.19
201.688	1790.41
201.907	-8380.51
202.125	2717.08
202.344	2433.54
202.563	2005.18
202.781	1412.31
203	-1529.67
203.218	-299.37
203.437	-460.55
203.656	-253.82
203.874	-680.41
204.093	-964.9
204.311	-1006.77
204.53	17830.26
204.748	-832.64
204.967	3470.64
205.185	611.23
205.404	316.89
205.622	307.64
205.841	248.32
206.059	300.59
206.278	186.18
206.496	188.54
206.715	180.5
206.933	235.46
207.151	190.4
207.37	185.75
207.588	207.45
207.806	207.73
208.025	168.18
208.243	137.05
208.461	154.01
208.68	251.57
208.898	-347.84
209.116	-566.47
209.335	1123.37
209.553	-815.94
209.771	428.72
209.989	208.65
210.208	305.37
210.426	300.6
210.644	288.81
210.862	222.75
211.081	167.33
211.299	119.45
211.517	132.74
211.735	136.21
211.953	121.62
212.171	137.28
212.39	346.95
212.608	348.6
212.826	509.99
213.044	545.15
213.262	519.65
213.48	-26725.37
213.698	-1550
213.916	751.93
214.134	-1436.54
214.352	-462.72
214.57	-459.18
214.788	4095.76
215.006	1454.12
215.224	1275.9
215.442	836.94
215.66	893.54
215.878	525.88
216.096	220.54
216.314	231.88
216.532	158.79
216.75	124.22
216.968	144.85
217.185	162.42
217.403	173.54
217.621	167.07
217.839	164.87
218.057	168.27
218.275	169.68
218.492	173.04
218.71	192.73
218.928	214.79
219.146	254.21
219.363	292.66
219.581	222.67
219.799	218.36
220.017	235.25
220.234	240.28
220.452	188.68
220.67	169.98
220.887	196.51
221.105	205.42
221.323	184.67
221.54	159.56
221.758	118.66
221.976	107.94
222.193	92.01
222.411	92.96
222.629	87.93
222.846	103.44
223.064	91.3
223.281	96.48
223.499	83.8
223.716	95.85
223.934	97.23
224.151	102.48
224.369	108.73
224.586	125.47
224.804	116.29
225.021	133.7
225.239	129.44
225.456	128.28
225.674	114.41
225.891	100.03
226.108	100.89
226.326	111.65
226.543	100.43
226.76	101.67
226.978	95.59
227.195	97.1
227.413	77.91
227.63	65.6
227.847	62.26
228.064	59.57
228.282	55.11
228.499	55.48
228.716	49.19
228.934	49.69
229.151	45.57
229.368	39.11
229.585	36.84
229.802	40.15
230.02	40.84
230.237	39.19
230.454	36.76
230.671	42.05
230.888	38.24
231.105	38.73
231.323	38.19
231.54	42.96
231.757	49.12
231.974	48.09
232.191	43.08
232.408	46.33
232.625	49.21
232.842	49.21
233.059	47.78
233.276	48.62
233.493	49.3
233.71	48.25
233.927	41.08
234.144	41.05
234.361	38.59
234.578	42.38
234.795	40.86
235.012	38.09
235.229	38.57
235.446	37.07
235.663	41.14
235.879	45.06
236.096	54.03
236.313	54.01
236.53	51.48
236.747	51.21
236.964	50.27
237.181	52.82
237.397	55.31
237.614	53.19
237.831	53.45
238.048	52.13
238.264	47.61
238.481	43.78
238.698	42.73
238.915	47.09
239.131	49.81
239.348	50.46
239.565	45.27
239.781	48.61
239.998	52.3
240.215	47.53
240.431	42.83
240.648	41.93
240.865	37.24
241.081	38.07
241.298	33.77
241.514	32.51
241.731	30.35
241.947	31.15
242.164	27.17
242.38	23.65
242.597	23.79
242.814	23.84
243.03	22.5
243.246	22.88
243.463	22.09
243.679	21.66
243.896	21.41
244.112	21.49
244.329	21.77
244.545	22.95
244.762	25.31
244.978	24.83
245.194	25.8
245.411	28.2
245.627	29.4
245.843	27.96
246.06	25.08
246.276	21.96
246.492	19.9
246.709	17.99
246.925	18.28
247.141	19.36
247.357	18.89
247.574	18.47
247.79	17.24
248.006	15.95
248.222	16.1
248.439	17.23
248.655	17.84
248.871	18.16
249.087	18.43
249.303	18.04
249.519	15.96
249.736	17.23
249.952	17.31
250.168	19.95
250.384	18.83
250.6	19.99
250.816	21.41
251.032	21.52
251.248	22.04
251.464	21.46
251.68	21.69
251.896	21.22
252.112	19.46
252.328	19.15
252.544	17.56
252.76	19.08
252.976	18.46
253.192	17.71
253.408	19.78
253.624	18.42
253.84	22.05
254.056	22.02
254.272	23.53
254.487	25.99
254.703	25.17
254.919	27.28
255.135	28.96
255.351	29.54
255.567	29.11
255.782	24.86
255.998	29.72
256.214	26.66
256.43	26.06
256.646	26.13
256.861	24.34
257.077	26.89
257.293	26.04
257.508	25.56
257.724	25.1
257.94	24.53
258.155	22.83
258.371	22.35
258.587	19.08
258.802	18.69
259.018	16.84
259.234	16.58
259.449	16.39
259.665	15.84
259.88	15.34
260.096	15.09
260.312	14.53
260.527	14.84
260.743	14.54
260.958	15.29
261.174	15.32
261.389	15.73
261.605	16.29
261.82	15.42
262.036	15.08
262.251	14.58
262.466	13.41
262.682	15.18
262.897	15.46
263.113	13.72
263.328	13.54
263.543	15.22
263.759	15.44
263.974	14.65
264.189	15.03
264.405	15.77
264.62	18.52
264.835	21.03
265.051	20.22
265.266	21.28
265.481	23.16
265.696	24.64
265.912	23.62
266.127	22.38
266.342	21.95
266.557	20.26
266.773	20.38
266.988	18.28
267.203	17.32
267.418	17.58
267.633	17.08
267.848	15.99
268.064	13.64
268.279	12.32
268.494	12.19
268.709	13.17
268.924	15.39
269.139	14.65
269.354	15.97
269.569	15.73
269.784	14.1
269.999	14.07
270.214	14.12
270.429	15.53
270.644	14.81
270.859	15.48
271.074	15.08
271.289	15.32
271.504	15.92
271.719	14.02
271.934	14.59
272.149	15.59
272.363	16.68
272.578	17.15
272.793	17.79
273.008	17.68
273.223	18.11
273.438	17.51
273.653	17.5
273.867	17.43
274.082	18.3
274.297	17.89
274.512	18.21
274.726	16.09
274.941	15.34
275.156	15.3
275.371	16.14
275.585	16.02
275.8	17.14
276.015	17.08
276.229	16.48
276.444	15.24
276.659	15.01
276.873	14.21
277.088	16.07
277.302	16.54
277.517	14.5
277.732	13.56
277.946	13.34
278.161	13.97
278.375	12.84
278.59	13.74
278.804	14.83
279.019	14.93
279.233	14.66
279.448	13.74
279.662	14.72
279.877	15.55
280.091	15.51
280.306	15.28
280.52	14.13
280.735	13.7
280.949	11.83
281.163	11.92
281.378	12.91
281.592	13.68
281.806	12.98
282.021	13.39
282.235	14.29
282.449	16.48
282.664	16.82
282.878	17.47
283.092	18.5
283.307	19.75
283.521	19.57
283.735	18.31
283.949	17.08
284.164	17.04
284.378	15.4
284.592	14.33
284.806	12.63
285.02	12.91
285.234	12.25
285.449	10.54
285.663	9.55
285.877	10.33
286.091	10.6
286.305	10.72
286.519	11.01
286.733	11.73
286.947	12.62
287.161	12.68
287.375	11.82
287.589	12.21
287.803	13.79
288.017	14.36
288.231	13.46
288.445	13.85
288.659	14.14
288.873	13.88
289.087	14.49
289.301	14.21
289.515	15.21
289.729	15.62
289.943	15.34
290.157	14.14
290.371	14.82
290.584	15.2
290.798	14.9
291.012	16.75
291.226	17.03
291.44	15.4
291.654	15.92
291.867	15.45
292.081	15.31
292.295	15.66
292.509	16.36
292.722	16.27
292.936	16.41
293.15	16.07
293.364	14.28
293.577	14.52
293.791	14.94
294.005	14.63
294.218	14.19
294.432	14.13
294.645	14.14
294.859	14.14
295.073	12.9
295.286	12.6
295.5	12.62
295.713	12.88
295.927	13.43
296.14	13.84
296.354	12.56
296.568	12.36
296.781	12.88
296.994	12.84
297.208	12.89
297.421	13.78
297.635	13.99
297.848	13.59
298.062	12.9
298.275	11.65
298.489	11.48
298.702	12.53
298.915	12.96
299.129	13.09
299.342	13.25
299.555	12.2
299.769	12.47
299.982	12.8
300.195	13.18
300.409	13.88
300.622	14.66
300.835	15.19
301.048	15.67
301.262	15.8
301.475	15.35
301.688	14.55
301.901	16.08
302.115	16.38
302.328	16.33
302.541	16.53
302.754	16.5
302.967	16.25
303.18	15.68
303.393	14.01
303.607	13.13
303.82	12.88
304.033	12.36
304.246	11.31
304.459	10.46
304.672	10.13
304.885	10.01
305.098	9.86
305.311	10.86
305.524	10.94
305.737	12.18
305.95	14.51
306.163	12.98
306.376	13.9
306.589	14.69
306.802	13.96
307.015	13.23
307.228	14.12
307.44	13.9
307.653	13.46
307.866	14.23
308.079	13.62
308.292	11.87
308.505	13.46
308.718	13.13
308.93	13.29
309.143	14.9
309.356	14.73
309.569	13.98
309.781	13.72
309.994	12.51
310.207	12.01
310.42	11.47
310.632	11.72
310.845	11.8
311.058	11.3
311.27	10.23
311.483	9.42
311.696	9.64
311.908	10.23
312.121	10.43
312.333	11.8
312.546	11.85
312.759	12.16
312.971	12.25
313.184	13.11
313.396	13.81
313.609	15.04
313.821	15.49
314.034	16.03
314.246	15.49
314.459	16.33
314.671	16.57
314.884	16.56
315.096	17.29
315.309	17.42
315.521	17.52
315.733	17.39
315.946	16.61
316.158	16.66
316.371	16.91
316.583	17.71
316.795	16.93
317.008	16.22
317.22	15.8
317.432	16.09
317.644	14.49
317.857	12.59
318.069	13.57
318.281	14.53
318.494	14.13
318.706	14.49
318.918	13.97
319.13	14.9
319.342	15.2
319.555	15.26
319.767	15.25
319.979	15.79
320.191	16.9
320.403	17
320.615	17.1
320.827	16.27
321.039	16.6
321.252	16.57
321.464	16.32
321.676	15.59
321.888	16.5
322.1	15.17
322.312	15.64
322.524	16.16
322.736	14.92
322.948	14.33
323.16	14.57
323.372	12.96
323.584	13.88
323.796	14.9
324.007	15.77
324.219	16.33
324.431	17.77
324.643	18.17
324.855	17.44
325.067	18.51
325.279	18.88
325.491	19.92
325.702	20.7
325.914	19.92
326.126	18.95
326.338	18.9
326.55	17.28
326.761	17.15
326.973	16.91
327.185	16.91
327.396	16.3
327.608	15.83
327.82	15.06
328.032	14.71
328.243	14.37
328.455	14.6
328.666	14.39
328.878	15.1
329.09	13.41
329.301	13.15
329.513	12.48
329.725	12.67
329.936	12.61
330.148	14.47
330.359	15.07
330.571	15.55
330.782	14.83
330.994	14.32
331.205	14.08
331.417	14.89
331.628	15.85
331.84	17.57
332.051	17.89
332.262	17.58
332.474	15.81
332.685	16.05
332.897	15.41
333.108	16.29
333.319	15.68
333.531	15.56
333.742	15.18
333.953	13.61
334.165	12.79
334.376	12.51
334.587	13.95
334.799	13.3
335.01	13.34
335.221	12.64
335.432	11.03
335.644	11.31
335.855	11.6
336.066	12.13
336.277	12.68
336.488	12.52
336.7	12.13
336.911	11.46
337.122	12.25
337.333	12.74
337.544	14.88
337.755	15.88
337.966	16.12
338.177	15.59
338.388	15.09
338.599	15.56
338.811	14.83
339.022	14.24
339.233	13.27
339.444	12.67
339.655	11.65
339.866	10.33
340.076	9.07
340.287	8.99
340.498	9.55
340.709	10.32
340.92	10.12
341.131	10.17
341.342	10.75
341.553	11.97
341.764	12.08
341.975	12.05
342.185	11.96
342.396	12.36
342.607	12.69
342.818	13.36
343.029	12.4
343.239	12.36
343.45	12.45
343.661	12.21
343.872	11.88
344.082	11.97
344.293	11.88
344.504	14.02
344.714	14.31
344.925	14.03
345.136	12.98
345.346	13.33
345.557	12.52
345.768	13.17
345.978	13.35
346.189	13.84
346.399	13.79
346.61	13.71
346.821	11.96
347.031	12.83
347.242	11.97
347.452	13.03
347.663	13.47
347.873	14.43
348.084	13.52
348.294	13.97
348.504	13.03
348.715	13.72
348.925	13.89
349.136	13.64
349.346	12.96
349.557	13.48
349.767	12.54
349.977	11.68
350.188	11.89
350.398	12.79
350.608	12.2
350.819	12.29
351.029	11.55
351.239	11.92
351.449	12.1
351.66	12.59
351.87	12.79
352.08	13.38
352.29	14.12
352.501	13.7
352.711	14.17
352.921	14.73
353.131	15.6
353.341	15.83
353.552	14.32
353.762	14.08
353.972	13.11
354.182	15
354.392	15
354.602	15.39
354.812	15.28
355.022	14.08
355.232	13.05
355.442	12.05
355.652	11.8
355.862	12.88
356.072	12.6
356.282	13.22
356.492	11.29
356.702	10.52
356.912	9.85
357.122	10.12
357.332	10.29
357.542	10.35
357.752	10.74
357.962	10.81
358.171	10.49
358.381	10.89
358.591	10.19
358.801	10.9
359.011	11.17
359.221	11.44
359.43	11.38
359.64	10.82
359.85	10.41
360.06	10.11
360.269	10.04
360.479	9.58
360.689	9.23
360.899	9.9
361.108	9.15
361.318	8.98
361.528	8.6
361.737	8.47
361.947	8.8
362.156	9.04
362.366	8.91
362.576	8.98
362.785	9.47
362.995	9.57
363.204	8.98
363.414	9.29
363.623	9.36
363.833	9.59
364.042	9.34
364.252	9.1
364.461	9.48
364.671	9.93
364.88	9.51
365.09	9.31
365.299	9.27
365.509	9.57
365.718	9.6
365.927	9.81
366.137	9.94
366.346	10.42
366.555	10.71
366.765	10.82
366.974	10.33
367.183	11.09
367.393	11.31
367.602	11.36
367.811	11.02
368.021	10.9
368.23	11.1
368.439	10.65
368.648	10.07
368.857	10.43
369.067	10.44
369.276	11.12
369.485	10.9
369.694	10.89
369.903	11.09
370.112	11.24
370.321	11.31
370.531	10.74
370.74	10.6
370.949	10.45
371.158	10.53
371.367	10.59
371.576	10.64
371.785	10.09
371.994	10.01
372.203	9.7
372.412	9.8
372.621	9.58
372.83	9.7
373.039	10.74
373.248	10.81
373.457	10.7
373.666	10.14
373.874	9.77
374.083	10.44
374.292	10.44
374.501	10.56
374.71	10.09
374.919	10.36
375.128	9.83
375.336	9.09
375.545	9.16
375.754	8.53
375.963	8.09
376.171	7.83
376.38	8.03
376.589	8.27
376.798	8.18
377.006	8.34
377.215	8.87
377.424	8.93
377.632	8.61
377.841	8.69
378.05	8.82
378.258	9.41
378.467	9.48
378.675	9.06
378.884	8.95
379.093	9.1
379.301	9.17
379.51	8.63
379.718	8.79
379.927	9.2
380.135	8.79
380.344	9.15
380.552	9.48
380.761	9.66
380.969	9.73
381.177	9.38
381.386	8.97
381.594	9.07
381.803	8.91
382.011	9.14
382.219	8.67
382.428	9.14
382.636	8.57
382.845	7.91
383.053	7.67
383.261	6.72
383.469	6.9
383.678	7.21
383.886	6.76
384.094	6.52
384.302	6.53
384.511	6.83
384.719	6.4
384.927	6.57
385.135	6.67
385.343	6.82
385.552	7.57
385.76	7.54
385.968	7.7
386.176	7.9
386.384	8.12
386.592	7.98
386.8	8.01
387.008	8.08
387.216	8.17
387.424	8.23
387.633	7.86
387.841	7.42
388.049	7.52
388.257	7.39
388.465	7.71
388.672	7.52
388.88	7.38
389.088	7.51
389.296	7.6
389.504	7.88
389.712	7.9
389.92	7.98
390.128	8.36
390.336	8.33
390.544	7.92
390.751	7.56
390.959	7.58
391.167	7.65
391.375	7.31
391.583	7.13
391.79	6.57
391.998	6.78
392.206	7.04
392.414	6.72
392.621	6.68
392.829	6.91
393.037	7.08
393.244	6.91
393.452	6.89
393.66	6.72
393.867	6.81
394.075	6.98
394.283	6.72
394.49	6.59
394.698	7
394.905	7.03
395.113	7.02
395.32	6.81
395.528	7.05
395.735	7.31
395.943	7.3
396.15	7.29
396.358	7.5
396.565	7.25
396.773	7.19
396.98	6.98
397.188	6.85
397.395	6.77
397.602	7.28
397.81	7.44
398.017	7.12
398.225	7.72
398.432	7.88
398.639	7.78
398.847	8.51
399.054	8.52
399.261	8.36
399.468	8.23
399.676	8.55
399.883	8.18
400.09	7.9
400.297	8.1
400.505	7.9
400.712	8.09
400.919	7.99
401.126	7.69
401.333	7.78
401.54	7.79
401.748	7.57
401.955	7.02
402.162	7.36
402.369	7.41
402.576	7.32
402.783	6.64
402.99	6.2
403.197	6.1
403.404	5.79
403.611	5.55
403.818	5.44
404.025	5.36
404.232	5.3
404.439	5.02
404.646	4.89
404.853	4.87
405.06	5.35
405.267	5.62
405.474	5.43
405.681	5.13
405.887	5.24
406.094	5.46
406.301	5.94
406.508	5.97
406.715	6.01
406.922	6.03
407.128	6
407.335	5.58
407.542	5.3
407.749	5.64
407.955	6.13
408.162	6.29
408.369	6.38
408.575	6.19
408.782	6.37
408.989	6.06
409.195	6.12
409.402	6.16
409.609	6.66
409.815	6.45
410.022	6.25
410.228	5.89
410.435	5.73
410.642	5.48
410.848	5.45
411.055	5.49
411.261	5.66
411.468	5.94
411.674	5.88
411.881	5.64
412.087	5.94
412.294	6
412.5	6.29
412.706	6.22
412.913	6.29
413.119	6.26
413.326	6.18
413.532	5.97
413.738	5.76
413.945	5.22
414.151	4.97
414.357	5.21
414.564	5.25
414.77	5.09
414.976	5.26
415.182	5.17
415.389	5.08
415.595	4.95
415.801	5.2
416.007	5.17
416.214	5.48
416.42	5.69
416.626	5.36
416.832	5.24
417.038	5.2
417.244	5
417.45	5.07
417.657	5.11
417.863	5.16
418.069	5.15
418.275	4.92
418.481	4.86
418.687	4.81
418.893	4.98
419.099	4.92
419.305	5.19
419.511	5.22
419.717	5.08
419.923	4.93
420.129	4.81
420.335	4.8
420.541	4.71
420.746	4.71
420.952	4.59
421.158	4.5
421.364	4.47
421.57	4.39
421.776	4.23
421.982	4.27
422.187	4.23
422.393	4.24
422.599	4.08
422.805	4.04
423.01	4.08
423.216	4.24
423.422	4.24
423.628	4.3
423.833	4.23
424.039	4.04
424.245	3.97
424.45	4.04
424.656	4.04
424.862	4.04
425.067	4.18
425.273	4.24
425.478	4.07
425.684	3.91
425.889	4.05
426.095	4.04
426.301	4.33
426.506	4.49
426.712	4.51
426.917	4.61
427.123	4.66
427.328	4.8
427.533	4.7
427.739	4.81
427.944	4.96
428.15	4.78
428.355	4.71
428.561	4.85
428.766	4.68
428.971	4.79
429.177	4.78
429.382	4.9
429.587	4.75
429.793	4.93
429.998	4.82
430.203	4.78
430.408	4.61
430.614	4.69
430.819	4.5
431.024	4.47
431.229	4.28
431.434	4.33
431.64	4.31
431.845	4.33
432.05	4.17
432.255	4.26
432.46	4.38
432.665	4.67
432.87	4.67
433.076	4.62
433.281	4.64
433.486	4.6
433.691	4.62
433.896	4.47
434.101	4.43
434.306	4.52
434.511	4.58
434.716	4.44
434.921	4.38
435.126	4.36
435.331	4.6
435.535	4.6
435.74	4.77
435.945	4.76
436.15	4.7
436.355	4.86
436.56	4.8
436.765	4.99
436.97	5
437.174	4.75
437.379	4.85
437.584	4.84
437.789	4.9
437.993	4.86
438.198	4.77
438.403	4.93
438.608	4.75
438.812	4.73
439.017	4.52
439.222	4.47
439.426	4.43
439.631	4.24
439.836	4.09
440.04	3.96
440.245	3.9
440.45	3.74
440.654	3.63
440.859	3.6
441.063	3.56
441.268	3.58
441.472	3.67
441.677	3.83
441.881	3.9
442.086	3.95
442.29	3.96
442.495	4.16
442.699	4.31
442.904	4.39
443.108	4.35
443.312	4.34
443.517	4.32
443.721	4.29
443.925	4.03
444.13	4.02
444.334	3.95
444.538	4.08
444.743	3.74
444.947	3.61
445.151	3.49
445.356	3.52
445.56	3.53
445.764	3.55
445.968	3.56
446.173	3.77
446.377	3.66
446.581	3.79
446.785	3.68
446.989	3.74
447.193	3.96
447.398	4.14
447.602	4.27
447.806	4.33
448.01	4.3
448.214	4.3
448.418	4.22
448.622	4.14
448.826	4.05
449.03	4.07
449.234	4.08
449.438	3.86
449.642	3.87
449.846	3.76
450.05	3.6
450.254	3.34
450.458	3.19
450.662	3.11
450.866	3.22
451.069	3.21
451.273	3.19
451.477	3.31
451.681	3.43
451.885	3.4
452.089	3.46
452.292	3.49
452.496	3.66
452.7	3.79
452.904	4.01
453.107	4.11
453.311	4.24
453.515	4.23
453.719	4.24
453.922	4.11
454.126	3.95
454.33	3.87
454.533	3.87
454.737	3.9
454.94	3.7
455.144	3.6
455.348	3.6
455.551	3.48
455.755	3.65
455.958	3.5
456.162	3.47
456.365	3.41
456.569	3.21
456.772	3.42
456.976	3.61
457.179	3.83
457.383	3.78
457.586	3.98
457.79	3.98
457.993	4.1
458.196	4.09
458.4	4.24
458.603	4.44
458.807	4.6
459.01	4.61
459.213	4.42
459.417	4.31
459.62	4.34
459.823	4.08
460.026	3.94
460.23	3.81
460.433	3.78
460.636	3.66
460.839	3.46
461.042	3.46
461.246	3.29
461.449	3.29
461.652	3.34
461.855	3.35
462.058	3.5
462.261	3.69
462.464	3.58
462.668	3.58
462.871	3.64
463.074	3.76
463.277	3.62
463.48	3.76
463.683	3.88
463.886	4.16
464.089	4.07
464.292	4.05
464.495	3.95
464.698	4.01
464.901	4.17
465.104	4.19
465.306	4.22
465.509	4.19
465.712	4.1
465.915	4.19
466.118	4.05
466.321	4.07
466.524	3.94
466.726	3.95
466.929	4.06
467.132	4.04
467.335	4.01
467.538	4.11
467.74	4.22
467.943	4.13
468.146	4.06
468.348	4.03
468.551	3.99
468.754	4.14
468.956	4.2
469.159	4.2
469.362	4.25
469.564	4.33
469.767	4.39
469.969	4.32
470.172	4.52
470.375	4.4
470.577	4.29
470.78	4.19
470.982	4.07
471.185	3.93
471.387	3.83
471.59	3.92
471.792	3.8
471.995	3.61
472.197	3.66
472.399	3.6
472.602	3.72
472.804	3.84
473.007	3.84
473.209	3.92
473.411	3.87
473.614	4
473.816	3.94
474.018	3.99
474.22	3.92
474.423	4.01
474.625	3.84
474.827	3.58
475.03	3.46
475.232	3.52
475.434	3.51
475.636	3.67
475.838	3.62
476.04	3.39
476.243	3.41
476.445	3.36
476.647	3.4
476.849	3.46
477.051	3.6
477.253	3.69
477.455	3.6
477.657	3.5
477.859	3.33
478.061	3.31
478.263	3.37
478.465	3.35
478.667	3.55
478.869	3.54
479.071	3.58
479.273	3.47
479.475	3.35
479.677	3.58
479.879	3.53
480.081	3.69
480.283	3.68
480.485	3.61
480.686	3.71
480.888	3.67
481.09	3.62
481.292	3.53
481.494	3.59
481.695	3.63
481.897	3.48
482.099	3.53
482.301	3.56
482.502	3.47
482.704	3.57
482.906	3.48
483.107	3.35
483.309	3.23
483.511	3.22
483.712	3.18
483.914	3.1
484.115	3.08
484.317	3.07
484.519	2.96
484.72	2.97
484.922	2.93
485.123	2.95
485.325	2.94
485.526	2.99
485.728	2.92
485.929	2.94
486.131	3.05
486.332	3.07
486.534	3.07
486.735	3.1
486.936	3.13
487.138	3.06
487.339	3.03
487.541	3.12
487.742	3.1
487.943	3.19
488.144	3.21
488.346	3.16
488.547	3.15
488.748	3.17
488.95	3.18
489.151	3.19
489.352	3.26
489.553	3.3
489.755	3.32
489.956	3.25
490.157	3.22
490.358	3.26
490.559	3.25
490.76	3.22
490.961	3.19
491.163	3.26
491.364	3.19
491.565	3.17
491.766	3.13
491.967	3.1
492.168	3.23
492.369	3.27
492.57	3.24
492.771	3.26
492.972	3.33
493.173	3.36
493.374	3.43
493.575	3.56
493.776	3.48
493.976	3.61
494.177	3.69
494.378	3.72
494.579	3.88
494.78	3.93
494.981	3.94
495.182	3.95
495.382	4.03
495.583	3.9
495.784	3.79
495.985	3.91
496.185	3.87
496.386	3.81
496.587	3.78
496.788	3.7
496.988	3.66
497.189	3.57
497.39	3.52
497.59	3.57
497.791	3.7
497.992	3.67
498.192	3.69
498.393	3.6
498.593	3.63
498.794	3.5
498.994	3.67
499.195	3.57
499.395	3.79
499.596	3.91
499.796	3.8
499.997	3.72
500.197	3.72
500.398	3.83
500.598	3.82
500.799	3.9
500.999	3.98
501.199	3.63
501.4	3.91
501.6	3.81
501.801	3.87
502.001	4.01
502.201	4.16
502.402	4.3
502.602	4.09
502.802	4.1
503.002	4.05
503.203	4.1
503.403	4.18
503.603	3.94
503.803	3.9
504.003	3.89
504.204	3.86
504.404	3.86
504.604	3.79
504.804	4.12
505.004	4.26
505.204	4.18
505.404	4.3
505.604	4.32
505.804	4.38
506.005	4.45
506.205	4.4
506.405	4.39
506.605	4.33
506.805	4.42
507.005	4.26
507.204	4.1
507.404	4.17
507.604	4.14
507.804	4.23
508.004	4.37
508.204	4.41
508.404	4.5
508.604	4.55
508.804	4.58
509.003	4.58
509.203	4.52
509.403	4.71
509.603	4.83
509.803	4.79
510.002	4.75
510.202	4.81
510.402	4.9
510.602	4.8
510.801	4.73
511.001	4.66
511.201	4.62
511.4	4.58
511.6	4.44
511.8	4.2
511.999	4.35
512.199	4.47
512.398	4.43
512.598	4.35
512.797	4.5
512.997	4.48
513.197	4.5
513.396	4.58
513.596	4.69
513.795	4.83
513.994	5.04
514.194	5.05
514.393	5.08
514.593	5.07
514.792	5.17
514.992	5.12
515.191	5.36
515.39	5.44
515.59	5.43
515.789	5.71
515.988	5.77
516.188	5.82
516.387	5.81
516.586	5.74
516.786	5.74
516.985	5.75
517.184	5.88
517.383	5.92
517.582	5.89
517.782	5.97
517.981	5.77
518.18	5.82
518.379	5.81
518.578	5.79
518.777	5.72
518.976	5.82
519.176	5.9
519.375	5.83
519.574	5.84
519.773	5.86
519.972	5.87
520.171	5.92
520.37	5.94
520.569	5.94
520.768	5.97
520.967	6.12
521.166	6.16
521.365	6.2
521.564	6.34
521.762	6.31
521.961	6.44
522.16	6.39
522.359	6.58
522.558	6.6
522.757	6.72
522.956	6.8
523.154	6.88
523.353	6.87
523.552	6.9
523.751	6.83
523.949	6.81
524.148	6.86
524.347	7.02
524.546	6.98
524.744	6.92
524.943	6.93
525.142	6.9
525.34	6.86
525.539	6.85
525.737	6.73
525.936	6.82
526.135	6.89
526.333	6.84
526.532	6.78
526.73	6.7
526.929	6.81
527.127	6.86
527.326	6.87
527.524	6.97
527.723	7.01
527.921	7.09
528.12	7.11
528.318	7.09
528.516	7.18
528.715	7.22
528.913	7.32
529.112	7.32
529.31	7.31
529.508	7.38
529.707	7.38
529.905	7.43
530.103	7.4
530.301	7.35
530.5	7.42
530.698	7.4
530.896	7.42
531.094	7.47
531.293	7.5
531.491	7.63
531.689	7.66
531.887	7.75
532.085	7.81
532.283	8.02
532.481	8.1
532.68	8.09
532.878	8.23
533.076	8.27
533.274	8.22
533.472	8.25
533.67	8.21
533.868	8.25
534.066	8.33
534.264	8.37
534.462	8.38
534.66	8.38
534.858	8.5
535.056	8.4
535.253	8.43
535.451	8.56
535.649	8.64
535.847	8.67
536.045	8.78
536.243	8.73
536.441	8.72
536.638	8.78
536.836	8.92
537.034	8.96
537.232	8.99
537.43	9.09
537.627	9.08
537.825	9.16
538.023	9.2
538.22	9.31
538.418	9.4
538.616	9.49
538.813	9.48
539.011	9.55
539.209	9.53
539.406	9.81
539.604	9.85
539.801	9.97
539.999	9.96
540.196	10
540.394	9.9
540.591	9.95
540.789	9.98
540.986	9.98
541.184	9.96
541.381	10.07
541.579	9.93
541.776	10.02
541.974	10.04
542.171	10.08
542.368	10.17
542.566	10.18
542.763	10.15
542.96	10.2
543.158	10.19
543.355	10.25
543.552	10.29
543.75	10.56
543.947	10.55
544.144	10.51
544.341	10.61
544.539	10.61
544.736	10.58
544.933	10.6
545.13	10.67
545.327	10.82
545.524	10.95
545.722	11.07
545.919	10.96
546.116	11.08
546.313	11.22
546.51	11.35
546.707	11.61
546.904	11.87
547.101	12.11
547.298	12.23
547.495	12.25
547.692	12.3
547.889	12.32
548.086	12.46
548.283	12.62
548.48	12.79
548.677	12.75
548.874	12.76
549.07	12.59
549.267	12.78
549.464	12.85
549.661	13.1
549.858	13.33
550.055	13.31
550.251	13.3
550.448	13.31
550.645	13.53
550.842	13.53
551.038	13.66
551.235	13.94
551.432	13.8
551.628	13.81
551.825	13.88
552.022	13.99
552.218	14.23
552.415	14.29
552.612	14.34
552.808	14.25
553.005	14.44
553.201	14.42
553.398	14.52
553.594	14.68
553.791	14.87
553.987	14.8
554.184	14.73
554.38	14.88
554.577	15.08
554.773	15.33
554.97	15.48
555.166	15.71
555.362	15.8
555.559	15.97
555.755	16.05
555.952	16.01
556.148	16.37
556.344	16.5
556.541	16.42
556.737	16.71
556.933	16.77
557.129	17
557.326	16.85
557.522	16.96
557.718	17.02
557.914	17.04
558.11	17.16
558.307	17.11
558.503	17.37
558.699	17.61
558.895	17.45
559.091	17.49
559.287	17.43
559.483	17.74
559.679	17.96
559.876	18.04
560.072	18.34
560.268	18.5
560.464	18.7
560.66	18.48
560.856	18.47
561.052	18.52
561.247	18.56
561.443	18.7
561.639	18.64
561.835	18.7
562.031	18.74
562.227	18.73
562.423	18.71
562.619	18.85
562.815	19.1
563.01	19.15
563.206	19.33
563.402	19.31
563.598	19.26
563.793	19.31
563.989	19.26
564.185	19.48
564.381	19.59
564.576	19.74
564.772	19.65
564.968	19.68
565.163	19.74
565.359	19.86
565.555	20.05
565.75	20.39
565.946	20.54
566.141	20.65
566.337	20.6
566.532	20.74
566.728	20.86
566.923	21.09
567.119	21.18
567.314	21.38
567.51	21.46
567.705	21.36
567.901	21.27
568.096	21.37
568.292	21.5
568.487	21.59
568.682	21.59
568.878	21.8
569.073	21.69
569.268	21.75
569.464	21.93
569.659	22.19
569.854	22.43
570.05	22.36
570.245	22.58
570.44	22.6
570.635	22.76
570.831	23
571.026	23.13
571.221	23.29
571.416	23.52
571.611	23.25
571.806	23.18
572.002	23.45
572.197	23.55
572.392	23.55
572.587	23.75
572.782	23.89
572.977	23.7
573.172	23.54
573.367	23.79
573.562	23.9
573.757	24.2
573.952	24.32
574.147	24.43
574.342	24.65
574.537	24.75
574.732	24.55
574.927	24.68
575.121	24.92
575.316	25.19
575.511	25.2
575.706	25.14
575.901	25.27
576.096	25.15
576.29	24.99
576.485	25.13
576.68	25.2
576.875	25.48
577.069	25.46
577.264	25.53
577.459	25.57
577.654	25.49
577.848	25.62
578.043	25.75
578.238	25.88
578.432	26.04
578.627	26.06
578.821	26.15
579.016	26.23
579.21	26.41
579.405	26.41
579.6	26.48
579.794	26.6
579.989	26.72
580.183	26.43
580.378	26.57
580.572	26.83
580.766	27.1
580.961	27.12
581.155	27.36
581.35	27.26
581.544	27.43
581.738	27.32
581.933	27.42
582.127	27.5
582.321	27.55
582.516	27.53
582.71	27.49
582.904	27.38
583.099	27.22
583.293	27.23
583.487	27.28
583.681	27.43
583.875	27.63
584.07	27.88
584.264	28.03
584.458	28.55
584.652	28.84
584.846	28.98
585.04	28.94
585.234	29.47
585.428	29.38
585.623	29.52
585.817	29.57
586.011	29.86
586.205	29.85
586.399	29.61
586.593	29.37
586.787	29.44
586.981	29.25
587.174	29.66
587.368	29.61
587.562	29.88
587.756	29.99
587.95	30.02
588.144	29.98
588.338	30.04
588.532	30.14
588.725	30.38
588.919	30.44
589.113	30.74
589.307	30.42
589.501	30.41
589.694	30.68
589.888	30.82
590.082	30.77
590.275	30.73
590.469	30.66
590.663	30.87
590.856	30.84
591.05	30.99
591.244	31.05
591.437	31.47
591.631	31.4
591.824	31.31
592.018	31.28
592.212	31.4
592.405	31.45
592.599	31.87
592.792	32.09
592.986	32.22
593.179	32.19
593.372	31.94
593.566	31.86
593.759	32.2
593.953	32.12
594.146	32.39
594.339	32.55
594.533	32.78
594.726	32.63
594.92	32.59
595.113	32.7
595.306	32.84
595.499	33.12
595.693	33.27
595.886	33.03
596.079	33.03
596.272	32.75
596.466	32.76
596.659	32.67
596.852	32.67
597.045	32.65
597.238	32.62
597.431	32.51
597.624	32.61
597.818	32.56
598.011	32.79
598.204	32.65
598.397	32.77
598.59	32.66
598.783	32.61
598.976	32.71
599.169	32.67
599.362	32.82
599.555	33.01
599.748	32.99
599.941	33.04
600.134	32.99
600.326	33.17
600.519	33.39
600.712	33.49
600.905	33.75
601.098	33.83
601.291	34.06
601.483	34.05
601.676	34.07
601.869	33.92
602.062	33.82
602.255	33.78
602.447	33.85
602.64	33.71
602.833	33.65
603.025	33.77
603.218	33.83
603.411	33.99
603.603	33.97
603.796	33.96
603.989	33.89
604.181	33.99
604.374	34.11
604.566	34.29
604.759	34.38
604.951	34.57
605.144	34.5
605.336	34.44
605.529	34.25
605.721	34.35
605.914	34.24
606.106	34.39
606.299	34.48
606.491	34.69
606.683	34.71
606.876	34.84
607.068	34.88
607.26	35.1
607.453	35.23
607.645	35.34
607.837	35.38
608.03	35.64
608.222	35.97
608.414	36.08
608.606	35.83
608.799	35.63
608.991	35.52
609.183	35.66
609.375	35.64
609.567	35.75
609.759	35.61
609.952	35.63
610.144	35.6
610.336	35.4
610.528	35.29
610.72	35.45
610.912	35.44
611.104	35.58
611.296	35.7
611.488	35.65
611.68	35.61
611.872	35.82
612.064	35.79
612.256	35.86
612.448	35.7
612.64	35.78
612.832	35.78
613.023	36.13
613.215	35.98
613.407	35.75
613.599	35.55
613.791	35.77
613.983	35.86
614.174	36.13
614.366	36.04
614.558	36.25
614.75	36.21
614.941	36.03
615.133	35.94
615.325	36.03
615.516	36.23
615.708	36.29
615.9	36.28
616.091	36.2
616.283	36.2
616.475	36.28
616.666	36.43
616.858	36.9
617.049	37.13
617.241	37.1
617.432	37.33
617.624	37.53
617.815	37.83
618.007	37.55
618.198	37.91
618.39	37.84
618.581	37.94
618.773	38.14
618.964	38.06
619.155	38.34
619.347	38.23
619.538	38.47
619.729	38.44
619.921	38.18
620.112	38.32
620.303	37.85
620.494	38.01
620.686	38.08
620.877	37.66
621.068	37.65
621.259	37.59
621.451	37.77
621.642	37.45
621.833	37.1
622.024	37.42
622.215	37.5
622.406	37.66
622.597	37.5
622.788	37.62
622.98	37.94
623.171	37.92
623.362	37.9
623.553	38.25
623.744	38.49
623.935	38.71
624.126	38.5
624.317	38.31
624.508	38.61
624.698	38.65
624.889	38.3
625.08	38.5
625.271	38.46
625.462	38.24
625.653	37.94
625.844	37.93
626.034	38.09
626.225	38.2
626.416	38.09
626.607	38.12
626.798	38.28
626.988	38.62
627.179	38.7
627.37	38.55
627.56	38.69
627.751	39
627.942	38.84
628.132	38.74
628.323	39.08
628.514	39.32
628.704	39.23
628.895	39.23
629.085	39.27
629.276	38.97
629.466	39.07
629.657	38.87
629.847	38.59
630.038	38.71
630.228	38.97
630.419	38.81
630.609	38.84
630.8	38.88
630.99	38.61
631.181	38.6
631.371	38.92
631.561	39.22
631.752	39.72
631.942	40.23
632.132	40.16
632.323	40.25
632.513	40.04
632.703	40.22
632.893	40.33
633.084	40.41
633.274	40.42
633.464	40.31
633.654	40.26
633.844	39.93
634.034	39.38
634.225	39.77
634.415	39.45
634.605	39.68
634.795	39.6
634.985	39.68
635.175	39.99
635.365	39.89
635.555	40.01
635.745	39.96
635.935	40.09
636.125	40.47
636.315	40.25
636.505	40.37
636.695	40.06
636.885	39.88
637.075	39.83
637.265	39.81
637.455	39.93
637.644	40.02
637.834	39.95
638.024	39.92
638.214	39.83
638.404	39.82
638.593	39.74
638.783	39.88
638.973	40.23
639.163	40.17
639.352	40.52
639.542	40.48
639.732	40.54
639.921	40.56
640.111	40.77
640.301	40.67
640.49	40.99
640.68	41.06
640.87	41.34
641.059	41.45
641.249	41.44
641.438	41.2
641.628	41.31
641.817	41.1
642.007	41.29
642.196	41.25
642.386	41.49
642.575	41.21
642.764	41.29
642.954	41.13
643.143	41.12
643.333	41.04
643.522	40.75
643.711	40.6
643.901	40.63
644.09	40.51
644.279	40.83
644.469	40.81
644.658	40.56
644.847	40.57
645.036	40.37
645.226	40.29
645.415	40.26
645.604	40.57
645.793	40.79
645.982	40.75
646.171	41.21
646.361	40.81
646.55	40.95
646.739	41.42
646.928	41.71
647.117	41.91
647.306	42.19
647.495	42.41
647.684	42.15
647.873	42.35
648.062	42.57
648.251	41.92
648.44	41.8
648.629	41.48
648.818	41.6
649.007	41.45
649.196	41.47
649.384	41.17
649.573	41.42
649.762	41.59
649.951	41.1
650.14	41.27
650.328	41.68
650.517	42.16
650.706	42.43
650.895	42.62
651.083	42.8
651.272	43.18
651.461	43.06
651.65	43.05
651.838	43.31
652.027	43.44
652.216	42.91
652.404	43.14
652.593	43.17
652.781	43.3
652.97	43.36
653.158	43.15
653.347	43.38
653.535	43.56
653.724	43.37
653.912	43.31
654.101	43.46
654.289	43.74
654.478	43.57
654.666	43.44
654.855	43.32
655.043	42.97
655.231	42.89
655.42	42.77
655.608	42.99
655.796	43.36
655.985	43.36
656.173	43.34
656.361	43.79
656.55	43.5
656.738	43.52
656.926	43.72
657.114	44.07
657.302	44.31
657.491	43.87
657.679	43.71
657.867	43.65
658.055	43.84
658.243	43.96
658.431	43.9
658.619	44.42
658.807	44.49
658.996	44.51
659.184	44.15
659.372	44.01
659.56	44.24
659.748	44.23
659.936	44.34
660.124	43.8
660.311	43.68
660.499	43.8
660.687	43.63
660.875	44
661.063	43.94
661.251	44
661.439	44.37
661.627	44.33
661.814	44.42
662.002	44.35
662.19	44.96
662.378	44.98
662.565	44.87
662.753	44.99
662.941	44.67
663.129	44.46
663.316	44.83
663.504	44.46
663.692	44.56
663.879	44.87
664.067	44.77
664.254	44.64
664.442	45.38
664.63	45.41
664.817	45.25
665.005	44.96
665.192	45.31
665.38	45.03
665.567	45.36
665.755	45.31
665.942	44.94
666.13	44.97
666.317	44.92
666.504	44.51
666.692	44.53
666.879	44.5
667.067	44.81
667.254	44.83
667.441	45.3
667.629	45.17
667.816	45.21
668.003	45.22
668.19	45.19
668.378	45.54
668.565	45.47
668.752	45.38
668.939	45.26
669.127	45.45
669.314	45.42
669.501	44.9
669.688	45.1
669.875	45.11
670.062	45.24
670.249	45.42
670.436	45.43
670.623	45.72
670.81	45.54
670.997	45.92
671.184	45.66
671.371	45.94
671.558	46.13
671.745	45.97
671.932	46.05
672.119	46.33
672.306	46.23
672.493	45.92
672.68	45.69
672.867	46.14
673.054	45.42
673.24	45.35
673.427	44.91
673.614	45.25
673.801	45.43
673.988	45.28
674.174	45.16
674.361	44.99
674.548	45.62
674.734	45.68
674.921	45.65
675.108	46.18
675.294	46.33
675.481	46.12
675.668	46.18
675.854	45.94
676.041	46.1
676.227	46.04
676.414	46.51
676.601	46.15
676.787	45.98
676.974	45.71
677.16	45.78
677.347	46.04
677.533	46.46
677.719	46.24
677.906	46.34
678.092	46.7
678.279	46.82
678.465	46.51
678.651	46.51
678.838	46.93
679.024	46.95
679.21	46.81
679.397	46.74
679.583	46.85
679.769	47.03
679.955	47.18
680.142	46.94
680.328	47.19
680.514	47.13
680.7	47.13
680.886	47.33
681.073	47.65
681.259	47.8
681.445	47.79
681.631	47.86
681.817	47.77
682.003	47.51
682.189	47.18
682.375	47.02
682.561	47.23
682.747	47.16
682.933	46.66
683.119	46.45
683.305	46.49
683.491	46.39
683.677	46.08
683.863	46.01
684.049	46.15
684.235	46.91
684.42	46.78
684.606	46.59
684.792	46.93
684.978	46.71
685.164	46.99
685.349	47.25
685.535	47.2
685.721	46.91
685.907	47.07
686.092	47.21
686.278	46.8
686.464	47.2
686.649	47.5
686.835	47.22
687.021	47.79
687.206	47.56
687.392	47.25
687.577	47.59
687.763	47.94
687.948	47.51
688.134	47.08
688.319	46.87
688.505	46.49
688.69	46.22
688.876	46.23
689.061	45.97
689.247	46.34
689.432	46.55
689.618	46.38
689.803	46.63
689.988	47.09
690.174	47.63
690.359	47.74
690.544	47.96
690.73	48.14
690.915	48.16
691.1	48.35
691.285	47.67
691.471	47.68
691.656	47.76
691.841	47.16
692.026	46.87
692.211	46.57
692.396	46.15
692.582	46.18
692.767	46.33
692.952	45.9
693.137	46.26
693.322	46.2
693.507	46.24
693.692	46.18
693.877	46.78
694.062	47.15
694.247	46.93
694.432	48.22
694.617	47.96
694.802	47.91
694.987	48.3
695.172	47.84
695.357	48.25
695.541	47.91
695.726	47.5
695.911	47.88
696.096	47.73
696.281	48.38
696.466	47.5
696.65	47.34
696.835	47.11
697.02	47.42
697.204	47.28
697.389	47.58
697.574	47.71
697.759	48.24
697.943	47.82
698.128	47.98
698.312	47.8
698.497	48.01
698.682	47.96
698.866	47.88
699.051	47.99
699.235	48.54
699.42	48.59
699.604	49.1
699.789	48.88
699.973	48.62
700.158	48.47
700.342	48.94
700.527	48.87
700.711	49.33
700.895	49.79
701.08	49.56
701.264	48.95
701.448	48.22
701.633	47.74
701.817	48.13
702.001	48.94
702.186	49.09
702.37	48.33
702.554	48.4
702.738	48.52
702.923	48.47
703.107	49.1
703.291	49.67
703.475	50.18
703.659	50.01
703.843	49.25
704.027	49.84
704.212	49.84
704.396	50.3
704.58	51.01
704.764	50.65
704.948	50.31
705.132	49.44
705.316	49.19
705.5	49.47
705.684	50.12
705.868	50.99
706.052	49.67
706.235	49.41
706.419	49.39
706.603	49.69
706.787	49.88
706.971	50.3
707.155	49.89
707.339	49.67
707.522	49.09
707.706	48.89
707.89	48.43
708.074	48.87
708.257	48.83
708.441	48.93
708.625	48.33
708.808	48.33
708.992	48.45
709.176	49.69
709.359	49.62
709.543	49.86
709.727	49.56
709.91	49.73
710.094	49.58
710.277	49.92
710.461	49.66
710.644	50.24
710.828	50.17
711.011	50.08
711.195	49.43
711.378	49.72
711.562	50.49
711.745	50.47
711.928	50.28
712.112	50.52
712.295	50.3
712.478	50.42
712.662	50.13
712.845	50.38
713.028	50.03
713.212	50.18
713.395	50.66
713.578	50.28
713.761	50.01
713.945	50.95
714.128	51.14
714.311	50.69
714.494	50.58
714.677	50.48
714.86	50.3
715.043	50.55
715.227	50.6
715.41	50.23
715.593	50.51
715.776	50.89
715.959	50.34
716.142	50.36
716.325	50.3
716.508	50.47
716.691	50.22
716.874	50.38
717.057	50.08
717.239	50.44
717.422	50.4
717.605	49.82
717.788	49.59
717.971	50.12
718.154	50.02
718.337	51.21
718.519	51.54
718.702	51.87
718.885	51.82
719.068	52.61
719.25	52.94
719.433	53.46
719.616	54.11
719.798	53.99
719.981	53.96
720.164	53.52
720.346	52.9
720.529	52.53
720.712	52.25
720.894	52.53
721.077	52.05
721.259	51.24
721.442	50.78
721.624	50.53
721.807	51.29
721.989	50.5
722.172	50.38
722.354	50.69
722.537	51.17
722.719	51.24
722.901	50.73
723.084	50.5
723.266	50.37
723.448	50.68
723.631	51.1
723.813	51.18
723.995	50.95
724.178	51.46
724.36	52.19
724.542	51.79
724.724	52.31
724.907	52.7
725.089	53.54
725.271	54.31
725.453	53.39
725.635	53.02
725.817	52.8
725.999	53.28
726.181	53.48
726.364	52.43
726.546	51.37
726.728	51.32
726.91	51.17
727.092	50.79
727.274	50.38
727.456	51.18
727.638	51.08
727.819	50.71
728.001	50.99
728.183	50.68
728.365	50.35
728.547	51.34
728.729	51.61
728.911	51.48
729.093	50.79
729.274	50.84
729.456	51.08
729.638	50.59
729.82	51.13
730.001	50.4
730.183	50.54
730.365	50.6
730.546	50.17
730.728	49.35
730.91	50.48
731.091	50.99
731.273	50.53
731.455	50.36
731.636	51.14
731.818	51.35
731.999	51.31
732.181	51.51
732.362	51.84
732.544	52.81
732.725	52.44
732.907	51.45
733.088	52.17
733.27	52.66
733.451	52.48
733.633	52.19
733.814	51.85
733.995	52.15
734.177	52.43
734.358	52.56
734.539	51.98
734.721	52.08
734.902	51.78
735.083	51.05
735.264	51.4
735.446	51.37
735.627	51.17
735.808	51.21
735.989	51.52
736.17	51.3
736.351	51.45
736.533	51.5
736.714	52.78
736.895	53.05
737.076	52.57
737.257	51.94
737.438	51.72
737.619	51.19
737.8	50.9
737.981	50.38
738.162	49.98
738.343	50.74
738.524	50.89
738.705	50.37
738.886	50.16
739.067	51.56
739.247	51.28
739.428	51.6
739.609	52.59
739.79	52.93
739.971	53.09
740.151	53.06
740.332	51.88
740.513	51.99
740.694	51.18
740.874	50.91
741.055	49.45
741.236	49.72
741.417	50
741.597	48.83
741.778	49.23
741.958	49.48
742.139	50.05
742.32	50.2
742.5	49.57
742.681	50.32
742.861	51.05
743.042	51.16
743.222	51.41
743.403	50.98
743.583	52.1
743.764	51.54
743.944	51.69
744.124	51.75
744.305	52.6
744.485	53.32
744.666	52.23
744.846	52.59
745.026	53.25
745.207	52.63
745.387	53.28
745.567	52.56
745.747	53.69
745.928	54.06
746.108	53.92
746.288	54.49
746.468	53.3
746.648	54.76
746.829	53.6
747.009	53.3
747.189	52.66
747.369	52.6
747.549	53.44
747.729	52.26
747.909	51.81
748.089	50.92
748.269	49.77
748.449	51.55
748.629	51.82
748.809	52.53
748.989	52.57
749.169	53.12
749.349	53.21
749.529	53.41
749.709	53.53
749.889	52.95
750.068	54.54
750.248	55.17
750.428	54.03
750.608	53.92
750.788	54.45
750.967	54.29
751.147	54.66
751.327	54.41
751.507	53.96
751.686	54.79
751.866	54.35
752.046	53.14
752.225	52.48
752.405	53.83
752.585	53.83
752.764	53.43
752.944	52.72
753.123	53.37
753.303	52.52
753.482	53.47
753.662	52.06
753.841	52.09
754.021	52.34
754.2	53.46
754.38	52.53
754.559	51.98
754.739	51.99
754.918	52.58
755.097	51.09
755.277	51.94
755.456	51.47
755.635	52.82
755.815	54.33
755.994	54.53
756.173	53.65
756.352	53.4
756.532	53.34
756.711	53.23
756.89	53.27
757.069	53.58
757.248	52.14
757.427	51.71
757.607	51.89
757.786	51.74
757.965	50.52
758.144	50.66
758.323	50.6
758.502	50.83
758.681	50.75
758.86	50.11
759.039	50.97
759.218	51.69
759.397	51.41
759.576	49.96
759.755	49.37
759.934	50.89
760.113	51.47
760.291	52.4
760.47	52.43
760.649	52.41
760.828	52.86
761.007	52.54
761.186	53.11
761.364	52.7
761.543	53.23
761.722	53.25
761.901	52.79
762.079	52.34
762.258	51.85
762.437	52.04
762.615	52.87
762.794	53.79
762.972	53.83
763.151	53.51
763.33	53.89
763.508	54.11
763.687	54.13
763.865	53.43
764.044	53.42
764.222	52.84
764.401	52.75
764.579	52
764.758	51.57
764.936	52.03
765.114	52.71
765.293	53.01
765.471	52.76
765.65	52.95
765.828	53.91
766.006	54.04
766.184	55.51
766.363	55.54
766.541	56.09
766.719	57.14
766.898	57.38
767.076	57.06
767.254	56.96
767.432	56.96
767.61	56.67
767.788	56.68
767.967	56.24
768.145	55.55
768.323	55.03
768.501	54.93
768.679	53.92
768.857	53.07
769.035	54.04
769.213	53.75
769.391	54.03
769.569	53.98
769.747	55.43
769.925	55.65
770.103	55.56
770.281	56.39
770.459	56.16
770.636	56.79
770.814	55.83
770.992	54.57
771.17	54.34
771.348	54.93
771.525	56.47
771.703	55.04
771.881	55.82
772.059	56.35
772.236	54.97
772.414	55.38
772.592	55.38
772.769	57.15
772.947	57.99
773.125	58.59
773.302	58.59
773.48	57.35
773.657	56.46
773.835	54.26
774.013	53.96
774.19	55.05
774.368	55.22
774.545	53.8
774.723	53.02
774.9	51.97
775.077	51.14
775.255	51.17
775.432	52.75
775.61	53.33
775.787	55.01
775.964	53.57
776.142	55.04
776.319	54.51
776.496	55.38
776.674	55.83
776.851	54.86
777.028	56.05
777.205	55.26
777.382	54.68
777.56	54.47
777.737	57.47
777.914	58.97
778.091	56.34
778.268	56.41
778.445	56.17
778.622	54.94
778.8	58.02
778.977	57.88
779.154	65.82
779.331	64.59
779.508	65.38
779.685	62.31
779.862	62.35
780.038	64.28
780.215	64.63
780.392	64.18
780.569	66.56
780.746	64.82
780.923	64.97
781.1	58.67
781.277	59.11
781.453	57.71
781.63	57.86
781.807	59.78
781.984	59.1
782.16	58.36
782.337	57.54
782.514	56.81
782.691	57.52
782.867	57.74
783.044	56.46
783.221	57.02
783.397	59.29
783.574	59.01
783.75	56.31
783.927	56.1
784.103	57.95
784.28	60.39
784.456	60.11
784.633	59.93
784.809	59.06
784.986	58.64
785.162	56.24
785.339	55.05
785.515	55.82
785.692	55
785.868	56.81
786.044	57.6
786.221	57.83
786.397	56.47
786.573	55.34
786.749	54.42
786.926	54.46
787.102	56.54
787.278	56.67
787.454	56.43
787.631	57.46
787.807	56.25
787.983	55.09
788.159	55.08
788.335	55.6
788.511	56.23
788.687	58.05
788.863	58.7
789.039	59.22
789.216	57.95
789.392	58.31
789.568	57.86
789.744	58.9
789.919	57.06
790.095	56.32
790.271	56.52
790.447	54.39
790.623	54.09
790.799	53.28
790.975	52.7
791.151	54.01
791.327	53.13
791.502	53.32
791.678	51.48
791.854	52.21
792.03	52.69
792.205	52.85
792.381	54.34
792.557	56.47
792.733	56.05
792.908	57.82
793.084	58.79
793.259	60.59
793.435	61.38
793.611	62.46
793.786	63.44
793.962	62.27
794.137	62.87
794.313	62.16
794.488	59.79
794.664	59.94
794.839	58.52
795.015	58.74
795.19	55.57
795.366	54.64
795.541	56.64
795.716	55.74
795.892	56.87
796.067	56.47
796.242	58.3
796.418	59.46
796.593	59.91
796.768	58.95
796.944	57.53
797.119	58.6
797.294	60.55
797.469	60.47
797.644	61.66
797.82	60.76
797.995	60.6
798.17	61.07
798.345	60.27
798.52	59.31
798.695	59.1
798.87	59.2
799.045	62.54
799.22	61.93
799.395	61.46
799.57	61.98
799.745	61.17
799.92	62.45
800.095	63.14
800.27	61.14
800.445	61.5
800.62	61.79
800.795	62.86
800.97	61.28
801.145	60.43
801.319	58.59
801.494	58.43
801.669	60.41
801.844	59.16
802.018	58.11
802.193	59.58
802.368	59.83
802.543	60.23
802.717	60.45
802.892	59.47
803.067	59.51
803.241	59.4
803.416	59.49
803.59	57.72
803.765	57.39
803.94	57.72
804.114	56.29
804.289	58.43
804.463	58.27
804.638	56.58
804.812	56.11
804.986	55.28
805.161	55.85
805.335	55.83
805.51	55.71
805.684	55.4
805.858	56.22
806.033	57.74
806.207	56.55
806.381	56.28
806.556	58.32
806.73	60.65
806.904	60.78
807.078	61.18
807.253	61.59
807.427	63.35
807.601	63.57
807.775	64.51
807.949	62.75
808.123	62.86
808.298	64
808.472	63.84
808.646	60.26
808.82	59.74
808.994	57.96
809.168	58.76
809.342	58.12
809.516	58.8
809.69	58.21
809.864	61.65
810.038	66.67
810.212	66.42
810.385	68.26
810.559	69.31
810.733	70.56
810.907	70.84
811.081	68.35
811.255	69.23
811.428	70.49
811.602	68.78
811.776	69.6
811.95	64.78
812.123	64.93
812.297	62.32
812.471	63.92
812.644	64.54
812.818	66.3
812.992	65.95
813.165	65.09
813.339	64.21
813.512	63.52
813.686	60.14
813.86	61.3
814.033	60.94
814.207	61.14
814.38	63.16
814.554	63.09
814.727	62.49
814.9	63.25
815.074	64.06
815.247	65.54
815.421	62.87
815.594	65.99
815.767	64.37
815.941	65.14
816.114	67.08
816.287	66.73
816.46	64.93
816.634	63.69
816.807	66.73
816.98	65.35
817.153	64.87
817.327	65.96
817.5	66.9
817.673	67.29
817.846	69.17
818.019	66.42
818.192	65.72
818.365	70.17
818.538	74.75
818.711	68.15
818.884	71.49
819.057	72.85
819.23	73.38
819.403	69.75
819.576	69.03
819.749	66.45
819.922	63.68
820.095	61.79
820.268	59.53
820.441	56.24
820.614	59.49
820.786	56.09
820.959	53.34
821.132	52.68
821.305	53.16
821.477	53.51
821.65	53.12
821.823	53.4
821.996	53.84
822.168	53.75
822.341	53.67
822.514	52.98
822.686	53.31
822.859	53.17
823.031	53.17
823.204	52.89
823.376	52.3
823.549	52.39
823.722	52.75
823.894	53.21
824.067	52.79
824.239	52.51
824.411	52.62
824.584	53.13
824.756	53.26
824.929	53.44
825.101	53.58
825.273	54.02
825.446	53.91
825.618	53.63
825.79	53.46
825.963	54.07
826.135	54.13
826.307	54.14
826.479	53.53
826.652	53.62
826.824	53.93
826.996	53.61
827.168	53.39
827.34	54.24
827.512	54.41
827.684	53.41
827.856	53.86
828.029	53.85
828.201	53.4
828.373	53.28
828.545	54.67
828.717	55.38
828.889	55.96
829.061	57.04
829.232	57.32
829.404	57.44
829.576	58.03
829.748	57.53
829.92	59.26
830.092	60.65
830.264	61.73
830.436	60.69
830.607	59.67
830.779	59.58
830.951	59.7
831.123	58.99
831.294	59.75
831.466	61.49
831.638	61.26
831.809	61.05
831.981	60.69
832.153	59.72
832.324	58.26
832.496	56.55
832.667	58.61
832.839	59
833.011	59.65
833.182	59.99
833.354	59.21
833.525	62.87
833.697	61.56
833.868	60.68
834.039	62.03
834.211	61.09
834.382	61.88
834.554	61.04
834.725	60.74
834.896	58.8
835.068	57.5
835.239	56.83
835.41	56.37
835.581	58.07
835.753	57.84
835.924	57.33
836.095	57.83
836.266	58.2
836.438	57.05
836.609	55.95
836.78	57.28
836.951	59.58
837.122	59.93
837.293	59.45
837.464	59.7
837.635	62.25
837.806	62.5
837.977	62.41
838.148	64.86
838.319	65.22
838.49	66.31
838.661	64.15
838.832	62.81
839.003	62.48
839.174	63.82
839.345	61.54
839.516	60.9
839.687	62.57
839.857	65.41
840.028	64.05
840.199	65.49
840.37	65.55
840.54	70.96
840.711	72.23
840.882	72.28
841.053	66.9
841.223	64.78
841.394	63.79
841.564	62.57
841.735	64.52
841.906	63.56
842.076	63.67
842.247	63.98
842.417	63.16
842.588	60.21
842.758	63.17
842.929	64.21
843.099	65.24
843.27	66.49
843.44	69.85
843.611	69.2
843.781	68.9
843.951	69.89
844.122	68.26
844.292	66.48
844.462	68.8
844.633	66.64
844.803	71.17
844.973	74.16
845.144	70.39
845.314	66.74
845.484	63.12
845.654	65.05
845.824	67.13
845.995	68.84
846.165	71.2
846.335	74.67
846.505	84.59
846.675	79.49
846.845	75.01
847.015	79.54
847.185	91.29
847.355	94.8
847.525	88.85
847.695	90.97
847.865	92.16
848.035	86.33
848.205	83.08
848.375	79.15
848.545	74.72
848.715	76.46
848.884	82.93
849.054	75.39
849.224	79.8
849.394	91.88
849.564	88.79
849.733	84.18
849.903	75.45
850.073	70.7
850.243	67.4
850.412	77.04
850.582	77.02
850.752	74.36
850.921	75.16
851.091	80.3
851.26	74.09
851.43	73.74
851.599	73.23
851.769	81.68
851.939	89.3
852.108	93.03
852.278	87.71
852.447	91.65
852.616	93.02
852.786	86.08
852.955	79.97
853.125	78.2
853.294	81.79
853.463	83.79
853.633	80.11
853.802	84.13
853.971	88.38
854.141	87.65
854.31	87.29
854.479	89.45
854.648	95.59
854.818	94.52
854.987	96.91
855.156	98.85
855.325	102.5
855.494	109
855.663	100.57
855.832	90.92
856.001	94.54
856.171	88.45
856.34	90.98
856.509	91.99
856.678	100.28
856.847	100.67
857.016	88.04
857.185	91.6
857.353	100.62
857.522	105.62
857.691	104.09
857.86	110.15
858.029	124.38
858.198	131.32
858.367	121.42
858.535	116.84
858.704	120.72
858.873	144.63
859.042	130.09
859.21	125.58
859.379	120.65
859.548	125.08
859.717	117.6
859.885	119.49
860.054	109.56
860.222	107.45
860.391	102.16
860.56	100.96
860.728	92.13
860.897	94.34
861.065	84.74
861.234	83.81
861.402	88.39
861.571	89.19
861.739	84.12
861.908	87.43
862.076	104.48
862.244	106.7
862.413	101.93
862.581	107.47
862.749	122.27
862.918	137.82
863.086	121.49
863.254	103.18
863.423	104
863.591	97.61
863.759	86.59
863.927	75.8
864.096	83.31
864.264	84.84
864.432	82.47
864.6	80.6
864.768	82.03
864.936	84.2
865.104	87.85
865.272	86.91
865.44	98
865.608	94.35
865.776	106.15
865.944	96.02
866.112	99.37
866.28	115.56
866.448	117.09
866.616	105.3
866.784	114.48
866.952	116.37
867.12	116.94
867.288	108.49
867.455	119.47
867.623	118.91
867.791	131.53
867.959	127.1
868.127	115.73
868.294	115.76
868.462	106.16
868.63	90.42
868.797	88.22
868.965	85.1
869.133	93.38
869.3	92.55
869.468	86.92
869.636	86.89
869.803	84.18
869.971	86.8
870.138	89.8
870.306	89.34
870.473	89.76
870.641	91.13
870.808	92.29
870.975	78.66
871.143	80.77
871.31	81.28
871.478	81.77
871.645	85.58
871.812	82.69
871.98	80.94
872.147	88.2
872.314	94.59
872.482	88.05
872.649	86.54
872.816	94.54
872.983	89.32
873.15	99.35
873.318	107.86
873.485	111.62
873.652	118.82
873.819	126.98
873.986	112.66
874.153	107.89
874.32	109.02
874.487	109.88
874.654	102.5
874.821	101.97
874.988	94.39
875.155	87.69
875.322	86.85
875.489	86.99
875.656	80.91
875.823	99.13
875.99	100.17
876.157	100.89
876.324	100.83
876.49	110.9
876.657	116.59
876.824	102.75
876.991	97.09
877.157	102.97
877.324	100.52
877.491	103.96
877.658	101.45
877.824	104.1
877.991	109.74
878.157	111.15
878.324	117.36
878.491	116.78
878.657	120.55
878.824	109.43
878.99	95.83
879.157	97.07
879.323	91.96
879.49	82.99
879.656	84.36
879.823	84.93
879.989	92.98
880.156	89.56
880.322	86.79
880.488	89.53
880.655	96.34
880.821	103.12
880.987	94.79
881.154	95.32
881.32	104.72
881.486	99.4
881.652	95.52
881.819	88.74
881.985	86.59
882.151	80.59
882.317	75.04
882.483	73.27
882.649	70.46
882.816	67.26
882.982	63.14
883.148	61.52
883.314	60.23
883.48	59.19
883.646	57.19
883.812	55.24
883.978	56.19
884.144	57.63
884.31	55.51
884.476	54.66
884.642	55.72
884.807	59.58
884.973	58.61
885.139	59.9
885.305	60.7
885.471	61.68
885.637	63.3
885.802	61.98
885.968	62.62
886.134	65.34
886.3	67.47
886.465	69.83
886.631	68.67
886.797	72.62
886.962	75.34
887.128	78.34
887.293	78.62
887.459	77.95
887.625	80.63
887.79	79.24
887.956	85.19
888.121	85.91
888.287	83.47
888.452	83.79
888.618	82.07
888.783	71.3
