Data from LC_154_Reflection_2.txt Node
Date: Mon Nov 16 22:14:57 EST 2015
User: robert
Spectrometer: USB4E03001
Autoset integration time: false
Trigger mode: 4
Integration Time (sec): 1.000000E-1
Scans to average: 15
Electric dark correction enabled: true
Nonlinearity correction enabled: false
Boxcar width: 5
Stray light correction enabled: false
XAxis mode: Wavelengths
Stop averaging: false
Number of Pixels in Spectrum: 3648
>>>>>Begin Spectral Data<<<<<
177.566	-879.52
177.785	-44.35
178.005	1447.9
178.225	-70.24
178.445	-93.99
178.665	176.37
178.885	75.07
179.105	40.19
179.324	-111.68
179.544	-0.39
179.764	0.73
179.984	129.74
180.204	121.18
180.423	148.71
180.643	95.78
180.863	60.19
181.083	44.71
181.302	15.63
181.522	-26.1
181.742	-26.29
181.961	-102.9
182.181	-108.73
182.401	-77.44
182.621	-527.85
182.84	-222.58
183.06	-62.21
183.279	-37.89
183.499	-25.66
183.719	-14.56
183.938	40.23
184.158	16.34
184.377	17.17
184.597	4.62
184.816	6.58
185.036	45.61
185.256	38.19
185.475	18.23
185.695	-2.16
185.914	3.95
186.134	41.3
186.353	-63.64
186.572	-34.05
186.792	133.33
187.011	84.25
187.231	54.48
187.45	40.27
187.67	-19.54
187.889	-212.25
188.108	407.59
188.328	-97.02
188.547	-27.16
188.766	-12.6
188.986	-12.73
189.205	-68.89
189.424	-23.47
189.644	-331.87
189.863	-382.69
190.082	-99.28
190.302	-199.24
190.521	21.79
190.74	177.79
190.959	114.85
191.178	140.09
191.398	102.74
191.617	-38.52
191.836	-25.1
192.055	-478.75
192.274	-55.13
192.494	28.77
192.713	-42.68
192.932	-184.06
193.151	-324.22
193.37	-773.36
193.589	380.56
193.808	153.34
194.027	37.9
194.246	-496.09
194.465	267.87
194.685	507.99
194.904	100.11
195.123	-89.83
195.342	-22.48
195.561	-19.29
195.78	-141.11
195.999	6566.2
196.218	208.92
196.436	123.23
196.655	-37.31
196.874	81.53
197.093	220.97
197.312	127.63
197.531	414.26
197.75	105.99
197.969	-210.87
198.188	162.16
198.407	55.29
198.625	13.8
198.844	43.5
199.063	52.99
199.282	37.17
199.501	7.87
199.719	1.66
199.938	37.38
200.157	8.47
200.376	-18.25
200.594	-40.77
200.813	-81.09
201.032	-48.19
201.251	-67.67
201.469	-45.74
201.688	-11.6
201.907	-50.54
202.125	-89.93
202.344	3754.76
202.563	1207.8
202.781	249.81
203	716.83
203.218	511.04
203.437	416.69
203.656	271.5
203.874	180.07
204.093	178.33
204.311	208.02
204.53	199.48
204.748	309.06
204.967	140.25
205.185	52.28
205.404	118.62
205.622	90.69
205.841	83.44
206.059	78.94
206.278	44.53
206.496	136.42
206.715	98.59
206.933	56.43
207.151	7.58
207.37	36.39
207.588	89.87
207.806	67.88
208.025	196.99
208.243	-207.14
208.461	174.14
208.68	-4307.06
208.898	196.5
209.116	181.34
209.335	257.3
209.553	292.76
209.771	2755
209.989	404.08
210.208	619.39
210.426	223.55
210.644	223.01
210.862	-172.27
211.081	101.15
211.299	152.38
211.517	-408.33
211.735	123.57
211.953	8800
212.171	890.36
212.39	2768.47
212.608	6708.7
212.826	-17.43
213.044	-51.6
213.262	41.71
213.48	-151.9
213.698	59.88
213.916	110.31
214.134	38.23
214.352	62.9
214.57	81.23
214.788	149.97
215.006	189.21
215.224	155.77
215.442	122.28
215.66	103.58
215.878	110.3
216.096	112.1
216.314	79.7
216.532	186.99
216.75	153.15
216.968	150.53
217.185	272.44
217.403	485.52
217.621	-1467.85
217.839	-284.98
218.057	-271.6
218.275	246.95
218.492	113.69
218.71	161.2
218.928	46.22
219.146	74.4
219.363	101.79
219.581	77.69
219.799	62.1
220.017	54.23
220.234	54.12
220.452	60.4
220.67	64.61
220.887	58
221.105	58.06
221.323	35.38
221.54	19.99
221.758	-17.19
221.976	6.5
222.193	-17.34
222.411	-22.88
222.629	35.81
222.846	47.01
223.064	47.53
223.281	40.92
223.499	43.28
223.716	50.54
223.934	36.33
224.151	25.07
224.369	8.82
224.586	2.64
224.804	9.76
225.021	-18.94
225.239	-17.22
225.456	-2.67
225.674	-2.87
225.891	-0.98
226.108	2.53
226.326	10.27
226.543	24.3
226.76	22.33
226.978	22.43
227.195	32.39
227.413	32.14
227.63	23.97
227.847	22.03
228.064	20.74
228.282	22.66
228.499	22.59
228.716	17.82
228.934	12.61
229.151	14.31
229.368	13.05
229.585	8.93
229.802	7.79
230.02	8.43
230.237	10.44
230.454	12.23
230.671	11.36
230.888	8.97
231.105	12.17
231.323	14.81
231.54	13.58
231.757	14.56
231.974	14.39
232.191	13.74
232.408	18.45
232.625	12.25
232.842	10.99
233.059	14.19
233.276	14.98
233.493	15.59
233.71	17.48
233.927	22.46
234.144	23.64
234.361	20.99
234.578	22.38
234.795	17.86
235.012	19.17
235.229	17.21
235.446	15.07
235.663	16.65
235.879	16.87
236.096	16.76
236.313	13.01
236.53	13.32
236.747	18.53
236.964	18.16
237.181	18.26
237.397	18.43
237.614	19.59
237.831	13.62
238.048	14.74
238.264	14.9
238.481	10.69
238.698	11.87
238.915	8.86
239.131	10.83
239.348	8.88
239.565	9.14
239.781	10
239.998	10.25
240.215	14.12
240.431	13.25
240.648	11.59
240.865	12.83
241.081	10.8
241.298	13.61
241.514	12.02
241.731	11.73
241.947	14.59
242.164	14.44
242.38	12.87
242.597	11.93
242.814	13.04
243.03	12.85
243.246	12.96
243.463	14.86
243.679	13.8
243.896	12.83
244.112	15.79
244.329	12.87
244.545	11.56
244.762	11.53
244.978	13.56
245.194	10.93
245.411	11.52
245.627	13.04
245.843	11.57
246.06	12.1
246.276	13.96
246.492	11.39
246.709	12.02
246.925	13.2
247.141	13.58
247.357	12.72
247.574	12.79
247.79	12.53
248.006	11.05
248.222	10.62
248.439	10.48
248.655	10.09
248.871	10.27
249.087	10.3
249.303	8.14
249.519	8.33
249.736	9.11
249.952	8.38
250.168	9.38
250.384	11.93
250.6	13.24
250.816	14.34
251.032	12.62
251.248	13.75
251.464	12.62
251.68	13.25
251.896	12.54
252.112	11.21
252.328	11.36
252.544	11.04
252.76	10.93
252.976	10.84
253.192	9.22
253.408	8.5
253.624	10.79
253.84	10.14
254.056	12.62
254.272	11.56
254.487	11.7
254.703	11.38
254.919	10.39
255.135	7.97
255.351	10.15
255.567	14.05
255.782	15.46
255.998	12.57
256.214	14.53
256.43	10.16
256.646	12.58
256.861	13.65
257.077	14.39
257.293	11.81
257.508	11.27
257.724	11.42
257.94	9.57
258.155	9.5
258.371	6.96
258.587	6.46
258.802	7.46
259.018	8.58
259.234	7.58
259.449	8.17
259.665	8.43
259.88	9.6
260.096	9.14
260.312	8.34
260.527	8.75
260.743	9.93
260.958	10.37
261.174	10.19
261.389	9.63
261.605	10.04
261.82	10.03
262.036	10.62
262.251	10.62
262.466	9.68
262.682	10.85
262.897	9.54
263.113	9.14
263.328	8.39
263.543	9.38
263.759	8.87
263.974	9.78
264.189	9.67
264.405	10.42
264.62	9.8
264.835	10.79
265.051	10.98
265.266	13.01
265.481	13.95
265.696	15.57
265.912	14.74
266.127	14.43
266.342	12.17
266.557	11.07
266.773	10.77
266.988	9.99
267.203	10.95
267.418	9.36
267.633	8.61
267.848	7.37
268.064	4.97
268.279	5.96
268.494	6.32
268.709	6.52
268.924	7.91
269.139	6.8
269.354	6.88
269.569	5.39
269.784	6.09
269.999	6.44
270.214	6.85
270.429	8.56
270.644	8.5
270.859	7.66
271.074	8.02
271.289	6.41
271.504	7.14
271.719	7.41
271.934	7.07
272.149	7.4
272.363	7.78
272.578	7.1
272.793	6.85
273.008	5.88
273.223	5.45
273.438	5.44
273.653	7.12
273.867	6.78
274.082	6.09
274.297	6.58
274.512	5.91
274.726	5.21
274.941	6.1
275.156	6.31
275.371	7.31
275.585	9.02
275.8	10.33
276.015	8.7
276.229	8.56
276.444	9.19
276.659	9.31
276.873	9.15
277.088	8.58
277.302	7.9
277.517	8.07
277.732	9.34
277.946	8.98
278.161	8.6
278.375	8.28
278.59	9.15
278.804	8.78
279.019	9.35
279.233	9.48
279.448	10.18
279.662	10.51
279.877	10.43
280.091	8.08
280.306	6.5
280.52	6.64
280.735	6.47
280.949	6.33
281.163	6.49
281.378	5.32
281.592	5.55
281.806	5.78
282.021	4.77
282.235	5.82
282.449	6.66
282.664	8.29
282.878	7.99
283.092	9.32
283.307	9.03
283.521	9.14
283.735	9.78
283.949	11.24
284.164	11.13
284.378	12.04
284.592	10.11
284.806	9.63
285.02	8.41
285.234	8.09
285.449	7.04
285.663	7.17
285.877	7.38
286.091	6.75
286.305	5.67
286.519	4.65
286.733	3.99
286.947	4.05
287.161	4.13
287.375	5.22
287.589	5.57
287.803	5.86
288.017	5.42
288.231	4.51
288.445	4.87
288.659	6.2
288.873	6.99
289.087	7.93
289.301	8.98
289.515	8.84
289.729	8.13
289.943	8.61
290.157	8.6
290.371	10.66
290.584	10.93
290.798	11.89
291.012	11.74
291.226	11.43
291.44	11.95
291.654	11.57
291.867	11.98
292.081	11.15
292.295	11.29
292.509	11.48
292.722	10.06
292.936	10.21
293.15	10.94
293.364	9.69
293.577	10.92
293.791	9.31
294.005	10.94
294.218	11.79
294.432	13.28
294.645	12.73
294.859	12.33
295.073	11.56
295.286	12.35
295.5	10.99
295.713	11.48
295.927	11.16
296.14	12.13
296.354	11.3
296.568	9.76
296.781	9.5
296.994	9.82
297.208	10.33
297.421	11.07
297.635	10.37
297.848	10.6
298.062	10.42
298.275	11.16
298.489	10.65
298.702	10.72
298.915	11.77
299.129	11.79
299.342	11.12
299.555	11.19
299.769	11.31
299.982	11.69
300.195	11.83
300.409	12.08
300.622	11.63
300.835	12.6
301.048	12.28
301.262	12.05
301.475	11.86
301.688	12.98
301.901	13.09
302.115	12.69
302.328	13.03
302.541	12.44
302.754	12.93
302.967	12.22
303.18	12.16
303.393	11.91
303.607	11.65
303.82	12.43
304.033	11.46
304.246	11.71
304.459	11.88
304.672	11.81
304.885	12.85
305.098	12.19
305.311	12.44
305.524	13.31
305.737	13.78
305.95	14.34
306.163	12.92
306.376	13.75
306.589	14.01
306.802	12.89
307.015	13.16
307.228	13.45
307.44	13.76
307.653	13.13
307.866	11.59
308.079	13.83
308.292	14.05
308.505	15.15
308.718	14.85
308.93	13.91
309.143	14.74
309.356	14.38
309.569	13.34
309.781	13.29
309.994	13.14
310.207	12.89
310.42	10.49
310.632	9.52
310.845	10.12
311.058	9.74
311.27	10.39
311.483	11.03
311.696	10.39
311.908	10.37
312.121	11.05
312.333	12.12
312.546	12.41
312.759	12.6
312.971	12.83
313.184	12.31
313.396	12.66
313.609	12.73
313.821	11.61
314.034	12.96
314.246	13.76
314.459	12.56
314.671	11.29
314.884	10.17
315.096	9.74
315.309	10.42
315.521	10.76
315.733	8.86
315.946	7.32
316.158	7.66
316.371	7.21
316.583	6.76
316.795	7.34
317.008	8.1
317.22	10.04
317.432	11.22
317.644	11.29
317.857	9.81
318.069	11.56
318.281	12.68
318.494	12.82
318.706	13.28
318.918	12.85
319.13	14.01
319.342	14.34
319.555	13.38
319.767	14.54
319.979	14.11
320.191	15.14
320.403	15.35
320.615	15.52
320.827	15.51
321.039	14.86
321.252	14.8
321.464	12.9
321.676	12.74
321.888	13.51
322.1	12.86
322.312	12.59
322.524	11.54
322.736	11.77
322.948	10.96
323.16	10.62
323.372	10.82
323.584	10.01
323.796	9.28
324.007	8.84
324.219	8.33
324.431	7.41
324.643	7.63
324.855	7.92
325.067	7.9
325.279	8.17
325.491	8.19
325.702	7.2
325.914	7.94
326.126	9.73
326.338	10.7
326.55	11.29
326.761	12.06
326.973	12.31
327.185	12.8
327.396	13.25
327.608	13.18
327.82	13.42
328.032	13.95
328.243	13.85
328.455	14.5
328.666	13.46
328.878	13.07
329.09	13.08
329.301	12.74
329.513	12.46
329.725	11.8
329.936	11.18
330.148	10.92
330.359	11.46
330.571	12.08
330.782	10.19
330.994	12.28
331.205	12.91
331.417	13.34
331.628	13.37
331.84	13.65
332.051	13.69
332.262	15.95
332.474	15.13
332.685	16.12
332.897	15.75
333.108	16.34
333.319	13.95
333.531	13.07
333.742	13.88
333.953	12.94
334.165	12.73
334.376	12.47
334.587	11.41
334.799	13.4
335.01	12.59
335.221	12.63
335.432	11.93
335.644	11.98
335.855	12.83
336.066	12.14
336.277	13.89
336.488	14.5
336.7	13.77
336.911	13.91
337.122	12.58
337.333	12.8
337.544	13.77
337.755	14.85
337.966	15.41
338.177	14.57
338.388	14.56
338.599	14.47
338.811	14.09
339.022	14.83
339.233	15.1
339.444	16.4
339.655	14.84
339.866	14.02
340.076	14.88
340.287	14.93
340.498	15.43
340.709	14.97
340.92	14.43
341.131	13.75
341.342	13.59
341.553	12.74
341.764	11.71
341.975	12.93
342.185	12.97
342.396	11.72
342.607	12.2
342.818	12.27
343.029	11.83
343.239	11.7
343.45	12.45
343.661	12.63
343.872	12.79
344.082	12.93
344.293	13.14
344.504	13.41
344.714	12.9
344.925	11.68
345.136	11.82
345.346	12.21
345.557	13.03
345.768	12.87
345.978	12.45
346.189	12.68
346.399	12.3
346.61	12.58
346.821	11.95
347.031	13
347.242	13.16
347.452	12.74
347.663	12.81
347.873	12.37
348.084	12.51
348.294	13.01
348.504	12.91
348.715	13.03
348.925	11.95
349.136	11.98
349.346	10.72
349.557	11.06
349.767	11.45
349.977	11.01
350.188	11.64
350.398	12.01
350.608	11.86
350.819	11.58
351.029	11.63
351.239	12.01
351.449	12.06
351.66	13.31
351.87	14.28
352.08	14.01
352.29	14.51
352.501	13.69
352.711	13.34
352.921	13.25
353.131	13.35
353.341	13.48
353.552	13.12
353.762	12.77
353.972	11.74
354.182	11.09
354.392	10.79
354.602	10.61
354.812	10.75
355.022	10.36
355.232	10.85
355.442	10.89
355.652	10.74
355.862	10.42
356.072	10.64
356.282	10.84
356.492	11.13
356.702	11.21
356.912	11.35
357.122	11.15
357.332	11.34
357.542	10.68
357.752	10.57
357.962	10.44
358.171	10.64
358.381	10.77
358.591	10.57
358.801	9.9
359.011	10.54
359.221	10.52
359.43	10.58
359.64	10.84
359.85	11.39
360.06	11.79
360.269	12.19
360.479	11.81
360.689	11.97
360.899	12.14
361.108	12.51
361.318	12.01
361.528	11.86
361.737	11.5
361.947	11.05
362.156	10.89
362.366	10.57
362.576	10.31
362.785	10.49
362.995	10.17
363.204	10.02
363.414	10.21
363.623	9.96
363.833	10.44
364.042	10.56
364.252	11.07
364.461	10.65
364.671	10.62
364.88	11.14
365.09	11.87
365.299	11.58
365.509	11.29
365.718	10.65
365.927	10.92
366.137	10.28
366.346	10.21
366.555	9.83
366.765	9.6
366.974	10.21
367.183	10.05
367.393	9.02
367.602	9.28
367.811	9.86
368.021	9.7
368.23	9.86
368.439	9.6
368.648	9.56
368.857	9.71
369.067	10.66
369.276	9.65
369.485	9.74
369.694	10.35
369.903	11.14
370.112	10.95
370.321	11.01
370.531	10.53
370.74	10.76
370.949	10.41
371.158	10.32
371.367	9.94
371.576	10.24
371.785	9.76
371.994	9.72
372.203	9.32
372.412	8.97
372.621	9.69
372.83	10.03
373.039	10.44
373.248	10.69
373.457	11.1
373.666	10.77
373.874	10.5
374.083	11.15
374.292	10.97
374.501	10.83
374.71	10.99
374.919	10.11
375.128	10
375.336	9.56
375.545	9.7
375.754	8.77
375.963	9.01
376.171	9.11
376.38	8.59
376.589	8.92
376.798	8.43
377.006	8.91
377.215	9.22
377.424	9.25
377.632	9.14
377.841	9.35
378.05	9.52
378.258	9.36
378.467	9.55
378.675	9.71
378.884	9.67
379.093	9.74
379.301	9.23
379.51	9.27
379.718	8.92
379.927	8.98
380.135	8.27
380.344	8.29
380.552	8.29
380.761	8.15
380.969	8.11
381.177	7.67
381.386	7.87
381.594	7.84
381.803	7.57
382.011	7.66
382.219	7.36
382.428	7.06
382.636	7.05
382.845	7.22
383.053	7.14
383.261	6.68
383.469	7.13
383.678	7.11
383.886	7.04
384.094	6.91
384.302	7.21
384.511	7.45
384.719	8.06
384.927	8.07
385.135	8
385.343	8.32
385.552	8.44
385.76	8.21
385.968	8.01
386.176	7.66
386.384	7.79
386.592	7.47
386.8	7.41
387.008	7.37
387.216	7.51
387.424	7.33
387.633	7.04
387.841	7.24
388.049	7.17
388.257	7.14
388.465	7.3
388.672	7.44
388.88	7.25
389.088	7.6
389.296	7.52
389.504	7.22
389.712	7.39
389.92	7.53
390.128	7.27
390.336	7.5
390.544	7.97
390.751	7.72
390.959	7.55
391.167	7.74
391.375	7.47
391.583	7.57
391.79	7.62
391.998	7.35
392.206	7.32
392.414	7.21
392.621	6.92
392.829	6.49
393.037	6.67
393.244	6.75
393.452	6.63
393.66	6.71
393.867	6.78
394.075	6.61
394.283	6.84
394.49	6.71
394.698	6.84
394.905	6.75
395.113	6.73
395.32	7.01
395.528	6.85
395.735	7.04
395.943	6.8
396.15	6.63
396.358	6.79
396.565	6.59
396.773	6.79
396.98	6.84
397.188	6.83
397.395	7.14
397.602	6.92
397.81	7.01
398.017	7.16
398.225	7.09
398.432	7.25
398.639	7.34
398.847	7.33
399.054	6.99
399.261	6.92
399.468	7.2
399.676	6.84
399.883	6.81
400.09	6.95
400.297	6.74
400.505	6.85
400.712	6.57
400.919	6.61
401.126	6.7
401.333	6.95
401.54	7.13
401.748	7.03
401.955	7.25
402.162	7.37
402.369	7.31
402.576	7.28
402.783	7.31
402.99	7.64
403.197	7.41
403.404	7.37
403.611	7.3
403.818	7.11
404.025	7.07
404.232	6.92
404.439	6.8
404.646	6.52
404.853	6.32
405.06	6.38
405.267	6.2
405.474	6.26
405.681	6.17
405.887	6.13
406.094	6.04
406.301	6.13
406.508	6.18
406.715	6.3
406.922	6.44
407.128	6.63
407.335	6.66
407.542	6.76
407.749	6.91
407.955	7.06
408.162	6.88
408.369	7.08
408.575	6.9
408.782	6.78
408.989	6.63
409.195	6.68
409.402	6.57
409.609	6.55
409.815	6.4
410.022	6.23
410.228	6.12
410.435	6.4
410.642	6.21
410.848	6.54
411.055	6.56
411.261	6.68
411.468	6.7
411.674	6.65
411.881	6.57
412.087	6.75
412.294	6.58
412.5	6.53
412.706	6.47
412.913	6.43
413.119	6.27
413.326	6.11
413.532	6.11
413.738	6
413.945	6.02
414.151	5.84
414.357	5.64
414.564	5.81
414.77	5.82
414.976	5.75
415.182	5.94
415.389	5.88
415.595	5.87
415.801	5.79
416.007	5.93
416.214	5.97
416.42	6.09
416.626	5.96
416.832	5.98
417.038	5.96
417.244	6.1
417.45	5.84
417.657	5.86
417.863	6.18
418.069	6.34
418.275	6.34
418.481	6.28
418.687	6.27
418.893	6.36
419.099	6.29
419.305	6.42
419.511	6.22
419.717	6.28
419.923	6.17
420.129	5.99
420.335	5.92
420.541	5.95
420.746	5.98
420.952	5.98
421.158	6.03
421.364	6.02
421.57	6
421.776	6.05
421.982	6.07
422.187	5.92
422.393	5.99
422.599	5.82
422.805	5.85
423.01	5.87
423.216	5.76
423.422	5.73
423.628	5.83
423.833	5.77
424.039	5.92
424.245	5.93
424.45	6.16
424.656	6.19
424.862	6.27
425.067	6.22
425.273	6.17
425.478	6.3
425.684	6.22
425.889	6.24
426.095	6.3
426.301	6.04
426.506	6.09
426.712	6.12
426.917	5.91
427.123	5.95
427.328	5.76
427.533	5.86
427.739	5.9
427.944	5.95
428.15	5.81
428.355	5.75
428.561	5.8
428.766	5.75
428.971	5.58
429.177	5.78
429.382	5.93
429.587	6.05
429.793	5.98
429.998	5.88
430.203	5.97
430.408	5.94
430.614	6.09
430.819	6.11
431.024	6.21
431.229	6.16
431.434	6.14
431.64	5.99
431.845	6.06
432.05	6.08
432.255	6.07
432.46	5.86
432.665	5.83
432.87	5.73
433.076	5.79
433.281	5.82
433.486	5.8
433.691	5.62
433.896	5.51
434.101	5.44
434.306	5.42
434.511	5.45
434.716	5.62
434.921	5.57
435.126	5.59
435.331	5.4
435.535	5.29
435.74	5.37
435.945	5.56
436.15	5.64
436.355	5.78
436.56	5.9
436.765	5.86
436.97	5.67
437.174	5.71
437.379	5.65
437.584	5.81
437.789	5.7
437.993	5.69
438.198	5.77
438.403	5.88
438.608	5.93
438.812	5.75
439.017	5.81
439.222	5.91
439.426	5.99
439.631	6.01
439.836	6.07
440.04	6.27
440.245	6.29
440.45	6.18
440.654	6.11
440.859	6.02
441.063	6.03
441.268	5.86
441.472	5.88
441.677	5.84
441.881	5.8
442.086	5.75
442.29	5.6
442.495	5.61
442.699	5.65
442.904	5.61
443.108	5.51
443.312	5.58
443.517	5.64
443.721	5.55
443.925	5.56
444.13	5.59
444.334	5.47
444.538	5.45
444.743	5.33
444.947	5.35
445.151	5.38
445.356	5.35
445.56	5.32
445.764	5.36
445.968	5.43
446.173	5.41
446.377	5.36
446.581	5.45
446.785	5.52
446.989	5.56
447.193	5.55
447.398	5.56
447.602	5.65
447.806	5.76
448.01	5.94
448.214	5.94
448.418	6
448.622	6.13
448.826	6.23
449.03	6.28
449.234	6.32
449.438	6.43
449.642	6.45
449.846	6.41
450.05	6.24
450.254	6.03
450.458	6.27
450.662	6.09
450.866	5.96
451.069	5.81
451.273	5.67
451.477	5.56
451.681	5.38
451.885	5.32
452.089	5.42
452.292	5.5
452.496	5.47
452.7	5.31
452.904	5.47
453.107	5.49
453.311	5.5
453.515	5.57
453.719	5.58
453.922	5.6
454.126	5.58
454.33	5.62
454.533	5.56
454.737	5.6
454.94	5.55
455.144	5.59
455.348	5.56
455.551	5.54
455.755	5.49
455.958	5.53
456.162	5.49
456.365	5.57
456.569	5.34
456.772	5.39
456.976	5.38
457.179	5.39
457.383	5.33
457.586	5.43
457.79	5.41
457.993	5.47
458.196	5.34
458.4	5.4
458.603	5.39
458.807	5.49
459.01	5.56
459.213	5.46
459.417	5.45
459.62	5.47
459.823	5.36
460.026	5.37
460.23	5.35
460.433	5.44
460.636	5.51
460.839	5.55
461.042	5.6
461.246	5.58
461.449	5.57
461.652	5.6
461.855	5.46
462.058	5.54
462.261	5.42
462.464	5.45
462.668	5.59
462.871	5.53
463.074	5.52
463.277	5.23
463.48	5.27
463.683	5.43
463.886	5.39
464.089	5.42
464.292	5.45
464.495	5.71
464.698	5.57
464.901	5.53
465.104	5.55
465.306	5.49
465.509	5.67
465.712	5.64
465.915	5.63
466.118	5.59
466.321	5.66
466.524	5.61
466.726	5.75
466.929	5.72
467.132	5.73
467.335	5.64
467.538	5.6
467.74	5.53
467.943	5.56
468.146	5.66
468.348	5.8
468.551	5.88
468.754	5.89
468.956	5.65
469.159	5.74
469.362	5.66
469.564	5.59
469.767	5.58
469.969	5.78
470.172	5.51
470.375	5.42
470.577	5.25
470.78	5.08
470.982	5.04
471.185	5.06
471.387	5.22
471.59	5.31
471.792	5.34
471.995	5.44
472.197	5.36
472.399	5.47
472.602	5.31
472.804	5.22
473.007	5.28
473.209	5.35
473.411	5.43
473.614	5.32
473.816	5.29
474.018	5.47
474.22	5.57
474.423	5.67
474.625	5.62
474.827	5.71
475.03	5.87
475.232	5.79
475.434	5.73
475.636	5.69
475.838	5.61
476.04	5.48
476.243	5.37
476.445	5.25
476.647	5.04
476.849	5.07
477.051	5.02
477.253	5.05
477.455	5.17
477.657	5.14
477.859	5.13
478.061	5.06
478.263	5.1
478.465	5.07
478.667	4.96
478.869	5.07
479.071	5.07
479.273	5.16
479.475	5.01
479.677	5.03
479.879	4.95
480.081	5.05
480.283	5.13
480.485	5.18
480.686	5.19
480.888	5.34
481.09	5.32
481.292	5.31
481.494	5.32
481.695	5.47
481.897	5.43
482.099	5.48
482.301	5.45
482.502	5.43
482.704	5.4
482.906	5.46
483.107	5.42
483.309	5.37
483.511	5.4
483.712	5.39
483.914	5.34
484.115	5.34
484.317	5.32
484.519	5.28
484.72	5.3
484.922	5.26
485.123	5.26
485.325	5.25
485.526	5.23
485.728	5.18
485.929	5.11
486.131	5.14
486.332	5.15
486.534	5.17
486.735	5.19
486.936	5.13
487.138	5.2
487.339	5.18
487.541	5.21
487.742	5.27
487.943	5.29
488.144	5.34
488.346	5.27
488.547	5.27
488.748	5.34
488.95	5.33
489.151	5.39
489.352	5.38
489.553	5.3
489.755	5.28
489.956	5.2
490.157	5.21
490.358	5.21
490.559	5.31
490.76	5.26
490.961	5.2
491.163	5.22
491.364	5.25
491.565	5.15
491.766	5.25
491.967	5.28
492.168	5.34
492.369	5.4
492.57	5.36
492.771	5.36
492.972	5.4
493.173	5.43
493.374	5.37
493.575	5.36
493.776	5.46
493.976	5.47
494.177	5.51
494.378	5.6
494.579	5.45
494.78	5.62
494.981	5.57
495.182	5.48
495.382	5.48
495.583	5.58
495.784	5.59
495.985	5.72
496.185	5.71
496.386	5.54
496.587	5.54
496.788	5.64
496.988	5.65
497.189	5.74
497.39	5.81
497.59	5.89
497.791	5.86
497.992	5.79
498.192	5.72
498.393	5.71
498.593	5.75
498.794	5.58
498.994	5.47
499.195	5.37
499.395	5.35
499.596	5.41
499.796	5.19
499.997	5.24
500.197	5.39
500.398	5.37
500.598	5.42
500.799	5.38
500.999	5.5
501.199	5.55
501.4	5.66
501.6	5.62
501.801	5.73
502.001	5.92
502.201	5.91
502.402	5.77
502.602	5.8
502.802	5.81
503.002	5.95
503.203	6.05
503.403	6.04
503.603	6.03
503.803	5.93
504.003	5.79
504.204	5.76
504.404	5.83
504.604	5.82
504.804	5.9
505.004	5.82
505.204	5.74
505.404	5.83
505.604	5.94
505.804	5.82
506.005	5.99
506.205	5.92
506.405	6.01
506.605	6.03
506.805	6.16
507.005	6.14
507.204	6.14
507.404	6.25
507.604	6.16
507.804	6.11
508.004	6.26
508.204	6.28
508.404	6.38
508.604	6.32
508.804	6.24
509.003	6.21
509.203	6.23
509.403	6.28
509.603	6.24
509.803	6.3
510.002	6.43
510.202	6.35
510.402	6.29
510.602	6.37
510.801	6.44
511.001	6.6
511.201	6.66
511.4	6.7
511.6	6.76
511.8	6.7
511.999	6.73
512.199	6.66
512.398	6.8
512.598	6.98
512.797	7
512.997	6.96
513.197	6.92
513.396	6.82
513.596	6.9
513.795	7.01
513.994	7.17
514.194	7.12
514.393	7.11
514.593	7.09
514.792	6.95
514.992	6.94
515.191	6.88
515.39	6.94
515.59	7.03
515.789	7.01
515.988	6.98
516.188	6.95
516.387	6.96
516.586	6.92
516.786	7
516.985	7.1
517.184	7.11
517.383	7.33
517.582	7.38
517.782	7.41
517.981	7.28
518.18	7.2
518.379	7.22
518.578	7.14
518.777	7.31
518.976	7.23
519.176	7.28
519.375	7.34
519.574	7.24
519.773	7.28
519.972	7.17
520.171	7.25
520.37	7.34
520.569	7.46
520.768	7.51
520.967	7.51
521.166	7.54
521.365	7.4
521.564	7.36
521.762	7.48
521.961	7.4
522.16	7.51
522.359	7.4
522.558	7.46
522.757	7.39
522.956	7.56
523.154	7.49
523.353	7.54
523.552	7.62
523.751	7.68
523.949	7.69
524.148	7.73
524.347	7.82
524.546	7.95
524.744	7.78
524.943	7.78
525.142	7.8
525.34	7.84
525.539	7.88
525.737	7.93
525.936	7.9
526.135	7.85
526.333	7.76
526.532	7.75
526.73	7.85
526.929	7.88
527.127	7.84
527.326	7.87
527.524	7.81
527.723	7.91
527.921	7.95
528.12	7.93
528.318	7.96
528.516	8.06
528.715	8.02
528.913	7.96
529.112	8.02
529.31	8.06
529.508	8.03
529.707	8.05
529.905	8.01
530.103	7.99
530.301	7.98
530.5	7.97
530.698	7.96
530.896	8.03
531.094	8.09
531.293	8.08
531.491	8.11
531.689	8.2
531.887	8.35
532.085	8.38
532.283	8.43
532.481	8.5
532.68	8.56
532.878	8.54
533.076	8.51
533.274	8.52
533.472	8.61
533.67	8.56
533.868	8.55
534.066	8.51
534.264	8.46
534.462	8.46
534.66	8.52
534.858	8.52
535.056	8.51
535.253	8.52
535.451	8.61
535.649	8.57
535.847	8.84
536.045	8.8
536.243	8.92
536.441	9.16
536.638	9.28
536.836	9.33
537.034	9.47
537.232	9.59
537.43	9.66
537.627	9.7
537.825	9.68
538.023	9.6
538.22	9.74
538.418	9.73
538.616	9.65
538.813	9.65
539.011	9.69
539.209	9.62
539.406	9.63
539.604	9.83
539.801	9.99
539.999	10.14
540.196	10.29
540.394	10.33
540.591	10.41
540.789	10.52
540.986	10.5
541.184	10.57
541.381	10.66
541.579	10.76
541.776	10.76
541.974	10.79
542.171	10.8
542.368	10.76
542.566	10.83
542.763	10.86
542.96	10.85
543.158	10.96
543.355	11.05
543.552	11.11
543.75	11.19
543.947	11.17
544.144	11.18
544.341	11.29
544.539	11.44
544.736	11.5
544.933	11.5
545.13	11.48
545.327	11.54
545.524	11.44
545.722	11.56
545.919	11.54
546.116	11.7
546.313	11.68
546.51	11.74
546.707	11.76
546.904	11.84
547.101	11.89
547.298	12.16
547.495	12.13
547.692	12.28
547.889	12.25
548.086	12.46
548.283	12.53
548.48	12.7
548.677	12.7
548.874	12.66
549.07	12.8
549.267	12.9
549.464	12.78
549.661	12.96
549.858	13.16
550.055	13.38
550.251	13.3
550.448	13.43
550.645	13.57
550.842	13.82
551.038	14.07
551.235	13.98
551.432	14.07
551.628	14.22
551.825	14.49
552.022	14.46
552.218	14.39
552.415	14.48
552.612	14.51
552.808	14.54
553.005	14.49
553.201	14.61
553.398	14.72
553.594	14.9
553.791	15.01
553.987	15.03
554.184	15.2
554.38	15.25
554.577	15.32
554.773	15.43
554.97	15.47
555.166	15.66
555.362	15.69
555.559	15.77
555.755	15.95
555.952	15.98
556.148	15.9
556.344	15.86
556.541	15.95
556.737	16.32
556.933	16.6
557.129	16.67
557.326	16.91
557.522	17.03
557.718	17.32
557.914	17.17
558.11	17.5
558.307	17.62
558.503	17.9
558.699	18.05
558.895	17.79
559.091	17.72
559.287	17.75
559.483	17.83
559.679	18.08
559.876	18
560.072	18.24
560.268	18.1
560.464	18.03
560.66	17.97
560.856	18.24
561.052	18.48
561.247	18.61
561.443	18.67
561.639	18.56
561.835	18.67
562.031	18.72
562.227	18.89
562.423	18.94
562.619	19.3
562.815	19.57
563.01	19.69
563.206	19.74
563.402	19.58
563.598	19.7
563.793	19.96
563.989	19.85
564.185	20.08
564.381	20.14
564.576	20.25
564.772	20.33
564.968	20.23
565.163	20.15
565.359	20.07
565.555	20.37
565.75	20.68
565.946	20.61
566.141	20.67
566.337	20.68
566.532	20.85
566.728	21.03
566.923	21.09
567.119	21.09
567.314	21.13
567.51	21.39
567.705	21.48
567.901	21.46
568.096	21.69
568.292	22.03
568.487	22.07
568.682	22.06
568.878	22.18
569.073	22.27
569.268	22.47
569.464	22.68
569.659	22.74
569.854	22.8
570.05	22.89
570.245	22.98
570.44	22.89
570.635	23.17
570.831	23.31
571.026	23.31
571.221	23.44
571.416	23.51
571.611	23.58
571.806	23.72
572.002	23.74
572.197	23.91
572.392	23.96
572.587	24.1
572.782	24.07
572.977	24.13
573.172	24.35
573.367	24.37
573.562	24.55
573.757	24.51
573.952	24.68
574.147	24.93
574.342	25.08
574.537	25.2
574.732	25.3
574.927	25.42
575.121	25.69
575.316	25.56
575.511	25.6
575.706	25.63
575.901	25.78
576.096	25.84
576.29	25.85
576.485	25.83
576.68	26.01
576.875	25.82
577.069	25.84
577.264	25.7
577.459	25.93
577.654	26.05
577.848	26.16
578.043	26.21
578.238	25.94
578.432	25.89
578.627	25.84
578.821	25.78
579.016	25.88
579.21	26.13
579.405	26.1
579.6	26.16
579.794	26.36
579.989	26.41
580.183	26.74
580.378	26.96
580.572	27.27
580.766	27.37
580.961	27.32
581.155	27.47
581.35	27.21
581.544	27.06
581.738	26.97
581.933	27.04
582.127	27.19
582.321	27.17
582.516	27.27
582.71	27.27
582.904	27.34
583.099	27.25
583.293	27.34
583.487	27.58
583.681	28.02
583.875	28.13
584.07	28.06
584.264	27.95
584.458	27.85
584.652	27.83
584.846	27.86
585.04	27.92
585.234	28.16
585.428	28.28
585.623	28.31
585.817	28.07
586.011	28.18
586.205	28.3
586.399	28.54
586.593	28.54
586.787	28.7
586.981	28.68
587.174	28.7
587.368	28.6
587.562	28.69
587.756	28.69
587.95	28.87
588.144	28.8
588.338	28.78
588.532	28.71
588.725	29.06
588.919	29.02
589.113	29.06
589.307	29.18
589.501	29.36
589.694	29.38
589.888	29.26
590.082	29.32
590.275	29.46
590.469	29.69
590.663	29.37
590.856	29.21
591.05	29.39
591.244	29.22
591.437	29.25
591.631	29.16
591.824	29.19
592.018	29.57
592.212	29.82
592.405	29.74
592.599	29.63
592.792	29.97
592.986	30.01
593.179	30.07
593.372	30.19
593.566	29.98
593.759	30.35
593.953	30.5
594.146	30.15
594.339	29.83
594.533	30.05
594.726	30.14
594.92	30.21
595.113	30.15
595.306	29.93
595.499	29.88
595.693	30.12
595.886	29.92
596.079	29.91
596.272	30.16
596.466	30.46
596.659	30.54
596.852	30.44
597.045	30.38
597.238	30.53
597.431	30.7
597.624	30.74
597.818	30.73
598.011	30.78
598.204	30.45
598.397	30.45
598.59	30.13
598.783	30.01
598.976	30.05
599.169	30.13
599.362	30.03
599.555	30.02
599.748	30.44
599.941	30.33
600.134	30.45
600.326	31.05
600.519	31.25
600.712	31.5
600.905	31.4
601.098	31.6
601.291	31.62
601.483	31.78
601.676	32.07
601.869	31.94
602.062	32.24
602.255	32.12
602.447	31.96
602.64	31.74
602.833	31.73
603.025	31.61
603.218	31.5
603.411	31.57
603.603	31.44
603.796	31.38
603.989	31.34
604.181	31.28
604.374	31.38
604.566	31.31
604.759	31.35
604.951	31.39
605.144	31.46
605.336	31.58
605.529	31.54
605.721	31.58
605.914	31.48
606.106	31.59
606.299	31.62
606.491	31.67
606.683	31.79
606.876	31.72
607.068	31.75
607.26	31.94
607.453	32.02
607.645	32.12
607.837	32.16
608.03	31.96
608.222	31.73
608.414	31.7
608.606	31.59
608.799	31.54
608.991	31.68
609.183	31.73
609.375	31.8
609.567	31.63
609.759	31.61
609.952	31.55
610.144	31.77
610.336	31.82
610.528	31.8
610.72	31.89
610.912	32.18
611.104	32.34
611.296	32.37
611.488	32.21
611.68	32.4
611.872	32.38
612.064	32.74
612.256	32.73
612.448	32.93
612.64	32.89
612.832	32.93
613.023	32.69
613.215	32.66
613.407	32.66
613.599	33.12
613.791	32.78
613.983	32.7
614.174	32.43
614.366	32.54
614.558	32.39
614.75	32.37
614.941	32.4
615.133	32.53
615.325	32.42
615.516	32.53
615.708	31.9
615.9	31.98
616.091	32.09
616.283	32.19
616.475	32.13
616.666	32.11
616.858	32.47
617.049	32.21
617.241	32.09
617.432	32.17
617.624	32.23
617.815	32.57
618.007	32.84
618.198	32.83
618.39	32.73
618.581	32.44
618.773	32.7
618.964	32.58
619.155	32.71
619.347	32.83
619.538	32.72
619.729	32.57
619.921	32.74
620.112	32.85
620.303	32.97
620.494	33.04
620.686	33.08
620.877	32.97
621.068	32.79
621.259	32.99
621.451	33.02
621.642	33.06
621.833	33.08
622.024	33.11
622.215	33.05
622.406	33.2
622.597	33.46
622.788	33.53
622.98	33.5
623.171	33.73
623.362	33.59
623.553	33.7
623.744	33.76
623.935	34
624.126	33.91
624.317	33.9
624.508	33.82
624.698	33.54
624.889	33.72
625.08	33.8
625.271	34.07
625.462	34.09
625.653	34.05
625.844	34.2
626.034	33.98
626.225	34.24
626.416	34.25
626.607	34.11
626.798	34.12
626.988	34.27
627.179	34.3
627.37	34.1
627.56	34.22
627.751	34.14
627.942	34.27
628.132	34.14
628.323	33.88
628.514	33.81
628.704	33.96
628.895	33.82
629.085	33.76
629.276	33.6
629.466	33.52
629.657	33.39
629.847	33.24
630.038	33.1
630.228	33.4
630.419	33.41
630.609	33.39
630.8	33.02
630.99	33.13
631.181	33.17
631.371	33.4
631.561	33.6
631.752	33.73
631.942	33.84
632.132	33.71
632.323	33.56
632.513	33.57
632.703	33.69
632.893	34.14
633.084	34.22
633.274	34.2
633.464	34.04
633.654	34.12
633.844	33.91
634.034	33.88
634.225	33.78
634.415	33.86
634.605	33.8
634.795	33.55
634.985	33.58
635.175	33.68
635.365	33.66
635.555	33.6
635.745	33.47
635.935	33.66
636.125	33.42
636.315	33.58
636.505	33.64
636.695	33.81
636.885	33.97
637.075	33.94
637.265	33.91
637.455	33.83
637.644	34.14
637.834	34.22
638.024	34.15
638.214	34.54
638.404	34.48
638.593	34.46
638.783	34.55
638.973	34.79
639.163	34.75
639.352	34.87
639.542	35.15
639.732	35.31
639.921	35.2
640.111	35.35
640.301	35.07
640.49	35.03
640.68	34.99
640.87	34.95
641.059	34.83
641.249	34.65
641.438	34.31
641.628	33.88
641.817	33.58
642.007	33.41
642.196	33.38
642.386	33.9
642.575	34.06
642.764	33.68
642.954	33.46
643.143	33.9
643.333	33.94
643.522	34.37
643.711	34.49
643.901	34.55
644.09	34.68
644.279	34.82
644.469	34.49
644.658	34.5
644.847	35.11
645.036	35.48
645.226	34.94
645.415	35.2
645.604	34.99
645.793	34.96
645.982	34.97
646.171	35.09
646.361	35.15
646.55	35.7
646.739	35.77
646.928	35.6
647.117	35.22
647.306	35.36
647.495	35.57
647.684	35.66
647.873	35.92
648.062	36.18
648.251	36.47
648.44	36.03
648.629	35.74
648.818	35.98
649.007	36.06
649.196	36.28
649.384	36.29
649.573	35.57
649.762	35.54
649.951	35.78
650.14	35.46
650.328	35.33
650.517	35.81
650.706	36.03
650.895	35.96
651.083	36.03
651.272	35.82
651.461	35.91
651.65	36.67
651.838	36.88
652.027	36.49
652.216	36.44
652.404	36.41
652.593	36.33
652.781	35.86
652.97	35.89
653.158	35.81
653.347	36.14
653.535	35.97
653.724	35.29
653.912	35.21
654.101	35.62
654.289	35.85
654.478	35.67
654.666	35.79
654.855	36.28
655.043	35.8
655.231	35.55
655.42	35.73
655.608	35.94
655.796	36.03
655.985	35.96
656.173	35.7
656.361	35.55
656.55	35.7
656.738	35.61
656.926	35.6
657.114	35.94
657.302	36.27
657.491	35.66
657.679	35.27
657.867	35.45
658.055	35.46
658.243	35.5
658.431	35.77
658.619	35.72
658.807	35.79
658.996	35.47
659.184	35.54
659.372	35.58
659.56	35.72
659.748	35.89
659.936	35.97
660.124	35.98
660.311	36.09
660.499	35.98
660.687	36.03
660.875	36.09
661.063	36.3
661.251	36.31
661.439	36.17
661.627	36.45
661.814	36.35
662.002	36.27
662.19	36.2
662.378	36.06
662.565	36.26
662.753	36.42
662.941	36.29
663.129	36.54
663.316	36.43
663.504	36.42
663.692	36.47
663.879	36.71
664.067	36.79
664.254	36.73
664.442	36.28
664.63	36.02
664.817	36
665.005	36.02
665.192	35.58
665.38	35.43
665.567	35.65
665.755	35.88
665.942	36.01
666.13	36.07
666.317	36.22
666.504	36.75
666.692	36.96
666.879	36.96
667.067	36.74
667.254	36.97
667.441	37.12
667.629	36.96
667.816	36.67
668.003	36.39
668.19	36.17
668.378	36.01
668.565	35.91
668.752	35.77
668.939	35.2
669.127	35.39
669.314	35.28
669.501	35.11
669.688	35.31
669.875	35.16
670.062	35.47
670.249	35.51
670.436	35.42
670.623	35.36
670.81	35.42
670.997	35.85
671.184	35.66
671.371	35.96
671.558	36.1
671.745	35.76
671.932	35.91
672.119	35.87
672.306	35.86
672.493	36.32
672.68	36.61
672.867	36.79
673.054	36.74
673.24	36.95
673.427	36.75
673.614	37.15
673.801	37.64
673.988	37.94
674.174	37.94
674.361	38.12
674.548	37.69
674.734	37.42
674.921	37.05
675.108	37.46
675.294	36.97
675.481	37.07
675.668	36.94
675.854	36.27
676.041	35.78
676.227	36.13
676.414	36.36
676.601	37
676.787	37.31
676.974	37.56
677.16	37.29
677.347	37.47
677.533	37.37
677.719	36.93
677.906	36.97
678.092	37.06
678.279	36.34
678.465	36.15
678.651	35.67
678.838	35.65
679.024	35.25
679.21	35.33
679.397	35.74
679.583	36.17
679.769	36.53
679.955	36.63
680.142	36.71
680.328	37.55
680.514	37.57
680.7	37.51
680.886	37.53
681.073	37.83
681.259	37.53
681.445	37.32
681.631	36.85
681.817	36.31
682.003	36.35
682.189	36.34
682.375	35.64
682.561	35.81
682.747	36.42
682.933	36.44
683.119	36.44
683.305	36.76
683.491	37.01
683.677	36.72
683.863	37.33
684.049	37.29
684.235	37.15
684.42	37.27
684.606	37.17
684.792	36.82
684.978	36.54
685.164	36.36
685.349	36.2
685.535	36.67
685.721	36.75
685.907	36.36
686.092	36.58
686.278	36.61
686.464	36.58
686.649	36.81
686.835	36.92
687.021	37.21
687.206	37.29
687.392	37
687.577	36.36
687.763	36.61
687.948	36.66
688.134	36.63
688.319	37.02
688.505	37.24
688.69	36.85
688.876	36.53
689.061	36.32
689.247	36.6
689.432	36.67
689.618	36.13
689.803	36.53
689.988	36.56
690.174	36.52
690.359	36.29
690.544	36.23
690.73	36.52
690.915	37.04
691.1	37.03
691.285	36.82
691.471	37.39
691.656	38.09
691.841	37.43
692.026	37.76
692.211	38.18
692.396	38.36
692.582	38.51
692.767	38.56
692.952	38.12
693.137	38.12
693.322	38.65
693.507	38.8
693.692	38.99
693.877	39.28
694.062	39.35
694.247	39.18
694.432	39.51
694.617	39.4
694.802	38.96
694.987	39.04
695.172	39.02
695.357	38.53
695.541	38.17
695.726	38.24
695.911	38.57
696.096	37.96
696.281	38.09
696.466	37.94
696.65	37.79
696.835	38.55
697.02	38.96
697.204	39.05
697.389	39.28
697.574	39
697.759	39.1
697.943	38.94
698.128	38.89
698.312	38.74
698.497	37.9
698.682	37.78
698.866	37.45
699.051	36.83
699.235	36.79
699.42	36.65
699.604	36.46
699.789	36.12
699.973	36.04
700.158	36.49
700.342	36.48
700.527	36.95
700.711	37.14
700.895	36.88
701.08	37.34
701.264	37.5
701.448	37.57
701.633	38.1
701.817	38.16
702.001	38.29
702.186	38
702.37	38.07
702.554	38.13
702.738	38.15
702.923	38.26
703.107	38.59
703.291	38.69
703.475	38.52
703.659	38.47
703.843	38.43
704.027	38.23
704.212	38.63
704.396	38.89
704.58	38.39
704.764	38.55
704.948	38.43
705.132	37.76
705.316	37.92
705.5	38.2
705.684	38.63
705.868	38.38
706.052	38.07
706.235	37.74
706.419	37.67
706.603	38.11
706.787	37.57
706.971	37.88
707.155	38.17
707.339	38.07
707.522	38.11
707.706	37.76
707.89	37.94
708.074	37.99
708.257	37.83
708.441	37.98
708.625	38.62
708.808	39.34
708.992	39.04
709.176	39.1
709.359	39.02
709.543	38.4
709.727	38.42
709.91	38.4
710.094	38.77
710.277	39.22
710.461	39.06
710.644	38.91
710.828	38.24
711.011	38.34
711.195	38
711.378	38.28
711.562	38.54
711.745	38.29
711.928	37.91
712.112	37.58
712.295	37.64
712.478	36.84
712.662	37.2
712.845	36.94
713.028	37.01
713.212	37.42
713.395	37.1
713.578	37.07
713.761	37.34
713.945	37.71
714.128	37.65
714.311	37.87
714.494	38.46
714.677	37.95
714.86	38.84
715.043	39.22
715.227	39.01
715.41	38.87
715.593	39.15
715.776	39.12
715.959	39.34
716.142	39.53
716.325	38.58
716.508	38.87
716.691	39.48
716.874	39.38
717.057	39.18
717.239	38.88
717.422	38.87
717.605	38.74
717.788	38.25
717.971	38.78
718.154	39.08
718.337	39.68
718.519	39.21
718.702	38.93
718.885	38.35
719.068	38.05
719.25	38.89
719.433	39.39
719.616	39.81
719.798	39.27
719.981	39.14
720.164	38.85
720.346	38.54
720.529	39.27
720.712	38.59
720.894	39.56
721.077	39.49
721.259	39.32
721.442	38.94
721.624	38.4
721.807	39.8
721.989	38.87
722.172	39.38
722.354	39.42
722.537	39.44
722.719	39.13
722.901	39.11
723.084	39.69
723.266	40.16
723.448	40.97
723.631	41.29
723.813	40.67
723.995	40.1
724.178	39.64
724.36	39.93
724.542	38.81
724.724	39.61
724.907	39.48
725.089	39.25
725.271	38.69
725.453	37.53
725.635	37.42
725.817	38.65
725.999	39.2
726.181	40.43
726.364	39.92
726.546	40.12
726.728	40.1
726.91	39.58
727.092	39.58
727.274	39.19
727.456	39.39
727.638	39.04
727.819	37.72
728.001	37.81
728.183	37.05
728.365	37.52
728.547	37.72
728.729	37.36
728.911	38.33
729.093	38.51
729.274	38.34
729.456	38.76
729.638	39.18
729.82	40.08
730.001	39.89
730.183	40.21
730.365	40.49
730.546	40.9
730.728	40.43
730.91	39.29
731.091	38.92
731.273	38.71
731.455	38.3
731.636	38.41
731.818	38.24
731.999	38.18
732.181	37.8
732.362	37.38
732.544	37.63
732.725	38.09
732.907	38.4
733.088	39.05
733.27	39.86
733.451	40.09
733.633	41.37
733.814	41.28
733.995	41.64
734.177	41.44
734.358	41.24
734.539	40.7
734.721	40.17
734.902	40.52
735.083	39.2
735.264	39.24
735.446	38.71
735.627	37.2
735.808	36.66
735.989	36.64
736.17	36.94
736.351	37.42
736.533	36.93
736.714	36.86
736.895	36.86
737.076	37.74
737.257	37.47
737.438	37.54
737.619	38.32
737.8	39.36
737.981	39.64
738.162	39.57
738.343	40.54
738.524	40.51
738.705	41.09
738.886	40.5
739.067	40.04
739.247	39.83
739.428	40.18
739.609	39.1
739.79	39.38
739.971	38.56
740.151	38.26
740.332	38.13
740.513	38.05
740.694	38.64
740.874	38.61
741.055	39.36
741.236	39.6
741.417	40.59
741.597	40.57
741.778	40.01
741.958	41.09
742.139	42.04
742.32	41.62
742.5	42.42
742.681	42.25
742.861	42.38
743.042	42.57
743.222	42.69
743.403	42.3
743.583	41.99
743.764	41.68
743.944	41.12
744.124	40.62
744.305	40.19
744.485	39.76
744.666	39.44
744.846	40.05
745.026	41.16
745.207	40.92
745.387	40.46
745.567	41.53
745.747	42.57
745.928	41.85
746.108	41.94
746.288	42.31
746.468	41.99
746.648	42.73
746.829	42.1
747.009	40.68
747.189	41.64
747.369	41.25
747.549	40.83
747.729	39.97
747.909	40.08
748.089	39.58
748.269	37.76
748.449	38.3
748.629	37.2
748.809	37.23
748.989	37.31
749.169	36.88
749.349	37.73
749.529	38.5
749.709	37.88
749.889	38.83
750.068	39.1
750.248	40.93
750.428	41.36
750.608	41.88
750.788	41.41
750.967	40.54
751.147	40.07
751.327	40
751.507	39.06
751.686	39.57
751.866	40.03
752.046	40.26
752.225	39.68
752.405	39.23
752.585	39.15
752.764	39.63
752.944	40.56
753.123	40.92
753.303	41.05
753.482	41.93
753.662	42.26
753.841	41.11
754.021	41.31
754.2	41.56
754.38	41.48
754.559	41.23
754.739	40.5
754.918	40.04
755.097	39.17
755.277	38.58
755.456	37.78
755.635	37.68
755.815	38.11
755.994	38.06
756.173	37.61
756.352	36.8
756.532	37.14
756.711	37.37
756.89	37.2
757.069	38.76
757.248	38.6
757.427	37.8
757.607	37.66
757.786	38
757.965	36.58
758.144	37.34
758.323	38.99
758.502	39.46
758.681	39.68
758.86	40.44
759.039	39.7
759.218	40.29
759.397	41.4
759.576	41.09
759.755	40.53
759.934	41.96
760.113	41.23
760.291	40.37
760.47	39.41
760.649	39.13
760.828	38.95
761.007	38.81
761.186	38.28
761.364	37.98
761.543	37.6
761.722	37.93
761.901	37.2
762.079	37.98
762.258	37.82
762.437	38.07
762.615	38.3
762.794	38.05
762.972	37.86
763.151	37.57
763.33	37.49
763.508	37.84
763.687	37.71
763.865	38.21
764.044	37.95
764.222	38.09
764.401	38.41
764.579	38.92
764.758	38.76
764.936	39.01
765.114	38.98
765.293	39.37
765.471	39.68
765.65	39.51
765.828	39.71
766.006	39.88
766.184	40.08
766.363	39.75
766.541	39.09
766.719	39.47
766.898	39.62
767.076	39.86
767.254	40.02
767.432	40.4
767.61	40.66
767.788	40.08
767.967	39.5
768.145	39.77
768.323	39.36
768.501	40.48
768.679	40.13
768.857	39.31
769.035	39.38
769.213	38.99
769.391	39.5
769.569	39.05
769.747	39.79
769.925	39.77
770.103	39.87
770.281	40.32
770.459	40.81
770.636	40.87
770.814	41.93
770.992	41.66
771.17	41.34
771.348	41.09
771.525	41.53
771.703	40.49
771.881	41.39
772.059	40.84
772.236	41.49
772.414	41.01
772.592	40.74
772.769	39.7
772.947	40.02
773.125	39.98
773.302	38
773.48	37.94
773.657	39.58
773.835	38.86
774.013	39.14
774.19	39.42
774.368	38.11
774.545	38.89
774.723	39.24
774.9	38.93
775.077	39.29
775.255	39.97
775.432	41.8
775.61	40.08
775.787	40.21
775.964	40.09
776.142	39.83
776.319	41.22
776.496	40.94
776.674	41.19
776.851	41.48
777.028	39.54
777.205	41.06
777.382	40.37
777.56	40.32
777.737	41.12
777.914	41.17
778.091	41.23
778.268	41.03
778.445	41.72
778.622	41.98
778.8	41.49
778.977	43.29
779.154	47.33
779.331	46.88
779.508	47.87
779.685	47.07
779.862	47.35
780.038	46.84
780.215	47.6
780.392	46.41
780.569	46.93
780.746	48.08
780.923	48.84
781.1	44.26
781.277	43.11
781.453	41.68
781.63	41.49
781.807	40.19
781.984	40.31
782.16	39.46
782.337	41.19
782.514	39.69
782.691	41.33
782.867	40.05
783.044	40.16
783.221	41.08
783.397	43.33
783.574	44.53
783.75	47.51
783.927	47.44
784.103	46.59
784.28	46.15
784.456	46.68
784.633	45.24
784.809	44.85
784.986	43.41
785.162	42.21
785.339	39
785.515	37.82
785.692	36.26
785.868	36.65
786.044	37.18
786.221	36.49
786.397	35.77
786.573	34.45
786.749	34.66
786.926	36.66
787.102	37.43
787.278	39.12
787.454	40.18
787.631	40.67
787.807	40.39
787.983	38.38
788.159	38.69
788.335	39.44
788.511	39.56
788.687	40.78
788.863	38.87
789.039	38.76
789.216	38.37
789.392	38.83
789.568	38.32
789.744	40.15
789.919	41.61
790.095	40.35
790.271	41.24
790.447	42.5
790.623	43.33
790.799	43.08
790.975	43.47
791.151	44.67
791.327	45.23
791.502	45.76
791.678	43.85
791.854	43.8
792.03	44.55
792.205	45.16
792.381	44.9
792.557	45.92
792.733	46.58
792.908	46.33
793.084	44.54
793.259	43.12
793.435	43.48
793.611	43.75
793.786	43.74
793.962	44.06
794.137	41.39
794.313	41.72
794.488	38.74
794.664	38.54
794.839	37.41
795.015	37.88
795.19	37.08
795.366	34.56
795.541	34.8
795.716	35.93
795.892	35.87
796.067	37.97
796.242	37.53
796.418	38.42
796.593	39.52
796.768	40.3
796.944	40.47
797.119	40.53
797.294	40.81
797.469	40.11
797.644	39.03
797.82	39.77
797.995	37.86
798.17	37.54
798.345	37.39
798.52	36.08
798.695	37.27
798.87	38.54
799.045	36.53
799.22	38.56
799.395	40.55
799.57	41.29
799.745	40.87
799.92	41.45
800.095	42.09
800.27	41.31
800.445	41.81
800.62	41.35
800.795	40.48
800.97	43.52
801.145	40.77
801.319	40.78
801.494	39.91
801.669	40.01
801.844	41.62
802.018	40.99
802.193	41.15
802.368	41.18
802.543	39.02
802.717	39.42
802.892	39.12
803.067	40.93
803.241	38.98
803.416	40.86
803.59	42.54
803.765	42.74
803.94	42.31
804.114	42.35
804.289	43.38
804.463	43.81
804.638	41.71
804.812	44.05
804.986	42.68
805.161	42.01
805.335	40.31
805.51	37.01
805.684	36.78
805.858	36.96
806.033	36.56
806.207	36.31
806.381	39.1
806.556	38.4
806.73	36.62
806.904	35.93
807.078	35.19
807.253	35.01
807.427	36.79
807.601	35.13
807.775	36.33
807.949	38
808.123	38.56
808.298	36.63
808.472	39.6
808.646	39.46
808.82	39.46
808.994	41.29
809.168	43.69
809.342	45.31
809.516	47.37
809.69	46.96
809.864	45.22
810.038	44.37
810.212	43.84
810.385	43.17
810.559	44.12
810.733	46.32
810.907	43.31
811.081	40.71
811.255	38.44
811.428	35.86
811.602	37.54
811.776	38.84
811.95	37.75
812.123	37.81
812.297	39.19
812.471	36.96
812.644	34.73
812.818	37.65
812.992	36.83
813.165	37.19
813.339	37.01
813.512	31.11
813.686	32.66
813.86	32.55
814.033	31.84
814.207	29.13
814.38	28.18
814.554	31.36
814.727	30.06
814.9	31.78
815.074	32.83
815.247	36.16
815.421	37.14
815.594	37.32
815.767	39.22
815.941	41.52
816.114	43.59
816.287	43.79
816.46	43.03
816.634	43.49
816.807	44.53
816.98	44.09
817.153	44.41
817.327	45.86
817.5	44.66
817.673	46.39
817.846	44.61
818.019	43.39
818.192	45.87
818.365	42.97
818.538	42.3
818.711	38.18
818.884	39.54
819.057	36.56
819.23	37.71
819.403	36.02
819.576	33.52
819.749	32.99
819.922	31.49
820.095	31.01
820.268	33.31
820.441	32.84
820.614	32.86
820.786	32.38
820.959	34.79
821.132	34.88
821.305	34.47
821.477	34.32
821.65	35.42
821.823	36.14
821.996	35.31
822.168	35.25
822.341	35.76
822.514	36.32
822.686	35.6
822.859	34.9
823.031	34.64
823.204	35.53
823.376	35.92
823.549	35.52
823.722	35.9
823.894	36.31
824.067	35.85
824.239	36.27
824.411	36.47
824.584	36.77
824.756	37.04
824.929	37.52
825.101	37.01
825.273	37.26
825.446	38.23
825.618	37.78
825.79	38.2
825.963	38.89
826.135	38.5
826.307	37.71
826.479	38.24
826.652	37.88
826.824	37.38
826.996	37.28
827.168	37.1
827.34	35.98
827.512	35.93
827.684	35.09
827.856	34.92
828.029	35.76
828.201	36.74
828.373	35.48
828.545	37.29
828.717	37.8
828.889	37.59
829.061	37.59
829.232	38.47
829.404	38.71
829.576	39.11
829.748	39.08
829.92	38.16
830.092	38.4
830.264	39.26
830.436	38.22
830.607	38.24
830.779	39.08
830.951	38.75
831.123	37.23
831.294	36.27
831.466	36.16
831.638	36.78
831.809	36.39
831.981	37.83
832.153	38.69
832.324	38.06
832.496	38.66
832.667	38.77
832.839	39.53
833.011	40.44
833.182	41.17
833.354	39.75
833.525	42.17
833.697	42.5
833.868	38.87
834.039	39.32
834.211	38.62
834.382	36.22
834.554	35.78
834.725	36.24
834.896	36.22
835.068	35.41
835.239	36.96
835.41	35.87
835.581	34.97
835.753	37.2
835.924	36.43
836.095	37.02
836.266	38.49
836.438	38.37
836.609	38.44
836.78	37.58
836.951	39.81
837.122	39.69
837.293	38.64
837.464	39.08
837.635	38.4
837.806	40.33
837.977	39.89
838.148	41.07
838.319	43.09
838.49	40.9
838.661	44.15
838.832	44.09
839.003	46.81
839.174	48.34
839.345	49.7
839.516	49.24
839.687	47.67
839.857	46.86
840.028	47.06
840.199	45.82
840.37	44.92
840.54	47.09
840.711	44.97
840.882	41.35
841.053	38.91
841.223	37.13
841.394	33.94
841.564	35.7
841.735	37.27
841.906	38.7
842.076	31.59
842.247	32.55
842.417	26.55
842.588	27.36
842.758	28.89
842.929	30.24
843.099	34.75
843.27	39.53
843.44	38.47
843.611	38.85
843.781	33.77
843.951	41.58
844.122	43.3
844.292	46.04
844.462	43.14
844.633	41.93
844.803	42.41
844.973	40.47
845.144	37.61
845.314	34.29
845.484	34.3
845.654	41.78
845.824	39.39
845.995	39.45
846.165	39.51
846.335	43.57
846.505	46.42
846.675	44.51
846.845	41.7
847.015	45.71
847.185	51.83
847.355	51.68
847.525	45.8
847.695	48.18
847.865	51.04
848.035	45.56
848.205	45.14
848.375	47.52
848.545	35.3
848.715	31.04
848.884	29.54
849.054	26.19
849.224	24.62
849.394	31.8
849.564	32.11
849.733	25.1
849.903	30.9
850.073	34.72
850.243	32.82
850.412	41.94
850.582	43.29
850.752	40.8
850.921	37.36
851.091	37.72
851.26	34.28
851.43	35.72
851.599	40.05
851.769	38.76
851.939	28.69
852.108	25.01
852.278	26.79
852.447	26.4
852.616	28.86
852.786	25.15
852.955	33.1
853.125	38.79
853.294	40.51
853.463	35.23
853.633	33.5
853.802	34.17
853.971	42.83
854.141	42.65
854.31	44.4
854.479	41.58
854.648	47.34
854.818	42
854.987	38.2
855.156	29.49
855.325	40.89
855.494	47.05
855.663	52.45
855.832	43.2
856.001	42.77
856.171	41.6
856.34	35.96
856.509	28.12
856.678	29.36
856.847	22.38
857.016	37.74
857.185	30.14
857.353	31.17
857.522	34.34
857.691	41.93
857.86	36.99
858.029	32.21
858.198	44.96
858.367	58.42
858.535	48.09
858.704	48.56
858.873	41.22
859.042	40.95
859.21	34.65
859.379	26.08
859.548	19.49
859.717	26.16
859.885	38.24
860.054	41.22
860.222	26.46
860.391	38.33
860.56	37
860.728	32.64
860.897	25.03
861.065	32.21
861.234	37.38
861.402	44.51
861.571	46.69
861.739	51.11
861.908	45.92
862.076	49.71
862.244	42.46
862.413	48.21
862.581	62.42
862.749	64.76
862.918	68.57
863.086	64.87
863.254	51.53
863.423	44.25
863.591	37.02
863.759	46.85
863.927	50.98
864.096	56.14
864.264	57.95
864.432	50.59
864.6	53.03
864.768	45.23
864.936	52.9
865.104	61.65
865.272	70.41
865.44	72.94
865.608	60.03
865.776	52.12
865.944	45.07
866.112	42.92
866.28	40.08
866.448	37.95
866.616	32.65
866.784	32.83
866.952	34.81
867.12	34.02
867.288	25.15
867.455	24.58
867.623	31.71
867.791	32.97
867.959	36.02
868.127	38.73
868.294	40.82
868.462	51.44
868.63	51.45
868.797	50.77
868.965	51.75
869.133	48.46
869.3	49.41
869.468	45.74
869.636	34.34
869.803	33.81
869.971	32.6
870.138	31.4
870.306	19.68
870.473	22.43
870.641	26.42
870.808	20.49
870.975	21.53
871.143	25.32
871.31	28.35
871.478	46.62
871.645	40.34
871.812	34.54
871.98	39.26
872.147	45.19
872.314	43.49
872.482	36.03
872.649	37.97
872.816	43.14
872.983	42.81
873.15	44.35
873.318	37.49
873.485	49.58
873.652	59.97
873.819	68.77
873.986	62.46
874.153	53.92
874.32	65.85
874.487	58.38
874.654	52.71
874.821	53.63
874.988	44.94
875.155	43.1
875.322	39.09
875.489	24.79
875.656	0.44
875.823	5.17
875.99	1.95
876.157	-12.12
876.324	12.5
876.49	8.66
876.657	8
876.824	18.24
876.991	20.71
877.157	17.09
877.324	28.81
877.491	32.55
877.658	42.31
877.824	49.89
877.991	46.59
878.157	40.93
878.324	41.08
878.491	42.33
878.657	49.27
878.824	57.05
878.99	57.05
879.157	53.08
879.323	54.17
879.49	52.02
879.656	49.12
879.823	47.02
879.989	44.66
880.156	50.8
880.322	43.96
880.488	40.03
880.655	34.35
880.821	32.79
880.987	32.32
881.154	30.56
881.32	35.1
881.486	41.65
881.652	42.41
881.819	46.03
881.985	41.01
882.151	44.48
882.317	42.64
882.483	41.5
882.649	41.38
882.816	38.98
882.982	38.03
883.148	36.42
883.314	34.52
883.48	36.69
883.646	34.57
883.812	35.04
883.978	34.47
884.144	35.77
884.31	35.32
884.476	36.71
884.642	37.84
884.807	39.49
884.973	39.75
885.139	38.93
885.305	37.14
885.471	37.32
885.637	37.01
885.802	38.07
885.968	38.03
886.134	38.41
886.3	36.24
886.465	35.96
886.631	33.62
886.797	34.49
886.962	36.64
887.128	37.81
887.293	37.76
887.459	40.86
887.625	40.64
887.79	37.64
887.956	36.84
888.121	38.93
888.287	38.27
888.452	42.29
888.618	37.93
888.783	34.34
