Data from LC_151_Reflection_2.txt Node
Date: Mon Nov 16 22:05:14 EST 2015
User: robert
Spectrometer: USB4E03001
Autoset integration time: false
Trigger mode: 4
Integration Time (sec): 1.000000E-1
Scans to average: 15
Electric dark correction enabled: true
Nonlinearity correction enabled: false
Boxcar width: 5
Stray light correction enabled: false
XAxis mode: Wavelengths
Stop averaging: false
Number of Pixels in Spectrum: 3648
>>>>>Begin Spectral Data<<<<<
177.566	-2173.49
177.785	-63.38
178.005	455.46
178.225	66.49
178.445	-84.56
178.665	556.85
178.885	11.2
179.105	-916.82
179.324	-1591.12
179.544	50.42
179.764	-74.38
179.984	83.73
180.204	-4.91
180.423	-17.01
180.643	-50.77
180.863	35.26
181.083	36.24
181.302	2.13
181.522	-18.5
181.742	-11.85
181.961	-64.98
182.181	-59.52
182.401	-14.96
182.621	-292.26
182.84	-9.48
183.06	2.91
183.279	-26.87
183.499	-12.12
183.719	2.52
183.938	40.73
184.158	62.17
184.377	80.39
184.597	91.93
184.816	70.27
185.036	109.46
185.256	73.96
185.475	65.44
185.695	84.63
185.914	94.34
186.134	124.67
186.353	-32.75
186.572	-83.52
186.792	-346.36
187.011	-37.94
187.231	-64.37
187.45	-52.74
187.67	-209.24
187.889	-468.12
188.108	1004.01
188.328	-174.15
188.547	-3.74
188.766	107.46
188.986	117.91
189.205	231.07
189.424	140.9
189.644	228.83
189.863	216.59
190.082	318.13
190.302	582.97
190.521	541.94
190.74	-317.85
190.959	-62.09
191.178	-67.92
191.398	-11.99
191.617	33.03
191.836	70.56
192.055	120.94
192.274	99.46
192.494	152.26
192.713	173.28
192.932	393.05
193.151	133.75
193.37	36.68
193.589	-120.24
193.808	4.29
194.027	3.87
194.246	-606.7
194.465	142.6
194.685	353.7
194.904	221.95
195.123	-225.63
195.342	-131.79
195.561	-105.1
195.78	-218.06
195.999	8973.24
196.218	288.07
196.436	190.72
196.655	163.73
196.874	57.56
197.093	144.08
197.312	185.94
197.531	-224.71
197.75	-81.13
197.969	731.21
198.188	118.25
198.407	78.57
198.625	44.77
198.844	53.52
199.063	2.7
199.282	-57.97
199.501	-51.33
199.719	-44.83
199.938	8.67
200.157	15.2
200.376	3.29
200.594	9.69
200.813	-32.81
201.032	0.74
201.251	-17.96
201.469	-3.52
201.688	39.18
201.907	56.49
202.125	55.34
202.344	3297.62
202.563	1155.75
202.781	209.75
203	606.21
203.218	307.8
203.437	332.69
203.656	223.46
203.874	137.39
204.093	143.51
204.311	180.38
204.53	169.23
204.748	209.75
204.967	84.92
205.185	90.94
205.404	73.76
205.622	79.72
205.841	64.39
206.059	47.92
206.278	10.36
206.496	-15.61
206.715	-31.79
206.933	-70.1
207.151	-45.06
207.37	-57.41
207.588	-33.78
207.806	-21.18
208.025	-52.66
208.243	456.45
208.461	-637.22
208.68	931.76
208.898	-9.38
209.116	107.15
209.335	215.8
209.553	202.35
209.771	2280.83
209.989	504.08
210.208	630.42
210.426	-164.51
210.644	320.86
210.862	-228.84
211.081	-41.73
211.299	102.56
211.517	-430.8
211.735	248.49
211.953	57000
212.171	1703.01
212.39	7330.63
212.608	13817.39
212.826	-198.1
213.044	-179.18
213.262	-50.84
213.48	-312.45
213.698	39.38
213.916	76.62
214.134	32.1
214.352	-58
214.57	17.57
214.788	42.16
215.006	60.47
215.224	72.44
215.442	57.02
215.66	34.96
215.878	49.45
216.096	15.59
216.314	-14.41
216.532	-10.65
216.75	54
216.968	45.29
217.185	129.92
217.403	279
217.621	-332.15
217.839	-58.27
218.057	-166.13
218.275	95.27
218.492	171.19
218.71	125.94
218.928	117.24
219.146	157.47
219.363	149.2
219.581	101.54
219.799	92.23
220.017	86.65
220.234	105.25
220.452	81.85
220.67	111.32
220.887	107.61
221.105	134.88
221.323	83.39
221.54	70.17
221.758	55.82
221.976	117.26
222.193	98.84
222.411	61.11
222.629	63.13
222.846	79.81
223.064	78.05
223.281	63.59
223.499	49.4
223.716	36.16
223.934	18.22
224.151	25.1
224.369	-6.4
224.586	-16.72
224.804	-20.73
225.021	-25.57
225.239	-23.89
225.456	-11.46
225.674	-0.86
225.891	3.28
226.108	22.33
226.326	29.15
226.543	32.26
226.76	31.25
226.978	30.35
227.195	32.93
227.413	26.98
227.63	23.05
227.847	21
228.064	16.47
228.282	16.92
228.499	14.79
228.716	12.06
228.934	11.99
229.151	16.52
229.368	16.14
229.585	15.65
229.802	17.15
230.02	19.79
230.237	21.02
230.454	20.1
230.671	19.56
230.888	18.77
231.105	19.55
231.323	20.71
231.54	14.86
231.757	15.84
231.974	12.85
232.191	9.84
232.408	5.99
232.625	0.34
232.842	1.68
233.059	4.7
233.276	10.14
233.493	8.55
233.71	7.58
233.927	14.23
234.144	14.74
234.361	16.38
234.578	17.52
234.795	15.92
235.012	14.42
235.229	14.03
235.446	14.03
235.663	12.32
235.879	15.41
236.096	11.51
236.313	8.89
236.53	6.43
236.747	9.26
236.964	8.32
237.181	9.84
237.397	9.79
237.614	10.29
237.831	2.9
238.048	11
238.264	12.9
238.481	12.19
238.698	14.25
238.915	12.74
239.131	13.45
239.348	14.91
239.565	14.16
239.781	16.58
239.998	16.76
240.215	19.85
240.431	16.53
240.648	14.52
240.865	15.58
241.081	13.02
241.298	14.05
241.514	13.68
241.731	11.18
241.947	14.21
242.164	13.78
242.38	13.78
242.597	12.9
242.814	11.96
243.03	11.42
243.246	10.81
243.463	11.18
243.679	10.88
243.896	9.16
244.112	9.46
244.329	4.85
244.545	4.14
244.762	3.21
244.978	4.98
245.194	5.37
245.411	6.38
245.627	8.07
245.843	10.03
246.06	10.43
246.276	11.99
246.492	12.19
246.709	13.91
246.925	13.34
247.141	12.77
247.357	12
247.574	12.43
247.79	11.85
248.006	11.22
248.222	11.49
248.439	11.75
248.655	11.37
248.871	11.91
249.087	10.91
249.303	10.74
249.519	11.5
249.736	12.21
249.952	10.47
250.168	11.4
250.384	12.7
250.6	11.14
250.816	9.18
251.032	8.15
251.248	8.07
251.464	8.57
251.68	9.15
251.896	9.28
252.112	9.47
252.328	11.06
252.544	11.17
252.76	11.44
252.976	11.13
253.192	13.48
253.408	13.9
253.624	15.81
253.84	15.31
254.056	15.76
254.272	14.31
254.487	14.54
254.703	13.2
254.919	13.41
255.135	10.77
255.351	12.04
255.567	14.02
255.782	14.7
255.998	10.95
256.214	10.67
256.43	9.83
256.646	12.14
256.861	11.54
257.077	10.22
257.293	7.01
257.508	8.18
257.724	9.97
257.94	7.38
258.155	6.26
258.371	6.21
258.587	6.9
258.802	6.92
259.018	7.81
259.234	7.47
259.449	9.5
259.665	9.72
259.88	10.7
260.096	9.9
260.312	9.33
260.527	9.23
260.743	10.2
260.958	10.78
261.174	10.8
261.389	11.2
261.605	11.98
261.82	11.71
262.036	11.88
262.251	11.79
262.466	11.07
262.682	12.32
262.897	12.55
263.113	10.97
263.328	9.64
263.543	10.1
263.759	8.03
263.974	7.44
264.189	6
264.405	7.58
264.62	6.36
264.835	8.41
265.051	7.93
265.266	10.38
265.481	12.84
265.696	13.16
265.912	13.39
266.127	12.23
266.342	10.77
266.557	11.23
266.773	12.21
266.988	11.92
267.203	11.48
267.418	10.87
267.633	9.83
267.848	10.19
268.064	9.93
268.279	10.3
268.494	11.42
268.709	12.23
268.924	12.04
269.139	11.02
269.354	10.73
269.569	10.25
269.784	10.82
269.999	10.64
270.214	8.59
270.429	9.25
270.644	8.63
270.859	6.76
271.074	7.39
271.289	7.46
271.504	7.2
271.719	7.98
271.934	8.29
272.149	8.91
272.363	9.32
272.578	9.37
272.793	9.65
273.008	9.24
273.223	10.04
273.438	9.63
273.653	10.06
273.867	9.48
274.082	9.27
274.297	9.29
274.512	9.56
274.726	8.32
274.941	8
275.156	7.97
275.371	8.86
275.585	9.37
275.8	9.92
276.015	9.61
276.229	10.67
276.444	10.94
276.659	10.42
276.873	8.37
277.088	9.4
277.302	10.3
277.517	9.84
277.732	10.29
277.946	10.96
278.161	10.46
278.375	10.15
278.59	9.41
278.804	8.82
279.019	8.28
279.233	9.95
279.448	10.84
279.662	9.82
279.877	9.47
280.091	7.97
280.306	6.89
280.52	7.5
280.735	6.2
280.949	6.61
281.163	6.6
281.378	6.09
281.592	4.98
281.806	4.71
282.021	4.33
282.235	5.43
282.449	6.19
282.664	5.57
282.878	5.26
283.092	6.76
283.307	7.36
283.521	8.27
283.735	9.59
283.949	10.45
284.164	10.07
284.378	11.31
284.592	10.32
284.806	10.19
285.02	10.59
285.234	10.51
285.449	9.52
285.663	8.71
285.877	8.38
286.091	7.04
286.305	6.51
286.519	6.28
286.733	5.11
286.947	4.6
287.161	4.4
287.375	4.61
287.589	4.89
287.803	5.84
288.017	6.24
288.231	5.19
288.445	6.47
288.659	6.49
288.873	6.98
289.087	7.57
289.301	7.89
289.515	7.8
289.729	7.4
289.943	6.88
290.157	7.13
290.371	9.11
290.584	9.89
290.798	10.42
291.012	11.3
291.226	10.2
291.44	11.13
291.654	11.87
291.867	12.4
292.081	13.05
292.295	13.77
292.509	12.87
292.722	11.49
292.936	11.53
293.15	11.68
293.364	10.52
293.577	11.22
293.791	9.8
294.005	10.07
294.218	9.22
294.432	8.33
294.645	7.67
294.859	8.02
295.073	7.6
295.286	7.34
295.5	7.03
295.713	8.33
295.927	8.83
296.14	10.04
296.354	9.48
296.568	9.37
296.781	9.71
296.994	10.16
297.208	10.4
297.421	10.26
297.635	10.28
297.848	10.22
298.062	9.82
298.275	10.74
298.489	10.83
298.702	11.01
298.915	11.57
299.129	12.77
299.342	12.84
299.555	12.12
299.769	12.03
299.982	11.41
300.195	11.77
300.409	11.98
300.622	10.83
300.835	11.66
301.048	12.01
301.262	12.25
301.475	11.05
301.688	12.27
301.901	13.86
302.115	14.28
302.328	15.51
302.541	14.63
302.754	14.65
302.967	15.21
303.18	14.29
303.393	14.29
303.607	13.62
303.82	13.8
304.033	11.76
304.246	10.84
304.459	10.79
304.672	10.42
304.885	12.12
305.098	11.47
305.311	11.05
305.524	10.75
305.737	10.12
305.95	10.65
306.163	10.56
306.376	11.36
306.589	10.87
306.802	10.54
307.015	11.83
307.228	11.33
307.44	11.63
307.653	10.91
307.866	9.61
308.079	10.53
308.292	11.15
308.505	11.12
308.718	11.21
308.93	11.73
309.143	11.8
309.356	10.34
309.569	9.8
309.781	10.32
309.994	11.17
310.207	12.45
310.42	11.33
310.632	10.87
310.845	11.2
311.058	10.47
311.27	10.53
311.483	11.21
311.696	12.12
311.908	12.82
312.121	12.55
312.333	12.35
312.546	11.68
312.759	12.4
312.971	12.81
313.184	13.12
313.396	13.27
313.609	13.98
313.821	14.12
314.034	13.6
314.246	12.39
314.459	12.06
314.671	11.95
314.884	11.78
315.096	10.5
315.309	8.95
315.521	9.45
315.733	9.36
315.946	7.53
316.158	5.52
316.371	4.7
316.583	7.05
316.795	7.38
317.008	7.52
317.22	9.66
317.432	9.87
317.644	11.19
317.857	9.9
318.069	10.32
318.281	10.96
318.494	11.67
318.706	12.02
318.918	9.66
319.13	9.95
319.342	10.29
319.555	9.13
319.767	10.77
319.979	10.5
320.191	10.67
320.403	11.1
320.615	12.2
320.827	13.06
321.039	13.05
321.252	12.92
321.464	11.34
321.676	10.49
321.888	9.98
322.1	10.71
322.312	9.34
322.524	8.5
322.736	8.45
322.948	6.95
323.16	6.28
323.372	6.87
323.584	7.98
323.796	8.82
324.007	9.17
324.219	8.25
324.431	7.14
324.643	7.84
324.855	8.93
325.067	8.66
325.279	9.82
325.491	9.91
325.702	8.61
325.914	8.45
326.126	8.92
326.338	9.18
326.55	10.29
326.761	10.67
326.973	11.18
327.185	10.94
327.396	11.26
327.608	11.11
327.82	11.12
328.032	11.86
328.243	11.34
328.455	12.03
328.666	11.52
328.878	11.53
329.09	10.77
329.301	10.22
329.513	10.04
329.725	10.14
329.936	9.4
330.148	10.03
330.359	9.96
330.571	10.49
330.782	9.99
330.994	11.25
331.205	11.72
331.417	12.61
331.628	13.31
331.84	13.03
332.051	13.18
332.262	13.45
332.474	12.3
332.685	13.57
332.897	13.21
333.108	12.93
333.319	12.41
333.531	12.41
333.742	12.38
333.953	11.37
334.165	11.5
334.376	11.38
334.587	11.41
334.799	12.6
335.01	11.91
335.221	11.78
335.432	11.14
335.644	10.9
335.855	9.93
336.066	10.18
336.277	11.12
336.488	11.76
336.7	11.16
336.911	11.41
337.122	10.79
337.333	11.07
337.544	12.24
337.755	13.25
337.966	13.04
338.177	14.1
338.388	13.94
338.599	14.42
338.811	14.19
339.022	14.81
339.233	15.43
339.444	15.42
339.655	14.28
339.866	13.62
340.076	14.2
340.287	14.57
340.498	13.49
340.709	12.9
340.92	12.05
341.131	11.98
341.342	12.07
341.553	11.97
341.764	12.04
341.975	12.86
342.185	12.52
342.396	11.56
342.607	11.84
342.818	11.79
343.029	11.8
343.239	11.83
343.45	12.52
343.661	12.01
343.872	11.14
344.082	11.49
344.293	11.73
344.504	12.35
344.714	11.3
344.925	10.02
345.136	10.43
345.346	11.18
345.557	11.73
345.768	10.64
345.978	10.64
346.189	10.81
346.399	10.1
346.61	10.27
346.821	9.86
347.031	10.91
347.242	11.6
347.452	11.48
347.663	10.78
347.873	10.07
348.084	10.54
348.294	11.26
348.504	11.57
348.715	11.8
348.925	10.94
349.136	10.51
349.346	10.34
349.557	10.54
349.767	11.06
349.977	10.79
350.188	11.99
350.398	12.27
350.608	11.57
350.819	11.17
351.029	11.73
351.239	11.9
351.449	11.53
351.66	11.97
351.87	12.46
352.08	11.75
352.29	11.9
352.501	10.39
352.711	10.04
352.921	10.16
353.131	10.22
353.341	9.92
353.552	9.62
353.762	10.32
353.972	10.05
354.182	9.97
354.392	10.1
354.602	10.06
354.812	10.61
355.022	10.29
355.232	10.34
355.442	10.26
355.652	10.32
355.862	10.14
356.072	10.09
356.282	10.2
356.492	9.98
356.702	10.54
356.912	10.97
357.122	10.8
357.332	10.94
357.542	11.06
357.752	11.07
357.962	11.18
358.171	11.61
358.381	11.98
358.591	11.41
358.801	10.85
359.011	10.77
359.221	10.42
359.43	10.65
359.64	11.02
359.85	11.11
360.06	11.42
360.269	11.12
360.479	11.01
360.689	10.79
360.899	11.11
361.108	11.15
361.318	11.07
361.528	10.65
361.737	10.29
361.947	9.57
362.156	9.55
362.366	9.32
362.576	9.32
362.785	9.51
362.995	9.22
363.204	9.05
363.414	9.15
363.623	8.83
363.833	9.13
364.042	9.85
364.252	10.24
364.461	10.19
364.671	10.1
364.88	10.39
365.09	10.52
365.299	10.9
365.509	10.5
365.718	10.4
365.927	10.38
366.137	10.62
366.346	10.03
366.555	10.07
366.765	9.78
366.974	10
367.183	9.96
367.393	9.54
367.602	8.9
367.811	9.41
368.021	9.17
368.23	9.31
368.439	9.06
368.648	9.1
368.857	9.07
369.067	9.28
369.276	9.15
369.485	9.02
369.694	8.67
369.903	9.49
370.112	9.64
370.321	9.79
370.531	9.1
370.74	9.27
370.949	9.14
371.158	8.94
371.367	9.06
371.576	8.7
371.785	8.14
371.994	8.53
372.203	8.27
372.412	8.24
372.621	8.48
372.83	8.89
373.039	9.09
373.248	8.77
373.457	8.95
373.666	8.29
373.874	8.25
374.083	8.83
374.292	8.44
374.501	8.14
374.71	7.69
374.919	7.65
375.128	7.68
375.336	7.69
375.545	8.32
375.754	8.11
375.963	8.39
376.171	8.13
376.38	8.27
376.589	8.73
376.798	8.42
377.006	8.82
377.215	8.93
377.424	8.95
377.632	8.78
377.841	8.62
378.05	8.49
378.258	8.54
378.467	9.02
378.675	8.92
378.884	8.52
379.093	8.8
379.301	8.27
379.51	7.84
379.718	7.59
379.927	7.47
380.135	7.36
380.344	7.61
380.552	7.43
380.761	7.41
380.969	7.16
381.177	7.22
381.386	7.29
381.594	7.67
381.803	8.08
382.011	8.16
382.219	8.04
382.428	7.27
382.636	6.88
382.845	7.45
383.053	7.58
383.261	7.31
383.469	7.51
383.678	7.85
383.886	7.59
384.094	7.31
384.302	7.56
384.511	7.79
384.719	8.24
384.927	8.46
385.135	8.13
385.343	7.97
385.552	7.95
385.76	8.08
385.968	7.8
386.176	7.8
386.384	7.62
386.592	7.37
386.8	6.93
387.008	7.26
387.216	7.41
387.424	7.08
387.633	7.36
387.841	7.44
388.049	7.13
388.257	6.81
388.465	7.02
388.672	7.03
388.88	6.87
389.088	7.07
389.296	6.95
389.504	6.9
389.712	6.94
389.92	6.61
390.128	6.58
390.336	6.61
390.544	6.99
390.751	6.53
390.959	6.64
391.167	6.74
391.375	6.86
391.583	6.77
391.79	6.6
391.998	6.52
392.206	6.51
392.414	6.56
392.621	6.59
392.829	6.52
393.037	6.74
393.244	6.74
393.452	6.86
393.66	7.02
393.867	7.03
394.075	7.05
394.283	7.05
394.49	6.83
394.698	6.73
394.905	6.48
395.113	6.39
395.32	6.38
395.528	6.48
395.735	6.31
395.943	5.89
396.15	5.81
396.358	5.75
396.565	5.84
396.773	6.2
396.98	6.32
397.188	6.58
397.395	6.61
397.602	6.41
397.81	6.19
398.017	6.39
398.225	6.61
398.432	6.66
398.639	6.56
398.847	6.51
399.054	6.36
399.261	6.17
399.468	6.26
399.676	6.01
399.883	6.37
400.09	6.67
400.297	6.62
400.505	6.95
400.712	6.65
400.919	6.99
401.126	7.15
401.333	7.19
401.54	7.43
401.748	7.18
401.955	7.21
402.162	7.07
402.369	6.93
402.576	6.96
402.783	6.59
402.99	6.97
403.197	6.75
403.404	6.79
403.611	7.04
403.818	6.93
404.025	6.97
404.232	7.01
404.439	6.87
404.646	6.77
404.853	6.54
405.06	6.5
405.267	6.09
405.474	6.13
405.681	5.79
405.887	5.48
406.094	5.56
406.301	5.52
406.508	5.56
406.715	5.81
406.922	5.86
407.128	5.91
407.335	6.06
407.542	6.11
407.749	6.21
407.955	6.46
408.162	6.53
408.369	6.57
408.575	6.49
408.782	6.36
408.989	6.15
409.195	6.09
409.402	6.24
409.609	6.41
409.815	6.64
410.022	6.82
410.228	6.78
410.435	6.9
410.642	6.63
410.848	6.92
411.055	6.98
411.261	7.2
411.468	7.34
411.674	7.12
411.881	6.78
412.087	6.89
412.294	6.64
412.5	6.48
412.706	6.28
412.913	6.35
413.119	5.99
413.326	5.73
413.532	5.72
413.738	5.34
413.945	5.6
414.151	5.71
414.357	5.74
414.564	5.72
414.77	5.82
414.976	5.74
415.182	5.96
415.389	6.09
415.595	6.33
415.801	6.07
416.007	6.37
416.214	6.47
416.42	6.34
416.626	6.27
416.832	6.28
417.038	6.3
417.244	6.48
417.45	6.25
417.657	6.42
417.863	6.65
418.069	6.91
418.275	6.86
418.481	6.59
418.687	6.68
418.893	6.77
419.099	6.79
419.305	6.94
419.511	7
419.717	7.06
419.923	6.99
420.129	6.91
420.335	6.8
420.541	6.94
420.746	7.01
420.952	7.04
421.158	6.98
421.364	6.98
421.57	6.92
421.776	6.86
421.982	6.88
422.187	6.79
422.393	6.75
422.599	6.6
422.805	6.53
423.01	6.61
423.216	6.47
423.422	6.39
423.628	6.37
423.833	6.36
424.039	6.49
424.245	6.51
424.45	6.62
424.656	6.56
424.862	6.62
425.067	6.67
425.273	6.55
425.478	6.66
425.684	6.68
425.889	6.78
426.095	6.72
426.301	6.52
426.506	6.53
426.712	6.61
426.917	6.55
427.123	6.68
427.328	6.58
427.533	6.62
427.739	6.67
427.944	6.69
428.15	6.54
428.355	6.58
428.561	6.59
428.766	6.52
428.971	6.23
429.177	6.48
429.382	6.55
429.587	6.63
429.793	6.52
429.998	6.5
430.203	6.66
430.408	6.72
430.614	6.82
430.819	6.89
431.024	6.95
431.229	7
431.434	6.88
431.64	6.76
431.845	6.76
432.05	6.96
432.255	6.96
432.46	6.74
432.665	6.75
432.87	6.7
433.076	6.65
433.281	6.77
433.486	6.7
433.691	6.45
433.896	6.36
434.101	6.29
434.306	6.23
434.511	6.21
434.716	6.34
434.921	6.36
435.126	6.15
435.331	6.05
435.535	5.95
435.74	6.07
435.945	6.45
436.15	6.53
436.355	6.52
436.56	6.74
436.765	6.71
436.97	6.54
437.174	6.51
437.379	6.72
437.584	6.88
437.789	6.94
437.993	7.06
438.198	7
438.403	7.07
438.608	7.09
438.812	6.77
439.017	6.76
439.222	6.83
439.426	6.8
439.631	6.81
439.836	6.69
440.04	6.69
440.245	6.57
440.45	6.59
440.654	6.54
440.859	6.45
441.063	6.58
441.268	6.57
441.472	6.53
441.677	6.49
441.881	6.37
442.086	6.47
442.29	6.36
442.495	6.39
442.699	6.4
442.904	6.4
443.108	6.51
443.312	6.58
443.517	6.56
443.721	6.55
443.925	6.57
444.13	6.75
444.334	6.66
444.538	6.61
444.743	6.57
444.947	6.51
445.151	6.47
445.356	6.36
445.56	6.28
445.764	6.33
445.968	6.36
446.173	6.32
446.377	6.35
446.581	6.34
446.785	6.31
446.989	6.27
447.193	6.24
447.398	6.18
447.602	6.36
447.806	6.41
448.01	6.51
448.214	6.61
448.418	6.64
448.622	6.58
448.826	6.65
449.03	6.78
449.234	6.84
449.438	6.81
449.642	6.99
449.846	6.88
450.05	6.82
450.254	6.62
450.458	6.61
450.662	6.53
450.866	6.47
451.069	6.34
451.273	6.26
451.477	6.14
451.681	6.15
451.885	5.87
452.089	5.7
452.292	5.73
452.496	5.77
452.7	5.65
452.904	5.71
453.107	5.77
453.311	5.91
453.515	5.96
453.719	5.91
453.922	5.91
454.126	6.06
454.33	6.15
454.533	6.19
454.737	6.06
454.94	6.12
455.144	6.16
455.348	6.17
455.551	6.04
455.755	5.95
455.958	6
456.162	6.05
456.365	6.05
456.569	5.97
456.772	5.84
456.976	5.96
457.179	5.92
457.383	5.86
457.586	5.86
457.79	5.92
457.993	5.96
458.196	5.86
458.4	5.84
458.603	5.78
458.807	5.96
459.01	6.05
459.213	5.97
459.417	5.85
459.62	5.96
459.823	5.89
460.026	5.8
460.23	5.89
460.433	5.99
460.636	6.02
460.839	6.01
461.042	5.95
461.246	5.99
461.449	6.1
461.652	6.2
461.855	6.1
462.058	6.18
462.261	6.31
462.464	6.21
462.668	6.4
462.871	6.42
463.074	6.61
463.277	6.49
463.48	6.56
463.683	6.46
463.886	6.57
464.089	6.56
464.292	6.7
464.495	6.72
464.698	6.62
464.901	6.53
465.104	6.46
465.306	6.24
465.509	6.44
465.712	6.38
465.915	6.48
466.118	6.48
466.321	6.45
466.524	6.26
466.726	6.26
466.929	6.34
467.132	6.3
467.335	6.23
467.538	6.24
467.74	6.17
467.943	6.31
468.146	6.24
468.348	6.23
468.551	6.33
468.754	6.35
468.956	6.26
469.159	6.31
469.362	6.44
469.564	6.4
469.767	6.5
469.969	6.4
470.172	6.12
470.375	6.14
470.577	6.15
470.78	6.08
470.982	6.06
471.185	6.09
471.387	6.14
471.59	6.02
471.792	6.17
471.995	6.2
472.197	6.29
472.399	6.19
472.602	6.05
472.804	6.16
473.007	6.09
473.209	6.1
473.411	6.05
473.614	5.97
473.816	5.96
474.018	5.97
474.22	6
474.423	6.07
474.625	6.21
474.827	6.24
475.03	6.09
475.232	6.31
475.434	6.45
475.636	6.66
475.838	6.64
476.04	6.58
476.243	6.51
476.445	6.47
476.647	6.28
476.849	6.18
477.051	6.3
477.253	6.33
477.455	6.26
477.657	6.2
477.859	6.06
478.061	5.96
478.263	6.01
478.465	6.13
478.667	6.05
478.869	6.11
479.071	6.12
479.273	6.08
479.475	6.04
479.677	5.95
479.879	5.84
480.081	5.98
480.283	6.04
480.485	5.94
480.686	5.92
480.888	6.09
481.09	6.16
481.292	6.19
481.494	6.28
481.695	6.3
481.897	6.25
482.099	6.26
482.301	6.14
482.502	6.23
482.704	6.22
482.906	6.22
483.107	6.17
483.309	6.17
483.511	6.24
483.712	6.18
483.914	6.14
484.115	6.18
484.317	6.16
484.519	6.17
484.72	6.15
484.922	6.12
485.123	6.15
485.325	6.13
485.526	6.08
485.728	6.04
485.929	6.04
486.131	6.1
486.332	6.05
486.534	6.01
486.735	6.06
486.936	6.02
487.138	6.08
487.339	6
487.541	5.95
487.742	5.98
487.943	5.97
488.144	5.99
488.346	5.89
488.547	5.92
488.748	5.95
488.95	5.87
489.151	5.89
489.352	5.88
489.553	5.9
489.755	5.96
489.956	5.91
490.157	5.91
490.358	5.91
490.559	6.05
490.76	6
490.961	6
491.163	6.09
491.364	6.15
491.565	6.15
491.766	6.17
491.967	6.18
492.168	6.18
492.369	6.18
492.57	6.19
492.771	6.14
492.972	6.16
493.173	6.21
493.374	6.08
493.575	5.99
493.776	5.98
493.976	6.05
494.177	6.13
494.378	6.31
494.579	6.3
494.78	6.46
494.981	6.53
495.182	6.6
495.382	6.6
495.583	6.65
495.784	6.63
495.985	6.6
496.185	6.46
496.386	6.27
496.587	6.26
496.788	6.23
496.988	6.19
497.189	6.17
497.39	6.29
497.59	6.23
497.791	6.24
497.992	6.3
498.192	6.43
498.393	6.41
498.593	6.55
498.794	6.44
498.994	6.51
499.195	6.42
499.395	6.43
499.596	6.31
499.796	6.39
499.997	6.52
500.197	6.6
500.398	6.58
500.598	6.68
500.799	6.54
500.999	6.57
501.199	6.56
501.4	6.54
501.6	6.5
501.801	6.59
502.001	6.55
502.201	6.63
502.402	6.65
502.602	6.68
502.802	6.7
503.002	6.75
503.203	6.83
503.403	6.78
503.603	6.78
503.803	6.77
504.003	6.71
504.204	6.88
504.404	6.63
504.604	6.52
504.804	6.45
505.004	6.26
505.204	6.44
505.404	6.58
505.604	6.76
505.804	6.75
506.005	6.82
506.205	6.8
506.405	6.74
506.605	7.01
506.805	7.13
507.005	7.28
507.204	7.56
507.404	7.54
507.604	7.44
507.804	7.28
508.004	7.48
508.204	7.5
508.404	7.6
508.604	7.63
508.804	7.67
509.003	7.68
509.203	7.65
509.403	7.62
509.603	7.57
509.803	7.69
510.002	7.82
510.202	7.7
510.402	7.69
510.602	7.78
510.801	7.82
511.001	7.76
511.201	7.71
511.4	7.68
511.6	7.77
511.8	7.83
511.999	7.71
512.199	7.7
512.398	7.76
512.598	7.87
512.797	7.85
512.997	7.8
513.197	7.92
513.396	8.09
513.596	8.29
513.795	8.43
513.994	8.38
514.194	8.43
514.393	8.57
514.593	8.68
514.792	8.78
514.992	8.81
515.191	8.94
515.39	8.86
515.59	8.68
515.789	8.54
515.988	8.54
516.188	8.6
516.387	8.58
516.586	8.46
516.786	8.5
516.985	8.41
517.184	8.5
517.383	8.56
517.582	8.65
517.782	8.87
517.981	8.82
518.18	8.71
518.379	8.81
518.578	8.84
518.777	8.93
518.976	8.79
519.176	8.93
519.375	8.87
519.574	8.86
519.773	8.86
519.972	8.69
520.171	8.71
520.37	8.76
520.569	8.75
520.768	8.75
520.967	8.81
521.166	8.96
521.365	8.91
521.564	8.94
521.762	9.01
521.961	9.07
522.16	9.19
522.359	9.16
522.558	9.16
522.757	9.12
522.956	9.22
523.154	9.13
523.353	9.08
523.552	9.04
523.751	9.2
523.949	9.12
524.148	9.16
524.347	9.28
524.546	9.57
524.744	9.56
524.943	9.74
525.142	9.75
525.34	9.85
525.539	9.94
525.737	9.97
525.936	9.88
526.135	9.85
526.333	9.78
526.532	9.7
526.73	9.71
526.929	9.69
527.127	9.66
527.326	9.71
527.524	9.73
527.723	9.75
527.921	9.79
528.12	9.85
528.318	9.95
528.516	10
528.715	10
528.913	9.97
529.112	10.02
529.31	9.99
529.508	9.97
529.707	9.94
529.905	9.95
530.103	9.99
530.301	9.97
530.5	9.95
530.698	9.98
530.896	10.07
531.094	10.14
531.293	10.17
531.491	10.31
531.689	10.36
531.887	10.58
532.085	10.64
532.283	10.64
532.481	10.74
532.68	10.7
532.878	10.74
533.076	10.69
533.274	10.63
533.472	10.75
533.67	10.68
533.868	10.71
534.066	10.6
534.264	10.54
534.462	10.53
534.66	10.49
534.858	10.58
535.056	10.51
535.253	10.57
535.451	10.65
535.649	10.6
535.847	10.77
536.045	10.77
536.243	10.86
536.441	10.97
536.638	11.02
536.836	11.03
537.034	10.98
537.232	11.13
537.43	11.15
537.627	11.27
537.825	11.27
538.023	11.22
538.22	11.4
538.418	11.39
538.616	11.49
538.813	11.61
539.011	11.73
539.209	11.9
539.406	11.83
539.604	11.92
539.801	11.94
539.999	12.06
540.196	12.15
540.394	12.12
540.591	12.09
540.789	12.08
540.986	12.05
541.184	12.09
541.381	12.08
541.579	12.09
541.776	12.1
541.974	12.04
542.171	12.02
542.368	11.96
542.566	11.97
542.763	12.08
542.96	12.1
543.158	12.2
543.355	12.2
543.552	12.28
543.75	12.37
543.947	12.34
544.144	12.47
544.341	12.53
544.539	12.63
544.736	12.74
544.933	12.72
545.13	12.78
545.327	12.79
545.524	12.82
545.722	12.9
545.919	13.04
546.116	13.23
546.313	13.18
546.51	13.22
546.707	13.27
546.904	13.19
547.101	13.24
547.298	13.24
547.495	13.32
547.692	13.34
547.889	13.31
548.086	13.36
548.283	13.36
548.48	13.5
548.677	13.52
548.874	13.56
549.07	13.65
549.267	13.69
549.464	13.74
549.661	13.77
549.858	13.9
550.055	13.96
550.251	13.86
550.448	13.93
550.645	14.01
550.842	14.13
551.038	14.26
551.235	14.11
551.432	14.2
551.628	14.26
551.825	14.45
552.022	14.6
552.218	14.65
552.415	14.76
552.612	14.72
552.808	14.63
553.005	14.58
553.201	14.62
553.398	14.87
553.594	14.96
553.791	15.28
553.987	15.24
554.184	15.22
554.38	15.14
554.577	15.2
554.773	15.27
554.97	15.36
555.166	15.52
555.362	15.6
555.559	15.88
555.755	16
555.952	15.9
556.148	15.9
556.344	15.88
556.541	16.08
556.737	16.13
556.933	16.29
557.129	16.26
557.326	16.4
557.522	16.34
557.718	16.41
557.914	16.37
558.11	16.21
558.307	16.21
558.503	16.39
558.699	16.45
558.895	16.63
559.091	16.69
559.287	16.89
559.483	16.81
559.679	17.05
559.876	16.9
560.072	17.03
560.268	17.19
560.464	17.22
560.66	17.16
560.856	17.29
561.052	17.26
561.247	17.34
561.443	17.46
561.639	17.55
561.835	17.6
562.031	17.75
562.227	17.73
562.423	17.81
562.619	18.1
562.815	18.25
563.01	18.4
563.206	18.37
563.402	18.39
563.598	18.31
563.793	18.41
563.989	18.38
564.185	18.31
564.381	18.67
564.576	18.84
564.772	18.87
564.968	18.93
565.163	18.73
565.359	18.74
565.555	18.94
565.75	19.1
565.946	19.12
566.141	19.22
566.337	19.25
566.532	19.16
566.728	19.2
566.923	19.14
567.119	19.04
567.314	19.25
567.51	19.43
567.705	19.34
567.901	19.4
568.096	19.53
568.292	19.62
568.487	19.79
568.682	19.74
568.878	19.79
569.073	20.03
569.268	20.3
569.464	20.54
569.659	20.74
569.854	20.96
570.05	21.05
570.245	21.13
570.44	21.17
570.635	21.19
570.831	21.25
571.026	21.44
571.221	21.38
571.416	21.28
571.611	21.31
571.806	21.3
572.002	21.25
572.197	21.34
572.392	21.35
572.587	21.54
572.782	21.79
572.977	22.09
573.172	22.07
573.367	22.08
573.562	22.18
573.757	22.04
573.952	22.15
574.147	22.29
574.342	22.42
574.537	22.55
574.732	22.52
574.927	22.45
575.121	22.42
575.316	22.44
575.511	22.53
575.706	22.76
575.901	22.96
576.096	23.02
576.29	22.97
576.485	23.03
576.68	22.95
576.875	22.99
577.069	23.03
577.264	22.88
577.459	22.98
577.654	23.1
577.848	23.09
578.043	23.16
578.238	23.17
578.432	23.16
578.627	23.05
578.821	23.2
579.016	23.2
579.21	23.42
579.405	23.52
579.6	23.47
579.794	23.51
579.989	23.56
580.183	23.81
580.378	23.91
580.572	24.32
580.766	24.54
580.961	24.62
581.155	24.86
581.35	24.66
581.544	24.69
581.738	24.9
581.933	25
582.127	25.2
582.321	25.02
582.516	25
582.71	24.81
582.904	24.66
583.099	24.7
583.293	24.41
583.487	24.61
583.681	24.91
583.875	24.89
584.07	24.88
584.264	24.8
584.458	24.7
584.652	24.8
584.846	24.76
585.04	25.03
585.234	25.18
585.428	25.44
585.623	25.39
585.817	25.3
586.011	25.37
586.205	25.59
586.399	25.63
586.593	25.68
586.787	25.66
586.981	25.76
587.174	25.73
587.368	25.65
587.562	25.57
587.756	25.73
587.95	25.95
588.144	25.92
588.338	25.91
588.532	26.04
588.725	26.11
588.919	26.11
589.113	26.2
589.307	26.26
589.501	26.3
589.694	26.31
589.888	26.41
590.082	26.45
590.275	26.74
590.469	26.65
590.663	26.36
590.856	26.63
591.05	26.94
591.244	27
591.437	27.05
591.631	27.27
591.824	27.3
592.018	27.43
592.212	27.2
592.405	26.92
592.599	27.12
592.792	27.42
592.986	27.5
593.179	27.47
593.372	27.45
593.566	27.64
593.759	27.52
593.953	27.6
594.146	27.43
594.339	27.71
594.533	27.83
594.726	27.81
594.92	27.98
595.113	27.83
595.306	27.55
595.499	27.59
595.693	27.63
595.886	27.7
596.079	27.98
596.272	28.07
596.466	28.01
596.659	28.05
596.852	28.03
597.045	28.15
597.238	28.15
597.431	28.41
597.624	28.4
597.818	28.43
598.011	28.43
598.204	28.26
598.397	28.34
598.59	28.31
598.783	28.39
598.976	28.6
599.169	28.47
599.362	28.57
599.555	28.68
599.748	28.86
599.941	28.55
600.134	28.84
600.326	29.04
600.519	29.07
600.712	29.1
600.905	29.02
601.098	29.07
601.291	29
601.483	29.13
601.676	28.97
601.869	29.21
602.062	29.54
602.255	29.24
602.447	29.26
602.64	29.34
602.833	29.69
603.025	29.53
603.218	29.48
603.411	29.79
603.603	29.79
603.796	30.02
603.989	29.99
604.181	29.97
604.374	30.16
604.566	30.25
604.759	30.04
604.951	29.88
605.144	30.15
605.336	30.13
605.529	29.96
605.721	29.94
605.914	29.8
606.106	29.89
606.299	29.95
606.491	30.09
606.683	30.16
606.876	30.32
607.068	30.35
607.26	30.34
607.453	30.48
607.645	30.44
607.837	30.53
608.03	30.82
608.222	30.63
608.414	30.52
608.606	30.37
608.799	30.42
608.991	30.6
609.183	30.53
609.375	30.65
609.567	30.64
609.759	30.78
609.952	30.82
610.144	30.7
610.336	30.72
610.528	30.63
610.72	30.53
610.912	30.38
611.104	30.39
611.296	30.62
611.488	30.45
611.68	30.51
611.872	30.46
612.064	30.37
612.256	30.29
612.448	30.47
612.64	30.62
612.832	30.77
613.023	30.78
613.215	30.64
613.407	30.54
613.599	30.59
613.791	30.58
613.983	30.53
614.174	30.96
614.366	30.94
614.558	30.71
614.75	30.72
614.941	30.84
615.133	31.05
615.325	31.06
615.516	31.07
615.708	31.15
615.9	31.17
616.091	31.23
616.283	31.08
616.475	31.17
616.666	31.32
616.858	31.59
617.049	31.43
617.241	31.67
617.432	31.8
617.624	31.92
617.815	31.94
618.007	32.01
618.198	32.28
618.39	31.99
618.581	32.06
618.773	32.15
618.964	32.09
619.155	32.24
619.347	31.99
619.538	32.09
619.729	32.3
619.921	32.59
620.112	32.38
620.303	32.27
620.494	32.69
620.686	32.65
620.877	32.51
621.068	32.65
621.259	32.46
621.451	32.57
621.642	32.31
621.833	31.97
622.024	32.03
622.215	32.1
622.406	32.2
622.597	32.01
622.788	32.24
622.98	32.42
623.171	32.32
623.362	32.55
623.553	32.71
623.744	33.02
623.935	33.37
624.126	33.09
624.317	33.26
624.508	33.15
624.698	33.12
624.889	33.08
625.08	33.41
625.271	33.39
625.462	33.31
625.653	33.1
625.844	32.97
626.034	32.83
626.225	33
626.416	32.98
626.607	32.97
626.798	33.28
626.988	33.4
627.179	33.11
627.37	33.09
627.56	33.29
627.751	33.28
627.942	33.35
628.132	33.22
628.323	33.2
628.514	33.45
628.704	33.64
628.895	33.56
629.085	33.48
629.276	33.55
629.466	33.83
629.657	33.88
629.847	34.01
630.038	34.21
630.228	34.51
630.419	34.54
630.609	34.61
630.8	34.64
630.99	34.5
631.181	34.62
631.371	34.76
631.561	34.7
631.752	34.67
631.942	34.61
632.132	34.53
632.323	34.52
632.513	34.6
632.703	34.55
632.893	34.42
633.084	34.49
633.274	34.32
633.464	34.13
633.654	34.16
633.844	34.15
634.034	34.09
634.225	34.15
634.415	34.22
634.605	34.28
634.795	34.22
634.985	34.29
635.175	34.24
635.365	34.32
635.555	34.34
635.745	34.23
635.935	34.23
636.125	34.49
636.315	34.59
636.505	34.47
636.695	34.26
636.885	34.05
637.075	34.14
637.265	34.25
637.455	34.07
637.644	34.36
637.834	34.5
638.024	34.57
638.214	34.43
638.404	34.48
638.593	34.6
638.783	34.79
638.973	35.05
639.163	35
639.352	34.98
639.542	35.16
639.732	35.3
639.921	35.49
640.111	35.57
640.301	35.72
640.49	35.55
640.68	35.52
640.87	35.44
641.059	35.32
641.249	35.42
641.438	35.51
641.628	35.39
641.817	35.04
642.007	34.9
642.196	34.98
642.386	35.01
642.575	35.31
642.764	35.06
642.954	35.06
643.143	35.34
643.333	35.6
643.522	35.58
643.711	35.8
643.901	35.81
644.09	35.8
644.279	35.89
644.469	35.89
644.658	35.89
644.847	36.21
645.036	36.48
645.226	36.19
645.415	36.15
645.604	36.17
645.793	36.14
645.982	36.21
646.171	36.24
646.361	36.33
646.55	36.85
646.739	36.72
646.928	37
647.117	37.04
647.306	37.61
647.495	37.33
647.684	37.53
647.873	37.87
648.062	38.35
648.251	38.42
648.44	37.96
648.629	37.53
648.818	37.33
649.007	37.04
649.196	37.25
649.384	36.92
649.573	36.75
649.762	36.75
649.951	36.82
650.14	36.66
650.328	36.93
650.517	37.46
650.706	37.58
650.895	37.99
651.083	38.15
651.272	37.68
651.461	37.76
651.65	38.15
651.838	38.22
652.027	38.16
652.216	37.74
652.404	37.58
652.593	37.26
652.781	37.22
652.97	37.04
653.158	37.29
653.347	37.64
653.535	37.58
653.724	37.34
653.912	37.57
654.101	37.36
654.289	37.73
654.478	37.91
654.666	38.25
654.855	38.23
655.043	38.15
655.231	37.56
655.42	37.24
655.608	37.38
655.796	37.48
655.985	37.4
656.173	37.64
656.361	37.72
656.55	37.3
656.738	37.09
656.926	37.44
657.114	37.79
657.302	38.14
657.491	38.23
657.679	38.34
657.867	38.44
658.055	38.21
658.243	37.88
658.431	37.82
658.619	38.11
658.807	38.36
658.996	38.39
659.184	38.15
659.372	38.32
659.56	38.45
659.748	38.19
659.936	38.16
660.124	38.19
660.311	38.33
660.499	38.1
660.687	38.07
660.875	37.92
661.063	37.69
661.251	37.97
661.439	37.56
661.627	37.62
661.814	37.87
662.002	37.83
662.19	37.86
662.378	37.88
662.565	38.15
662.753	38.21
662.941	38.2
663.129	38.07
663.316	37.97
663.504	38.52
663.692	38.67
663.879	38.48
664.067	38.76
664.254	38.98
664.442	38.83
664.63	39.03
664.817	39.08
665.005	39.06
665.192	39.41
665.38	39.21
665.567	38.85
665.755	38.89
665.942	39.07
666.13	39.27
666.317	39.48
666.504	39.89
666.692	40.33
666.879	40.4
667.067	40.21
667.254	39.88
667.441	39.82
667.629	39.76
667.816	39.85
668.003	39.98
668.19	39.73
668.378	39.55
668.565	39.37
668.752	38.78
668.939	38.37
669.127	39.11
669.314	39.5
669.501	39.65
669.688	39.78
669.875	39.75
670.062	39.62
670.249	39.87
670.436	39.6
670.623	39.73
670.81	39.69
670.997	39.84
671.184	39.45
671.371	39.59
671.558	39.58
671.745	39.99
671.932	39.61
672.119	39.43
672.306	39.64
672.493	39.86
672.68	40.18
672.867	40.41
673.054	40.61
673.24	40.3
673.427	40.36
673.614	40.38
673.801	40.48
673.988	41.21
674.174	41.32
674.361	40.77
674.548	40.53
674.734	40.34
674.921	40.08
675.108	40.59
675.294	40.33
675.481	40.32
675.668	40.55
675.854	40.06
676.041	39.88
676.227	40.35
676.414	41.15
676.601	42
676.787	41.83
676.974	42.19
677.16	41.74
677.347	42.16
677.533	41.77
677.719	41.49
677.906	41.5
678.092	41.45
678.279	40.61
678.465	40.01
678.651	39.79
678.838	40.1
679.024	40.3
679.21	40.37
679.397	40.47
679.583	40.68
679.769	40.76
679.955	40.67
680.142	40.56
680.328	41.39
680.514	41.54
680.7	40.71
680.886	40.86
681.073	40.78
681.259	40.67
681.445	40.87
681.631	40.57
681.817	40.88
682.003	41.12
682.189	41.15
682.375	40.91
682.561	40.8
682.747	41.65
682.933	41.42
683.119	41.38
683.305	41.27
683.491	41.26
683.677	41.43
683.863	41.14
684.049	41.04
684.235	40.82
684.42	40.36
684.606	40.27
684.792	40.04
684.978	39.73
685.164	39.51
685.349	40.07
685.535	39.99
685.721	39.83
685.907	40.15
686.092	40.3
686.278	40.1
686.464	40.3
686.649	40.17
686.835	40.38
687.021	41.03
687.206	41.71
687.392	40.83
687.577	40.55
687.763	40.59
687.948	40.52
688.134	40.42
688.319	41.01
688.505	41.53
688.69	42.04
688.876	42.19
689.061	42.02
689.247	41.95
689.432	42.87
689.618	42.99
689.803	43.56
689.988	43.11
690.174	43.27
690.359	43.26
690.544	42.89
690.73	42.86
690.915	42.38
691.1	41.96
691.285	41.75
691.471	41.59
691.656	42.14
691.841	41.74
692.026	42.43
692.211	42.87
692.396	42.67
692.582	42.86
692.767	42.93
692.952	43.16
693.137	43.04
693.322	42.94
693.507	42.78
693.692	42.66
693.877	42.73
694.062	42.26
694.247	41.55
694.432	41.82
694.617	41.97
694.802	42.07
694.987	42.1
695.172	42.51
695.357	42.63
695.541	42.86
695.726	43.05
695.911	43.44
696.096	43.92
696.281	44.38
696.466	44.01
696.65	43.86
696.835	43.68
697.02	43.93
697.204	43.99
697.389	44.1
697.574	43.64
697.759	43.52
697.943	43.27
698.128	42.99
698.312	42.99
698.497	42.44
698.682	42.32
698.866	42.48
699.051	42.17
699.235	41.93
699.42	42.29
699.604	42.37
699.789	42.47
699.973	42.57
700.158	42.56
700.342	42.52
700.527	43.47
700.711	43.78
700.895	43.66
701.08	43.92
701.264	43.97
701.448	43.59
701.633	43.64
701.817	43.37
702.001	43.46
702.186	43.43
702.37	43.57
702.554	43.36
702.738	43.16
702.923	42.78
703.107	42.63
703.291	43.14
703.475	42.41
703.659	42.22
703.843	42.3
704.027	42.55
704.212	42.82
704.396	42.73
704.58	42.37
704.764	42.29
704.948	42.22
705.132	42.08
705.316	42.18
705.5	42.93
705.684	43.19
705.868	42.6
706.052	41.96
706.235	41.86
706.419	41.55
706.603	41.62
706.787	41.5
706.971	42.75
707.155	42.85
707.339	42.86
707.522	42.9
707.706	43
707.89	43.73
708.074	43.83
708.257	43.82
708.441	44.17
708.625	44.37
708.808	44.87
708.992	43.7
709.176	43.87
709.359	43.37
709.543	42.9
709.727	43.27
709.91	42.81
710.094	43.17
710.277	43.81
710.461	43.85
710.644	43.8
710.828	43.82
711.011	44.41
711.195	44.39
711.378	44.82
711.562	45.5
711.745	45.64
711.928	45.83
712.112	45.62
712.295	45.38
712.478	45.14
712.662	45.37
712.845	45.04
713.028	44.81
713.212	44.78
713.395	45.04
713.578	44.55
713.761	44.02
713.945	43.6
714.128	43.81
714.311	43.35
714.494	43.56
714.677	43.24
714.86	43.31
715.043	43.65
715.227	44.13
715.41	44.09
715.593	44.07
715.776	44.11
715.959	44.35
716.142	44.6
716.325	44.79
716.508	44.75
716.691	45.17
716.874	45.14
717.057	44.64
717.239	44.16
717.422	44.09
717.605	44.22
717.788	44.6
717.971	44.56
718.154	43.76
718.337	43.83
718.519	43.87
718.702	43.78
718.885	44
719.068	44.35
719.25	44.49
719.433	44.6
719.616	44.51
719.798	43.53
719.981	45.15
720.164	45.85
720.346	45.39
720.529	45.43
720.712	45.49
720.894	45.47
721.077	45.51
721.259	45
721.442	44.72
721.624	44.79
721.807	45.5
721.989	43.8
722.172	43.95
722.354	44.4
722.537	45.06
722.719	44.61
722.901	45.15
723.084	45.43
723.266	45.37
723.448	45.3
723.631	45.18
723.813	44.57
723.995	43.93
724.178	43.41
724.36	43.38
724.542	42.14
724.724	42.56
724.907	42.58
725.089	41.74
725.271	42.44
725.453	41.81
725.635	42.02
725.817	43.48
725.999	44.38
726.181	44.58
726.364	44.35
726.546	44.93
726.728	45.35
726.91	44.56
727.092	45.73
727.274	45.53
727.456	45.99
727.638	46.24
727.819	45.55
728.001	46.13
728.183	45.99
728.365	46.2
728.547	46.39
728.729	45.74
728.911	46.31
729.093	45.57
729.274	45
729.456	45.47
729.638	44.93
729.82	44.93
730.001	44.03
730.183	43.87
730.365	44.15
730.546	43.64
730.728	43.64
730.91	43.26
731.091	43.05
731.273	43.66
731.455	43.22
731.636	43.39
731.818	44.12
731.999	44.65
732.181	44.56
732.362	44.25
732.544	44.74
732.725	45.48
732.907	45.59
733.088	46.29
733.27	46.64
733.451	47.04
733.633	47.93
733.814	47.42
733.995	47.38
734.177	47.21
734.358	47.55
734.539	47.49
734.721	46.51
734.902	46.04
735.083	45.39
735.264	45.38
735.446	44.89
735.627	43.78
735.808	43.42
735.989	43.58
736.17	44.22
736.351	44.09
736.533	43.79
736.714	43.96
736.895	44.54
737.076	44.86
737.257	44.92
737.438	44.82
737.619	45.39
737.8	45.76
737.981	45.43
738.162	45.54
738.343	45.71
738.524	45.55
738.705	45.51
738.886	45.68
739.067	46.25
739.247	45.64
739.428	46.43
739.609	46.11
739.79	46.29
739.971	45.84
740.151	45.67
740.332	46.31
740.513	46.03
740.694	46.38
740.874	46.3
741.055	45.26
741.236	45.34
741.417	45.57
741.597	45.78
741.778	45.41
741.958	45.81
742.139	45.1
742.32	43.56
742.5	44.27
742.681	44.68
742.861	43.56
743.042	43.99
743.222	44.64
743.403	44.2
743.583	44.4
743.764	44.98
743.944	44.54
744.124	44.85
744.305	44.95
744.485	45.05
744.666	44.87
744.846	45.33
745.026	46.02
745.207	45.67
745.387	45.18
745.567	44.69
745.747	43.88
745.928	44.14
746.108	44.39
746.288	44.42
746.468	44.45
746.648	44.62
746.829	45
747.009	44.58
747.189	44.45
747.369	44.05
747.549	43.79
747.729	45
747.909	44.86
748.089	44.6
748.269	45.39
748.449	45.68
748.629	45.18
748.809	45.87
748.989	45.63
749.169	46.17
749.349	46.8
749.529	47.21
749.709	46.15
749.889	46.53
750.068	46.22
750.248	46.87
750.428	46.26
750.608	46.38
750.788	44.77
750.967	44.31
751.147	43.27
751.327	43.95
751.507	44.09
751.686	43.5
751.866	43.32
752.046	44.59
752.225	44.34
752.405	45
752.585	45.81
752.764	46
752.944	46.39
753.123	46.23
753.303	45.86
753.482	45.93
753.662	46.79
753.841	47.18
754.021	47.37
754.2	46.75
754.38	46.88
754.559	45.81
754.739	46.17
754.918	46.28
755.097	46.92
755.277	46.73
755.456	47.03
755.635	47.2
755.815	46.55
755.994	45.52
756.173	45.66
756.352	44.93
756.532	45.3
756.711	45.68
756.89	45.17
757.069	45.03
757.248	44.28
757.427	44.14
757.607	43.31
757.786	44.15
757.965	44.3
758.144	44.68
758.323	45.57
758.502	45.21
758.681	44.98
758.86	46.03
759.039	46.1
759.218	46.7
759.397	46.7
759.576	46.59
759.755	45.82
759.934	45.6
760.113	45.08
760.291	43.98
760.47	44.58
760.649	45.09
760.828	45.16
761.007	45.02
761.186	45.01
761.364	44.58
761.543	45.28
761.722	45.26
761.901	45.13
762.079	46.21
762.258	46.86
762.437	46.78
762.615	45.9
762.794	45.36
762.972	45.34
763.151	44.82
763.33	45.3
763.508	45.46
763.687	45.75
763.865	46.17
764.044	45.11
764.222	44.78
764.401	44.78
764.579	45.3
764.758	44.87
764.936	45.41
765.114	45.82
765.293	45.69
765.471	45.53
765.65	46.16
765.828	45.9
766.006	46.33
766.184	46.68
766.363	46.17
766.541	46.06
766.719	47.28
766.898	46.96
767.076	46.52
767.254	46.56
767.432	46.75
767.61	45.92
767.788	45.7
767.967	45.71
768.145	44.87
768.323	44.87
768.501	44.88
768.679	44.07
768.857	43.77
769.035	43.82
769.213	43.72
769.391	44.79
769.569	45.15
769.747	46.73
769.925	46.87
770.103	47.43
770.281	47.75
770.459	48.59
770.636	49.21
770.814	49.21
770.992	49.37
771.17	49.77
771.348	48.47
771.525	48.34
771.703	47.52
771.881	48.04
772.059	47.25
772.236	47.37
772.414	46.11
772.592	44.81
772.769	44.5
772.947	44.9
773.125	44.11
773.302	43.79
773.48	44.47
773.657	44.04
773.835	42.92
774.013	43.83
774.19	43.7
774.368	43.7
774.545	43.91
774.723	43.37
774.9	43.76
775.077	43.45
775.255	44.03
775.432	43.82
775.61	44.13
775.787	43.44
775.964	44.63
776.142	45.93
776.319	45.74
776.496	46.91
776.674	47.12
776.851	47.14
777.028	46.6
777.205	45.95
777.382	45.56
777.56	45.49
777.737	46.72
777.914	45.26
778.091	44.35
778.268	46.36
778.445	46.06
778.622	46.94
778.8	46.23
778.977	47.13
779.154	48.27
779.331	48.61
779.508	48.27
779.685	48.32
779.862	48.64
780.038	47.51
780.215	46.08
780.392	44.93
780.569	43.25
780.746	44.13
780.923	44.59
781.1	44.77
781.277	44.45
781.453	45.16
781.63	43.58
781.807	44.04
781.984	45.66
782.16	45.68
782.337	47.64
782.514	48.1
782.691	48.87
782.867	46.89
783.044	44.95
783.221	44.23
783.397	44.75
783.574	44.93
783.75	45.34
783.927	45
784.103	45.62
784.28	45.17
784.456	46.72
784.633	45.73
784.809	46.22
784.986	46.7
785.162	48.05
785.339	44.64
785.515	45.54
785.692	43.15
785.868	41.93
786.044	43.25
786.221	42.51
786.397	41.44
786.573	42.95
786.749	42.65
786.926	44.07
787.102	42.37
787.278	43.46
787.454	42.41
787.631	44.64
787.807	44.43
787.983	42.97
788.159	42.84
788.335	43.46
788.511	41.35
788.687	43.54
788.863	41.44
789.039	41.69
789.216	42.02
789.392	44.4
789.568	43.53
789.744	45.88
789.919	44.83
790.095	45.32
790.271	45.32
790.447	45.63
790.623	44.26
790.799	45.95
790.975	45.7
791.151	46.28
791.327	46.15
791.502	46.01
791.678	41.58
791.854	42.63
792.03	42.42
792.205	44.07
792.381	43.79
792.557	44.22
792.733	44.48
792.908	45.65
793.084	44.78
793.259	43.95
793.435	44.97
793.611	48.61
793.786	49.72
793.962	50.1
794.137	48.59
794.313	47.93
794.488	48.44
794.664	47.33
794.839	46.3
795.015	47.7
795.19	47.51
795.366	46.98
795.541	45.62
795.716	45.12
795.892	44.2
796.067	45.82
796.242	45.7
796.418	44.87
796.593	44.46
796.768	44.53
796.944	44.39
797.119	43.86
797.294	43.17
797.469	45.29
797.644	45.04
797.82	45.91
797.995	43.65
798.17	43.85
798.345	44.24
798.52	44.94
798.695	45.2
798.87	44.66
799.045	44.19
799.22	45.95
799.395	45.65
799.57	45.62
799.745	44.94
799.92	45.12
800.095	47.53
800.27	47.57
800.445	47.51
800.62	46.36
800.795	48.44
800.97	49.54
801.145	47.08
801.319	48.76
801.494	50.44
801.669	51.09
801.844	52.64
802.018	51.71
802.193	51.75
802.368	51.91
802.543	52.36
802.717	50.51
802.892	52.46
803.067	54.57
803.241	51.9
803.416	49.69
803.59	50.4
803.765	49.27
803.94	48.08
804.114	48.22
804.289	49.28
804.463	49.35
804.638	49.33
804.812	48.83
804.986	44.8
805.161	44.22
805.335	44.77
805.51	44.25
805.684	43.76
805.858	43.05
806.033	41.37
806.207	39.35
806.381	40.82
806.556	41.99
806.73	41.24
806.904	41.51
807.078	42.7
807.253	41.85
807.427	41.37
807.601	42.71
807.775	45.21
807.949	48.27
808.123	49.79
808.298	51.07
808.472	51.12
808.646	47.52
808.82	47.95
808.994	46.7
809.168	48.54
809.342	48.6
809.516	48.29
809.69	47.87
809.864	46.05
810.038	45.56
810.212	42.92
810.385	40.5
810.559	42.63
810.733	45.33
810.907	47.02
811.081	44.69
811.255	43.49
811.428	42.77
811.602	40.79
811.776	42.62
811.95	41.89
812.123	43.62
812.297	46.43
812.471	47.17
812.644	46.66
812.818	44.64
812.992	45.76
813.165	47.48
813.339	47.02
813.512	44.77
813.686	43.8
813.86	45.41
814.033	42.63
814.207	40.21
814.38	40.5
814.554	40.6
814.727	40.99
814.9	41.49
815.074	42.37
815.247	43.32
815.421	46.62
815.594	46.17
815.767	43.3
815.941	43.89
816.114	47.52
816.287	46.56
816.46	45.6
816.634	45.31
816.807	45.71
816.98	42.77
817.153	42.3
817.327	40.61
817.5	41.13
817.673	44.59
817.846	45.71
818.019	44.48
818.192	45.74
818.365	47.98
818.538	48.32
818.711	45.38
818.884	48.3
819.057	46.99
819.23	46.41
819.403	45.67
819.576	45.93
819.749	45.85
819.922	45.04
820.095	44.47
820.268	42.34
820.441	42.44
820.614	43.17
820.786	44.53
820.959	45.63
821.132	46.42
821.305	46.01
821.477	44.3
821.65	45.1
821.823	45.04
821.996	44.6
822.168	44.64
822.341	44.88
822.514	44.9
822.686	44.65
822.859	44.45
823.031	44.23
823.204	44.27
823.376	45.07
823.549	44.71
823.722	44.63
823.894	45.14
824.067	45.55
824.239	45.53
824.411	46.24
824.584	45.92
824.756	46.03
824.929	46.52
825.101	46.75
825.273	46.81
825.446	47.19
825.618	47.14
825.79	47.22
825.963	46.92
826.135	47.3
826.307	46.34
826.479	47.09
826.652	46.6
826.824	45.9
826.996	45.72
827.168	44.85
827.34	44.35
827.512	44.3
827.684	43.89
827.856	44.13
828.029	44.07
828.201	44.49
828.373	43.57
828.545	44.29
828.717	46.25
828.889	46.69
829.061	47.25
829.232	48.21
829.404	49.23
829.576	49.84
829.748	48.48
829.92	48.41
830.092	48.57
830.264	49.09
830.436	49.59
830.607	48.12
830.779	47.54
830.951	47.93
831.123	47.24
831.294	45.88
831.466	44.56
831.638	46.64
831.809	45.95
831.981	47.42
832.153	46.37
832.324	45.52
832.496	46.81
832.667	46.61
832.839	44.8
833.011	43.91
833.182	43.73
833.354	44.51
833.525	45.8
833.697	46.85
833.868	44.51
834.039	46.94
834.211	47.49
834.382	45.57
834.554	46.4
834.725	47.32
834.896	47.81
835.068	48.47
835.239	47.35
835.41	46.15
835.581	46.25
835.753	46.29
835.924	43.65
836.095	42.3
836.266	42.46
836.438	42.52
836.609	43.47
836.78	43.82
836.951	45.21
837.122	44.95
837.293	46.29
837.464	46.2
837.635	46.73
837.806	50.33
837.977	51.84
838.148	53.77
838.319	53.38
838.49	52.68
838.661	54.33
838.832	53.4
839.003	54.61
839.174	54.44
839.345	52.63
839.516	54.26
839.687	49.43
839.857	49.01
840.028	48.13
840.199	47.88
840.37	44.64
840.54	42.17
840.711	35.65
840.882	35.99
841.053	33.53
841.223	32.3
841.394	30.95
841.564	34.7
841.735	37.95
841.906	37
842.076	29.68
842.247	33.26
842.417	32.48
842.588	38.29
842.758	39.54
842.929	42.57
843.099	45.4
843.27	46.82
843.44	44.68
843.611	41.88
843.781	41.19
843.951	47
844.122	43.99
844.292	41.09
844.462	42.43
844.633	42.86
844.803	38.87
844.973	35.01
845.144	33.11
845.314	32.52
845.484	28.4
845.654	28.24
845.824	33.97
845.995	40.95
846.165	47.13
846.335	48.14
846.505	47.38
846.675	51.93
846.845	60.04
847.015	65.05
847.185	65.67
847.355	72.24
847.525	75.73
847.695	80.64
847.865	81.31
848.035	91.2
848.205	79.16
848.375	81.21
848.545	65.25
848.715	61.9
848.884	58.74
849.054	63.88
849.224	59.38
849.394	59.65
849.564	54.53
849.733	48.6
849.903	42.48
850.073	48.03
850.243	51
850.412	48.34
850.582	48.21
850.752	43.33
850.921	32.37
851.091	36.42
851.26	33.58
851.43	29.4
851.599	36.39
851.769	37.2
851.939	37.97
852.108	40.22
852.278	52
852.447	44.58
852.616	41.24
852.786	43.34
852.955	39.59
853.125	40.01
853.294	34.41
853.463	26.12
853.633	25.56
853.802	15.02
853.971	12.28
854.141	7.68
854.31	12.89
854.479	14.83
854.648	16.85
854.818	13.48
854.987	3.64
855.156	4.47
855.325	8.63
855.494	5.75
855.663	11.04
855.832	9.64
856.001	15.2
856.171	18.01
856.34	11.7
856.509	6.72
856.678	8.19
856.847	21.32
857.016	37.71
857.185	38.62
857.353	36.39
857.522	47.2
857.691	47.77
857.86	44.43
858.029	40.82
858.198	60.37
858.367	70.09
858.535	72.78
858.704	78.2
858.873	71.46
859.042	73.4
859.21	76.69
859.379	67.18
859.548	59.09
859.717	58.61
859.885	53.12
860.054	37.19
860.222	19.99
860.391	28.86
860.56	20.66
860.728	20.46
860.897	1.18
861.065	6.98
861.234	18.93
861.402	26.99
861.571	24.25
861.739	25.85
861.908	36.98
862.076	52.59
862.244	45.9
862.413	46.71
862.581	51.71
862.749	54.36
862.918	42.23
863.086	32.76
863.254	21.2
863.423	17.03
863.591	21.24
863.759	13.57
863.927	8.7
864.096	16.02
864.264	19.15
864.432	12.28
864.6	17.14
864.768	16.69
864.936	24.84
865.104	29.36
865.272	36.38
865.44	36.25
865.608	37.09
865.776	34.41
865.944	27.69
866.112	34.56
866.28	41.07
866.448	41.81
866.616	37.6
866.784	37.18
866.952	42.65
867.12	42.18
867.288	39.34
867.455	31.26
867.623	35.39
867.791	38.25
867.959	31.79
868.127	23.54
868.294	37.6
868.462	41.79
868.63	37
868.797	32.41
868.965	38.38
869.133	40.38
869.3	38.39
869.468	35.76
869.636	25.09
869.803	18.8
869.971	28.98
870.138	11.83
870.306	18.36
870.473	22.5
870.641	24.86
870.808	15.2
870.975	12.68
871.143	26.13
871.31	28.56
871.478	41.7
871.645	44.27
871.812	41.65
871.98	44.95
872.147	45.74
872.314	42.42
872.482	46.5
872.649	48.33
872.816	44.67
872.983	34.25
873.15	39.03
873.318	31.51
873.485	34.28
873.652	40.04
873.819	46.57
873.986	40.9
874.153	52.77
874.32	46.84
874.487	51.37
874.654	53.59
874.821	61.43
874.988	53.35
875.155	53.58
875.322	56.87
875.489	45.55
875.656	44.97
875.823	46.84
875.99	30.27
876.157	29.3
876.324	38.11
876.49	41.39
876.657	40.01
876.824	44.81
876.991	49.55
877.157	47.99
877.324	47.79
877.491	41.04
877.658	41.12
877.824	44.43
877.991	42.15
878.157	36.48
878.324	34.08
878.491	39.24
878.657	46.24
878.824	43.33
878.99	40.98
879.157	44.96
879.323	42.45
879.49	46.46
879.656	50.78
879.823	53.03
879.989	52.51
880.156	54.66
880.322	51.14
880.488	44.31
880.655	48.96
880.821	49.51
880.987	49.65
881.154	50.63
881.32	45.77
881.486	44.36
881.652	42.72
881.819	42.51
881.985	41.16
882.151	41.12
882.317	41.49
882.483	40.62
882.649	40.88
882.816	42.96
882.982	42.06
883.148	44.11
883.314	43.7
883.48	44.23
883.646	44.52
883.812	44.28
883.978	44.26
884.144	45.62
884.31	44.04
884.476	45.75
884.642	45.31
884.807	47.28
884.973	46.24
885.139	47
885.305	48.76
885.471	47.65
885.637	47.09
885.802	46.98
885.968	46.05
886.134	48.51
886.3	45.35
886.465	43.57
886.631	41.49
886.797	43.18
886.962	41.71
887.128	40.96
887.293	40.16
887.459	41.67
887.625	39.24
887.79	41.27
887.956	34.96
888.121	36.93
888.287	38.41
888.452	38.84
888.618	32.3
888.783	33.25
