Data from LC_158_Reflection_3.txt Node
Date: Mon Nov 16 22:28:55 EST 2015
User: robert
Spectrometer: USB4E03001
Autoset integration time: false
Trigger mode: 4
Integration Time (sec): 1.000000E-1
Scans to average: 15
Electric dark correction enabled: true
Nonlinearity correction enabled: false
Boxcar width: 5
Stray light correction enabled: false
XAxis mode: Wavelengths
Stop averaging: false
Number of Pixels in Spectrum: 3648
>>>>>Begin Spectral Data<<<<<
177.566	4149.4
177.785	323.01
178.005	-2755.46
178.225	113.07
178.445	281.56
178.665	188.36
178.885	652.94
179.105	755.14
179.324	1605.61
179.544	-51.94
179.764	-729.58
179.984	-211.81
180.204	-170.36
180.423	-213.91
180.643	-189.52
180.863	-164.4
181.083	-95.26
181.302	-132.71
181.522	-126.97
181.742	-98.29
181.961	-235.27
182.181	-253.47
182.401	-391.96
182.621	-1665.27
182.84	-679.49
183.06	-497.35
183.279	-308.65
183.499	-245.59
183.719	-215.85
183.938	-224.14
184.158	-259.41
184.377	-198.16
184.597	-241.72
184.816	-148.84
185.036	-102.32
185.256	-68.79
185.475	-97.81
185.695	-167.86
185.914	-274.4
186.134	-431.13
186.353	-609.01
186.572	-757.29
186.792	-998.01
187.011	-414.88
187.231	-398.52
187.45	-306.89
187.67	-846.19
187.889	-2074
188.108	3091.77
188.328	-761.23
188.547	-262.39
188.766	-453
188.986	-613.85
189.205	-461.26
189.424	-266.74
189.644	-902.38
189.863	-922.46
190.082	-566.61
190.302	-1363.28
190.521	-909.05
190.74	885.52
190.959	448.61
191.178	622.22
191.398	586.87
191.617	529.7
191.836	516.28
192.055	939.77
192.274	408.76
192.494	552
192.713	572.07
192.932	1206.95
193.151	981.78
193.37	1638.15
193.589	-999.92
193.808	-261.43
194.027	-273.41
194.246	-2967.88
194.465	637.27
194.685	1479.51
194.904	696.64
195.123	-950.71
195.342	-560.6
195.561	-257.69
195.78	-378.4
195.999	16630.99
196.218	587.97
196.436	601.95
196.655	-1760.97
196.874	-745.87
197.093	-1159.83
197.312	-978.54
197.531	2529.09
197.75	952.87
197.969	-3052.72
198.188	-659.55
198.407	-175.49
198.625	-221.67
198.844	-142.91
199.063	-174.84
199.282	-279.36
199.501	-144.31
199.719	-55.34
199.938	-6.29
200.157	0.37
200.376	16.16
200.594	25.82
200.813	-57.66
201.032	-13.98
201.251	-68.78
201.469	-59.3
201.688	-2.97
201.907	-60.7
202.125	-187.8
202.344	7061.9
202.563	1503.51
202.781	299.97
203	1010.17
203.218	623.81
203.437	506.43
203.656	226.64
203.874	146.71
204.093	186.11
204.311	214.19
204.53	169.96
204.748	231.02
204.967	116.26
205.185	72.52
205.404	68.02
205.622	57.64
205.841	57.11
206.059	56.18
206.278	6.89
206.496	-53.18
206.715	55.33
206.933	43.08
207.151	72.56
207.37	112.97
207.588	128.68
207.806	131.63
208.025	263.69
208.243	-507.24
208.461	591.33
208.68	-7712.94
208.898	382.52
209.116	380.59
209.335	486.99
209.553	536.84
209.771	5255.83
209.989	1113.23
210.208	2558.75
210.426	-4296.25
210.644	2529.64
210.862	-2911.73
211.081	1423.74
211.299	-703.81
211.517	2782.07
211.735	-636.18
211.953	-214371.43
212.171	-4124.4
212.39	-13378.38
212.608	-28834.78
212.826	1132.46
213.044	832.44
213.262	515.46
213.48	2924.47
213.698	325.15
213.916	501.03
214.134	305.46
214.352	554.1
214.57	343.68
214.788	392.83
215.006	390.14
215.224	313.44
215.442	257.88
215.66	259.31
215.878	192.8
216.096	190.27
216.314	189.81
216.532	403.85
216.75	353.95
216.968	351.29
217.185	845.93
217.403	1451.1
217.621	-4371.16
217.839	-1182.96
218.057	-1333.11
218.275	2412.35
218.492	715.91
218.71	1047.62
218.928	281.87
219.146	252.82
219.363	186.19
219.581	127.45
219.799	94.7
220.017	100.53
220.234	71.41
220.452	76.67
220.67	100.92
220.887	148.45
221.105	191.29
221.323	148.38
221.54	180.75
221.758	259.71
221.976	285.93
222.193	308.61
222.411	194.67
222.629	217.73
222.846	215.04
223.064	218.53
223.281	170.11
223.499	138.57
223.716	163.7
223.934	121.94
224.151	116.51
224.369	95.53
224.586	94.09
224.804	94.94
225.021	86.63
225.239	65.94
225.456	58.04
225.674	76.81
225.891	68.05
226.108	74.66
226.326	69.97
226.543	59.55
226.76	66.15
226.978	61.67
227.195	66.37
227.413	52.38
227.63	47.42
227.847	42.08
228.064	29.85
228.282	28.26
228.499	20.9
228.716	18.85
228.934	14.24
229.151	13.81
229.368	12.41
229.585	11.59
229.802	14.48
230.02	13.62
230.237	14.29
230.454	18.58
230.671	17.64
230.888	19.8
231.105	19.72
231.323	23.52
231.54	24.18
231.757	22.85
231.974	20.01
232.191	16.93
232.408	20.9
232.625	14.08
232.842	13.3
233.059	14.96
233.276	15.24
233.493	14.88
233.71	16.48
233.927	20.28
234.144	25.42
234.361	27.07
234.578	28.3
234.795	25.41
235.012	29.27
235.229	24.27
235.446	25.58
235.663	23.89
235.879	28.27
236.096	26.56
236.313	22.96
236.53	15.6
236.747	15.17
236.964	14.43
237.181	17.53
237.397	14.59
237.614	16.09
237.831	12.6
238.048	19.37
238.264	19.95
238.481	19.53
238.698	18.88
238.915	16.62
239.131	14.94
239.348	15
239.565	16.3
239.781	22.65
239.998	20.25
240.215	19.94
240.431	16.86
240.648	14.78
240.865	13.96
241.081	12.34
241.298	15.8
241.514	18.01
241.731	18.04
241.947	16.77
242.164	14.56
242.38	14.96
242.597	15.67
242.814	15.9
243.03	15.6
243.246	15.81
243.463	17.11
243.679	16.34
243.896	13.75
244.112	13.23
244.329	13.01
244.545	13.64
244.762	13.25
244.978	13.03
245.194	13.61
245.411	12.86
245.627	14.58
245.843	13.43
246.06	12.84
246.276	13.6
246.492	13.24
246.709	13.21
246.925	12.84
247.141	12.52
247.357	12.19
247.574	11.66
247.79	11.51
248.006	10.75
248.222	10.5
248.439	10.69
248.655	10.56
248.871	10.51
249.087	10.43
249.303	9.36
249.519	9.78
249.736	11.33
249.952	10.35
250.168	12.58
250.384	12.6
250.6	12.93
250.816	12.79
251.032	11.55
251.248	12.21
251.464	11.97
251.68	13.61
251.896	14.07
252.112	13.21
252.328	14.64
252.544	14.13
252.76	13.34
252.976	11.58
253.192	11.34
253.408	11.72
253.624	12.46
253.84	11.84
254.056	12.84
254.272	10.29
254.487	10.77
254.703	9.73
254.919	8.23
255.135	8.74
255.351	12.91
255.567	15.54
255.782	18.51
255.998	16.82
256.214	17.2
256.43	14.62
256.646	16.17
256.861	14.55
257.077	15.49
257.293	13.56
257.508	14.76
257.724	15.96
257.94	14.89
258.155	12.45
258.371	12.13
258.587	11.16
258.802	10.91
259.018	11.68
259.234	10.96
259.449	10.63
259.665	10.37
259.88	10.53
260.096	9.46
260.312	8.84
260.527	9.11
260.743	9.7
260.958	10.28
261.174	10.45
261.389	10.41
261.605	10.79
261.82	11.71
262.036	12.6
262.251	12.87
262.466	12.9
262.682	15.27
262.897	16.49
263.113	15.3
263.328	16.22
263.543	16.98
263.759	17.68
263.974	19.39
264.189	17.19
264.405	17.47
264.62	17.35
264.835	18.88
265.051	15.82
265.266	15.37
265.481	16.94
265.696	18.36
265.912	17.43
266.127	15.62
266.342	13.32
266.557	14.59
266.773	13.78
266.988	14.17
267.203	14.12
267.418	14.13
267.633	13.1
267.848	13.21
268.064	10.9
268.279	11.3
268.494	11.3
268.709	12.93
268.924	12.62
269.139	12.96
269.354	13.02
269.569	11.86
269.784	11.99
269.999	12.42
270.214	11.29
270.429	12.78
270.644	12.21
270.859	11.62
271.074	11.26
271.289	10.44
271.504	10.69
271.719	9.01
271.934	9.02
272.149	8.92
272.363	8.67
272.578	8.84
272.793	8.1
273.008	7.76
273.223	7.48
273.438	6.33
273.653	7.16
273.867	6.6
274.082	7.21
274.297	8.51
274.512	9.85
274.726	10.43
274.941	10.07
275.156	9.93
275.371	12.12
275.585	12.91
275.8	13.84
276.015	14.08
276.229	14.28
276.444	14.85
276.659	13.48
276.873	12.16
277.088	12.08
277.302	13.23
277.517	14.84
277.732	15.57
277.946	15.32
278.161	16.7
278.375	15.61
278.59	16.3
278.804	16.46
279.019	17.1
279.233	16.18
279.448	16.05
279.662	14.91
279.877	13.82
280.091	11.08
280.306	11.09
280.52	10.37
280.735	8.98
280.949	8.31
281.163	7.36
281.378	7.08
281.592	8.18
281.806	8.8
282.021	8.76
282.235	8.98
282.449	9.12
282.664	10.09
282.878	9.73
283.092	11.09
283.307	10.4
283.521	11.06
283.735	10.96
283.949	11.85
284.164	11.23
284.378	11.3
284.592	10.02
284.806	10.9
285.02	10.47
285.234	9.76
285.449	9.53
285.663	9.54
285.877	8.96
286.091	9.06
286.305	8.57
286.519	8.2
286.733	7.81
286.947	8.06
287.161	7.02
287.375	7.64
287.589	8.25
287.803	8.41
288.017	9.22
288.231	8.71
288.445	8.65
288.659	8.72
288.873	8.85
289.087	9.89
289.301	9.44
289.515	9.48
289.729	7.29
289.943	7.08
290.157	7.39
290.371	8.48
290.584	9.54
290.798	10.19
291.012	9.81
291.226	10.03
291.44	10.65
291.654	11.74
291.867	11.84
292.081	13.2
292.295	13.53
292.509	13.19
292.722	11.72
292.936	11.31
293.15	11.45
293.364	11.58
293.577	11.35
293.791	10.68
294.005	11.22
294.218	11.86
294.432	11.67
294.645	10.86
294.859	10.78
295.073	10.91
295.286	11.39
295.5	11.13
295.713	11.58
295.927	11.75
296.14	11.72
296.354	11.03
296.568	10.14
296.781	10.69
296.994	11.06
297.208	11.02
297.421	11.26
297.635	11.02
297.848	10.92
298.062	10.38
298.275	10.3
298.489	10.1
298.702	10.24
298.915	11.01
299.129	10.56
299.342	10.97
299.555	11.07
299.769	10.66
299.982	11.24
300.195	11.03
300.409	11.42
300.622	11.79
300.835	12.83
301.048	12.26
301.262	12.08
301.475	11.98
301.688	11.83
301.901	13.11
302.115	13.63
302.328	14.27
302.541	14.01
302.754	14.78
302.967	14.82
303.18	14.23
303.393	14.7
303.607	14.1
303.82	14.18
304.033	12.36
304.246	11.79
304.459	11.61
304.672	10.91
304.885	12
305.098	10.44
305.311	10.02
305.524	10.46
305.737	11.11
305.95	12.44
306.163	11.93
306.376	12.74
306.589	12.54
306.802	12.36
307.015	13.29
307.228	12.98
307.44	13.16
307.653	12.93
307.866	11.55
308.079	11.81
308.292	12.02
308.505	13.52
308.718	14.28
308.93	13.51
309.143	14.09
309.356	13.58
309.569	12.31
309.781	13.45
309.994	13.06
310.207	13.92
310.42	12.73
310.632	11.39
310.845	11.47
311.058	11.17
311.27	12.18
311.483	11.37
311.696	10.22
311.908	10.93
312.121	10.74
312.333	12.34
312.546	11.92
312.759	13.3
312.971	14.05
313.184	13.57
313.396	13.53
313.609	13.47
313.821	13.6
314.034	14.52
314.246	14.61
314.459	14.21
314.671	13.58
314.884	12.71
315.096	10.23
315.309	10.04
315.521	10.29
315.733	10.66
315.946	8.54
316.158	8.05
316.371	8.55
316.583	9.17
316.795	8.71
317.008	8.88
317.22	10.87
317.432	12.2
317.644	11.74
317.857	10.62
318.069	10.46
318.281	11.1
318.494	11.6
318.706	11.95
318.918	10.98
319.13	11.15
319.342	10.88
319.555	9.97
319.767	10.78
319.979	11.61
320.191	12.24
320.403	11.8
320.615	12.44
320.827	13.51
321.039	12.83
321.252	12.7
321.464	12.48
321.676	11.9
321.888	11.86
322.1	11.09
322.312	8.29
322.524	7.64
322.736	8.25
322.948	8.09
323.16	7.88
323.372	7.11
323.584	7.65
323.796	6.57
324.007	7.32
324.219	7.19
324.431	7.48
324.643	9.44
324.855	9.79
325.067	9.42
325.279	9.45
325.491	8.59
325.702	7.92
325.914	7.49
326.126	9.14
326.338	8.85
326.55	9.01
326.761	9.01
326.973	8.98
327.185	10.21
327.396	11.25
327.608	11.79
327.82	12.32
328.032	13.71
328.243	14.22
328.455	14.07
328.666	13.14
328.878	13.08
329.09	12.03
329.301	11.95
329.513	10.71
329.725	10.25
329.936	9.81
330.148	9.77
330.359	8.77
330.571	8.25
330.782	8.4
330.994	10.03
331.205	9.5
331.417	10.59
331.628	10.83
331.84	11.61
332.051	10.96
332.262	11.49
332.474	11.42
332.685	12.83
332.897	12.24
333.108	12.71
333.319	11.34
333.531	12.16
333.742	12.2
333.953	11.88
334.165	11.19
334.376	11.18
334.587	10.31
334.799	11.11
335.01	9.87
335.221	10.83
335.432	10.03
335.644	9.8
335.855	9.24
336.066	9.76
336.277	10.13
336.488	10.11
336.7	9.66
336.911	10.16
337.122	9
337.333	10.19
337.544	10.64
337.755	11.45
337.966	11.68
338.177	11.74
338.388	11.61
338.599	11.62
338.811	11.45
339.022	11.92
339.233	12.12
339.444	12.65
339.655	10.34
339.866	9.83
340.076	9.71
340.287	10.7
340.498	10.85
340.709	9.94
340.92	9.81
341.131	9.9
341.342	9.92
341.553	9.26
341.764	9.26
341.975	10.26
342.185	10.17
342.396	9.63
342.607	9.22
342.818	9.25
343.029	9.57
343.239	9.1
343.45	9.27
343.661	8.93
343.872	9.08
344.082	9.02
344.293	9.15
344.504	8.99
344.714	7.81
344.925	7.13
345.136	7.25
345.346	6.4
345.557	7.14
345.768	6.54
345.978	6.6
346.189	7.06
346.399	6.88
346.61	8.07
346.821	8.44
347.031	10.03
347.242	9.78
347.452	9.25
347.663	10.2
347.873	10.05
348.084	10.16
348.294	10.86
348.504	10.32
348.715	10.58
348.925	8.94
349.136	8.08
349.346	6.52
349.557	6.62
349.767	7.44
349.977	7.08
350.188	7.57
350.398	8.3
350.608	7.92
350.819	7.84
351.029	7.44
351.239	8.38
351.449	9.17
351.66	10.18
351.87	11.79
352.08	11.59
352.29	11.49
352.501	10.69
352.711	10.5
352.921	10.75
353.131	11.22
353.341	11.88
353.552	11.1
353.762	10.03
353.972	10.19
354.182	10.03
354.392	9.34
354.602	9.26
354.812	9.71
355.022	9.47
355.232	8.72
355.442	8.94
355.652	8.61
355.862	8.8
356.072	9.94
356.282	9.8
356.492	9.38
356.702	8.91
356.912	9.95
357.122	9.54
357.332	9.81
357.542	9.84
357.752	9.59
357.962	9.25
358.171	9.12
358.381	9.44
358.591	8.99
358.801	9.26
359.011	10.71
359.221	9.98
359.43	10.25
359.64	10.26
359.85	10.58
360.06	10.27
360.269	10.36
360.479	10.43
360.689	9.59
360.899	9.74
361.108	9.29
361.318	8.78
361.528	8.29
361.737	7.84
361.947	7.39
362.156	7.6
362.366	7.64
362.576	7.65
362.785	7.28
362.995	6.96
363.204	6.9
363.414	6.64
363.623	6.58
363.833	7.15
364.042	7.47
364.252	7.69
364.461	7.14
364.671	6.87
364.88	7.22
365.09	8.26
365.299	9.01
365.509	8.72
365.718	8.68
365.927	8.85
366.137	8.44
366.346	8.7
366.555	8.45
366.765	8.24
366.974	8.6
367.183	8.16
367.393	7.01
367.602	5.83
367.811	6.08
368.021	6.2
368.23	6.03
368.439	6.37
368.648	6.37
368.857	6.61
369.067	7.22
369.276	7.21
369.485	7.66
369.694	7.89
369.903	8.9
370.112	8.91
370.321	8.73
370.531	8
370.74	7.91
370.949	7.42
371.158	7.46
371.367	7.62
371.576	7.64
371.785	7.04
371.994	7.36
372.203	7.24
372.412	7.2
372.621	7.82
372.83	8.75
373.039	9.06
373.248	9.09
373.457	9.17
373.666	8.7
373.874	8.42
374.083	8.91
374.292	8.75
374.501	8.38
374.71	8.02
374.919	7.79
375.128	7.31
375.336	7.27
375.545	7.45
375.754	6.91
375.963	7.06
376.171	7.3
376.38	7.34
376.589	7.37
376.798	7.24
377.006	7.72
377.215	7.75
377.424	7.93
377.632	7.91
377.841	7.98
378.05	8.25
378.258	8.04
378.467	7.86
378.675	7.57
378.884	7.56
379.093	8.01
379.301	7.65
379.51	7.48
379.718	7.2
379.927	6.91
380.135	6.09
380.344	6.1
380.552	6.29
380.761	6.41
380.969	6.43
381.177	6.49
381.386	5.84
381.594	5.81
381.803	5.52
382.011	5.64
382.219	5.35
382.428	5.56
382.636	5.34
382.845	5.12
383.053	5.02
383.261	5.21
383.469	5.18
383.678	5.77
383.886	5.56
384.094	5.49
384.302	5.47
384.511	6.07
384.719	6.41
384.927	6.75
385.135	6.73
385.343	6.99
385.552	6.77
385.76	6.66
385.968	6.35
386.176	6.44
386.384	6.28
386.592	5.9
386.8	5.45
387.008	5.71
387.216	5.62
387.424	5.58
387.633	5.58
387.841	5.46
388.049	5.5
388.257	5.49
388.465	5.66
388.672	6.03
388.88	6.21
389.088	6.49
389.296	5.94
389.504	5.85
389.712	6.1
389.92	5.64
390.128	5.61
390.336	5.31
390.544	5.75
390.751	5.35
390.959	5.22
391.167	5.4
391.375	5.43
391.583	5.2
391.79	5.29
391.998	5.06
392.206	5.09
392.414	4.97
392.621	5.01
392.829	4.99
393.037	5.07
393.244	5.15
393.452	5.24
393.66	5.31
393.867	5.74
394.075	5.48
394.283	5.6
394.49	5.62
394.698	5.7
394.905	5.7
395.113	5.26
395.32	5.41
395.528	5.23
395.735	5.28
395.943	4.76
396.15	4.59
396.358	5.02
396.565	5.05
396.773	5.4
396.98	5.42
397.188	5.54
397.395	5.86
397.602	5.67
397.81	5.58
398.017	5.44
398.225	5.5
398.432	5.79
398.639	5.47
398.847	5.49
399.054	5.04
399.261	4.9
399.468	4.95
399.676	4.57
399.883	4.69
400.09	5.1
400.297	5.15
400.505	5.34
400.712	5.11
400.919	5.2
401.126	5.2
401.333	5.41
401.54	5.55
401.748	5.69
401.955	5.99
402.162	5.93
402.369	5.76
402.576	5.65
402.783	5.51
402.99	5.45
403.197	5.27
403.404	5.08
403.611	4.91
403.818	5.12
404.025	4.93
404.232	4.64
404.439	4.7
404.646	4.49
404.853	4.42
405.06	4.45
405.267	4.42
405.474	4.28
405.681	4.31
405.887	4.41
406.094	4.11
406.301	4.15
406.508	4.27
406.715	4.49
406.922	4.52
407.128	4.47
407.335	4.49
407.542	4.52
407.749	4.84
407.955	5.01
408.162	4.93
408.369	5.16
408.575	5.16
408.782	5.06
408.989	4.88
409.195	4.93
409.402	5
409.609	5.14
409.815	5.36
410.022	5.27
410.228	5.17
410.435	5.09
410.642	4.77
410.848	4.85
411.055	4.98
411.261	5.18
411.468	5.34
411.674	5.23
411.881	4.94
412.087	4.84
412.294	4.9
412.5	4.57
412.706	4.64
412.913	4.75
413.119	4.63
413.326	4.49
413.532	4.27
413.738	4.13
413.945	4.28
414.151	4.3
414.357	4.12
414.564	3.89
414.77	4.21
414.976	4.2
415.182	4.48
415.389	4.54
415.595	4.43
415.801	4.26
416.007	4.45
416.214	4.59
416.42	4.66
416.626	4.63
416.832	4.73
417.038	4.48
417.244	4.55
417.45	4.23
417.657	4.16
417.863	4.54
418.069	4.7
418.275	4.63
418.481	4.39
418.687	4.24
418.893	4.33
419.099	4.26
419.305	4.46
419.511	4.38
419.717	4.53
419.923	4.42
420.129	4.26
420.335	4.3
420.541	4.29
420.746	4.46
420.952	4.62
421.158	4.54
421.364	4.57
421.57	4.52
421.776	4.56
421.982	4.47
422.187	4.41
422.393	4.35
422.599	4.14
422.805	4.11
423.01	3.96
423.216	3.81
423.422	3.86
423.628	3.86
423.833	3.81
424.039	3.92
424.245	4.01
424.45	4.26
424.656	4.28
424.862	4.36
425.067	4.45
425.273	4.43
425.478	4.51
425.684	4.47
425.889	4.6
426.095	4.72
426.301	4.57
426.506	4.49
426.712	4.37
426.917	4.4
427.123	4.5
427.328	4.29
427.533	4.41
427.739	4.45
427.944	4.37
428.15	4.21
428.355	4.02
428.561	4.05
428.766	3.97
428.971	3.98
429.177	4.17
429.382	4.17
429.587	4.33
429.793	4.37
429.998	4.24
430.203	4.41
430.408	4.42
430.614	4.61
430.819	4.53
431.024	4.75
431.229	4.6
431.434	4.46
431.64	4.28
431.845	4.25
432.05	4.24
432.255	4.23
432.46	4.12
432.665	4.07
432.87	4
433.076	4.15
433.281	4.16
433.486	4.16
433.691	4.01
433.896	3.94
434.101	4
434.306	4.01
434.511	4.04
434.716	4.15
434.921	4.16
435.126	4.14
435.331	3.96
435.535	3.87
435.74	3.86
435.945	4.02
436.15	4.21
436.355	4.15
436.56	4.23
436.765	4.4
436.97	4.12
437.174	4.15
437.379	4.06
437.584	4.28
437.789	4.22
437.993	4.31
438.198	4.39
438.403	4.34
438.608	4.46
438.812	4.07
439.017	3.91
439.222	4.01
439.426	3.99
439.631	4.13
439.836	4
440.04	4.13
440.245	4.12
440.45	4.03
440.654	4.01
440.859	3.87
441.063	3.95
441.268	3.93
441.472	4
441.677	4.01
441.881	3.74
442.086	3.78
442.29	3.59
442.495	3.56
442.699	3.67
442.904	3.66
443.108	3.67
443.312	3.81
443.517	3.88
443.721	3.87
443.925	3.84
444.13	4.11
444.334	4.04
444.538	4.07
444.743	4.05
444.947	3.85
445.151	3.75
445.356	3.69
445.56	3.63
445.764	3.61
445.968	3.61
446.173	3.6
446.377	3.56
446.581	3.58
446.785	3.55
446.989	3.51
447.193	3.51
447.398	3.5
447.602	3.57
447.806	3.63
448.01	3.73
448.214	3.78
448.418	3.81
448.622	3.92
448.826	3.96
449.03	4.06
449.234	4.23
449.438	4.26
449.642	4.34
449.846	4.41
450.05	4.37
450.254	4.24
450.458	4.37
450.662	4.23
450.866	4.2
451.069	4.08
451.273	3.96
451.477	3.83
451.681	3.75
451.885	3.66
452.089	3.64
452.292	3.76
452.496	3.79
452.7	3.52
452.904	3.63
453.107	3.63
453.311	3.74
453.515	3.76
453.719	3.6
453.922	3.7
454.126	3.76
454.33	3.76
454.533	3.57
454.737	3.44
454.94	3.42
455.144	3.51
455.348	3.37
455.551	3.17
455.755	3.02
455.958	3.15
456.162	3.11
456.365	3.23
456.569	3.07
456.772	3.11
456.976	3.26
457.179	3.52
457.383	3.51
457.586	3.7
457.79	3.75
457.993	3.9
458.196	3.86
458.4	3.89
458.603	3.73
458.807	3.86
459.01	3.93
459.213	3.79
459.417	3.62
459.62	3.63
459.823	3.44
460.026	3.48
460.23	3.6
460.433	3.75
460.636	3.78
460.839	3.91
461.042	3.86
461.246	3.89
461.449	4
461.652	4.13
461.855	3.99
462.058	4.04
462.261	3.89
462.464	3.71
462.668	3.65
462.871	3.67
463.074	3.74
463.277	3.57
463.48	3.59
463.683	3.55
463.886	3.43
464.089	3.38
464.292	3.52
464.495	3.74
464.698	3.82
464.901	3.76
465.104	3.78
465.306	3.74
465.509	3.97
465.712	3.85
465.915	3.92
466.118	3.94
466.321	4
466.524	3.9
466.726	3.99
466.929	4.07
467.132	4.16
467.335	3.93
467.538	3.66
467.74	3.57
467.943	3.65
468.146	3.65
468.348	3.7
468.551	3.77
468.754	3.78
468.956	3.63
469.159	3.52
469.362	3.52
469.564	3.5
469.767	3.62
469.969	3.75
470.172	3.51
470.375	3.39
470.577	3.43
470.78	3.47
470.982	3.48
471.185	3.42
471.387	3.47
471.59	3.35
471.792	3.7
471.995	3.64
472.197	3.5
472.399	3.49
472.602	3.49
472.804	3.39
473.007	3.38
473.209	3.31
473.411	3.38
473.614	3.42
473.816	3.46
474.018	3.37
474.22	3.57
474.423	3.64
474.625	3.71
474.827	3.8
475.03	3.79
475.232	3.82
475.434	3.89
475.636	4
475.838	3.98
476.04	3.97
476.243	3.85
476.445	3.78
476.647	3.78
476.849	3.82
477.051	3.77
477.253	3.87
477.455	3.94
477.657	3.85
477.859	3.7
478.061	3.65
478.263	3.62
478.465	3.72
478.667	3.72
478.869	3.56
479.071	3.51
479.273	3.46
479.475	3.26
479.677	3.25
479.879	3.28
480.081	3.32
480.283	3.17
480.485	3.05
480.686	3.01
480.888	3.02
481.09	3.08
481.292	3.15
481.494	3.19
481.695	3.34
481.897	3.21
482.099	3.19
482.301	3.26
482.502	3.29
482.704	3.4
482.906	3.35
483.107	3.3
483.309	3.28
483.511	3.34
483.712	3.32
483.914	3.27
484.115	3.25
484.317	3.21
484.519	3.18
484.72	3.21
484.922	3.15
485.123	3.19
485.325	3.19
485.526	3.23
485.728	3.14
485.929	3.12
486.131	3.14
486.332	3.18
486.534	3.18
486.735	3.21
486.936	3.18
487.138	3.14
487.339	3.08
487.541	3.13
487.742	3.12
487.943	3.19
488.144	3.16
488.346	3.1
488.547	3.12
488.748	3.2
488.95	3.15
489.151	3.21
489.352	3.3
489.553	3.33
489.755	3.24
489.956	3.18
490.157	3.16
490.358	3.22
490.559	3.38
490.76	3.34
490.961	3.26
491.163	3.31
491.364	3.31
491.565	3.19
491.766	3.28
491.967	3.33
492.168	3.32
492.369	3.28
492.57	3.27
492.771	3.22
492.972	3.22
493.173	3.3
493.374	3.24
493.575	3.22
493.776	3.32
493.976	3.28
494.177	3.24
494.378	3.38
494.579	3.27
494.78	3.52
494.981	3.44
495.182	3.48
495.382	3.38
495.583	3.38
495.784	3.44
495.985	3.48
496.185	3.42
496.386	3.32
496.587	3.37
496.788	3.46
496.988	3.37
497.189	3.41
497.39	3.47
497.59	3.48
497.791	3.54
497.992	3.48
498.192	3.42
498.393	3.47
498.593	3.57
498.794	3.43
498.994	3.53
499.195	3.39
499.395	3.46
499.596	3.5
499.796	3.52
499.997	3.51
500.197	3.56
500.398	3.6
500.598	3.6
500.799	3.56
500.999	3.6
501.199	3.41
501.4	3.54
501.6	3.47
501.801	3.51
502.001	3.57
502.201	3.74
502.402	3.79
502.602	3.79
502.802	3.84
503.002	3.93
503.203	3.99
503.403	4.09
503.603	4.06
503.803	4.08
504.003	4.02
504.204	4.02
504.404	3.85
504.604	3.68
504.804	3.72
505.004	3.69
505.204	3.83
505.404	3.9
505.604	4.03
505.804	3.83
506.005	3.71
506.205	3.69
506.405	3.69
506.605	3.91
506.805	4.07
507.005	4.17
507.204	4.17
507.404	4.13
507.604	4.07
507.804	3.93
508.004	4.13
508.204	4.36
508.404	4.39
508.604	4.38
508.804	4.22
509.003	4.26
509.203	4.19
509.403	4.12
509.603	4.14
509.803	4.37
510.002	4.43
510.202	4.35
510.402	4.28
510.602	4.35
510.801	4.36
511.001	4.38
511.201	4.29
511.4	4.32
511.6	4.44
511.8	4.34
511.999	4.33
512.199	4.34
512.398	4.45
512.598	4.55
512.797	4.54
512.997	4.7
513.197	4.65
513.396	4.76
513.596	4.78
513.795	4.91
513.994	4.9
514.194	4.66
514.393	4.66
514.593	4.64
514.792	4.67
514.992	4.71
515.191	4.61
515.39	4.69
515.59	4.54
515.789	4.62
515.988	4.51
516.188	4.59
516.387	4.67
516.586	4.7
516.786	4.78
516.985	4.61
517.184	4.55
517.383	4.67
517.582	4.69
517.782	4.83
517.981	4.66
518.18	4.52
518.379	4.59
518.578	4.58
518.777	4.57
518.976	4.45
519.176	4.66
519.375	4.78
519.574	4.7
519.773	4.78
519.972	4.67
520.171	4.84
520.37	4.93
520.569	4.92
520.768	4.92
520.967	5.01
521.166	4.96
521.365	4.71
521.564	4.67
521.762	4.72
521.961	4.72
522.16	4.75
522.359	4.62
522.558	4.68
522.757	4.55
522.956	4.63
523.154	4.51
523.353	4.71
523.552	4.79
523.751	4.75
523.949	4.65
524.148	4.55
524.347	4.7
524.546	4.78
524.744	4.68
524.943	4.84
525.142	4.78
525.34	4.94
525.539	4.86
525.737	4.96
525.936	5.04
526.135	5.1
526.333	5.14
526.532	5.16
526.73	5.21
526.929	5.21
527.127	5.14
527.326	5.22
527.524	5.22
527.723	5.23
527.921	5.2
528.12	5.15
528.318	5.13
528.516	5.16
528.715	5.16
528.913	5.13
529.112	5.17
529.31	5.18
529.508	5.14
529.707	5.1
529.905	5.15
530.103	5.16
530.301	5.13
530.5	5.15
530.698	5.2
530.896	5.18
531.094	5.27
531.293	5.32
531.491	5.47
531.689	5.56
531.887	5.65
532.085	5.73
532.283	5.74
532.481	5.8
532.68	5.78
532.878	5.7
533.076	5.73
533.274	5.66
533.472	5.7
533.67	5.63
533.868	5.57
534.066	5.52
534.264	5.48
534.462	5.48
534.66	5.54
534.858	5.63
535.056	5.69
535.253	5.64
535.451	5.69
535.649	5.69
535.847	5.82
536.045	5.91
536.243	6.05
536.441	6.14
536.638	6.19
536.836	6.19
537.034	6.24
537.232	6.24
537.43	6.41
537.627	6.52
537.825	6.49
538.023	6.45
538.22	6.64
538.418	6.53
538.616	6.56
538.813	6.61
539.011	6.71
539.209	6.75
539.406	6.83
539.604	6.94
539.801	7.11
539.999	7.24
540.196	7.39
540.394	7.3
540.591	7.38
540.789	7.38
540.986	7.36
541.184	7.4
541.381	7.35
541.579	7.34
541.776	7.27
541.974	7.17
542.171	7.17
542.368	7.08
542.566	7.12
542.763	7.2
542.96	7.19
543.158	7.28
543.355	7.3
543.552	7.41
543.75	7.52
543.947	7.51
544.144	7.52
544.341	7.61
544.539	7.72
544.736	7.86
544.933	7.79
545.13	7.84
545.327	7.81
545.524	7.88
545.722	7.99
545.919	7.99
546.116	8.09
546.313	8.18
546.51	8.22
546.707	8.29
546.904	8.15
547.101	8.23
547.298	8.33
547.495	8.37
547.692	8.27
547.889	8.12
548.086	8.2
548.283	8.33
548.48	8.54
548.677	8.46
548.874	8.57
549.07	8.79
549.267	8.87
549.464	8.89
549.661	9.02
549.858	9.29
550.055	9.62
550.251	9.64
550.448	9.63
550.645	9.66
550.842	9.88
551.038	9.81
551.235	9.68
551.432	9.7
551.628	9.87
551.825	10
552.022	10.05
552.218	10
552.415	10.13
552.612	10.04
552.808	9.92
553.005	9.86
553.201	10.12
553.398	10.24
553.594	10.48
553.791	10.5
553.987	10.69
554.184	10.8
554.38	10.8
554.577	10.77
554.773	11.17
554.97	11.35
555.166	11.56
555.362	11.48
555.559	11.52
555.755	11.57
555.952	11.59
556.148	11.5
556.344	11.38
556.541	11.4
556.737	11.49
556.933	11.4
557.129	11.29
557.326	11.38
557.522	11.5
557.718	11.78
557.914	11.7
558.11	11.79
558.307	11.87
558.503	12.01
558.699	12.11
558.895	12.4
559.091	12.41
559.287	12.6
559.483	12.56
559.679	12.66
559.876	12.59
560.072	12.82
560.268	12.82
560.464	12.75
560.66	12.81
560.856	13.12
561.052	13.1
561.247	13.24
561.443	13.35
561.639	13.42
561.835	13.47
562.031	13.59
562.227	13.66
562.423	13.83
562.619	14.07
562.815	14.24
563.01	14.22
563.206	14.2
563.402	14.16
563.598	14.15
563.793	14.13
563.989	13.97
564.185	13.99
564.381	14.22
564.576	14.17
564.772	14.11
564.968	14.14
565.163	14.06
565.359	13.94
565.555	14.3
565.75	14.42
565.946	14.57
566.141	14.64
566.337	14.67
566.532	14.67
566.728	14.83
566.923	15.05
567.119	14.93
567.314	15.15
567.51	15.62
567.705	15.54
567.901	15.55
568.096	15.65
568.292	15.99
568.487	16
568.682	15.92
568.878	16.04
569.073	16.02
569.268	16.29
569.464	16.28
569.659	16.15
569.854	16.2
570.05	16.32
570.245	16.42
570.44	16.51
570.635	16.78
570.831	16.91
571.026	16.93
571.221	17.05
571.416	17.07
571.611	17.08
571.806	17.18
572.002	17.29
572.197	17.45
572.392	17.37
572.587	17.41
572.782	17.38
572.977	17.45
573.172	17.66
573.367	17.57
573.562	17.72
573.757	17.73
573.952	17.8
574.147	17.92
574.342	18.04
574.537	18.29
574.732	18.22
574.927	18.26
575.121	18.45
575.316	18.32
575.511	18.45
575.706	18.49
575.901	18.65
576.096	18.81
576.29	18.97
576.485	18.84
576.68	19.03
576.875	19.02
577.069	19.26
577.264	19.08
577.459	19.32
577.654	19.43
577.848	19.58
578.043	19.71
578.238	19.64
578.432	19.4
578.627	19.65
578.821	19.63
579.016	19.77
579.21	19.9
579.405	20.04
579.6	19.99
579.794	20.22
579.989	20.09
580.183	20.18
580.378	20.2
580.572	20.46
580.766	20.4
580.961	20.44
581.155	20.75
581.35	20.52
581.544	20.6
581.738	20.65
581.933	20.69
582.127	21.06
582.321	21.23
582.516	21.3
582.71	21.35
582.904	21.33
583.099	21.21
583.293	21.1
583.487	21.5
583.681	21.67
583.875	21.79
584.07	21.83
584.264	21.64
584.458	21.54
584.652	21.55
584.846	21.46
585.04	21.61
585.234	21.77
585.428	21.8
585.623	21.56
585.817	21.56
586.011	21.69
586.205	21.79
586.399	21.99
586.593	22.15
586.787	22.36
586.981	22.41
587.174	22.64
587.368	22.56
587.562	22.65
587.756	22.77
587.95	22.8
588.144	22.71
588.338	22.86
588.532	22.66
588.725	22.7
588.919	22.67
589.113	22.87
589.307	22.96
589.501	23.1
589.694	23.36
589.888	23.46
590.082	23.61
590.275	23.71
590.469	23.83
590.663	23.87
590.856	23.83
591.05	24.05
591.244	23.9
591.437	23.84
591.631	23.9
591.824	23.78
592.018	23.91
592.212	23.91
592.405	23.9
592.599	23.65
592.792	23.81
592.986	24.1
593.179	24.18
593.372	24.4
593.566	24.36
593.759	24.44
593.953	24.68
594.146	24.6
594.339	24.72
594.533	24.91
594.726	25.08
594.92	25.01
595.113	24.85
595.306	24.61
595.499	24.5
595.693	24.55
595.886	24.63
596.079	24.53
596.272	24.5
596.466	24.52
596.659	24.51
596.852	24.38
597.045	24.42
597.238	24.53
597.431	24.71
597.624	24.66
597.818	24.67
598.011	24.62
598.204	24.56
598.397	24.78
598.59	24.68
598.783	24.8
598.976	24.86
599.169	25.03
599.362	25.27
599.555	25.34
599.748	25.95
599.941	26.13
600.134	26.18
600.326	26.53
600.519	26.49
600.712	26.63
600.905	26.53
601.098	26.78
601.291	26.76
601.483	26.44
601.676	26.56
601.869	26.3
602.062	26.32
602.255	26.36
602.447	26.21
602.64	26.18
602.833	26.27
603.025	26.45
603.218	26.47
603.411	26.43
603.603	26.32
603.796	26.27
603.989	26.28
604.181	26.17
604.374	26.26
604.566	26.23
604.759	26.14
604.951	26.05
605.144	25.89
605.336	25.95
605.529	26.04
605.721	26.14
605.914	26.06
606.106	26.16
606.299	26.15
606.491	26.34
606.683	26.54
606.876	26.75
607.068	27.08
607.26	27.3
607.453	27.29
607.645	27.34
607.837	27.5
608.03	27.79
608.222	27.61
608.414	27.86
608.606	27.83
608.799	27.72
608.991	27.69
609.183	27.5
609.375	27.58
609.567	27.36
609.759	27.38
609.952	27.31
610.144	27.32
610.336	27.47
610.528	27.54
610.72	27.47
610.912	27.61
611.104	27.82
611.296	27.91
611.488	27.84
611.68	28.28
611.872	28.43
612.064	28.92
612.256	29.02
612.448	29.14
612.64	29.01
612.832	29.14
613.023	29.24
613.215	29.4
613.407	29.51
613.599	29.74
613.791	29.68
613.983	29.56
614.174	29.16
614.366	29.23
614.558	29.23
614.75	29.29
614.941	29.33
615.133	29.39
615.325	29.24
615.516	29.08
615.708	28.74
615.9	28.46
616.091	28.62
616.283	28.96
616.475	28.69
616.666	28.58
616.858	28.75
617.049	28.48
617.241	28.44
617.432	28.7
617.624	29.12
617.815	29.53
618.007	29.9
618.198	30.15
618.39	29.97
618.581	30.06
618.773	30.15
618.964	30.05
619.155	30.47
619.347	30.33
619.538	30.12
619.729	29.98
619.921	30.22
620.112	30.2
620.303	29.93
620.494	30.1
620.686	30.18
620.877	30.18
621.068	30.19
621.259	29.96
621.451	30.26
621.642	30.15
621.833	29.86
622.024	29.49
622.215	29.47
622.406	29.75
622.597	29.67
622.788	29.79
622.98	30.03
623.171	30.23
623.362	30.57
623.553	30.64
623.744	30.72
623.935	31.1
624.126	31.16
624.317	31.09
624.508	31.02
624.698	31.08
624.889	31.3
625.08	31.33
625.271	31.53
625.462	31.32
625.653	31.01
625.844	31.04
626.034	30.84
626.225	30.77
626.416	30.71
626.607	30.74
626.798	30.82
626.988	30.64
627.179	30.53
627.37	30.21
627.56	30.3
627.751	30.48
627.942	30.61
628.132	30.59
628.323	30.68
628.514	30.9
628.704	30.68
628.895	30.64
629.085	30.68
629.276	30.72
629.466	31.02
629.657	31.2
629.847	31.27
630.038	31.17
630.228	31.39
630.419	31.56
630.609	31.43
630.8	31.65
630.99	31.59
631.181	31.87
631.371	31.8
631.561	31.72
631.752	31.67
631.942	31.6
632.132	31.67
632.323	31.83
632.513	31.69
632.703	31.76
632.893	31.78
633.084	31.84
633.274	31.47
633.464	31.43
633.654	31.45
633.844	31.4
634.034	31.28
634.225	31.47
634.415	31.34
634.605	31.44
634.795	31.58
634.985	31.69
635.175	31.94
635.365	32.17
635.555	32.58
635.745	32.63
635.935	32.63
636.125	33.05
636.315	33.19
636.505	33.27
636.695	33.13
636.885	32.98
637.075	33.06
637.265	33
637.455	33.01
637.644	33.07
637.834	33.31
638.024	33.16
638.214	32.9
638.404	33.02
638.593	33.3
638.783	33.68
638.973	34.36
639.163	34.27
639.352	34.32
639.542	34.47
639.732	34.38
639.921	34.31
640.111	34.95
640.301	35.01
640.49	34.66
640.68	34.56
640.87	34.6
641.059	34.35
641.249	34.79
641.438	34.57
641.628	34.47
641.817	34.41
642.007	34.69
642.196	34.22
642.386	34.38
642.575	34.88
642.764	34.77
642.954	34.46
643.143	34.75
643.333	34.77
643.522	35.03
643.711	35.1
643.901	35.17
644.09	35
644.279	35.64
644.469	35.5
644.658	35.2
644.847	35.15
645.036	35.1
645.226	34.89
645.415	34.64
645.604	34.6
645.793	34.74
645.982	34.82
646.171	34.7
646.361	34.72
646.55	35.11
646.739	35.03
646.928	35.22
647.117	35.62
647.306	35.52
647.495	35.57
647.684	35.7
647.873	35.66
648.062	35.78
648.251	36.07
648.44	35.8
648.629	35.56
648.818	35.47
649.007	35.21
649.196	35.16
649.384	35.33
649.573	34.99
649.762	34.7
649.951	35.1
650.14	35.01
650.328	35.16
650.517	35.25
650.706	35.16
650.895	35.59
651.083	35.88
651.272	35.64
651.461	35.34
651.65	35.76
651.838	36.04
652.027	35.57
652.216	35.31
652.404	35.08
652.593	35.17
652.781	35.34
652.97	35.24
653.158	35.15
653.347	35.83
653.535	36.3
653.724	36.11
653.912	36.16
654.101	36.38
654.289	36.83
654.478	36.99
654.666	36.99
654.855	37.38
655.043	37.24
655.231	37.33
655.42	37.01
655.608	36.87
655.796	36.97
655.985	37.06
656.173	36.92
656.361	36.73
656.55	36.8
656.738	36.78
656.926	36.59
657.114	36.83
657.302	36.94
657.491	36.55
657.679	36.22
657.867	36.1
658.055	36.17
658.243	36.19
658.431	36.28
658.619	36
658.807	35.92
658.996	35.9
659.184	35.62
659.372	35.55
659.56	35.72
659.748	35.66
659.936	35.9
660.124	35.7
660.311	35.77
660.499	35.82
660.687	36.15
660.875	36.29
661.063	36.15
661.251	36.25
661.439	36.15
661.627	36.65
661.814	36.98
662.002	36.72
662.19	36.77
662.378	36.8
662.565	37.15
662.753	37.06
662.941	37.29
663.129	37.55
663.316	37.89
663.504	38.03
663.692	38.1
663.879	38.65
664.067	39
664.254	39.35
664.442	39.28
664.63	38.8
664.817	38.76
665.005	38.54
665.192	38.85
665.38	38.88
665.567	38.82
665.755	38.72
665.942	38.61
666.13	39.09
666.317	39.3
666.504	39.45
666.692	39.74
666.879	39.96
667.067	40.06
667.254	39.51
667.441	39.19
667.629	39.5
667.816	39.29
668.003	38.95
668.19	38.46
668.378	38.08
668.565	38.08
668.752	37.98
668.939	37.7
669.127	37.77
669.314	37.95
669.501	38.83
669.688	38.65
669.875	38.87
670.062	39.05
670.249	39.2
670.436	39.21
670.623	39.4
670.81	39.26
670.997	39.53
671.184	38.99
671.371	39.13
671.558	38.65
671.745	38.98
671.932	38.88
672.119	38.76
672.306	38.94
672.493	39.37
672.68	39.02
672.867	39.82
673.054	39.64
673.24	39.91
673.427	40.09
673.614	40.2
673.801	40.44
673.988	40.77
674.174	40.92
674.361	40.86
674.548	40.81
674.734	41.03
674.921	40.71
675.108	40.8
675.294	40.66
675.481	40.46
675.668	40.29
675.854	39.82
676.041	39.42
676.227	39.53
676.414	39.42
676.601	39.42
676.787	39.74
676.974	39.69
677.16	40.14
677.347	40.5
677.533	40.64
677.719	40.48
677.906	40.1
678.092	40.22
678.279	39.5
678.465	39.25
678.651	39.35
678.838	39.42
679.024	39.38
679.21	38.64
679.397	38.71
679.583	38.75
679.769	38.74
679.955	38.81
680.142	38.77
680.328	39.56
680.514	39.7
680.7	39.14
680.886	38.93
681.073	38.89
681.259	39.05
681.445	39.21
681.631	39.11
681.817	38.95
682.003	39.23
682.189	39.13
682.375	38.9
682.561	38.91
682.747	39.34
682.933	39.22
683.119	39.2
683.305	39.49
683.491	39.29
683.677	39.5
683.863	40.08
684.049	40.25
684.235	40.5
684.42	40.45
684.606	40.84
684.792	41.34
684.978	41.62
685.164	41.91
685.349	42.04
685.535	42.36
685.721	42.05
685.907	41.63
686.092	41.84
686.278	41.66
686.464	41.42
686.649	41.17
686.835	40.83
687.021	41.03
687.206	41
687.392	40.68
687.577	40.56
687.763	40.47
687.948	40.62
688.134	40.75
688.319	41.13
688.505	41.77
688.69	41.99
688.876	41.93
689.061	42.07
689.247	41.9
689.432	42.13
689.618	42.24
689.803	42.69
689.988	43.09
690.174	43.17
690.359	43.05
690.544	42.6
690.73	43.16
690.915	43.04
691.1	42.51
691.285	42.64
691.471	42.84
691.656	42.72
691.841	42.31
692.026	42.39
692.211	42.21
692.396	41.94
692.582	42.65
692.767	42.5
692.952	42.53
693.137	42.89
693.322	42.94
693.507	42.94
693.692	43.11
693.877	43.73
694.062	43.32
694.247	43.39
694.432	44.17
694.617	44.37
694.802	44.15
694.987	44.23
695.172	44.39
695.357	44.45
695.541	44.34
695.726	44.41
695.911	44.6
696.096	44.64
696.281	44.38
696.466	43.91
696.65	43.11
696.835	43.22
697.02	43.1
697.204	42.72
697.389	42.73
697.574	42.45
697.759	42.15
697.943	41.42
698.128	41.28
698.312	41.34
698.497	41.02
698.682	40.91
698.866	40.57
699.051	40.66
699.235	40.6
699.42	40.61
699.604	41.03
699.789	41.22
699.973	41.57
700.158	41.74
700.342	41.68
700.527	42.14
700.711	43.06
700.895	43.43
701.08	43.77
701.264	44.17
701.448	44.14
701.633	44.14
701.817	43.94
702.001	44.15
702.186	44.27
702.37	45.09
702.554	44.64
702.738	44.01
702.923	44.29
703.107	44.86
703.291	45.06
703.475	45.25
703.659	45.25
703.843	45.85
704.027	46.11
704.212	46.12
704.396	45.73
704.58	46.25
704.764	46.57
704.948	45.86
705.132	45.06
705.316	44.88
705.5	45.14
705.684	45.4
705.868	45.29
706.052	45.07
706.235	45.06
706.419	44.86
706.603	45.22
706.787	44.69
706.971	45.42
707.155	45.6
707.339	45.99
707.522	45.96
707.706	45.43
707.89	45.56
708.074	45.89
708.257	46.21
708.441	46.95
708.625	46.89
708.808	47.7
708.992	47.27
709.176	47.07
709.359	46.95
709.543	46.84
709.727	47.33
709.91	46.77
710.094	46.4
710.277	46.58
710.461	45.8
710.644	45.45
710.828	44.71
711.011	44.68
711.195	44.79
711.378	44.54
711.562	44.18
711.745	44.04
711.928	44.03
712.112	43.63
712.295	43.6
712.478	43.9
712.662	44.42
712.845	44.78
713.028	44.76
713.212	44.62
713.395	44.76
713.578	45.26
713.761	45.08
713.945	45.03
714.128	45.85
714.311	45.82
714.494	45.23
714.677	45.12
714.86	45.07
715.043	45.46
715.227	46
715.41	45.76
715.593	44.99
715.776	44.99
715.959	45.02
716.142	45.09
716.325	44.85
716.508	45.81
716.691	46.28
716.874	46.39
717.057	45.9
717.239	45.67
717.422	45.8
717.605	46.56
717.788	46.97
717.971	47.71
718.154	47.35
718.337	47.05
718.519	46.92
718.702	46.7
718.885	46.26
719.068	46.59
719.25	46.82
719.433	46.78
719.616	46.71
719.798	45.93
719.981	46.55
720.164	47.03
720.346	47.43
720.529	47.89
720.712	48.06
720.894	49.01
721.077	49.3
721.259	49.32
721.442	50.21
721.624	50.77
721.807	51.41
721.989	50.18
722.172	50.18
722.354	50.57
722.537	50.21
722.719	49.51
722.901	49.62
723.084	50.13
723.266	49.83
723.448	49.54
723.631	48.75
723.813	48.77
723.995	48.92
724.178	48.75
724.36	48.09
724.542	47.56
724.724	47.91
724.907	47.75
725.089	47.21
725.271	47.69
725.453	47.09
725.635	47.37
725.817	48.26
725.999	48.91
726.181	48.58
726.364	48.91
726.546	49.29
726.728	49.06
726.91	48.77
727.092	48.77
727.274	48.4
727.456	49.24
727.638	49.43
727.819	48.31
728.001	47.94
728.183	48.86
728.365	48.64
728.547	48.25
728.729	47.88
728.911	48.05
729.093	48.17
729.274	47.79
729.456	47.49
729.638	47.04
729.82	47.97
730.001	47.95
730.183	47.61
730.365	48.48
730.546	48.15
730.728	47.67
730.91	47.18
731.091	47.44
731.273	46.88
731.455	46.44
731.636	46.61
731.818	46.35
731.999	46.48
732.181	45.86
732.362	45.11
732.544	45.68
732.725	46.63
732.907	46.39
733.088	46.62
733.27	48.31
733.451	48.64
733.633	49.82
733.814	49.53
733.995	49.83
734.177	50.47
734.358	50.58
734.539	50.55
734.721	50.5
734.902	51.4
735.083	50.47
735.264	50.41
735.446	50.24
735.627	48.63
735.808	48.39
735.989	48.48
736.17	48.64
736.351	49.1
736.533	49.16
736.714	48.86
736.895	48.96
737.076	49.33
737.257	48.17
737.438	47.66
737.619	48.95
737.8	49.74
737.981	50.1
738.162	49.84
738.343	50.32
738.524	50.04
738.705	50.12
738.886	49.9
739.067	49.72
739.247	50.17
739.428	50.99
739.609	50.13
739.79	50.2
739.971	49.03
740.151	49.12
740.332	48.89
740.513	48.55
740.694	49.44
740.874	49.14
741.055	49.48
741.236	49.79
741.417	50.2
741.597	50.36
741.778	50.11
741.958	50.96
742.139	50.98
742.32	51
742.5	51.5
742.681	51.94
742.861	51.31
743.042	51.6
743.222	51.53
743.403	51.71
743.583	52.14
743.764	52.44
743.944	52.5
744.124	52.58
744.305	52.22
744.485	52.64
744.666	51.26
744.846	52.54
745.026	52.77
745.207	52.52
745.387	52.95
745.567	54.25
745.747	53.88
745.928	54.46
746.108	55.49
746.288	56.44
746.468	57.34
746.648	58.42
746.829	58.65
747.009	58.77
747.189	59.39
747.369	58.85
747.549	57.37
747.729	57.8
747.909	56.27
748.089	55.55
748.269	54.09
748.449	53.63
748.629	52.63
748.809	51.86
748.989	51.86
749.169	51.53
749.349	51.19
749.529	51.32
749.709	50.14
749.889	50.68
750.068	50.18
750.248	51.26
750.428	51.56
750.608	52.61
750.788	53.33
750.967	52.19
751.147	52.59
751.327	52.4
751.507	52.14
751.686	53.43
751.866	54.3
752.046	55.21
752.225	55.1
752.405	55.34
752.585	54.85
752.764	54.32
752.944	55.29
753.123	54.91
753.303	55.12
753.482	56.09
753.662	56.08
753.841	54.73
754.021	55.13
754.2	55.71
754.38	54.63
754.559	54.52
754.739	53.88
754.918	53.37
755.097	53.69
755.277	54.03
755.456	54.02
755.635	54.03
755.815	55.18
755.994	54.64
756.173	54.44
756.352	55.03
756.532	54.61
756.711	55.64
756.89	55.14
757.069	55.87
757.248	54.92
757.427	53.68
757.607	54.04
757.786	53.86
757.965	52.94
758.144	53.68
758.323	53.79
758.502	54.62
758.681	53.88
758.86	55.01
759.039	53.8
759.218	54.89
759.397	55.99
759.576	54.77
759.755	54.56
759.934	54.92
760.113	54.3
760.291	53.16
760.47	52.74
760.649	53.3
760.828	53.62
761.007	53.54
761.186	52.48
761.364	51.59
761.543	51.38
761.722	50.71
761.901	50.66
762.079	50.33
762.258	50.8
762.437	50.68
762.615	50.52
762.794	49.78
762.972	49.28
763.151	49.25
763.33	48.77
763.508	49.22
763.687	48.74
763.865	48.2
764.044	47.3
764.222	47.01
764.401	46.67
764.579	46.19
764.758	46.01
764.936	46.57
765.114	46.39
765.293	46.94
765.471	47.16
765.65	48.26
765.828	49.76
766.006	51.1
766.184	51.63
766.363	52.17
766.541	52.35
766.719	53.41
766.898	53.86
767.076	54.91
767.254	55.07
767.432	55.81
767.61	55.89
767.788	55.58
767.967	55.1
768.145	55.47
768.323	55.38
768.501	55.87
768.679	54.83
768.857	54.3
769.035	54.76
769.213	55.95
769.391	56.04
769.569	56.45
769.747	57.14
769.925	57.66
770.103	56.99
770.281	57.87
770.459	59.37
770.636	60.55
770.814	60.95
770.992	60.75
771.17	60.61
771.348	59.54
771.525	59.48
771.703	57.81
771.881	57.95
772.059	58.69
772.236	58.32
772.414	58.7
772.592	58.11
772.769	58.53
772.947	57.28
773.125	56.05
773.302	56.27
773.48	56.71
773.657	57.87
773.835	55.96
774.013	56.11
774.19	56.83
774.368	54.3
774.545	54.51
774.723	54.66
774.9	55.61
775.077	56.57
775.255	56.93
775.432	56.8
775.61	55.43
775.787	55.71
775.964	56.06
776.142	56.21
776.319	58.06
776.496	59.51
776.674	58.7
776.851	59.56
777.028	59.28
777.205	58.52
777.382	58.6
777.56	59.84
777.737	63.39
777.914	64.49
778.091	64.53
778.268	64.65
778.445	64.18
778.622	64.56
778.8	64.29
778.977	63.89
779.154	70.35
779.331	68.8
779.508	69.28
779.685	67.82
779.862	66.65
780.038	66.34
780.215	66.6
780.392	65.08
780.569	65.69
780.746	65.12
780.923	66.2
781.1	61.65
781.277	61.07
781.453	59.85
781.63	58.97
781.807	58.85
781.984	57.83
782.16	57.81
782.337	58.47
782.514	57.99
782.691	60.74
782.867	59.12
783.044	57.46
783.221	59.42
783.397	60.06
783.574	59.86
783.75	61.85
783.927	63.9
784.103	62.84
784.28	63.66
784.456	63.59
784.633	61.08
784.809	63.04
784.986	62.53
785.162	64.1
785.339	63.64
785.515	65.12
785.692	61.66
785.868	61
786.044	62.57
786.221	60.82
786.397	61.23
786.573	61.52
786.749	61.74
786.926	63.85
787.102	60.86
787.278	61.57
787.454	59.28
787.631	60.3
787.807	61.59
787.983	59.43
788.159	59.27
788.335	59.02
788.511	58.12
788.687	57.41
788.863	55.95
789.039	54.93
789.216	53.72
789.392	55.55
789.568	55.64
789.744	54.96
789.919	55.95
790.095	56.05
790.271	56.69
790.447	58.61
790.623	58.34
790.799	60.42
790.975	62.05
791.151	63.14
791.327	63.08
791.502	63.07
791.678	60.96
791.854	60.25
792.03	62.35
792.205	63.42
792.381	63.67
792.557	65.28
792.733	63.64
792.908	64
793.084	61.83
793.259	61.81
793.435	61.4
793.611	63.36
793.786	65.65
793.962	64.58
794.137	62.37
794.313	60.01
794.488	58.58
794.664	59.42
794.839	58.54
795.015	62.02
795.19	61.38
795.366	61.02
795.541	59.13
795.716	55.89
795.892	57.22
796.067	57.12
796.242	56.49
796.418	57.7
796.593	58.67
796.768	60
796.944	58.87
797.119	58.77
797.294	58.9
797.469	61.52
797.644	64.08
797.82	63.96
797.995	63.47
798.17	63.47
798.345	63.11
798.52	61.73
798.695	62.63
798.87	62.44
799.045	62.92
799.22	66.18
799.395	66.2
799.57	65.65
799.745	64.8
799.92	66.59
800.095	70.86
800.27	71.18
800.445	71.72
800.62	69.91
800.795	71.06
800.97	70.97
801.145	67.51
801.319	67.31
801.494	68.27
801.669	69.03
801.844	69.21
802.018	65.47
802.193	65.32
802.368	64.94
802.543	66.07
802.717	64.83
802.892	65.68
803.067	66.69
803.241	64.73
803.416	64.81
803.59	64.48
803.765	64.96
803.94	67.7
804.114	66.5
804.289	67.17
804.463	65.39
804.638	64.84
804.812	66.49
804.986	63.88
805.161	65.03
805.335	64.34
805.51	62.86
805.684	58.38
805.858	56.24
806.033	54.96
806.207	52.95
806.381	52.88
806.556	53.61
806.73	52.32
806.904	54.62
807.078	53.92
807.253	53.33
807.427	54
807.601	55.24
807.775	57.78
807.949	61.16
808.123	63.32
808.298	64.18
808.472	65.51
808.646	63.54
808.82	62.64
808.994	62.78
809.168	62.46
809.342	63.74
809.516	64.97
809.69	62.68
809.864	60.24
810.038	62.21
810.212	62.78
810.385	60.24
810.559	61.06
810.733	62.33
810.907	62.7
811.081	62.67
811.255	62.22
811.428	62.67
811.602	62.98
811.776	63.83
811.95	61.44
812.123	61.73
812.297	63.87
812.471	64.99
812.644	66.02
812.818	66.36
812.992	67.12
813.165	67.51
813.339	65.54
813.512	64.64
813.686	67.54
813.86	67.81
814.033	69.09
814.207	67.32
814.38	66.07
814.554	64.73
814.727	65.38
814.9	65.52
815.074	66.21
815.247	69.86
815.421	67.93
815.594	65.01
815.767	61.47
815.941	60
816.114	62.11
816.287	63.65
816.46	62.7
816.634	63.58
816.807	65.93
816.98	63.7
817.153	64.05
817.327	66.57
817.5	65.72
817.673	68.84
817.846	65.76
818.019	66.24
818.192	62.86
818.365	59.77
818.538	58.02
818.711	55.75
818.884	56.17
819.057	53.71
819.23	54.11
819.403	53.75
819.576	51.96
819.749	53.31
819.922	52.3
820.095	52.7
820.268	53.75
820.441	53.54
820.614	51.94
820.786	50.11
820.959	50.01
821.132	47.64
821.305	46.56
821.477	46.09
821.65	45.43
821.823	44.21
821.996	42.51
822.168	42.48
822.341	42.25
822.514	42.43
822.686	42.27
822.859	41.88
823.031	42.12
823.204	42.38
823.376	42.13
823.549	42.18
823.722	42.35
823.894	43.74
824.067	43.85
824.239	43.84
824.411	43.79
824.584	44.26
824.756	44.59
824.929	44.85
825.101	45.2
825.273	45.78
825.446	45.58
825.618	45.28
825.79	44.67
825.963	44.97
826.135	44.72
826.307	44.46
826.479	44.79
826.652	44.53
826.824	44.38
826.996	44.09
827.168	44.07
827.34	44.82
827.512	45.2
827.684	44.49
827.856	44.19
828.029	44.97
828.201	45.51
828.373	45.22
828.545	45.32
828.717	45.83
828.889	45.96
829.061	46.78
829.232	47.45
829.404	47.86
829.576	50.03
829.748	50.44
829.92	50.73
830.092	51.11
830.264	51.44
830.436	51.48
830.607	52.63
830.779	53.08
830.951	52.42
831.123	51.57
831.294	51.97
831.466	50.98
831.638	50.89
831.809	50.34
831.981	51.75
832.153	52.88
832.324	54.32
832.496	54.88
832.667	56.52
832.839	57.3
833.011	57.94
833.182	57.86
833.354	58.58
833.525	61.01
833.697	60.38
833.868	57.63
834.039	56.96
834.211	55.69
834.382	53.35
834.554	52.7
834.725	51.95
834.896	51.7
835.068	51.13
835.239	50.19
835.41	48.4
835.581	48.58
835.753	49.83
835.924	49.69
836.095	50.1
836.266	51.68
836.438	52.04
836.609	52.17
836.78	52.54
836.951	54.9
837.122	55.47
837.293	56.92
837.464	57.64
837.635	58.03
837.806	57.97
837.977	59.28
838.148	59.02
838.319	60.14
838.49	60.65
838.661	60.93
838.832	59.11
839.003	59.82
839.174	59.69
839.345	59.52
839.516	63.2
839.687	64.72
839.857	63.73
840.028	64.91
840.199	60.82
840.37	61.95
840.54	61.01
840.711	60.1
840.882	61.47
841.053	61.88
841.223	59.94
841.394	55.98
841.564	58.98
841.735	62.18
841.906	58.87
842.076	55.59
842.247	60.71
842.417	60.43
842.588	62.59
842.758	63.63
842.929	63.25
843.099	67.49
843.27	66.54
843.44	63.73
843.611	65.1
843.781	65.06
843.951	67.04
844.122	63.17
844.292	69.33
844.462	70.93
844.633	69.54
844.803	70.62
844.973	73.48
845.144	77.11
845.314	82.01
845.484	78.57
845.654	83.3
845.824	92.6
845.995	93.27
846.165	86.72
846.335	88.58
846.505	91.9
846.675	90.98
846.845	87.32
847.015	92.47
847.185	92.94
847.355	91.33
847.525	99.74
847.695	104.99
847.865	103.29
848.035	114.38
848.205	100.38
848.375	101.72
848.545	90.9
848.715	100.94
848.884	99.38
849.054	93.88
849.224	104.42
849.394	94.68
849.564	88.38
849.733	96.17
849.903	93.6
850.073	105.48
850.243	96.6
850.412	101.08
850.582	95.67
850.752	91.43
850.921	89.01
851.091	88.28
851.26	92.4
851.43	93.06
851.599	87.51
851.769	87.49
851.939	81.75
852.108	88.3
852.278	95.98
852.447	88
852.616	86.97
852.786	88.38
852.955	75.88
853.125	80.19
853.294	80.07
853.463	83.01
853.633	80.69
853.802	84.44
853.971	88.29
854.141	87.16
854.31	91.18
854.479	88.96
854.648	95.79
854.818	96.99
854.987	88.22
855.156	86.55
855.325	80.42
855.494	86.41
855.663	88.13
855.832	78.64
856.001	77.83
856.171	77.86
856.34	79.48
856.509	66.14
856.678	73.29
856.847	95.32
857.016	94.81
857.185	92.58
857.353	89.7
857.522	92.69
857.691	101.93
857.86	99.12
858.029	93.66
858.198	93.25
858.367	107.13
858.535	108.32
858.704	99.61
858.873	95.07
859.042	100.51
859.21	98.68
859.379	94.28
859.548	81.96
859.717	92.45
859.885	97.49
860.054	102.71
860.222	95.05
860.391	99.58
860.56	82.87
860.728	92.39
860.897	87.85
861.065	77.17
861.234	81.81
861.402	89.94
861.571	87.31
861.739	90.65
861.908	88.12
862.076	91.17
862.244	91.66
862.413	98.52
862.581	102.93
862.749	97.82
862.918	102.22
863.086	95.43
863.254	94.43
863.423	86.79
863.591	82.72
863.759	87.03
863.927	85.58
864.096	83.52
864.264	82.24
864.432	78.22
864.6	81.94
864.768	81.78
864.936	90.98
865.104	88.41
865.272	90.1
865.44	94
865.608	88.06
865.776	89.37
865.944	88.77
866.112	92.87
866.28	89.13
866.448	87.83
866.616	78.54
866.784	72.11
866.952	80.22
867.12	86.1
867.288	83.1
867.455	81.44
867.623	86.88
867.791	81.44
867.959	84.35
868.127	79.93
868.294	89.6
868.462	94.14
868.63	95.77
868.797	96.49
868.965	91.69
869.133	92.85
869.3	93.08
869.468	87.18
869.636	87.66
869.803	83.54
869.971	103.78
870.138	93.39
870.306	93.69
870.473	96.43
870.641	84.47
870.808	76.06
870.975	77.42
871.143	85.66
871.31	88.98
871.478	104.68
871.645	96.61
871.812	89.43
871.98	96
872.147	98.81
872.314	97.02
872.482	99.03
872.649	104.96
872.816	100.04
872.983	95.22
873.15	94.65
873.318	87.67
873.485	101.54
873.652	95.67
873.819	101.51
873.986	114.72
874.153	110.79
874.32	115.12
874.487	122.78
874.654	113.48
874.821	122.82
874.988	113.7
875.155	109.55
875.322	103.1
875.489	111.45
875.656	104.18
875.823	81.21
875.99	70.71
876.157	69.72
876.324	64.73
876.49	72.64
876.657	61.32
876.824	60.13
876.991	69.86
877.157	66.52
877.324	65.27
877.491	67.34
877.658	80.31
877.824	88.79
877.991	87.74
878.157	96.32
878.324	90.7
878.491	99.79
878.657	118.59
878.824	110.14
878.99	113.35
879.157	122.35
879.323	114.19
879.49	107.66
879.656	114.57
879.823	111.8
879.989	104.21
880.156	107.51
880.322	99.16
880.488	88.33
880.655	87.19
880.821	84.2
880.987	78.29
881.154	77.56
881.32	75.39
881.486	67.41
881.652	67.67
881.819	64.52
881.985	61.09
882.151	62.59
882.317	58.3
882.483	55.82
882.649	58.03
882.816	56.07
882.982	52.1
883.148	52.32
883.314	49.7
883.48	51.09
883.646	51.63
883.812	49.95
883.978	48.8
884.144	49.21
884.31	47.92
884.476	48.27
884.642	49.06
884.807	52.18
884.973	51.64
885.139	52.68
885.305	50.99
885.471	49.74
885.637	49.57
885.802	50.25
885.968	49.57
886.134	51.77
886.3	49.08
886.465	47.09
886.631	45.22
886.797	47.48
886.962	46.47
887.128	47.35
887.293	47.71
887.459	49.38
887.625	46.62
887.79	52.68
887.956	50.5
888.121	53.49
888.287	53.44
888.452	51.99
888.618	45.31
888.783	55.74
