Data from LC_170_Reflection_3.txt Node
Date: Mon Nov 16 23:13:12 EST 2015
User: robert
Spectrometer: USB4E03001
Autoset integration time: false
Trigger mode: 4
Integration Time (sec): 1.000000E-1
Scans to average: 15
Electric dark correction enabled: true
Nonlinearity correction enabled: false
Boxcar width: 5
Stray light correction enabled: false
XAxis mode: Wavelengths
Stop averaging: false
Number of Pixels in Spectrum: 3648
>>>>>Begin Spectral Data<<<<<
177.566	4990.36
177.785	346.1
178.005	-3333.61
178.225	257.03
178.445	372.4
178.665	-393.84
178.885	322.41
179.105	1467.29
179.324	2767.29
179.544	-326.14
179.764	-1552.27
179.984	-451.75
180.204	-360.73
180.423	-421.42
180.643	-427.36
180.863	-328.36
181.083	-244.07
181.302	-352.58
181.522	-264.95
181.742	-218.99
181.961	-427.64
182.181	-372.25
182.401	-496.52
182.621	-2010.86
182.84	-922.01
183.06	-721.01
183.279	-395.59
183.499	-335.18
183.719	-274.04
183.938	-259.83
184.158	-322.12
184.377	-233.1
184.597	-295
184.816	-223.5
185.036	-180.52
185.256	-135.01
185.475	-149.56
185.695	-240.27
185.914	-346.34
186.134	-562.94
186.353	-763.72
186.572	-861.62
186.792	-1276.6
187.011	-604.49
187.231	-571.61
187.45	-384.21
187.67	-972.39
187.889	-2708.13
188.108	4614.56
188.328	-1237.31
188.547	-454.38
188.766	-798.46
188.986	-1052.21
189.205	-669.85
189.424	-373.86
189.644	-889.08
189.863	-961.43
190.082	-591.68
190.302	-1723.76
190.521	-881.5
190.74	826.35
190.959	386.21
191.178	628.37
191.398	579.85
191.617	554.95
191.836	593.41
192.055	1413.28
192.274	585.87
192.494	659.87
192.713	577.72
192.932	1320.05
193.151	1050.17
193.37	1866.53
193.589	-1182.47
193.808	-350.38
194.027	-355.49
194.246	-2896.09
194.465	597.52
194.685	1552.08
194.904	718.64
195.123	-815.62
195.342	-499.9
195.561	-256.53
195.78	-387.99
195.999	17404.23
196.218	507.32
196.436	550.83
196.655	-1938.86
196.874	-815.92
197.093	-1123.77
197.312	-973.44
197.531	3065.97
197.75	1031.75
197.969	-3394.56
198.188	-662.48
198.407	-150.29
198.625	-217.25
198.844	-198.75
199.063	-241.15
199.282	-489.48
199.501	-324.39
199.719	-206.41
199.938	-135.03
200.157	-135.71
200.376	-148.01
200.594	-218.29
200.813	-454.41
201.032	-312.62
201.251	-268.82
201.469	-224.86
201.688	-146.67
201.907	-328.96
202.125	-501.69
202.344	19028.57
202.563	3660.62
202.781	599.2
203	2026.1
203.218	1581.3
203.437	1392.03
203.656	679.45
203.874	406.75
204.093	367.26
204.311	382.36
204.53	393.13
204.748	604.23
204.967	392.3
205.185	419.01
205.404	423.14
205.622	282.68
205.841	240.71
206.059	251.77
206.278	332.97
206.496	871.08
206.715	544.7
206.933	491.35
207.151	434.5
207.37	451.4
207.588	420.51
207.806	436.96
208.025	930.82
208.243	-1797.22
208.461	3185.95
208.68	-27400
208.898	1160.66
209.116	1312.03
209.335	1164.22
209.553	1117.26
209.771	10765.83
209.989	2117.14
210.208	4365.97
210.426	-7562.8
210.644	3612.75
210.862	-2833.91
211.081	1333.38
211.299	-501.08
211.517	2245.65
211.735	-626.35
211.953	-198257.14
212.171	-4074.4
212.39	-12549.55
212.608	-24884.78
212.826	948.72
213.044	698.74
213.262	662.24
213.48	2979.96
213.698	412.77
213.916	514.44
214.134	359.24
214.352	764.98
214.57	480.61
214.788	565.14
215.006	493.73
215.224	439.22
215.442	336.78
215.66	275.55
215.878	235.62
216.096	209.56
216.314	203.41
216.532	375.57
216.75	270.03
216.968	280.56
217.185	692.8
217.403	1518.35
217.621	-4356.5
217.839	-1343.68
218.057	-1675.29
218.275	3284.76
218.492	1060.03
218.71	1804.91
218.928	515.59
219.146	530.29
219.363	429.07
219.581	342.92
219.799	256.15
220.017	230.11
220.234	218.18
220.452	246.42
220.67	251.33
220.887	250.33
221.105	286.86
221.323	206.34
221.54	183.44
221.758	219.71
221.976	249.32
222.193	257.74
222.411	188.32
222.629	190.26
222.846	173.17
223.064	195.62
223.281	182.48
223.499	156.23
223.716	177.6
223.934	147.34
224.151	139.39
224.369	121.11
224.586	115.93
224.804	123.12
225.021	125.49
225.239	115.44
225.456	106.34
225.674	90.62
225.891	72.71
226.108	81.5
226.326	88.72
226.543	76.66
226.76	73.55
226.978	63.98
227.195	70.18
227.413	56.25
227.63	46.47
227.847	43.29
228.064	39.22
228.282	34.51
228.499	28.82
228.716	23.5
228.934	21.32
229.151	22.19
229.368	22.79
229.585	19.05
229.802	20.01
230.02	20.96
230.237	21.1
230.454	23.23
230.671	27.9
230.888	28.86
231.105	32.24
231.323	34.31
231.54	35.92
231.757	35.75
231.974	39.04
232.191	39.8
232.408	45.46
232.625	40.48
232.842	36.38
233.059	34.1
233.276	36.37
233.493	34.49
233.71	35.96
233.927	32.54
234.144	33.01
234.361	30.35
234.578	34.64
234.795	29.93
235.012	37.54
235.229	40.61
235.446	39.5
235.663	38.89
235.879	40.57
236.096	40.6
236.313	43.13
236.53	43.65
236.747	45.84
236.964	43.09
237.181	45.37
237.397	44.28
237.614	46.79
237.831	46.64
238.048	45.78
238.264	45.83
238.481	43.79
238.698	42.38
238.915	42.74
239.131	41.8
239.348	42.87
239.565	42.17
239.781	39.65
239.998	36.1
240.215	34.93
240.431	33.11
240.648	32.75
240.865	29.4
241.081	27.05
241.298	25.76
241.514	24.38
241.731	22.12
241.947	20.29
242.164	18.48
242.38	16.66
242.597	15.42
242.814	16.13
243.03	13.89
243.246	13.79
243.463	13.65
243.679	14.05
243.896	12.5
244.112	14.21
244.329	15.12
244.545	15.19
244.762	15.72
244.978	18.47
245.194	17.27
245.411	17.89
245.627	17.99
245.843	17.17
246.06	16.26
246.276	17.12
246.492	15.16
246.709	14.11
246.925	13.61
247.141	13.99
247.357	13.08
247.574	13.05
247.79	13.42
248.006	13.68
248.222	13.55
248.439	13.69
248.655	14.12
248.871	14.7
249.087	15.42
249.303	15.29
249.519	16.47
249.736	17.94
249.952	16.4
250.168	19.41
250.384	19.49
250.6	20.94
250.816	21.02
251.032	18.23
251.248	16.78
251.464	15.3
251.68	17.2
251.896	15.89
252.112	16.42
252.328	18.84
252.544	16
252.76	15.63
252.976	15.04
253.192	14.43
253.408	15.14
253.624	19.13
253.84	19.9
254.056	19.96
254.272	19.6
254.487	19.71
254.703	20.41
254.919	20.31
255.135	18.53
255.351	20.89
255.567	20.96
255.782	24.24
255.998	19.31
256.214	21.1
256.43	21.42
256.646	22.19
256.861	20.49
257.077	19.51
257.293	19.69
257.508	19.82
257.724	19.13
257.94	19.18
258.155	15.71
258.371	15.21
258.587	12.28
258.802	11.05
259.018	10.77
259.234	9.78
259.449	9.81
259.665	9.31
259.88	10.41
260.096	9.93
260.312	8.75
260.527	8.88
260.743	9.23
260.958	10.1
261.174	9.77
261.389	10.27
261.605	11.46
261.82	11.61
262.036	12.67
262.251	13.36
262.466	13.59
262.682	16.88
262.897	17.85
263.113	16.8
263.328	17.03
263.543	19.01
263.759	18.71
263.974	17.61
264.189	16.96
264.405	16.39
264.62	16.73
264.835	18.54
265.051	16.47
265.266	17.44
265.481	18.79
265.696	19.12
265.912	18.97
266.127	17.76
266.342	17.22
266.557	16.95
266.773	17.15
266.988	15.26
267.203	14.56
267.418	14.14
267.633	14.18
267.848	14.47
268.064	12.33
268.279	12.18
268.494	11.92
268.709	12.53
268.924	13.77
269.139	14.13
269.354	14.12
269.569	12.72
269.784	13.61
269.999	13.51
270.214	12.84
270.429	16.92
270.644	16.13
270.859	16.06
271.074	15.35
271.289	14.06
271.504	13.47
271.719	13.49
271.934	14.13
272.149	13.37
272.363	12.94
272.578	11.66
272.793	9.42
273.008	9.07
273.223	8.66
273.438	9.05
273.653	9.67
273.867	9.71
274.082	10
274.297	10.07
274.512	11
274.726	10.86
274.941	13.41
275.156	14.55
275.371	16.3
275.585	17.49
275.8	18.58
276.015	18.11
276.229	18
276.444	17.33
276.659	17.18
276.873	16.13
277.088	17.27
277.302	16.65
277.517	16.74
277.732	17.38
277.946	17.63
278.161	17.36
278.375	17.71
278.59	16.68
278.804	16.39
279.019	16.8
279.233	16.6
279.448	15.43
279.662	14.78
279.877	14.06
280.091	11.74
280.306	9.96
280.52	9.4
280.735	7.73
280.949	7.92
281.163	8.83
281.378	7.72
281.592	7.05
281.806	8.44
282.021	7.88
282.235	8.58
282.449	9.04
282.664	10.59
282.878	10.59
283.092	12.56
283.307	11.96
283.521	12.01
283.735	12.23
283.949	14.01
284.164	12.08
284.378	13.11
284.592	12.33
284.806	11.86
285.02	10.8
285.234	10.34
285.449	8.82
285.663	9.46
285.877	9.39
286.091	9.71
286.305	8.4
286.519	9.21
286.733	7.26
286.947	6.19
287.161	6.36
287.375	7.2
287.589	7.66
287.803	9.53
288.017	9.59
288.231	8.7
288.445	8.57
288.659	9.82
288.873	8.82
289.087	10.67
289.301	12.47
289.515	12.4
289.729	10.62
289.943	10.55
290.157	9.44
290.371	10.78
290.584	11.19
290.798	12.06
291.012	12.45
291.226	12.61
291.44	13.1
291.654	13.29
291.867	13.56
292.081	14.42
292.295	14.08
292.509	14.71
292.722	13.8
292.936	13.83
293.15	13.79
293.364	12.43
293.577	13.23
293.791	13.32
294.005	13.59
294.218	13.52
294.432	13.84
294.645	13.96
294.859	12.94
295.073	13.1
295.286	14.21
295.5	13.64
295.713	14.54
295.927	14.92
296.14	14.11
296.354	13.17
296.568	13.66
296.781	13.73
296.994	13.8
297.208	13.91
297.421	13.75
297.635	12.38
297.848	12.03
298.062	11.52
298.275	11.03
298.489	11.64
298.702	11.94
298.915	11.47
299.129	11.9
299.342	11.81
299.555	12.71
299.769	12.7
299.982	13.73
300.195	14.3
300.409	14.43
300.622	15.02
300.835	15.88
301.048	15.68
301.262	16.01
301.475	15.07
301.688	15.35
301.901	15.68
302.115	15.74
302.328	15.78
302.541	16.18
302.754	17.37
302.967	18.14
303.18	17.02
303.393	17.43
303.607	17.48
303.82	18.74
304.033	19.19
304.246	18.48
304.459	19.18
304.672	19.53
304.885	18.91
305.098	17.12
305.311	16.27
305.524	17.38
305.737	17.44
305.95	17.48
306.163	15.58
306.376	14.36
306.589	14.35
306.802	13.48
307.015	14.23
307.228	14.69
307.44	15.86
307.653	15.74
307.866	14.2
308.079	15.98
308.292	17.04
308.505	19.48
308.718	20.42
308.93	20.18
309.143	19.68
309.356	18.84
309.569	18.16
309.781	19.09
309.994	19.24
310.207	19.63
310.42	18.66
310.632	17.45
310.845	15.88
311.058	14.62
311.27	14.84
311.483	15.3
311.696	14.73
311.908	15.47
312.121	14.56
312.333	14.98
312.546	14.25
312.759	13.75
312.971	13.65
313.184	14.96
313.396	15.14
313.609	15.52
313.821	15.6
314.034	16.74
314.246	16.53
314.459	16.9
314.671	16.56
314.884	16.81
315.096	15.86
315.309	17.06
315.521	17.29
315.733	17.69
315.946	17.15
316.158	18.38
316.371	18.16
316.583	19.25
316.795	18.42
317.008	19.06
317.22	21.51
317.432	23.25
317.644	23.79
317.857	22.76
318.069	23.47
318.281	23.41
318.494	22.71
318.706	23.54
318.918	22.78
319.13	23.82
319.342	24.31
319.555	22.57
319.767	23.19
319.979	22.44
320.191	23.32
320.403	24.29
320.615	25.06
320.827	25.68
321.039	24.78
321.252	25
321.464	24.86
321.676	24.13
321.888	23.92
322.1	22.91
322.312	22.18
322.524	21.36
322.736	20.79
322.948	19.99
323.16	19.18
323.372	20.12
323.584	19.74
323.796	19.51
324.007	19.47
324.219	20.01
324.431	20.68
324.643	21.44
324.855	21.67
325.067	22.35
325.279	22.52
325.491	22.57
325.702	21.87
325.914	22.92
326.126	23.86
326.338	24.29
326.55	24.88
326.761	25.35
326.973	25.85
327.185	26.77
327.396	27.17
327.608	29.34
327.82	29.9
328.032	30.92
328.243	31.06
328.455	32.25
328.666	32.56
328.878	33.03
329.09	32.64
329.301	32.81
329.513	33.23
329.725	32.67
329.936	32.34
330.148	32.99
330.359	32.83
330.571	33.05
330.782	31.69
330.994	32.72
331.205	32.77
331.417	33.11
331.628	34
331.84	34.37
332.051	34.71
332.262	35.05
332.474	34.5
332.685	35.98
332.897	35.4
333.108	36.77
333.319	36.88
333.531	36.89
333.742	37.93
333.953	37.48
334.165	37.93
334.376	38.54
334.587	38.23
334.799	39.1
335.01	37.81
335.221	38.98
335.432	38.3
335.644	37.55
335.855	38.35
336.066	38.53
336.277	38.85
336.488	38.97
336.7	38.89
336.911	39.72
337.122	39.9
337.333	40.81
337.544	40.36
337.755	41.04
337.966	42.24
338.177	42.79
338.388	42.71
338.599	43.44
338.811	42.85
339.022	43.24
339.233	42.94
339.444	43.05
339.655	42.49
339.866	43.16
340.076	43.13
340.287	43.11
340.498	42.86
340.709	42.23
340.92	42.18
341.131	42.79
341.342	42.42
341.553	42.72
341.764	42.77
341.975	43.62
342.185	43.88
342.396	43.74
342.607	43.61
342.818	43.29
343.029	43.88
343.239	43.86
343.45	44.2
343.661	44.28
343.872	43.11
344.082	43.31
344.293	43.37
344.504	44.82
344.714	44.02
344.925	43.98
345.136	44.16
345.346	42.67
345.557	42.64
345.768	41.61
345.978	41.7
346.189	42.94
346.399	42.87
346.61	42.41
346.821	41.02
347.031	42.16
347.242	41.91
347.452	41.51
347.663	43.07
347.873	42.83
348.084	43.54
348.294	43.72
348.504	42.49
348.715	42.78
348.925	42.28
349.136	42.14
349.346	40.64
349.557	40.89
349.767	41.28
349.977	41.33
350.188	41.78
350.398	42.48
350.608	41.68
350.819	42.2
351.029	41.84
351.239	42.12
351.449	41.88
351.66	43.13
351.87	43.48
352.08	43.69
352.29	43.09
352.501	42.18
352.711	41.31
352.921	41.91
353.131	41.61
353.341	41.58
353.552	41.7
353.762	41.42
353.972	40.83
354.182	40.71
354.392	40.15
354.602	39.91
354.812	40.34
355.022	40.66
355.232	40.74
355.442	41.35
355.652	41.06
355.862	40.37
356.072	40.48
356.282	40.6
356.492	40.67
356.702	40.57
356.912	41.17
357.122	41.11
357.332	40.95
357.542	39.95
357.752	39.88
357.962	39.71
358.171	39.63
358.381	39.62
358.591	39.77
358.801	39.47
359.011	39.61
359.221	39.59
359.43	39.94
359.64	39.57
359.85	39.91
360.06	39.44
360.269	39.73
360.479	39.77
360.689	39.26
360.899	38.54
361.108	38.25
361.318	38.13
361.528	37.75
361.737	37.32
361.947	37.56
362.156	37.65
362.366	37.53
362.576	37.41
362.785	37.56
362.995	37.76
363.204	38.36
363.414	38.35
363.623	38.47
363.833	38.82
364.042	38.64
364.252	38.5
364.461	38.63
364.671	38.73
364.88	38.91
365.09	39.13
365.299	39.26
365.509	38.55
365.718	38.34
365.927	38.03
366.137	37.9
366.346	37.91
366.555	37.55
366.765	36.99
366.974	37.4
367.183	37.25
367.393	36.92
367.602	36.96
367.811	37.33
368.021	37.46
368.23	37.39
368.439	37.2
368.648	36.95
368.857	37.13
369.067	37.17
369.276	36.64
369.485	36.22
369.694	36.55
369.903	36.52
370.112	36.6
370.321	36.09
370.531	36.05
370.74	35.75
370.949	35.88
371.158	35.79
371.367	36.25
371.576	35.99
371.785	36.28
371.994	35.81
372.203	35.4
372.412	35.12
372.621	35.49
372.83	35.51
373.039	35.4
373.248	34.96
373.457	34.58
373.666	34
373.874	33.95
374.083	34.21
374.292	34.26
374.501	34.07
374.71	34.02
374.919	33.98
375.128	33.74
375.336	33.97
375.545	34.14
375.754	34.24
375.963	34.41
376.171	34.23
376.38	33.27
376.589	32.95
376.798	32.93
377.006	32.97
377.215	33.23
377.424	33.28
377.632	33.03
377.841	33
378.05	32.88
378.258	32.57
378.467	32.38
378.675	32.57
378.884	32.63
379.093	32.56
379.301	32.03
379.51	31.64
379.718	31.53
379.927	31.23
380.135	30.61
380.344	30.02
380.552	30.11
380.761	30.69
380.969	30.55
381.177	30.58
381.386	29.97
381.594	30.18
381.803	29.74
382.011	29.78
382.219	29.94
382.428	29.84
382.636	29.9
382.845	29.98
383.053	29.54
383.261	29.52
383.469	29.12
383.678	29.81
383.886	29.48
384.094	29.18
384.302	29.02
384.511	29.03
384.719	29.38
384.927	29.4
385.135	29.47
385.343	29.59
385.552	29.31
385.76	29.3
385.968	29.04
386.176	28.97
386.384	28.8
386.592	28.64
386.8	28.27
387.008	28.03
387.216	28.36
387.424	27.66
387.633	27.51
387.841	27.7
388.049	27.99
388.257	27.79
388.465	27.71
388.672	28.08
388.88	27.78
389.088	27.61
389.296	27.59
389.504	27.4
389.712	27.73
389.92	27.44
390.128	26.94
390.336	26.69
390.544	26.78
390.751	26.34
390.959	26.03
391.167	26.3
391.375	26.38
391.583	25.76
391.79	25.5
391.998	25.34
392.206	25.37
392.414	25.43
392.621	25.31
392.829	25.13
393.037	25.34
393.244	25.51
393.452	25.22
393.66	25.34
393.867	26.18
394.075	26.04
394.283	25.93
394.49	25.76
394.698	25.88
394.905	25.67
395.113	25.59
395.32	25.72
395.528	25.65
395.735	25.81
395.943	25.49
396.15	25.22
396.358	25.42
396.565	25.31
396.773	25.45
396.98	25.28
397.188	25.44
397.395	25.17
397.602	24.97
397.81	24.72
398.017	24.57
398.225	24.51
398.432	24.5
398.639	24.54
398.847	24.74
399.054	24.29
399.261	24.13
399.468	24.08
399.676	24.2
399.883	23.98
400.09	24.1
400.297	24
400.505	24.11
400.712	23.69
400.919	23.72
401.126	23.69
401.333	23.89
401.54	24.08
401.748	23.91
401.955	23.98
402.162	24.19
402.369	23.87
402.576	23.82
402.783	23.65
402.99	23.79
403.197	23.35
403.404	23.14
403.611	23.18
403.818	23.08
404.025	22.95
404.232	22.68
404.439	22.65
404.646	22.68
404.853	22.73
405.06	22.66
405.267	22.43
405.474	22.47
405.681	22.45
405.887	22.48
406.094	22.39
406.301	22.42
406.508	22.68
406.715	22.79
406.922	22.8
407.128	22.75
407.335	22.6
407.542	22.75
407.749	22.93
407.955	23.07
408.162	22.85
408.369	22.94
408.575	23.14
408.782	22.66
408.989	22.38
409.195	22.43
409.402	22.54
409.609	22.89
409.815	22.94
410.022	22.91
410.228	22.59
410.435	22.62
410.642	22.52
410.848	22.57
411.055	22.8
411.261	23.06
411.468	23.18
411.674	23.02
411.881	22.83
412.087	22.69
412.294	22.53
412.5	22.56
412.706	22.53
412.913	22.51
413.119	22.13
413.326	21.99
413.532	21.88
413.738	21.64
413.945	21.7
414.151	21.63
414.357	21.8
414.564	21.79
414.77	22.09
414.976	22.06
415.182	22.27
415.389	22.43
415.595	22.41
415.801	22.31
416.007	22.44
416.214	22.28
416.42	22.12
416.626	21.87
416.832	21.94
417.038	21.74
417.244	21.7
417.45	21.37
417.657	21.49
417.863	21.66
418.069	21.61
418.275	21.55
418.481	21.49
418.687	21.61
418.893	21.65
419.099	21.53
419.305	21.45
419.511	21.36
419.717	21.52
419.923	21.27
420.129	21.17
420.335	21.15
420.541	21.05
420.746	21
420.952	21
421.158	20.96
421.364	20.96
421.57	20.97
421.776	21.13
421.982	21.07
422.187	20.97
422.393	20.92
422.599	20.71
422.805	20.77
423.01	20.78
423.216	20.65
423.422	20.6
423.628	20.56
423.833	20.52
424.039	20.44
424.245	20.27
424.45	20.46
424.656	20.44
424.862	20.56
425.067	20.53
425.273	20.56
425.478	20.65
425.684	20.67
425.889	20.81
426.095	20.82
426.301	20.83
426.506	20.97
426.712	20.98
426.917	21
427.123	21.13
427.328	21.04
427.533	21.08
427.739	21.12
427.944	21.15
428.15	20.92
428.355	20.98
428.561	20.84
428.766	20.87
428.971	20.83
429.177	20.96
429.382	20.93
429.587	21.11
429.793	20.79
429.998	20.66
430.203	20.65
430.408	20.7
430.614	20.73
430.819	20.73
431.024	20.7
431.229	20.72
431.434	20.66
431.64	20.6
431.845	20.62
432.05	21
432.255	21.02
432.46	20.84
432.665	20.78
432.87	20.63
433.076	20.64
433.281	20.73
433.486	20.55
433.691	20.49
433.896	20.32
434.101	20.28
434.306	20.27
434.511	20.2
434.716	20.31
434.921	20.27
435.126	20.25
435.331	20.3
435.535	20.1
435.74	20.23
435.945	20.24
436.15	20.34
436.355	20.36
436.56	20.35
436.765	20.4
436.97	20.43
437.174	20.43
437.379	20.51
437.584	20.58
437.789	20.72
437.993	20.71
438.198	20.75
438.403	20.89
438.608	20.9
438.812	20.57
439.017	20.63
439.222	20.65
439.426	20.65
439.631	20.62
439.836	20.51
440.04	20.5
440.245	20.49
440.45	20.45
440.654	20.39
440.859	20.3
441.063	20.38
441.268	20.25
441.472	20.2
441.677	20.2
441.881	20.18
442.086	20.09
442.29	20.11
442.495	20.12
442.699	20.17
442.904	20.14
443.108	20.17
443.312	20.27
443.517	20.34
443.721	20.3
443.925	20.21
444.13	20.21
444.334	20.21
444.538	20.06
444.743	20.03
444.947	19.91
445.151	19.95
445.356	19.84
445.56	19.79
445.764	19.69
445.968	19.69
446.173	19.82
446.377	19.89
446.581	19.88
446.785	19.85
446.989	19.81
447.193	19.85
447.398	19.81
447.602	19.83
447.806	19.93
448.01	20.18
448.214	20.27
448.418	20.24
448.622	20.2
448.826	20.21
449.03	20.27
449.234	20.48
449.438	20.41
449.642	20.39
449.846	20.39
450.05	20.35
450.254	20.07
450.458	20.09
450.662	19.99
450.866	19.87
451.069	19.8
451.273	19.86
451.477	19.52
451.681	19.48
451.885	19.27
452.089	19.23
452.292	19.22
452.496	19.22
452.7	19.13
452.904	19.31
453.107	19.23
453.311	19.39
453.515	19.35
453.719	19.34
453.922	19.5
454.126	19.65
454.33	19.66
454.533	19.55
454.737	19.61
454.94	19.68
455.144	19.67
455.348	19.84
455.551	19.79
455.755	19.65
455.958	19.94
456.162	19.83
456.365	19.97
456.569	20
456.772	19.88
456.976	19.89
457.179	19.99
457.383	19.83
457.586	19.95
457.79	20.02
457.993	20.21
458.196	20.01
458.4	20.12
458.603	19.9
458.807	20.03
459.01	20.19
459.213	20.08
459.417	19.86
459.62	19.93
459.823	19.71
460.026	19.67
460.23	19.56
460.433	19.58
460.636	19.5
460.839	19.73
461.042	19.64
461.246	19.64
461.449	19.64
461.652	19.68
461.855	19.55
462.058	19.65
462.261	19.55
462.464	19.48
462.668	19.56
462.871	19.7
463.074	19.69
463.277	19.48
463.48	19.54
463.683	19.57
463.886	19.72
464.089	19.84
464.292	20.01
464.495	20.21
464.698	20.4
464.901	20.21
465.104	20.14
465.306	20.04
465.509	20.2
465.712	20.16
465.915	20.34
466.118	20.3
466.321	20.32
466.524	20.35
466.726	20.35
466.929	20.32
467.132	20.55
467.335	20.59
467.538	20.46
467.74	20.48
467.943	20.51
468.146	20.56
468.348	20.6
468.551	20.52
468.754	20.3
468.956	20.1
469.159	20.16
469.362	20.19
469.564	20.08
469.767	20.18
469.969	20.19
470.172	20.03
470.375	19.8
470.577	19.77
470.78	19.84
470.982	19.86
471.185	20.04
471.387	20.06
471.59	19.91
471.792	20.07
471.995	20.05
472.197	20.15
472.399	20.18
472.602	20.19
472.804	20.13
473.007	20.06
473.209	20.1
473.411	20.15
473.614	20.15
473.816	20.17
474.018	20.23
474.22	20.33
474.423	20.39
474.625	20.44
474.827	20.58
475.03	20.56
475.232	20.74
475.434	20.81
475.636	20.78
475.838	20.71
476.04	20.52
476.243	20.39
476.445	20.28
476.647	20.21
476.849	20.1
477.051	20.1
477.253	20.22
477.455	20.16
477.657	19.96
477.859	19.82
478.061	19.74
478.263	19.79
478.465	19.75
478.667	19.75
478.869	19.66
479.071	19.74
479.273	19.6
479.475	19.39
479.677	19.32
479.879	19.36
480.081	19.48
480.283	19.58
480.485	19.6
480.686	19.58
480.888	19.58
481.09	19.58
481.292	19.44
481.494	19.48
481.695	19.64
481.897	19.61
482.099	19.66
482.301	19.56
482.502	19.51
482.704	19.51
482.906	19.46
483.107	19.41
483.309	19.34
483.511	19.35
483.712	19.31
483.914	19.2
484.115	19.17
484.317	19.13
484.519	19.1
484.72	19.11
484.922	19.05
485.123	19.09
485.325	19.03
485.526	19.07
485.728	19.05
485.929	19.02
486.131	19.07
486.332	19.11
486.534	19.09
486.735	19.13
486.936	19.07
487.138	19.02
487.339	18.93
487.541	19.02
487.742	18.99
487.943	19
488.144	19.04
488.346	19.01
488.547	18.98
488.748	19.02
488.95	18.93
489.151	18.99
489.352	19.13
489.553	19.14
489.755	19.13
489.956	19.12
490.157	19.14
490.358	19.11
490.559	19.21
490.76	19.17
490.961	19.14
491.163	19.31
491.364	19.3
491.565	19.24
491.766	19.26
491.967	19.33
492.168	19.31
492.369	19.35
492.57	19.41
492.771	19.46
492.972	19.54
493.173	19.62
493.374	19.59
493.575	19.61
493.776	19.68
493.976	19.84
494.177	19.91
494.378	20.12
494.579	20.17
494.78	20.25
494.981	20.13
495.182	20.18
495.382	20.26
495.583	20.33
495.784	20.38
495.985	20.4
496.185	20.41
496.386	20.29
496.587	20.39
496.788	20.38
496.988	20.46
497.189	20.45
497.39	20.56
497.59	20.45
497.791	20.41
497.992	20.37
498.192	20.48
498.393	20.46
498.593	20.52
498.794	20.4
498.994	20.56
499.195	20.5
499.395	20.65
499.596	20.71
499.796	20.83
499.997	20.92
500.197	21.16
500.398	21.23
500.598	21.23
500.799	21.27
500.999	21.19
501.199	21.12
501.4	21.29
501.6	21.2
501.801	21.28
502.001	21.32
502.201	21.45
502.402	21.31
502.602	21.21
502.802	21.34
503.002	21.42
503.203	21.7
503.403	21.66
503.603	21.56
503.803	21.77
504.003	21.88
504.204	21.93
504.404	22.01
504.604	22.11
504.804	22.25
505.004	22.26
505.204	22.38
505.404	22.35
505.604	22.63
505.804	22.68
506.005	22.69
506.205	22.57
506.405	22.63
506.605	22.77
506.805	22.81
507.005	22.88
507.204	23.06
507.404	23.15
507.604	23.34
507.804	23.33
508.004	23.54
508.204	23.63
508.404	23.64
508.604	23.72
508.804	23.73
509.003	23.88
509.203	23.95
509.403	23.95
509.603	23.98
509.803	24.13
510.002	24.29
510.202	24.23
510.402	24.34
510.602	24.65
510.801	24.71
511.001	24.79
511.201	24.72
511.4	24.67
511.6	24.69
511.8	24.76
511.999	24.86
512.199	24.82
512.398	25.02
512.598	25.18
512.797	25.19
512.997	25.43
513.197	25.51
513.396	25.74
513.596	26
513.795	26.25
513.994	26.49
514.194	26.46
514.393	26.67
514.593	26.74
514.792	26.74
514.992	26.79
515.191	26.75
515.39	26.9
515.59	26.87
515.789	26.92
515.988	26.91
516.188	26.86
516.387	26.89
516.586	26.84
516.786	26.99
516.985	27.05
517.184	27.21
517.383	27.56
517.582	27.66
517.782	27.97
517.981	28.06
518.18	28.16
518.379	28.35
518.578	28.48
518.777	28.72
518.976	28.77
519.176	28.91
519.375	28.99
519.574	28.99
519.773	29.08
519.972	29.07
520.171	29.2
520.37	29.45
520.569	29.47
520.768	29.59
520.967	29.78
521.166	29.91
521.365	30.02
521.564	30.32
521.762	30.48
521.961	30.55
522.16	30.69
522.359	30.79
522.558	30.75
522.757	30.92
522.956	31.08
523.154	31.02
523.353	31.19
523.552	31.29
523.751	31.27
523.949	31.3
524.148	31.46
524.347	31.64
524.546	31.74
524.744	31.74
524.943	31.89
525.142	31.91
525.34	32.14
525.539	32.28
525.737	32.37
525.936	32.43
526.135	32.47
526.333	32.48
526.532	32.55
526.73	32.81
526.929	33.07
527.127	33.2
527.326	33.33
527.524	33.37
527.723	33.43
527.921	33.51
528.12	33.59
528.318	33.68
528.516	33.77
528.715	33.79
528.913	33.76
529.112	33.83
529.31	33.77
529.508	33.88
529.707	33.94
529.905	34
530.103	34.09
530.301	34.15
530.5	34.21
530.698	34.36
530.896	34.55
531.094	34.69
531.293	34.73
531.491	34.95
531.689	35.1
531.887	35.23
532.085	35.41
532.283	35.44
532.481	35.54
532.68	35.66
532.878	35.72
533.076	35.76
533.274	35.83
533.472	35.94
533.67	36
533.868	35.97
534.066	35.95
534.264	35.89
534.462	36.05
534.66	36.12
534.858	36.23
535.056	36.3
535.253	36.34
535.451	36.47
535.649	36.57
535.847	36.77
536.045	36.88
536.243	37.01
536.441	37.18
536.638	37.22
536.836	37.2
537.034	37.2
537.232	37.19
537.43	37.31
537.627	37.35
537.825	37.35
538.023	37.47
538.22	37.48
538.418	37.61
538.616	37.73
538.813	37.89
539.011	38.14
539.209	38.21
539.406	38.45
539.604	38.57
539.801	38.59
539.999	38.71
540.196	38.6
540.394	38.69
540.591	38.73
540.789	38.7
540.986	38.66
541.184	38.71
541.381	38.7
541.579	38.63
541.776	38.57
541.974	38.58
542.171	38.6
542.368	38.65
542.566	38.65
542.763	38.65
542.96	38.72
543.158	38.81
543.355	38.86
543.552	39.1
543.75	39.33
543.947	39.39
544.144	39.4
544.341	39.47
544.539	39.57
544.736	39.7
544.933	39.75
545.13	39.82
545.327	39.78
545.524	39.7
545.722	39.67
545.919	39.58
546.116	39.72
546.313	39.88
546.51	39.91
546.707	40.07
546.904	40.08
547.101	40.16
547.298	40.27
547.495	40.35
547.692	40.46
547.889	40.45
548.086	40.47
548.283	40.61
548.48	40.7
548.677	40.79
548.874	40.57
549.07	40.71
549.267	40.73
549.464	40.68
549.661	40.72
549.858	40.97
550.055	41.19
550.251	41.22
550.448	41.13
550.645	41.17
550.842	41.21
551.038	41.5
551.235	41.47
551.432	41.53
551.628	41.77
551.825	42.07
552.022	41.77
552.218	41.7
552.415	41.88
552.612	41.84
552.808	41.9
553.005	41.94
553.201	42.05
553.398	42.14
553.594	42.27
553.791	42.32
553.987	42.13
554.184	42.38
554.38	42.41
554.577	42.47
554.773	42.91
554.97	43.05
555.166	43.23
555.362	43.06
555.559	43.12
555.755	43.14
555.952	43.13
556.148	43.09
556.344	43.03
556.541	43.03
556.737	42.96
556.933	42.87
557.129	42.73
557.326	42.66
557.522	42.68
557.718	42.74
557.914	42.56
558.11	42.51
558.307	42.56
558.503	42.97
558.699	42.94
558.895	43
559.091	42.84
559.287	42.99
559.483	43.08
559.679	43.35
559.876	43.29
560.072	43.46
560.268	43.61
560.464	43.74
560.66	43.53
560.856	43.84
561.052	43.88
561.247	43.93
561.443	43.91
561.639	43.81
561.835	43.84
562.031	43.82
562.227	43.91
562.423	43.66
562.619	43.61
562.815	43.93
563.01	43.98
563.206	44.18
563.402	44.31
563.598	44.34
563.793	44.42
563.989	44.32
564.185	44.4
564.381	44.5
564.576	44.64
564.772	44.63
564.968	44.37
565.163	44.19
565.359	43.85
565.555	44
565.75	44.19
565.946	44.18
566.141	44.22
566.337	44.31
566.532	44.4
566.728	44.51
566.923	44.59
567.119	44.62
567.314	44.62
567.51	44.86
567.705	44.75
567.901	44.55
568.096	44.76
568.292	44.81
568.487	44.94
568.682	44.84
568.878	44.73
569.073	44.88
569.268	44.92
569.464	45.14
569.659	45.25
569.854	45.45
570.05	45.62
570.245	45.6
570.44	45.51
570.635	45.43
570.831	45.46
571.026	45.74
571.221	45.71
571.416	45.61
571.611	45.56
571.806	45.53
572.002	45.37
572.197	45.39
572.392	45.22
572.587	45.38
572.782	45.41
572.977	45.54
573.172	45.55
573.367	45.62
573.562	45.86
573.757	45.7
573.952	45.78
574.147	45.99
574.342	46.14
574.537	46.48
574.732	46.43
574.927	46.39
575.121	46.43
575.316	46.26
575.511	46.06
575.706	46.06
575.901	46.16
576.096	46.21
576.29	46.15
576.485	45.97
576.68	45.8
576.875	45.78
577.069	45.73
577.264	45.56
577.459	45.89
577.654	46.12
577.848	46.09
578.043	46.34
578.238	46.22
578.432	46.15
578.627	46.26
578.821	46.22
579.016	46.25
579.21	46.52
579.405	46.45
579.6	46.26
579.794	46.21
579.989	45.97
580.183	46.19
580.378	46.08
580.572	46.37
580.766	46.39
580.961	46.44
581.155	46.6
581.35	46.71
581.544	46.91
581.738	46.78
581.933	46.99
582.127	47.5
582.321	47.16
582.516	47.38
582.71	47.12
582.904	46.98
583.099	46.8
583.293	46.71
583.487	46.69
583.681	46.94
583.875	47.09
584.07	47.14
584.264	47
584.458	47.04
584.652	46.9
584.846	47
585.04	47.29
585.234	47.45
585.428	47.56
585.623	47.3
585.817	47.03
586.011	47.1
586.205	47.07
586.399	47.02
586.593	47.07
586.787	47.23
586.981	47.11
587.174	47.05
587.368	47.1
587.562	47.1
587.756	47.27
587.95	47.28
588.144	47.35
588.338	47.37
588.532	47.39
588.725	47.46
588.919	47.54
589.113	47.92
589.307	47.89
589.501	47.88
589.694	47.96
589.888	48.03
590.082	48.22
590.275	48.25
590.469	48.47
590.663	48.26
590.856	48.49
591.05	48.36
591.244	47.89
591.437	48.09
591.631	48.32
591.824	48.19
592.018	48.24
592.212	48.32
592.405	48.07
592.599	48.01
592.792	48.27
592.986	48.26
593.179	48.3
593.372	48.66
593.566	48.63
593.759	48.66
593.953	48.74
594.146	48.56
594.339	48.45
594.533	48.59
594.726	48.75
594.92	48.83
595.113	48.63
595.306	48.56
595.499	48.45
595.693	48.25
595.886	48.02
596.079	48.16
596.272	48.16
596.466	48.26
596.659	48.19
596.852	48.07
597.045	48.1
597.238	48.09
597.431	48.18
597.624	48.1
597.818	48.17
598.011	48.43
598.204	48.2
598.397	48.53
598.59	48.38
598.783	48.6
598.976	48.47
599.169	48.44
599.362	48.63
599.555	48.8
599.748	49.15
599.941	49.15
600.134	48.96
600.326	49.32
600.519	49.36
600.712	49.41
600.905	49.37
601.098	49.51
601.291	49.74
601.483	49.87
601.676	49.73
601.869	49.87
602.062	50.21
602.255	50.26
602.447	50.18
602.64	49.97
602.833	49.96
603.025	49.76
603.218	49.75
603.411	49.65
603.603	49.39
603.796	49.4
603.989	49.19
604.181	49.12
604.374	49.07
604.566	48.89
604.759	48.82
604.951	48.77
605.144	48.86
605.336	48.81
605.529	48.64
605.721	48.81
605.914	49.01
606.106	49.13
606.299	49.09
606.491	49.26
606.683	49.56
606.876	49.54
607.068	49.84
607.26	50
607.453	50.28
607.645	50.28
607.837	50.21
608.03	50.03
608.222	49.72
608.414	49.57
608.606	49.36
608.799	49.3
608.991	49.34
609.183	49.06
609.375	48.97
609.567	48.63
609.759	48.86
609.952	48.75
610.144	48.91
610.336	48.93
610.528	48.94
610.72	48.89
610.912	49.03
611.104	49.28
611.296	49.34
611.488	49.32
611.68	49.56
611.872	49.25
612.064	49.81
612.256	49.72
612.448	50.01
612.64	49.84
612.832	50.18
613.023	50.26
613.215	50.35
613.407	50.37
613.599	50.38
613.791	50.35
613.983	50.47
614.174	49.93
614.366	49.89
614.558	49.75
614.75	49.81
614.941	49.69
615.133	49.51
615.325	49.35
615.516	49.56
615.708	49.56
615.9	49.34
616.091	49.54
616.283	49.84
616.475	49.77
616.666	49.89
616.858	50.48
617.049	50.37
617.241	50.46
617.432	50.46
617.624	50.55
617.815	50.79
618.007	51.23
618.198	51.17
618.39	50.94
618.581	50.85
618.773	50.87
618.964	50.56
619.155	50.89
619.347	50.74
619.538	50.8
619.729	50.65
619.921	50.41
620.112	50.08
620.303	50.33
620.494	50.53
620.686	50.67
620.877	50.64
621.068	50.52
621.259	50.51
621.451	50.66
621.642	50.39
621.833	50.31
622.024	50.56
622.215	50.81
622.406	50.62
622.597	50.43
622.788	50.53
622.98	50.35
623.171	50.4
623.362	50.37
623.553	50.53
623.744	50.67
623.935	50.77
624.126	50.62
624.317	50.42
624.508	50.32
624.698	50.65
624.889	50.73
625.08	51.33
625.271	51.69
625.462	51.62
625.653	51.32
625.844	51.29
626.034	51.16
626.225	51.32
626.416	51.37
626.607	51.45
626.798	51.33
626.988	51.2
627.179	50.89
627.37	50.59
627.56	50.82
627.751	50.82
627.942	50.89
628.132	50.85
628.323	50.7
628.514	50.81
628.704	51.06
628.895	50.69
629.085	50.81
629.276	50.6
629.466	50.68
629.657	50.4
629.847	50.41
630.038	50.31
630.228	50.38
630.419	50.37
630.609	50.4
630.8	49.91
630.99	50.01
631.181	50.08
631.371	50.13
631.561	50.28
631.752	50.24
631.942	50.39
632.132	50.63
632.323	50.64
632.513	50.61
632.703	50.59
632.893	50.83
633.084	51.02
633.274	50.87
633.464	51.03
633.654	50.78
633.844	50.77
634.034	50.63
634.225	50.44
634.415	50.56
634.605	50.74
634.795	50.4
634.985	50.71
635.175	50.58
635.365	50.56
635.555	50.5
635.745	50.5
635.935	50.34
636.125	50.39
636.315	50.48
636.505	50.71
636.695	50.72
636.885	50.74
637.075	50.41
637.265	50.62
637.455	50.47
637.644	50.6
637.834	50.88
638.024	51.12
638.214	51.3
638.404	51.31
638.593	51.5
638.783	51.16
638.973	51.77
639.163	51.62
639.352	51.42
639.542	51.88
639.732	51.91
639.921	51.9
640.111	51.86
640.301	51.61
640.49	51.53
640.68	50.98
640.87	51.12
641.059	50.8
641.249	51
641.438	51
641.628	50.84
641.817	50.69
642.007	50.53
642.196	50.28
642.386	50.65
642.575	50.89
642.764	50.68
642.954	50.59
643.143	50.72
643.333	50.77
643.522	51.14
643.711	51.04
643.901	51.08
644.09	51.19
644.279	51.97
644.469	51.67
644.658	51.72
644.847	51.99
645.036	52.31
645.226	51.91
645.415	51.76
645.604	51.45
645.793	51.48
645.982	51.49
646.171	51.25
646.361	51.32
646.55	51.55
646.739	51.46
646.928	51.59
647.117	51.32
647.306	51.44
647.495	51.56
647.684	51.74
647.873	51.8
648.062	51.92
648.251	52.29
648.44	51.83
648.629	51.47
648.818	51.37
649.007	50.93
649.196	51.17
649.384	51.38
649.573	50.98
649.762	50.95
649.951	50.8
650.14	50.74
650.328	50.49
650.517	50.43
650.706	50.56
650.895	50.78
651.083	51.33
651.272	51.16
651.461	51.07
651.65	51.62
651.838	51.29
652.027	51.45
652.216	51.21
652.404	51.62
652.593	51.88
652.781	51.96
652.97	51.91
653.158	51.78
653.347	52
653.535	52.04
653.724	51.55
653.912	51.86
654.101	52.16
654.289	52.36
654.478	52.08
654.666	51.84
654.855	51.92
655.043	51.62
655.231	51.4
655.42	51.53
655.608	51.55
655.796	51.69
655.985	51.88
656.173	51.88
656.361	51.76
656.55	51.72
656.738	51.57
656.926	51.74
657.114	52.21
657.302	52.74
657.491	52.25
657.679	51.76
657.867	52.08
658.055	51.97
658.243	51.74
658.431	51.91
658.619	52
658.807	52.2
658.996	52.01
659.184	51.54
659.372	51.31
659.56	51.5
659.748	51.58
659.936	51.57
660.124	51.41
660.311	51.38
660.499	51.62
660.687	51.74
660.875	51.7
661.063	51.72
661.251	51.87
661.439	51.84
661.627	52.12
661.814	52.36
662.002	52.25
662.19	52.46
662.378	52.03
662.565	51.86
662.753	51.97
662.941	52.08
663.129	52.05
663.316	52.58
663.504	52.4
663.692	52.5
663.879	52.73
664.067	52.82
664.254	53.09
664.442	53.29
664.63	53.38
664.817	52.99
665.005	53.04
665.192	53.3
665.38	52.55
665.567	52.98
665.755	52.74
665.942	52.82
666.13	52.9
666.317	52.5
666.504	52.54
666.692	52.44
666.879	52.46
667.067	52.12
667.254	51.89
667.441	51.96
667.629	51.71
667.816	51.94
668.003	51.86
668.19	51.53
668.378	51.36
668.565	51.46
668.752	51.26
668.939	50.83
669.127	51.06
669.314	51.11
669.501	51.26
669.688	51.26
669.875	51.31
670.062	51.08
670.249	51.23
670.436	51.48
670.623	51.69
670.81	51.91
670.997	52.3
671.184	52.35
671.371	52.91
671.558	53.37
671.745	53.63
671.932	53.25
672.119	53.56
672.306	53.59
672.493	53.89
672.68	53.75
672.867	53.91
673.054	53.81
673.24	53.71
673.427	53.19
673.614	53.06
673.801	52.93
673.988	53.29
674.174	52.95
674.361	53.11
674.548	52.53
674.734	53.08
674.921	52.7
675.108	53.33
675.294	52.46
675.481	52.48
675.668	52.27
675.854	52.04
676.041	51.96
676.227	51.85
676.414	51.7
676.601	52.38
676.787	52.29
676.974	52.31
677.16	51.63
677.347	52.5
677.533	52.34
677.719	52.18
677.906	52.29
678.092	52.17
678.279	52.31
678.465	52.19
678.651	51.9
678.838	51.62
679.024	51.66
679.21	51.95
679.397	52.08
679.583	52.53
679.769	52.59
679.955	52.32
680.142	52.41
680.328	52.57
680.514	52.49
680.7	52.24
680.886	52.65
681.073	52.92
681.259	52.5
681.445	52.68
681.631	52.37
681.817	52.42
682.003	52.45
682.189	52.27
682.375	52.05
682.561	52.3
682.747	52.52
682.933	51.95
683.119	51.43
683.305	51.85
683.491	51.41
683.677	51.46
683.863	51.26
684.049	51.76
684.235	51.65
684.42	51.78
684.606	51.7
684.792	52.01
684.978	52.1
685.164	52.41
685.349	51.9
685.535	51.93
685.721	51.32
685.907	51.29
686.092	50.99
686.278	51.44
686.464	51.44
686.649	51.47
686.835	51.61
687.021	51.68
687.206	51.75
687.392	51.91
687.577	52
687.763	52.22
687.948	52.72
688.134	52.58
688.319	52.47
688.505	52.61
688.69	53.08
688.876	53.04
689.061	53.15
689.247	53.24
689.432	53.52
689.618	53.48
689.803	53.84
689.988	53.92
690.174	54.41
690.359	53.98
690.544	53.47
690.73	53.57
690.915	53.34
691.1	53.07
691.285	53.09
691.471	53.1
691.656	53.38
691.841	53.26
692.026	52.9
692.211	52.97
692.396	53.75
692.582	54.53
692.767	54.68
692.952	54.4
693.137	54.61
693.322	54.47
693.507	54.69
693.692	55.06
693.877	55.19
694.062	55.25
694.247	55.02
694.432	54.89
694.617	55.17
694.802	54.53
694.987	54.92
695.172	54.85
695.357	54.81
695.541	54.83
695.726	54.39
695.911	55.28
696.096	55.18
696.281	55.19
696.466	54.62
696.65	53.99
696.835	54.42
697.02	53.83
697.204	53.72
697.389	53.71
697.574	53.31
697.759	53.28
697.943	52.42
698.128	52.68
698.312	52.58
698.497	52.07
698.682	51.97
698.866	51.68
699.051	51.9
699.235	52.31
699.42	52.58
699.604	52.82
699.789	52.66
699.973	52.85
700.158	52.74
700.342	52.73
700.527	53.55
700.711	53.82
700.895	53.64
701.08	53.94
701.264	53.81
701.448	53.5
701.633	53.85
701.817	53.81
702.001	54.26
702.186	53.86
702.37	54.25
702.554	54.46
702.738	54.98
702.923	55.13
703.107	55.22
703.291	55.18
703.475	55.31
703.659	55.14
703.843	55.32
704.027	55.09
704.212	55.44
704.396	55.06
704.58	54.54
704.764	54.06
704.948	54.12
705.132	53.51
705.316	53.79
705.5	54.13
705.684	54.3
705.868	54.13
706.052	53.34
706.235	53.78
706.419	53.74
706.603	54.08
706.787	54.08
706.971	54.45
707.155	54.51
707.339	54.22
707.522	53.99
707.706	53.37
707.89	53.42
708.074	53.64
708.257	52.97
708.441	53.35
708.625	53.28
708.808	53.47
708.992	52.91
709.176	53.29
709.359	53.1
709.543	52.93
709.727	53.31
709.91	53.37
710.094	53.43
710.277	54.17
710.461	53.96
710.644	54.11
710.828	53.99
711.011	54.41
711.195	54.29
711.378	54.36
711.562	54.55
711.745	54.31
711.928	54.21
712.112	53.7
712.295	53.72
712.478	53.77
712.662	53.78
712.845	53.34
713.028	53.22
713.212	53.16
713.395	52.98
713.578	53.18
713.761	52.85
713.945	52.84
714.128	53.2
714.311	52.79
714.494	52.47
714.677	52.28
714.86	53.2
715.043	53.51
715.227	53.44
715.41	53.68
715.593	53.98
715.776	54.86
715.959	55.22
716.142	55.77
716.325	56.14
716.508	56.42
716.691	56.87
716.874	56.2
717.057	56.03
717.239	56.04
717.422	55.97
717.605	55.48
717.788	54.98
717.971	55.07
718.154	54.56
718.337	54.21
718.519	54.39
718.702	54.84
718.885	54.21
719.068	53.93
719.25	54.92
719.433	54.86
719.616	54.95
719.798	54.43
719.981	54.75
720.164	55.17
720.346	55.58
720.529	56.06
720.712	55.84
720.894	57.64
721.077	57.3
721.259	56.76
721.442	57.28
721.624	57.75
721.807	58.6
721.989	58.32
722.172	58.32
722.354	58.26
722.537	57.57
722.719	56.5
722.901	55.34
723.084	55.92
723.266	55.23
723.448	54.74
723.631	53.87
723.813	54.14
723.995	53.52
724.178	53.11
724.36	52.67
724.542	52.34
724.724	53.24
724.907	53.93
725.089	53.74
725.271	55.12
725.453	54.9
725.635	54.88
725.817	54.95
725.999	55.33
726.181	56.04
726.364	55.98
726.546	56.62
726.728	56.35
726.91	55.63
727.092	56.4
727.274	55.8
727.456	56.36
727.638	56.99
727.819	56.15
728.001	56.9
728.183	57.34
728.365	57.24
728.547	56.71
728.729	57.32
728.911	58.33
729.093	57.3
729.274	56.35
729.456	56.11
729.638	55.85
729.82	56.15
730.001	55.89
730.183	55.35
730.365	55.66
730.546	55.58
730.728	54.33
730.91	53.56
731.091	53.57
731.273	54.11
731.455	53.9
731.636	53.92
731.818	54.17
731.999	53.9
732.181	53.93
732.362	53.8
732.544	54.82
732.725	54.9
732.907	55.3
733.088	56.45
733.27	57.2
733.451	57.31
733.633	58.15
733.814	57.78
733.995	58.28
734.177	57.89
734.358	57.75
734.539	57.36
734.721	57.47
734.902	56.52
735.083	56.18
735.264	56.17
735.446	56.62
735.627	55.87
735.808	55.41
735.989	55.15
736.17	55.85
736.351	56.25
736.533	56.18
736.714	56.21
736.895	57.11
737.076	57.43
737.257	56.34
737.438	55.73
737.619	56.18
737.8	56.95
737.981	56.99
738.162	57.14
738.343	57.95
738.524	58.01
738.705	58.06
738.886	57.37
739.067	56.79
739.247	56.95
739.428	57.72
739.609	57
739.79	56.73
739.971	55.4
740.151	55.15
740.332	55.39
740.513	54.86
740.694	55.59
740.874	55.57
741.055	55.38
741.236	55.06
741.417	55.05
741.597	54.62
741.778	55.31
741.958	56.2
742.139	55.96
742.32	55.25
742.5	55.85
742.681	55.55
742.861	56.27
743.042	56.05
743.222	56.82
743.403	56.28
743.583	57.06
743.764	56.53
743.944	56.38
744.124	56.67
744.305	55.91
744.485	55.77
744.666	55.22
744.846	55.71
745.026	56.93
745.207	56.27
745.387	56.26
745.567	57.08
745.747	57.45
745.928	57.35
746.108	57.1
746.288	57.1
746.468	57.43
746.648	58.11
746.829	56.95
747.009	56.52
747.189	57.18
747.369	56.97
747.549	54.73
747.729	53.81
747.909	54.02
748.089	54.23
748.269	54.14
748.449	54.12
748.629	53.35
748.809	54
748.989	54.26
749.169	54.69
749.349	54.91
749.529	56.72
749.709	56.91
749.889	57.28
750.068	56.96
750.248	57.91
750.428	58.16
750.608	58.91
750.788	58.23
750.967	57.44
751.147	56.76
751.327	56.44
751.507	56.19
751.686	56.11
751.866	56.01
752.046	55.87
752.225	55.3
752.405	55.51
752.585	55.06
752.764	55.61
752.944	56.5
753.123	57.04
753.303	58.09
753.482	57.87
753.662	58.67
753.841	58.35
754.021	59.11
754.2	59.21
754.38	59.09
754.559	58.69
754.739	58.19
754.918	58.17
755.097	57.79
755.277	57.59
755.456	57.91
755.635	58.06
755.815	57.98
755.994	57.11
756.173	57.02
756.352	55.57
756.532	56.28
756.711	56.88
756.89	55.26
757.069	56.61
757.248	56.07
757.427	54.5
757.607	53.63
757.786	53.78
757.965	53.22
758.144	53.78
758.323	55.49
758.502	55.15
758.681	55.39
758.86	56.42
759.039	55.41
759.218	56.24
759.397	57.9
759.576	57.84
759.755	57.73
759.934	58.64
760.113	58.89
760.291	58.85
760.47	59.19
760.649	58.75
760.828	59.75
761.007	58.95
761.186	57.81
761.364	57.03
761.543	57.62
761.722	57.81
761.901	56.9
762.079	56.26
762.258	55.3
762.437	54.73
762.615	53.93
762.794	53.17
762.972	53.01
763.151	52.76
763.33	53.14
763.508	53.07
763.687	52.52
763.865	53.28
764.044	52.94
764.222	52.78
764.401	53.55
764.579	53.9
764.758	53.54
764.936	54.34
765.114	54.37
765.293	53.5
765.471	53.76
765.65	55.03
765.828	55.01
766.006	56.01
766.184	56.39
766.363	55.78
766.541	55.86
766.719	56.77
766.898	57.29
767.076	57.41
767.254	58.29
767.432	58.26
767.61	57.64
767.788	57.49
767.967	56.82
768.145	56.98
768.323	57.44
768.501	57.41
768.679	56.45
768.857	55.42
769.035	56.83
769.213	57.2
769.391	56.95
769.569	57.88
769.747	59.16
769.925	59.06
770.103	57.77
770.281	57.42
770.459	58.35
770.636	58.7
770.814	59.6
770.992	59.87
771.17	59.74
771.348	60.83
771.525	59.33
771.703	57.33
771.881	57.25
772.059	58.54
772.236	58.31
772.414	58.29
772.592	58.87
772.769	58.68
772.947	56.92
773.125	56.02
773.302	55.4
773.48	56.06
773.657	57.45
773.835	57.11
774.013	57.32
774.19	58.41
774.368	56.33
774.545	56.88
774.723	57.02
774.9	57.49
775.077	58.82
775.255	57.92
775.432	57.81
775.61	58.52
775.787	58.53
775.964	58.7
776.142	59.59
776.319	61.44
776.496	59.9
776.674	59.15
776.851	60.19
777.028	59.39
777.205	60.75
777.382	60.68
777.56	58.75
777.737	62.28
777.914	61.46
778.091	59.94
778.268	60.77
778.445	62.19
778.622	62.95
778.8	61.81
778.977	62.77
779.154	68.18
779.331	67.85
779.508	69.95
779.685	66.93
779.862	67.33
780.038	67.28
780.215	66.29
780.392	65.5
780.569	64.6
780.746	66.56
780.923	66.62
781.1	61.55
781.277	61.62
781.453	60.66
781.63	60.84
781.807	60.59
781.984	61.26
782.16	61.77
782.337	60.94
782.514	60.61
782.691	62.64
782.867	62.3
783.044	61.17
783.221	61.64
783.397	61.71
783.574	59.17
783.75	59.89
783.927	60.88
784.103	61.23
784.28	63.31
784.456	63.91
784.633	60.33
784.809	60.95
784.986	60.02
785.162	60
785.339	58.1
785.515	59.6
785.692	58.44
785.868	57.45
786.044	57.61
786.221	55.49
786.397	54.93
786.573	54.81
786.749	54.49
786.926	57.69
787.102	58.79
787.278	60.72
787.454	62.61
787.631	64.39
787.807	63.28
787.983	62.66
788.159	64.46
788.335	67.35
788.511	65.97
788.687	65.61
788.863	63.73
789.039	63.45
789.216	61.87
789.392	61.35
789.568	61.11
789.744	62.61
789.919	60.73
790.095	57.71
790.271	57.46
790.447	58.19
790.623	59.07
790.799	58.51
790.975	56.58
791.151	60.58
791.327	60.16
791.502	60.88
791.678	59.63
791.854	61.83
792.03	65.02
792.205	63.79
792.381	66
792.557	65.8
792.733	67.07
792.908	69.31
793.084	65.5
793.259	65.22
793.435	63.02
793.611	63.07
793.786	62.09
793.962	59.67
794.137	59.46
794.313	57.69
794.488	56.76
794.664	55.25
794.839	55.44
795.015	57.41
795.19	59.6
795.366	60.17
795.541	60.86
795.716	61.64
795.892	64.19
796.067	63.34
796.242	62.09
796.418	63.09
796.593	64.29
796.768	62.98
796.944	61.89
797.119	59.88
797.294	59.21
797.469	59.98
797.644	59.33
797.82	58.45
797.995	57.94
798.17	58.25
798.345	58
798.52	57.45
798.695	58.63
798.87	59.45
799.045	60.91
799.22	63.3
799.395	62.84
799.57	62.73
799.745	62.28
799.92	63.42
800.095	66.23
800.27	65.47
800.445	66.78
800.62	64.77
800.795	65.35
800.97	66.36
801.145	62.24
801.319	62.62
801.494	63.2
801.669	62.94
801.844	62.27
802.018	60.48
802.193	62.01
802.368	60.77
802.543	59.8
802.717	59.43
802.892	57.19
803.067	59.79
803.241	57.21
803.416	58.03
803.59	59.97
803.765	60.05
803.94	61.42
804.114	58.94
804.289	60.86
804.463	63.93
804.638	61.09
804.812	63.06
804.986	62.32
805.161	62.7
805.335	60.64
805.51	60.41
805.684	59
805.858	57.86
806.033	55.57
806.207	54.35
806.381	53.73
806.556	55.42
806.73	54.23
806.904	55.87
807.078	55.72
807.253	58.62
807.427	56.48
807.601	59.99
807.775	60.27
807.949	63.57
808.123	64.86
808.298	66.93
808.472	66.86
808.646	67.08
808.82	65.01
808.994	66.32
809.168	67.24
809.342	69.01
809.516	68.86
809.69	69.41
809.864	68.41
810.038	68.05
810.212	66.29
810.385	64.87
810.559	64.19
810.733	64.67
810.907	63.12
811.081	58.95
811.255	57.97
811.428	55.01
811.602	54.67
811.776	55.05
811.95	55.55
812.123	55.96
812.297	58.74
812.471	58.45
812.644	58.47
812.818	62.11
812.992	64.35
813.165	64.72
813.339	63.51
813.512	63.67
813.686	65.4
813.86	65.47
814.033	66.35
814.207	67.08
814.38	67.37
814.554	67.8
814.727	66.18
814.9	67.36
815.074	67.5
815.247	70.25
815.421	71.14
815.594	71.32
815.767	68.31
815.941	64.96
816.114	66.81
816.287	67.82
816.46	67.87
816.634	66.01
816.807	67.68
816.98	68.13
817.153	70.99
817.327	69.71
817.5	70.76
817.673	72.85
817.846	76.12
818.019	72.5
818.192	71.26
818.365	70.35
818.538	71.88
818.711	64.45
818.884	64.48
819.057	62.17
819.23	63.02
819.403	59.63
819.576	59.49
819.749	56.75
819.922	56.41
820.095	56.83
820.268	57.34
820.441	56.22
820.614	57.87
820.786	59.11
820.959	57.87
821.132	55.79
821.305	54.9
821.477	53.5
821.65	54.93
821.823	53.83
821.996	52.48
822.168	51.87
822.341	51.87
822.514	51.77
822.686	50.58
822.859	50.85
823.031	51.07
823.204	51.43
823.376	51.68
823.549	51.21
823.722	51.8
823.894	52.87
824.067	52.97
824.239	53.43
824.411	53.88
824.584	54.45
824.756	54.04
824.929	54.08
825.101	54.03
825.273	54.17
825.446	54.42
825.618	54.49
825.79	54.37
825.963	54.93
826.135	54.52
826.307	53.98
826.479	54.61
826.652	55.15
826.824	55.04
826.996	55.6
827.168	55.3
827.34	55.47
827.512	55.29
827.684	54.51
827.856	54.23
828.029	55.89
828.201	56.1
828.373	55.28
828.545	55.91
828.717	56.65
828.889	56.18
829.061	57.4
829.232	57.48
829.404	57.4
829.576	59.48
829.748	59.32
829.92	58.5
830.092	59.04
830.264	59.16
830.436	58.03
830.607	58
830.779	58.96
830.951	58.23
831.123	58.6
831.294	57.42
831.466	54.86
831.638	56.09
831.809	53.84
831.981	56.18
832.153	56.86
832.324	58.01
832.496	58.37
832.667	59.13
832.839	59.43
833.011	58.24
833.182	59.72
833.354	60.67
833.525	61.84
833.697	62.67
833.868	58.16
834.039	59.93
834.211	59
834.382	58.16
834.554	58.67
834.725	58.82
834.896	58.38
835.068	56.92
835.239	56.25
835.41	55.71
835.581	56.2
835.753	58.55
835.924	56.7
836.095	57.61
836.266	58.98
836.438	56.76
836.609	56.13
836.78	55.1
836.951	59.16
837.122	58.96
837.293	59.9
837.464	59.67
837.635	61.58
837.806	64.27
837.977	65.59
838.148	66.88
838.319	68.59
838.49	68.24
838.661	71.46
838.832	68.99
839.003	71.4
839.174	71.69
839.345	72.54
839.516	70.74
839.687	71.02
839.857	71.65
840.028	72.19
840.199	72.78
840.37	75.75
840.54	78.05
840.711	73.49
840.882	75.74
841.053	72.91
841.223	71.8
841.394	71.51
841.564	70.24
841.735	70.55
841.906	68.04
842.076	63.25
842.247	67.24
842.417	66.93
842.588	71.19
842.758	68.54
842.929	71.87
843.099	73.91
843.27	74.26
843.44	76.38
843.611	72.53
843.781	69.52
843.951	74.49
844.122	72.51
844.292	71.04
844.462	75.05
844.633	74.25
844.803	71.12
844.973	71.42
845.144	76.92
845.314	76.51
845.484	75.55
845.654	81.86
845.824	83.05
845.995	81.71
846.165	85.85
846.335	86.98
846.505	89.75
846.675	96.6
846.845	94.63
847.015	91.82
847.185	91.97
847.355	92.54
847.525	96.81
847.695	105.12
847.865	107.77
848.035	105.75
848.205	96.71
848.375	104.63
848.545	83.88
848.715	92.12
848.884	87.74
849.054	84.5
849.224	83.21
849.394	83.04
849.564	75.84
849.733	75.63
849.903	78.4
850.073	87.1
850.243	83.39
850.412	90.78
850.582	87.97
850.752	90.77
850.921	88.27
851.091	100.8
851.26	100.52
851.43	99.36
851.599	97.76
851.769	99.01
851.939	96.82
852.108	100.48
852.278	106.41
852.447	103.77
852.616	102.84
852.786	102.74
852.955	93.53
853.125	103.17
853.294	109.83
853.463	104.44
853.633	109.61
853.802	110.73
853.971	112.63
854.141	115.26
854.31	108.48
854.479	103.88
854.648	112.52
854.818	109.1
854.987	102.1
855.156	103.48
855.325	112.53
855.494	116.67
855.663	114.42
855.832	104.94
856.001	103.84
856.171	114.99
856.34	125.01
856.509	128.15
856.678	141.4
856.847	139.43
857.016	126.37
857.185	113.26
857.353	115.91
857.522	119.81
857.691	122.63
857.86	131.75
858.029	111.05
858.198	112.8
858.367	110.09
858.535	111.26
858.704	99.51
858.873	103.23
859.042	104.17
859.21	96.99
859.379	94.35
859.548	80.22
859.717	76.84
859.885	87.99
860.054	85.71
860.222	75.47
860.391	88.81
860.56	95.6
860.728	103.22
860.897	112.91
861.065	102.39
861.234	103.9
861.402	115.41
861.571	105.9
861.739	103.32
861.908	112.03
862.076	126.48
862.244	114.91
862.413	109.77
862.581	111.74
862.749	102.54
862.918	100.62
863.086	94.28
863.254	92.26
863.423	96.01
863.591	108.79
863.759	96.29
863.927	84.93
864.096	85.1
864.264	92.02
864.432	81.72
864.6	85.16
864.768	86.65
864.936	88.24
865.104	92.45
865.272	95.59
865.44	96.64
865.608	93.07
865.776	100.74
865.944	98.62
866.112	96.67
866.28	100
866.448	102.53
866.616	104.2
866.784	105.53
866.952	104.35
867.12	101.28
867.288	101.49
867.455	104.43
867.623	101.86
867.791	104.04
867.959	101.77
868.127	100.34
868.294	99.16
868.462	94.95
868.63	87.82
868.797	92.07
868.965	95.3
869.133	91.17
869.3	92.58
869.468	91.07
869.636	76.88
869.803	77.14
869.971	83.44
870.138	87.27
870.306	84.91
870.473	90.83
870.641	87.91
870.808	81.19
870.975	84
871.143	81.97
871.31	77.47
871.478	91.77
871.645	95.37
871.812	92.17
871.98	93.46
872.147	93.65
872.314	84.68
872.482	79.9
872.649	85.29
872.816	78.59
872.983	83.75
873.15	83.84
873.318	80
873.485	86.77
873.652	79.29
873.819	78.21
873.986	82.93
874.153	95.89
874.32	93.21
874.487	90.27
874.654	94.17
874.821	96.01
874.988	94.49
875.155	95.27
875.322	88.93
875.489	99.22
875.656	105.12
875.823	92.27
875.99	84.05
876.157	92.39
876.324	94.25
876.49	91.12
876.657	88.21
876.824	100.05
876.991	100.52
877.157	92.32
877.324	91.09
877.491	83.06
877.658	91.71
877.824	89.25
877.991	86.82
878.157	85.41
878.324	84.56
878.491	87.89
878.657	87.79
878.824	85.41
878.99	87.4
879.157	92.14
879.323	85.81
879.49	83.89
879.656	88.75
879.823	89.77
879.989	87.98
880.156	91.02
880.322	84.6
880.488	78.26
880.655	79.7
880.821	75.19
880.987	70.03
881.154	71.54
881.32	74.75
881.486	70.55
881.652	68.09
881.819	68.58
881.985	66.47
882.151	69.09
882.317	69.02
882.483	68.46
882.649	71.03
882.816	68.34
882.982	66.28
883.148	63.11
883.314	62.54
883.48	63.45
883.646	60.43
883.812	58.4
883.978	57
884.144	55.35
884.31	53.19
884.476	53.19
884.642	53.69
884.807	55.2
884.973	54.8
885.139	55.51
885.305	54.91
885.471	56.47
885.637	56.85
885.802	56.72
885.968	58.21
886.134	61.4
886.3	58.7
886.465	58.69
886.631	55.9
886.797	57.32
886.962	56.46
887.128	58.56
887.293	61.47
887.459	62.58
887.625	59.66
887.79	62.16
887.956	63.1
888.121	68.85
888.287	69.65
888.452	76.94
888.618	80.43
888.783	89.32
