Data from LC_157_Reflection_2.txt Node
Date: Mon Nov 16 22:25:02 EST 2015
User: robert
Spectrometer: USB4E03001
Autoset integration time: false
Trigger mode: 4
Integration Time (sec): 1.000000E-1
Scans to average: 15
Electric dark correction enabled: true
Nonlinearity correction enabled: false
Boxcar width: 5
Stray light correction enabled: false
XAxis mode: Wavelengths
Stop averaging: false
Number of Pixels in Spectrum: 3648
>>>>>Begin Spectral Data<<<<<
177.566	4716.87
177.785	489.41
178.005	-4845.38
178.225	393.1
178.445	333.74
178.665	-367.81
178.885	176.19
179.105	1940.19
179.324	3015.42
179.544	-301.13
179.764	-1182.72
179.984	-507.21
180.204	-505.89
180.423	-510.98
180.643	-617.79
180.863	-362.78
181.083	-330.87
181.302	-498.45
181.522	-391.24
181.742	-335.26
181.961	-539.26
182.181	-455.21
182.401	-612.86
182.621	-2441.18
182.84	-1095.6
183.06	-817.23
183.279	-508.65
183.499	-391.03
183.719	-307.17
183.938	-304.66
184.158	-361.42
184.377	-274.81
184.597	-427
184.816	-274.36
185.036	-216.06
185.256	-170.7
185.475	-194.25
185.695	-270.01
185.914	-375.1
186.134	-678.83
186.353	-757.83
186.572	-940.47
186.792	-1326.2
187.011	-600.94
187.231	-504.51
187.45	-343.17
187.67	-904.31
187.889	-2823.25
188.108	4847.26
188.328	-1284.33
188.547	-458.05
188.766	-915.9
188.986	-1302.59
189.205	-963.18
189.424	-605.39
189.644	-1986.11
189.863	-2190.1
190.082	-1579.59
190.302	-2843.46
190.521	-1705.59
190.74	1559.8
190.959	650.88
191.178	1034.4
191.398	848.42
191.617	674.49
191.836	566.22
192.055	1287.19
192.274	504.32
192.494	573.42
192.713	624.77
192.932	1383.5
193.151	1166.67
193.37	1965.46
193.589	-953.39
193.808	-211.05
194.027	-402.7
194.246	-4119.27
194.465	744.09
194.685	2233.45
194.904	1005.99
195.123	-1433.68
195.342	-967.9
195.561	-391.14
195.78	-661.01
195.999	27197.18
196.218	1091.73
196.436	907.84
196.655	-3200.35
196.874	-1211.28
197.093	-1551.26
197.312	-1219.16
197.531	3354.75
197.75	1126.21
197.969	-4555.79
198.188	-888.61
198.407	-270.94
198.625	-326.02
198.844	-264.41
199.063	-293.76
199.282	-557.01
199.501	-378.71
199.719	-271.33
199.938	-167.3
200.157	-160.8
200.376	-178.29
200.594	-309.05
200.813	-577.11
201.032	-356.83
201.251	-314.35
201.469	-272.5
201.688	-189.3
201.907	-323.65
202.125	-487.12
202.344	20542.86
202.563	3599.42
202.781	525.17
203	1453.74
203.218	1248.31
203.437	1097.03
203.656	588.51
203.874	347.69
204.093	356
204.311	438.51
204.53	472.83
204.748	728.43
204.967	475.84
205.185	520.37
205.404	536.02
205.622	371.31
205.841	294.8
206.059	342.18
206.278	402.05
206.496	908.71
206.715	557.44
206.933	427.32
207.151	329.71
207.37	369.31
207.588	368.88
207.806	347.51
208.025	671.75
208.243	-1196.03
208.461	1807.92
208.68	-19108.24
208.898	823.66
209.116	823.2
209.335	813.93
209.553	854.8
209.771	8408.75
209.989	1767.64
210.208	3718.06
210.426	-6173.38
210.644	3526.32
210.862	-2973.69
211.081	1334.23
211.299	-551.7
211.517	2504.35
211.735	-607.57
211.953	-170185.71
212.171	-3564.76
212.39	-9104.5
212.608	-25643.48
212.826	957.11
213.044	691.19
213.262	547.93
213.48	3525.32
213.698	422.9
213.916	574.91
214.134	380.06
214.352	828
214.57	458.87
214.788	612.52
215.006	460.62
215.224	429.76
215.442	319.07
215.66	313.62
215.878	238.62
216.096	249.6
216.314	252.78
216.532	475.35
216.75	403.62
216.968	405.64
217.185	844.74
217.403	1609.86
217.621	-3938.06
217.839	-1119.21
218.057	-1299.33
218.275	2360.98
218.492	804.36
218.71	1290.97
218.928	433.26
219.146	393.36
219.363	294.53
219.581	240.88
219.799	173.11
220.017	188.27
220.234	188.94
220.452	197.73
220.67	232.17
220.887	210.02
221.105	189.9
221.323	147.61
221.54	149.37
221.758	238.35
221.976	272.56
222.193	243.04
222.411	169.02
222.629	174.74
222.846	188.95
223.064	183.51
223.281	166.47
223.499	171.42
223.716	177.77
223.934	157.53
224.151	144.68
224.369	123.05
224.586	140.64
224.804	172.08
225.021	166.94
225.239	138.23
225.456	130.17
225.674	135.63
225.891	124.15
226.108	126.66
226.326	122.32
226.543	96.17
226.76	93.98
226.978	81.39
227.195	74.23
227.413	62.64
227.63	54.57
227.847	47.47
228.064	44.01
228.282	37.73
228.499	32.89
228.716	28.55
228.934	27.16
229.151	27.9
229.368	27.83
229.585	28.06
229.802	27.87
230.02	28.01
230.237	30.42
230.454	31.59
230.671	33.94
230.888	34.02
231.105	35.83
231.323	39.82
231.54	41.22
231.757	41.06
231.974	39.64
232.191	40.56
232.408	50.26
232.625	52.79
232.842	51.6
233.059	49.63
233.276	48.76
233.493	49.82
233.71	48.72
233.927	48.26
234.144	48.6
234.361	45.34
234.578	46.99
234.795	42.08
235.012	38.23
235.229	38.04
235.446	40.46
235.663	38.97
235.879	43.48
236.096	40.48
236.313	40.04
236.53	38.68
236.747	46.24
236.964	44.79
237.181	46.81
237.397	46.22
237.614	46.63
237.831	43.03
238.048	45.53
238.264	42.87
238.481	46.56
238.698	44.92
238.915	47.29
239.131	44.08
239.348	44.85
239.565	44.52
239.781	45.45
239.998	41.99
240.215	40.77
240.431	38.66
240.648	35.98
240.865	31.89
241.081	29.98
241.298	27.63
241.514	25.49
241.731	23.07
241.947	21.02
242.164	19.29
242.38	18.94
242.597	18.28
242.814	18.33
243.03	16.65
243.246	16.93
243.463	17.33
243.679	18.9
243.896	17.76
244.112	19.22
244.329	18.17
244.545	20.61
244.762	21.19
244.978	22.25
245.194	22.04
245.411	21.66
245.627	21.75
245.843	20.38
246.06	17.94
246.276	20.37
246.492	18.38
246.709	17.89
246.925	15.98
247.141	15.43
247.357	14.68
247.574	14.22
247.79	15.03
248.006	14.22
248.222	14.71
248.439	15.33
248.655	14.28
248.871	14.72
249.087	15.67
249.303	15.6
249.519	17.5
249.736	19.43
249.952	19.62
250.168	19.98
250.384	22.15
250.6	21.05
250.816	20.72
251.032	19.73
251.248	19.06
251.464	17.51
251.68	18.2
251.896	16.63
252.112	16.56
252.328	17.62
252.544	18.21
252.76	17.97
252.976	17.37
253.192	17
253.408	17.86
253.624	22.51
253.84	23.46
254.056	25.64
254.272	26.54
254.487	26.11
254.703	24.81
254.919	24.79
255.135	24.13
255.351	27.23
255.567	30.28
255.782	32.65
255.998	27.55
256.214	27.03
256.43	23.39
256.646	24.48
256.861	23.68
257.077	24.61
257.293	23.81
257.508	23.1
257.724	24.4
257.94	21.04
258.155	19.54
258.371	18.73
258.587	17.55
258.802	18.67
259.018	18.42
259.234	17.87
259.449	17.64
259.665	16.63
259.88	17.32
260.096	16
260.312	15.38
260.527	14.77
260.743	14.86
260.958	15.78
261.174	15.26
261.389	14.98
261.605	15.15
261.82	15.72
262.036	16.44
262.251	16.2
262.466	16.8
262.682	18.27
262.897	18.75
263.113	19.74
263.328	19.36
263.543	19.92
263.759	19.81
263.974	20.51
264.189	19
264.405	19.25
264.62	18.06
264.835	17.74
265.051	18.83
265.266	20.92
265.481	20.83
265.696	21.24
265.912	20.88
266.127	18.71
266.342	17.65
266.557	19.41
266.773	19.48
266.988	20.11
267.203	21.07
267.418	20.19
267.633	18.53
267.848	18.82
268.064	16.43
268.279	16.98
268.494	16.33
268.709	16.02
268.924	14.2
269.139	14.54
269.354	13.75
269.569	11.68
269.784	12.18
269.999	13.01
270.214	11.47
270.429	14.05
270.644	12.94
270.859	13.67
271.074	14.58
271.289	14.81
271.504	14.89
271.719	15.49
271.934	16.09
272.149	14.86
272.363	14.26
272.578	14.01
272.793	12.84
273.008	13.33
273.223	13.07
273.438	11.95
273.653	12.4
273.867	11.5
274.082	9.88
274.297	10.09
274.512	11.02
274.726	11.21
274.941	11.92
275.156	13.14
275.371	13.38
275.585	14.67
275.8	15.77
276.015	15.86
276.229	16.16
276.444	18.18
276.659	18.4
276.873	18.03
277.088	17.52
277.302	17.91
277.517	19.22
277.732	21.09
277.946	20.88
278.161	21.46
278.375	22.35
278.59	23.11
278.804	22.53
279.019	21.94
279.233	21.8
279.448	22.37
279.662	21.7
279.877	19.6
280.091	17.03
280.306	15.92
280.52	16.48
280.735	14.45
280.949	14.38
281.163	13.69
281.378	12.48
281.592	12.43
281.806	12.35
282.021	11.32
282.235	11.5
282.449	12.5
282.664	14.26
282.878	12.91
283.092	13.48
283.307	11.82
283.521	12.97
283.735	13.86
283.949	15.16
284.164	15.61
284.378	16.42
284.592	15.96
284.806	14.97
285.02	13.13
285.234	12.39
285.449	11.79
285.663	12.86
285.877	12.32
286.091	12.25
286.305	11.45
286.519	10.94
286.733	10.65
286.947	10.89
287.161	11.18
287.375	12.19
287.589	13.72
287.803	14.9
288.017	14.61
288.231	14.41
288.445	14.3
288.659	15.34
288.873	15.43
289.087	16.25
289.301	17.22
289.515	17.07
289.729	16.39
289.943	15.65
290.157	14.89
290.371	16
290.584	16.03
290.798	16.97
291.012	16.39
291.226	15.9
291.44	16.13
291.654	14.54
291.867	14.14
292.081	13.83
292.295	14.23
292.509	14.38
292.722	13.91
292.936	13.17
293.15	13.16
293.364	12.78
293.577	13.53
293.791	11.98
294.005	13.46
294.218	14.12
294.432	15.82
294.645	16.92
294.859	16.5
295.073	16.28
295.286	17.26
295.5	16.04
295.713	16.36
295.927	16.06
296.14	16.45
296.354	15.81
296.568	15.61
296.781	14.79
296.994	13.77
297.208	13.61
297.421	13.16
297.635	12.63
297.848	13.27
298.062	12.49
298.275	13.24
298.489	13.5
298.702	13.84
298.915	13.79
299.129	13.88
299.342	14.04
299.555	15.28
299.769	16.63
299.982	16.17
300.195	15.38
300.409	15.94
300.622	15.34
300.835	15.95
301.048	15.86
301.262	15.91
301.475	15.47
301.688	16.43
301.901	16.57
302.115	15.67
302.328	17.03
302.541	17.15
302.754	18.45
302.967	19.35
303.18	19.35
303.393	19.01
303.607	19.63
303.82	21.26
304.033	19.71
304.246	19.5
304.459	19.57
304.672	19.88
304.885	21.56
305.098	20.34
305.311	20.11
305.524	21.13
305.737	22.34
305.95	22.25
306.163	20.48
306.376	20.77
306.589	20.31
306.802	19.77
307.015	19.12
307.228	18.6
307.44	18.2
307.653	17.23
307.866	15.35
308.079	15.62
308.292	16.11
308.505	17.38
308.718	17.07
308.93	17.24
309.143	17.7
309.356	17.63
309.569	16.67
309.781	17.53
309.994	17.73
310.207	17.67
310.42	16.35
310.632	15.5
310.845	15.21
311.058	14.98
311.27	15.33
311.483	14.71
311.696	14.84
311.908	14.97
312.121	14.24
312.333	15.1
312.546	15.16
312.759	16.2
312.971	16.8
313.184	16.95
313.396	17.31
313.609	17.9
313.821	18.69
314.034	18.58
314.246	19.53
314.459	19.06
314.671	18.16
314.884	18.12
315.096	16.72
315.309	15.57
315.521	16.29
315.733	16.62
315.946	14.47
316.158	14.51
316.371	14.39
316.583	14.05
316.795	14.07
317.008	14.3
317.22	15.75
317.432	16.68
317.644	18.01
317.857	16.08
318.069	15.94
318.281	17.4
318.494	17.96
318.706	17.3
318.918	17.22
319.13	19.26
319.342	19.73
319.555	17.77
319.767	17.86
319.979	17.96
320.191	18.75
320.403	18.69
320.615	18.53
320.827	17.76
321.039	18.46
321.252	17.98
321.464	15.86
321.676	15.08
321.888	15.92
322.1	15.27
322.312	13.7
322.524	13.49
322.736	13.43
322.948	12.45
323.16	11.72
323.372	12.7
323.584	13.42
323.796	14.36
324.007	13.59
324.219	13.36
324.431	13.35
324.643	13.81
324.855	14.12
325.067	14.35
325.279	14.38
325.491	14.98
325.702	13.4
325.914	12.64
326.126	12.84
326.338	13.9
326.55	13.85
326.761	14.74
326.973	14.74
327.185	14.75
327.396	14.77
327.608	15.99
327.82	16.41
328.032	17.13
328.243	17.2
328.455	18.12
328.666	18.13
328.878	18.1
329.09	17
329.301	16.85
329.513	16.27
329.725	16.62
329.936	15.69
330.148	15
330.359	14.75
330.571	14.36
330.782	13.96
330.994	14.41
331.205	15.3
331.417	16.72
331.628	17.94
331.84	18.7
332.051	18.89
332.262	19.56
332.474	19.41
332.685	20.88
332.897	21.69
333.108	21.56
333.319	20.58
333.531	20.29
333.742	20.47
333.953	19.73
334.165	20.03
334.376	19.94
334.587	19.69
334.799	20.29
335.01	19.3
335.221	18.88
335.432	18.65
335.644	18.39
335.855	18.77
336.066	18.07
336.277	17.56
336.488	17.61
336.7	17.07
336.911	16.73
337.122	16.31
337.333	17.2
337.544	18.55
337.755	17.9
337.966	18.19
338.177	18.05
338.388	18.37
338.599	20.13
338.811	19.56
339.022	19.74
339.233	20.94
339.444	21.28
339.655	19.7
339.866	18.82
340.076	19.92
340.287	20.13
340.498	19.8
340.709	19.3
340.92	18.23
341.131	19.23
341.342	19.23
341.553	17.87
341.764	18.54
341.975	20.18
342.185	19.81
342.396	19.33
342.607	19.71
342.818	19.86
343.029	20.46
343.239	20.39
343.45	19.98
343.661	20.45
343.872	20.71
344.082	19.45
344.293	18.37
344.504	18.98
344.714	18.48
344.925	17.79
345.136	17.78
345.346	17.31
345.557	16.74
345.768	16.46
345.978	15.76
346.189	16.24
346.399	16.38
346.61	16.75
346.821	16.02
347.031	16.93
347.242	16.74
347.452	16.41
347.663	16.62
347.873	17.95
348.084	17.37
348.294	17.28
348.504	16.72
348.715	16.59
348.925	15.83
349.136	15.89
349.346	14.78
349.557	15.08
349.767	15.71
349.977	15.34
350.188	14.78
350.398	16.5
350.608	17.06
350.819	16.74
351.029	17.61
351.239	18.4
351.449	18.7
351.66	18.88
351.87	19.67
352.08	19.03
352.29	19.24
352.501	19.01
352.711	17.52
352.921	17.47
353.131	17.7
353.341	17.18
353.552	16.75
353.762	17.01
353.972	17.31
354.182	17.29
354.392	16.83
354.602	16.87
354.812	17.37
355.022	17.65
355.232	17.6
355.442	18.21
355.652	18.57
355.862	17.96
356.072	17.75
356.282	16.72
356.492	16.69
356.702	16.8
356.912	16.96
357.122	16.4
357.332	16.14
357.542	15.88
357.752	15.59
357.962	15.51
358.171	15.59
358.381	15.73
358.591	16.67
358.801	16.14
359.011	17.08
359.221	16.71
359.43	16.31
359.64	16.7
359.85	16.7
360.06	16.56
360.269	16.54
360.479	16.74
360.689	16.08
360.899	15.42
361.108	15.35
361.318	14.75
361.528	14.32
361.737	14.16
361.947	13.58
362.156	13.58
362.366	13.3
362.576	13.08
362.785	12.97
362.995	12.83
363.204	12.99
363.414	12.65
363.623	12.38
363.833	13.23
364.042	13.81
364.252	14.37
364.461	14.25
364.671	14.4
364.88	14.81
365.09	15.47
365.299	16.15
365.509	16.19
365.718	16.15
365.927	16.23
366.137	16.08
366.346	15.79
366.555	15.67
366.765	15.89
366.974	16.23
367.183	15.86
367.393	15.15
367.602	14.41
367.811	13.98
368.021	13.83
368.23	13.71
368.439	13.1
368.648	13.06
368.857	13.22
369.067	13.37
369.276	12.75
369.485	12.67
369.694	12.83
369.903	13.35
370.112	13.54
370.321	13.74
370.531	13.99
370.74	13.89
370.949	13.85
371.158	13.29
371.367	13.29
371.576	13.51
371.785	12.98
371.994	12.78
372.203	12.59
372.412	12.79
372.621	12.87
372.83	13.02
373.039	13
373.248	12.81
373.457	12.74
373.666	11.79
373.874	11.39
374.083	12.17
374.292	12.11
374.501	12.07
374.71	12.01
374.919	12.26
375.128	11.84
375.336	11.8
375.545	11.96
375.754	12.18
375.963	12.84
376.171	13.05
376.38	12.65
376.589	13.29
376.798	13.06
377.006	13.37
377.215	13.16
377.424	13.2
377.632	13.67
377.841	13.66
378.05	13.25
378.258	13.09
378.467	13.2
378.675	13.2
378.884	12.68
379.093	12.97
379.301	12.59
379.51	12.61
379.718	12.12
379.927	11.8
380.135	11.26
380.344	11.24
380.552	11
380.761	10.99
380.969	10.79
381.177	10.8
381.386	10.02
381.594	10.03
381.803	9.98
382.011	10.25
382.219	9.73
382.428	9.85
382.636	9.73
382.845	10.25
383.053	9.99
383.261	10.03
383.469	9.93
383.678	10.62
383.886	10.67
384.094	10.6
384.302	10.93
384.511	11.69
384.719	11.7
384.927	11.84
385.135	11.51
385.343	11.44
385.552	11.43
385.76	11.36
385.968	10.98
386.176	10.67
386.384	10.38
386.592	9.98
386.8	9.44
387.008	9.65
387.216	9.72
387.424	9.36
387.633	9.42
387.841	9.35
388.049	9.32
388.257	9.26
388.465	9.07
388.672	9.32
388.88	9.51
389.088	9.38
389.296	9.15
389.504	9.18
389.712	9.49
389.92	9.25
390.128	8.97
390.336	9.01
390.544	9.46
390.751	9.55
390.959	9.24
391.167	9.19
391.375	9.35
391.583	9.22
391.79	9.29
391.998	9.35
392.206	9.72
392.414	9.9
392.621	9.74
392.829	9.47
393.037	9.51
393.244	9.65
393.452	9.75
393.66	9.88
393.867	10.37
394.075	10.38
394.283	10.25
394.49	9.9
394.698	9.95
394.905	9.84
395.113	9.9
395.32	9.99
395.528	10.08
395.735	10.19
395.943	9.88
396.15	9.6
396.358	9.43
396.565	9.29
396.773	9.72
396.98	9.66
397.188	9.85
397.395	9.8
397.602	9.69
397.81	9.6
398.017	9.55
398.225	9.49
398.432	9.66
398.639	9.71
398.847	9.87
399.054	9.35
399.261	9.53
399.468	9.7
399.676	9.53
399.883	9.58
400.09	9.83
400.297	9.7
400.505	10.06
400.712	9.82
400.919	10.04
401.126	9.98
401.333	10.05
401.54	10.03
401.748	9.97
401.955	10.2
402.162	10.3
402.369	10.08
402.576	10.04
402.783	9.96
402.99	9.85
403.197	9.48
403.404	9.44
403.611	9.66
403.818	9.3
404.025	9.07
404.232	9.07
404.439	8.78
404.646	8.55
404.853	8.43
405.06	8.46
405.267	8.61
405.474	8.64
405.681	8.39
405.887	8.22
406.094	8.45
406.301	8.66
406.508	8.5
406.715	8.74
406.922	9.08
407.128	8.81
407.335	8.63
407.542	8.39
407.749	8.61
407.955	9.14
408.162	8.99
408.369	9.16
408.575	9.19
408.782	9.1
408.989	8.83
409.195	8.68
409.402	9
409.609	9.04
409.815	9.31
410.022	9.25
410.228	8.94
410.435	9.08
410.642	8.63
410.848	8.72
411.055	8.83
411.261	8.83
411.468	8.92
411.674	8.88
411.881	8.95
412.087	9.16
412.294	9.03
412.5	8.87
412.706	8.95
412.913	9.06
413.119	8.75
413.326	8.84
413.532	9.15
413.738	9
413.945	9.1
414.151	8.97
414.357	8.71
414.564	8.48
414.77	8.54
414.976	8.4
415.182	8.78
415.389	8.98
415.595	8.69
415.801	8.55
416.007	8.66
416.214	8.7
416.42	8.73
416.626	8.52
416.832	8.73
417.038	8.71
417.244	8.63
417.45	8.18
417.657	8.1
417.863	8.38
418.069	8.42
418.275	8.41
418.481	8.24
418.687	8.15
418.893	8.3
419.099	8.25
419.305	8.33
419.511	8.38
419.717	8.52
419.923	8.39
420.129	8.22
420.335	8.1
420.541	8.03
420.746	8.03
420.952	8.16
421.158	8
421.364	7.93
421.57	8
421.776	8
421.982	7.95
422.187	7.88
422.393	7.89
422.599	7.85
422.805	7.93
423.01	7.83
423.216	7.68
423.422	7.77
423.628	7.93
423.833	7.82
424.039	7.91
424.245	7.92
424.45	8.14
424.656	8.11
424.862	8.21
425.067	8.18
425.273	8.22
425.478	8.35
425.684	8.25
425.889	8.31
426.095	8.37
426.301	8.26
426.506	8.24
426.712	8.1
426.917	8.1
427.123	8.21
427.328	8.2
427.533	8.43
427.739	8.29
427.944	8.51
428.15	8.26
428.355	8.21
428.561	8.27
428.766	8.19
428.971	8.31
429.177	8.39
429.382	8.46
429.587	8.53
429.793	8.45
429.998	8.43
430.203	8.32
430.408	8.25
430.614	8.32
430.819	8.21
431.024	8.33
431.229	8.28
431.434	8.43
431.64	8.24
431.845	8.27
432.05	8.32
432.255	8.41
432.46	8.26
432.665	8.4
432.87	8.46
433.076	8.42
433.281	8.55
433.486	8.44
433.691	8.12
433.896	7.98
434.101	7.94
434.306	8.01
434.511	8.01
434.716	8.09
434.921	8.15
435.126	8
435.331	8.01
435.535	7.77
435.74	7.92
435.945	8.16
436.15	8.35
436.355	8.35
436.56	8.13
436.765	8.16
436.97	8.14
437.174	8.03
437.379	8.09
437.584	8.25
437.789	8.33
437.993	8.36
438.198	8.3
438.403	8.34
438.608	8.37
438.812	8.36
439.017	8.4
439.222	8.38
439.426	8.37
439.631	8.36
439.836	8.19
440.04	8.33
440.245	8.22
440.45	8.13
440.654	8.06
440.859	7.89
441.063	7.92
441.268	7.84
441.472	7.87
441.677	7.88
441.881	7.81
442.086	7.96
442.29	7.81
442.495	7.8
442.699	7.87
442.904	7.7
443.108	7.85
443.312	7.86
443.517	7.93
443.721	7.99
443.925	8.03
444.13	8.11
444.334	7.95
444.538	7.84
444.743	7.85
444.947	7.78
445.151	7.82
445.356	7.78
445.56	7.73
445.764	7.64
445.968	7.69
446.173	7.63
446.377	7.62
446.581	7.64
446.785	7.68
446.989	7.67
447.193	7.71
447.398	7.73
447.602	7.72
447.806	7.88
448.01	8.01
448.214	8.03
448.418	7.95
448.622	7.91
448.826	7.98
449.03	8.15
449.234	8.16
449.438	8.11
449.642	8.22
449.846	8.24
450.05	8.21
450.254	7.92
450.458	7.99
450.662	7.96
450.866	7.95
451.069	7.91
451.273	7.7
451.477	7.72
451.681	7.68
451.885	7.35
452.089	7.34
452.292	7.25
452.496	7.49
452.7	7.39
452.904	7.66
453.107	7.75
453.311	7.9
453.515	7.97
453.719	7.87
453.922	7.99
454.126	8.23
454.33	8.25
454.533	8.1
454.737	7.88
454.94	7.78
455.144	7.6
455.348	7.62
455.551	7.35
455.755	7.27
455.958	7.45
456.162	7.33
456.365	7.49
456.569	7.38
456.772	7.43
456.976	7.63
457.179	7.67
457.383	7.77
457.586	7.81
457.79	7.87
457.993	7.99
458.196	7.82
458.4	7.88
458.603	7.73
458.807	7.89
459.01	7.95
459.213	7.77
459.417	7.69
459.62	7.72
459.823	7.66
460.026	7.59
460.23	7.58
460.433	7.76
460.636	7.75
460.839	7.77
461.042	7.69
461.246	7.72
461.449	7.8
461.652	7.97
461.855	7.85
462.058	7.79
462.261	7.85
462.464	7.79
462.668	7.72
462.871	7.87
463.074	7.94
463.277	7.77
463.48	7.86
463.683	7.99
463.886	8.02
464.089	8.1
464.292	8.18
464.495	8.33
464.698	8.35
464.901	8.38
465.104	8.29
465.306	8.29
465.509	8.53
465.712	8.42
465.915	8.36
466.118	8.14
466.321	8.08
466.524	8.08
466.726	8.01
466.929	7.89
467.132	7.89
467.335	7.71
467.538	7.55
467.74	7.43
467.943	7.58
468.146	7.57
468.348	7.66
468.551	7.73
468.754	7.8
468.956	7.71
469.159	7.77
469.362	7.65
469.564	7.65
469.767	7.73
469.969	7.75
470.172	7.57
470.375	7.58
470.577	7.44
470.78	7.34
470.982	7.27
471.185	7.26
471.387	7.47
471.59	7.55
471.792	7.68
471.995	7.7
472.197	7.76
472.399	7.68
472.602	7.59
472.804	7.69
473.007	7.78
473.209	7.64
473.411	7.76
473.614	7.71
473.816	7.75
474.018	7.65
474.22	7.69
474.423	7.76
474.625	7.85
474.827	7.84
475.03	7.87
475.232	7.88
475.434	8.03
475.636	8.13
475.838	8.05
476.04	7.88
476.243	7.95
476.445	7.92
476.647	7.77
476.849	7.68
477.051	7.72
477.253	7.86
477.455	7.9
477.657	7.81
477.859	7.69
478.061	7.59
478.263	7.59
478.465	7.66
478.667	7.62
478.869	7.63
479.071	7.67
479.273	7.6
479.475	7.31
479.677	7.27
479.879	7.21
480.081	7.17
480.283	7.21
480.485	7.11
480.686	7.11
480.888	7.14
481.09	7.07
481.292	7.02
481.494	7.11
481.695	7.26
481.897	7.16
482.099	7.18
482.301	7.16
482.502	7.19
482.704	7.26
482.906	7.16
483.107	7.12
483.309	7.11
483.511	7.12
483.712	7.03
483.914	7
484.115	6.98
484.317	6.99
484.519	6.98
484.72	6.96
484.922	6.92
485.123	6.96
485.325	6.96
485.526	6.99
485.728	6.98
485.929	7.01
486.131	6.99
486.332	7.04
486.534	7.01
486.735	7.03
486.936	6.96
487.138	6.95
487.339	6.86
487.541	6.86
487.742	6.84
487.943	6.83
488.144	6.84
488.346	6.79
488.547	6.77
488.748	6.78
488.95	6.72
489.151	6.77
489.352	6.84
489.553	6.85
489.755	6.86
489.956	6.84
490.157	6.84
490.358	6.9
490.559	7.02
490.76	7
490.961	6.95
491.163	7.01
491.364	7.06
491.565	7.02
491.766	7.1
491.967	7.11
492.168	7.16
492.369	7.15
492.57	7.09
492.771	7.12
492.972	7.14
493.173	7.26
493.374	7.27
493.575	7.27
493.776	7.31
493.976	7.33
494.177	7.44
494.378	7.46
494.579	7.43
494.78	7.57
494.981	7.56
495.182	7.46
495.382	7.44
495.583	7.37
495.784	7.33
495.985	7.46
496.185	7.37
496.386	7.19
496.587	7.47
496.788	7.47
496.988	7.46
497.189	7.45
497.39	7.56
497.59	7.59
497.791	7.71
497.992	7.67
498.192	7.63
498.393	7.83
498.593	7.88
498.794	7.55
498.994	7.69
499.195	7.68
499.395	7.75
499.596	7.88
499.796	7.79
499.997	7.77
500.197	8.06
500.398	8.02
500.598	7.9
500.799	7.97
500.999	8.01
501.199	7.98
501.4	7.92
501.6	7.92
501.801	7.93
502.001	8.08
502.201	8.08
502.402	8.01
502.602	7.94
502.802	7.87
503.002	7.87
503.203	7.97
503.403	7.99
503.603	8.06
503.803	8
504.003	7.88
504.204	7.91
504.404	7.99
504.604	7.84
504.804	7.99
505.004	8.05
505.204	8.12
505.404	8.16
505.604	8.25
505.804	8.12
506.005	8.23
506.205	8.32
506.405	8.32
506.605	8.29
506.805	8.37
507.005	8.38
507.204	8.45
507.404	8.41
507.604	8.32
507.804	8.23
508.004	8.45
508.204	8.48
508.404	8.48
508.604	8.45
508.804	8.45
509.003	8.5
509.203	8.5
509.403	8.47
509.603	8.49
509.803	8.78
510.002	8.98
510.202	8.88
510.402	8.91
510.602	8.99
510.801	9.06
511.001	9.08
511.201	9.03
511.4	8.97
511.6	9.12
511.8	9.15
511.999	9.13
512.199	8.99
512.398	9.03
512.598	9.07
512.797	9.08
512.997	9.14
513.197	9.25
513.396	9.45
513.596	9.66
513.795	9.69
513.994	9.71
514.194	9.58
514.393	9.67
514.593	9.72
514.792	9.75
514.992	9.78
515.191	9.67
515.39	9.58
515.59	9.44
515.789	9.5
515.988	9.45
516.188	9.46
516.387	9.55
516.586	9.47
516.786	9.59
516.985	9.55
517.184	9.59
517.383	9.77
517.582	9.87
517.782	9.86
517.981	9.7
518.18	9.66
518.379	9.77
518.578	9.69
518.777	9.8
518.976	9.68
519.176	9.73
519.375	9.74
519.574	9.72
519.773	9.7
519.972	9.71
520.171	9.73
520.37	9.81
520.569	9.8
520.768	9.88
520.967	9.89
521.166	9.91
521.365	9.82
521.564	9.84
521.762	9.86
521.961	9.93
522.16	10.02
522.359	9.98
522.558	9.97
522.757	9.84
522.956	9.87
523.154	9.74
523.353	9.89
523.552	9.96
523.751	10.09
523.949	10.09
524.148	10.13
524.347	10.12
524.546	10.18
524.744	10.1
524.943	10.23
525.142	10.15
525.34	10.3
525.539	10.29
525.737	10.35
525.936	10.29
526.135	10.21
526.333	10.1
526.532	10.1
526.73	10.23
526.929	10.23
527.127	10.19
527.326	10.29
527.524	10.28
527.723	10.29
527.921	10.26
528.12	10.2
528.318	10.29
528.516	10.34
528.715	10.35
528.913	10.29
529.112	10.36
529.31	10.35
529.508	10.32
529.707	10.31
529.905	10.37
530.103	10.43
530.301	10.49
530.5	10.49
530.698	10.52
530.896	10.6
531.094	10.74
531.293	10.82
531.491	10.97
531.689	11.08
531.887	11.17
532.085	11.18
532.283	11.18
532.481	11.22
532.68	11.23
532.878	11.18
533.076	11.19
533.274	11.11
533.472	11.12
533.67	11.11
533.868	11.13
534.066	11.13
534.264	11.04
534.462	11.04
534.66	11.11
534.858	11.18
535.056	11.2
535.253	11.15
535.451	11.23
535.649	11.26
535.847	11.31
536.045	11.33
536.243	11.32
536.441	11.51
536.638	11.61
536.836	11.61
537.034	11.6
537.232	11.63
537.43	11.67
537.627	11.78
537.825	11.72
538.023	11.71
538.22	11.79
538.418	11.96
538.616	12.08
538.813	12.17
539.011	12.28
539.209	12.37
539.406	12.49
539.604	12.67
539.801	12.71
539.999	12.76
540.196	12.87
540.394	12.87
540.591	12.81
540.789	12.66
540.986	12.55
541.184	12.56
541.381	12.56
541.579	12.56
541.776	12.55
541.974	12.46
542.171	12.51
542.368	12.47
542.566	12.47
542.763	12.53
542.96	12.56
543.158	12.73
543.355	12.79
543.552	12.88
543.75	13.06
543.947	12.97
544.144	13.03
544.341	13.11
544.539	13.18
544.736	13.33
544.933	13.31
545.13	13.45
545.327	13.3
545.524	13.29
545.722	13.32
545.919	13.21
546.116	13.44
546.313	13.53
546.51	13.59
546.707	13.69
546.904	13.74
547.101	13.85
547.298	13.94
547.495	14.07
547.692	14.02
547.889	13.96
548.086	14.17
548.283	14.29
548.48	14.43
548.677	14.37
548.874	14.36
549.07	14.48
549.267	14.45
549.464	14.37
549.661	14.56
549.858	14.75
550.055	15.1
550.251	15.02
550.448	15.11
550.645	15.16
550.842	15.32
551.038	15.44
551.235	15.36
551.432	15.41
551.628	15.41
551.825	15.51
552.022	15.49
552.218	15.4
552.415	15.66
552.612	15.53
552.808	15.48
553.005	15.49
553.201	15.56
553.398	15.52
553.594	15.52
553.791	15.73
553.987	15.81
554.184	15.98
554.38	15.92
554.577	15.68
554.773	15.9
554.97	16.12
555.166	16.27
555.362	16.34
555.559	16.39
555.755	16.62
555.952	16.67
556.148	16.68
556.344	16.65
556.541	16.77
556.737	17
556.933	16.99
557.129	16.74
557.326	16.77
557.522	16.81
557.718	17.04
557.914	17.06
558.11	17.09
558.307	17.03
558.503	17.25
558.699	17.36
558.895	17.46
559.091	17.3
559.287	17.57
559.483	17.53
559.679	17.78
559.876	17.78
560.072	17.8
560.268	17.81
560.464	17.82
560.66	17.87
560.856	17.96
561.052	18.06
561.247	18.37
561.443	18.54
561.639	18.78
561.835	18.68
562.031	18.78
562.227	18.91
562.423	18.96
562.619	19.16
562.815	19.29
563.01	19.56
563.206	19.53
563.402	19.47
563.598	19.46
563.793	19.42
563.989	19.36
564.185	19.22
564.381	19.5
564.576	19.65
564.772	19.69
564.968	19.73
565.163	19.51
565.359	19.41
565.555	19.61
565.75	19.77
565.946	19.88
566.141	19.91
566.337	20.11
566.532	20.04
566.728	20.07
566.923	20.13
567.119	20.11
567.314	20.19
567.51	20.42
567.705	20.36
567.901	20.41
568.096	20.59
568.292	20.73
568.487	20.8
568.682	20.79
568.878	20.81
569.073	20.91
569.268	20.91
569.464	21.03
569.659	21.07
569.854	21.17
570.05	21.06
570.245	20.82
570.44	21.07
570.635	21.07
570.831	21.03
571.026	21.27
571.221	21.29
571.416	21.36
571.611	21.38
571.806	21.42
572.002	21.4
572.197	21.49
572.392	21.62
572.587	21.48
572.782	21.66
572.977	21.91
573.172	22.01
573.367	21.96
573.562	22.02
573.757	22.02
573.952	22.2
574.147	22.44
574.342	22.68
574.537	22.85
574.732	23.05
574.927	23.03
575.121	22.93
575.316	22.81
575.511	22.89
575.706	22.94
575.901	22.95
576.096	22.99
576.29	22.88
576.485	22.87
576.68	22.93
576.875	22.82
577.069	22.89
577.264	23.02
577.459	23.42
577.654	23.49
577.848	23.52
578.043	23.71
578.238	23.77
578.432	23.83
578.627	23.73
578.821	23.88
579.016	23.96
579.21	24
579.405	24.07
579.6	23.79
579.794	23.81
579.989	23.85
580.183	24.2
580.378	24.22
580.572	24.51
580.766	24.64
580.961	24.65
581.155	24.97
581.35	25.14
581.544	25.17
581.738	25.11
581.933	25.2
582.127	25.6
582.321	25.62
582.516	25.76
582.71	25.94
582.904	26.14
583.099	26.02
583.293	25.96
583.487	25.93
583.681	26.23
583.875	26.37
584.07	26.56
584.264	26.19
584.458	26.01
584.652	25.82
584.846	25.48
585.04	25.34
585.234	25.62
585.428	25.36
585.623	25.46
585.817	25.22
586.011	25.34
586.205	25.51
586.399	25.81
586.593	25.96
586.787	26.35
586.981	26.58
587.174	26.57
587.368	26.33
587.562	26.66
587.756	26.59
587.95	26.67
588.144	26.64
588.338	26.68
588.532	26.59
588.725	26.49
588.919	26.51
589.113	26.38
589.307	26.52
589.501	26.6
589.694	26.67
589.888	26.8
590.082	26.89
590.275	27.16
590.469	27.27
590.663	27.13
590.856	27.26
591.05	27.2
591.244	27.25
591.437	27.58
591.631	27.59
591.824	27.56
592.018	27.66
592.212	27.63
592.405	27.54
592.599	27.4
592.792	27.7
592.986	27.86
593.179	27.95
593.372	27.97
593.566	27.86
593.759	28.04
593.953	28.16
594.146	28.07
594.339	28.27
594.533	28.46
594.726	28.54
594.92	28.41
595.113	28.1
595.306	28.11
595.499	28.05
595.693	28.03
595.886	27.93
596.079	27.88
596.272	27.83
596.466	27.88
596.659	27.81
596.852	27.8
597.045	27.93
597.238	28.1
597.431	27.96
597.624	28.31
597.818	28.32
598.011	28.44
598.204	28.52
598.397	28.77
598.59	28.54
598.783	28.64
598.976	28.56
599.169	28.79
599.362	28.98
599.555	29.18
599.748	29.2
599.941	29.09
600.134	29.05
600.326	29.25
600.519	29.38
600.712	29.67
600.905	29.55
601.098	29.9
601.291	29.9
601.483	30.03
601.676	30.26
601.869	29.96
602.062	30.28
602.255	30.32
602.447	30.23
602.64	30.06
602.833	30.19
603.025	30.04
603.218	29.98
603.411	29.98
603.603	29.89
603.796	29.69
603.989	29.89
604.181	29.82
604.374	30.02
604.566	29.98
604.759	30.01
604.951	29.77
605.144	29.89
605.336	30.02
605.529	29.94
605.721	29.96
605.914	29.99
606.106	29.98
606.299	30
606.491	30.02
606.683	30.15
606.876	30.04
607.068	30.27
607.26	30.43
607.453	30.3
607.645	30.42
607.837	30.27
608.03	30.52
608.222	30.54
608.414	30.63
608.606	30.58
608.799	30.59
608.991	30.72
609.183	30.77
609.375	30.89
609.567	30.9
609.759	30.77
609.952	30.99
610.144	30.96
610.336	30.94
610.528	30.98
610.72	30.86
610.912	30.91
611.104	31.27
611.296	31.41
611.488	31.32
611.68	31.66
611.872	31.66
612.064	32.11
612.256	32.03
612.448	32.27
612.64	32.14
612.832	32.35
613.023	32.28
613.215	32.02
613.407	31.8
613.599	32.13
613.791	31.71
613.983	31.98
614.174	31.45
614.366	31.45
614.558	31.36
614.75	31.34
614.941	31.57
615.133	31.82
615.325	32.2
615.516	32.53
615.708	32.13
615.9	32.18
616.091	32.36
616.283	32.52
616.475	32.72
616.666	32.67
616.858	32.95
617.049	32.78
617.241	32.67
617.432	32.39
617.624	32.11
617.815	32.06
618.007	32.28
618.198	32.22
618.39	32.26
618.581	32.26
618.773	32.46
618.964	32.46
619.155	32.52
619.347	32.51
619.538	32.47
619.729	32.74
619.921	33.18
620.112	33.24
620.303	33.25
620.494	33.52
620.686	33.32
620.877	33.22
621.068	33.34
621.259	33.26
621.451	33.2
621.642	33.44
621.833	33.37
622.024	33.35
622.215	33.29
622.406	33.42
622.597	33.1
622.788	33.09
622.98	33.3
623.171	33.41
623.362	33.53
623.553	33.91
623.744	33.53
623.935	33.81
624.126	33.6
624.317	33.6
624.508	33.53
624.698	33.58
624.889	33.83
625.08	33.91
625.271	33.96
625.462	34
625.653	33.75
625.844	34.01
626.034	33.75
626.225	33.97
626.416	33.92
626.607	33.88
626.798	34.01
626.988	34.04
627.179	33.91
627.37	33.68
627.56	33.84
627.751	33.93
627.942	34.08
628.132	34.14
628.323	34.07
628.514	34.36
628.704	34.28
628.895	34.31
629.085	34.51
629.276	34.63
629.466	34.82
629.657	34.68
629.847	34.71
630.038	34.65
630.228	34.72
630.419	35.01
630.609	34.93
630.8	35.02
630.99	34.9
631.181	35.03
631.371	34.91
631.561	34.97
631.752	35.3
631.942	35.25
632.132	35.13
632.323	35.08
632.513	34.89
632.703	34.79
632.893	34.94
633.084	34.9
633.274	34.58
633.464	34.7
633.654	34.82
633.844	34.63
634.034	34.85
634.225	35.1
634.415	35.05
634.605	35.15
634.795	35.18
634.985	35.47
635.175	35.71
635.365	35.59
635.555	35.69
635.745	35.53
635.935	35.48
636.125	35.31
636.315	35.17
636.505	35.45
636.695	35.31
636.885	35.27
637.075	35.03
637.265	35.07
637.455	35.29
637.644	35.2
637.834	35.32
638.024	35.44
638.214	35.53
638.404	35.71
638.593	35.76
638.783	35.91
638.973	36.19
639.163	35.98
639.352	36.09
639.542	36.18
639.732	36.46
639.921	36.65
640.111	36.65
640.301	36.85
640.49	36.77
640.68	36.83
640.87	37.01
641.059	37.03
641.249	37.71
641.438	37.67
641.628	37.64
641.817	37.34
642.007	37.36
642.196	37.32
642.386	37.33
642.575	37.61
642.764	37.27
642.954	36.94
643.143	37.1
643.333	36.77
643.522	36.52
643.711	36.56
643.901	36.56
644.09	36.52
644.279	36.75
644.469	36.9
644.658	36.95
644.847	37.1
645.036	37.32
645.226	37.14
645.415	37.29
645.604	37.63
645.793	37.93
645.982	38.17
646.171	38.17
646.361	38.48
646.55	38.44
646.739	38.12
646.928	38.32
647.117	38.37
647.306	38.42
647.495	38.32
647.684	38.23
647.873	38.26
648.062	38.33
648.251	38.39
648.44	37.86
648.629	37.68
648.818	38.05
649.007	37.59
649.196	37.7
649.384	37.74
649.573	37.58
649.762	37.64
649.951	37.41
650.14	37.46
650.328	37.71
650.517	37.66
650.706	38.03
650.895	38
651.083	38.49
651.272	38.28
651.461	38.19
651.65	38.9
651.838	38.9
652.027	38.86
652.216	38.73
652.404	38.75
652.593	39.02
652.781	38.96
652.97	38.77
653.158	38.89
653.347	39.21
653.535	39.3
653.724	38.75
653.912	38.87
654.101	38.98
654.289	39.1
654.478	38.9
654.666	38.86
654.855	38.99
655.043	38.94
655.231	38.77
655.42	38.81
655.608	38.94
655.796	38.91
655.985	38.9
656.173	39
656.361	39.26
656.55	39.04
656.738	39.18
656.926	38.99
657.114	39.59
657.302	39.78
657.491	39.37
657.679	39.22
657.867	39.22
658.055	38.99
658.243	39.2
658.431	38.87
658.619	39.15
658.807	39.15
658.996	39.23
659.184	38.97
659.372	39.07
659.56	39.22
659.748	39.03
659.936	39.3
660.124	39.49
660.311	39.36
660.499	39.39
660.687	39.42
660.875	39.34
661.063	39.4
661.251	39.34
661.439	39.11
661.627	39.4
661.814	39.82
662.002	39.69
662.19	39.78
662.378	39.6
662.565	39.73
662.753	40.08
662.941	40.07
663.129	40.08
663.316	40.24
663.504	40.14
663.692	40.2
663.879	40.41
664.067	40.26
664.254	40.24
664.442	40.61
664.63	40.75
664.817	40.52
665.005	40.9
665.192	40.91
665.38	40.9
665.567	40.9
665.755	40.91
665.942	40.64
666.13	41.22
666.317	41.45
666.504	41.28
666.692	41.58
666.879	41.73
667.067	41.77
667.254	41.6
667.441	41.41
667.629	41.47
667.816	41.43
668.003	41.38
668.19	40.64
668.378	40.23
668.565	39.98
668.752	39.71
668.939	39.19
669.127	38.97
669.314	39.25
669.501	39.49
669.688	39.42
669.875	39.35
670.062	39.8
670.249	40.33
670.436	40.62
670.623	40.94
670.81	41.28
670.997	41.58
671.184	41.46
671.371	41.73
671.558	42.22
671.745	42.71
671.932	42.74
672.119	42.42
672.306	42.14
672.493	42.47
672.68	42.66
672.867	42.67
673.054	42.5
673.24	42.72
673.427	42.79
673.614	42.43
673.801	43.04
673.988	42.92
674.174	43.3
674.361	43.58
674.548	43.18
674.734	43.18
674.921	42.48
675.108	42.97
675.294	42.63
675.481	42.6
675.668	42.45
675.854	41.48
676.041	41.61
676.227	41.48
676.414	41.65
676.601	42.09
676.787	42.3
676.974	42.9
677.16	42.67
677.347	43.02
677.533	42.93
677.719	43.22
677.906	43.34
678.092	43.77
678.279	43.62
678.465	43.39
678.651	43.2
678.838	43.11
679.024	42.85
679.21	42.74
679.397	43.08
679.583	43.22
679.769	42.99
679.955	43.14
680.142	42.81
680.328	43.05
680.514	43.2
680.7	42.79
680.886	42.99
681.073	43.23
681.259	43.06
681.445	43.02
681.631	42.77
681.817	43
682.003	42.6
682.189	42.47
682.375	42.25
682.561	42.28
682.747	43
682.933	43.15
683.119	43.17
683.305	43.55
683.491	43.63
683.677	43.32
683.863	43.15
684.049	43.65
684.235	43.56
684.42	43.63
684.606	43.29
684.792	43.04
684.978	42.53
685.164	42.42
685.349	42.53
685.535	42.37
685.721	42.81
685.907	42.93
686.092	43.04
686.278	43.66
686.464	43.39
686.649	43.65
686.835	43.51
687.021	44.09
687.206	44.15
687.392	43.77
687.577	43.88
687.763	43.72
687.948	43.54
688.134	43.45
688.319	43.35
688.505	43.65
688.69	43.61
688.876	43.66
689.061	43.07
689.247	43.48
689.432	43.92
689.618	43.73
689.803	44.13
689.988	44.67
690.174	44.8
690.359	44.87
690.544	44.46
690.73	44.63
690.915	44.83
691.1	45.23
691.285	44.84
691.471	45.05
691.656	45.45
691.841	44.87
692.026	44.54
692.211	44.91
692.396	44.97
692.582	45.61
692.767	45.91
692.952	45.71
693.137	45.35
693.322	45.71
693.507	45.47
693.692	45.23
693.877	45.76
694.062	46.02
694.247	45.78
694.432	45.83
694.617	46.18
694.802	45.68
694.987	46.1
695.172	46.33
695.357	46.1
695.541	46.43
695.726	46.14
695.911	46.33
696.096	46.21
696.281	46.16
696.466	46.19
696.65	45.86
696.835	46.15
697.02	45.72
697.204	45.85
697.389	45.86
697.574	45.29
697.759	45.68
697.943	45.37
698.128	45.3
698.312	44.9
698.497	44.01
698.682	43.78
698.866	43.63
699.051	43.66
699.235	43.19
699.42	42.9
699.604	43.09
699.789	42.81
699.973	42.89
700.158	42.83
700.342	42.86
700.527	43.7
700.711	44.2
700.895	44.28
701.08	44.39
701.264	45.25
701.448	45.67
701.633	45.63
701.817	45.51
702.001	45.86
702.186	45.85
702.37	46.06
702.554	45.76
702.738	45.53
702.923	45.72
703.107	46.16
703.291	45.98
703.475	45.88
703.659	45.92
703.843	46.14
704.027	46.01
704.212	45.86
704.396	45.77
704.58	45.74
704.764	45.28
704.948	44.88
705.132	44.67
705.316	44.33
705.5	44.99
705.684	44.78
705.868	44.58
706.052	44.48
706.235	44.38
706.419	45.06
706.603	45.3
706.787	45.72
706.971	46.68
707.155	46.25
707.339	46.34
707.522	45.8
707.706	46.45
707.89	46.76
708.074	46.87
708.257	47.35
708.441	47.55
708.625	47.6
708.808	47.66
708.992	46.82
709.176	47.06
709.359	47
709.543	46.79
709.727	46.56
709.91	46.28
710.094	45.87
710.277	45.94
710.461	45.25
710.644	45.21
710.828	45.25
711.011	45.58
711.195	45.68
711.378	46.19
711.562	46.47
711.745	46.47
711.928	46.31
712.112	45.78
712.295	45.82
712.478	45.98
712.662	46.51
712.845	45.93
713.028	45.79
713.212	45.82
713.395	45.81
713.578	45.62
713.761	45.33
713.945	46.05
714.128	46.59
714.311	46.64
714.494	46.86
714.677	46.5
714.86	47.37
715.043	47.4
715.227	47.11
715.41	46.77
715.593	46.68
715.776	46.89
715.959	47.09
716.142	47.09
716.325	46.69
716.508	46.36
716.691	46.69
716.874	46.34
717.057	46.66
717.239	46.95
717.422	46.83
717.605	47.63
717.788	47.43
717.971	47.04
718.154	47.41
718.337	47.92
718.519	48.57
718.702	49.28
718.885	49.54
719.068	49.73
719.25	50.38
719.433	50.51
719.616	49.75
719.798	49.95
719.981	50.55
720.164	50.88
720.346	50.93
720.529	51.54
720.712	50.31
720.894	50.39
721.077	50.25
721.259	49.88
721.442	50.04
721.624	50.59
721.807	51.35
721.989	51.58
722.172	51.78
722.354	51.45
722.537	50.96
722.719	51.66
722.901	51.82
723.084	51.85
723.266	51.36
723.448	51.52
723.631	51.21
723.813	50.82
723.995	49.94
724.178	49.64
724.36	49.5
724.542	49.17
724.724	48.97
724.907	48.6
725.089	48.52
725.271	49.7
725.453	49.39
725.635	49.49
725.817	50.33
725.999	50.5
726.181	50.56
726.364	50.75
726.546	51.03
726.728	50.83
726.91	51.14
727.092	50.98
727.274	50.4
727.456	50.53
727.638	50.03
727.819	49.06
728.001	49.14
728.183	49.11
728.365	48.95
728.547	49.25
728.729	49.51
728.911	50.01
729.093	49.46
729.274	48.73
729.456	48.25
729.638	48.75
729.82	48.63
730.001	48.05
730.183	47.74
730.365	48.69
730.546	47.86
730.728	47.25
730.91	46.25
731.091	46.46
731.273	46.61
731.455	47.4
731.636	48.26
731.818	48.89
731.999	49.36
732.181	49.62
732.362	48.86
732.544	49.34
732.725	49.71
732.907	50.09
733.088	51.08
733.27	52.44
733.451	52.39
733.633	52.25
733.814	51.88
733.995	51.99
734.177	51.96
734.358	52.04
734.539	52.29
734.721	52.24
734.902	52.34
735.083	51.85
735.264	51.14
735.446	51.57
735.627	51.05
735.808	50.62
735.989	51.09
736.17	50.82
736.351	51.02
736.533	50.54
736.714	49.49
736.895	49.46
737.076	49.77
737.257	49.85
737.438	48.66
737.619	49.07
737.8	49.82
737.981	50.35
738.162	50.59
738.343	50.75
738.524	50.57
738.705	52.37
738.886	51.83
739.067	51.82
739.247	51.48
739.428	52.51
739.609	51.1
739.79	51.24
739.971	49.91
740.151	50.02
740.332	50.94
740.513	50.66
740.694	50.48
740.874	51.1
741.055	50.51
741.236	50.48
741.417	49.91
741.597	50.3
741.778	50.57
741.958	51.51
742.139	52.22
742.32	51.44
742.5	52.01
742.681	52.19
742.861	51.45
743.042	51.91
743.222	52.16
743.403	52.38
743.583	52.38
743.764	51.68
743.944	51.65
744.124	51.22
744.305	50.28
744.485	49.97
744.666	49.25
744.846	49.7
745.026	49.6
745.207	49.14
745.387	49.61
745.567	50.82
745.747	50.69
745.928	49.91
746.108	50.19
746.288	50.92
746.468	51.51
746.648	51.65
746.829	52.06
747.009	52.94
747.189	54.39
747.369	53.51
747.549	52.75
747.729	52.97
747.909	52.42
748.089	52.18
748.269	51.74
748.449	52.22
748.629	52.36
748.809	52.99
748.989	52.45
749.169	52.29
749.349	52.68
749.529	52.74
749.709	52.21
749.889	53.71
750.068	53.35
750.248	54.1
750.428	53.97
750.608	53.78
750.788	52.31
750.967	51.67
751.147	50.57
751.327	50.24
751.507	50.07
751.686	51.31
751.866	51.81
752.046	52.63
752.225	52.89
752.405	52.66
752.585	51.85
752.764	52.27
752.944	52.26
753.123	52.93
753.303	53.47
753.482	54.56
753.662	53.95
753.841	51.95
754.021	51.3
754.2	50.82
754.38	50.31
754.559	50.96
754.739	50.93
754.918	50.84
755.097	50.61
755.277	50.12
755.456	49.48
755.635	49.34
755.815	50.29
755.994	49.67
756.173	49.87
756.352	49.38
756.532	49.33
756.711	49.65
756.89	49.8
757.069	50.25
757.248	50.32
757.427	50.1
757.607	50.49
757.786	50.11
757.965	50.38
758.144	50.74
758.323	52.14
758.502	52.42
758.681	52.7
758.86	53.94
759.039	53.72
759.218	54.04
759.397	55.03
759.576	54.76
759.755	55.13
759.934	55.15
760.113	55.03
760.291	54.15
760.47	54.66
760.649	53.84
760.828	53.14
761.007	52.86
761.186	52.91
761.364	52.37
761.543	52.27
761.722	52.39
761.901	52.23
762.079	51.94
762.258	52.47
762.437	51.84
762.615	51.55
762.794	51.74
762.972	51.75
763.151	51.07
763.33	50.93
763.508	50.39
763.687	49.79
763.865	50.65
764.044	50.47
764.222	50.31
764.401	50.78
764.579	50.53
764.758	50.01
764.936	49.95
765.114	50.03
765.293	49.94
765.471	50.29
765.65	51.04
765.828	50.72
766.006	51.18
766.184	51.75
766.363	50.84
766.541	51.99
766.719	52.52
766.898	52.84
767.076	53.1
767.254	53.51
767.432	54.64
767.61	53.81
767.788	53.79
767.967	53.31
768.145	53.12
768.323	54.05
768.501	54.45
768.679	54.04
768.857	52.7
769.035	53.83
769.213	53.96
769.391	52.87
769.569	53.72
769.747	53.63
769.925	53.93
770.103	53.05
770.281	52.13
770.459	52.23
770.636	52.74
770.814	54.38
770.992	52.52
771.17	51.66
771.348	52.53
771.525	53.8
771.703	53.49
771.881	54.24
772.059	53.87
772.236	53.71
772.414	52.24
772.592	51.99
772.769	50.51
772.947	52.18
773.125	53.67
773.302	54.17
773.48	52.99
773.657	54.64
773.835	53.48
774.013	55.49
774.19	57.21
774.368	57.25
774.545	57.7
774.723	60.59
774.9	59.77
775.077	58.91
775.255	57.94
775.432	58.37
775.61	57.77
775.787	58.12
775.964	56.63
776.142	56.66
776.319	57.08
776.496	57.55
776.674	54.42
776.851	55.12
777.028	54.64
777.205	54.64
777.382	55.2
777.56	53.24
777.737	54.65
777.914	53.83
778.091	54.03
778.268	55.28
778.445	54.51
778.622	56.6
778.8	55.99
778.977	56.26
779.154	61.96
779.331	61.53
779.508	62.78
779.685	61.9
779.862	62.96
780.038	62.45
780.215	62.01
780.392	61.31
780.569	60.03
780.746	61.36
780.923	61.92
781.1	57
781.277	56.62
781.453	56.88
781.63	55.88
781.807	56.6
781.984	55.41
782.16	54.94
782.337	55.92
782.514	55.82
782.691	56.92
782.867	55.69
783.044	54.59
783.221	55.36
783.397	56.41
783.574	54.76
783.75	55.91
783.927	56.84
784.103	57.75
784.28	57.76
784.456	60.38
784.633	59.32
784.809	59.93
784.986	60.22
785.162	61.05
785.339	58.68
785.515	60.52
785.692	58.59
785.868	58.04
786.044	57.84
786.221	58.27
786.397	54.69
786.573	54.32
786.749	53.52
786.926	54.82
787.102	53.35
787.278	53.78
787.454	54.13
787.631	55.15
787.807	54.85
787.983	54.89
788.159	54.03
788.335	54.61
788.511	55.51
788.687	57.06
788.863	56.79
789.039	57.07
789.216	56.1
789.392	57.54
789.568	57.23
789.744	58.5
789.919	56.44
790.095	56.49
790.271	58.53
790.447	56.93
790.623	56.75
790.799	56.3
790.975	55.28
791.151	57.5
791.327	56.95
791.502	56.2
791.678	55.68
791.854	55.86
792.03	57.56
792.205	58.76
792.381	59.15
792.557	59.22
792.733	60.08
792.908	60.76
793.084	59.12
793.259	59.66
793.435	60.2
793.611	61.11
793.786	62.54
793.962	61.15
794.137	58.67
794.313	58.09
794.488	56.82
794.664	58.03
794.839	57.74
795.015	60.27
795.19	58.66
795.366	57.9
795.541	58.09
795.716	56.67
795.892	58.54
796.067	58.88
796.242	58.96
796.418	58.34
796.593	56.94
796.768	58.35
796.944	57.82
797.119	58.67
797.294	60.77
797.469	61.37
797.644	63.71
797.82	62.11
797.995	61.21
798.17	62.15
798.345	64.11
798.52	63.98
798.695	62.28
798.87	61.8
799.045	62.17
799.22	62.89
799.395	62.4
799.57	61.47
799.745	61.92
799.92	63.24
800.095	63.89
800.27	64.25
800.445	65.43
800.62	65.66
800.795	66.34
800.97	66.44
801.145	64.47
801.319	64.98
801.494	64.7
801.669	64.55
801.844	65.82
802.018	63.61
802.193	64.84
802.368	63.03
802.543	62.43
802.717	61.69
802.892	62.49
803.067	62.93
803.241	61.98
803.416	63.61
803.59	62.64
803.765	62.79
803.94	65.1
804.114	61.91
804.289	63.85
804.463	65.88
804.638	64.67
804.812	65.45
804.986	63.28
805.161	61.97
805.335	61.76
805.51	62.88
805.684	59.39
805.858	58.6
806.033	57.25
806.207	55.84
806.381	56.81
806.556	57.65
806.73	57.36
806.904	57.41
807.078	58.81
807.253	59.66
807.427	58.36
807.601	57.96
807.775	59.45
807.949	62.53
808.123	62.66
808.298	63.04
808.472	63.16
808.646	60.97
808.82	62.42
808.994	62.94
809.168	62.71
809.342	64.84
809.516	67.29
809.69	65.6
809.864	65.46
810.038	68.98
810.212	65.93
810.385	66.38
810.559	67.45
810.733	67.25
810.907	67.05
811.081	67.07
811.255	66.19
811.428	68
811.602	68.58
811.776	68.47
811.95	63.07
812.123	65.91
812.297	66.58
812.471	67.16
812.644	66.6
812.818	68.86
812.992	68.01
813.165	69.56
813.339	67.04
813.512	65.07
813.686	65.71
813.86	69.64
814.033	68.39
814.207	68.64
814.38	64.21
814.554	65.25
814.727	62.53
814.9	63.16
815.074	63.51
815.247	62.46
815.421	62.39
815.594	62.51
815.767	59.87
815.941	59.92
816.114	61.76
816.287	67.32
816.46	65.46
816.634	64.97
816.807	66.26
816.98	62.63
817.153	66.02
817.327	68.22
817.5	69.28
817.673	71.12
817.846	70.12
818.019	68.13
818.192	67.09
818.365	66.96
818.538	66.99
818.711	62.34
818.884	63.83
819.057	61.8
819.23	59.78
819.403	56.16
819.576	54.72
819.749	55.86
819.922	55.93
820.095	53.33
820.268	54.53
820.441	53.76
820.614	53.88
820.786	54.31
820.959	53.58
821.132	55.41
821.305	55.16
821.477	53.85
821.65	53.54
821.823	52.2
821.996	52.14
822.168	51.52
822.341	50.96
822.514	51.19
822.686	50.19
822.859	50.1
823.031	49.08
823.204	49.06
823.376	49.62
823.549	49.54
823.722	49.43
823.894	50.2
824.067	50.08
824.239	50.52
824.411	50.39
824.584	50.94
824.756	51.26
824.929	51.12
825.101	51.53
825.273	51.31
825.446	50.93
825.618	50.98
825.79	49.97
825.963	50.13
826.135	49.47
826.307	49.57
826.479	50.16
826.652	49.56
826.824	50.2
826.996	49.55
827.168	49.96
827.34	50.07
827.512	49.99
827.684	49.86
827.856	49.42
828.029	50.49
828.201	50.62
828.373	49.59
828.545	50.04
828.717	51.41
828.889	52.19
829.061	52.42
829.232	52.94
829.404	53.73
829.576	54.68
829.748	54.57
829.92	55.54
830.092	56.99
830.264	58.47
830.436	59.25
830.607	58.72
830.779	60.3
830.951	59.39
831.123	57.82
831.294	56.48
831.466	55.35
831.638	55.28
831.809	52.44
831.981	51.4
832.153	50.69
832.324	49.63
832.496	49.87
832.667	50.75
832.839	52.83
833.011	54.93
833.182	57.87
833.354	58.9
833.525	62.69
833.697	63.33
833.868	60.77
834.039	62.21
834.211	61.85
834.382	60.5
834.554	58.51
834.725	56.98
834.896	56.42
835.068	55.86
835.239	55.48
835.41	54.72
835.581	55.39
835.753	56.36
835.924	55.9
836.095	56.59
836.266	56.77
836.438	56.85
836.609	57.81
836.78	57.63
836.951	58.22
837.122	58.96
837.293	59.7
837.464	59.63
837.635	61.59
837.806	62.22
837.977	64.41
838.148	65.56
838.319	64.76
838.49	65.06
838.661	65.81
838.832	65.23
839.003	64.78
839.174	64.1
839.345	66.24
839.516	68.25
839.687	68.83
839.857	67.41
840.028	68.33
840.199	67.03
840.37	66.57
840.54	69.15
840.711	66.43
840.882	69.06
841.053	69.7
841.223	67.3
841.394	63.13
841.564	63.95
841.735	63.23
841.906	62.14
842.076	62.6
842.247	65.95
842.417	63.14
842.588	67.75
842.758	64.86
842.929	64.9
843.099	67.49
843.27	69.56
843.44	65.67
843.611	66.47
843.781	61.26
843.951	62.83
844.122	64.94
844.292	67.91
844.462	67.72
844.633	69.85
844.803	71.66
844.973	72.63
845.144	74.67
845.314	75.89
845.484	74.29
845.654	86.48
845.824	94.37
845.995	89.24
846.165	86.69
846.335	89.89
846.505	93.82
846.675	96.69
846.845	97.75
847.015	96.61
847.185	98.12
847.355	98.82
847.525	100.89
847.695	106.57
847.865	106.43
848.035	110.73
848.205	102.47
848.375	102.19
848.545	84.16
848.715	87.76
848.884	87.9
849.054	86.3
849.224	98.7
849.394	91.96
849.564	85.44
849.733	89.59
849.903	92.2
850.073	99.41
850.243	94.87
850.412	98.2
850.582	94.99
850.752	98.45
850.921	99.77
851.091	96.21
851.26	107.35
851.43	109.1
851.599	102.8
851.769	101.49
851.939	99.4
852.108	109.92
852.278	119
852.447	107.53
852.616	107.68
852.786	109.89
852.955	107.39
853.125	107.13
853.294	109.27
853.463	102.94
853.633	107.82
853.802	110.81
853.971	103.77
854.141	104.25
854.31	105.63
854.479	97.62
854.648	94.51
854.818	86.2
854.987	87.93
855.156	89.53
855.325	96.41
855.494	101.28
855.663	101.91
855.832	97.22
856.001	101.19
856.171	103.54
856.34	115.53
856.509	115.89
856.678	129.65
856.847	113.44
857.016	110.88
857.185	103.53
857.353	100.26
857.522	105.75
857.691	106.32
857.86	101.79
858.029	107.34
858.198	108.58
858.367	120.17
858.535	118.31
858.704	119.57
858.873	117.42
859.042	134.55
859.21	136.2
859.379	122.95
859.548	118.3
859.717	111.2
859.885	99.65
860.054	97.01
860.222	84.67
860.391	92.01
860.56	79.45
860.728	81.9
860.897	76.76
861.065	67.26
861.234	79.65
861.402	81.94
861.571	79.82
861.739	90.08
861.908	97.35
862.076	102.85
862.244	97.38
862.413	104.51
862.581	99.94
862.749	96.77
862.918	90.35
863.086	80.78
863.254	87.06
863.423	101.65
863.591	111.84
863.759	101.96
863.927	97.24
864.096	97.44
864.264	98.74
864.432	97.88
864.6	98.74
864.768	105.24
864.936	118.77
865.104	113.13
865.272	108.92
865.44	104.39
865.608	101.4
865.776	105.31
865.944	107.33
866.112	109.99
866.28	105.03
866.448	100.9
866.616	95.93
866.784	86.94
866.952	82.92
867.12	82.21
867.288	79.81
867.455	79.56
867.623	84.28
867.791	84.25
867.959	80.7
868.127	79.31
868.294	81.68
868.462	80.47
868.63	82.31
868.797	98.39
868.965	98.27
869.133	89.83
869.3	87.46
869.468	85.82
869.636	80.26
869.803	85.36
869.971	101.4
870.138	101.01
870.306	105.37
870.473	95.9
870.641	85.26
870.808	83.06
870.975	92.96
871.143	91.01
871.31	90.76
871.478	103.29
871.645	96.62
871.812	91.94
871.98	95.04
872.147	93.9
872.314	95.01
872.482	96.76
872.649	96.44
872.816	87.02
872.983	88.02
873.15	83.65
873.318	84.04
873.485	89.81
873.652	91.4
873.819	103.94
873.986	120.02
874.153	124.05
874.32	114.7
874.487	130.06
874.654	127.73
874.821	135.11
874.988	132.3
875.155	122.26
875.322	121.53
875.489	122.85
875.656	103.21
875.823	82.48
875.99	74.05
876.157	82.06
876.324	76.03
876.49	78.91
876.657	74.93
876.824	84.82
876.991	94.92
877.157	89.03
877.324	87.46
877.491	89.55
877.658	98.97
877.824	90.75
877.991	95.99
878.157	93.44
878.324	89.45
878.491	94.95
878.657	93.95
878.824	90.3
878.99	90.49
879.157	97.67
879.323	97.11
879.49	91.87
879.656	103.21
879.823	92.47
879.989	94.61
880.156	97.93
880.322	92.6
880.488	89
880.655	87.87
880.821	88.05
880.987	84.59
881.154	81.39
881.32	80.71
881.486	74.84
881.652	77.87
881.819	74.64
881.985	69.97
882.151	70.64
882.317	65.27
882.483	61.44
882.649	59.37
882.816	57.76
882.982	57.43
883.148	57.26
883.314	58
883.48	57.6
883.646	56.39
883.812	56.2
883.978	55.18
884.144	55.76
884.31	54.24
884.476	56.76
884.642	57.73
884.807	58.56
884.973	58.4
885.139	57.64
885.305	57.2
885.471	57.92
885.637	57.05
885.802	57.1
885.968	58.42
886.134	62.62
886.3	60.53
886.465	58.82
886.631	55.65
886.797	57.41
886.962	57.82
887.128	59.04
887.293	60.65
887.459	65.5
887.625	70.25
887.79	69.49
887.956	66.75
888.121	70.13
888.287	72.62
888.452	82.22
888.618	83.26
888.783	94.83
