Data from LC_163_Reflection_1.txt Node
Date: Mon Nov 16 22:48:30 EST 2015
User: robert
Spectrometer: USB4E03001
Autoset integration time: false
Trigger mode: 4
Integration Time (sec): 1.000000E-1
Scans to average: 15
Electric dark correction enabled: true
Nonlinearity correction enabled: false
Boxcar width: 5
Stray light correction enabled: false
XAxis mode: Wavelengths
Stop averaging: false
Number of Pixels in Spectrum: 3648
>>>>>Begin Spectral Data<<<<<
177.566	684.34
177.785	217.68
178.005	-698.32
178.225	189.22
178.445	163.66
178.665	94.52
178.885	-250.42
179.105	153.27
179.324	-77.57
179.544	4.96
179.764	-617.13
179.984	-111.36
180.204	-192.8
180.423	-192.13
180.643	-346.96
180.863	-201.68
181.083	-161.45
181.302	-319.68
181.522	-227.35
181.742	-189.23
181.961	-338.91
182.181	-258.09
182.401	-413.68
182.621	-1697.31
182.84	-670.02
183.06	-534.66
183.279	-333.97
183.499	-263.39
183.719	-198.47
183.938	-192.59
184.158	-202.63
184.377	-135.02
184.597	-183.95
184.816	-104.61
185.036	-66.45
185.256	-62.98
185.475	-61.71
185.695	-117.62
185.914	-148.47
186.134	-299.39
186.353	-422.73
186.572	-700.3
186.792	-1227.52
187.011	-557.31
187.231	-516.78
187.45	-347.03
187.67	-888.38
187.889	-2353.38
188.108	3656.54
188.328	-927.66
188.547	-291.51
188.766	-452.96
188.986	-529.52
189.205	-165.53
189.424	-91.5
189.644	-448.37
189.863	-472.3
190.082	-209.46
190.302	-609.91
190.521	-415.05
190.74	618.69
190.959	277.02
191.178	512.02
191.398	556.55
191.617	574.62
191.836	548.08
192.055	1148.91
192.274	534.28
192.494	598.94
192.713	611.3
192.932	1221.23
193.151	1018.5
193.37	1879.92
193.589	-1207.01
193.808	-239.18
194.027	-305.91
194.246	-2430.17
194.465	564.49
194.685	1340.97
194.904	620.12
195.123	-725.08
195.342	-550.51
195.561	-181.56
195.78	-335.94
195.999	12509.86
196.218	517.54
196.436	546.8
196.655	-2140.24
196.874	-740.56
197.093	-832.62
197.312	-722.94
197.531	2437.45
197.75	734.32
197.969	-3172.34
198.188	-692.02
198.407	-159.34
198.625	-225.86
198.844	-156.17
199.063	-162.22
199.282	-374.68
199.501	-281.31
199.719	-199.04
199.938	-123.41
200.157	-123.45
200.376	-129.81
200.594	-167.88
200.813	-434.27
201.032	-286.25
201.251	-297.78
201.469	-275.77
201.688	-182.71
201.907	-353.18
202.125	-607.91
202.344	21577.38
202.563	3664.91
202.781	607.71
203	2025.74
203.218	1485.92
203.437	1225.46
203.656	568.49
203.874	320.41
204.093	290.95
204.311	344.36
204.53	327.37
204.748	536.24
204.967	372.77
205.185	374.85
205.404	383.85
205.622	266.79
205.841	212.55
206.059	221.86
206.278	293.43
206.496	875.85
206.715	504.36
206.933	357.47
207.151	256.17
207.37	278.17
207.588	237.18
207.806	213.96
208.025	443.85
208.243	-803.77
208.461	1253.81
208.68	-12911.76
208.898	522.68
209.116	487.03
209.335	569.89
209.553	604.23
209.771	6273.75
209.989	1418.14
210.208	2748.86
210.426	-4371.33
210.644	2507.95
210.862	-2404.75
211.081	1125.04
211.299	-455.43
211.517	2169.57
211.735	-541.45
211.953	-189100
212.171	-2976.81
212.39	-8798.2
212.608	-21456.52
212.826	842.23
213.044	548.28
213.262	439.1
213.48	2211.18
213.698	298.89
213.916	413.47
214.134	201.12
214.352	329.78
214.57	226.26
214.788	220.17
215.006	266.89
215.224	249.62
215.442	230.05
215.66	200.26
215.878	165.88
216.096	180.63
216.314	201.38
216.532	537.91
216.75	481.51
216.968	470.62
217.185	1130.87
217.403	1801.9
217.621	-4874.94
217.839	-1319.93
218.057	-1571.18
218.275	2683.69
218.492	828.07
218.71	1273.92
218.928	324.02
219.146	304.56
219.363	273.77
219.581	200.53
219.799	163.89
220.017	161.52
220.234	151.94
220.452	158.09
220.67	190.09
220.887	178.6
221.105	201.11
221.323	151.49
221.54	135.19
221.758	170.82
221.976	207.75
222.193	174.82
222.411	122.93
222.629	129.77
222.846	144.39
223.064	140.25
223.281	121.67
223.499	99.05
223.716	104.91
223.934	86.98
224.151	76
224.369	56.79
224.586	62
224.804	63.55
225.021	72.14
225.239	56.62
225.456	73.58
225.674	74.52
225.891	71.12
226.108	83.4
226.326	86.16
226.543	77.37
226.76	69.29
226.978	65.12
227.195	70.63
227.413	58.07
227.63	53.43
227.847	48.09
228.064	44.66
228.282	42.41
228.499	37.98
228.716	32.52
228.934	29.79
229.151	34.3
229.368	31.78
229.585	29.74
229.802	30.95
230.02	29.61
230.237	29.04
230.454	29.55
230.671	30.02
230.888	30.93
231.105	33
231.323	34.93
231.54	33.03
231.757	37.48
231.974	38.87
232.191	37.79
232.408	44.52
232.625	39.86
232.842	39.57
233.059	41.85
233.276	41.49
233.493	44.74
233.71	45.27
233.927	47.71
234.144	46.93
234.361	42.54
234.578	44.51
234.795	39.33
235.012	40.16
235.229	41.44
235.446	39.45
235.663	40.39
235.879	42.01
236.096	41.12
236.313	36.78
236.53	34.23
236.747	39.31
236.964	36.69
237.181	39.3
237.397	41.05
237.614	41.93
237.831	36.55
238.048	34.87
238.264	31.21
238.481	27.73
238.698	31.04
238.915	27.63
239.131	23.51
239.348	25.87
239.565	26.56
239.781	27.03
239.998	23.24
240.215	27.21
240.431	24.33
240.648	21.89
240.865	24.36
241.081	22.91
241.298	23.69
241.514	25.14
241.731	22.55
241.947	22.93
242.164	21.04
242.38	21.18
242.597	20.82
242.814	22.23
243.03	22.59
243.246	21.88
243.463	22.05
243.679	23.32
243.896	21.31
244.112	23.04
244.329	21.66
244.545	23.14
244.762	24.95
244.978	26.41
245.194	25.42
245.411	25.02
245.627	25.6
245.843	25.15
246.06	22.89
246.276	22.83
246.492	21.26
246.709	20.95
246.925	21.13
247.141	20.13
247.357	18.99
247.574	18.35
247.79	18.14
248.006	17.2
248.222	16.09
248.439	16.16
248.655	16.33
248.871	16.43
249.087	16.3
249.303	14.67
249.519	15.61
249.736	16.65
249.952	15.31
250.168	17.27
250.384	18.94
250.6	19.77
250.816	20.11
251.032	19.39
251.248	19.16
251.464	19.26
251.68	19.94
251.896	18.88
252.112	17.87
252.328	20
252.544	18.96
252.76	19.25
252.976	19.25
253.192	18.74
253.408	19.14
253.624	22.79
253.84	23.88
254.056	26.11
254.272	25.97
254.487	26.95
254.703	26.36
254.919	27.42
255.135	26.46
255.351	27.47
255.567	30.31
255.782	33.01
255.998	27.85
256.214	26.79
256.43	23.46
256.646	25.17
256.861	25.9
257.077	27.2
257.293	22.62
257.508	21.25
257.724	22.21
257.94	21.12
258.155	18.33
258.371	18.27
258.587	16.56
258.802	16.62
259.018	15.69
259.234	14.59
259.449	14.36
259.665	15.21
259.88	15.71
260.096	15.24
260.312	13.97
260.527	14.44
260.743	14.65
260.958	15.08
261.174	15.01
261.389	15.82
261.605	16.62
261.82	16.41
262.036	16.85
262.251	17.17
262.466	17.49
262.682	20.01
262.897	20.2
263.113	19.48
263.328	19.37
263.543	20.57
263.759	19.64
263.974	19.65
264.189	21.11
264.405	20.33
264.62	20.17
264.835	20.22
265.051	18.24
265.266	19.43
265.481	21.44
265.696	23.46
265.912	23.33
266.127	21.68
266.342	18.59
266.557	18.07
266.773	18.35
266.988	17.77
267.203	16.84
267.418	16.25
267.633	15.47
267.848	15.02
268.064	13.34
268.279	13.17
268.494	12
268.709	13.14
268.924	13.43
269.139	13.85
269.354	14.54
269.569	14.99
269.784	16.01
269.999	17.03
270.214	16.61
270.429	17.64
270.644	17.69
270.859	18.08
271.074	18.93
271.289	18.64
271.504	18.33
271.719	17.99
271.934	17.83
272.149	18.1
272.363	16.51
272.578	15.45
272.793	15.51
273.008	14.74
273.223	16.47
273.438	15.24
273.653	15
273.867	14.84
274.082	13.79
274.297	13.26
274.512	12.7
274.726	12.65
274.941	13.53
275.156	13.21
275.371	13.61
275.585	12.91
275.8	14.22
276.015	14.12
276.229	13.42
276.444	14.88
276.659	15.59
276.873	15.7
277.088	16.16
277.302	17.11
277.517	17
277.732	18.08
277.946	18.24
278.161	18.8
278.375	18.02
278.59	18.48
278.804	17.65
279.019	16.99
279.233	17.24
279.448	17.03
279.662	15.32
279.877	15.32
280.091	13.76
280.306	12.08
280.52	11.34
280.735	10.58
280.949	11.3
281.163	11.15
281.378	11.95
281.592	11.12
281.806	11.84
282.021	11.93
282.235	12.19
282.449	12.27
282.664	13.02
282.878	13.32
283.092	14.99
283.307	14.08
283.521	14.72
283.735	14.78
283.949	14.95
284.164	14.72
284.378	15.1
284.592	13.92
284.806	14.08
285.02	14.57
285.234	13.55
285.449	12.11
285.663	11.84
285.877	11.49
286.091	10.79
286.305	11.08
286.519	10.63
286.733	9.65
286.947	10.49
287.161	11.04
287.375	11.38
287.589	12.63
287.803	14.08
288.017	15.09
288.231	15.1
288.445	15
288.659	15.24
288.873	15.38
289.087	17.17
289.301	17.17
289.515	16.24
289.729	14.24
289.943	14.32
290.157	14.05
290.371	15.1
290.584	15.38
290.798	16.11
291.012	15.96
291.226	15.97
291.44	16.18
291.654	16.67
291.867	17.59
292.081	18.51
292.295	18.33
292.509	17.82
292.722	16.6
292.936	16.78
293.15	17.21
293.364	16.44
293.577	16.72
293.791	15.67
294.005	16
294.218	15.02
294.432	15.01
294.645	14.23
294.859	14.73
295.073	14.84
295.286	14.8
295.5	13.92
295.713	14.49
295.927	14.33
296.14	15.24
296.354	14.69
296.568	15.29
296.781	15.67
296.994	15.38
297.208	15.02
297.421	14.73
297.635	13.99
297.848	13.89
298.062	13.56
298.275	14.02
298.489	13.2
298.702	13.52
298.915	13.3
299.129	13.89
299.342	14.97
299.555	15.74
299.769	16.9
299.982	18.09
300.195	18.76
300.409	19.69
300.622	19.68
300.835	21.77
301.048	21.34
301.262	21.5
301.475	20.43
301.688	20.59
301.901	20.46
302.115	20.13
302.328	19.73
302.541	19.04
302.754	18.49
302.967	18.54
303.18	17.53
303.393	17.22
303.607	17.45
303.82	18.1
304.033	18.16
304.246	18.64
304.459	18.48
304.672	18.89
304.885	20.39
305.098	20.02
305.311	19.24
305.524	19.35
305.737	20.38
305.95	20.45
306.163	19.05
306.376	18.18
306.589	17.07
306.802	16.49
307.015	17.26
307.228	16.71
307.44	17.35
307.653	17.86
307.866	16.53
308.079	16.79
308.292	17.37
308.505	19.58
308.718	19.37
308.93	19.74
309.143	19.86
309.356	19.47
309.569	18.96
309.781	19.26
309.994	18.96
310.207	20
310.42	18.6
310.632	17.63
310.845	17.58
311.058	17.53
311.27	17.58
311.483	17.79
311.696	17.18
311.908	17.66
312.121	17.19
312.333	18.28
312.546	17.49
312.759	18.93
312.971	19.46
313.184	18.45
313.396	18.41
313.609	19.57
313.821	19.97
314.034	20.53
314.246	20.67
314.459	21.12
314.671	20.92
314.884	20.64
315.096	19.42
315.309	18.58
315.521	19.6
315.733	19.45
315.946	17.64
316.158	16.33
316.371	15.45
316.583	15.58
316.795	14.82
317.008	13.4
317.22	15.24
317.432	15.69
317.644	15.84
317.857	14.53
318.069	15.07
318.281	15.79
318.494	16.14
318.706	17.19
318.918	16.56
319.13	18.23
319.342	19.25
319.555	18.73
319.767	19.66
319.979	19.4
320.191	19.69
320.403	20.1
320.615	20.04
320.827	20.91
321.039	20.01
321.252	20.21
321.464	19.26
321.676	19.34
321.888	18.97
322.1	18.43
322.312	18.2
322.524	18.12
322.736	18.59
322.948	19.22
323.16	18.01
323.372	18.4
323.584	18.55
323.796	19.11
324.007	17.9
324.219	17.84
324.431	17.57
324.643	18.07
324.855	18.2
325.067	17.86
325.279	17.55
325.491	17.27
325.702	16.48
325.914	17.26
326.126	18.27
326.338	18.82
326.55	18.31
326.761	17.99
326.973	18.44
327.185	18.99
327.396	19.69
327.608	19.7
327.82	20.56
328.032	21.4
328.243	20.13
328.455	19
328.666	19.23
328.878	19.64
329.09	19.63
329.301	18.68
329.513	18.47
329.725	17.2
329.936	16.67
330.148	17.14
330.359	17.53
330.571	17.54
330.782	17.23
330.994	17.41
331.205	17.84
331.417	18.05
331.628	19.07
331.84	18.63
332.051	18.99
332.262	20.15
332.474	19.11
332.685	18.9
332.897	18.82
333.108	19.18
333.319	18.31
333.531	17.62
333.742	18.75
333.953	18.42
334.165	18.93
334.376	19.27
334.587	18.87
334.799	19.18
335.01	18.84
335.221	19.28
335.432	18.89
335.644	19.06
335.855	19.54
336.066	19.87
336.277	19.7
336.488	20.43
336.7	19.26
336.911	19.07
337.122	19.41
337.333	19.83
337.544	20.55
337.755	21.29
337.966	21.48
338.177	21
338.388	20.35
338.599	21.18
338.811	19.89
339.022	20.5
339.233	20.71
339.444	20.89
339.655	19.75
339.866	19.69
340.076	19.91
340.287	21.24
340.498	21.67
340.709	21.04
340.92	19.69
341.131	20.24
341.342	20.43
341.553	20.03
341.764	20.22
341.975	21.53
342.185	20.72
342.396	20.14
342.607	19.52
342.818	19.72
343.029	20
343.239	20.66
343.45	20.53
343.661	19.85
343.872	19.75
344.082	19.46
344.293	19.04
344.504	19.44
344.714	18.81
344.925	18.28
345.136	18.42
345.346	16.95
345.557	16.92
345.768	16.69
345.978	16.48
346.189	17.07
346.399	16.24
346.61	16.89
346.821	16.36
347.031	17
347.242	16.22
347.452	15.85
347.663	16.34
347.873	16.91
348.084	16.85
348.294	18.1
348.504	17.13
348.715	17.65
348.925	16.14
349.136	15.95
349.346	14.74
349.557	15.33
349.767	15.55
349.977	16.08
350.188	15.97
350.398	16.86
350.608	16.14
350.819	16.39
351.029	16.32
351.239	16.92
351.449	17.43
351.66	18.35
351.87	19.31
352.08	18.73
352.29	18.87
352.501	17.63
352.711	16.88
352.921	17.53
353.131	17.57
353.341	18
353.552	17.28
353.762	16.66
353.972	16.52
354.182	16.21
354.392	15.89
354.602	15.58
354.812	16.02
355.022	16.43
355.232	15.85
355.442	16.31
355.652	15.43
355.862	15.92
356.072	16.53
356.282	15.95
356.492	15.79
356.702	16.03
356.912	16.33
357.122	16.66
357.332	16.49
357.542	16.17
357.752	15.83
357.962	15.87
358.171	15.55
358.381	16.05
358.591	16.69
358.801	16.41
359.011	17.33
359.221	17.16
359.43	16.8
359.64	17
359.85	17.22
360.06	16.88
360.269	17.28
360.479	17.45
360.689	16.8
360.899	16.29
361.108	16.19
361.318	15.61
361.528	15.1
361.737	14.96
361.947	14.34
362.156	14.3
362.366	14.24
362.576	14.09
362.785	14.1
362.995	13.73
363.204	13.91
363.414	13.79
363.623	13.88
363.833	14.74
364.042	15.19
364.252	15.26
364.461	15.38
364.671	15.49
364.88	16.03
365.09	16.47
365.299	16.94
365.509	16.15
365.718	15.77
365.927	15.84
366.137	15.45
366.346	14.77
366.555	14.66
366.765	14.64
366.974	14.78
367.183	14.36
367.393	13.26
367.602	12.6
367.811	13.44
368.021	13.99
368.23	13.55
368.439	13.68
368.648	14.12
368.857	14.56
369.067	14.55
369.276	14.33
369.485	14.46
369.694	14.9
369.903	16
370.112	15.57
370.321	15.11
370.531	14.65
370.74	14.19
370.949	14.14
371.158	14.41
371.367	14.32
371.576	14.41
371.785	14.16
371.994	14.39
372.203	13.94
372.412	14.45
372.621	14.64
372.83	14.87
373.039	15.13
373.248	14.8
373.457	14.3
373.666	13.88
373.874	13.54
374.083	14.06
374.292	13.96
374.501	13.75
374.71	13.52
374.919	13.78
375.128	13.79
375.336	13.91
375.545	14.16
375.754	13.82
375.963	14.19
376.171	14.34
376.38	13.9
376.589	13.86
376.798	13.12
377.006	12.84
377.215	13.31
377.424	13.64
377.632	13.47
377.841	13.32
378.05	13.41
378.258	12.97
378.467	12.78
378.675	12.46
378.884	12.23
379.093	12.54
379.301	12.15
379.51	11.57
379.718	11.06
379.927	11.07
380.135	10.64
380.344	10.69
380.552	10.63
380.761	10.98
380.969	11.22
381.177	11.33
381.386	10.86
381.594	11.3
381.803	11.02
382.011	11.3
382.219	10.88
382.428	10.88
382.636	10.45
382.845	10.93
383.053	10.63
383.261	10.46
383.469	10.51
383.678	11.27
383.886	10.87
384.094	10.73
384.302	10.58
384.511	10.72
384.719	10.89
384.927	11.16
385.135	11.14
385.343	11.38
385.552	11.54
385.76	11.19
385.968	10.91
386.176	10.77
386.384	10.96
386.592	10.71
386.8	10.89
387.008	10.94
387.216	10.83
387.424	10.66
387.633	10.7
387.841	10.54
388.049	10.5
388.257	10.42
388.465	10.72
388.672	10.59
388.88	10.41
389.088	10.45
389.296	10.03
389.504	10.43
389.712	10.63
389.92	10.33
390.128	10.4
390.336	10.57
390.544	11.1
390.751	10.9
390.959	10.86
391.167	10.95
391.375	11.05
391.583	11.1
391.79	10.66
391.998	10.39
392.206	10.47
392.414	10.09
392.621	10.28
392.829	10.13
393.037	10.35
393.244	10.41
393.452	10.59
393.66	10.42
393.867	10.84
394.075	10.83
394.283	10.91
394.49	10.75
394.698	10.96
394.905	10.55
395.113	10.32
395.32	10.06
395.528	9.79
395.735	9.84
395.943	9.48
396.15	9.32
396.358	9.18
396.565	9.14
396.773	9.57
396.98	9.49
397.188	9.72
397.395	9.89
397.602	10.11
397.81	10.2
398.017	10.28
398.225	10.46
398.432	10.51
398.639	10.72
398.847	10.74
399.054	10.34
399.261	10.49
399.468	10.32
399.676	10.15
399.883	9.88
400.09	9.89
400.297	9.99
400.505	10.17
400.712	9.99
400.919	10.13
401.126	9.96
401.333	9.83
401.54	9.59
401.748	9.87
401.955	10.01
402.162	10.02
402.369	10.08
402.576	9.8
402.783	9.68
402.99	9.63
403.197	9.39
403.404	9.38
403.611	9.4
403.818	9.41
404.025	9.25
404.232	9.04
404.439	9.24
404.646	9.18
404.853	8.99
405.06	8.93
405.267	8.84
405.474	8.91
405.681	8.89
405.887	9.09
406.094	9.23
406.301	9.45
406.508	9.43
406.715	9.41
406.922	9.3
407.128	9.29
407.335	9.43
407.542	9.46
407.749	9.63
407.955	10.03
408.162	9.9
408.369	9.94
408.575	9.56
408.782	9.43
408.989	9.35
409.195	9.44
409.402	9.82
409.609	9.75
409.815	9.83
410.022	9.67
410.228	9.26
410.435	9.19
410.642	8.86
410.848	9.24
411.055	9.24
411.261	9.48
411.468	9.59
411.674	9.34
411.881	9.15
412.087	9.29
412.294	9.46
412.5	9.43
412.706	9.48
412.913	9.56
413.119	9.31
413.326	9.19
413.532	8.94
413.738	8.9
413.945	8.95
414.151	8.75
414.357	8.83
414.564	8.61
414.77	8.92
414.976	8.91
415.182	9.21
415.389	9.33
415.595	9.39
415.801	9.38
416.007	9.44
416.214	9.45
416.42	9.57
416.626	9.28
416.832	9.41
417.038	9.06
417.244	9.15
417.45	8.65
417.657	8.62
417.863	8.9
418.069	8.95
418.275	8.87
418.481	8.7
418.687	8.84
418.893	8.86
419.099	8.81
419.305	9.08
419.511	9.11
419.717	9.37
419.923	9.18
420.129	9.08
420.335	9.08
420.541	9.11
420.746	9.11
420.952	9.07
421.158	9.13
421.364	9.01
421.57	8.99
421.776	8.93
421.982	8.9
422.187	8.8
422.393	8.72
422.599	8.62
422.805	8.68
423.01	8.76
423.216	8.64
423.422	8.59
423.628	8.69
423.833	8.56
424.039	8.66
424.245	8.61
424.45	8.83
424.656	8.87
424.862	8.9
425.067	8.82
425.273	8.78
425.478	8.96
425.684	8.91
425.889	9.03
426.095	9.04
426.301	8.83
426.506	8.97
426.712	8.92
426.917	8.91
427.123	9.07
427.328	9.11
427.533	9.24
427.739	9.06
427.944	9.22
428.15	8.95
428.355	9.2
428.561	9.26
428.766	9.3
428.971	9.47
429.177	9.66
429.382	9.65
429.587	9.61
429.793	9.42
429.998	9.58
430.203	9.5
430.408	9.63
430.614	9.58
430.819	9.59
431.024	9.6
431.229	9.38
431.434	9.32
431.64	9.15
431.845	9.32
432.05	9.47
432.255	9.39
432.46	9.29
432.665	9.23
432.87	9.13
433.076	9.22
433.281	9.15
433.486	9.12
433.691	9.03
433.896	8.88
434.101	8.74
434.306	8.75
434.511	8.73
434.716	8.88
434.921	8.96
435.126	8.75
435.331	8.6
435.535	8.45
435.74	8.56
435.945	8.67
436.15	8.82
436.355	8.9
436.56	8.87
436.765	8.87
436.97	8.75
437.174	8.65
437.379	8.96
437.584	9.01
437.789	9.07
437.993	9.09
438.198	8.99
438.403	9.08
438.608	9.04
438.812	8.8
439.017	8.84
439.222	8.81
439.426	8.79
439.631	8.62
439.836	8.55
440.04	8.58
440.245	8.62
440.45	8.63
440.654	8.5
440.859	8.37
441.063	8.52
441.268	8.54
441.472	8.66
441.677	8.66
441.881	8.63
442.086	8.72
442.29	8.67
442.495	8.53
442.699	8.52
442.904	8.66
443.108	8.75
443.312	8.75
443.517	8.67
443.721	8.51
443.925	8.5
444.13	8.55
444.334	8.35
444.538	8.4
444.743	8.39
444.947	8.34
445.151	8.28
445.356	8.18
445.56	8.24
445.764	8.19
445.968	8.27
446.173	8.31
446.377	8.45
446.581	8.51
446.785	8.43
446.989	8.47
447.193	8.53
447.398	8.48
447.602	8.46
447.806	8.52
448.01	8.73
448.214	8.84
448.418	8.93
448.622	8.87
448.826	8.94
449.03	9.05
449.234	9.11
449.438	9.01
449.642	9.17
449.846	9.33
450.05	9.2
450.254	8.92
450.458	8.9
450.662	8.7
450.866	8.61
451.069	8.59
451.273	8.5
451.477	8.31
451.681	8.34
451.885	8.15
452.089	8.18
452.292	8.2
452.496	8.31
452.7	8.2
452.904	8.41
453.107	8.49
453.311	8.49
453.515	8.39
453.719	8.36
453.922	8.4
454.126	8.37
454.33	8.33
454.533	8.39
454.737	8.35
454.94	8.43
455.144	8.31
455.348	8.35
455.551	8.54
455.755	8.53
455.958	8.78
456.162	8.66
456.365	8.76
456.569	8.85
456.772	8.68
456.976	8.78
457.179	8.59
457.383	8.5
457.586	8.48
457.79	8.31
457.993	8.44
458.196	8.27
458.4	8.5
458.603	8.45
458.807	8.37
459.01	8.52
459.213	8.32
459.417	8.35
459.62	8.37
459.823	8.29
460.026	8.25
460.23	8.24
460.433	8.41
460.636	8.3
460.839	8.43
461.042	8.48
461.246	8.4
461.449	8.37
461.652	8.38
461.855	8.38
462.058	8.39
462.261	8.33
462.464	8.27
462.668	8.24
462.871	8.2
463.074	8.28
463.277	8.04
463.48	8.21
463.683	8.42
463.886	8.49
464.089	8.47
464.292	8.47
464.495	8.58
464.698	8.58
464.901	8.59
465.104	8.73
465.306	8.42
465.509	8.65
465.712	8.52
465.915	8.58
466.118	8.55
466.321	8.45
466.524	8.52
466.726	8.65
466.929	8.8
467.132	8.79
467.335	8.66
467.538	8.64
467.74	8.61
467.943	8.79
468.146	8.77
468.348	8.69
468.551	8.85
468.754	8.76
468.956	8.64
469.159	8.63
469.362	8.58
469.564	8.56
469.767	8.72
469.969	8.63
470.172	8.34
470.375	8.35
470.577	8.44
470.78	8.35
470.982	8.25
471.185	8.26
471.387	8.23
471.59	8.13
471.792	8.11
471.995	7.97
472.197	7.9
472.399	7.93
472.602	7.84
472.804	7.83
473.007	7.87
473.209	7.93
473.411	7.91
473.614	7.89
473.816	7.95
474.018	8.21
474.22	8.32
474.423	8.57
474.625	8.63
474.827	8.76
475.03	8.76
475.232	8.88
475.434	8.91
475.636	8.98
475.838	8.89
476.04	8.83
476.243	8.55
476.445	8.59
476.647	8.47
476.849	8.32
477.051	8.19
477.253	8.33
477.455	8.29
477.657	8.15
477.859	8.13
478.061	8.14
478.263	8.21
478.465	8.31
478.667	8.27
478.869	8.2
479.071	8.2
479.273	8.2
479.475	7.99
479.677	7.76
479.879	7.74
480.081	7.7
480.283	7.78
480.485	7.73
480.686	7.72
480.888	7.71
481.09	7.66
481.292	7.66
481.494	7.71
481.695	7.87
481.897	7.84
482.099	7.91
482.301	7.92
482.502	7.85
482.704	7.81
482.906	7.78
483.107	7.69
483.309	7.73
483.511	7.77
483.712	7.73
483.914	7.65
484.115	7.7
484.317	7.7
484.519	7.71
484.72	7.72
484.922	7.65
485.123	7.68
485.325	7.7
485.526	7.69
485.728	7.64
485.929	7.62
486.131	7.64
486.332	7.69
486.534	7.63
486.735	7.61
486.936	7.54
487.138	7.58
487.339	7.54
487.541	7.6
487.742	7.6
487.943	7.62
488.144	7.65
488.346	7.53
488.547	7.51
488.748	7.59
488.95	7.47
489.151	7.49
489.352	7.58
489.553	7.63
489.755	7.59
489.956	7.52
490.157	7.52
490.358	7.53
490.559	7.75
490.76	7.71
490.961	7.62
491.163	7.74
491.364	7.89
491.565	7.82
491.766	7.75
491.967	7.81
492.168	7.85
492.369	7.93
492.57	7.9
492.771	7.87
492.972	7.88
493.173	7.96
493.374	7.88
493.575	7.76
493.776	7.75
493.976	7.83
494.177	7.8
494.378	7.84
494.579	7.79
494.78	7.92
494.981	7.86
495.182	7.98
495.382	7.97
495.583	7.96
495.784	8.12
495.985	8.21
496.185	8.14
496.386	8.12
496.587	8.24
496.788	8.29
496.988	8.26
497.189	8.32
497.39	8.19
497.59	8.12
497.791	8.32
497.992	8.21
498.192	8.23
498.393	8.26
498.593	8.33
498.794	8.07
498.994	8.03
499.195	7.98
499.395	7.97
499.596	8.1
499.796	8.13
499.997	8.19
500.197	8.2
500.398	8.25
500.598	8.35
500.799	8.27
500.999	8.43
501.199	8.41
501.4	8.43
501.6	8.42
501.801	8.42
502.001	8.42
502.201	8.46
502.402	8.52
502.602	8.4
502.802	8.35
503.002	8.44
503.203	8.56
503.403	8.52
503.603	8.63
503.803	8.59
504.003	8.61
504.204	8.73
504.404	8.6
504.604	8.49
504.804	8.64
505.004	8.65
505.204	8.67
505.404	8.61
505.604	8.73
505.804	8.63
506.005	8.65
506.205	8.68
506.405	8.75
506.605	8.71
506.805	8.76
507.005	8.69
507.204	8.72
507.404	8.7
507.604	8.7
507.804	8.67
508.004	8.8
508.204	8.82
508.404	8.79
508.604	8.65
508.804	8.73
509.003	8.73
509.203	8.7
509.403	8.6
509.603	8.57
509.803	8.72
510.002	8.78
510.202	8.76
510.402	8.77
510.602	8.8
510.801	8.85
511.001	8.83
511.201	8.93
511.4	8.95
511.6	8.98
511.8	8.89
511.999	9
512.199	8.89
512.398	8.89
512.598	8.99
512.797	8.98
512.997	9.08
513.197	9.19
513.396	9.16
513.596	9.22
513.795	9.41
513.994	9.55
514.194	9.29
514.393	9.45
514.593	9.59
514.792	9.6
514.992	9.61
515.191	9.61
515.39	9.5
515.59	9.42
515.789	9.43
515.988	9.36
516.188	9.27
516.387	9.32
516.586	9.2
516.786	9.13
516.985	9.05
517.184	9.11
517.383	9.1
517.582	9.16
517.782	9.2
517.981	9.15
518.18	9.13
518.379	9.27
518.578	9.18
518.777	9.27
518.976	9.1
519.176	9.24
519.375	9.24
519.574	9.18
519.773	9.13
519.972	9.08
520.171	9.1
520.37	9.22
520.569	9.22
520.768	9.37
520.967	9.38
521.166	9.55
521.365	9.45
521.564	9.52
521.762	9.71
521.961	9.74
522.16	9.91
522.359	9.87
522.558	9.65
522.757	9.67
522.956	9.68
523.154	9.63
523.353	9.61
523.552	9.6
523.751	9.55
523.949	9.41
524.148	9.42
524.347	9.47
524.546	9.53
524.744	9.59
524.943	9.63
525.142	9.68
525.34	9.73
525.539	9.78
525.737	9.85
525.936	9.85
526.135	9.85
526.333	9.82
526.532	9.73
526.73	9.85
526.929	9.81
527.127	9.78
527.326	9.69
527.524	9.68
527.723	9.64
527.921	9.6
528.12	9.58
528.318	9.62
528.516	9.66
528.715	9.65
528.913	9.6
529.112	9.65
529.31	9.64
529.508	9.69
529.707	9.69
529.905	9.7
530.103	9.75
530.301	9.82
530.5	9.85
530.698	9.9
530.896	9.99
531.094	10.08
531.293	10.2
531.491	10.33
531.689	10.42
531.887	10.6
532.085	10.72
532.283	10.7
532.481	10.64
532.68	10.62
532.878	10.6
533.076	10.63
533.274	10.55
533.472	10.48
533.67	10.39
533.868	10.38
534.066	10.32
534.264	10.25
534.462	10.22
534.66	10.29
534.858	10.43
535.056	10.42
535.253	10.34
535.451	10.45
535.649	10.56
535.847	10.73
536.045	10.71
536.243	10.77
536.441	10.89
536.638	11.05
536.836	11.18
537.034	11.17
537.232	11.27
537.43	11.53
537.627	11.63
537.825	11.61
538.023	11.64
538.22	11.78
538.418	11.75
538.616	11.75
538.813	11.81
539.011	11.79
539.209	11.88
539.406	11.98
539.604	11.86
539.801	11.84
539.999	11.86
540.196	11.97
540.394	12.06
540.591	12.16
540.789	12.23
540.986	12.16
541.184	12.18
541.381	12.13
541.579	12.14
541.776	12.16
541.974	12.19
542.171	12.24
542.368	12.21
542.566	12.21
542.763	12.18
542.96	12.17
543.158	12.29
543.355	12.37
543.552	12.52
543.75	12.62
543.947	12.62
544.144	12.69
544.341	12.76
544.539	12.84
544.736	12.97
544.933	12.98
545.13	13.11
545.327	13.1
545.524	13.04
545.722	13.06
545.919	12.96
546.116	13.19
546.313	13.15
546.51	13.21
546.707	13.25
546.904	13.25
547.101	13.41
547.298	13.49
547.495	13.57
547.692	13.68
547.889	13.57
548.086	13.8
548.283	13.77
548.48	13.94
548.677	13.91
548.874	13.99
549.07	13.96
549.267	14.01
549.464	13.99
549.661	14.06
549.858	14.08
550.055	14.38
550.251	14.41
550.448	14.36
550.645	14.4
550.842	14.57
551.038	14.53
551.235	14.57
551.432	14.47
551.628	14.6
551.825	14.77
552.022	14.85
552.218	14.79
552.415	14.74
552.612	14.89
552.808	14.84
553.005	14.82
553.201	15
553.398	15
553.594	15.06
553.791	15.12
553.987	15.02
554.184	15.24
554.38	15.3
554.577	15.39
554.773	15.49
554.97	15.77
555.166	15.99
555.362	15.84
555.559	16.09
555.755	16.23
555.952	16.07
556.148	16.25
556.344	16.2
556.541	16.29
556.737	16.44
556.933	16.57
557.129	16.54
557.326	16.52
557.522	16.72
557.718	16.82
557.914	16.81
558.11	17.03
558.307	17.04
558.503	17.08
558.699	17
558.895	17.17
559.091	17.1
559.287	17.05
559.483	17.3
559.679	17.48
559.876	17.34
560.072	17.66
560.268	17.59
560.464	17.46
560.66	17.5
560.856	17.7
561.052	17.55
561.247	17.77
561.443	17.8
561.639	17.79
561.835	17.79
562.031	17.89
562.227	17.92
562.423	18.13
562.619	18.35
562.815	18.6
563.01	18.6
563.206	18.83
563.402	18.68
563.598	18.79
563.793	18.77
563.989	18.7
564.185	18.77
564.381	18.95
564.576	19
564.772	19.04
564.968	19
565.163	18.94
565.359	18.68
565.555	18.87
565.75	19.09
565.946	19.01
566.141	19.07
566.337	19.21
566.532	19.14
566.728	19.29
566.923	19.3
567.119	19.29
567.314	19.32
567.51	19.56
567.705	19.63
567.901	19.48
568.096	19.71
568.292	19.84
568.487	19.8
568.682	19.89
568.878	19.8
569.073	19.95
569.268	19.96
569.464	20.06
569.659	20.16
569.854	20.08
570.05	20.22
570.245	20.29
570.44	20.44
570.635	20.54
570.831	20.41
571.026	20.65
571.221	20.69
571.416	20.73
571.611	20.77
571.806	20.78
572.002	20.91
572.197	20.99
572.392	20.86
572.587	20.85
572.782	20.91
572.977	21.14
573.172	21.09
573.367	21.09
573.562	21.09
573.757	21.01
573.952	21.07
574.147	21.17
574.342	21.29
574.537	21.48
574.732	21.49
574.927	21.44
575.121	21.49
575.316	21.35
575.511	21.44
575.706	21.51
575.901	21.77
576.096	21.85
576.29	21.92
576.485	21.8
576.68	21.99
576.875	21.99
577.069	22.12
577.264	22.01
577.459	22.29
577.654	22.41
577.848	22.52
578.043	22.64
578.238	22.75
578.432	22.57
578.627	22.63
578.821	22.51
579.016	22.36
579.21	22.65
579.405	22.66
579.6	22.77
579.794	22.81
579.989	22.69
580.183	22.76
580.378	22.6
580.572	22.9
580.766	22.9
580.961	22.94
581.155	23.21
581.35	23
581.544	23.12
581.738	22.92
581.933	23.02
582.127	23.33
582.321	23.43
582.516	23.6
582.71	23.59
582.904	23.61
583.099	23.57
583.293	23.53
583.487	23.65
583.681	24.02
583.875	23.91
584.07	23.89
584.264	23.84
584.458	23.68
584.652	23.52
584.846	23.43
585.04	23.66
585.234	23.73
585.428	23.91
585.623	23.79
585.817	23.42
586.011	23.68
586.205	23.95
586.399	23.94
586.593	24.01
586.787	24.33
586.981	24.34
587.174	24.42
587.368	24.3
587.562	24.25
587.756	24.28
587.95	24.33
588.144	24.35
588.338	24.13
588.532	24.14
588.725	24.23
588.919	23.93
589.113	24.07
589.307	24.04
589.501	24.16
589.694	24.3
589.888	24.35
590.082	24.27
590.275	24.32
590.469	24.54
590.663	24.42
590.856	24.68
591.05	25
591.244	24.8
591.437	24.96
591.631	25.04
591.824	24.93
592.018	25.03
592.212	25.35
592.405	25.08
592.599	24.98
592.792	25.26
592.986	25.02
593.179	24.88
593.372	24.94
593.566	24.78
593.759	24.68
593.953	24.8
594.146	24.63
594.339	24.62
594.533	24.88
594.726	24.77
594.92	24.63
595.113	24.71
595.306	24.61
595.499	24.61
595.693	24.74
595.886	24.89
596.079	24.88
596.272	24.9
596.466	24.99
596.659	25
596.852	25.05
597.045	25.16
597.238	25.08
597.431	25.32
597.624	25.3
597.818	25.35
598.011	25.2
598.204	25.16
598.397	25.28
598.59	24.99
598.783	25.04
598.976	25.02
599.169	25.06
599.362	25.06
599.555	25.26
599.748	25.39
599.941	25
600.134	25.3
600.326	25.39
600.519	25.75
600.712	25.93
600.905	25.82
601.098	26.15
601.291	26.15
601.483	26.3
601.676	26.1
601.869	26.2
602.062	26.44
602.255	26.42
602.447	26.56
602.64	26.26
602.833	26.5
603.025	26.4
603.218	26.27
603.411	26.06
603.603	25.87
603.796	25.66
603.989	25.73
604.181	25.84
604.374	25.85
604.566	25.67
604.759	25.73
604.951	25.5
605.144	25.53
605.336	25.54
605.529	25.69
605.721	25.78
605.914	26
606.106	25.88
606.299	25.95
606.491	25.85
606.683	26
606.876	25.89
607.068	26.2
607.26	26.41
607.453	26.29
607.645	26.31
607.837	26.35
608.03	26.4
608.222	26.51
608.414	26.51
608.606	26.44
608.799	26.54
608.991	26.47
609.183	26.38
609.375	26.31
609.567	26.2
609.759	26.41
609.952	26.31
610.144	26.29
610.336	26.36
610.528	26.27
610.72	26.32
610.912	26.33
611.104	26.79
611.296	26.78
611.488	26.74
611.68	27.09
611.872	26.83
612.064	27.14
612.256	27.07
612.448	26.96
612.64	26.88
612.832	26.89
613.023	26.88
613.215	26.4
613.407	26.38
613.599	26.52
613.791	26.41
613.983	26.37
614.174	26.16
614.366	26.19
614.558	26.24
614.75	26.16
614.941	26.24
615.133	26.25
615.325	26.38
615.516	26.55
615.708	26.41
615.9	26.12
616.091	26.32
616.283	26.6
616.475	26.41
616.666	26.67
616.858	27.12
617.049	27.18
617.241	27.28
617.432	27.3
617.624	27.28
617.815	27.57
618.007	27.97
618.198	28.04
618.39	27.79
618.581	27.91
618.773	27.85
618.964	27.67
619.155	27.77
619.347	27.67
619.538	27.88
619.729	28.06
619.921	27.93
620.112	27.71
620.303	27.72
620.494	27.85
620.686	28.11
620.877	27.96
621.068	27.96
621.259	28.05
621.451	28.11
621.642	27.89
621.833	27.57
622.024	27.76
622.215	27.99
622.406	28.1
622.597	28.29
622.788	28
622.98	28.07
623.171	28.09
623.362	27.94
623.553	28.1
623.744	28.17
623.935	28.51
624.126	28.31
624.317	28.05
624.508	27.98
624.698	27.91
624.889	28.17
625.08	28.38
625.271	28.5
625.462	28.52
625.653	28
625.844	27.89
626.034	27.54
626.225	27.6
626.416	27.64
626.607	27.72
626.798	27.48
626.988	27.35
627.179	27.24
627.37	27.08
627.56	27.1
627.751	27.41
627.942	27.68
628.132	27.75
628.323	27.73
628.514	28.07
628.704	27.95
628.895	28.17
629.085	28.29
629.276	28.36
629.466	28.4
629.657	28.38
629.847	28.4
630.038	28.45
630.228	28.66
630.419	28.92
630.609	28.69
630.8	28.51
630.99	28.28
631.181	28.25
631.371	28.29
631.561	28.27
631.752	28.46
631.942	28.48
632.132	28.31
632.323	28.15
632.513	27.97
632.703	28.02
632.893	28.42
633.084	28.49
633.274	28.2
633.464	27.8
633.654	27.88
633.844	27.61
634.034	27.53
634.225	27.64
634.415	27.63
634.605	27.85
634.795	27.67
634.985	27.76
635.175	27.95
635.365	27.98
635.555	28.32
635.745	28.22
635.935	28.28
636.125	28.18
636.315	28.19
636.505	28
636.695	27.53
636.885	27.5
637.075	27.07
637.265	26.95
637.455	27.17
637.644	27.29
637.834	27.44
638.024	27.47
638.214	27.7
638.404	27.6
638.593	27.97
638.783	28.41
638.973	29
639.163	29.04
639.352	29.17
639.542	29.32
639.732	29.35
639.921	29.39
640.111	29.48
640.301	29.34
640.49	29.34
640.68	29.1
640.87	29.05
641.059	29.02
641.249	29.4
641.438	29.47
641.628	29.21
641.817	29.14
642.007	29.17
642.196	29.04
642.386	29.32
642.575	29.56
642.764	29.23
642.954	28.85
643.143	28.78
643.333	28.62
643.522	28.67
643.711	28.77
643.901	28.73
644.09	28.77
644.279	29.2
644.469	28.99
644.658	28.88
644.847	29.27
645.036	29.48
645.226	29.21
645.415	29
645.604	28.83
645.793	28.98
645.982	28.6
646.171	28.53
646.361	28.59
646.55	29.03
646.739	28.89
646.928	29.13
647.117	29.48
647.306	29.63
647.495	29.82
647.684	29.86
647.873	29.91
648.062	30.29
648.251	30.51
648.44	30.07
648.629	29.64
648.818	29.83
649.007	29.73
649.196	29.54
649.384	29.39
649.573	29.05
649.762	29
649.951	29.08
650.14	28.99
650.328	29.02
650.517	29.35
650.706	29.61
650.895	29.66
651.083	29.81
651.272	29.55
651.461	29.81
651.65	30.3
651.838	30
652.027	29.67
652.216	29.43
652.404	29.54
652.593	29.63
652.781	29.44
652.97	29.49
653.158	29.32
653.347	29.94
653.535	29.92
653.724	29.5
653.912	30.31
654.101	30.51
654.289	30.95
654.478	30.61
654.666	30.71
654.855	30.78
655.043	30.18
655.231	30.29
655.42	29.74
655.608	29.77
655.796	29.78
655.985	29.22
656.173	29.39
656.361	29.13
656.55	29.15
656.738	28.66
656.926	28.75
657.114	29.57
657.302	29.79
657.491	29.96
657.679	29.92
657.867	29.98
658.055	30.14
658.243	30.02
658.431	30.14
658.619	30.13
658.807	30.13
658.996	30.09
659.184	29.56
659.372	29.49
659.56	29.43
659.748	29.08
659.936	29.13
660.124	29.24
660.311	29.37
660.499	29.46
660.687	29.38
660.875	29.57
661.063	29.68
661.251	29.99
661.439	29.99
661.627	30.19
661.814	30.52
662.002	30.59
662.19	30.33
662.378	29.99
662.565	29.92
662.753	30.26
662.941	29.89
663.129	30.07
663.316	30.27
663.504	30.03
663.692	30.03
663.879	30.31
664.067	30.37
664.254	30.63
664.442	30.83
664.63	30.82
664.817	30.91
665.005	31.18
665.192	31.35
665.38	31.55
665.567	31.63
665.755	31.55
665.942	31.31
666.13	31.33
666.317	31.33
666.504	31.62
666.692	31.45
666.879	31.42
667.067	31.39
667.254	30.73
667.441	30.35
667.629	30.23
667.816	30.21
668.003	30.4
668.19	30.43
668.378	30.51
668.565	30.42
668.752	30.64
668.939	30.25
669.127	30.29
669.314	30.3
669.501	30.14
669.688	30.26
669.875	30.54
670.062	30.42
670.249	30.75
670.436	30.66
670.623	30.51
670.81	30.52
670.997	30.64
671.184	30.66
671.371	31.04
671.558	31.36
671.745	31.7
671.932	31.41
672.119	31.23
672.306	30.89
672.493	30.8
672.68	30.93
672.867	31.14
673.054	30.83
673.24	30.84
673.427	31.02
673.614	30.87
673.801	30.86
673.988	31.27
674.174	31.75
674.361	31.82
674.548	31.84
674.734	31.82
674.921	31.36
675.108	32.23
675.294	32.09
675.481	31.85
675.668	31.88
675.854	31.59
676.041	31.64
676.227	31.5
676.414	31.53
676.601	31.86
676.787	31.72
676.974	32.06
677.16	31.92
677.347	32.2
677.533	32.51
677.719	32.49
677.906	32.1
678.092	31.65
678.279	31.15
678.465	31.06
678.651	30.84
678.838	30.82
679.024	30.86
679.21	30.52
679.397	30.6
679.583	30.35
679.769	30.39
679.955	30.59
680.142	30.67
680.328	31.09
680.514	31.23
680.7	31.1
680.886	31.7
681.073	31.59
681.259	31.6
681.445	31.54
681.631	31.49
681.817	31.31
682.003	31.47
682.189	31.45
682.375	31.19
682.561	30.97
682.747	31.3
682.933	30.94
683.119	31.07
683.305	31.29
683.491	31.45
683.677	31.37
683.863	31.52
684.049	31.42
684.235	31.52
684.42	31.38
684.606	31.58
684.792	31.65
684.978	31.51
685.164	31.92
685.349	31.74
685.535	31.86
685.721	31.92
685.907	31.94
686.092	32.01
686.278	32.02
686.464	32.14
686.649	32.17
686.835	31.91
687.021	32.12
687.206	31.78
687.392	31.61
687.577	31.33
687.763	31.44
687.948	31.37
688.134	31.62
688.319	31.77
688.505	31.87
688.69	31.98
688.876	31.94
689.061	31.87
689.247	31.57
689.432	31.74
689.618	31.65
689.803	31.42
689.988	31.38
690.174	31.49
690.359	31.48
690.544	31.47
690.73	31.57
690.915	31.32
691.1	31.72
691.285	31.86
691.471	32.38
691.656	32.71
691.841	32.72
692.026	32.77
692.211	33.2
692.396	33.28
692.582	33.51
692.767	33.44
692.952	33.51
693.137	32.84
693.322	32.93
693.507	32.68
693.692	32.48
693.877	32.61
694.062	33.07
694.247	32.22
694.432	32.44
694.617	32.73
694.802	32.82
694.987	33.33
695.172	33.59
695.357	33.92
695.541	33.6
695.726	34.29
695.911	34.91
696.096	34.3
696.281	34.48
696.466	33.97
696.65	33.7
696.835	33.85
697.02	33.33
697.204	33.17
697.389	32.9
697.574	32.62
697.759	32.13
697.943	31.47
698.128	31.79
698.312	31.78
698.497	31.61
698.682	31.49
698.866	31.33
699.051	31.85
699.235	31.88
699.42	31.84
699.604	32.07
699.789	31.96
699.973	31.99
700.158	31.81
700.342	31.75
700.527	32.09
700.711	32.44
700.895	32.21
701.08	32.22
701.264	32.34
701.448	32.25
701.633	32.38
701.817	32.32
702.001	32.76
702.186	32.76
702.37	32.77
702.554	32.41
702.738	32.18
702.923	32.38
703.107	32.25
703.291	32.21
703.475	32.49
703.659	32.77
703.843	33.28
704.027	33.74
704.212	33.82
704.396	34.02
704.58	33.93
704.764	34.28
704.948	34.26
705.132	33.9
705.316	34.27
705.5	34.76
705.684	35.35
705.868	34.9
706.052	34.04
706.235	34.67
706.419	34.3
706.603	34.58
706.787	34.52
706.971	34.94
707.155	34.58
707.339	34.24
707.522	33.55
707.706	32.67
707.89	32.65
708.074	33.04
708.257	32.31
708.441	33.17
708.625	33.46
708.808	33.3
708.992	33.36
709.176	33.93
709.359	33.76
709.543	33.73
709.727	33.71
709.91	33.5
710.094	33.05
710.277	33.59
710.461	32.85
710.644	32.44
710.828	32.36
711.011	32.22
711.195	32
711.378	32.19
711.562	32.44
711.745	32.66
711.928	33.09
712.112	32.87
712.295	32.92
712.478	33.4
712.662	34.02
712.845	33.91
713.028	33.86
713.212	33.57
713.395	33.33
713.578	33.59
713.761	33.02
713.945	32.89
714.128	33.55
714.311	33.87
714.494	33.55
714.677	33.47
714.86	33.67
715.043	33.83
715.227	34.21
715.41	34.18
715.593	34.54
715.776	35.27
715.959	34.94
716.142	34.81
716.325	34.32
716.508	35.09
716.691	35.44
716.874	35.25
717.057	34.92
717.239	35.01
717.422	35.66
717.605	35.01
717.788	34.65
717.971	35.55
718.154	36.12
718.337	36.21
718.519	35.61
718.702	35.37
718.885	35.56
719.068	36.05
719.25	35.89
719.433	35.59
719.616	34.99
719.798	34.42
719.981	34.41
720.164	34.1
720.346	33.93
720.529	35
720.712	35.14
720.894	35.17
721.077	34.47
721.259	34.88
721.442	36.26
721.624	37.5
721.807	38.49
721.989	37.94
722.172	38.14
722.354	38.1
722.537	37.75
722.719	37
722.901	37.01
723.084	37.18
723.266	36.7
723.448	35.62
723.631	35.66
723.813	34.85
723.995	35.07
724.178	34.58
724.36	34.67
724.542	34.01
724.724	34.43
724.907	34.99
725.089	34.49
725.271	35.48
725.453	35.23
725.635	34.84
725.817	35.77
725.999	35.74
726.181	36.5
726.364	35.76
726.546	36.01
726.728	36.39
726.91	35.42
727.092	36.66
727.274	36.04
727.456	36.37
727.638	36.75
727.819	35.88
728.001	35.24
728.183	35.03
728.365	34.89
728.547	35.27
728.729	35.09
728.911	36
729.093	35.51
729.274	34.98
729.456	34.81
729.638	34.75
729.82	35.06
730.001	35.89
730.183	36.25
730.365	37.34
730.546	36.85
730.728	36.13
730.91	35.51
731.091	35.51
731.273	36.05
731.455	36.1
731.636	36.45
731.818	36.53
731.999	36.21
732.181	35.59
732.362	35.17
732.544	35.93
732.725	36.8
732.907	36.98
733.088	37.23
733.27	37.77
733.451	37.5
733.633	37.58
733.814	37.78
733.995	38.42
734.177	39.07
734.358	39.32
734.539	38.7
734.721	38.39
734.902	38.16
735.083	37.31
735.264	37.06
735.446	36.67
735.627	35.79
735.808	35.5
735.989	34.9
736.17	34.62
736.351	34.63
736.533	34.12
736.714	33.54
736.895	34.23
737.076	34.47
737.257	34.46
737.438	34.89
737.619	35.51
737.8	36.25
737.981	36.22
738.162	35.89
738.343	36.31
738.524	36.28
738.705	37.6
738.886	37.05
739.067	37.83
739.247	37.4
739.428	37.35
739.609	36.69
739.79	36.83
739.971	36.35
740.151	36.37
740.332	36.2
740.513	36.03
740.694	35.67
740.874	36.45
741.055	36.57
741.236	36.95
741.417	36.79
741.597	36.58
741.778	36.71
741.958	36.74
742.139	36.75
742.32	36.75
742.5	37.72
742.681	37.69
742.861	36.32
743.042	36.15
743.222	36.52
743.403	36.47
743.583	37.37
743.764	37.57
743.944	38.18
744.124	38.88
744.305	38.77
744.485	37.81
744.666	36.39
744.846	36.52
745.026	36.86
745.207	35.87
745.387	36.94
745.567	37.82
745.747	36.88
745.928	36.6
746.108	36.07
746.288	35.51
746.468	35.94
746.648	37.96
746.829	38.94
747.009	38.64
747.189	39
747.369	38.46
747.549	36.97
747.729	37.09
747.909	37.34
748.089	37.48
748.269	37.52
748.449	37.88
748.629	37.44
748.809	37.23
748.989	37.27
749.169	37.99
749.349	38.2
749.529	39.03
749.709	37.95
749.889	38.31
750.068	37.38
750.248	38.54
750.428	38.68
750.608	38.3
750.788	38.11
750.967	37.85
751.147	36.75
751.327	36.31
751.507	35.06
751.686	36.1
751.866	36.48
752.046	37.22
752.225	36.56
752.405	37.76
752.585	37.85
752.764	37.73
752.944	37.97
753.123	38.23
753.303	39.42
753.482	40.18
753.662	40.16
753.841	39.81
754.021	40.36
754.2	40.79
754.38	39.17
754.559	39.03
754.739	38.12
754.918	37.37
755.097	36.98
755.277	36.1
755.456	36.44
755.635	36.25
755.815	35.72
755.994	34.58
756.173	34.04
756.352	34.36
756.532	34.29
756.711	35.18
756.89	34.72
757.069	36.51
757.248	35.95
757.427	35.37
757.607	35.87
757.786	36.79
757.965	37.25
758.144	38.3
758.323	38.91
758.502	38.67
758.681	39.08
758.86	39.58
759.039	38.46
759.218	39.87
759.397	39.5
759.576	38.94
759.755	38.56
759.934	38.26
760.113	37.49
760.291	36.34
760.47	36.7
760.649	36.39
760.828	36.79
761.007	36.67
761.186	35.63
761.364	36.05
761.543	36.38
761.722	35.93
761.901	35.89
762.079	36.12
762.258	36.1
762.437	36.24
762.615	36.5
762.794	36.66
762.972	35.99
763.151	35.82
763.33	35.71
763.508	35.38
763.687	35.32
763.865	35.71
764.044	35.58
764.222	35.59
764.401	35.67
764.579	35.15
764.758	35.06
764.936	36.19
765.114	36.46
765.293	36.23
765.471	36.69
765.65	36.64
765.828	36.12
766.006	36.93
766.184	37.52
766.363	37.23
766.541	36.77
766.719	37.26
766.898	36.8
767.076	36.16
767.254	36.26
767.432	36.42
767.61	36.99
767.788	38.04
767.967	37.17
768.145	37.26
768.323	37.46
768.501	38.93
768.679	38.82
768.857	38.51
769.035	39.46
769.213	40.22
769.391	40.83
769.569	40.28
769.747	40.94
769.925	41.04
770.103	40.05
770.281	39.87
770.459	40.5
770.636	40.81
770.814	41.63
770.992	42.56
771.17	43
771.348	43.02
771.525	43.54
771.703	41.39
771.881	42.01
772.059	43.54
772.236	43.91
772.414	42.45
772.592	42.29
772.769	42.07
772.947	41.06
773.125	40.61
773.302	40.3
773.48	41.47
773.657	43.37
773.835	42.88
774.013	42.95
774.19	43.28
774.368	44.23
774.545	44.23
774.723	43.66
774.9	43.8
775.077	43.34
775.255	42.05
775.432	41.55
775.61	41.35
775.787	40.43
775.964	39.78
776.142	39.01
776.319	41.01
776.496	40.43
776.674	40.58
776.851	39.79
777.028	40.13
777.205	40.92
777.382	40.23
777.56	39.05
777.737	42.19
777.914	41.79
778.091	42.11
778.268	40.02
778.445	41.37
778.622	42.22
778.8	44.83
778.977	45.23
779.154	50.47
779.331	50.54
779.508	52.34
779.685	50.3
779.862	51.91
780.038	50.93
780.215	53.26
780.392	51.29
780.569	50.75
780.746	49.42
780.923	50.02
781.1	46.08
781.277	46.99
781.453	45.22
781.63	43.68
781.807	42.68
781.984	43.7
782.16	42.23
782.337	43.18
782.514	42.19
782.691	44.46
782.867	43.45
783.044	40.24
783.221	40.32
783.397	41.77
783.574	42.49
783.75	42.99
783.927	44.77
784.103	44.86
784.28	47.29
784.456	48.29
784.633	44.43
784.809	45.14
784.986	47.93
785.162	46.21
785.339	44.93
785.515	45.38
785.692	43.78
785.868	43.05
786.044	42.44
786.221	39.87
786.397	39.89
786.573	39.25
786.749	39.55
786.926	41.13
787.102	41.85
787.278	43.71
787.454	43.67
787.631	45.25
787.807	44.34
787.983	44.78
788.159	42.57
788.335	43.39
788.511	44.7
788.687	44.07
788.863	40.71
789.039	40.06
789.216	39.98
789.392	40.3
789.568	41.8
789.744	41.6
789.919	39.16
790.095	40.91
790.271	41.08
790.447	39.67
790.623	40
790.799	42.37
790.975	43.76
791.151	43.09
791.327	43.72
791.502	41.94
791.678	42.51
791.854	45.09
792.03	46.58
792.205	48.13
792.381	50.84
792.557	51.14
792.733	50.62
792.908	51.75
793.084	51.03
793.259	50.71
793.435	51.78
793.611	51.21
793.786	50.41
793.962	50.3
794.137	48.37
794.313	49.55
794.488	48.93
794.664	48.91
794.839	47.22
795.015	49.22
795.19	50.04
795.366	50.18
795.541	50.65
795.716	51.04
795.892	50.44
796.067	49.53
796.242	47.76
796.418	48.26
796.593	49.09
796.768	48.02
796.944	47.26
797.119	46
797.294	44.16
797.469	43.35
797.644	43.09
797.82	42.53
797.995	42.82
798.17	41.94
798.345	41.63
798.52	40.32
798.695	41.94
798.87	41.7
799.045	41.54
799.22	44.32
799.395	46.02
799.57	45.97
799.745	46.1
799.92	46.85
800.095	48.77
800.27	49.08
800.445	49.88
800.62	49.14
800.795	50.31
800.97	50.75
801.145	47.21
801.319	47.15
801.494	46.16
801.669	48.45
801.844	49.27
802.018	48.85
802.193	48.24
802.368	47.32
802.543	47.4
802.717	47.09
802.892	46.65
803.067	47.96
803.241	46.37
803.416	48.12
803.59	46.89
803.765	46.77
803.94	46.8
804.114	43.96
804.289	44.92
804.463	46.32
804.638	46.07
804.812	47.64
804.986	46.36
805.161	44.83
805.335	44.06
805.51	43.76
805.684	42.22
805.858	41.07
806.033	41.62
806.207	40.17
806.381	40.96
806.556	39.46
806.73	38.29
806.904	38.08
807.078	39.52
807.253	40.18
807.427	38.78
807.601	38.01
807.775	40.05
807.949	42.58
808.123	44.76
808.298	43.7
808.472	46.84
808.646	45.67
808.82	46.76
808.994	46.89
809.168	46.39
809.342	48.97
809.516	50.74
809.69	46.81
809.864	46.4
810.038	46.94
810.212	44.78
810.385	42.5
810.559	43.7
810.733	43.62
810.907	44.7
811.081	43.73
811.255	43.63
811.428	43.41
811.602	46.8
811.776	49.31
811.95	48.24
812.123	48.71
812.297	50.33
812.471	49.66
812.644	50.84
812.818	50.38
812.992	51.39
813.165	51.41
813.339	49.98
813.512	49.52
813.686	49.09
813.86	48.92
814.033	49.89
814.207	48.89
814.38	48.11
814.554	46.55
814.727	46.8
814.9	49.05
815.074	49.37
815.247	51.32
815.421	47.5
815.594	47
815.767	46.25
815.941	46.67
816.114	47.59
816.287	50.01
816.46	47.59
816.634	44.88
816.807	46.54
816.98	46.41
817.153	48.28
817.327	52
817.5	50.95
817.673	53.72
817.846	53.11
818.019	52.68
818.192	53.35
818.365	55.07
818.538	58.93
818.711	52.77
818.884	52.45
819.057	48.18
819.23	47.73
819.403	47.63
819.576	45.47
819.749	44.81
819.922	43.53
820.095	42.43
820.268	42.09
820.441	40.96
820.614	40.27
820.786	38.66
820.959	39.26
821.132	38.91
821.305	37.27
821.477	36.03
821.65	36.88
821.823	37.01
821.996	35.92
822.168	35.37
822.341	34.83
822.514	35.59
822.686	34.98
822.859	35.02
823.031	34.91
823.204	35.19
823.376	35.56
823.549	35.52
823.722	35.44
823.894	36.17
824.067	36.43
824.239	37.08
824.411	36.98
824.584	38.01
824.756	38.11
824.929	38.3
825.101	38.7
825.273	39.1
825.446	38.5
825.618	38.2
825.79	37.87
825.963	38.07
826.135	38.54
826.307	38.29
826.479	38.24
826.652	37.92
826.824	37.97
826.996	37.19
827.168	37.08
827.34	37.66
827.512	38.15
827.684	38.05
827.856	38.7
828.029	38.84
828.201	38.74
828.373	38.45
828.545	38.28
828.717	37.56
828.889	38.41
829.061	38.76
829.232	39.93
829.404	40.44
829.576	41.16
829.748	40.28
829.92	40.41
830.092	42.47
830.264	42.26
830.436	43.97
830.607	45.89
830.779	45.87
830.951	46.48
831.123	44.71
831.294	44.18
831.466	43.9
831.638	44.66
831.809	43.85
831.981	43.49
832.153	44.63
832.324	44.29
832.496	43.58
832.667	46.5
832.839	45.54
833.011	44.61
833.182	43.92
833.354	42.89
833.525	44.35
833.697	43.18
833.868	41.81
834.039	41.24
834.211	40.99
834.382	39.72
834.554	38.81
834.725	39.59
834.896	40.92
835.068	40.81
835.239	40.86
835.41	40
835.581	39.49
835.753	38.9
835.924	37.45
836.095	37.28
836.266	37.97
836.438	37.3
836.609	35.61
836.78	34.71
836.951	36.79
837.122	37.07
837.293	38.8
837.464	39.17
837.635	40.9
837.806	43.71
837.977	46.22
838.148	49.09
838.319	48.82
838.49	49.7
838.661	51.98
838.832	49.81
839.003	51.18
839.174	48.35
839.345	50.42
839.516	51.53
839.687	53.1
839.857	49.52
840.028	48.48
840.199	48.65
840.37	48.34
840.54	48.59
840.711	48.53
840.882	48.51
841.053	48.56
841.223	46.97
841.394	46.61
841.564	48.83
841.735	53.05
841.906	53.68
842.076	49
842.247	51.37
842.417	50.57
842.588	51.73
842.758	52.52
842.929	51.34
843.099	53.36
843.27	54.06
843.44	51.97
843.611	50.63
843.781	45.95
843.951	54.06
844.122	55.7
844.292	55.72
844.462	56.22
844.633	56.92
844.803	61.8
844.973	60.2
845.144	61.4
845.314	62.26
845.484	58.77
845.654	61.86
845.824	64.06
845.995	66.74
846.165	67.27
846.335	70.8
846.505	68.53
846.675	68.26
846.845	70.16
847.015	69.36
847.185	68.03
847.355	73.99
847.525	76.85
847.695	76.58
847.865	71.25
848.035	71.36
848.205	63.51
848.375	70.24
848.545	57.44
848.715	54.33
848.884	58.18
849.054	57.39
849.224	48.59
849.394	53.04
849.564	48.69
849.733	49.54
849.903	49.39
850.073	52.82
850.243	46.2
850.412	50.9
850.582	53.98
850.752	48.02
850.921	43.1
851.091	50.47
851.26	46.78
851.43	51.26
851.599	50.44
851.769	54.58
851.939	54.71
852.108	63.87
852.278	73.76
852.447	65.56
852.616	69.92
852.786	69.15
852.955	61.94
853.125	70.49
853.294	67.46
853.463	61.19
853.633	58.91
853.802	63.48
853.971	60.92
854.141	55.51
854.31	59.73
854.479	53.89
854.648	55.94
854.818	53.02
854.987	48.5
855.156	50.95
855.325	60.49
855.494	62.82
855.663	48.95
855.832	57.38
856.001	60.34
856.171	55.03
856.34	60.76
856.509	71.08
856.678	84.96
856.847	88.91
857.016	89.86
857.185	89.51
857.353	100.57
857.522	113.43
857.691	106.83
857.86	103.11
858.029	100.9
858.198	107.94
858.367	105.89
858.535	103.96
858.704	97.4
858.873	97.44
859.042	88.95
859.21	72.55
859.379	72.26
859.548	59.32
859.717	59.48
859.885	68.22
860.054	58.8
860.222	49.08
860.391	52.48
860.56	49.37
860.728	45.53
860.897	50.12
861.065	49.14
861.234	46.48
861.402	61.12
861.571	60.53
861.739	57.68
861.908	55.39
862.076	64.85
862.244	62.05
862.413	61.62
862.581	68.05
862.749	63.63
862.918	69.54
863.086	70.43
863.254	59.35
863.423	65.2
863.591	68.19
863.759	69.14
863.927	70.5
864.096	73.21
864.264	84.16
864.432	75.48
864.6	78.67
864.768	79.44
864.936	90.03
865.104	84.84
865.272	88.84
865.44	90.9
865.608	82.36
865.776	77.11
865.944	74.4
866.112	68.9
866.28	78.84
866.448	80.24
866.616	73.4
866.784	69.11
866.952	75.11
867.12	71.17
867.288	68.06
867.455	74.41
867.623	85.55
867.791	77.74
867.959	73.92
868.127	65.17
868.294	65.84
868.462	65.06
868.63	66.08
868.797	72.55
868.965	72.16
869.133	72.43
869.3	72.51
869.468	65.09
869.636	59.92
869.803	62.19
869.971	75.84
870.138	66.64
870.306	66.49
870.473	58.9
870.641	57.19
870.808	58.67
870.975	62.81
871.143	71.28
871.31	71.62
871.478	94.12
871.645	86.52
871.812	78.21
871.98	88.05
872.147	93.37
872.314	101.13
872.482	101.56
872.649	98.76
872.816	93.48
872.983	95.26
873.15	94.6
873.318	83.8
873.485	92.86
873.652	89.92
873.819	90.07
873.986	87.94
874.153	84.32
874.32	83.95
874.487	83.38
874.654	84.98
874.821	86.93
874.988	84.89
875.155	88.36
875.322	89.39
875.489	87.08
875.656	78.22
875.823	77.59
875.99	73.66
876.157	80.83
876.324	72.21
876.49	67.85
876.657	56.64
876.824	65.29
876.991	58.86
877.157	52.27
877.324	60.42
877.491	65.59
877.658	71.7
877.824	69.84
877.991	61.07
878.157	66.82
878.324	56.74
878.491	63.3
878.657	66.39
878.824	71.42
878.99	73.16
879.157	72.17
879.323	64.68
879.49	63.58
879.656	67.83
879.823	68.97
879.989	64.71
880.156	80.68
880.322	73.49
880.488	65.03
880.655	67.76
880.821	69.75
880.987	67.69
881.154	70.45
881.32	65.64
881.486	63.85
881.652	62.99
881.819	61.55
881.985	52.18
882.151	50.78
882.317	48.67
882.483	44.46
882.649	42.79
882.816	41.92
882.982	40.49
883.148	39.76
883.314	37.82
883.48	40.01
883.646	39.89
883.812	39.38
883.978	40.09
884.144	40.43
884.31	40.38
884.476	41.65
884.642	42.27
884.807	42.89
884.973	43.32
885.139	43.98
885.305	42.91
885.471	44.31
885.637	45.03
885.802	44.02
885.968	44.2
886.134	43.53
886.3	42.17
886.465	41.45
886.631	41.58
886.797	43.33
886.962	44.16
887.128	44.38
887.293	41.66
887.459	45.22
887.625	48.31
887.79	53.97
887.956	55.24
888.121	58.14
888.287	59.13
888.452	63.09
888.618	63.52
888.783	65.47
