Data from LC_191_Reflection_2.txt Node
Date: Tue Nov 17 13:33:31 EST 2015
User: robert
Spectrometer: USB4E03001
Autoset integration time: false
Trigger mode: 4
Integration Time (sec): 1.000000E-1
Scans to average: 15
Electric dark correction enabled: true
Nonlinearity correction enabled: false
Boxcar width: 5
Stray light correction enabled: false
XAxis mode: Wavelengths
Stop averaging: false
Number of Pixels in Spectrum: 3648
>>>>>Begin Spectral Data<<<<<
177.566	240.37
177.785	293.01
178.005	-1302.24
178.225	486.92
178.445	-560.33
178.665	-97.2
178.885	-97.44
179.105	-156.89
179.324	409.91
179.544	696.27
179.764	218.86
179.984	114.97
180.204	138.1
180.423	211.63
180.643	269.81
180.863	-1017.62
181.083	-1066.58
181.302	204.24
181.522	111.27
181.742	322.8
181.961	2862.75
182.181	-135.53
182.401	23.32
182.621	-84.34
182.84	-88.91
183.06	-574.18
183.279	887.47
183.499	-5894.96
183.719	-662.6
183.938	-216.87
184.158	-356.39
184.377	-584.93
184.597	-457.31
184.816	487.72
185.036	440.03
185.256	595.26
185.475	340.97
185.695	421.31
185.914	343.03
186.134	359.61
186.353	220.86
186.572	266.74
186.792	221.11
187.011	216.22
187.231	719.52
187.45	2591.29
187.67	416.56
187.889	500.63
188.108	327.31
188.328	273.07
188.547	276.43
188.766	-830.56
188.986	748.53
189.205	193.76
189.424	314.33
189.644	283.51
189.863	194.74
190.082	171.37
190.302	184.59
190.521	234.69
190.74	4732.47
190.959	683.53
191.178	283.67
191.398	276.96
191.617	825.92
191.836	533.39
192.055	395.04
192.274	-1150.36
192.494	-637.25
192.713	-1932.76
192.932	-927.13
193.151	1564.22
193.37	18625.4
193.589	-591250
193.808	16207.87
194.027	-1952.18
194.246	-940.15
194.465	2929.01
194.685	301.15
194.904	239.4
195.123	28091.67
195.342	804.82
195.561	303.43
195.78	289.96
195.999	400.75
196.218	251.66
196.436	219.81
196.655	153.29
196.874	193.2
197.093	192.09
197.312	151.8
197.531	144.81
197.75	131.35
197.969	137.91
198.188	161.77
198.407	157.98
198.625	176.27
198.844	162.13
199.063	142.85
199.282	140.37
199.501	139.38
199.719	229.49
199.938	236.33
200.157	322.6
200.376	767.45
200.594	327.48
200.813	189.26
201.032	249.41
201.251	315.58
201.469	4586.69
201.688	1490.13
201.907	-6448.31
202.125	1691.46
202.344	1779.93
202.563	1253.05
202.781	1062.01
203	-1081.42
203.218	-176.16
203.437	-279.99
203.656	-85.54
203.874	-175.84
204.093	-315.13
204.311	-457.34
204.53	9846.05
204.748	-399.23
204.967	2159.82
205.185	408.97
205.404	239.84
205.622	239.76
205.841	215.08
206.059	276.14
206.278	203.1
206.496	183.89
206.715	185.43
206.933	191.83
207.151	163.71
207.37	136.6
207.588	158.37
207.806	165.96
208.025	145.18
208.243	97.75
208.461	122
208.68	224.98
208.898	-330.21
209.116	-376
209.335	1350.5
209.553	-744.06
209.771	367.36
209.989	177.53
210.208	280.59
210.426	315.34
210.644	339.92
210.862	245
211.081	191.3
211.299	149.06
211.517	166.58
211.735	163.32
211.953	173.68
212.171	204.63
212.39	465.21
212.608	375.59
212.826	494.13
213.044	495.21
213.262	395.75
213.48	-13982.09
213.698	-620.06
213.916	302.43
214.134	-499.84
214.352	-68.75
214.57	-55.55
214.788	812.47
215.006	287.57
215.224	303.28
215.442	206.71
215.66	182.44
215.878	229.85
216.096	135.77
216.314	172.03
216.532	128.36
216.75	111.9
216.968	136.4
217.185	171.3
217.403	186.73
217.621	164.73
217.839	193.41
218.057	224.45
218.275	209.66
218.492	249.26
218.71	275.45
218.928	300.97
219.146	331.99
219.363	377.15
219.581	237.07
219.799	234.72
220.017	257.04
220.234	185.24
220.452	145.78
220.67	121.53
220.887	95.73
221.105	74.77
221.323	83.12
221.54	59.2
221.758	50.67
221.976	67.34
222.193	78.97
222.411	66.84
222.629	77.79
222.846	84.06
223.064	76.31
223.281	90.19
223.499	96.77
223.716	101.81
223.934	115.64
224.151	108.41
224.369	97.45
224.586	97.07
224.804	116.5
225.021	123.05
225.239	125.1
225.456	112.35
225.674	80.92
225.891	74.25
226.108	75.28
226.326	56.99
226.543	44.56
226.76	46.92
226.978	44.79
227.195	37.06
227.413	35.06
227.63	29.28
227.847	34.66
228.064	40.89
228.282	39.43
228.499	37.53
228.716	38.03
228.934	41.71
229.151	42.2
229.368	35.66
229.585	34.16
229.802	36.51
230.02	34.46
230.237	32.63
230.454	34.16
230.671	35.45
230.888	34.1
231.105	31.31
231.323	29.52
231.54	26.03
231.757	33.22
231.974	35.41
232.191	27.21
232.408	35.77
232.625	38.78
232.842	37.07
233.059	38.1
233.276	38.8
233.493	42.94
233.71	41.68
233.927	36.72
234.144	40.68
234.361	41.9
234.578	44.41
234.795	38.53
235.012	36.66
235.229	30.1
235.446	25.79
235.663	28.59
235.879	29.33
236.096	31.77
236.313	38.51
236.53	32.03
236.747	32.22
236.964	31.6
237.181	30.09
237.397	28.09
237.614	30.07
237.831	29.89
238.048	27.39
238.264	28.99
238.481	23.48
238.698	27.55
238.915	25.63
239.131	29.15
239.348	32.56
239.565	31.59
239.781	36.49
239.998	40.37
240.215	39.28
240.431	34.48
240.648	29.93
240.865	29.17
241.081	28.93
241.298	30.07
241.514	26.81
241.731	25.79
241.947	25.36
242.164	22.94
242.38	19.95
242.597	20.81
242.814	20.95
243.03	21.46
243.246	21.19
243.463	19.38
243.679	18.37
243.896	18.28
244.112	16.27
244.329	16.96
244.545	17.49
244.762	18.48
244.978	16.16
245.194	19.01
245.411	19.94
245.627	21.41
245.843	19.19
246.06	17.25
246.276	14.79
246.492	15.66
246.709	14.5
246.925	15.38
247.141	15.22
247.357	14.97
247.574	14.43
247.79	14.06
248.006	13.12
248.222	14.25
248.439	15.33
248.655	15.08
248.871	14.66
249.087	15.49
249.303	14.79
249.519	15.12
249.736	16.31
249.952	16.61
250.168	18.25
250.384	19.74
250.6	16.9
250.816	15.32
251.032	18.26
251.248	18.9
251.464	18.62
251.68	18.48
251.896	18.41
252.112	16.1
252.328	15.87
252.544	14.71
252.76	13.94
252.976	14.59
253.192	17.15
253.408	17.22
253.624	17.65
253.84	17.02
254.056	14.98
254.272	13.79
254.487	17.24
254.703	14.85
254.919	14.6
255.135	15.76
255.351	16.62
255.567	13.26
255.782	9.66
255.998	9.98
256.214	11.25
256.43	11.54
256.646	14.73
256.861	11.48
257.077	14.19
257.293	16.71
257.508	17.4
257.724	18.34
257.94	17.96
258.155	19.13
258.371	19.31
258.587	17.22
258.802	16.18
259.018	13.4
259.234	13.79
259.449	13.62
259.665	12.13
259.88	11.6
260.096	12.04
260.312	11.88
260.527	11.6
260.743	11.63
260.958	12.03
261.174	12.64
261.389	13.49
261.605	13.9
261.82	13.95
262.036	13.92
262.251	13.77
262.466	11.84
262.682	13.17
262.897	13.57
263.113	12.29
263.328	12
263.543	13.04
263.759	14.04
263.974	13.49
264.189	12.01
264.405	14.81
264.62	16.86
264.835	18.58
265.051	17.83
265.266	20.81
265.481	20.5
265.696	23.4
265.912	22.39
266.127	20.54
266.342	19.49
266.557	19.18
266.773	17.18
266.988	17.77
267.203	18.02
267.418	18.47
267.633	15.68
267.848	14.93
268.064	11.81
268.279	10.59
268.494	10.86
268.709	10.74
268.924	12.69
269.139	12.87
269.354	11.98
269.569	11.89
269.784	10.49
269.999	10.98
270.214	11.06
270.429	12.6
270.644	11.97
270.859	12.1
271.074	12.52
271.289	11.66
271.504	11.22
271.719	10.56
271.934	10.17
272.149	9.96
272.363	11.8
272.578	12.45
272.793	11.68
273.008	12.54
273.223	12.96
273.438	12.72
273.653	13.74
273.867	13.94
274.082	14.49
274.297	13.56
274.512	14.27
274.726	11.52
274.941	10.02
275.156	10.96
275.371	11.32
275.585	11.13
275.8	12.17
276.015	11.62
276.229	11.34
276.444	9.37
276.659	11.53
276.873	11.03
277.088	12.6
277.302	13.66
277.517	12.6
277.732	11.85
277.946	11.44
278.161	12.64
278.375	11.38
278.59	13.29
278.804	13.57
279.019	11.97
279.233	11.52
279.448	10.84
279.662	12.07
279.877	12.86
280.091	12.58
280.306	12.58
280.52	11.06
280.735	11.61
280.949	9.91
281.163	11.08
281.378	13.06
281.592	13.04
281.806	13.05
282.021	13.02
282.235	12.7
282.449	14.39
282.664	15.35
282.878	15.73
283.092	15.36
283.307	16.17
283.521	15.48
283.735	12.76
283.949	12.93
284.164	13.19
284.378	11.89
284.592	11.22
284.806	9.96
285.02	9.33
285.234	8.76
285.449	8.01
285.663	7.88
285.877	7.74
286.091	7.78
286.305	8.26
286.519	8.05
286.733	8.81
286.947	9.49
287.161	9.17
287.375	9.15
287.589	10.27
287.803	10.76
288.017	10.33
288.231	11.01
288.445	12.31
288.659	12.53
288.873	11.87
289.087	12.29
289.301	12.98
289.515	13.81
289.729	13.85
289.943	13.11
290.157	13.88
290.371	13.48
290.584	13.5
290.798	13.87
291.012	13.87
291.226	15.27
291.44	14.84
291.654	14.03
291.867	14.39
292.081	13.65
292.295	14.12
292.509	13.78
292.722	14.22
292.936	14.75
293.15	15.14
293.364	14.46
293.577	14.16
293.791	13.28
294.005	14.32
294.218	13.85
294.432	14.54
294.645	14.14
294.859	13.71
295.073	12.94
295.286	12.8
295.5	11.6
295.713	11.75
295.927	11.28
296.14	11.73
296.354	10.77
296.568	11.19
296.781	11.25
296.994	10.42
297.208	10.61
297.421	10.65
297.635	10.89
297.848	10.69
298.062	10.39
298.275	10.49
298.489	10.53
298.702	10.65
298.915	10.38
299.129	10.44
299.342	11.5
299.555	11.26
299.769	12.56
299.982	12.71
300.195	12.76
300.409	13.68
300.622	13.61
300.835	14.33
301.048	15.04
301.262	14.36
301.475	14.07
301.688	14.06
301.901	14.82
302.115	14.71
302.328	13.97
302.541	14.45
302.754	14.02
302.967	13.8
303.18	13.13
303.393	11.68
303.607	12.96
303.82	12.97
304.033	12.14
304.246	11.85
304.459	11.26
304.672	11.28
304.885	11.57
305.098	11.28
305.311	11.74
305.524	12.03
305.737	13.75
305.95	14.51
306.163	13.47
306.376	13.92
306.589	13.94
306.802	13.5
307.015	14.06
307.228	14.69
307.44	15.08
307.653	14.66
307.866	13.75
308.079	13.18
308.292	11.26
308.505	11.73
308.718	11.27
308.93	10.73
309.143	11.87
309.356	11.11
309.569	10.62
309.781	11.07
309.994	10.22
310.207	10.63
310.42	10.05
310.632	10.04
310.845	10.41
311.058	9.9
311.27	9.65
311.483	9.15
311.696	9.63
311.908	9.76
312.121	8.56
312.333	9.54
312.546	9.57
312.759	9.58
312.971	10.15
313.184	10.9
313.396	11.6
313.609	11.83
313.821	12.89
314.034	13.1
314.246	12.19
314.459	12.73
314.671	12.12
314.884	12.14
315.096	12.17
315.309	11.96
315.521	11.89
315.733	11.75
315.946	12.18
316.158	11.53
316.371	11.62
316.583	12.61
316.795	13.98
317.008	14.85
317.22	14.38
317.432	16.21
317.644	15.65
317.857	15
318.069	15.99
318.281	16.37
318.494	16.35
318.706	15.41
318.918	14.66
319.13	14.82
319.342	14.43
319.555	15.12
319.767	14.99
319.979	15.4
320.191	15.2
320.403	14.96
320.615	15.36
320.827	14.55
321.039	16.35
321.252	16.44
321.464	15.72
321.676	15.97
321.888	15.38
322.1	14.87
322.312	15.48
322.524	16.69
322.736	16.34
322.948	15.83
323.16	15.3
323.372	14.05
323.584	14.93
323.796	15.29
324.007	15.89
324.219	17.46
324.431	18.41
324.643	18
324.855	18.15
325.067	18.65
325.279	18.78
325.491	20.54
325.702	20.94
325.914	20.3
326.126	20.01
326.338	20.31
326.55	18.51
326.761	16.65
326.973	16.83
327.185	15.7
327.396	16
327.608	15.75
327.82	14.36
328.032	14.01
328.243	14.68
328.455	15.21
328.666	14.42
328.878	15.71
329.09	17.19
329.301	16.74
329.513	18.34
329.725	17.9
329.936	18.82
330.148	21.08
330.359	21.43
330.571	20.87
330.782	20.95
330.994	21.26
331.205	20.31
331.417	19.92
331.628	20.93
331.84	20.92
332.051	20.91
332.262	20.69
332.474	19.23
332.685	20.1
332.897	19.8
333.108	19.83
333.319	20.42
333.531	21.14
333.742	20.78
333.953	19.5
334.165	18.29
334.376	18.88
334.587	18.52
334.799	18.65
335.01	18.74
335.221	18.08
335.432	17.68
335.644	17.43
335.855	17.31
336.066	17.98
336.277	19.27
336.488	20.34
336.7	20.07
336.911	20.61
337.122	20.31
337.333	19.6
337.544	21.38
337.755	21.19
337.966	20.34
338.177	20.79
338.388	20.75
338.599	20.94
338.811	19.84
339.022	19.3
339.233	18.32
339.444	18.87
339.655	19.48
339.866	18.84
340.076	18.28
340.287	19.3
340.498	18.46
340.709	19.19
340.92	18.41
341.131	18.98
341.342	19.48
341.553	20.43
341.764	20.44
341.975	20.19
342.185	19.58
342.396	20.45
342.607	20.3
342.818	20.56
343.029	19.1
343.239	19.77
343.45	19
343.661	19.01
343.872	19
344.082	19.14
344.293	18.93
344.504	20.94
344.714	20.43
344.925	19.91
345.136	19.55
345.346	20.13
345.557	19.39
345.768	20.54
345.978	20.48
346.189	20.62
346.399	20.53
346.61	20.6
346.821	19.11
347.031	19.64
347.242	19.29
347.452	19.93
347.663	19.62
347.873	19.79
348.084	18.18
348.294	17.99
348.504	16.75
348.715	16.99
348.925	16.63
349.136	15.71
349.346	14.82
349.557	15.62
349.767	15.79
349.977	15.16
350.188	15.71
350.398	16.61
350.608	16.85
350.819	17.38
351.029	16.79
351.239	17.71
351.449	18.88
351.66	19.23
351.87	19.04
352.08	19.14
352.29	19.91
352.501	19.27
352.711	19.68
352.921	19.46
353.131	19.77
353.341	19.92
353.552	18.62
353.762	18.66
353.972	18.88
354.182	19.81
354.392	19.85
354.602	20.69
354.812	20.48
355.022	20.63
355.232	20.5
355.442	20.47
355.652	20.26
355.862	20.84
356.072	20.54
356.282	20.51
356.492	19.66
356.702	18.78
356.912	17.75
357.122	18.13
357.332	17.74
357.542	17.59
357.752	17.49
357.962	17.23
358.171	16.83
358.381	16.93
358.591	16.46
358.801	16.5
359.011	16.74
359.221	17.17
359.43	16.96
359.64	16.32
359.85	15.89
360.06	15.75
360.269	15.98
360.479	15.53
360.689	15.35
360.899	15.73
361.108	15.42
361.318	14.82
361.528	14.16
361.737	14.07
361.947	14.39
362.156	14.43
362.366	14.16
362.576	13.35
362.785	13.98
362.995	13.82
363.204	13.5
363.414	13.81
363.623	14.29
363.833	14.82
364.042	15.17
364.252	14.83
364.461	15.32
364.671	15.68
364.88	16.78
365.09	17.08
365.299	17.3
365.509	17.38
365.718	17.21
365.927	17.41
366.137	17.74
366.346	17.41
366.555	17.35
366.765	16.68
366.974	16.21
367.183	16.27
367.393	15.54
367.602	15.25
367.811	15.08
368.021	14.57
368.23	14.85
368.439	13.96
368.648	13.87
368.857	13.98
369.067	14.33
369.276	14.91
369.485	14.97
369.694	14.83
369.903	15.53
370.112	15.67
370.321	16.23
370.531	15.6
370.74	15.7
370.949	15.34
371.158	15.76
371.367	15.98
371.576	15.72
371.785	15.42
371.994	15.57
372.203	14.98
372.412	14.89
372.621	14.83
372.83	14.62
373.039	15.16
373.248	15.5
373.457	15.58
373.666	15.5
373.874	15.26
374.083	15.25
374.292	15.28
374.501	15.62
374.71	15.88
374.919	15.73
375.128	16.02
375.336	15.95
375.545	15.89
375.754	15.71
375.963	14.89
376.171	15.43
376.38	15.67
376.589	15.59
376.798	15.31
377.006	15.37
377.215	15.69
377.424	15.4
377.632	14.44
377.841	14.67
378.05	14.64
378.258	15.22
378.467	14.52
378.675	13.93
378.884	14.28
379.093	14.37
379.301	13.96
379.51	13.63
379.718	13.71
379.927	14.4
380.135	14.11
380.344	14.39
380.552	14.53
380.761	14.84
380.969	15.37
381.177	15.2
381.386	14.33
381.594	14.48
381.803	13.95
382.011	14.15
382.219	13.7
382.428	13.55
382.636	12.99
382.845	12.76
383.053	12.89
383.261	12.52
383.469	12.59
383.678	13.39
383.886	13.29
384.094	13.53
384.302	13.34
384.511	13.66
384.719	13.75
384.927	13.67
385.135	13.92
385.343	13.86
385.552	13.92
385.76	13.64
385.968	13.61
386.176	13.49
386.384	13.55
386.592	13.45
386.8	13.64
387.008	13.57
387.216	14.01
387.424	13.94
387.633	13.61
387.841	13.73
388.049	14.06
388.257	14.08
388.465	14.25
388.672	14.37
388.88	14.38
389.088	14.36
389.296	14.68
389.504	14.33
389.712	14.39
389.92	14.53
390.128	14.24
390.336	14.14
390.544	14.12
390.751	13.86
390.959	13.76
391.167	13.9
391.375	13.62
391.583	13.06
391.79	13.09
391.998	12.93
392.206	13
392.414	12.66
392.621	12.53
392.829	12.11
393.037	12.22
393.244	12.14
393.452	12.21
393.66	12.04
393.867	12.48
394.075	12.42
394.283	12.31
394.49	12.13
394.698	12.43
394.905	12.2
395.113	12.49
395.32	12.27
395.528	12.45
395.735	12.4
395.943	12.47
396.15	12.2
396.358	12.38
396.565	12.3
396.773	12.36
396.98	12.35
397.188	12.59
397.395	12.53
397.602	12.79
397.81	12.64
398.017	12.4
398.225	12.58
398.432	12.77
398.639	12.67
398.847	13.08
399.054	12.84
399.261	12.81
399.468	12.71
399.676	12.85
399.883	12.84
400.09	12.68
400.297	13.06
400.505	12.86
400.712	12.7
400.919	12.66
401.126	12.25
401.333	12.61
401.54	12.65
401.748	12.55
401.955	12.46
402.162	12.42
402.369	12.62
402.576	12.45
402.783	12.19
402.99	12.06
403.197	12.04
403.404	12.05
403.611	11.85
403.818	11.93
404.025	11.79
404.232	11.6
404.439	11.52
404.646	11.56
404.853	11.32
405.06	11.68
405.267	11.68
405.474	11.55
405.681	11.44
405.887	11.6
406.094	11.68
406.301	12.02
406.508	11.8
406.715	11.95
406.922	11.68
407.128	12.08
407.335	11.85
407.542	11.71
407.749	11.91
407.955	12.24
408.162	12.48
408.369	12.37
408.575	12.13
408.782	12.52
408.989	12.59
409.195	13.02
409.402	13
409.609	12.94
409.815	13.12
410.022	13.21
410.228	12.86
410.435	12.56
410.642	12.53
410.848	12.7
411.055	12.81
411.261	12.68
411.468	12.36
411.674	12.14
411.881	12.21
412.087	12.54
412.294	12.34
412.5	12.31
412.706	12.49
412.913	12.28
413.119	12.54
413.326	12.37
413.532	12.12
413.738	12.13
413.945	11.92
414.151	12.02
414.357	11.86
414.564	11.94
414.77	12.02
414.976	12.03
415.182	12.32
415.389	11.82
415.595	11.95
415.801	12.14
416.007	12.14
416.214	12.25
416.42	12.16
416.626	12.05
416.832	12.02
417.038	12.02
417.244	11.87
417.45	11.84
417.657	11.88
417.863	11.77
418.069	11.62
418.275	11.53
418.481	11.67
418.687	11.58
418.893	11.62
419.099	11.51
419.305	11.64
419.511	11.73
419.717	11.74
419.923	11.68
420.129	11.62
420.335	11.75
420.541	11.57
420.746	11.44
420.952	11.47
421.158	11.59
421.364	11.68
421.57	11.67
421.776	11.54
421.982	11.52
422.187	11.53
422.393	11.4
422.599	11.34
422.805	11.48
423.01	11.55
423.216	11.53
423.422	11.49
423.628	11.48
423.833	11.47
424.039	11.33
424.245	11.22
424.45	11.22
424.656	11.37
424.862	11.35
425.067	11.34
425.273	11.46
425.478	11.44
425.684	11.21
425.889	11.39
426.095	11.29
426.301	11.42
426.506	11.44
426.712	11.45
426.917	11.56
427.123	11.67
427.328	11.83
427.533	11.65
427.739	11.66
427.944	11.82
428.15	11.5
428.355	11.45
428.561	11.45
428.766	11.48
428.971	11.49
429.177	11.45
429.382	11.39
429.587	11.46
429.793	11.55
429.998	11.68
430.203	11.71
430.408	11.87
430.614	11.92
430.819	12.07
431.024	12.1
431.229	12.2
431.434	12.09
431.64	12.15
431.845	12.24
432.05	12.18
432.255	12.18
432.46	12.27
432.665	12.33
432.87	12.23
433.076	12.02
433.281	12.06
433.486	11.94
433.691	12.07
433.896	11.88
434.101	11.69
434.306	11.61
434.511	11.69
434.716	11.42
434.921	11.24
435.126	11.47
435.331	11.6
435.535	11.79
435.74	11.89
435.945	11.86
436.15	11.88
436.355	11.91
436.56	11.97
436.765	12.23
436.97	12.44
437.174	12.28
437.379	12.23
437.584	12.38
437.789	12.13
437.993	12.22
438.198	12.07
438.403	12.14
438.608	12.16
438.812	12.08
439.017	11.64
439.222	11.56
439.426	11.69
439.631	11.62
439.836	11.48
440.04	11.42
440.245	11.33
440.45	11.4
440.654	11.36
440.859	11.15
441.063	11.17
441.268	11.26
441.472	11.3
441.677	11.34
441.881	11.31
442.086	11.31
442.29	11.38
442.495	11.38
442.699	11.35
442.904	11.41
443.108	11.6
443.312	11.6
443.517	11.6
443.721	11.54
443.925	11.47
444.13	11.38
444.334	11.17
444.538	10.98
444.743	10.92
444.947	10.91
445.151	10.84
445.356	10.9
445.56	10.94
445.764	11.03
445.968	11.04
446.173	10.96
446.377	11.03
446.581	11.25
446.785	11.38
446.989	11.43
447.193	11.47
447.398	11.5
447.602	11.48
447.806	11.5
448.01	11.42
448.214	11.42
448.418	11.49
448.622	11.64
448.826	11.55
449.03	11.59
449.234	11.64
449.438	11.57
449.642	11.55
449.846	11.54
450.05	11.33
450.254	11.21
450.458	11.15
450.662	11.13
450.866	10.76
451.069	10.75
451.273	10.61
451.477	10.67
451.681	10.82
451.885	10.84
452.089	10.82
452.292	11.01
452.496	11.14
452.7	11.1
452.904	11.19
453.107	11.5
453.311	11.58
453.515	11.56
453.719	11.51
453.922	11.42
454.126	11.37
454.33	11.35
454.533	11.09
454.737	11.02
454.94	10.88
455.144	10.81
455.348	10.84
455.551	10.79
455.755	10.83
455.958	10.77
456.162	10.73
456.365	10.8
456.569	10.87
456.772	11.11
456.976	11.12
457.179	11.42
457.383	11.4
457.586	11.14
457.79	11.13
457.993	11.37
458.196	11.26
458.4	11.44
458.603	11.54
458.807	11.41
459.01	11.39
459.213	11.45
459.417	11.21
459.62	11.3
459.823	11.21
460.026	11.15
460.23	10.98
460.433	11.05
460.636	10.87
460.839	10.72
461.042	10.82
461.246	10.81
461.449	10.79
461.652	10.97
461.855	10.89
462.058	11.05
462.261	11.17
462.464	11.12
462.668	10.94
462.871	11
463.074	11.07
463.277	10.87
463.48	10.83
463.683	10.77
463.886	10.81
464.089	10.83
464.292	10.86
464.495	10.88
464.698	10.93
464.901	11.36
465.104	11.32
465.306	11.45
465.509	11.75
465.712	11.75
465.915	12.01
466.118	11.89
466.321	11.82
466.524	11.72
466.726	11.69
466.929	11.72
467.132	11.51
467.335	11.41
467.538	11.26
467.74	11.03
467.943	10.97
468.146	10.64
468.348	10.71
468.551	10.57
468.754	10.74
468.956	10.54
469.159	10.71
469.362	10.68
469.564	10.78
469.767	10.77
469.969	10.92
470.172	11.14
470.375	11.06
470.577	11
470.78	11.23
470.982	11.12
471.185	11.17
471.387	11.03
471.59	11.04
471.792	10.9
471.995	10.9
472.197	10.85
472.399	10.75
472.602	11.14
472.804	11.28
473.007	11.17
473.209	11.09
473.411	11.04
473.614	10.97
473.816	10.96
474.018	11.15
474.22	11.32
474.423	11.31
474.625	11.18
474.827	10.83
475.03	10.64
475.232	10.62
475.434	10.76
475.636	10.72
475.838	10.76
476.04	10.68
476.243	10.63
476.445	10.48
476.647	10.5
476.849	10.46
477.051	10.47
477.253	10.55
477.455	10.57
477.657	10.36
477.859	10.47
478.061	10.47
478.263	10.47
478.465	10.51
478.667	10.56
478.869	10.63
479.071	10.8
479.273	10.87
479.475	10.85
479.677	10.84
479.879	10.95
480.081	11.17
480.283	11.13
480.485	11.05
480.686	11.13
480.888	11.05
481.09	10.96
481.292	10.83
481.494	10.87
481.695	10.91
481.897	10.85
482.099	10.73
482.301	10.6
482.502	10.57
482.704	10.62
482.906	10.57
483.107	10.51
483.309	10.44
483.511	10.44
483.712	10.41
483.914	10.35
484.115	10.32
484.317	10.34
484.519	10.32
484.72	10.33
484.922	10.3
485.123	10.3
485.325	10.32
485.526	10.37
485.728	10.35
485.929	10.32
486.131	10.39
486.332	10.44
486.534	10.38
486.735	10.39
486.936	10.42
487.138	10.44
487.339	10.43
487.541	10.45
487.742	10.39
487.943	10.39
488.144	10.41
488.346	10.41
488.547	10.47
488.748	10.61
488.95	10.55
489.151	10.49
489.352	10.47
489.553	10.51
489.755	10.49
489.956	10.49
490.157	10.55
490.358	10.59
490.559	10.57
490.76	10.48
490.961	10.35
491.163	10.48
491.364	10.53
491.565	10.59
491.766	10.52
491.967	10.55
492.168	10.58
492.369	10.57
492.57	10.62
492.771	10.66
492.972	10.77
493.173	10.86
493.374	10.82
493.575	10.78
493.776	10.74
493.976	10.82
494.177	10.86
494.378	10.81
494.579	10.86
494.78	10.78
494.981	10.63
495.182	10.47
495.382	10.5
495.583	10.52
495.784	10.68
495.985	10.85
496.185	10.96
496.386	10.86
496.587	11.01
496.788	11.09
496.988	11.03
497.189	11.17
497.39	11.34
497.59	11.44
497.791	11.45
497.992	11.39
498.192	11.21
498.393	11.03
498.593	11.17
498.794	11.13
498.994	11.12
499.195	10.96
499.395	11.01
499.596	10.95
499.796	10.76
499.997	10.76
500.197	10.76
500.398	10.94
500.598	10.99
500.799	10.97
500.999	11.08
501.199	11.04
501.4	11.38
501.6	11.26
501.801	11.26
502.001	11.31
502.201	11.34
502.402	11.45
502.602	11.29
502.802	11.39
503.002	11.37
503.203	11.37
503.403	11.33
503.603	11.23
503.803	11.23
504.003	11.15
504.204	11.33
504.404	11.5
504.604	11.44
504.804	11.73
505.004	11.73
505.204	11.82
505.404	11.78
505.604	11.72
505.804	11.75
506.005	11.8
506.205	11.9
506.405	11.77
506.605	11.62
506.805	11.57
507.005	11.48
507.204	11.41
507.404	11.32
507.604	11.36
507.804	11.55
508.004	11.64
508.204	11.71
508.404	11.69
508.604	11.82
508.804	11.74
509.003	11.82
509.203	11.76
509.403	11.91
509.603	12.03
509.803	12.06
510.002	12.07
510.202	12.13
510.402	12.02
510.602	12.02
510.801	11.91
511.001	12.04
511.201	11.93
511.4	11.84
511.6	11.66
511.8	11.52
511.999	11.54
512.199	11.46
512.398	11.4
512.598	11.53
512.797	11.55
512.997	11.58
513.197	11.55
513.396	11.73
513.596	11.88
513.795	12.03
513.994	12.1
514.194	12.06
514.393	12.17
514.593	12.33
514.792	12.39
514.992	12.56
515.191	12.75
515.39	12.71
515.59	12.64
515.789	12.78
515.988	12.81
516.188	12.91
516.387	12.94
516.586	12.89
516.786	12.77
516.985	12.74
517.184	12.67
517.383	12.71
517.582	12.88
517.782	12.93
517.981	12.88
518.18	12.78
518.379	12.74
518.578	12.77
518.777	12.65
518.976	12.68
519.176	12.68
519.375	12.67
519.574	12.61
519.773	12.56
519.972	12.53
520.171	12.51
520.37	12.54
520.569	12.53
520.768	12.5
520.967	12.69
521.166	12.69
521.365	12.74
521.564	12.87
521.762	12.94
521.961	12.98
522.16	12.99
522.359	13.06
522.558	13.15
522.757	13.2
522.956	13.43
523.154	13.46
523.353	13.41
523.552	13.44
523.751	13.41
523.949	13.25
524.148	13.3
524.347	13.4
524.546	13.32
524.744	13.25
524.943	13.26
525.142	13.15
525.34	13.13
525.539	13.25
525.737	13.29
525.936	13.31
526.135	13.45
526.333	13.42
526.532	13.45
526.73	13.51
526.929	13.61
527.127	13.64
527.326	13.65
527.524	13.78
527.723	13.69
527.921	13.71
528.12	13.71
528.318	13.67
528.516	13.68
528.715	13.64
528.913	13.66
529.112	13.64
529.31	13.58
529.508	13.61
529.707	13.55
529.905	13.62
530.103	13.54
530.301	13.51
530.5	13.51
530.698	13.52
530.896	13.58
531.094	13.64
531.293	13.69
531.491	13.82
531.689	13.89
531.887	14.04
532.085	14.07
532.283	14.29
532.481	14.35
532.68	14.34
532.878	14.44
533.076	14.45
533.274	14.47
533.472	14.53
533.67	14.46
533.868	14.51
534.066	14.48
534.264	14.55
534.462	14.53
534.66	14.56
534.858	14.68
535.056	14.67
535.253	14.76
535.451	14.8
535.649	14.75
535.847	14.99
536.045	15.09
536.243	15.11
536.441	15.15
536.638	15.12
536.836	15.23
537.034	15.28
537.232	15.39
537.43	15.43
537.627	15.49
537.825	15.7
538.023	15.67
538.22	15.75
538.418	15.77
538.616	15.77
538.813	15.94
539.011	16.05
539.209	16.14
539.406	16.22
539.604	16.29
539.801	16.35
539.999	16.32
540.196	16.45
540.394	16.53
540.591	16.5
540.789	16.49
540.986	16.43
541.184	16.39
541.381	16.36
541.579	16.29
541.776	16.28
541.974	16.27
542.171	16.37
542.368	16.35
542.566	16.28
542.763	16.32
542.96	16.37
543.158	16.4
543.355	16.44
543.552	16.49
543.75	16.64
543.947	16.76
544.144	16.82
544.341	16.81
544.539	16.93
544.736	16.95
544.933	17
545.13	17.03
545.327	17.21
545.524	17.28
545.722	17.39
545.919	17.29
546.116	17.37
546.313	17.44
546.51	17.5
546.707	17.65
546.904	17.77
547.101	17.97
547.298	18.14
547.495	18.19
547.692	18.19
547.889	18.3
548.086	18.49
548.283	18.59
548.48	18.7
548.677	18.78
548.874	18.78
549.07	18.68
549.267	18.83
549.464	18.92
549.661	19.14
549.858	19.46
550.055	19.5
550.251	19.67
550.448	19.63
550.645	19.76
550.842	19.91
551.038	20.15
551.235	20.35
551.432	20.36
551.628	20.43
551.825	20.48
552.022	20.49
552.218	20.57
552.415	20.37
552.612	20.57
552.808	20.57
553.005	20.49
553.201	20.33
553.398	20.59
553.594	20.64
553.791	20.68
553.987	20.59
554.184	20.67
554.38	20.9
554.577	21.25
554.773	21.31
554.97	21.52
555.166	21.69
555.362	21.81
555.559	21.99
555.755	22.21
555.952	22.4
556.148	22.64
556.344	22.79
556.541	22.68
556.737	22.73
556.933	22.97
557.129	23.09
557.326	23.03
557.522	23.29
557.718	23.26
557.914	23.29
558.11	23.4
558.307	23.47
558.503	23.43
558.699	23.81
558.895	23.86
559.091	23.9
559.287	23.84
559.483	24.17
559.679	23.97
559.876	24.01
560.072	24.34
560.268	24.35
560.464	24.3
560.66	24.34
560.856	24.38
561.052	24.49
561.247	24.34
561.443	24.67
561.639	24.77
561.835	24.95
562.031	24.98
562.227	24.73
562.423	24.85
562.619	25.16
562.815	25.4
563.01	25.4
563.206	25.52
563.402	25.72
563.598	25.67
563.793	25.64
563.989	25.74
564.185	25.93
564.381	26.01
564.576	26.01
564.772	25.89
564.968	25.74
565.163	25.75
565.359	25.73
565.555	25.84
565.75	26.07
565.946	26.29
566.141	26.34
566.337	26.4
566.532	26.41
566.728	26.49
566.923	26.66
567.119	26.9
567.314	27.09
567.51	27.22
567.705	27.15
567.901	27.08
568.096	26.93
568.292	27.1
568.487	27.15
568.682	27.45
568.878	27.61
569.073	27.57
569.268	27.59
569.464	27.7
569.659	27.82
569.854	28.04
570.05	27.87
570.245	28.13
570.44	28.11
570.635	28.13
570.831	28.32
571.026	28.56
571.221	28.68
571.416	28.68
571.611	28.55
571.806	28.54
572.002	28.61
572.197	28.78
572.392	28.75
572.587	28.83
572.782	28.96
572.977	28.88
573.172	28.63
573.367	28.8
573.562	28.97
573.757	29.18
573.952	29.28
574.147	29.46
574.342	29.58
574.537	29.73
574.732	29.76
574.927	29.82
575.121	29.77
575.316	29.91
575.511	29.84
575.706	29.84
575.901	29.86
576.096	29.89
576.29	29.85
576.485	30.1
576.68	30.26
576.875	30.44
577.069	30.64
577.264	30.79
577.459	31.03
577.654	31.09
577.848	31.33
578.043	31.45
578.238	31.6
578.432	31.64
578.627	31.62
578.821	31.53
579.016	31.45
579.21	31.36
579.405	31.6
579.6	31.58
579.794	31.66
579.989	31.55
580.183	31.34
580.378	31.2
580.572	31.44
580.766	31.53
580.961	31.66
581.155	31.85
581.35	31.88
581.544	31.96
581.738	32.02
581.933	32.21
582.127	32.51
582.321	32.82
582.516	33
582.71	33.01
582.904	33.15
583.099	33.04
583.293	33.18
583.487	33.3
583.681	33.3
583.875	33.47
584.07	33.65
584.264	33.83
584.458	34.13
584.652	34.46
584.846	34.36
585.04	34.22
585.234	34.77
585.428	34.77
585.623	34.94
585.817	35.16
586.011	35.18
586.205	35.13
586.399	35.29
586.593	34.89
586.787	34.82
586.981	34.72
587.174	34.93
587.368	34.74
587.562	34.97
587.756	34.89
587.95	34.72
588.144	34.71
588.338	34.82
588.532	34.52
588.725	34.78
588.919	34.85
589.113	35.04
589.307	34.95
589.501	35.05
589.694	35.15
589.888	35.25
590.082	35.34
590.275	35.28
590.469	35.39
590.663	35.49
590.856	35.36
591.05	35.52
591.244	35.65
591.437	35.79
591.631	35.72
591.824	35.58
592.018	35.53
592.212	35.6
592.405	35.94
592.599	35.92
592.792	36.25
592.986	36.44
593.179	36.45
593.372	36.56
593.566	36.53
593.759	36.66
593.953	36.81
594.146	36.81
594.339	36.68
594.533	36.46
594.726	36.5
594.92	36.51
595.113	36.78
595.306	36.73
595.499	36.65
595.693	36.79
595.886	36.7
596.079	36.57
596.272	36.63
596.466	36.72
596.659	36.95
596.852	36.78
597.045	36.6
597.238	36.42
597.431	36.43
597.624	36.7
597.818	36.65
598.011	36.72
598.204	36.9
598.397	36.98
598.59	36.99
598.783	36.8
598.976	36.94
599.169	37.02
599.362	37.15
599.555	37.31
599.748	37.03
599.941	37.21
600.134	37.34
600.326	37.39
600.519	37.6
600.712	37.7
600.905	37.71
601.098	38.06
601.291	38.09
601.483	38.22
601.676	38.18
601.869	38.52
602.062	38.37
602.255	38.36
602.447	38.34
602.64	38.26
602.833	38.26
603.025	38.43
603.218	38.22
603.411	38.41
603.603	38.35
603.796	38.23
603.989	38.16
604.181	38.26
604.374	38.19
604.566	38.03
604.759	37.98
604.951	37.95
605.144	37.99
605.336	37.92
605.529	37.61
605.721	37.79
605.914	37.92
606.106	37.87
606.299	37.91
606.491	38.18
606.683	38.55
606.876	38.8
607.068	39.18
607.26	39.39
607.453	39.73
607.645	39.96
607.837	39.69
608.03	39.79
608.222	39.93
608.414	40.12
608.606	40.11
608.799	40.02
608.991	39.8
609.183	39.57
609.375	39.6
609.567	39.69
609.759	39.71
609.952	39.86
610.144	39.89
610.336	39.76
610.528	39.74
610.72	39.62
610.912	39.5
611.104	39.85
611.296	40.17
611.488	40.43
611.68	40.31
611.872	40.52
612.064	40.71
612.256	40.81
612.448	40.98
612.64	41.15
612.832	41.22
613.023	41.83
613.215	41.72
613.407	41.65
613.599	41.5
613.791	41.87
613.983	42.01
614.174	42.04
614.366	42.1
614.558	42.28
614.75	41.93
614.941	42.12
615.133	41.52
615.325	41.63
615.516	41.68
615.708	41.55
615.9	41.42
616.091	41.31
616.283	41.21
616.475	41.14
616.666	41.25
616.858	41.78
617.049	41.66
617.241	41.77
617.432	41.81
617.624	41.89
617.815	41.93
618.007	41.78
618.198	41.99
618.39	42.04
618.581	42.29
618.773	42.22
618.964	41.99
619.155	42.31
619.347	42.59
619.538	42.58
619.729	42.7
619.921	42.79
620.112	42.87
620.303	42.5
620.494	42.59
620.686	42.49
620.877	42.39
621.068	42.43
621.259	42.43
621.451	42.59
621.642	42.82
621.833	42.59
622.024	42.9
622.215	42.99
622.406	43.11
622.597	42.89
622.788	42.89
622.98	42.78
623.171	42.73
623.362	42.73
623.553	42.69
623.744	42.41
623.935	42.68
624.126	42.4
624.317	42.19
624.508	42.63
624.698	42.93
624.889	42.74
625.08	43.46
625.271	43.53
625.462	43.53
625.653	43.24
625.844	43.11
626.034	42.75
626.225	42.91
626.416	42.94
626.607	42.65
626.798	42.54
626.988	42.61
627.179	42.47
627.37	42.41
627.56	42.45
627.751	42.44
627.942	42.47
628.132	42.76
628.323	42.61
628.514	42.75
628.704	42.96
628.895	43.07
629.085	43.27
629.276	42.93
629.466	43.27
629.657	43.16
629.847	43.01
630.038	43.15
630.228	43.3
630.419	43.51
630.609	43.57
630.8	43.62
630.99	43.49
631.181	43.55
631.371	44.08
631.561	43.8
631.752	43.9
631.942	44.6
632.132	44.73
632.323	44.66
632.513	44.55
632.703	44.65
632.893	44.74
633.084	44.83
633.274	44.95
633.464	44.59
633.654	44.87
633.844	44.85
634.034	44.58
634.225	44.89
634.415	44.84
634.605	44.89
634.795	44.93
634.985	44.94
635.175	44.95
635.365	44.63
635.555	44.66
635.745	44.46
635.935	44.45
636.125	44.65
636.315	44.54
636.505	44.46
636.695	44.47
636.885	44.31
637.075	44.36
637.265	44.54
637.455	44.89
637.644	45.04
637.834	44.92
638.024	44.66
638.214	44.66
638.404	44.12
638.593	44.21
638.783	44.22
638.973	44.49
639.163	44.36
639.352	44.67
639.542	44.55
639.732	44.75
639.921	45.09
640.111	45.61
640.301	45.99
640.49	46.71
640.68	46.93
640.87	47.05
641.059	46.78
641.249	46.82
641.438	46.45
641.628	46.69
641.817	46.86
642.007	46.79
642.196	46.54
642.386	46.11
642.575	46.42
642.764	46.29
642.954	46.36
643.143	46.6
643.333	46.48
643.522	47.03
643.711	46.91
643.901	46.62
644.09	46.72
644.279	46.98
644.469	47.13
644.658	46.78
644.847	46.97
645.036	47.18
645.226	47.21
645.415	47.14
645.604	46.9
645.793	46.84
645.982	46.74
646.171	46.55
646.361	46.71
646.55	46.84
646.739	46.91
646.928	46.82
647.117	46.3
647.306	46.33
647.495	46.54
647.684	46.63
647.873	46.61
648.062	46.56
648.251	46.79
648.44	46.42
648.629	46.06
648.818	45.93
649.007	46.07
649.196	46.32
649.384	46.35
649.573	46.53
649.762	46.47
649.951	46.69
650.14	47.02
650.328	46.92
650.517	47.09
650.706	47.36
650.895	47.36
651.083	47.28
651.272	47.35
651.461	47.36
651.65	47.03
651.838	46.55
652.027	46.23
652.216	45.95
652.404	46.09
652.593	46.2
652.781	46.19
652.97	46.3
653.158	46.04
653.347	46.22
653.535	46.18
653.724	46.36
653.912	46.9
654.101	47.19
654.289	46.98
654.478	46.67
654.666	46.74
654.855	46.63
655.043	46.41
655.231	46.76
655.42	47.12
655.608	47.27
655.796	47.69
655.985	47.84
656.173	47.81
656.361	48.39
656.55	48.44
656.738	48.6
656.926	48.96
657.114	49.16
657.302	48.91
657.491	48.27
657.679	48.22
657.867	47.91
658.055	47.47
658.243	47.66
658.431	47.4
658.619	47.62
658.807	47.6
658.996	47.29
659.184	47.32
659.372	47.38
659.56	47.35
659.748	47.1
659.936	47.25
660.124	47.26
660.311	47.23
660.499	47.39
660.687	47.62
660.875	47.72
661.063	47.8
661.251	47.83
661.439	47.86
661.627	48.21
661.814	48.42
662.002	48.43
662.19	48.84
662.378	48.59
662.565	48.95
662.753	48.92
662.941	48.95
663.129	49.12
663.316	49.34
663.504	49.63
663.692	49.66
663.879	49.9
664.067	49.94
664.254	49.76
664.442	50.34
664.63	50.35
664.817	49.93
665.005	49.53
665.192	49.64
665.38	49.64
665.567	49.53
665.755	49.32
665.942	49.1
666.13	49.67
666.317	49.75
666.504	49.72
666.692	49.69
666.879	49.82
667.067	50.1
667.254	49.97
667.441	49.78
667.629	49.7
667.816	49.73
668.003	50.25
668.19	49.61
668.378	49.62
668.565	48.92
668.752	48.59
668.939	48.58
669.127	48.51
669.314	48.59
669.501	48.58
669.688	49.11
669.875	49.34
670.062	49.14
670.249	49.38
670.436	49.63
670.623	50.24
670.81	50.48
670.997	50.47
671.184	50.15
671.371	50.43
671.558	50.84
671.745	50.73
671.932	50.91
672.119	50.92
672.306	50.56
672.493	50.13
672.68	49.82
672.867	49.87
673.054	50.01
673.24	50.36
673.427	50.13
673.614	50.31
673.801	50.04
673.988	49.52
674.174	49.47
674.361	49.47
674.548	49.83
674.734	50.78
674.921	50.87
675.108	50.87
675.294	50.95
675.481	50.83
675.668	50.79
675.854	50.91
676.041	51.27
676.227	51.3
676.414	51.96
676.601	52.47
676.787	51.39
676.974	51.3
677.16	51.42
677.347	51.28
677.533	51.34
677.719	50.83
677.906	50.97
678.092	51.21
678.279	51.15
678.465	50.73
678.651	50.24
678.838	50.54
679.024	50.56
679.21	50.59
679.397	50.84
679.583	50.27
679.769	50.31
679.955	50.15
680.142	49.86
680.328	50
680.514	49.63
680.7	49.61
680.886	49.78
681.073	49.84
681.259	49.95
681.445	49.65
681.631	49.88
681.817	49.72
682.003	49.5
682.189	49.41
682.375	49.16
682.561	49.59
682.747	49.97
682.933	50.03
683.119	49.95
683.305	50.03
683.491	50.39
683.677	51.03
683.863	51.14
684.049	51.96
684.235	52.02
684.42	52.24
684.606	52.08
684.792	51.74
684.978	51.87
685.164	51.88
685.349	51.73
685.535	51.65
685.721	51.4
685.907	51.25
686.092	50.52
686.278	50.65
686.464	51.15
686.649	51.53
686.835	51.21
687.021	50.4
687.206	50.37
687.392	50.44
687.577	50.68
687.763	50.72
687.948	51.18
688.134	50.98
688.319	51.26
688.505	50.88
688.69	50.63
688.876	50.95
689.061	51.17
689.247	51.37
689.432	51.52
689.618	51.05
689.803	51.28
689.988	51.71
690.174	52.24
690.359	52.4
690.544	52.13
690.73	52.55
690.915	52.79
691.1	53.23
691.285	52.82
691.471	53.06
691.656	53.39
691.841	53.67
692.026	53.22
692.211	52.71
692.396	52.39
692.582	52.97
692.767	53.16
692.952	52.81
693.137	52.89
693.322	53.05
693.507	52.76
693.692	52.73
693.877	52.52
694.062	52.67
694.247	52.92
694.432	53.17
694.617	52.87
694.802	52.35
694.987	52.56
695.172	52.32
695.357	52.26
695.541	52.68
695.726	52.47
695.911	53.14
696.096	52.74
696.281	52.89
696.466	52.38
696.65	52.12
696.835	52
697.02	52.3
697.204	52.25
697.389	52.19
697.574	51.81
697.759	51.49
697.943	50.27
698.128	50.41
698.312	50.31
698.497	49.8
698.682	49.69
698.866	49.6
699.051	49.41
699.235	49.79
699.42	49.63
699.604	49.49
699.789	49.62
699.973	50.01
700.158	49.74
700.342	50.05
700.527	50.46
700.711	50.93
700.895	51.17
701.08	51.26
701.264	50.93
701.448	51.33
701.633	51.3
701.817	51.89
702.001	52.22
702.186	53.04
702.37	52.71
702.554	53.46
702.738	53.8
702.923	54.29
703.107	54.38
703.291	54.52
703.475	54.49
703.659	55.44
703.843	55.32
704.027	56.34
704.212	56.38
704.396	57.11
704.58	57.16
704.764	56.7
704.948	56.96
705.132	57.16
705.316	57.17
705.5	57.3
705.684	57.53
705.868	57.06
706.052	56.25
706.235	55.8
706.419	55.52
706.603	55.32
706.787	55.85
706.971	55.07
707.155	54.83
707.339	54.76
707.522	54.78
707.706	54.37
707.89	54.84
708.074	54.53
708.257	54.43
708.441	54.51
708.625	55.15
708.808	55.12
708.992	55.32
709.176	54.98
709.359	54.82
709.543	54.8
709.727	53.9
709.91	54.31
710.094	54.26
710.277	54.39
710.461	54.32
710.644	53.69
710.828	53.24
711.011	53.79
711.195	54.76
711.378	55.57
711.562	55.83
711.745	56.37
711.928	56.02
712.112	56.22
712.295	56.39
712.478	55.87
712.662	56.1
712.845	56.64
713.028	56.05
713.212	55.58
713.395	54.55
713.578	54.65
713.761	54.53
713.945	55.03
714.128	55.06
714.311	55.15
714.494	55.39
714.677	55.75
714.86	55.54
715.043	55.45
715.227	55.32
715.41	56.32
715.593	55.85
715.776	55.79
715.959	54.96
716.142	55.48
716.325	54.69
716.508	54.76
716.691	53.6
716.874	53.54
717.057	53.46
717.239	53.43
717.422	53.25
717.605	53.17
717.788	53.25
717.971	54
718.154	53.38
718.337	54.4
718.519	54.57
718.702	55.26
718.885	55.06
719.068	55.61
719.25	55.88
719.433	55.67
719.616	56.45
719.798	56.15
719.981	55.55
720.164	55.61
720.346	55.66
720.529	56.07
720.712	56.36
720.894	57.08
721.077	57.22
721.259	57.24
721.442	57.35
721.624	58.15
721.807	59.09
721.989	59.65
722.172	59.76
722.354	59.57
722.537	60.07
722.719	60.35
722.901	60.25
723.084	59.33
723.266	59.14
723.448	59.3
723.631	58.27
723.813	58.12
723.995	57.84
724.178	56.9
724.36	56.96
724.542	56.31
724.724	56.44
724.907	55.89
725.089	57.01
725.271	57.62
725.453	57.04
725.635	57.27
725.817	56.69
725.999	57.46
726.181	58.28
726.364	57.94
726.546	57.67
726.728	56.92
726.91	57.04
727.092	56.75
727.274	56.06
727.456	56.74
727.638	56.18
727.819	55.68
728.001	54.95
728.183	54.16
728.365	53.76
728.547	53.65
728.729	54.38
728.911	55.09
729.093	54.31
729.274	54.45
729.456	53.64
729.638	53.88
729.82	54.96
730.001	54.77
730.183	55.18
730.365	55.51
730.546	55.54
730.728	55.37
730.91	55.7
731.091	56.37
731.273	56.34
731.455	56.99
731.636	56.81
731.818	56.56
731.999	56.7
732.181	57.38
732.362	57.77
732.544	57.77
732.725	58.11
732.907	57.43
733.088	57.5
733.27	57.47
733.451	57.69
733.633	57.75
733.814	58.23
733.995	58.2
734.177	58.47
734.358	58.41
734.539	58.9
734.721	58.31
734.902	58
735.083	58.05
735.264	58.4
735.446	58.44
735.627	59.14
735.808	58.9
735.989	58.95
736.17	59.1
736.351	59.05
736.533	58.79
736.714	59.01
736.895	59.84
737.076	59.5
737.257	60.11
737.438	59.57
737.619	59.26
737.8	59.21
737.981	59.76
738.162	59.67
738.343	60.19
738.524	60.95
738.705	60.92
738.886	60.21
739.067	60.67
739.247	60.49
739.428	61.09
739.609	61.32
739.79	61.65
739.971	60.9
740.151	60.12
740.332	58.96
740.513	57.9
740.694	59.14
740.874	59.58
741.055	60.13
741.236	60.02
741.417	59.94
741.597	59.57
741.778	59.42
741.958	59.74
742.139	60.78
742.32	61.69
742.5	62.45
742.681	61.76
742.861	61.64
743.042	61.75
743.222	60.82
743.403	61
743.583	62.02
743.764	61.61
743.944	63.36
744.124	63.63
744.305	63.61
744.485	63.79
744.666	63.91
744.846	64.94
745.026	64.86
745.207	65.88
745.387	67.05
745.567	66.93
745.747	68.33
745.928	67.62
746.108	67.67
746.288	67.88
746.468	67.65
746.648	67.88
746.829	66.8
747.009	67.04
747.189	66.61
747.369	63.91
747.549	63.01
747.729	61.98
747.909	61.62
748.089	60.86
748.269	60.68
748.449	60.89
748.629	60.65
748.809	61.07
748.989	60.88
749.169	62.11
749.349	64.46
749.529	65.28
749.709	65.47
749.889	65.54
750.068	66.96
750.248	66.55
750.428	66.3
750.608	65.55
750.788	65.53
750.967	64.89
751.147	64.26
751.327	63.59
751.507	63.31
751.686	63.12
751.866	63.16
752.046	62.01
752.225	62.55
752.405	62.87
752.585	64.55
752.764	64.31
752.944	65
753.123	64.93
753.303	64.03
753.482	64.93
753.662	65.49
753.841	65.36
754.021	65.56
754.2	65.77
754.38	66.53
754.559	66.24
754.739	66.11
754.918	65.63
755.097	65.38
755.277	65.98
755.456	66.11
755.635	65.64
755.815	66.79
755.994	66.55
756.173	67.11
756.352	65.82
756.532	64.76
756.711	65.36
756.89	66.33
757.069	65.87
757.248	65.36
757.427	63.9
757.607	64.35
757.786	63.63
757.965	63.54
758.144	62.86
758.323	62.75
758.502	61.9
758.681	60.59
758.86	59.84
759.039	60.66
759.218	60.47
759.397	60.14
759.576	58.78
759.755	58.99
759.934	58.48
760.113	59.49
760.291	59.53
760.47	60.49
760.649	60.3
760.828	59.44
761.007	58.89
761.186	59.37
761.364	59.65
761.543	60.34
761.722	58.1
761.901	57.77
762.079	56.31
762.258	55.88
762.437	55.32
762.615	56.25
762.794	56.9
762.972	56.64
763.151	55.94
763.33	55.51
763.508	54.9
763.687	55.22
763.865	55.51
764.044	54.92
764.222	54.87
764.401	54.13
764.579	54.18
764.758	54.19
764.936	54.93
765.114	55.26
765.293	56.03
765.471	56.9
765.65	57.8
765.828	58.4
766.006	59.58
766.184	60.66
766.363	62.25
766.541	62.08
766.719	62.26
766.898	61.45
767.076	61.5
767.254	62.24
767.432	61.8
767.61	62.04
767.788	62.74
767.967	63
768.145	63.11
768.323	62.94
768.501	63.2
768.679	62.77
768.857	64.14
769.035	64.96
769.213	64.29
769.391	64.93
769.569	64.73
769.747	65.61
769.925	65.54
770.103	65.1
770.281	64.53
770.459	65.02
770.636	66.36
770.814	66.45
770.992	67.58
771.17	67.35
771.348	67.56
771.525	68.35
771.703	66.99
771.881	68.41
772.059	68.8
772.236	69.66
772.414	71.42
772.592	71.48
772.769	72.36
772.947	71.45
773.125	73.2
773.302	74.32
773.48	75.7
773.657	76.84
773.835	75.83
774.013	77.89
774.19	78.04
774.368	77.17
774.545	76.98
774.723	75.57
774.9	75
775.077	74.3
775.255	72.88
775.432	72.56
775.61	72.34
775.787	73.75
775.964	73.15
776.142	73.9
776.319	75.09
776.496	75.64
776.674	75.32
776.851	76.03
777.028	76.35
777.205	78.54
777.382	76.96
777.56	76.6
777.737	78.32
777.914	76.94
778.091	76.86
778.268	75.4
778.445	73.88
778.622	74.5
778.8	76.18
778.977	76.04
779.154	81.72
779.331	81.73
779.508	81.37
779.685	80.39
779.862	80.06
780.038	80.16
780.215	80.06
780.392	80.19
780.569	81.61
780.746	79.04
780.923	79.8
781.1	72.87
781.277	72.82
781.453	72.9
781.63	72.02
781.807	73.94
781.984	72.9
782.16	72.57
782.337	72.99
782.514	71.82
782.691	74.68
782.867	73.52
783.044	73.86
783.221	73.03
783.397	72.22
783.574	71.9
783.75	71.09
783.927	72.2
784.103	71.85
784.28	72.19
784.456	71.48
784.633	70.64
784.809	71.9
784.986	70.55
785.162	71.69
785.339	72.83
785.515	72.48
785.692	71.15
785.868	70.02
786.044	70.5
786.221	70.02
786.397	70.14
786.573	68.29
786.749	67.54
786.926	67.22
787.102	67.63
787.278	65.82
787.454	64.13
787.631	65.34
787.807	64.61
787.983	64.62
788.159	66.69
788.335	66.99
788.511	67.91
788.687	68.51
788.863	68.97
789.039	68.56
789.216	68.82
789.392	69.5
789.568	67.7
789.744	70.93
789.919	70.64
790.095	68.8
790.271	68.64
790.447	68.44
790.623	68.05
790.799	68.23
790.975	68.18
791.151	70.16
791.327	70.84
791.502	71.61
791.678	69.48
791.854	69.45
792.03	69
792.205	69.1
792.381	67.44
792.557	67.26
792.733	67.81
792.908	69.19
793.084	69.12
793.259	69.4
793.435	70.79
793.611	71.51
793.786	70.69
793.962	70.36
794.137	70.3
794.313	72.68
794.488	72.43
794.664	73.75
794.839	73.44
795.015	70.74
795.19	68.64
795.366	66.64
795.541	66.36
795.716	66.16
795.892	66.88
796.067	67.62
796.242	67.84
796.418	66.91
796.593	64.14
796.768	62.83
796.944	64.02
797.119	66.36
797.294	68.37
797.469	68.73
797.644	69.84
797.82	70.03
797.995	69.82
798.17	70.08
798.345	71.03
798.52	73.62
798.695	73.42
798.87	74.15
799.045	74.36
799.22	75.03
799.395	73.97
799.57	75.9
799.745	73.63
799.92	71.84
800.095	73.52
800.27	72.75
800.445	71.43
800.62	71.68
800.795	70.96
800.97	69.77
801.145	67.72
801.319	67.34
801.494	65.64
801.669	68.78
801.844	71.5
802.018	68.7
802.193	69.88
802.368	70.6
802.543	73.02
802.717	73.42
802.892	72.66
803.067	75.08
803.241	75.62
803.416	73.8
803.59	72.5
803.765	71.11
803.94	72.04
804.114	71.99
804.289	72.67
804.463	71.17
804.638	70.62
804.812	71.48
804.986	69.84
805.161	69.74
805.335	71.02
805.51	69.97
805.684	68.63
805.858	66.85
806.033	66.74
806.207	64.7
806.381	65.27
806.556	66.03
806.73	66.55
806.904	67.85
807.078	66.9
807.253	68.36
807.427	68.01
807.601	69.07
807.775	71.88
807.949	70.22
808.123	72.17
808.298	71.45
808.472	71.82
808.646	72.99
808.82	72.76
808.994	73.45
809.168	71.36
809.342	75.05
809.516	77.24
809.69	78.19
809.864	80.94
810.038	81.22
810.212	80.83
810.385	82.05
810.559	82.24
810.733	80.83
810.907	80.95
811.081	82.97
811.255	81.23
811.428	81.62
811.602	79.96
811.776	78.94
811.95	74.89
812.123	75.69
812.297	73.62
812.471	71.15
812.644	70.96
812.818	69.8
812.992	70.4
813.165	69.21
813.339	69.83
813.512	69.01
813.686	68.59
813.86	70.81
814.033	72.33
814.207	70.86
814.38	70.13
814.554	71.71
814.727	72.92
814.9	70.46
815.074	73.13
815.247	72.87
815.421	69.87
815.594	71.64
815.767	71.29
815.941	69.94
816.114	73.73
816.287	76.72
816.46	75.02
816.634	75.19
816.807	75.43
816.98	73.54
817.153	72.19
817.327	73.37
817.5	73.01
817.673	73.09
817.846	75.07
818.019	71.17
818.192	70.44
818.365	70.34
818.538	70.45
818.711	69.53
818.884	72.75
819.057	72.9
819.23	73.3
819.403	72.18
819.576	72.16
819.749	70.07
819.922	68.15
820.095	65.11
820.268	65.95
820.441	63.47
820.614	63.77
820.786	61.33
820.959	58.3
821.132	57.05
821.305	55.4
821.477	53.51
821.65	51.92
821.823	52.09
821.996	52.13
822.168	50.69
822.341	50.62
822.514	49.45
822.686	48.49
822.859	48.49
823.031	47.79
823.204	47.45
823.376	47.72
823.549	47.78
823.722	47.87
823.894	48.3
824.067	48.46
824.239	48.38
824.411	48.64
824.584	48.88
824.756	48.56
824.929	49.3
825.101	49.24
825.273	49.01
825.446	48.51
825.618	48.43
825.79	47.3
825.963	47.18
826.135	47.08
826.307	46.99
826.479	46.97
826.652	47.67
826.824	47.89
826.996	48.37
827.168	49.19
827.34	50
827.512	49.34
827.684	49.66
827.856	49.57
828.029	50.48
828.201	50.27
828.373	50.1
828.545	50.68
828.717	50.79
828.889	51.03
829.061	51.25
829.232	52.16
829.404	52.56
829.576	53.51
829.748	54.42
829.92	54.19
830.092	56.14
830.264	58.1
830.436	56.73
830.607	56.64
830.779	56.91
830.951	56.21
831.123	55.62
831.294	58.32
831.466	59.67
831.638	60
831.809	60.87
831.981	59.98
832.153	59.24
832.324	58.79
832.496	58.79
832.667	59.81
832.839	62.2
833.011	62.6
833.182	60.52
833.354	59.36
833.525	58.9
833.697	58.83
833.868	58.08
834.039	57.41
834.211	58.3
834.382	57.79
834.554	55.59
834.725	54.57
834.896	54.11
835.068	53.19
835.239	52.7
835.41	52.92
835.581	53.44
835.753	52.45
835.924	52.34
836.095	51.92
836.266	52.9
836.438	53.12
836.609	52.3
836.78	52.63
836.951	54.16
837.122	53.39
837.293	55.05
837.464	56.26
837.635	58.47
837.806	58.51
837.977	58.73
838.148	59.9
838.319	63.07
838.49	64.91
838.661	62.83
838.832	64.54
839.003	64.84
839.174	63.79
839.345	60.94
839.516	63.38
839.687	67.15
839.857	71.8
840.028	69.8
840.199	71.81
840.37	69.88
840.54	75.06
840.711	73.36
840.882	73.35
841.053	72.7
841.223	68.7
841.394	69.37
841.564	67.39
841.735	67.89
841.906	68.72
842.076	67.83
842.247	67.47
842.417	67.04
842.588	65
842.758	67.05
842.929	65.78
843.099	73.45
843.27	69.86
843.44	71.1
843.611	66.19
843.781	63.75
843.951	59.6
844.122	61.22
844.292	57.97
844.462	59.15
844.633	59.15
844.803	65.66
844.973	60.57
845.144	61.09
845.314	59.35
845.484	65.93
845.654	72.95
845.824	82.61
845.995	82.11
846.165	87.92
846.335	90.86
846.505	101.38
846.675	99.77
846.845	101.48
847.015	104.12
847.185	114.51
847.355	116.64
847.525	103.2
847.695	98.12
847.865	101.13
848.035	94.11
848.205	95.5
848.375	94.38
848.545	85.53
848.715	90.97
848.884	96.57
849.054	91.59
849.224	87.21
849.394	97.15
849.564	97
849.733	97.34
849.903	100.25
850.073	96.95
850.243	91.95
850.412	98.37
850.582	94.87
850.752	94.3
850.921	98.19
851.091	97.85
851.26	99.99
851.43	97.74
851.599	95.32
851.769	91.81
851.939	98.97
852.108	102.53
852.278	106.68
852.447	104.26
852.616	106.85
852.786	100.28
852.955	101.66
853.125	98.49
853.294	97.67
853.463	97.01
853.633	102.84
853.802	100.85
853.971	108.68
854.141	103.11
854.31	102.98
854.479	104.57
854.648	105.36
854.818	104.61
854.987	104.82
855.156	113.32
855.325	123.62
855.494	131.61
855.663	131.83
855.832	125.64
856.001	133.87
856.171	144.79
856.34	136.09
856.509	134.14
856.678	136.2
856.847	127.25
857.016	108.58
857.185	107.64
857.353	107.79
857.522	108.61
857.691	104.15
857.86	104.06
858.029	111.35
858.198	116.48
858.367	118.54
858.535	125.31
858.704	131.72
858.873	153.08
859.042	138.13
859.21	135.15
859.379	132.84
859.548	138.23
859.717	130.59
859.885	122.74
860.054	109.57
860.222	101.2
860.391	93.13
860.56	90.94
860.728	81.31
860.897	84.4
861.065	79.03
861.234	73.82
861.402	64.52
861.571	69.97
861.739	65.84
861.908	79.91
862.076	89.84
862.244	103.54
862.413	103.62
862.581	112.87
862.749	111.74
862.918	130.98
863.086	121.5
863.254	117.13
863.423	107.81
863.591	102.63
863.759	97.74
863.927	95.75
864.096	96.99
864.264	96.87
864.432	90.14
864.6	91.09
864.768	85.56
864.936	86.07
865.104	92.13
865.272	100.24
865.44	106.2
865.608	101.68
865.776	101.56
865.944	89.09
866.112	94.44
866.28	112.28
866.448	115.74
866.616	111.79
866.784	125.57
866.952	121.54
867.12	122.84
867.288	119.63
867.455	118.22
867.623	121.04
867.791	138.09
867.959	136.43
868.127	130.22
868.294	144.71
868.462	130.61
868.63	106.74
868.797	114.95
868.965	101.68
869.133	103.55
869.3	114.57
869.468	107.55
869.636	100.57
869.803	94.63
869.971	101.33
870.138	92.92
870.306	94.79
870.473	103.18
870.641	105.76
870.808	111.97
870.975	108.67
871.143	102.4
871.31	98.73
871.478	92
871.645	94.05
871.812	86.83
871.98	89.9
872.147	88.36
872.314	84.64
872.482	72.74
872.649	66.13
872.816	70.45
872.983	71.35
873.15	75.85
873.318	82.47
873.485	90.16
873.652	94.66
873.819	97.78
873.986	93.37
874.153	95.75
874.32	94.86
874.487	97.77
874.654	91.84
874.821	95.54
874.988	99.01
875.155	96.6
875.322	91.59
875.489	90.12
875.656	94.6
875.823	108.77
875.99	101.14
876.157	109.29
876.324	118.27
876.49	121.53
876.657	115.92
876.824	106.33
876.991	101.2
877.157	108.91
877.324	110.42
877.491	99.8
877.658	93.05
877.824	88.65
877.991	98.31
878.157	93.12
878.324	94.26
878.491	97.17
878.657	100.59
878.824	97.37
878.99	83.55
879.157	86.62
879.323	87.36
879.49	78.85
879.656	80.79
879.823	77.28
879.989	78.63
880.156	80.44
880.322	74.14
880.488	77.65
880.655	80.73
880.821	84.95
880.987	80.97
881.154	76.41
881.32	88.22
881.486	85.42
881.652	79.98
881.819	74.63
881.985	69.73
882.151	65.62
882.317	61.12
882.483	57.69
882.649	54.83
882.816	49.99
882.982	49.19
883.148	46.54
883.314	47.62
883.48	47.88
883.646	47.09
883.812	46.58
883.978	46.65
884.144	45.13
884.31	45.68
884.476	44.53
884.642	45.67
884.807	48.03
884.973	47.6
885.139	47.67
885.305	49.43
885.471	49.45
885.637	50.03
885.802	49.74
885.968	52.22
886.134	52.21
886.3	55.26
886.465	58.35
886.631	58.1
886.797	61.59
886.962	62.95
887.128	64.11
887.293	65.15
887.459	68
887.625	74.77
887.79	70.75
887.956	75.33
888.121	75.51
888.287	71.08
888.452	69.55
888.618	68.43
888.783	65.6
