Data from LC_187_Reflection_3.txt Node
Date: Tue Nov 17 13:20:45 EST 2015
User: robert
Spectrometer: USB4E03001
Autoset integration time: false
Trigger mode: 4
Integration Time (sec): 1.000000E-1
Scans to average: 15
Electric dark correction enabled: true
Nonlinearity correction enabled: false
Boxcar width: 5
Stray light correction enabled: false
XAxis mode: Wavelengths
Stop averaging: false
Number of Pixels in Spectrum: 3648
>>>>>Begin Spectral Data<<<<<
177.566	65.51
177.785	120.38
178.005	82.84
178.225	65.05
178.445	-42.79
178.665	-3.15
178.885	-55.24
179.105	-39.96
179.324	173.81
179.544	548.51
179.764	116.63
179.984	103.23
180.204	135.35
180.423	121.9
180.643	219.83
180.863	-999.23
181.083	-2003.83
181.302	397.03
181.522	253.48
181.742	628.04
181.961	5687.25
182.181	-145.61
182.401	36.56
182.621	28.84
182.84	29.24
183.06	107.31
183.279	-76.58
183.499	1909.24
183.719	190.73
183.938	69.95
184.158	-40.53
184.377	-2.89
184.597	-50.08
184.816	149.8
185.036	160.24
185.256	240.53
185.475	168.34
185.695	149.02
185.914	101.82
186.134	119.01
186.353	58.89
186.572	22.3
186.792	23.31
187.011	45.99
187.231	-47.78
187.45	286.34
187.67	156.65
187.889	222.99
188.108	160.75
188.328	188.76
188.547	210.31
188.766	-873.15
188.986	857.8
189.205	330.56
189.424	379.38
189.644	307.7
189.863	195.11
190.082	153.96
190.302	191.93
190.521	307.38
190.74	5438.31
190.959	780.96
191.178	215.11
191.398	170.75
191.617	376.27
191.836	240.66
192.055	168.96
192.274	-361.52
192.494	-241.47
192.713	-408.89
192.932	-105.61
193.151	158.61
193.37	-985.71
193.589	-50200
193.808	2398.88
194.027	-324.96
194.246	-168.67
194.465	1214.64
194.685	139.87
194.904	83.39
195.123	5104.17
195.342	0.29
195.561	49.17
195.78	65.31
195.999	124.97
196.218	93.9
196.436	92.36
196.655	80.31
196.874	53.44
197.093	68.9
197.312	52.11
197.531	46.87
197.75	54.74
197.969	70.15
198.188	72.68
198.407	55.61
198.625	55.14
198.844	74.35
199.063	56.07
199.282	73.18
199.501	42.24
199.719	109.45
199.938	103.45
200.157	171
200.376	429.31
200.594	292.27
200.813	173.19
201.032	231.17
201.251	236.28
201.469	3035.6
201.688	1114.57
201.907	-5256.36
202.125	1244.9
202.344	1314.69
202.563	881.47
202.781	509.82
203	-334.22
203.218	-42.17
203.437	-64.59
203.656	50.73
203.874	61.58
204.093	69.66
204.311	97.64
204.53	-64.47
204.748	-13.34
204.967	646.36
205.185	225.18
205.404	99.84
205.622	66.59
205.841	70.43
206.059	97.4
206.278	82.35
206.496	61.46
206.715	62.58
206.933	68.18
207.151	57.21
207.37	55.65
207.588	28.44
207.806	12.91
208.025	33.97
208.243	13.02
208.461	-9.43
208.68	-10.74
208.898	73.05
209.116	367.35
209.335	-550.3
209.553	617.29
209.771	-236.17
209.989	14.53
210.208	50.74
210.426	46.68
210.644	98.35
210.862	97.48
211.081	67.96
211.299	53.57
211.517	78.8
211.735	85.18
211.953	98.01
212.171	120.86
212.39	267.33
212.608	264.72
212.826	477.14
213.044	446.81
213.262	396.89
213.48	-14226.87
213.698	-763.32
213.916	506.7
214.134	-965.4
214.352	-219.52
214.57	-210.07
214.788	2749.88
215.006	882.49
215.224	529.84
215.442	385.02
215.66	481.8
215.878	442.49
216.096	226.64
216.314	215.03
216.532	146.95
216.75	113.4
216.968	137.43
217.185	135.14
217.403	132.68
217.621	125.65
217.839	129.85
218.057	148.84
218.275	140.54
218.492	127.71
218.71	127.34
218.928	127.02
219.146	152.29
219.363	118.35
219.581	93.21
219.799	122.79
220.017	136.26
220.234	136.67
220.452	95.38
220.67	80.27
220.887	110.91
221.105	128.37
221.323	110.92
221.54	112.24
221.758	104.34
221.976	99.27
222.193	80.41
222.411	75.58
222.629	76.27
222.846	69.75
223.064	63.45
223.281	57.24
223.499	43.29
223.716	78.89
223.934	83.87
224.151	88.97
224.369	90.96
224.586	102.37
224.804	109.88
225.021	101.32
225.239	99.32
225.456	87.51
225.674	72.5
225.891	75.82
226.108	50.84
226.326	39.88
226.543	35.85
226.76	48.65
226.978	40.83
227.195	21.19
227.413	27.78
227.63	28.24
227.847	30.66
228.064	32.18
228.282	24.54
228.499	29.01
228.716	27.7
228.934	29.73
229.151	26.54
229.368	24.3
229.585	28.71
229.802	28.36
230.02	29.3
230.237	29.03
230.454	28.06
230.671	29.87
230.888	27.59
231.105	26.92
231.323	24.25
231.54	23.75
231.757	25.93
231.974	26.91
232.191	24.55
232.408	25.66
232.625	29.54
232.842	33.54
233.059	35.7
233.276	39.95
233.493	39.26
233.71	33.65
233.927	33.92
234.144	35.09
234.361	32.45
234.578	34.44
234.795	28.4
235.012	28.95
235.229	27.33
235.446	26.32
235.663	29.53
235.879	32.81
236.096	40.19
236.313	41.75
236.53	41.84
236.747	41.35
236.964	41.4
237.181	49.26
237.397	46.21
237.614	47.75
237.831	51.35
238.048	48.24
238.264	47.47
238.481	41.61
238.698	34.76
238.915	34.35
239.131	38.5
239.348	38.17
239.565	30.46
239.781	30.58
239.998	28.54
240.215	23.89
240.431	19.22
240.648	15.15
240.865	17.79
241.081	19.89
241.298	18.36
241.514	15.49
241.731	14.62
241.947	15.02
242.164	13.88
242.38	12.81
242.597	14.25
242.814	15.73
243.03	17.84
243.246	16.97
243.463	16.56
243.679	16.45
243.896	15.5
244.112	14.35
244.329	15.9
244.545	16.35
244.762	17.2
244.978	14.75
245.194	17.4
245.411	16.49
245.627	18.92
245.843	17.31
246.06	16.12
246.276	14.88
246.492	15.18
246.709	15.09
246.925	16.06
247.141	16.67
247.357	17.11
247.574	14.99
247.79	15.15
248.006	14.39
248.222	15.81
248.439	16.46
248.655	17.77
248.871	18.42
249.087	17.93
249.303	17.84
249.519	17.39
249.736	17.76
249.952	19.65
250.168	19.66
250.384	20.97
250.6	18.68
250.816	17.26
251.032	15.66
251.248	13.29
251.464	13.25
251.68	10.82
251.896	11.17
252.112	7.65
252.328	8.63
252.544	10.33
252.76	10.1
252.976	9.25
253.192	10.73
253.408	10.86
253.624	12.09
253.84	11.88
254.056	12.76
254.272	10.12
254.487	13.7
254.703	12.3
254.919	9.86
255.135	11.02
255.351	13.4
255.567	13.79
255.782	11.64
255.998	12.36
256.214	14.14
256.43	13.6
256.646	16.78
256.861	14.53
257.077	15.89
257.293	17.51
257.508	16.36
257.724	16.2
257.94	14.4
258.155	14.6
258.371	14.07
258.587	12.24
258.802	12.98
259.018	10.96
259.234	11.16
259.449	11.48
259.665	10.1
259.88	9.14
260.096	9.77
260.312	9.73
260.527	9.8
260.743	9.74
260.958	9.66
261.174	9.08
261.389	9.63
261.605	9.71
261.82	9.36
262.036	9.14
262.251	9.92
262.466	7.32
262.682	8.16
262.897	7.66
263.113	6.07
263.328	6.73
263.543	8.63
263.759	9.86
263.974	10.75
264.189	8.96
264.405	10.79
264.62	12.05
264.835	14.36
265.051	12.91
265.266	14.77
265.481	17.25
265.696	18.01
265.912	17.03
266.127	15.15
266.342	14.33
266.557	12.99
266.773	12.85
266.988	11.52
267.203	11.06
267.418	12.74
267.633	12.6
267.848	10.19
268.064	8.05
268.279	7.54
268.494	7.62
268.709	7.4
268.924	10.26
269.139	9.33
269.354	9.76
269.569	10.33
269.784	8.52
269.999	8.38
270.214	9.2
270.429	11.18
270.644	10.47
270.859	9.92
271.074	10.63
271.289	9.22
271.504	8.7
271.719	8.43
271.934	8.4
272.149	8.7
272.363	9.82
272.578	9.55
272.793	8.95
273.008	9.08
273.223	10.13
273.438	9.07
273.653	9.26
273.867	10.79
274.082	10.63
274.297	10.02
274.512	10.94
274.726	9.59
274.941	10.46
275.156	11.77
275.371	11.38
275.585	12.38
275.8	13.54
276.015	13.05
276.229	11.75
276.444	10.63
276.659	12.31
276.873	11.49
277.088	11.24
277.302	12.09
277.517	9.96
277.732	8.92
277.946	7.73
278.161	8.37
278.375	8.23
278.59	10.19
278.804	10.95
279.019	11.25
279.233	12.12
279.448	12.26
279.662	13.03
279.877	14.65
280.091	15.82
280.306	16.04
280.52	15.76
280.735	17.35
280.949	15.78
281.163	15.56
281.378	15.65
281.592	14.73
281.806	14.53
282.021	13.15
282.235	13.5
282.449	13.45
282.664	12.78
282.878	13.58
283.092	12.8
283.307	12.71
283.521	13.53
283.735	11.29
283.949	10.51
284.164	10.54
284.378	10.21
284.592	9.02
284.806	8.75
285.02	8.61
285.234	6.9
285.449	6.15
285.663	6.96
285.877	6.79
286.091	7.3
286.305	8.07
286.519	7.63
286.733	8.27
286.947	8.76
287.161	9.17
287.375	9.07
287.589	9.24
287.803	9.75
288.017	9.04
288.231	9.13
288.445	10.52
288.659	10.22
288.873	9.78
289.087	8.97
289.301	9.31
289.515	9.66
289.729	10.98
289.943	11.4
290.157	11.41
290.371	11.1
290.584	11.83
290.798	11.36
291.012	12.14
291.226	13.19
291.44	13.74
291.654	13.86
291.867	12.79
292.081	11.61
292.295	12.04
292.509	12.25
292.722	13.17
292.936	12.52
293.15	12.37
293.364	10.73
293.577	11.48
293.791	11.11
294.005	10.92
294.218	12.34
294.432	12.81
294.645	13.01
294.859	12.24
295.073	11.38
295.286	11.15
295.5	11.12
295.713	12.49
295.927	11.23
296.14	11.86
296.354	11.04
296.568	11.19
296.781	11.18
296.994	11.61
297.208	12.47
297.421	12.54
297.635	12.69
297.848	12.21
298.062	12.4
298.275	12.79
298.489	11.96
298.702	12.88
298.915	12.65
299.129	13.19
299.342	12.77
299.555	12.26
299.769	12.9
299.982	13.63
300.195	13.61
300.409	12.75
300.622	13.17
300.835	14.06
301.048	13.09
301.262	12.83
301.475	12.31
301.688	12
301.901	12
302.115	12.37
302.328	11.7
302.541	10.96
302.754	11.25
302.967	10.81
303.18	10.64
303.393	11.09
303.607	11.76
303.82	11.47
304.033	11.2
304.246	10.96
304.459	11.16
304.672	11.18
304.885	12.22
305.098	12.26
305.311	14.21
305.524	13.57
305.737	14.28
305.95	14.95
306.163	14.89
306.376	14.53
306.589	15.69
306.802	14.52
307.015	14.07
307.228	14.7
307.44	14.61
307.653	12.59
307.866	13.25
308.079	12.28
308.292	10.94
308.505	10.41
308.718	11.47
308.93	11.15
309.143	12.37
309.356	12.26
309.569	12.29
309.781	12.28
309.994	11.55
310.207	11.03
310.42	10.89
310.632	10.69
310.845	11.96
311.058	11.14
311.27	10.15
311.483	9.28
311.696	9.51
311.908	9.54
312.121	9.04
312.333	9.88
312.546	10.3
312.759	10.27
312.971	10.52
313.184	9.47
313.396	9.54
313.609	10.72
313.821	11.44
314.034	12.39
314.246	12.44
314.459	13.48
314.671	13.91
314.884	14.48
315.096	15.27
315.309	15.31
315.521	15.72
315.733	15.94
315.946	15.65
316.158	16.03
316.371	14.46
316.583	14.63
316.795	14.41
317.008	15.15
317.22	14.24
317.432	14.85
317.644	14.16
317.857	14.87
318.069	15.7
318.281	15.47
318.494	14.26
318.706	14.48
318.918	13.98
319.13	13.58
319.342	13.56
319.555	13.78
319.767	13.02
319.979	13.63
320.191	13.67
320.403	13.45
320.615	14.63
320.827	13.49
321.039	14.92
321.252	14.92
321.464	15.24
321.676	14.93
321.888	15.29
322.1	15.48
322.312	16.34
322.524	16.55
322.736	16.09
322.948	15.88
323.16	16.71
323.372	14.84
323.584	14.89
323.796	15.4
324.007	15.44
324.219	15.53
324.431	15.87
324.643	15.48
324.855	15.48
325.067	15.94
325.279	15.72
325.491	16.9
325.702	18.41
325.914	18.53
326.126	18.19
326.338	18.42
326.55	17.4
326.761	17.58
326.973	17.59
327.185	17.27
327.396	17.34
327.608	17.48
327.82	17.33
328.032	16.76
328.243	15.97
328.455	15.92
328.666	16.07
328.878	17.24
329.09	16.8
329.301	16.47
329.513	15.95
329.725	16.78
329.936	17.41
330.148	18.03
330.359	18.48
330.571	19.29
330.782	18.87
330.994	17.74
331.205	16.91
331.417	17.48
331.628	17.77
331.84	19.49
332.051	18.6
332.262	17.53
332.474	17.1
332.685	17.51
332.897	17.93
333.108	19.41
333.319	19.49
333.531	20
333.742	18.92
333.953	18.64
334.165	17.54
334.376	18.47
334.587	18.82
334.799	18.39
335.01	18.35
335.221	17.42
335.432	16.32
335.644	17.19
335.855	18.01
336.066	18.75
336.277	19.71
336.488	20.03
336.7	19.63
336.911	19.21
337.122	18.61
337.333	18.25
337.544	19.06
337.755	19.02
337.966	18.84
338.177	18.49
338.388	18.12
338.599	17.58
338.811	17.63
339.022	16.95
339.233	16.75
339.444	17.05
339.655	17.62
339.866	18.35
340.076	18.94
340.287	19.5
340.498	19.18
340.709	19.7
340.92	19.19
341.131	18.39
341.342	18.74
341.553	19.13
341.764	19.52
341.975	19.21
342.185	19.05
342.396	18.3
342.607	18.02
342.818	18.81
343.029	18.56
343.239	18.98
343.45	19.91
343.661	19.83
343.872	19.75
344.082	20.38
344.293	20.48
344.504	19.44
344.714	19.86
344.925	19.3
345.136	18.1
345.346	18.37
345.557	18.35
345.768	18.02
345.978	18.17
346.189	19.13
346.399	18.68
346.61	18.54
346.821	18.69
347.031	18.82
347.242	18.83
347.452	19.37
347.663	18.71
347.873	19.42
348.084	18.9
348.294	19.67
348.504	19.09
348.715	19.26
348.925	19.18
349.136	18.94
349.346	19.09
349.557	19.35
349.767	19.01
349.977	18.94
350.188	18.96
350.398	19.72
350.608	18.69
350.819	17.47
351.029	17.74
351.239	18.03
351.449	18.19
351.66	17.82
351.87	18.04
352.08	18.62
352.29	20.06
352.501	19.28
352.711	20.03
352.921	20.46
353.131	22.19
353.341	21.63
353.552	20.55
353.762	20.91
353.972	20.47
354.182	21.6
354.392	21.27
354.602	20.38
354.812	20.67
355.022	20.4
355.232	19.35
355.442	19.07
355.652	19.01
355.862	19.95
356.072	20.16
356.282	20.71
356.492	19.34
356.702	19.75
356.912	19.92
357.122	19.7
357.332	19.06
357.542	19.5
357.752	18.95
357.962	19.42
358.171	19.27
358.381	18.96
358.591	18.3
358.801	18.32
359.011	18.09
359.221	18.24
359.43	18.56
359.64	18.1
359.85	17.83
360.06	17.4
360.269	16.88
360.479	16.44
360.689	16.49
360.899	16.9
361.108	16.65
361.318	16.39
361.528	16
361.737	15.95
361.947	16.26
362.156	16.42
362.366	16.76
362.576	17.03
362.785	17.31
362.995	17.17
363.204	16.93
363.414	16.9
363.623	17
363.833	17.11
364.042	16.66
364.252	16.05
364.461	16.16
364.671	15.77
364.88	15.52
365.09	15.49
365.299	15.34
365.509	15.27
365.718	15.79
365.927	15.98
366.137	16.2
366.346	16.85
366.555	17.48
366.765	17.22
366.974	17.17
367.183	17.26
367.393	17
367.602	17.28
367.811	17.3
368.021	16.67
368.23	16.59
368.439	16.48
368.648	16.22
368.857	16
369.067	16.05
369.276	16.18
369.485	16.07
369.694	16.04
369.903	16.37
370.112	16.54
370.321	16.87
370.531	16
370.74	15.71
370.949	15.27
371.158	15.46
371.367	15.6
371.576	15.9
371.785	15.76
371.994	15.6
372.203	15.08
372.412	15.22
372.621	15.03
372.83	15.55
373.039	15.66
373.248	15.77
373.457	15.91
373.666	15.77
373.874	15.48
374.083	15.2
374.292	15.06
374.501	15.34
374.71	15.23
374.919	15.02
375.128	14.67
375.336	14.64
375.545	14.51
375.754	14.17
375.963	14.02
376.171	14.16
376.38	15.09
376.589	15.48
376.798	15.24
377.006	15.22
377.215	15.58
377.424	16.01
377.632	15.64
377.841	15.68
378.05	15.83
378.258	16
378.467	15.85
378.675	15.18
378.884	15.02
379.093	14.98
379.301	15.25
379.51	15.16
379.718	15.14
379.927	15.58
380.135	15.59
380.344	15.43
380.552	15.69
380.761	15.54
380.969	15.63
381.177	15.67
381.386	15.2
381.594	14.89
381.803	14.81
382.011	14.69
382.219	14.73
382.428	14.83
382.636	14.62
382.845	14.37
383.053	14.47
383.261	14.14
383.469	14.48
383.678	15.07
383.886	14.63
384.094	14.72
384.302	14.72
384.511	14.35
384.719	14.59
384.927	14.73
385.135	14.92
385.343	14.98
385.552	15.28
385.76	15.16
385.968	14.59
386.176	14.8
386.384	14.9
386.592	14.71
386.8	15.01
387.008	14.38
387.216	14.34
387.424	13.94
387.633	13.85
387.841	13.48
388.049	13.5
388.257	13.82
388.465	13.93
388.672	13.61
388.88	13.67
389.088	13.56
389.296	13.88
389.504	13.82
389.712	14.02
389.92	13.87
390.128	14.01
390.336	13.88
390.544	13.72
390.751	13.44
390.959	13.45
391.167	13.4
391.375	13.09
391.583	12.86
391.79	13.01
391.998	12.9
392.206	13.19
392.414	13
392.621	12.99
392.829	13.19
393.037	13.24
393.244	13.23
393.452	13.52
393.66	13.42
393.867	13.59
394.075	13.55
394.283	13.54
394.49	13.29
394.698	13.31
394.905	12.98
395.113	12.69
395.32	12.65
395.528	12.86
395.735	12.45
395.943	12.66
396.15	12.25
396.358	12.09
396.565	12.01
396.773	12.07
396.98	12.2
397.188	12.51
397.395	12.61
397.602	12.94
397.81	12.77
398.017	12.63
398.225	12.79
398.432	13.05
398.639	13.15
398.847	13.28
399.054	13.09
399.261	13.01
399.468	12.84
399.676	12.85
399.883	12.45
400.09	12.12
400.297	12.19
400.505	11.82
400.712	11.94
400.919	12.04
401.126	11.9
401.333	12.19
401.54	12.17
401.748	11.9
401.955	11.73
402.162	12.12
402.369	12.37
402.576	12.54
402.783	12.41
402.99	12.1
403.197	12.04
403.404	11.88
403.611	11.65
403.818	11.65
404.025	11.51
404.232	11.3
404.439	11.08
404.646	11.28
404.853	11.06
405.06	11.31
405.267	11.5
405.474	11.13
405.681	11.18
405.887	11.25
406.094	11.23
406.301	11.55
406.508	11.6
406.715	11.61
406.922	11.4
407.128	11.53
407.335	11.33
407.542	11.25
407.749	11.63
407.955	11.72
408.162	11.76
408.369	11.83
408.575	12.12
408.782	12.14
408.989	12.34
409.195	12.37
409.402	12.29
409.609	12.17
409.815	11.91
410.022	11.78
410.228	11.61
410.435	11.4
410.642	11.36
410.848	10.94
411.055	11.12
411.261	10.67
411.468	10.79
411.674	10.87
411.881	11.12
412.087	11.51
412.294	11.4
412.5	11.5
412.706	11.65
412.913	11.47
413.119	11.86
413.326	11.92
413.532	11.9
413.738	11.81
413.945	11.56
414.151	11.49
414.357	11.25
414.564	11.12
414.77	11.09
414.976	11.21
415.182	11.4
415.389	11.24
415.595	11.33
415.801	11.38
416.007	11.22
416.214	11.57
416.42	11.54
416.626	11.63
416.832	11.72
417.038	11.75
417.244	11.48
417.45	11.42
417.657	11.13
417.863	11.11
418.069	10.99
418.275	10.93
418.481	10.75
418.687	10.53
418.893	10.62
419.099	10.68
419.305	10.88
419.511	11.04
419.717	10.97
419.923	10.99
420.129	10.82
420.335	10.91
420.541	10.83
420.746	10.82
420.952	10.9
421.158	10.89
421.364	10.79
421.57	10.59
421.776	10.44
421.982	10.54
422.187	10.47
422.393	10.57
422.599	10.49
422.805	10.45
423.01	10.53
423.216	10.63
423.422	10.6
423.628	10.66
423.833	10.66
424.039	10.66
424.245	10.44
424.45	10.48
424.656	10.39
424.862	10.39
425.067	10.37
425.273	10.27
425.478	10.19
425.684	9.97
425.889	9.89
426.095	9.92
426.301	9.94
426.506	10.04
426.712	10.06
426.917	10.17
427.123	10.22
427.328	10.25
427.533	10.33
427.739	10.24
427.944	10.32
428.15	10.24
428.355	10.19
428.561	10.31
428.766	10.18
428.971	10.21
429.177	10.05
429.382	10.02
429.587	10.08
429.793	10.01
429.998	10.01
430.203	10.23
430.408	10.28
430.614	10.09
430.819	9.98
431.024	10.16
431.229	10.18
431.434	10.16
431.64	10.37
431.845	10.6
432.05	10.43
432.255	10.46
432.46	10.37
432.665	10.46
432.87	10.61
433.076	10.54
433.281	10.52
433.486	10.48
433.691	10.52
433.896	10.18
434.101	9.94
434.306	10.05
434.511	10.23
434.716	10.09
434.921	10.04
435.126	10.06
435.331	9.97
435.535	10.04
435.74	10.06
435.945	10.02
436.15	10.1
436.355	10.19
436.56	10.21
436.765	10.1
436.97	10.22
437.174	10.07
437.379	9.92
437.584	10.12
437.789	10
437.993	9.99
438.198	10.11
438.403	10.22
438.608	10.18
438.812	10.05
439.017	10
439.222	9.92
439.426	10.05
439.631	9.98
439.836	9.91
440.04	9.85
440.245	9.85
440.45	9.69
440.654	9.62
440.859	9.53
441.063	9.59
441.268	9.54
441.472	9.6
441.677	9.74
441.881	9.94
442.086	10.04
442.29	10.05
442.495	10.07
442.699	10.15
442.904	10.24
443.108	10.24
443.312	10.28
443.517	10.27
443.721	10.36
443.925	10.13
444.13	9.84
444.334	9.76
444.538	9.69
444.743	9.54
444.947	9.51
445.151	9.45
445.356	9.66
445.56	9.62
445.764	9.74
445.968	9.64
446.173	9.61
446.377	9.65
446.581	9.77
446.785	9.81
446.989	9.81
447.193	9.84
447.398	9.9
447.602	9.88
447.806	9.85
448.01	9.74
448.214	9.72
448.418	9.72
448.622	9.75
448.826	9.67
449.03	9.73
449.234	9.81
449.438	9.75
449.642	9.74
449.846	9.59
450.05	9.53
450.254	9.4
450.458	9.35
450.662	9.31
450.866	9.38
451.069	9.41
451.273	9.18
451.477	9.19
451.681	9.38
451.885	9.44
452.089	9.42
452.292	9.45
452.496	9.51
452.7	9.6
452.904	9.72
453.107	9.83
453.311	9.74
453.515	9.87
453.719	9.99
453.922	9.77
454.126	9.54
454.33	9.64
454.533	9.63
454.737	9.76
454.94	9.72
455.144	9.67
455.348	9.53
455.551	9.46
455.755	9.65
455.958	9.37
456.162	9.42
456.365	9.54
456.569	9.38
456.772	9.46
456.976	9.53
457.179	9.64
457.383	9.51
457.586	9.54
457.79	9.57
457.993	9.51
458.196	9.65
458.4	9.69
458.603	9.9
458.807	9.87
459.01	9.97
459.213	9.89
459.417	9.86
459.62	9.84
459.823	9.63
460.026	9.52
460.23	9.45
460.433	9.41
460.636	9.31
460.839	9.03
461.042	9.13
461.246	8.96
461.449	8.97
461.652	8.9
461.855	9
462.058	9.15
462.261	9.15
462.464	9.14
462.668	9.03
462.871	8.98
463.074	9.1
463.277	9
463.48	9.19
463.683	9.12
463.886	9.19
464.089	9.26
464.292	9.23
464.495	9.33
464.698	9.38
464.901	9.59
465.104	9.71
465.306	9.83
465.509	9.9
465.712	9.73
465.915	9.85
466.118	9.75
466.321	9.59
466.524	9.59
466.726	9.55
466.929	9.5
467.132	9.52
467.335	9.52
467.538	9.41
467.74	9.29
467.943	9.31
468.146	9.14
468.348	9.14
468.551	9.19
468.754	9.34
468.956	9.35
469.159	9.3
469.362	9.21
469.564	9.14
469.767	9.3
469.969	9.31
470.172	9.5
470.375	9.52
470.577	9.4
470.78	9.44
470.982	9.23
471.185	9.25
471.387	9.24
471.59	9.39
471.792	9.43
471.995	9.29
472.197	9.47
472.399	9.38
472.602	9.56
472.804	9.77
473.007	9.68
473.209	9.81
473.411	9.89
473.614	9.92
473.816	9.72
474.018	9.77
474.22	9.81
474.423	9.7
474.625	9.69
474.827	9.49
475.03	9.41
475.232	9.37
475.434	9.24
475.636	9.2
475.838	9.2
476.04	9.11
476.243	9.11
476.445	8.94
476.647	8.93
476.849	8.78
477.051	8.81
477.253	8.81
477.455	8.88
477.657	8.86
477.859	8.85
478.061	8.95
478.263	9
478.465	9.02
478.667	9.19
478.869	9.24
479.071	9.4
479.273	9.3
479.475	9.33
479.677	9.39
479.879	9.37
480.081	9.43
480.283	9.37
480.485	9.41
480.686	9.4
480.888	9.39
481.09	9.29
481.292	9.22
481.494	9.25
481.695	9.29
481.897	9.15
482.099	9.25
482.301	9.22
482.502	9.2
482.704	9.25
482.906	9.27
483.107	9.16
483.309	9.15
483.511	9.07
483.712	9.05
483.914	8.95
484.115	8.96
484.317	8.96
484.519	8.9
484.72	8.86
484.922	8.79
485.123	8.73
485.325	8.75
485.526	8.74
485.728	8.76
485.929	8.75
486.131	8.83
486.332	8.88
486.534	8.84
486.735	8.88
486.936	8.91
487.138	8.97
487.339	9.01
487.541	9.02
487.742	9.07
487.943	9.04
488.144	9.04
488.346	9
488.547	8.96
488.748	8.96
488.95	9
489.151	9.04
489.352	9
489.553	8.96
489.755	8.98
489.956	8.9
490.157	8.94
490.358	8.98
490.559	9
490.76	9.02
490.961	8.98
491.163	9.02
491.364	8.94
491.565	8.98
491.766	8.97
491.967	9
492.168	9
492.369	9.04
492.57	9.05
492.771	9.07
492.972	9.06
493.173	9.17
493.374	9.18
493.575	9.23
493.776	9.2
493.976	9.36
494.177	9.35
494.378	9.42
494.579	9.53
494.78	9.78
494.981	9.75
495.182	9.74
495.382	9.64
495.583	9.48
495.784	9.57
495.985	9.68
496.185	9.57
496.386	9.47
496.587	9.39
496.788	9.4
496.988	9.15
497.189	9.24
497.39	9.32
497.59	9.45
497.791	9.63
497.992	9.56
498.192	9.44
498.393	9.39
498.593	9.56
498.794	9.53
498.994	9.59
499.195	9.54
499.395	9.54
499.596	9.54
499.796	9.5
499.997	9.43
500.197	9.53
500.398	9.69
500.598	9.85
500.799	9.86
500.999	9.88
501.199	9.68
501.4	10.03
501.6	9.98
501.801	10.07
502.001	10.07
502.201	10.24
502.402	10.15
502.602	10.01
502.802	10
503.002	9.95
503.203	10.08
503.403	10.15
503.603	9.95
503.803	10.05
504.003	9.84
504.204	9.95
504.404	10.05
504.604	10.19
504.804	10.44
505.004	10.37
505.204	10.21
505.404	10.33
505.604	10.24
505.804	10.33
506.005	10.2
506.205	10.31
506.405	10.18
506.605	10.03
506.805	10.14
507.005	9.98
507.204	9.93
507.404	10.07
507.604	10.03
507.804	10.16
508.004	10.2
508.204	10.37
508.404	10.5
508.604	10.59
508.804	10.59
509.003	10.61
509.203	10.69
509.403	10.87
509.603	11.02
509.803	11.1
510.002	11.13
510.202	11.2
510.402	11.18
510.602	11.1
510.801	11.11
511.001	11.11
511.201	11.02
511.4	10.93
511.6	10.85
511.8	10.63
511.999	10.64
512.199	10.69
512.398	10.7
512.598	10.78
512.797	10.89
512.997	10.93
513.197	11.03
513.396	11.2
513.596	11.39
513.795	11.49
513.994	11.76
514.194	11.85
514.393	11.96
514.593	11.83
514.792	11.91
514.992	12.06
515.191	12.22
515.39	12.24
515.59	12.16
515.789	12.26
515.988	12.37
516.188	12.37
516.387	12.34
516.586	12.27
516.786	12.44
516.985	12.39
517.184	12.4
517.383	12.42
517.582	12.35
517.782	12.32
517.981	12.28
518.18	12.28
518.379	12.35
518.578	12.41
518.777	12.46
518.976	12.5
519.176	12.55
519.375	12.53
519.574	12.58
519.773	12.59
519.972	12.61
520.171	12.63
520.37	12.64
520.569	12.57
520.768	12.63
520.967	12.62
521.166	12.7
521.365	12.78
521.564	12.82
521.762	12.77
521.961	12.92
522.16	13.02
522.359	13.15
522.558	13.08
522.757	13.28
522.956	13.27
523.154	13.38
523.353	13.4
523.552	13.37
523.751	13.39
523.949	13.42
524.148	13.39
524.347	13.38
524.546	13.31
524.744	13.41
524.943	13.46
525.142	13.54
525.34	13.55
525.539	13.53
525.737	13.6
525.936	13.73
526.135	13.91
526.333	13.91
526.532	14.02
526.73	14.13
526.929	14.23
527.127	14.16
527.326	14.12
527.524	14.18
527.723	14.23
527.921	14.25
528.12	14.22
528.318	14.12
528.516	14.1
528.715	14.07
528.913	14.06
529.112	14.01
529.31	14.04
529.508	14.08
529.707	14.09
529.905	14.11
530.103	14.1
530.301	14.13
530.5	14.15
530.698	14.28
530.896	14.4
531.094	14.46
531.293	14.58
531.491	14.7
531.689	14.81
531.887	14.84
532.085	14.87
532.283	15.09
532.481	15.12
532.68	15.17
532.878	15.19
533.076	15.14
533.274	15.15
533.472	15.21
533.67	15.19
533.868	15.19
534.066	15.22
534.264	15.24
534.462	15.12
534.66	15.13
534.858	15.23
535.056	15.29
535.253	15.48
535.451	15.56
535.649	15.61
535.847	15.76
536.045	15.84
536.243	15.86
536.441	15.94
536.638	16.04
536.836	16.18
537.034	16.17
537.232	16.21
537.43	16.13
537.627	16.17
537.825	16.19
538.023	16.23
538.22	16.26
538.418	16.41
538.616	16.46
538.813	16.64
539.011	16.74
539.209	16.85
539.406	16.94
539.604	17.1
539.801	17.26
539.999	17.31
540.196	17.33
540.394	17.41
540.591	17.42
540.789	17.48
540.986	17.44
541.184	17.34
541.381	17.39
541.579	17.35
541.776	17.41
541.974	17.35
542.171	17.35
542.368	17.4
542.566	17.45
542.763	17.44
542.96	17.42
543.158	17.4
543.355	17.55
543.552	17.55
543.75	17.71
543.947	17.74
544.144	17.87
544.341	18.06
544.539	18.13
544.736	18.04
544.933	18.13
545.13	18.32
545.327	18.56
545.524	18.63
545.722	18.68
545.919	18.63
546.116	18.68
546.313	18.69
546.51	18.63
546.707	18.86
546.904	19.02
547.101	19.22
547.298	19.27
547.495	19.25
547.692	19.27
547.889	19.41
548.086	19.67
548.283	19.89
548.48	20.14
548.677	20.3
548.874	20.11
549.07	19.99
549.267	20.15
549.464	20.22
549.661	20.35
549.858	20.44
550.055	20.46
550.251	20.53
550.448	20.48
550.645	20.42
550.842	20.64
551.038	20.97
551.235	21.34
551.432	21.19
551.628	21.21
551.825	21.38
552.022	21.55
552.218	21.73
552.415	21.84
552.612	22.04
552.808	22.12
553.005	22.1
553.201	21.99
553.398	22.04
553.594	22.12
553.791	22.28
553.987	22.1
554.184	22.08
554.38	22.25
554.577	22.31
554.773	22.31
554.97	22.59
555.166	22.68
555.362	22.8
555.559	22.9
555.755	23.17
555.952	23.27
556.148	23.54
556.344	23.9
556.541	23.9
556.737	23.85
556.933	23.97
557.129	23.96
557.326	23.98
557.522	24.28
557.718	24.53
557.914	24.58
558.11	24.65
558.307	24.83
558.503	24.73
558.699	24.79
558.895	25
559.091	25.26
559.287	25.35
559.483	25.59
559.679	25.6
559.876	25.56
560.072	25.86
560.268	26.21
560.464	26.29
560.66	26.43
560.856	26.58
561.052	26.78
561.247	26.61
561.443	26.8
561.639	26.91
561.835	26.9
562.031	26.88
562.227	26.84
562.423	26.68
562.619	26.83
562.815	26.96
563.01	26.97
563.206	27.02
563.402	27.27
563.598	27.11
563.793	27.3
563.989	27.63
564.185	27.97
564.381	28.08
564.576	28.15
564.772	28.07
564.968	28.07
565.163	28.24
565.359	28.18
565.555	28.19
565.75	28.46
565.946	28.46
566.141	28.3
566.337	28.25
566.532	28.44
566.728	28.56
566.923	28.68
567.119	28.83
567.314	28.91
567.51	29.08
567.705	29.09
567.901	29.02
568.096	29.09
568.292	29.34
568.487	29.52
568.682	29.54
568.878	29.53
569.073	29.71
569.268	29.67
569.464	29.79
569.659	29.79
569.854	29.94
570.05	30
570.245	30.04
570.44	30.11
570.635	30.25
570.831	30.18
571.026	30.34
571.221	30.3
571.416	30.47
571.611	30.45
571.806	30.62
572.002	30.75
572.197	30.84
572.392	30.77
572.587	30.82
572.782	30.81
572.977	30.88
573.172	30.9
573.367	31.07
573.562	31.1
573.757	31.26
573.952	31.19
574.147	31.34
574.342	31.28
574.537	31.52
574.732	31.52
574.927	31.64
575.121	31.63
575.316	31.83
575.511	31.91
575.706	31.97
575.901	32.03
576.096	32.14
576.29	32.12
576.485	32.23
576.68	32.29
576.875	32.36
577.069	32.42
577.264	32.75
577.459	32.65
577.654	32.65
577.848	32.77
578.043	32.82
578.238	32.89
578.432	33.01
578.627	33.19
578.821	33.35
579.016	33.51
579.21	33.69
579.405	33.65
579.6	33.76
579.794	33.8
579.989	33.81
580.183	33.53
580.378	33.46
580.572	33.2
580.766	33.24
580.961	33.21
581.155	33.37
581.35	33.33
581.544	33.33
581.738	33.57
581.933	33.85
582.127	33.84
582.321	34.2
582.516	34.26
582.71	34.69
582.904	34.77
583.099	34.92
583.293	34.85
583.487	34.77
583.681	35.11
583.875	35.13
584.07	34.89
584.264	35.13
584.458	35.36
584.652	35.42
584.846	35.18
585.04	35.32
585.234	35.42
585.428	35.54
585.623	35.72
585.817	35.37
586.011	35.4
586.205	35.69
586.399	35.91
586.593	35.7
586.787	36
586.981	35.93
587.174	36.28
587.368	36.16
587.562	36.16
587.756	36
587.95	36.28
588.144	36.21
588.338	36.1
588.532	35.83
588.725	35.84
588.919	35.78
589.113	36.05
589.307	35.66
589.501	35.8
589.694	35.92
589.888	35.95
590.082	35.94
590.275	36.07
590.469	36.18
590.663	36.23
590.856	36.24
591.05	36.38
591.244	36.55
591.437	36.71
591.631	36.57
591.824	36.61
592.018	36.91
592.212	37.07
592.405	37.02
592.599	36.93
592.792	37.26
592.986	37.52
593.179	37.69
593.372	37.45
593.566	37.6
593.759	37.83
593.953	37.76
594.146	37.7
594.339	37.56
594.533	37.66
594.726	38.07
594.92	38.03
595.113	38.07
595.306	37.76
595.499	38.05
595.693	38.02
595.886	37.97
596.079	37.86
596.272	37.81
596.466	37.87
596.659	37.96
596.852	37.71
597.045	37.6
597.238	37.38
597.431	37.51
597.624	37.45
597.818	37.3
598.011	37.3
598.204	37.42
598.397	37.36
598.59	37.14
598.783	37.13
598.976	37.18
599.169	37.41
599.362	37.73
599.555	37.88
599.748	37.9
599.941	37.95
600.134	38.03
600.326	38.24
600.519	38.44
600.712	38.58
600.905	38.52
601.098	38.79
601.291	38.39
601.483	38.22
601.676	37.96
601.869	38
602.062	38.05
602.255	38.15
602.447	37.96
602.64	37.87
602.833	37.85
603.025	37.89
603.218	37.85
603.411	38
603.603	38.06
603.796	38.24
603.989	38.13
604.181	38.18
604.374	38.07
604.566	38.12
604.759	38.3
604.951	38.43
605.144	38.32
605.336	38.15
605.529	37.96
605.721	38.04
605.914	38.03
606.106	38.05
606.299	38.21
606.491	38.23
606.683	38.35
606.876	38.47
607.068	38.66
607.26	38.99
607.453	39
607.645	39.18
607.837	39.27
608.03	39.23
608.222	39.4
608.414	39.24
608.606	39.4
608.799	39.19
608.991	39.06
609.183	38.94
609.375	39.04
609.567	39.3
609.759	39.4
609.952	39.34
610.144	39.44
610.336	39.35
610.528	39.35
610.72	39.38
610.912	39.52
611.104	39.6
611.296	39.48
611.488	39.48
611.68	39.42
611.872	39.47
612.064	39.29
612.256	39.33
612.448	39.4
612.64	39.83
612.832	39.83
613.023	39.9
613.215	39.96
613.407	40.34
613.599	40.47
613.791	40.6
613.983	40.86
614.174	41.24
614.366	41.08
614.558	41.13
614.75	40.72
614.941	40.47
615.133	40.36
615.325	40.27
615.516	40.27
615.708	39.72
615.9	39.79
616.091	39.56
616.283	39.47
616.475	39.69
616.666	39.62
616.858	39.92
617.049	40.06
617.241	39.88
617.432	39.8
617.624	39.87
617.815	40.17
618.007	39.97
618.198	40.2
618.39	40.35
618.581	40.44
618.773	40.78
618.964	40.6
619.155	40.7
619.347	40.98
619.538	41.28
619.729	41.17
619.921	41.17
620.112	41.08
620.303	41.01
620.494	40.97
620.686	40.8
620.877	40.59
621.068	40.86
621.259	40.9
621.451	40.99
621.642	40.81
621.833	40.78
622.024	40.74
622.215	40.96
622.406	40.77
622.597	40.5
622.788	40.73
622.98	40.82
623.171	40.75
623.362	41.01
623.553	41.15
623.744	41.29
623.935	41.45
624.126	41.41
624.317	41.26
624.508	41.59
624.698	41.64
624.889	41.51
625.08	41.62
625.271	41.38
625.462	41.02
625.653	40.93
625.844	40.96
626.034	40.96
626.225	41.17
626.416	41.13
626.607	40.85
626.798	40.85
626.988	40.79
627.179	40.84
627.37	40.8
627.56	40.91
627.751	40.8
627.942	40.67
628.132	40.6
628.323	40.49
628.514	40.55
628.704	40.6
628.895	40.87
629.085	41.08
629.276	40.9
629.466	41.27
629.657	41.15
629.847	41.13
630.038	41.38
630.228	41.15
630.419	41.32
630.609	41.36
630.8	41.47
630.99	41.09
631.181	40.94
631.371	40.85
631.561	40.72
631.752	41.18
631.942	41.54
632.132	41.49
632.323	41.93
632.513	41.65
632.703	41.85
632.893	42.08
633.084	42.28
633.274	42.56
633.464	42.6
633.654	42.46
633.844	42.21
634.034	42.1
634.225	42.27
634.415	41.98
634.605	42.29
634.795	42.28
634.985	42.09
635.175	42.21
635.365	41.91
635.555	41.89
635.745	41.99
635.935	41.88
636.125	41.92
636.315	41.61
636.505	41.66
636.695	41.36
636.885	41.03
637.075	41.36
637.265	41.74
637.455	41.89
637.644	42.08
637.834	42.02
638.024	42.33
638.214	42.15
638.404	42.14
638.593	42.24
638.783	42.37
638.973	42.73
639.163	42.36
639.352	42.31
639.542	42.4
639.732	42.76
639.921	42.84
640.111	43.07
640.301	43.37
640.49	43.62
640.68	43.73
640.87	43.87
641.059	43.73
641.249	43.86
641.438	43.53
641.628	43.46
641.817	43.25
642.007	43.39
642.196	43.12
642.386	42.96
642.575	43.16
642.764	43.02
642.954	42.81
643.143	43
643.333	43.16
643.522	43.41
643.711	43.35
643.901	43.43
644.09	43.07
644.279	43.13
644.469	43.45
644.658	43.13
644.847	42.9
645.036	43.2
645.226	43.13
645.415	43.11
645.604	42.86
645.793	43.02
645.982	42.83
646.171	43.49
646.361	43.46
646.55	43.18
646.739	43.42
646.928	43.75
647.117	43.88
647.306	44.01
647.495	44.01
647.684	43.85
647.873	43.72
648.062	43.57
648.251	43.13
648.44	42.81
648.629	42.89
648.818	42.87
649.007	43.04
649.196	42.93
649.384	42.7
649.573	42.53
649.762	42.78
649.951	42.73
650.14	43.11
650.328	43.19
650.517	43.47
650.706	43.79
650.895	43.85
651.083	43.62
651.272	43.34
651.461	43.34
651.65	43.31
651.838	43.18
652.027	43.13
652.216	42.77
652.404	42.92
652.593	43.05
652.781	42.69
652.97	42.53
653.158	42.93
653.347	43.39
653.535	43.72
653.724	43.88
653.912	44.15
654.101	44.33
654.289	44.47
654.478	44.5
654.666	44.56
654.855	44.49
655.043	44.42
655.231	44.28
655.42	43.93
655.608	43.61
655.796	43.63
655.985	43.67
656.173	43.69
656.361	43.86
656.55	43.44
656.738	43.43
656.926	43.66
657.114	43.71
657.302	43.39
657.491	43.78
657.679	43.89
657.867	43.71
658.055	43.57
658.243	43.46
658.431	43.58
658.619	43.76
658.807	43.66
658.996	43.59
659.184	43.77
659.372	43.96
659.56	43.63
659.748	43.49
659.936	43.48
660.124	43.4
660.311	43.32
660.499	43.01
660.687	43.16
660.875	42.97
661.063	42.94
661.251	43.06
661.439	42.86
661.627	43.13
661.814	43.3
662.002	43.65
662.19	44
662.378	44.09
662.565	44.33
662.753	44.18
662.941	44.53
663.129	44.55
663.316	44.52
663.504	45.1
663.692	45
663.879	45.26
664.067	45.39
664.254	45.13
664.442	45.72
664.63	45.91
664.817	46.02
665.005	46.03
665.192	46.06
665.38	45.62
665.567	45.07
665.755	45
665.942	44.49
666.13	44.5
666.317	44.6
666.504	44.02
666.692	43.81
666.879	43.74
667.067	43.94
667.254	44.06
667.441	44.53
667.629	44.71
667.816	44.72
668.003	44.64
668.19	44.36
668.378	44.44
668.565	44.57
668.752	44.51
668.939	44.59
669.127	44.44
669.314	44.54
669.501	43.82
669.688	43.72
669.875	43.55
670.062	43.68
670.249	44.21
670.436	44.39
670.623	44.38
670.81	44.53
670.997	44.14
671.184	44.24
671.371	44.26
671.558	45.03
671.745	44.87
671.932	45.35
672.119	45.69
672.306	44.97
672.493	44.58
672.68	44.82
672.867	44.87
673.054	45.17
673.24	44.72
673.427	44.3
673.614	44.2
673.801	44.49
673.988	44.31
674.174	44.09
674.361	44.22
674.548	44.62
674.734	44.39
674.921	44.36
675.108	44.47
675.294	44.92
675.481	45.47
675.668	45.33
675.854	45.41
676.041	45.2
676.227	45.33
676.414	45.59
676.601	45.46
676.787	45.37
676.974	45.21
677.16	45.44
677.347	45.05
677.533	44.77
677.719	44.86
677.906	44.79
678.092	45.17
678.279	45.36
678.465	45.44
678.651	45.32
678.838	45.43
679.024	45.59
679.21	45.71
679.397	46.04
679.583	45.94
679.769	45.72
679.955	45.59
680.142	45.35
680.328	45.05
680.514	44.6
680.7	44.5
680.886	44.74
681.073	44.66
681.259	44.22
681.445	43.96
681.631	43.68
681.817	43.52
682.003	43.49
682.189	43.74
682.375	44.01
682.561	44.04
682.747	44.25
682.933	44.2
683.119	44.04
683.305	44.25
683.491	44.56
683.677	44.97
683.863	45.58
684.049	45.73
684.235	45.51
684.42	45.27
684.606	45.86
684.792	45.63
684.978	45.54
685.164	45.62
685.349	45.91
685.535	45.68
685.721	45.52
685.907	45.34
686.092	45.57
686.278	45.31
686.464	45.86
686.649	45.62
686.835	45.62
687.021	45.51
687.206	45.9
687.392	45.72
687.577	45.8
687.763	45.92
687.948	45.8
688.134	45.45
688.319	45.91
688.505	45.54
688.69	45.51
688.876	45.54
689.061	45.44
689.247	45.68
689.432	45.59
689.618	45.53
689.803	45.66
689.988	45.91
690.174	46.15
690.359	45.92
690.544	46.14
690.73	46.37
690.915	46.77
691.1	47.05
691.285	46.79
691.471	46.6
691.656	46.5
691.841	46.52
692.026	46.33
692.211	46.13
692.396	45.78
692.582	45.68
692.767	45.53
692.952	45.06
693.137	45.28
693.322	44.77
693.507	45.01
693.692	44.97
693.877	45.23
694.062	45.44
694.247	45.42
694.432	45.87
694.617	45.88
694.802	45.93
694.987	46.24
695.172	45.74
695.357	45.94
695.541	46.18
695.726	46.13
695.911	45.78
696.096	45.53
696.281	46.2
696.466	46.23
696.65	46.19
696.835	45.55
697.02	45.5
697.204	45.49
697.389	45.76
697.574	45.56
697.759	45.84
697.943	45.65
698.128	45.76
698.312	45.59
698.497	45.22
698.682	45.13
698.866	45.3
699.051	45.45
699.235	45.81
699.42	45.73
699.604	45.82
699.789	45.87
699.973	45.77
700.158	45.47
700.342	45.44
700.527	45.59
700.711	45.59
700.895	46.01
701.08	45.97
701.264	45.53
701.448	45.35
701.633	45.34
701.817	45.57
702.001	46.53
702.186	47.01
702.37	46.64
702.554	46.92
702.738	47.96
702.923	48.13
703.107	48.43
703.291	49.33
703.475	49.48
703.659	49.37
703.843	49.17
704.027	48.82
704.212	49.16
704.396	49.87
704.58	50.04
704.764	48.95
704.948	48.81
705.132	48.66
705.316	47.5
705.5	47.63
705.684	48.16
705.868	48.04
706.052	47.53
706.235	46.73
706.419	46.39
706.603	46.76
706.787	46.94
706.971	47
707.155	46.88
707.339	46.91
707.522	47.15
707.706	46.99
707.89	47.12
708.074	47.55
708.257	48.47
708.441	48.84
708.625	48.73
708.808	48.99
708.992	49.19
709.176	49.1
709.359	49.34
709.543	49.19
709.727	48.58
709.91	48.57
710.094	48.34
710.277	47.88
710.461	47.51
710.644	47.27
710.828	46.61
711.011	46.67
711.195	47.03
711.378	47.09
711.562	47.06
711.745	47.5
711.928	47.58
712.112	47.42
712.295	47.3
712.478	47.5
712.662	47.92
712.845	48.37
713.028	47.93
713.212	47.58
713.395	47.99
713.578	48.28
713.761	47.86
713.945	47.46
714.128	48.22
714.311	47.91
714.494	47.89
714.677	47.64
714.86	47.87
715.043	47.55
715.227	47.32
715.41	47.22
715.593	46.17
715.776	46.04
715.959	46.7
716.142	46.45
716.325	46.35
716.508	46.13
716.691	45.96
716.874	45.91
717.057	45.91
717.239	46.55
717.422	46.69
717.605	47.48
717.788	47.7
717.971	47.5
718.154	47.65
718.337	47.94
718.519	48.7
718.702	48.59
718.885	48.08
719.068	48.39
719.25	48.09
719.433	47.73
719.616	47.5
719.798	47.59
719.981	47.22
720.164	46.7
720.346	46.64
720.529	45.45
720.712	45.17
720.894	45.61
721.077	45.84
721.259	45.08
721.442	45.13
721.624	45.95
721.807	45.7
721.989	45.81
722.172	46.75
722.354	47.26
722.537	47.85
722.719	48.65
722.901	48.7
723.084	48.28
723.266	49.26
723.448	49.76
723.631	50.09
723.813	50.75
723.995	50.18
724.178	49.06
724.36	49.38
724.542	49.01
724.724	49.19
724.907	48.99
725.089	49.51
725.271	49.84
725.453	49.11
725.635	48.9
725.817	49
725.999	50.07
726.181	49.84
726.364	49.62
726.546	50.39
726.728	50.23
726.91	50.58
727.092	49.95
727.274	48.91
727.456	49.29
727.638	48.25
727.819	47.27
728.001	47.08
728.183	47.57
728.365	47.24
728.547	46.15
728.729	45.92
728.911	45.61
729.093	45.75
729.274	46.55
729.456	46.28
729.638	46.48
729.82	47.43
730.001	47.17
730.183	46.78
730.365	46.74
730.546	46.51
730.728	46.57
730.91	47.54
731.091	48.1
731.273	47.82
731.455	48.59
731.636	48.56
731.818	48.95
731.999	48.82
732.181	49.28
732.362	49.8
732.544	50.71
732.725	50.84
732.907	50.18
733.088	50.06
733.27	50.72
733.451	50.87
733.633	51.48
733.814	51.59
733.995	52.01
734.177	52.81
734.358	52.82
734.539	52.87
734.721	52.78
734.902	52.54
735.083	52.92
735.264	51.88
735.446	50.53
735.627	50.2
735.808	49.74
735.989	49.62
736.17	48.71
736.351	48.44
736.533	48.15
736.714	48.55
736.895	48.05
737.076	48.24
737.257	49.12
737.438	49.69
737.619	49.81
737.8	49.09
737.981	49.06
738.162	48.46
738.343	48.43
738.524	49.18
738.705	48.78
738.886	48.42
739.067	47.77
739.247	47.7
739.428	48.81
739.609	49.41
739.79	49.91
739.971	49.89
740.151	50.87
740.332	50.46
740.513	49.91
740.694	49.99
740.874	50.76
741.055	50.86
741.236	50.39
741.417	49.75
741.597	49.08
741.778	49.34
741.958	48.92
742.139	48.33
742.32	48.38
742.5	48.57
742.681	48.3
742.861	47.72
743.042	47.78
743.222	47.96
743.403	47.52
743.583	47.84
743.764	47.94
743.944	48.82
744.124	49.69
744.305	50.46
744.485	50.49
744.666	50.7
744.846	52.62
745.026	52.97
745.207	53.01
745.387	53.95
745.567	54.09
745.747	54.12
745.928	53.41
746.108	53.3
746.288	53.11
746.468	52.64
746.648	54.27
746.829	52.94
747.009	52.88
747.189	52.58
747.369	50.98
747.549	50.73
747.729	50.42
747.909	50.83
748.089	50.44
748.269	50.2
748.449	50.63
748.629	50.31
748.809	50.1
748.989	49.09
749.169	49.37
749.349	51.41
749.529	51.17
749.709	51.61
749.889	51.37
750.068	52.56
750.248	53.12
750.428	53.06
750.608	51.81
750.788	52.63
750.967	52.94
751.147	53.01
751.327	51.74
751.507	51.9
751.686	52
751.866	51.38
752.046	50.53
752.225	49.84
752.405	50.25
752.585	51.33
752.764	51.11
752.944	50.32
753.123	51.36
753.303	50.91
753.482	51.19
753.662	51.32
753.841	52.69
754.021	52.15
754.2	51.81
754.38	51.44
754.559	50.61
754.739	49.87
754.918	51.35
755.097	49.67
755.277	50.42
755.456	50.64
755.635	49.65
755.815	49.28
755.994	49.7
756.173	50.31
756.352	50.16
756.532	50.45
756.711	51.14
756.89	51.2
757.069	51.88
757.248	51.46
757.427	51.55
757.607	52.03
757.786	52.94
757.965	51.92
758.144	52.51
758.323	52.19
758.502	52.3
758.681	52.15
758.86	50.97
759.039	51.2
759.218	51.97
759.397	51.4
759.576	51.04
759.755	50.56
759.934	51.44
760.113	50.71
760.291	51.11
760.47	50.92
760.649	51.42
760.828	51.79
761.007	51.61
761.186	50.85
761.364	50.29
761.543	50.57
761.722	50.25
761.901	49.54
762.079	49.76
762.258	49.58
762.437	48.6
762.615	47.52
762.794	48.02
762.972	47.86
763.151	48.1
763.33	48.07
763.508	47.48
763.687	46.2
763.865	46.11
764.044	45.87
764.222	45.01
764.401	45.36
764.579	46.04
764.758	45.49
764.936	45.42
765.114	45.19
765.293	45.65
765.471	46.65
765.65	47.86
765.828	48.27
766.006	48.33
766.184	49.91
766.363	50.17
766.541	49.18
766.719	50.77
766.898	50.64
767.076	49.7
767.254	49.97
767.432	49.25
767.61	49.3
767.788	50.15
767.967	50.67
768.145	50.14
768.323	50.55
768.501	51.45
768.679	50.23
768.857	50.38
769.035	53.35
769.213	53.32
769.391	53.9
769.569	54.06
769.747	54.07
769.925	54.44
770.103	55.25
770.281	55.27
770.459	54.66
770.636	55.33
770.814	55.17
770.992	54.67
771.17	54.59
771.348	53.26
771.525	53.35
771.703	52.78
771.881	52.7
772.059	51.98
772.236	50.48
772.414	50.79
772.592	50.12
772.769	51.18
772.947	52.55
773.125	51.65
773.302	51.86
773.48	52.56
773.657	52.29
773.835	51.32
774.013	53.56
774.19	56.03
774.368	57.17
774.545	56.62
774.723	56.35
774.9	55.34
775.077	55.7
775.255	57.17
775.432	56.58
775.61	56.91
775.787	59.15
775.964	58.38
776.142	57.54
776.319	57.66
776.496	58.54
776.674	58.83
776.851	56.84
777.028	56.26
777.205	56.12
777.382	57.17
777.56	57.47
777.737	55.81
777.914	55.46
778.091	54.28
778.268	54.55
778.445	54.42
778.622	53.26
778.8	55.22
778.977	56.3
779.154	59.67
779.331	57.47
779.508	57.32
779.685	58.01
779.862	57.48
780.038	59.4
780.215	59.8
780.392	59.79
780.569	62.38
780.746	60.4
780.923	60.72
781.1	58.46
781.277	59.73
781.453	59.81
781.63	59.83
781.807	60.19
781.984	59.53
782.16	58.48
782.337	58.24
782.514	56.65
782.691	59.24
782.867	59.71
783.044	58.26
783.221	56.89
783.397	56.4
783.574	54.41
783.75	54.12
783.927	54.47
784.103	53.99
784.28	54.51
784.456	55.16
784.633	54.1
784.809	53.65
784.986	53.47
785.162	52.91
785.339	54.77
785.515	56.83
785.692	55.59
785.868	55.53
786.044	56.04
786.221	55.3
786.397	53.68
786.573	54.08
786.749	53.52
786.926	53.41
787.102	55.63
787.278	54.02
787.454	52.46
787.631	52.84
787.807	51.62
787.983	52.14
788.159	53.48
788.335	54.95
788.511	53.44
788.687	53.51
788.863	54.37
789.039	53.28
789.216	52.92
789.392	53.65
789.568	54.63
789.744	55.54
789.919	55.15
790.095	54.42
790.271	53.13
790.447	52.66
790.623	54.22
790.799	53.37
790.975	52.86
791.151	52.69
791.327	53.54
791.502	51.59
791.678	51.51
791.854	51.7
792.03	50.89
792.205	53.03
792.381	52.91
792.557	52.92
792.733	53.65
792.908	55.64
793.084	56.63
793.259	55.35
793.435	57.16
793.611	56.12
793.786	57.04
793.962	57.16
794.137	55.64
794.313	57.69
794.488	55.41
794.664	55.99
794.839	54.73
795.015	53.13
795.19	52.81
795.366	51.78
795.541	53.21
795.716	51.46
795.892	52.71
796.067	51.16
796.242	50.77
796.418	52.69
796.593	50.18
796.768	47.78
796.944	49.08
797.119	50.36
797.294	52.05
797.469	51.88
797.644	52.45
797.82	50.99
797.995	50.27
798.17	49.8
798.345	50.31
798.52	53.06
798.695	55.77
798.87	56.92
799.045	56.2
799.22	56
799.395	56.16
799.57	56.7
799.745	56.24
799.92	58.11
800.095	58.73
800.27	57.93
800.445	57.55
800.62	56.38
800.795	55.86
800.97	55.85
801.145	54.45
801.319	55.2
801.494	54.99
801.669	55.36
801.844	56.45
802.018	53.91
802.193	52.86
802.368	50.9
802.543	51.94
802.717	51.66
802.892	52.03
803.067	53.81
803.241	54.02
803.416	52.86
803.59	55.2
803.765	52.59
803.94	55.43
804.114	55.06
804.289	57.33
804.463	57.3
804.638	56.75
804.812	56.72
804.986	57.46
805.161	57.51
805.335	57.21
805.51	55.31
805.684	56.44
805.858	56.42
806.033	56.75
806.207	57.2
806.381	57.93
806.556	58.44
806.73	58.69
806.904	58.09
807.078	55.73
807.253	57.15
807.427	56.86
807.601	58.58
807.775	57.22
807.949	57.63
808.123	56.95
808.298	56.56
808.472	57.37
808.646	57.19
808.82	56.41
808.994	57.13
809.168	58.34
809.342	56.81
809.516	56.29
809.69	55.8
809.864	56.67
810.038	57.34
810.212	56.29
810.385	56.31
810.559	56.79
810.733	53.76
810.907	51.47
811.081	49.05
811.255	51.84
811.428	50.08
811.602	53.35
811.776	53.32
811.95	51.45
812.123	53.77
812.297	52.33
812.471	52
812.644	55.27
812.818	55.8
812.992	55.5
813.165	56.29
813.339	58.06
813.512	55.79
813.686	54.51
813.86	55.13
814.033	55.28
814.207	53.93
814.38	54.42
814.554	52.16
814.727	53.11
814.9	54.17
815.074	51.7
815.247	52.06
815.421	50.28
815.594	51.98
815.767	52.37
815.941	52.14
816.114	54.35
816.287	53.03
816.46	51.72
816.634	50.97
816.807	51.99
816.98	51.89
817.153	52.38
817.327	53.03
817.5	51.18
817.673	48.45
817.846	48.55
818.019	47.09
818.192	48.6
818.365	51.06
818.538	54.59
818.711	52.62
818.884	55.45
819.057	53.85
819.23	53.51
819.403	51.73
819.576	52.92
819.749	52.57
819.922	52.98
820.095	51.74
820.268	51.9
820.441	50.91
820.614	51.5
820.786	49.62
820.959	48.88
821.132	49.93
821.305	49.7
821.477	48.22
821.65	47.48
821.823	46.94
821.996	46.64
822.168	46.29
822.341	45.86
822.514	45.16
822.686	45.36
822.859	45.87
823.031	45.37
823.204	45.05
823.376	45.13
823.549	44.58
823.722	44.83
823.894	45.05
824.067	45.05
824.239	44.5
824.411	44.81
824.584	44.68
824.756	44.13
824.929	43.84
825.101	44.23
825.273	44.35
825.446	44.12
825.618	43.74
825.79	43.04
825.963	42.77
826.135	42.7
826.307	43.28
826.479	43.1
826.652	42.77
826.824	43.32
826.996	43.9
827.168	43.79
827.34	44.46
827.512	44.7
827.684	45.35
827.856	46.21
828.029	47.02
828.201	45.88
828.373	45.89
828.545	45.75
828.717	46.06
828.889	46.46
829.061	47.17
829.232	48.16
829.404	47.74
829.576	47.6
829.748	46.68
829.92	46.57
830.092	47.62
830.264	47.34
830.436	48.66
830.607	47.57
830.779	44.9
830.951	45.16
831.123	44.01
831.294	43.97
831.466	45.33
831.638	48.13
831.809	48.9
831.981	47.51
832.153	47.69
832.324	47.15
832.496	46.49
832.667	49.4
832.839	50.9
833.011	50.9
833.182	52.33
833.354	52.74
833.525	50.07
833.697	50.43
833.868	50.17
834.039	51.56
834.211	50.08
834.382	50.59
834.554	50.15
834.725	49.68
834.896	50.19
835.068	48.61
835.239	47.14
835.41	47.28
835.581	48.53
835.753	49.05
835.924	47.9
836.095	47.83
836.266	48.27
836.438	47.46
836.609	44.13
836.78	42.85
836.951	45.12
837.122	45.21
837.293	46.45
837.464	44.12
837.635	44.91
837.806	45.79
837.977	46.01
838.148	46.18
838.319	46.54
838.49	51.72
838.661	51.46
838.832	48.16
839.003	46.57
839.174	48.46
839.345	48.65
839.516	47.36
839.687	49.94
839.857	52.18
840.028	52.23
840.199	53.51
840.37	52.1
840.54	54.37
840.711	55.82
840.882	55.54
841.053	49.55
841.223	48.56
841.394	49.34
841.564	46.2
841.735	45.94
841.906	49.4
842.076	50.15
842.247	49.29
842.417	47.89
842.588	48.11
842.758	53.69
842.929	58.57
843.099	62.57
843.27	63.07
843.44	65.35
843.611	63.19
843.781	59.19
843.951	57.86
844.122	59.71
844.292	62.09
844.462	60.43
844.633	58.29
844.803	59.38
844.973	51.88
845.144	53.18
845.314	52.03
845.484	56.37
845.654	55.29
845.824	60.42
845.995	56.49
846.165	55.98
846.335	61.11
846.505	63.08
846.675	55.67
846.845	59.93
847.015	51.14
847.185	53.2
847.355	47.48
847.525	48.26
847.695	34.02
847.865	29.92
848.035	23.4
848.205	13.63
848.375	14.69
848.545	14.68
848.715	21.57
848.884	24.9
849.054	27.18
849.224	32.25
849.394	41.99
849.564	44.97
849.733	52.25
849.903	60.33
850.073	65.41
850.243	62.37
850.412	62
850.582	61.72
850.752	65.95
850.921	64.43
851.091	65.34
851.26	63.94
851.43	62.8
851.599	62.98
851.769	62.83
851.939	69.03
852.108	72.66
852.278	77.96
852.447	71.53
852.616	73.08
852.786	66.71
852.955	63.33
853.125	56.9
853.294	65.29
853.463	63.87
853.633	64.12
853.802	56.47
853.971	60.16
854.141	62.6
854.31	67.45
854.479	65.55
854.648	63.83
854.818	68.04
854.987	74.54
855.156	77.53
855.325	88.85
855.494	91.08
855.663	92.75
855.832	93.88
856.001	95.5
856.171	95.23
856.34	90.72
856.509	89.43
856.678	86.13
856.847	85.05
857.016	72.36
857.185	66.32
857.353	71.56
857.522	77.33
857.691	63.58
857.86	61.53
858.029	65.57
858.198	75.25
858.367	86.21
858.535	95.94
858.704	93.04
858.873	106.86
859.042	96.25
859.21	93.43
859.379	90.71
859.548	108.22
859.717	108.26
859.885	109.83
860.054	99.59
860.222	89.05
860.391	77.45
860.56	76.72
860.728	74.2
860.897	75.56
861.065	69.45
861.234	60.78
861.402	58.9
861.571	60.01
861.739	58.72
861.908	54.19
862.076	69.1
862.244	75.05
862.413	67.3
862.581	61.24
862.749	56.47
862.918	64.76
863.086	65.85
863.254	53.88
863.423	60.07
863.591	49.24
863.759	51.14
863.927	47.76
864.096	56.16
864.264	64.39
864.432	63.61
864.6	58.74
864.768	59.37
864.936	61.99
865.104	65.43
865.272	61.34
865.44	72.81
865.608	70.26
865.776	73.78
865.944	59.21
866.112	57.64
866.28	55.82
866.448	68.28
866.616	67.05
866.784	70.84
866.952	68.69
867.12	69.44
867.288	67.81
867.455	68.07
867.623	68.18
867.791	77.69
867.959	79.48
868.127	76.47
868.294	66.41
868.462	52.84
868.63	46.55
868.797	38.04
868.965	44.1
869.133	42.5
869.3	43.58
869.468	39.76
869.636	43.59
869.803	43.08
869.971	54.23
870.138	59.15
870.306	62.47
870.473	67.75
870.641	76.51
870.808	75.68
870.975	68.05
871.143	71.08
871.31	80.67
871.478	72.37
871.645	70.63
871.812	67.69
871.98	69.11
872.147	65.83
872.314	58.98
872.482	52.23
872.649	49.61
872.816	53.01
872.983	51.9
873.15	50.61
873.318	57.35
873.485	57.03
873.652	61.5
873.819	65.43
873.986	62.78
874.153	72.48
874.32	76.39
874.487	76.36
874.654	69.05
874.821	62.85
874.988	59.01
875.155	53.67
875.322	54.7
875.489	53.54
875.656	51.42
875.823	65.29
875.99	60.46
876.157	56.18
876.324	63.05
876.49	76.73
876.657	78.45
876.824	66.54
876.991	74.06
877.157	83.13
877.324	79
877.491	76.5
877.658	65.87
877.824	69
877.991	68.71
878.157	57.3
878.324	53.76
878.491	59.1
878.657	65.43
878.824	60.13
878.99	46.65
879.157	48
879.323	46.75
879.49	46.77
879.656	45.01
879.823	50.91
879.989	52.59
880.156	53.29
880.322	49.5
880.488	51.53
880.655	52
880.821	55.58
880.987	54.03
881.154	55.02
881.32	58.23
881.486	58.99
881.652	54.04
881.819	53.75
881.985	53.8
882.151	52.79
882.317	53
882.483	51.51
882.649	49.03
882.816	46.38
882.982	43.69
883.148	41.73
883.314	41.34
883.48	41.34
883.646	40.75
883.812	39.68
883.978	39.53
884.144	38.74
884.31	38.61
884.476	39.2
884.642	40.28
884.807	43.38
884.973	44.35
885.139	44.64
885.305	44.68
885.471	44.73
885.637	45.4
885.802	45.44
885.968	45.17
886.134	44.39
886.3	45.16
886.465	44.48
886.631	41.63
886.797	42.86
886.962	43.63
887.128	46.36
887.293	46.64
887.459	47.86
887.625	47.45
887.79	48.85
887.956	54.27
888.121	54.38
888.287	58.09
888.452	58.79
888.618	57.19
888.783	52.62
