Data from LC_164_Reflection_3.txt Node
Date: Mon Nov 16 22:51:14 EST 2015
User: robert
Spectrometer: USB4E03001
Autoset integration time: false
Trigger mode: 4
Integration Time (sec): 1.000000E-1
Scans to average: 15
Electric dark correction enabled: true
Nonlinearity correction enabled: false
Boxcar width: 5
Stray light correction enabled: false
XAxis mode: Wavelengths
Stop averaging: false
Number of Pixels in Spectrum: 3648
>>>>>Begin Spectral Data<<<<<
177.566	4851.81
177.785	362.5
178.005	-3328.57
178.225	248.69
178.445	152.05
178.665	4.11
178.885	236.41
179.105	1062.62
179.324	1208.41
179.544	-252.92
179.764	-1351.24
179.984	-525.08
180.204	-410.8
180.423	-417.38
180.643	-557.35
180.863	-338.25
181.083	-286.46
181.302	-373.61
181.522	-295.95
181.742	-264.55
181.961	-432.24
182.181	-366.26
182.401	-486.45
182.621	-1914.95
182.84	-957.28
183.06	-620.98
183.279	-352.58
183.499	-284.45
183.719	-253.04
183.938	-246.39
184.158	-260.97
184.377	-145.23
184.597	-211.06
184.816	-144.43
185.036	-114.75
185.256	-62.6
185.475	-78.91
185.695	-152.72
185.914	-216.69
186.134	-324.64
186.353	-465.3
186.572	-654.16
186.792	-1404.19
187.011	-619.91
187.231	-602.19
187.45	-433.13
187.67	-1181.17
187.889	-3041.88
188.108	5161.39
188.328	-1343.27
188.547	-499.76
188.766	-834.32
188.986	-1088.51
189.205	-687.06
189.424	-457.05
189.644	-970.58
189.863	-938.81
190.082	-626.99
190.302	-1615.37
190.521	-786.76
190.74	757.27
190.959	385.98
191.178	619.27
191.398	551.95
191.617	491.18
191.836	390.26
192.055	1025.7
192.274	453.06
192.494	505.71
192.713	481.34
192.932	1166.54
193.151	884.54
193.37	1550.47
193.589	-971.55
193.808	-262.63
194.027	-271.94
194.246	-3173.46
194.465	634.7
194.685	1522.57
194.904	826.79
195.123	-1143.06
195.342	-755.61
195.561	-375.89
195.78	-519.97
195.999	22574.65
196.218	846.42
196.436	831.54
196.655	-2873.75
196.874	-1149.76
197.093	-1737.28
197.312	-1214.39
197.531	3234.98
197.75	1116.61
197.969	-3961.23
198.188	-930.49
198.407	-280.89
198.625	-307.72
198.844	-262.5
199.063	-290.68
199.282	-554.81
199.501	-337.81
199.719	-232.15
199.938	-158.85
200.157	-123.68
200.376	-118.81
200.594	-186.22
200.813	-378.79
201.032	-317.02
201.251	-296.06
201.469	-260.85
201.688	-183.02
201.907	-338.45
202.125	-556.8
202.344	20396.43
202.563	3861.79
202.781	670.8
203	2019.53
203.218	1407.59
203.437	1150.49
203.656	557.36
203.874	334.73
204.093	331.41
204.311	427.07
204.53	388.69
204.748	589.28
204.967	379.78
205.185	378.14
205.404	379.99
205.622	277.98
205.841	207.17
206.059	242.72
206.278	282.46
206.496	655.64
206.715	398.2
206.933	346.38
207.151	293.74
207.37	322.79
207.588	311.83
207.806	306.22
208.025	639.19
208.243	-1179.96
208.461	1789.54
208.68	-18458.82
208.898	752.47
209.116	790.91
209.335	807.71
209.553	771.8
209.771	8238.33
209.989	1859.07
210.208	3996.2
210.426	-6890.1
210.644	3802.98
210.862	-3432.17
211.081	1454.21
211.299	-682.02
211.517	2726.99
211.735	-544.99
211.953	-184214.29
212.171	-2587.95
212.39	-6944.14
212.608	-18310.87
212.826	715.83
213.044	509.38
213.262	385.07
213.48	2270.68
213.698	261.59
213.916	344.63
214.134	251.63
214.352	505.42
214.57	388.54
214.788	411.89
215.006	333.57
215.224	295.03
215.442	234.76
215.66	212.04
215.878	159.79
216.096	170.78
216.314	198.91
216.532	428.02
216.75	307.95
216.968	253.78
217.185	706.58
217.403	1302.88
217.621	-3601.65
217.839	-1137.55
218.057	-1391.68
218.275	2607.77
218.492	843.77
218.71	1357.23
218.928	418.91
219.146	430.98
219.363	382.81
219.581	269.56
219.799	212.46
220.017	192.32
220.234	178.15
220.452	162.16
220.67	192.57
220.887	190.23
221.105	222.13
221.323	172.21
221.54	203.54
221.758	257.15
221.976	294.41
222.193	292.56
222.411	224.38
222.629	230.77
222.846	252.44
223.064	245.07
223.281	200.28
223.499	183.62
223.716	186.4
223.934	136.86
224.151	131.68
224.369	111.32
224.586	114.42
224.804	114.88
225.021	80.3
225.239	66.16
225.456	70.76
225.674	82.69
225.891	65.64
226.108	74.13
226.326	81.86
226.543	73.82
226.76	69.42
226.978	60.46
227.195	70.02
227.413	66.1
227.63	57.99
227.847	51.25
228.064	45.28
228.282	38.75
228.499	32.56
228.716	24.99
228.934	20.16
229.151	21.51
229.368	20.81
229.585	17.93
229.802	18.18
230.02	17.71
230.237	19.79
230.454	21.39
230.671	23.79
230.888	26.83
231.105	28.23
231.323	30.94
231.54	33.33
231.757	34.66
231.974	35.89
232.191	32.65
232.408	39.43
232.625	32.96
232.842	27
233.059	28.99
233.276	27.51
233.493	34.77
233.71	36.54
233.927	37.36
234.144	38.68
234.361	34.37
234.578	41.34
234.795	36.99
235.012	40.74
235.229	43.21
235.446	44.53
235.663	41.94
235.879	40.99
236.096	38.95
236.313	36.25
236.53	35.28
236.747	38.06
236.964	35.67
237.181	38.27
237.397	35.97
237.614	38.23
237.831	32.83
238.048	34.09
238.264	35.25
238.481	36.59
238.698	36.37
238.915	33.95
239.131	35.77
239.348	36.78
239.565	34.69
239.781	35.53
239.998	31.9
240.215	31.45
240.431	29.25
240.648	26.52
240.865	24.91
241.081	22.68
241.298	22.29
241.514	19.83
241.731	16.7
241.947	17.79
242.164	17.1
242.38	16.28
242.597	16.03
242.814	17.16
243.03	16.93
243.246	17.96
243.463	19.37
243.679	20.9
243.896	19.53
244.112	21.83
244.329	21.6
244.545	21.56
244.762	22.77
244.978	23.75
245.194	21.38
245.411	21.12
245.627	20.84
245.843	20.59
246.06	18.86
246.276	19.56
246.492	17.45
246.709	17.1
246.925	16.17
247.141	15.36
247.357	15.22
247.574	15.94
247.79	16
248.006	14.88
248.222	14.34
248.439	14.08
248.655	14.54
248.871	16.36
249.087	15.79
249.303	16.26
249.519	16.81
249.736	16.5
249.952	15.43
250.168	17.63
250.384	17.95
250.6	18.72
250.816	18.79
251.032	16.9
251.248	14.93
251.464	16.42
251.68	16.95
251.896	17.44
252.112	17.98
252.328	19.31
252.544	18.82
252.76	19.9
252.976	18.8
253.192	20.66
253.408	21.7
253.624	24.52
253.84	22.94
254.056	24.66
254.272	25
254.487	28.36
254.703	28.15
254.919	27.06
255.135	26.58
255.351	27.55
255.567	27.03
255.782	30.53
255.998	27.33
256.214	29.82
256.43	26.95
256.646	28.54
256.861	23.72
257.077	21.56
257.293	18.37
257.508	18.68
257.724	20.29
257.94	19.53
258.155	17.76
258.371	16.4
258.587	14.66
258.802	15.18
259.018	14.36
259.234	14.59
259.449	15.32
259.665	14.99
259.88	15.24
260.096	14
260.312	13.09
260.527	12.83
260.743	13.25
260.958	13.48
261.174	13.05
261.389	13.59
261.605	13.8
261.82	14.21
262.036	15.24
262.251	15.5
262.466	15.89
262.682	17.6
262.897	16.74
263.113	16.84
263.328	18.02
263.543	18.32
263.759	17.37
263.974	17.63
264.189	15.88
264.405	15.89
264.62	16.08
264.835	17.3
265.051	18.24
265.266	21.08
265.481	20.85
265.696	21.06
265.912	22
266.127	20.91
266.342	19.49
266.557	19.27
266.773	18.49
266.988	17.57
267.203	17.87
267.418	15.09
267.633	13.32
267.848	14.74
268.064	13.56
268.279	12.94
268.494	12.31
268.709	12.76
268.924	13.49
269.139	15.1
269.354	14.01
269.569	11.71
269.784	13.2
269.999	14.85
270.214	12.58
270.429	13.48
270.644	13.13
270.859	12.3
271.074	12.21
271.289	12.29
271.504	11.77
271.719	12.27
271.934	14.06
272.149	13.7
272.363	13.06
272.578	12.69
272.793	11.96
273.008	11.41
273.223	12.55
273.438	12.08
273.653	11.62
273.867	11.29
274.082	11.64
274.297	11.28
274.512	13.25
274.726	12.67
274.941	14.91
275.156	15.08
275.371	16.01
275.585	16.66
275.8	18.23
276.015	18.73
276.229	17.87
276.444	17.68
276.659	16.66
276.873	15.19
277.088	15.31
277.302	14.3
277.517	15.89
277.732	17.63
277.946	16.54
278.161	17.33
278.375	17.09
278.59	17.98
278.804	19
279.019	20.18
279.233	20.56
279.448	20.14
279.662	19.64
279.877	18.92
280.091	18.05
280.306	18.03
280.52	16
280.735	14.52
280.949	14.51
281.163	13.38
281.378	12.43
281.592	12.3
281.806	13.55
282.021	13.22
282.235	12.95
282.449	12.88
282.664	13.3
282.878	13.25
283.092	15.33
283.307	15.06
283.521	15.54
283.735	15.48
283.949	15.76
284.164	15.1
284.378	15.38
284.592	14.93
284.806	14.3
285.02	13.91
285.234	14.05
285.449	13.23
285.663	13.04
285.877	12.76
286.091	12.94
286.305	12.41
286.519	12.42
286.733	12.05
286.947	12.07
287.161	11.91
287.375	12.76
287.589	13.24
287.803	13.21
288.017	13.14
288.231	12.19
288.445	12.24
288.659	12.06
288.873	11.55
289.087	12.29
289.301	12.07
289.515	12.89
289.729	11.88
289.943	11.87
290.157	11.93
290.371	13.98
290.584	14.93
290.798	16.19
291.012	17.23
291.226	17.03
291.44	17.36
291.654	17.81
291.867	17.74
292.081	17.91
292.295	18.39
292.509	18.52
292.722	17.34
292.936	17.73
293.15	17.95
293.364	16.88
293.577	17.78
293.791	17.48
294.005	17.58
294.218	16.94
294.432	17.15
294.645	17.27
294.859	17.1
295.073	15.74
295.286	14.63
295.5	12.96
295.713	13.34
295.927	13.36
296.14	13.12
296.354	13.35
296.568	13.84
296.781	13.87
296.994	13.36
297.208	13.59
297.421	14.58
297.635	15.34
297.848	15.86
298.062	14.9
298.275	15.36
298.489	15.92
298.702	15.61
298.915	15.75
299.129	16.27
299.342	16.53
299.555	16.6
299.769	16.71
299.982	16.66
300.195	16.51
300.409	18.49
300.622	17.76
300.835	18.64
301.048	18.89
301.262	19
301.475	18.73
301.688	19.38
301.901	19.56
302.115	20.31
302.328	20.4
302.541	19.83
302.754	20.45
302.967	20.98
303.18	20.23
303.393	20.07
303.607	19.29
303.82	19.92
304.033	19.56
304.246	19.51
304.459	18.81
304.672	19.09
304.885	20.41
305.098	19.11
305.311	18.01
305.524	18.17
305.737	18.56
305.95	19.51
306.163	18.92
306.376	19.17
306.589	19.13
306.802	18.97
307.015	18.67
307.228	18.43
307.44	18.43
307.653	19.58
307.866	18.17
308.079	19.56
308.292	19.59
308.505	20.34
308.718	19.47
308.93	19.81
309.143	19.81
309.356	19.72
309.569	19.3
309.781	19.82
309.994	19.13
310.207	20.37
310.42	18.73
310.632	17.89
310.845	17.52
311.058	17.48
311.27	17.4
311.483	17.69
311.696	17.55
311.908	17.81
312.121	17.19
312.333	18.89
312.546	18.3
312.759	18.78
312.971	18.95
313.184	20.08
313.396	20.14
313.609	19.94
313.821	19.78
314.034	20.91
314.246	20.59
314.459	21.66
314.671	21.4
314.884	21.78
315.096	20.68
315.309	20.63
315.521	20.74
315.733	20.33
315.946	19.68
316.158	18.9
316.371	18.7
316.583	19.46
316.795	18.11
317.008	17.28
317.22	17.89
317.432	18.79
317.644	19.08
317.857	17.05
318.069	17
318.281	17.98
318.494	18.05
318.706	18.74
318.918	18.21
319.13	18.82
319.342	18.98
319.555	18.04
319.767	19.22
319.979	19.99
320.191	21.2
320.403	22.14
320.615	22.89
320.827	24.86
321.039	24.19
321.252	25.08
321.464	25.55
321.676	25
321.888	24.68
322.1	24.32
322.312	22.24
322.524	20.91
322.736	21.34
322.948	19.97
323.16	18.35
323.372	18.01
323.584	16.78
323.796	16.21
324.007	16.02
324.219	16.57
324.431	16.71
324.643	17.8
324.855	18.5
325.067	18.88
325.279	19.31
325.491	19.43
325.702	19.11
325.914	20.2
326.126	21.44
326.338	23.23
326.55	22.97
326.761	22.74
326.973	23.64
327.185	24.81
327.396	24.49
327.608	25.22
327.82	25.32
328.032	26.24
328.243	25.74
328.455	25.85
328.666	25.16
328.878	25.74
329.09	27.07
329.301	26.92
329.513	26.01
329.725	26.54
329.936	26.46
330.148	26.73
330.359	26.85
330.571	27.79
330.782	27.72
330.994	28.42
331.205	28.96
331.417	27.98
331.628	27.85
331.84	27.87
332.051	28.02
332.262	28.32
332.474	28.75
332.685	29.42
332.897	28.69
333.108	28.63
333.319	26.93
333.531	27.01
333.742	27.71
333.953	27.38
334.165	27.24
334.376	26.87
334.587	26.44
334.799	26.36
335.01	25.51
335.221	26.08
335.432	25.91
335.644	26.35
335.855	25.86
336.066	26.03
336.277	26.13
336.488	26.75
336.7	26.81
336.911	27.41
337.122	27.82
337.333	28.82
337.544	29.12
337.755	29.7
337.966	30.23
338.177	30.73
338.388	30.24
338.599	31.91
338.811	32.15
339.022	32.32
339.233	32.5
339.444	31.68
339.655	30.13
339.866	30.06
340.076	30.65
340.287	30.74
340.498	30.99
340.709	30.83
340.92	30.05
341.131	29.7
341.342	29.74
341.553	28.81
341.764	29.63
341.975	30.17
342.185	30.03
342.396	28.88
342.607	29.04
342.818	28.82
343.029	28.9
343.239	28.3
343.45	28.45
343.661	27.84
343.872	28.09
344.082	28.07
344.293	28.95
344.504	29.3
344.714	28.57
344.925	28.15
345.136	28.3
345.346	27.49
345.557	28.15
345.768	27.53
345.978	27.84
346.189	28.59
346.399	28.17
346.61	27.88
346.821	27.37
347.031	28.24
347.242	27.7
347.452	27.2
347.663	28.05
347.873	27.6
348.084	28.06
348.294	28.06
348.504	27.58
348.715	28.29
348.925	27.72
349.136	28.01
349.346	27.39
349.557	27.98
349.767	28.31
349.977	27.83
350.188	28.32
350.398	28.41
350.608	28.35
350.819	28.12
351.029	27.94
351.239	28.28
351.449	27.37
351.66	28.19
351.87	28.17
352.08	27.92
352.29	27.88
352.501	27.02
352.711	27.22
352.921	27.36
353.131	27.22
353.341	27
353.552	26.29
353.762	26.93
353.972	26.28
354.182	26.9
354.392	26.68
354.602	27.55
354.812	27.57
355.022	27.29
355.232	27
355.442	27.22
355.652	27.27
355.862	27.86
356.072	28.23
356.282	27.89
356.492	27.71
356.702	27.85
356.912	27.56
357.122	27.75
357.332	27.97
357.542	27.87
357.752	27.5
357.962	27.01
358.171	26.79
358.381	26.73
358.591	27.1
358.801	26.41
359.011	26.76
359.221	26.53
359.43	27.16
359.64	26.81
359.85	26.99
360.06	27.55
360.269	27.89
360.479	27.64
360.689	26.89
360.899	26.74
361.108	26.83
361.318	26.61
361.528	26.26
361.737	25.71
361.947	25.51
362.156	25.39
362.366	25.16
362.576	25.19
362.785	25.32
362.995	25.37
363.204	25.55
363.414	25.63
363.623	25.71
363.833	26.11
364.042	25.89
364.252	26.15
364.461	25.94
364.671	25.48
364.88	25.8
365.09	26.16
365.299	26.89
365.509	26.39
365.718	26.3
365.927	25.71
366.137	25.87
366.346	25.94
366.555	25.54
366.765	26.22
366.974	26.29
367.183	25.88
367.393	24.86
367.602	23.66
367.811	23.68
368.021	23.75
368.23	23.88
368.439	23.2
368.648	22.96
368.857	23.33
369.067	22.97
369.276	22.91
369.485	22.96
369.694	23.57
369.903	24.63
370.112	24.33
370.321	24.02
370.531	23.93
370.74	23.88
370.949	24.06
371.158	23.8
371.367	23.71
371.576	24.22
371.785	24.15
371.994	24.05
372.203	23.86
372.412	24.21
372.621	24.36
372.83	24.73
373.039	25.08
373.248	25.09
373.457	25.12
373.666	24.63
373.874	23.98
374.083	23.9
374.292	23.9
374.501	23.57
374.71	23.44
374.919	23.64
375.128	23.2
375.336	23.18
375.545	23.24
375.754	23.28
375.963	23.45
376.171	23.69
376.38	23.29
376.589	23.2
376.798	22.96
377.006	23.03
377.215	23.18
377.424	23.08
377.632	23.16
377.841	23.03
378.05	22.99
378.258	23.04
378.467	23
378.675	23.08
378.884	22.85
379.093	23.13
379.301	22.75
379.51	22.53
379.718	22.19
379.927	22.02
380.135	21.5
380.344	21.71
380.552	21.43
380.761	21.87
380.969	21.75
381.177	21.57
381.386	21.02
381.594	21.15
381.803	20.77
382.011	21.22
382.219	20.73
382.428	20.56
382.636	19.87
382.845	20.65
383.053	20.21
383.261	20.37
383.469	20.53
383.678	20.96
383.886	20.89
384.094	20.62
384.302	20.81
384.511	21.02
384.719	21.44
384.927	21.21
385.135	20.64
385.343	20.69
385.552	20.52
385.76	20.23
385.968	20.08
386.176	20.11
386.384	20.24
386.592	19.68
386.8	19.68
387.008	19.78
387.216	20.33
387.424	20.1
387.633	19.78
387.841	19.74
388.049	20.05
388.257	20.2
388.465	20.21
388.672	20.27
388.88	20.35
389.088	20.27
389.296	20.15
389.504	20.09
389.712	20.3
389.92	20.19
390.128	19.91
390.336	19.6
390.544	19.7
390.751	19.17
390.959	19.31
391.167	19.5
391.375	19.54
391.583	19.35
391.79	19.02
391.998	18.89
392.206	19.02
392.414	19.12
392.621	19.23
392.829	18.95
393.037	19.19
393.244	18.89
393.452	18.92
393.66	19.08
393.867	19.32
394.075	19.5
394.283	19.33
394.49	19.16
394.698	19.18
394.905	19.18
395.113	18.98
395.32	19.03
395.528	18.84
395.735	18.83
395.943	18.34
396.15	17.81
396.358	17.58
396.565	17.44
396.773	17.69
396.98	17.41
397.188	17.3
397.395	17.67
397.602	17.64
397.81	17.71
398.017	17.72
398.225	17.87
398.432	18.19
398.639	18.37
398.847	18.67
399.054	18.31
399.261	18.45
399.468	18.39
399.676	18.21
399.883	18.29
400.09	18.54
400.297	18.49
400.505	18.34
400.712	18.04
400.919	18.1
401.126	17.98
401.333	18.2
401.54	18.1
401.748	18.05
401.955	18
402.162	18.09
402.369	18.1
402.576	18.1
402.783	18.13
402.99	18.11
403.197	17.78
403.404	17.52
403.611	17.41
403.818	17.54
404.025	17.57
404.232	17.43
404.439	17.13
404.646	16.77
404.853	16.37
405.06	16.4
405.267	16.42
405.474	16.6
405.681	16.69
405.887	16.49
406.094	16.32
406.301	16.53
406.508	16.62
406.715	16.64
406.922	16.8
407.128	16.96
407.335	16.97
407.542	17.14
407.749	16.99
407.955	17.19
408.162	17.22
408.369	17.34
408.575	16.92
408.782	16.98
408.989	17.08
409.195	16.93
409.402	16.95
409.609	17.11
409.815	17.43
410.022	17.52
410.228	17.42
410.435	17.61
410.642	17.37
410.848	17.77
411.055	17.44
411.261	17.5
411.468	17.67
411.674	17.51
411.881	17.28
412.087	17.04
412.294	16.92
412.5	16.78
412.706	16.78
412.913	16.95
413.119	16.64
413.326	16.8
413.532	16.7
413.738	16.39
413.945	16.62
414.151	16.55
414.357	16.47
414.564	16.49
414.77	16.7
414.976	16.43
415.182	16.69
415.389	16.7
415.595	16.52
415.801	16.52
416.007	16.92
416.214	16.96
416.42	17.03
416.626	17.01
416.832	17.08
417.038	16.88
417.244	17.05
417.45	16.88
417.657	17.04
417.863	17.21
418.069	17.27
418.275	17.23
418.481	17.04
418.687	17.08
418.893	16.91
419.099	16.85
419.305	16.98
419.511	16.85
419.717	16.77
419.923	16.52
420.129	16.47
420.335	16.41
420.541	16.31
420.746	16.35
420.952	16.26
421.158	16.33
421.364	16.34
421.57	16.25
421.776	16.28
421.982	16.26
422.187	16.15
422.393	16.13
422.599	16.02
422.805	16.14
423.01	16.14
423.216	16.03
423.422	16.04
423.628	16.06
423.833	15.99
424.039	16.1
424.245	16.12
424.45	16.38
424.656	16.34
424.862	16.3
425.067	16.29
425.273	16.2
425.478	16.38
425.684	16.39
425.889	16.45
426.095	16.59
426.301	16.59
426.506	16.64
426.712	16.61
426.917	16.61
427.123	16.79
427.328	16.63
427.533	16.74
427.739	16.66
427.944	16.64
428.15	16.57
428.355	16.54
428.561	16.33
428.766	16.33
428.971	16.37
429.177	16.51
429.382	16.69
429.587	16.78
429.793	16.77
429.998	16.94
430.203	16.78
430.408	16.71
430.614	16.69
430.819	16.74
431.024	16.8
431.229	16.62
431.434	16.61
431.64	16.44
431.845	16.42
432.05	16.47
432.255	16.37
432.46	16.27
432.665	16.19
432.87	16.21
433.076	16.27
433.281	16.32
433.486	16.33
433.691	16.18
433.896	15.99
434.101	15.91
434.306	15.89
434.511	15.84
434.716	16.14
434.921	16.33
435.126	16.2
435.331	16.2
435.535	16.02
435.74	16.1
435.945	16.42
436.15	16.63
436.355	16.84
436.56	16.9
436.765	16.96
436.97	16.76
437.174	16.63
437.379	16.82
437.584	16.82
437.789	16.86
437.993	16.85
438.198	16.76
438.403	16.68
438.608	16.6
438.812	16.45
439.017	16.5
439.222	16.43
439.426	16.4
439.631	16.38
439.836	16.3
440.04	16.5
440.245	16.44
440.45	16.35
440.654	16.42
440.859	16.24
441.063	16.25
441.268	16.11
441.472	16.37
441.677	16.35
441.881	16.22
442.086	16.24
442.29	15.99
442.495	15.99
442.699	16.02
442.904	15.97
443.108	16.26
443.312	16.4
443.517	16.53
443.721	16.38
443.925	16.39
444.13	16.48
444.334	16.5
444.538	16.6
444.743	16.54
444.947	16.48
445.151	16.42
445.356	16.27
445.56	16.15
445.764	16.09
445.968	16.12
446.173	16.14
446.377	16.16
446.581	16.1
446.785	16.03
446.989	16.14
447.193	16.13
447.398	16.12
447.602	16.09
447.806	16.13
448.01	16.21
448.214	16.17
448.418	16.12
448.622	16.18
448.826	16.17
449.03	16.24
449.234	16.25
449.438	16.24
449.642	16.23
449.846	16.34
450.05	16.32
450.254	16.15
450.458	16.29
450.662	16.33
450.866	16.15
451.069	16.22
451.273	16.22
451.477	16.08
451.681	16.12
451.885	16.03
452.089	16
452.292	16.01
452.496	16
452.7	15.76
452.904	15.74
453.107	15.75
453.311	15.68
453.515	15.68
453.719	15.65
453.922	15.66
454.126	15.67
454.33	15.68
454.533	15.52
454.737	15.64
454.94	15.74
455.144	15.81
455.348	15.87
455.551	15.91
455.755	15.7
455.958	15.79
456.162	15.72
456.365	15.8
456.569	15.62
456.772	15.65
456.976	15.65
457.179	15.64
457.383	15.48
457.586	15.46
457.79	15.41
457.993	15.57
458.196	15.58
458.4	15.61
458.603	15.59
458.807	15.73
459.01	15.95
459.213	15.77
459.417	15.77
459.62	15.81
459.823	15.76
460.026	15.74
460.23	15.79
460.433	15.9
460.636	15.84
460.839	15.93
461.042	15.88
461.246	15.83
461.449	15.94
461.652	15.97
461.855	15.81
462.058	15.88
462.261	15.85
462.464	15.71
462.668	15.68
462.871	15.79
463.074	15.75
463.277	15.59
463.48	15.52
463.683	15.57
463.886	15.65
464.089	15.8
464.292	15.91
464.495	16.2
464.698	16.25
464.901	16.12
465.104	16.09
465.306	16.11
465.509	16.21
465.712	16.22
465.915	16.2
466.118	16.01
466.321	16.02
466.524	16
466.726	15.93
466.929	16.02
467.132	16.06
467.335	16
467.538	15.84
467.74	15.9
467.943	16.04
468.146	16.14
468.348	16.2
468.551	16.26
468.754	16.26
468.956	16.2
469.159	16.24
469.362	16.3
469.564	16.29
469.767	16.5
469.969	16.56
470.172	16.33
470.375	16.22
470.577	16.31
470.78	16.24
470.982	16.24
471.185	16.25
471.387	16.2
471.59	16.08
471.792	16.18
471.995	16.01
472.197	15.94
472.399	16.07
472.602	15.97
472.804	15.96
473.007	16.07
473.209	15.98
473.411	15.91
473.614	15.82
473.816	15.9
474.018	15.9
474.22	16.04
474.423	16.12
474.625	16
474.827	16.16
475.03	16.13
475.232	16.19
475.434	16.35
475.636	16.38
475.838	16.42
476.04	16.27
476.243	16.27
476.445	16.31
476.647	16.26
476.849	16.2
477.051	16.13
477.253	16.16
477.455	16.12
477.657	15.95
477.859	15.88
478.061	15.68
478.263	15.81
478.465	15.87
478.667	15.78
478.869	15.77
479.071	15.83
479.273	15.8
479.475	15.73
479.677	15.64
479.879	15.66
480.081	15.78
480.283	15.93
480.485	15.79
480.686	15.7
480.888	15.73
481.09	15.78
481.292	15.7
481.494	15.73
481.695	15.84
481.897	15.84
482.099	15.81
482.301	15.73
482.502	15.75
482.704	15.76
482.906	15.71
483.107	15.67
483.309	15.57
483.511	15.62
483.712	15.53
483.914	15.43
484.115	15.44
484.317	15.45
484.519	15.44
484.72	15.39
484.922	15.36
485.123	15.38
485.325	15.34
485.526	15.37
485.728	15.35
485.929	15.41
486.131	15.46
486.332	15.51
486.534	15.45
486.735	15.42
486.936	15.42
487.138	15.45
487.339	15.4
487.541	15.48
487.742	15.46
487.943	15.41
488.144	15.38
488.346	15.32
488.547	15.26
488.748	15.3
488.95	15.26
489.151	15.39
489.352	15.43
489.553	15.4
489.755	15.33
489.956	15.33
490.157	15.37
490.358	15.49
490.559	15.56
490.76	15.52
490.961	15.5
491.163	15.64
491.364	15.62
491.565	15.56
491.766	15.62
491.967	15.65
492.168	15.69
492.369	15.72
492.57	15.65
492.771	15.78
492.972	15.77
493.173	15.87
493.374	15.81
493.575	15.75
493.776	15.82
493.976	15.94
494.177	16.02
494.378	16.17
494.579	16.2
494.78	16.34
494.981	16.27
495.182	16.37
495.382	16.39
495.583	16.33
495.784	16.32
495.985	16.45
496.185	16.42
496.386	16.32
496.587	16.37
496.788	16.34
496.988	16.38
497.189	16.43
497.39	16.45
497.59	16.45
497.791	16.59
497.992	16.52
498.192	16.54
498.393	16.54
498.593	16.73
498.794	16.71
498.994	16.85
499.195	16.86
499.395	16.93
499.596	17.04
499.796	17.17
499.997	17.21
500.197	17.55
500.398	17.55
500.598	17.58
500.799	17.44
500.999	17.43
501.199	17.32
501.4	17.3
501.6	17.27
501.801	17.28
502.001	17.26
502.201	17.47
502.402	17.44
502.602	17.41
502.802	17.44
503.002	17.64
503.203	17.62
503.403	17.79
503.603	17.9
503.803	17.92
504.003	18
504.204	18.05
504.404	18.01
504.604	17.96
504.804	18.18
505.004	18.13
505.204	18.1
505.404	18.26
505.604	18.31
505.804	18.25
506.005	18.26
506.205	18.25
506.405	18.3
506.605	18.3
506.805	18.47
507.005	18.45
507.204	18.61
507.404	18.62
507.604	18.54
507.804	18.5
508.004	18.78
508.204	18.78
508.404	18.8
508.604	18.78
508.804	18.94
509.003	18.99
509.203	19.03
509.403	19.04
509.603	19.14
509.803	19.42
510.002	19.66
510.202	19.62
510.402	19.73
510.602	19.89
510.801	19.96
511.001	19.91
511.201	19.86
511.4	19.89
511.6	20.13
511.8	20.25
511.999	20.26
512.199	20.25
512.398	20.35
512.598	20.42
512.797	20.55
512.997	20.76
513.197	20.84
513.396	20.95
513.596	21.02
513.795	21.11
513.994	21.1
514.194	21.07
514.393	21
514.593	21.07
514.792	21.2
514.992	21.19
515.191	21.18
515.39	21.21
515.59	21.17
515.789	21.23
515.988	21.14
516.188	21.28
516.387	21.45
516.586	21.55
516.786	21.62
516.985	21.61
517.184	21.62
517.383	21.87
517.582	22.06
517.782	22.34
517.981	22.28
518.18	22.33
518.379	22.39
518.578	22.37
518.777	22.52
518.976	22.41
519.176	22.56
519.375	22.73
519.574	22.62
519.773	22.63
519.972	22.65
520.171	22.83
520.37	23.07
520.569	23.16
520.768	23.27
520.967	23.4
521.166	23.64
521.365	23.64
521.564	23.69
521.762	23.99
521.961	24.13
522.16	24.1
522.359	24.2
522.558	24.08
522.757	24.12
522.956	24.24
523.154	24.21
523.353	24.31
523.552	24.51
523.751	24.64
523.949	24.51
524.148	24.61
524.347	24.83
524.546	24.86
524.744	24.92
524.943	25.06
525.142	25.08
525.34	25.14
525.539	25.22
525.737	25.22
525.936	25.23
526.135	25.2
526.333	25.21
526.532	25.13
526.73	25.27
526.929	25.33
527.127	25.31
527.326	25.32
527.524	25.49
527.723	25.57
527.921	25.61
528.12	25.66
528.318	25.82
528.516	25.87
528.715	25.87
528.913	25.88
529.112	25.94
529.31	25.97
529.508	26.03
529.707	26.04
529.905	26.03
530.103	26.12
530.301	26.14
530.5	26.16
530.698	26.23
530.896	26.44
531.094	26.63
531.293	26.74
531.491	26.91
531.689	27.12
531.887	27.23
532.085	27.42
532.283	27.52
532.481	27.64
532.68	27.65
532.878	27.59
533.076	27.58
533.274	27.5
533.472	27.54
533.67	27.52
533.868	27.51
534.066	27.52
534.264	27.45
534.462	27.35
534.66	27.38
534.858	27.49
535.056	27.62
535.253	27.64
535.451	27.75
535.649	27.75
535.847	27.94
536.045	27.92
536.243	28
536.441	28.13
536.638	28.34
536.836	28.36
537.034	28.36
537.232	28.41
537.43	28.45
537.627	28.55
537.825	28.58
538.023	28.68
538.22	28.9
538.418	28.94
538.616	29.06
538.813	29.12
539.011	29.35
539.209	29.46
539.406	29.64
539.604	29.92
539.801	30.01
539.999	30.07
540.196	29.94
540.394	30.03
540.591	30.12
540.789	30.12
540.986	29.98
541.184	29.98
541.381	30
541.579	29.93
541.776	29.84
541.974	29.77
542.171	29.81
542.368	29.82
542.566	29.75
542.763	29.76
542.96	29.75
543.158	29.89
543.355	29.92
543.552	29.92
543.75	30.08
543.947	30.09
544.144	30.13
544.341	30.25
544.539	30.39
544.736	30.49
544.933	30.49
545.13	30.55
545.327	30.5
545.524	30.48
545.722	30.64
545.919	30.6
546.116	30.78
546.313	30.92
546.51	30.97
546.707	31.01
546.904	31.03
547.101	31.05
547.298	31.15
547.495	31.29
547.692	31.36
547.889	31.31
548.086	31.45
548.283	31.5
548.48	31.46
548.677	31.51
548.874	31.55
549.07	31.7
549.267	31.75
549.464	31.76
549.661	31.8
549.858	31.99
550.055	32.29
550.251	32.24
550.448	32.26
550.645	32.48
550.842	32.42
551.038	32.47
551.235	32.33
551.432	32.37
551.628	32.47
551.825	32.72
552.022	32.6
552.218	32.46
552.415	32.54
552.612	32.56
552.808	32.52
553.005	32.78
553.201	32.98
553.398	33.12
553.594	33.18
553.791	33.22
553.987	33.16
554.184	33.23
554.38	33.25
554.577	33.18
554.773	33.35
554.97	33.63
555.166	33.52
555.362	33.35
555.559	33.43
555.755	33.6
555.952	33.7
556.148	33.8
556.344	33.79
556.541	33.76
556.737	33.92
556.933	33.96
557.129	33.84
557.326	33.85
557.522	34.17
557.718	34.26
557.914	34.22
558.11	34.26
558.307	34.21
558.503	34.46
558.699	34.58
558.895	34.69
559.091	34.63
559.287	34.62
559.483	34.7
559.679	34.61
559.876	34.55
560.072	34.58
560.268	34.61
560.464	34.52
560.66	34.42
560.856	34.71
561.052	34.63
561.247	34.85
561.443	34.89
561.639	34.92
561.835	34.9
562.031	34.84
562.227	34.87
562.423	34.88
562.619	35.07
562.815	35.22
563.01	35.18
563.206	35.25
563.402	35.18
563.598	35.01
563.793	35.12
563.989	35.18
564.185	35.28
564.381	35.45
564.576	35.47
564.772	35.37
564.968	35.37
565.163	35.28
565.359	35.04
565.555	35.01
565.75	35.09
565.946	34.94
566.141	35
566.337	35.11
566.532	35.19
566.728	35.26
566.923	35.29
567.119	35.29
567.314	35.22
567.51	35.58
567.705	35.52
567.901	35.65
568.096	35.99
568.292	36.08
568.487	36.14
568.682	35.97
568.878	35.88
569.073	35.98
569.268	35.96
569.464	36.2
569.659	36.08
569.854	36.37
570.05	36.39
570.245	36.32
570.44	36.35
570.635	36.33
570.831	36.46
571.026	36.72
571.221	36.85
571.416	36.9
571.611	36.88
571.806	36.91
572.002	36.83
572.197	36.93
572.392	36.8
572.587	36.83
572.782	36.88
572.977	36.99
573.172	36.99
573.367	36.92
573.562	37.08
573.757	36.96
573.952	37.09
574.147	37.37
574.342	37.5
574.537	37.62
574.732	37.53
574.927	37.48
575.121	37.59
575.316	37.56
575.511	37.46
575.706	37.42
575.901	37.5
576.096	37.55
576.29	37.41
576.485	37.45
576.68	37.46
576.875	37.48
577.069	37.59
577.264	37.42
577.459	37.66
577.654	37.77
577.848	37.66
578.043	37.87
578.238	37.74
578.432	37.55
578.627	37.57
578.821	37.73
579.016	37.87
579.21	38.07
579.405	38.28
579.6	38.23
579.794	38.4
579.989	38.41
580.183	38.36
580.378	38.47
580.572	38.92
580.766	38.9
580.961	38.62
581.155	38.64
581.35	38.61
581.544	38.36
581.738	38.19
581.933	38.07
582.127	38.54
582.321	38.57
582.516	38.65
582.71	38.58
582.904	38.46
583.099	38.47
583.293	38.65
583.487	38.89
583.681	39.27
583.875	39.21
584.07	39.38
584.264	39.19
584.458	39.3
584.652	39.09
584.846	38.76
585.04	39.07
585.234	39.47
585.428	39.33
585.623	38.97
585.817	38.62
586.011	38.99
586.205	39.4
586.399	39.36
586.593	39.27
586.787	39.58
586.981	39.68
587.174	39.57
587.368	39.47
587.562	39.52
587.756	39.76
587.95	39.93
588.144	39.79
588.338	39.57
588.532	39.89
588.725	40.22
588.919	40.27
589.113	40.42
589.307	40.53
589.501	40.42
589.694	40.71
589.888	40.83
590.082	40.93
590.275	41.08
590.469	41.1
590.663	40.75
590.856	40.45
591.05	40.43
591.244	40.53
591.437	40.77
591.631	40.98
591.824	40.7
592.018	40.7
592.212	40.74
592.405	40.44
592.599	40.36
592.792	40.43
592.986	40.56
593.179	40.72
593.372	40.8
593.566	40.74
593.759	40.69
593.953	40.67
594.146	40.49
594.339	40.44
594.533	40.75
594.726	40.79
594.92	40.97
595.113	40.91
595.306	40.86
595.499	40.58
595.693	40.38
595.886	40.48
596.079	40.72
596.272	40.8
596.466	40.9
596.659	40.85
596.852	40.83
597.045	40.83
597.238	40.86
597.431	40.78
597.624	40.87
597.818	40.84
598.011	40.81
598.204	40.62
598.397	40.73
598.59	40.56
598.783	40.72
598.976	40.74
599.169	40.65
599.362	40.77
599.555	41.16
599.748	41.4
599.941	41.52
600.134	41.62
600.326	41.91
600.519	41.97
600.712	42.12
600.905	41.85
601.098	42.15
601.291	42.54
601.483	42.47
601.676	42.42
601.869	42.42
602.062	42.66
602.255	42.54
602.447	42.58
602.64	42.49
602.833	42.62
603.025	42.54
603.218	42.26
603.411	42.12
603.603	42.12
603.796	41.88
603.989	41.87
604.181	41.74
604.374	41.92
604.566	41.8
604.759	41.77
604.951	41.61
605.144	41.64
605.336	41.85
605.529	41.71
605.721	41.67
605.914	41.68
606.106	41.73
606.299	41.79
606.491	41.72
606.683	41.8
606.876	41.77
607.068	41.98
607.26	42.31
607.453	42.32
607.645	42.49
607.837	42.61
608.03	42.74
608.222	42.45
608.414	42.6
608.606	42.47
608.799	42.58
608.991	42.55
609.183	42.58
609.375	42.47
609.567	42.39
609.759	42.42
609.952	42.46
610.144	42.38
610.336	42.65
610.528	42.42
610.72	42.4
610.912	42.35
611.104	42.64
611.296	42.7
611.488	42.69
611.68	42.89
611.872	42.79
612.064	42.9
612.256	43.07
612.448	43.14
612.64	43.22
612.832	43.76
613.023	43.78
613.215	43.69
613.407	43.81
613.599	43.82
613.791	43.72
613.983	43.77
614.174	43.9
614.366	44.09
614.558	43.97
614.75	43.81
614.941	43.51
615.133	43.45
615.325	43.66
615.516	43.52
615.708	43.53
615.9	43.38
616.091	43.49
616.283	43.5
616.475	43.46
616.666	43.59
616.858	43.8
617.049	43.66
617.241	43.54
617.432	43.18
617.624	43.32
617.815	43.45
618.007	43.67
618.198	43.83
618.39	43.68
618.581	43.66
618.773	43.62
618.964	43.72
619.155	43.85
619.347	44.07
619.538	44.21
619.729	43.95
619.921	44.14
620.112	44.26
620.303	44.15
620.494	44.34
620.686	44.27
620.877	44.22
621.068	44.04
621.259	44.15
621.451	44.29
621.642	44.27
621.833	44.48
622.024	44.32
622.215	44.04
622.406	44.1
622.597	44.05
622.788	44.06
622.98	44.08
623.171	44.18
623.362	44.15
623.553	44.17
623.744	44.01
623.935	44.01
624.126	44.02
624.317	44.29
624.508	44.42
624.698	44.41
624.889	44.5
625.08	44.93
625.271	45.02
625.462	44.79
625.653	44.65
625.844	44.78
626.034	44.65
626.225	44.64
626.416	44.34
626.607	44.22
626.798	44.31
626.988	44.39
627.179	44.03
627.37	44.04
627.56	44.24
627.751	44.25
627.942	44.13
628.132	44.16
628.323	44.18
628.514	44.47
628.704	44.42
628.895	44.35
629.085	44.22
629.276	44.35
629.466	44.55
629.657	44.53
629.847	44.74
630.038	45
630.228	45.04
630.419	45.16
630.609	45.32
630.8	45.23
630.99	45.22
631.181	45.19
631.371	45.14
631.561	44.98
631.752	45.11
631.942	44.97
632.132	44.95
632.323	45.02
632.513	44.93
632.703	44.77
632.893	44.95
633.084	44.92
633.274	44.94
633.464	44.84
633.654	44.79
633.844	44.53
634.034	44.44
634.225	44.44
634.415	44.41
634.605	44.67
634.795	44.55
634.985	44.8
635.175	44.75
635.365	44.76
635.555	45
635.745	44.92
635.935	45.12
636.125	45.1
636.315	45.05
636.505	45.06
636.695	44.71
636.885	44.76
637.075	44.45
637.265	44.73
637.455	44.69
637.644	44.69
637.834	45.12
638.024	44.97
638.214	45.08
638.404	45.24
638.593	45.43
638.783	45.44
638.973	45.77
639.163	45.73
639.352	45.68
639.542	46.06
639.732	46.16
639.921	45.91
640.111	46.06
640.301	46.24
640.49	46.06
640.68	45.87
640.87	46.11
641.059	46.04
641.249	45.91
641.438	45.87
641.628	45.74
641.817	45.79
642.007	46.09
642.196	46.11
642.386	46.35
642.575	46.99
642.764	47.03
642.954	46.56
643.143	46.63
643.333	47.23
643.522	47.3
643.711	47.04
643.901	46.9
644.09	46.99
644.279	47.42
644.469	47.08
644.658	46.81
644.847	47.14
645.036	47.42
645.226	47.05
645.415	47.03
645.604	46.87
645.793	47.33
645.982	47.35
646.171	47.13
646.361	47.17
646.55	47.21
646.739	47.04
646.928	47.03
647.117	47.16
647.306	47.45
647.495	47.14
647.684	47.23
647.873	46.83
648.062	46.98
648.251	47.48
648.44	46.94
648.629	46.96
648.818	47.16
649.007	46.48
649.196	46.69
649.384	46.41
649.573	46.43
649.762	46.35
649.951	46.43
650.14	46.38
650.328	46.01
650.517	46.23
650.706	46.39
650.895	46.33
651.083	46.93
651.272	46.73
651.461	47.21
651.65	47.58
651.838	47.04
652.027	47.17
652.216	46.73
652.404	46.61
652.593	46.69
652.781	46.52
652.97	46.61
653.158	46.22
653.347	46.59
653.535	46.27
653.724	45.7
653.912	46.47
654.101	46.6
654.289	47.01
654.478	46.93
654.666	47.08
654.855	47
655.043	46.37
655.231	46.5
655.42	46.73
655.608	47.13
655.796	47.51
655.985	47.39
656.173	47.23
656.361	47.2
656.55	47.24
656.738	46.93
656.926	47.3
657.114	47.92
657.302	47.84
657.491	47.1
657.679	46.7
657.867	46.26
658.055	46.3
658.243	46.04
658.431	45.93
658.619	45.83
658.807	46.06
658.996	45.77
659.184	45.35
659.372	45.51
659.56	45.62
659.748	45.44
659.936	45.78
660.124	45.91
660.311	46.31
660.499	46.41
660.687	46.53
660.875	46.69
661.063	46.74
661.251	46.98
661.439	47.27
661.627	47.3
661.814	48.04
662.002	48.01
662.19	47.95
662.378	47.82
662.565	47.82
662.753	48.05
662.941	48.01
663.129	48.03
663.316	48.5
663.504	48.24
663.692	48.38
663.879	48
664.067	48.11
664.254	48.34
664.442	48.53
664.63	48.89
664.817	48.86
665.005	48.53
665.192	48.73
665.38	48.43
665.567	48.24
665.755	48.49
665.942	48.62
666.13	48.87
666.317	48.66
666.504	48.65
666.692	48.7
666.879	48.67
667.067	48.94
667.254	48.85
667.441	49.13
667.629	49.34
667.816	49.24
668.003	48.99
668.19	48.83
668.378	48.95
668.565	48.77
668.752	48.64
668.939	48.55
669.127	48.66
669.314	48.5
669.501	48.27
669.688	48.15
669.875	48.24
670.062	48.6
670.249	48.86
670.436	48.84
670.623	48.78
670.81	48.67
670.997	48.62
671.184	48.1
671.371	48.75
671.558	48.85
671.745	49.36
671.932	49.09
672.119	48.96
672.306	48.64
672.493	48.51
672.68	48.48
672.867	48.67
673.054	49.15
673.24	49.81
673.427	49.76
673.614	49.57
673.801	49.53
673.988	49.84
674.174	49.78
674.361	49.82
674.548	49.75
674.734	50.26
674.921	50.1
675.108	50.1
675.294	49.54
675.481	49.6
675.668	49.75
675.854	49.34
676.041	49.32
676.227	49.51
676.414	49.78
676.601	50.42
676.787	50.16
676.974	50.31
677.16	49.9
677.347	50.21
677.533	49.7
677.719	49.41
677.906	49.89
678.092	49.7
678.279	49.5
678.465	49.03
678.651	48.46
678.838	48.54
679.024	48.13
679.21	48.27
679.397	48.21
679.583	48.2
679.769	48.44
679.955	47.96
680.142	48.34
680.328	48.55
680.514	48.55
680.7	48.51
680.886	48.6
681.073	48.89
681.259	48.64
681.445	48.77
681.631	49
681.817	49.19
682.003	49.25
682.189	48.84
682.375	48.82
682.561	49.21
682.747	49.51
682.933	49.24
683.119	49.36
683.305	49.47
683.491	49.39
683.677	49.12
683.863	49.1
684.049	49.37
684.235	49.33
684.42	49.04
684.606	49.03
684.792	48.98
684.978	48.68
685.164	48.55
685.349	48.63
685.535	48.98
685.721	48.72
685.907	48.57
686.092	48.42
686.278	48.79
686.464	48.83
686.649	48.73
686.835	48.54
687.021	49.35
687.206	49.41
687.392	49.4
687.577	49.38
687.763	49.48
687.948	49.45
688.134	49.03
688.319	49.03
688.505	49.23
688.69	49.4
688.876	49.55
689.061	49.26
689.247	49.39
689.432	49.42
689.618	48.91
689.803	49.3
689.988	49.52
690.174	50.07
690.359	50.15
690.544	49.89
690.73	49.93
690.915	49.99
691.1	50.16
691.285	50.39
691.471	50.97
691.656	51.32
691.841	51.2
692.026	51.15
692.211	51.63
692.396	51.73
692.582	52.03
692.767	52.43
692.952	52.45
693.137	52.03
693.322	51.96
693.507	51.59
693.692	51.63
693.877	52.05
694.062	51.97
694.247	51.7
694.432	51.59
694.617	52.14
694.802	51.69
694.987	52.26
695.172	52.57
695.357	52.95
695.541	53.12
695.726	53.21
695.911	53.55
696.096	53.57
696.281	53.76
696.466	53.38
696.65	52.72
696.835	52.65
697.02	51.96
697.204	51.62
697.389	51.38
697.574	50.43
697.759	50.34
697.943	50.23
698.128	50.05
698.312	49.55
698.497	49.37
698.682	49.4
698.866	49.15
699.051	49.3
699.235	49.51
699.42	49.27
699.604	49.7
699.789	49.3
699.973	48.67
700.158	49
700.342	49.16
700.527	49.65
700.711	49.98
700.895	50.12
701.08	50.38
701.264	50.52
701.448	50.62
701.633	51.09
701.817	51.42
702.001	52.66
702.186	52.2
702.37	52.33
702.554	51.78
702.738	51.45
702.923	51.4
703.107	50.96
703.291	50.79
703.475	50.38
703.659	50.32
703.843	50.73
704.027	50.15
704.212	50.78
704.396	50.99
704.58	51.2
704.764	51.6
704.948	51.9
705.132	51.92
705.316	52.17
705.5	52.95
705.684	52.77
705.868	52.95
706.052	52.96
706.235	52.54
706.419	52.72
706.603	52.99
706.787	52.38
706.971	53.3
707.155	53.12
707.339	53.54
707.522	53.39
707.706	53.44
707.89	52.97
708.074	52.88
708.257	52.85
708.441	52.66
708.625	52.65
708.808	52.92
708.992	52.16
709.176	52.83
709.359	52.55
709.543	52.28
709.727	52.1
709.91	51.9
710.094	52.25
710.277	52.6
710.461	52.61
710.644	52.66
710.828	52.36
711.011	52.09
711.195	51.88
711.378	51.81
711.562	51.75
711.745	51.97
711.928	51.58
712.112	50.62
712.295	50.44
712.478	50.35
712.662	50.45
712.845	50.33
713.028	50.34
713.212	50.06
713.395	49.94
713.578	50.34
713.761	50.22
713.945	50.79
714.128	51.05
714.311	51.08
714.494	51.03
714.677	50.54
714.86	50.73
715.043	50.73
715.227	51.06
715.41	51.13
715.593	51.02
715.776	50.84
715.959	51.34
716.142	51.61
716.325	50.96
716.508	51.44
716.691	52.26
716.874	52.43
717.057	52.21
717.239	51.86
717.422	51.29
717.605	51.42
717.788	51.61
717.971	51.47
718.154	51.36
718.337	52.37
718.519	52.2
718.702	52.32
718.885	52.16
719.068	52.69
719.25	53.42
719.433	54.07
719.616	54.02
719.798	54.18
719.981	54.97
720.164	55.61
720.346	55.26
720.529	55.62
720.712	55.2
720.894	55.37
721.077	55.14
721.259	54.97
721.442	54.75
721.624	55.09
721.807	55.5
721.989	54.84
722.172	54.66
722.354	54.45
722.537	54.77
722.719	54.43
722.901	55.14
723.084	55.81
723.266	55.36
723.448	55.64
723.631	55.33
723.813	54.6
723.995	53.97
724.178	53.6
724.36	54.5
724.542	53.65
724.724	54.16
724.907	54.63
725.089	54.55
725.271	55.15
725.453	54.43
725.635	54.68
725.817	55.89
725.999	56.45
726.181	57.67
726.364	56.59
726.546	57.15
726.728	57.32
726.91	56.31
727.092	56.62
727.274	56.5
727.456	57.24
727.638	57.2
727.819	55.67
728.001	55.74
728.183	54.91
728.365	55.87
728.547	55.27
728.729	55.33
728.911	54.94
729.093	54.02
729.274	53.26
729.456	53.16
729.638	52.61
729.82	53.1
730.001	52.24
730.183	51.7
730.365	51.76
730.546	51.93
730.728	51.46
730.91	51.63
731.091	52.19
731.273	52.79
731.455	52.03
731.636	52.56
731.818	52.77
731.999	53.32
732.181	53.54
732.362	52.52
732.544	52.92
732.725	53.03
732.907	53.93
733.088	54.33
733.27	54.8
733.451	55.85
733.633	56.59
733.814	56.61
733.995	56.63
734.177	57.2
734.358	57.49
734.539	58.1
734.721	57.72
734.902	56.89
735.083	56.31
735.264	56.53
735.446	56.67
735.627	55.81
735.808	55.03
735.989	55.58
736.17	55.82
736.351	55.94
736.533	54.91
736.714	55.38
736.895	56.46
737.076	56.61
737.257	55.6
737.438	54.77
737.619	55.19
737.8	55.93
737.981	55.77
738.162	55.72
738.343	56.04
738.524	55.78
738.705	55.29
738.886	54.77
739.067	54.76
739.247	55.38
739.428	55.92
739.609	54.92
739.79	55.56
739.971	54.91
740.151	54.31
740.332	54.52
740.513	54.2
740.694	55.42
740.874	55.47
741.055	55.16
741.236	55.21
741.417	55.37
741.597	55.55
741.778	55.11
741.958	55.21
742.139	55.93
742.32	55.79
742.5	56.28
742.681	56.1
742.861	55.44
743.042	55.31
743.222	54.58
743.403	53.92
743.583	54.43
743.764	54.82
743.944	54.82
744.124	53.78
744.305	53.02
744.485	52.83
744.666	52.54
744.846	52.85
745.026	53.74
745.207	54.01
745.387	55.85
745.567	56.79
745.747	56.11
745.928	56.22
746.108	57.27
746.288	57.3
746.468	57.61
746.648	57.65
746.829	57.71
747.009	57.39
747.189	57.28
747.369	55.95
747.549	55.07
747.729	55.22
747.909	55.68
748.089	55.36
748.269	55.76
748.449	56.73
748.629	55.94
748.809	57.49
748.989	57.87
749.169	58.36
749.349	58.34
749.529	58.49
749.709	58.78
749.889	59.48
750.068	58.24
750.248	58.47
750.428	57.83
750.608	58.71
750.788	56.62
750.967	56.05
751.147	56.14
751.327	56.21
751.507	55.72
751.686	56.23
751.866	56.05
752.046	57.03
752.225	57.36
752.405	58.55
752.585	59.14
752.764	59.88
752.944	60.43
753.123	60.1
753.303	60.94
753.482	61.93
753.662	61.78
753.841	60.42
754.021	61.55
754.2	61.57
754.38	60.08
754.559	58.72
754.739	58.07
754.918	57.25
755.097	56.59
755.277	55.73
755.456	55
755.635	54.77
755.815	55.16
755.994	53.84
756.173	52.89
756.352	52.54
756.532	52.87
756.711	52.75
756.89	52.7
757.069	53.45
757.248	52.62
757.427	52.2
757.607	52.32
757.786	53.19
757.965	52.89
758.144	53.21
758.323	54.77
758.502	54.93
758.681	56.05
758.86	56.46
759.039	56.54
759.218	58.08
759.397	59.03
759.576	58.44
759.755	57.44
759.934	58.64
760.113	59.21
760.291	57.7
760.47	58.37
760.649	58.49
760.828	58.86
761.007	58.75
761.186	58.24
761.364	57.45
761.543	56.67
761.722	56.63
761.901	55.41
762.079	55.29
762.258	55.37
762.437	54.67
762.615	53.17
762.794	52.66
762.972	52.43
763.151	52.15
763.33	52.82
763.508	53.4
763.687	52.63
763.865	53.27
764.044	52.43
764.222	52.48
764.401	52.82
764.579	53.34
764.758	53.35
764.936	53.73
765.114	53.18
765.293	53.21
765.471	53.17
765.65	55.15
765.828	54.79
766.006	56.35
766.184	56.64
766.363	56.28
766.541	56.01
766.719	57.46
766.898	57.78
767.076	58.28
767.254	57.7
767.432	57.9
767.61	57.49
767.788	58.32
767.967	57.75
768.145	58.5
768.323	58.58
768.501	58.8
768.679	58.05
768.857	58.13
769.035	58.47
769.213	58.74
769.391	59.53
769.569	59.47
769.747	59.8
769.925	59.79
770.103	58.08
770.281	58.54
770.459	60.03
770.636	59.57
770.814	59.95
770.992	61.2
771.17	60.91
771.348	60.94
771.525	62.19
771.703	61.3
771.881	62.97
772.059	64.07
772.236	64.11
772.414	64.04
772.592	64.5
772.769	63.81
772.947	61.41
773.125	62.34
773.302	62.45
773.48	61.15
773.657	61.8
773.835	58.6
774.013	59.2
774.19	60.54
774.368	58.9
774.545	58.5
774.723	60.32
774.9	62.65
775.077	63.17
775.255	62.54
775.432	62.33
775.61	62.62
775.787	65
775.964	65.35
776.142	64.53
776.319	66.56
776.496	67.95
776.674	65.51
776.851	64.77
777.028	64.21
777.205	65.03
777.382	65.31
777.56	65.33
777.737	66.68
777.914	64.17
778.091	63.12
778.268	63.01
778.445	62.19
778.622	62.95
778.8	63.14
778.977	62.64
779.154	68.28
779.331	69.11
779.508	71.25
779.685	70.83
779.862	71
780.038	71.43
780.215	71.71
780.392	71.31
780.569	71.18
780.746	71.72
780.923	72.34
781.1	66.75
781.277	65.04
781.453	62.11
781.63	60.43
781.807	61.6
781.984	62.08
782.16	61.85
782.337	62.01
782.514	61.85
782.691	63.63
782.867	61.56
783.044	59.74
783.221	60.31
783.397	60.1
783.574	59.77
783.75	61.31
783.927	61.02
784.103	60.11
784.28	61.06
784.456	61.27
784.633	60.28
784.809	62.4
784.986	61.52
785.162	61.93
785.339	62.18
785.515	62.85
785.692	62.13
785.868	64.5
786.044	65.62
786.221	64.69
786.397	64.36
786.573	64.32
786.749	63.67
786.926	68.31
787.102	67.55
787.278	68.03
787.454	67.96
787.631	68.1
787.807	65.15
787.983	64.94
788.159	63.15
788.335	63.93
788.511	63.18
788.687	62.86
788.863	61.81
789.039	62.03
789.216	60.29
789.392	60.06
789.568	60.05
789.744	61.69
789.919	61.1
790.095	60.52
790.271	60.15
790.447	59
790.623	59.72
790.799	58.71
790.975	58.27
791.151	60.11
791.327	61.08
791.502	60.96
791.678	59.43
791.854	59.85
792.03	62.02
792.205	62.36
792.381	63.39
792.557	64.21
792.733	64.79
792.908	63.35
793.084	62.27
793.259	62.95
793.435	61.83
793.611	62.59
793.786	61.57
793.962	61.2
794.137	60.93
794.313	61.28
794.488	61.4
794.664	62.06
794.839	63.77
795.015	64.17
795.19	63.25
795.366	64.54
795.541	63.88
795.716	64
795.892	65.02
796.067	64.25
796.242	62.61
796.418	60.53
796.593	61.01
796.768	60.9
796.944	61.48
797.119	58.89
797.294	57.55
797.469	57.16
797.644	58.25
797.82	58.47
797.995	56.51
798.17	57.5
798.345	58.49
798.52	57.05
798.695	56.78
798.87	56.69
799.045	60.21
799.22	62.87
799.395	64.69
799.57	64.49
799.745	63.51
799.92	66.05
800.095	67.82
800.27	67.93
800.445	68.64
800.62	69.05
800.795	71.76
800.97	70.98
801.145	68.44
801.319	68.92
801.494	68.17
801.669	68.13
801.844	68.52
802.018	68.24
802.193	69.12
802.368	68.45
802.543	66.3
802.717	64.05
802.892	62.87
803.067	64.39
803.241	62
803.416	63.95
803.59	64.78
803.765	63.5
803.94	64.3
804.114	60.22
804.289	62.51
804.463	64.59
804.638	64.4
804.812	66.47
804.986	64.96
805.161	65.33
805.335	62.89
805.51	60.65
805.684	62.31
805.858	61.09
806.033	62.7
806.207	61.08
806.381	62.76
806.556	63.09
806.73	61.64
806.904	61.43
807.078	62.45
807.253	65.22
807.427	66.14
807.601	64.79
807.775	64.61
807.949	66.25
808.123	67.13
808.298	65.54
808.472	67.02
808.646	66.43
808.82	68.6
808.994	69.67
809.168	68.9
809.342	71.5
809.516	73.08
809.69	73.78
809.864	74
810.038	75.72
810.212	76.56
810.385	74.06
810.559	77.6
810.733	78.5
810.907	77.25
811.081	74.74
811.255	73.92
811.428	73.07
811.602	74.12
811.776	75.13
811.95	72.97
812.123	74.01
812.297	74.83
812.471	72.9
812.644	71.05
812.818	72.34
812.992	72.82
813.165	72.48
813.339	72.93
813.512	69.63
813.686	70.04
813.86	68.98
814.033	66.81
814.207	66.45
814.38	66.48
814.554	63.91
814.727	63.54
814.9	67.07
815.074	69.04
815.247	68.83
815.421	68.02
815.594	67.8
815.767	68.39
815.941	69.54
816.114	70.28
816.287	71.97
816.46	73.77
816.634	71.79
816.807	72.4
816.98	68.15
817.153	71.37
817.327	71.59
817.5	71.65
817.673	73.77
817.846	72.72
818.019	71.33
818.192	68.76
818.365	66.94
818.538	68.39
818.711	60.99
818.884	63.7
819.057	59.89
819.23	61.81
819.403	61.23
819.576	59.82
819.749	60.84
819.922	62.12
820.095	62.26
820.268	63.34
820.441	60.79
820.614	61.39
820.786	58.69
820.959	58.42
821.132	57.16
821.305	54.98
821.477	53.46
821.65	52.73
821.823	51.59
821.996	50.04
822.168	49.22
822.341	49.43
822.514	49.49
822.686	49.17
822.859	48.92
823.031	48.47
823.204	49.03
823.376	48.92
823.549	48.91
823.722	48.88
823.894	49.54
824.067	49.66
824.239	50.06
824.411	50.09
824.584	50.69
824.756	50.51
824.929	51.04
825.101	51.21
825.273	51.95
825.446	51.87
825.618	52.1
825.79	51.95
825.963	51.84
826.135	51.61
826.307	51.39
826.479	51.71
826.652	51.56
826.824	51.19
826.996	49.46
827.168	50
827.34	50.37
827.512	50.2
827.684	49.68
827.856	50.71
828.029	51.12
828.201	52.2
828.373	52.57
828.545	54.23
828.717	54.9
828.889	56.28
829.061	55.42
829.232	55.43
829.404	56.22
829.576	57.65
829.748	56.95
829.92	58.4
830.092	59.15
830.264	57.98
830.436	57.22
830.607	57.93
830.779	59.12
830.951	59.02
831.123	57.83
831.294	57.05
831.466	56.28
831.638	56.52
831.809	54.51
831.981	56.05
832.153	56.51
832.324	55.72
832.496	56.29
832.667	56.27
832.839	56.8
833.011	59.03
833.182	58.32
833.354	58.63
833.525	59.68
833.697	57.98
833.868	52.54
834.039	55.04
834.211	55.08
834.382	53.42
834.554	54.04
834.725	53.41
834.896	51.74
835.068	52.31
835.239	51.94
835.41	51.9
835.581	53.56
835.753	56.68
835.924	54.49
836.095	55.44
836.266	54.47
836.438	53.3
836.609	54.51
836.78	55.74
836.951	57.27
837.122	56.8
837.293	58.09
837.464	57.47
837.635	59
837.806	60.56
837.977	61.32
838.148	67.41
838.319	69.76
838.49	69.25
838.661	72.04
838.832	69.91
839.003	71.61
839.174	69.98
839.345	70.96
839.516	70.47
839.687	69.75
839.857	72.24
840.028	70.55
840.199	67.49
840.37	69.31
840.54	72.5
840.711	71.6
840.882	73.83
841.053	74.23
841.223	74.56
841.394	72.84
841.564	76.87
841.735	74.27
841.906	73.29
842.076	67.31
842.247	70.23
842.417	70.43
842.588	73.58
842.758	70.17
842.929	72.26
843.099	75.82
843.27	77.16
843.44	75.63
843.611	73.36
843.781	70.14
843.951	79.27
844.122	79.87
844.292	79.55
844.462	81.28
844.633	84.09
844.803	85.93
844.973	84.39
845.144	87.21
845.314	88.47
845.484	94.32
845.654	100.95
845.824	104.61
845.995	102.92
846.165	97.05
846.335	98.56
846.505	100.2
846.675	100.9
846.845	106.27
847.015	108.2
847.185	104.77
847.355	104.75
847.525	105.43
847.695	114.61
847.865	115.48
848.035	123.24
848.205	112.56
848.375	119.87
848.545	96.13
848.715	90.97
848.884	88.57
849.054	96.61
849.224	93.65
849.394	91.46
849.564	81.2
849.733	76.54
849.903	80.7
850.073	85.55
850.243	85.1
850.412	89.85
850.582	92.2
850.752	97.73
850.921	96.2
851.091	103.91
851.26	113.13
851.43	113.25
851.599	111.78
851.769	108.57
851.939	111.11
852.108	113.91
852.278	129
852.447	120.62
852.616	117.31
852.786	108.6
852.955	103.35
853.125	107.84
853.294	109.04
853.463	107.22
853.633	109.58
853.802	103.19
853.971	100.06
854.141	94.47
854.31	88.24
854.479	86.78
854.648	96.08
854.818	86.22
854.987	78.32
855.156	82.02
855.325	93.12
855.494	97.05
855.663	99.78
855.832	95.93
856.001	107.94
856.171	118.29
856.34	123
856.509	121.34
856.678	137.2
856.847	138.24
857.016	140.47
857.185	131.63
857.353	127.96
857.522	134.22
857.691	145.45
857.86	141.79
858.029	127.59
858.198	132.31
858.367	128.2
858.535	134.07
858.704	126.44
858.873	118.87
859.042	125.63
859.21	129.12
859.379	140.11
859.548	128.99
859.717	123.46
859.885	128.66
860.054	118.22
860.222	113.85
860.391	122.35
860.56	120.14
860.728	119.89
860.897	116.34
861.065	106.23
861.234	95
861.402	100.89
861.571	100.4
861.739	108.84
861.908	112.88
862.076	131.01
862.244	126.47
862.413	129.41
862.581	138.78
862.749	129.77
862.918	122.68
863.086	124.97
863.254	132.6
863.423	135.67
863.591	139.09
863.759	135.9
863.927	127.92
864.096	111.86
864.264	103.92
864.432	97.81
864.6	109.3
864.768	109.32
864.936	109.54
865.104	107.95
865.272	110.52
865.44	109.41
865.608	103.36
865.776	97.44
865.944	106.69
866.112	121.03
866.28	124.04
866.448	118.64
866.616	115.91
866.784	118
866.952	116.13
867.12	108.55
867.288	103.89
867.455	100.07
867.623	111.47
867.791	102.31
867.959	95.44
868.127	92.62
868.294	97.94
868.462	101.26
868.63	99.54
868.797	100.56
868.965	109.23
869.133	111.01
869.3	116.64
869.468	110.83
869.636	105.28
869.803	113.63
869.971	113.53
870.138	110.46
870.306	112.43
870.473	107.1
870.641	93.77
870.808	90.08
870.975	92.37
871.143	102.18
871.31	94.66
871.478	122.57
871.645	110.88
871.812	110.58
871.98	108.89
872.147	106.38
872.314	104.05
872.482	104.96
872.649	110.22
872.816	99.88
872.983	88.96
873.15	91.78
873.318	76.79
873.485	81.16
873.652	80.47
873.819	80.42
873.986	64.43
874.153	68.86
874.32	70.94
874.487	68.53
874.654	76.2
874.821	81.08
874.988	89.96
875.155	86.38
875.322	87.82
875.489	92.2
875.656	82.57
875.823	90.96
875.99	93.8
876.157	96.84
876.324	90.31
876.49	96.5
876.657	87.37
876.824	75.38
876.991	86.67
877.157	82.96
877.324	74.82
877.491	85.82
877.658	86.93
877.824	77.82
877.991	81.59
878.157	77.76
878.324	72.89
878.491	79.8
878.657	94.45
878.824	85.79
878.99	80.72
879.157	91.14
879.323	79.93
879.49	80.25
879.656	83.47
879.823	79.23
879.989	80.69
880.156	80.97
880.322	77.45
880.488	73.32
880.655	77.78
880.821	81.66
880.987	83.15
881.154	81.2
881.32	78.86
881.486	77.73
881.652	76.98
881.819	75.8
881.985	70.35
882.151	67.3
882.317	64.88
882.483	60.3
882.649	63.21
882.816	58.69
882.982	57.74
883.148	58.17
883.314	56.44
883.48	57.73
883.646	56.75
883.812	55.8
883.978	56.72
884.144	57.26
884.31	55.9
884.476	54.31
884.642	55.02
884.807	57.37
884.973	57.43
885.139	57.89
885.305	57.56
885.471	58.38
885.637	60.31
885.802	58.77
885.968	57.88
886.134	60.74
886.3	60.53
886.465	59.92
886.631	57.67
886.797	58.97
886.962	59.45
887.128	58.99
887.293	62.32
887.459	66.8
887.625	72.08
887.79	78.79
887.956	80.29
888.121	83.37
888.287	85.88
888.452	94.57
888.618	96.54
888.783	111.3
