Data from LC_191_Reflection_3.txt Node
Date: Tue Nov 17 13:33:36 EST 2015
User: robert
Spectrometer: USB4E03001
Autoset integration time: false
Trigger mode: 4
Integration Time (sec): 1.000000E-1
Scans to average: 15
Electric dark correction enabled: true
Nonlinearity correction enabled: false
Boxcar width: 5
Stray light correction enabled: false
XAxis mode: Wavelengths
Stop averaging: false
Number of Pixels in Spectrum: 3648
>>>>>Begin Spectral Data<<<<<
177.566	65.21
177.785	98.27
178.005	-260.82
178.225	219.44
178.445	-394.95
178.665	-69.79
178.885	-16.11
179.105	-63.58
179.324	421.18
179.544	683.46
179.764	172.67
179.984	96.81
180.204	136.56
180.423	278.96
180.643	566.59
180.863	-2472.22
181.083	-3053.32
181.302	740.59
181.522	369.16
181.742	862.91
181.961	11097.06
182.181	-642.16
182.401	-146.37
182.621	-353.81
182.84	-391.8
183.06	-1031.91
183.279	1093.53
183.499	-6747.9
183.719	-601.92
183.938	-261.28
184.158	-489.06
184.377	-589.94
184.597	-532.29
184.816	481.54
185.036	506.28
185.256	581.59
185.475	334.27
185.695	418.11
185.914	326.09
186.134	360.58
186.353	203.77
186.572	225.79
186.792	186.63
187.011	202.76
187.231	671.64
187.45	2547.72
187.67	434.38
187.889	556.61
188.108	443.45
188.328	409.81
188.547	378.89
188.766	-1803.2
188.986	1664.59
189.205	507.11
189.424	606.53
189.644	479.57
189.863	346.06
190.082	394.54
190.302	417.01
190.521	518.19
190.74	11781.82
190.959	1649.69
191.178	410.89
191.398	356.27
191.617	917.97
191.836	624.67
192.055	364.51
192.274	-879.73
192.494	-445.13
192.713	-1478.44
192.932	-783.72
193.151	1561.85
193.37	21061.9
193.589	-734300
193.808	20152.81
194.027	-3054.89
194.246	-1403.94
194.465	6387.57
194.685	727.27
194.904	531.2
195.123	83508.33
195.342	1796.82
195.561	520.19
195.78	485.99
195.999	568.31
196.218	379.97
196.436	320.03
196.655	221.06
196.874	228.4
197.093	202.24
197.312	172.39
197.531	133.01
197.75	129.65
197.969	145.16
198.188	124.83
198.407	135.2
198.625	156.08
198.844	135.81
199.063	105.92
199.282	148.73
199.501	151.03
199.719	254.7
199.938	295.91
200.157	318.42
200.376	984.52
200.594	555.51
200.813	344.03
201.032	443.97
201.251	459.83
201.469	6386.07
201.688	1903.2
201.907	-8525.42
202.125	2432.92
202.344	2259
202.563	1989.18
202.781	1135.73
203	-1149.29
203.218	-239.19
203.437	-385.09
203.656	-204.11
203.874	-641
204.093	-969.2
204.311	-1028.82
204.53	20572.37
204.748	-932.76
204.967	4470.2
205.185	1041.05
205.404	511.58
205.622	434.74
205.841	319.67
206.059	396.15
206.278	312.16
206.496	274.86
206.715	251.88
206.933	264.15
207.151	218.66
207.37	187.59
207.588	211.79
207.806	255.69
208.025	235.45
208.243	240.23
208.461	247.97
208.68	385.95
208.898	-627.21
209.116	-1393.1
209.335	3363.76
209.553	-2333.53
209.771	1101.14
209.989	357.17
210.208	439.61
210.426	432.04
210.644	430.6
210.862	306.63
211.081	210.43
211.299	157.7
211.517	168.55
211.735	165.75
211.953	170.4
212.171	183.93
212.39	476.32
212.608	479.95
212.826	657.2
213.044	689.98
213.262	662.05
213.48	-27391.04
213.698	-1507.52
213.916	684.57
214.134	-1475.17
214.352	-461.21
214.57	-512.35
214.788	4923.44
215.006	1576.27
215.224	1317.79
215.442	835.12
215.66	908.45
215.878	632.43
216.096	258.46
216.314	300.45
216.532	182.7
216.75	138.8
216.968	147.51
217.185	165.71
217.403	204.1
217.621	202.98
217.839	209.37
218.057	211.19
218.275	197.98
218.492	222.6
218.71	235.21
218.928	261.74
219.146	310.06
219.363	333.5
219.581	252.13
219.799	218.08
220.017	229.24
220.234	230.38
220.452	205.92
220.67	179.59
220.887	204.9
221.105	192.6
221.323	169.41
221.54	124
221.758	114.29
221.976	118.74
222.193	103.96
222.411	94.17
222.629	91.78
222.846	91.77
223.064	94.18
223.281	89.05
223.499	99.32
223.716	108.18
223.934	116.65
224.151	107.15
224.369	100.29
224.586	122.96
224.804	123.39
225.021	136.48
225.239	132.8
225.456	129.35
225.674	115.07
225.891	94.71
226.108	92.56
226.326	86.05
226.543	84.67
226.76	86.85
226.978	74.04
227.195	70.02
227.413	55.33
227.63	50.29
227.847	47.44
228.064	45.3
228.282	47.55
228.499	47.98
228.716	44.02
228.934	43.88
229.151	39.97
229.368	36.51
229.585	34.84
229.802	36.94
230.02	37.97
230.237	38.75
230.454	39.32
230.671	39.65
230.888	36.56
231.105	38.68
231.323	34.67
231.54	35.96
231.757	42.96
231.974	45.42
232.191	39.94
232.408	40.24
232.625	41.46
232.842	41.42
233.059	44.03
233.276	49.45
233.493	46.76
233.71	50.23
233.927	49.46
234.144	45.19
234.361	44.96
234.578	49.56
234.795	44.59
235.012	44.74
235.229	42.24
235.446	34.59
235.663	30.07
235.879	35.28
236.096	38.58
236.313	40.39
236.53	35.76
236.747	33.07
236.964	33.48
237.181	35.55
237.397	32.94
237.614	34.36
237.831	38.29
238.048	40.69
238.264	43.08
238.481	37.53
238.698	30.99
238.915	36.92
239.131	38.76
239.348	40.13
239.565	38.06
239.781	42.03
239.998	39.55
240.215	35.96
240.431	31.74
240.648	24.56
240.865	24.15
241.081	27.38
241.298	24.96
241.514	24.59
241.731	22.38
241.947	22.19
242.164	17.3
242.38	14.44
242.597	16.33
242.814	16.51
243.03	18.05
243.246	18.76
243.463	18.45
243.679	18.99
243.896	18.28
244.112	17.76
244.329	18.52
244.545	22.8
244.762	26.79
244.978	24.87
245.194	26.53
245.411	26.39
245.627	27.53
245.843	26.88
246.06	24.83
246.276	22.46
246.492	20.61
246.709	19.02
246.925	17.12
247.141	17.15
247.357	17.01
247.574	17.04
247.79	16.69
248.006	14.81
248.222	14.49
248.439	14.34
248.655	14.68
248.871	15.08
249.087	16.1
249.303	17.94
249.519	18
249.736	19.25
249.952	19.1
250.168	22.15
250.384	23.96
250.6	23.9
250.816	24.12
251.032	23.57
251.248	24.1
251.464	23.97
251.68	20.68
251.896	20.65
252.112	17.88
252.328	18.56
252.544	16.75
252.76	17.39
252.976	17.44
253.192	18.12
253.408	19.8
253.624	21.75
253.84	22.41
254.056	23.49
254.272	22.54
254.487	25.86
254.703	25.79
254.919	24.8
255.135	25.2
255.351	23.72
255.567	24.93
255.782	22.26
255.998	19.27
256.214	18.12
256.43	17.96
256.646	20.82
256.861	19
257.077	18.98
257.293	22.07
257.508	21.66
257.724	22.73
257.94	21.11
258.155	21.63
258.371	22
258.587	18.94
258.802	17.76
259.018	15.28
259.234	14.27
259.449	14.04
259.665	13.32
259.88	13.06
260.096	13.12
260.312	12.88
260.527	12.51
260.743	12.07
260.958	12.58
261.174	13.09
261.389	13.57
261.605	14.17
261.82	14.01
262.036	13.03
262.251	11.75
262.466	9.27
262.682	10.8
262.897	11.33
263.113	10.45
263.328	9.85
263.543	10.14
263.759	12.84
263.974	13.69
264.189	14.1
264.405	16.36
264.62	20.1
264.835	22.56
265.051	21.89
265.266	22.54
265.481	23.8
265.696	25.06
265.912	24.93
266.127	20.68
266.342	18.21
266.557	17.04
266.773	16.74
266.988	15.67
267.203	15.92
267.418	17.01
267.633	16.03
267.848	15.62
268.064	13.09
268.279	11.92
268.494	13.11
268.709	14.18
268.924	15.78
269.139	14.7
269.354	15.67
269.569	15.52
269.784	12.68
269.999	12.65
270.214	13
270.429	14.7
270.644	14.51
270.859	14.59
271.074	15.59
271.289	15.14
271.504	14.74
271.719	13.73
271.934	13.24
272.149	13.74
272.363	14.83
272.578	14.59
272.793	14.31
273.008	14.52
273.223	14.56
273.438	13.99
273.653	14.49
273.867	15.27
274.082	15.06
274.297	14.68
274.512	15.19
274.726	13.56
274.941	13.36
275.156	15.16
275.371	15.19
275.585	15.95
275.8	15.97
276.015	14.13
276.229	12.66
276.444	11.99
276.659	12.27
276.873	11.81
277.088	12.51
277.302	11.72
277.517	10.22
277.732	9.57
277.946	8.43
278.161	9.29
278.375	10.52
278.59	12.34
278.804	12.02
279.019	14.51
279.233	14.46
279.448	14.02
279.662	15.01
279.877	14.04
280.091	14.31
280.306	14.06
280.52	13.17
280.735	12.77
280.949	11.94
281.163	13.62
281.378	12.97
281.592	13.51
281.806	13.36
282.021	12.79
282.235	13.31
282.449	14.56
282.664	15.14
282.878	15.64
283.092	15.54
283.307	16.35
283.521	16.13
283.735	13.61
283.949	11.97
284.164	12.13
284.378	11.49
284.592	11.87
284.806	10.68
285.02	9.95
285.234	9.14
285.449	9.07
285.663	8.86
285.877	8.94
286.091	10.12
286.305	10.96
286.519	10.79
286.733	11.86
286.947	11.87
287.161	11.75
287.375	12.71
287.589	12.89
287.803	13.19
288.017	12.91
288.231	11.88
288.445	11.64
288.659	11.88
288.873	12.17
289.087	13.02
289.301	13.3
289.515	14.25
289.729	13.8
289.943	13.51
290.157	13.32
290.371	12.69
290.584	13.58
290.798	13.75
291.012	14.25
291.226	14.92
291.44	13.79
291.654	13.37
291.867	12.42
292.081	11.35
292.295	11.6
292.509	10.93
292.722	11.96
292.936	11.84
293.15	12.48
293.364	12.2
293.577	11.88
293.791	11.18
294.005	12.23
294.218	12.54
294.432	14.47
294.645	14.04
294.859	14.44
295.073	13.54
295.286	13.21
295.5	12.85
295.713	12.51
295.927	11.66
296.14	11.55
296.354	10.26
296.568	10.52
296.781	10.36
296.994	11.19
297.208	11.32
297.421	11.33
297.635	11
297.848	10.29
298.062	10.35
298.275	10.98
298.489	11.72
298.702	12.34
298.915	12.4
299.129	11.97
299.342	11.85
299.555	11.38
299.769	11.97
299.982	12.34
300.195	12.79
300.409	12.77
300.622	12.59
300.835	12.12
301.048	11.99
301.262	11.79
301.475	11.45
301.688	11.77
301.901	12.65
302.115	13.77
302.328	14.46
302.541	15.22
302.754	14.7
302.967	14.49
303.18	15.04
303.393	15.19
303.607	15.06
303.82	16.09
304.033	14.67
304.246	13.78
304.459	12.1
304.672	12.04
304.885	11.35
305.098	12.84
305.311	13.91
305.524	13.38
305.737	13.82
305.95	14.42
306.163	12.18
306.376	13.15
306.589	14.28
306.802	14.88
307.015	14.88
307.228	16.15
307.44	14.85
307.653	14.24
307.866	14.6
308.079	13.88
308.292	13.67
308.505	14.9
308.718	15
308.93	14
309.143	13.64
309.356	13.39
309.569	12.45
309.781	13.56
309.994	11.84
310.207	12.11
310.42	11.12
310.632	10.08
310.845	10.68
311.058	10.07
311.27	10.04
311.483	9.69
311.696	9.4
311.908	9.68
312.121	8.62
312.333	9.65
312.546	8.73
312.759	9.42
312.971	10.62
313.184	11.11
313.396	11.44
313.609	12.32
313.821	14.37
314.034	15.58
314.246	16.01
314.459	16.51
314.671	15.59
314.884	16.93
315.096	17.64
315.309	17.81
315.521	17.46
315.733	17.77
315.946	17.46
316.158	17.03
316.371	16.55
316.583	16.6
316.795	17.31
317.008	18.43
317.22	16.45
317.432	17.28
317.644	15.82
317.857	14.62
318.069	15.56
318.281	16.28
318.494	16.03
318.706	15.77
318.918	15.88
319.13	16.49
319.342	17.14
319.555	16.95
319.767	15.81
319.979	16.69
320.191	17.83
320.403	16.09
320.615	15.86
320.827	14.12
321.039	15.26
321.252	13.84
321.464	11.96
321.676	11.91
321.888	14.36
322.1	14.69
322.312	14.39
322.524	14.58
322.736	15.06
322.948	14.84
323.16	14.43
323.372	13.3
323.584	14.82
323.796	15.37
324.007	15.41
324.219	15.93
324.431	16.27
324.643	16.31
324.855	15.9
325.067	15.77
325.279	15.97
325.491	16.97
325.702	17.33
325.914	17.09
326.126	17.08
326.338	16.91
326.55	14.87
326.761	14.82
326.973	15.2
327.185	14.91
327.396	15.2
327.608	14.92
327.82	14.67
328.032	14.52
328.243	14.06
328.455	14.35
328.666	14.37
328.878	15.58
329.09	14.94
329.301	14.9
329.513	15.41
329.725	16.02
329.936	16.44
330.148	17.63
330.359	17.78
330.571	17.61
330.782	17.41
330.994	18.03
331.205	18.02
331.417	17.94
331.628	18.18
331.84	18.55
332.051	17.66
332.262	17.77
332.474	17.52
332.685	17.64
332.897	17.6
333.108	17.76
333.319	17.2
333.531	16.8
333.742	17.01
333.953	16.24
334.165	15.39
334.376	16.28
334.587	15.81
334.799	15.55
335.01	15.82
335.221	15.28
335.432	13.98
335.644	14.56
335.855	14.64
336.066	15.75
336.277	16.46
336.488	17.28
336.7	16.68
336.911	16.54
337.122	16.73
337.333	16.31
337.544	18.23
337.755	19.57
337.966	19.22
338.177	19.86
338.388	18.49
338.599	18.16
338.811	17.93
339.022	17.74
339.233	16.82
339.444	16.14
339.655	16.73
339.866	15.33
340.076	14.6
340.287	14.69
340.498	14.77
340.709	15.8
340.92	15.92
341.131	15.46
341.342	15.91
341.553	17.49
341.764	17.98
341.975	17.61
342.185	17.26
342.396	17.33
342.607	17.38
342.818	18.11
343.029	17.48
343.239	17.61
343.45	17.36
343.661	17.15
343.872	16.72
344.082	16.92
344.293	16.57
344.504	17.92
344.714	17.09
344.925	17.53
345.136	16.02
345.346	15.7
345.557	14.85
345.768	15.96
345.978	15.91
346.189	16.21
346.399	16.05
346.61	16.05
346.821	14.97
347.031	15.98
347.242	14.94
347.452	15.49
347.663	15.46
347.873	17.02
348.084	15.18
348.294	15.71
348.504	14.64
348.715	15.08
348.925	15.07
349.136	14.52
349.346	13.65
349.557	13.48
349.767	12.67
349.977	12.35
350.188	11.38
350.398	12.74
350.608	12.6
350.819	12.53
351.029	11.7
351.239	12.49
351.449	13.6
351.66	14.39
351.87	14.52
352.08	14.92
352.29	16.02
352.501	15.51
352.711	15.42
352.921	15.55
353.131	16.15
353.341	16.87
353.552	15.57
353.762	15.42
353.972	15.22
354.182	16.51
354.392	17.03
354.602	17.33
354.812	17.67
355.022	17.55
355.232	16.37
355.442	16.28
355.652	15.9
355.862	16.43
356.072	16.05
356.282	16.36
356.492	15.39
356.702	14.93
356.912	14.66
357.122	15.08
357.332	15.09
357.542	15.43
357.752	15.44
357.962	15.73
358.171	15.26
358.381	15.21
358.591	14.78
358.801	15.04
359.011	15.02
359.221	14.79
359.43	14.37
359.64	13.59
359.85	13.51
360.06	13.69
360.269	13.28
360.479	13.31
360.689	12.67
360.899	12.84
361.108	12.45
361.318	12.2
361.528	11.72
361.737	11.68
361.947	11.6
362.156	11.62
362.366	11.44
362.576	11.02
362.785	11.3
362.995	11.83
363.204	11.77
363.414	11.73
363.623	11.99
363.833	12.32
364.042	12.3
364.252	12.32
364.461	12.11
364.671	12.1
364.88	12.1
365.09	12.06
365.299	11.88
365.509	11.73
365.718	12.09
365.927	11.82
366.137	12.2
366.346	12.42
366.555	12.55
366.765	12.49
366.974	12.3
367.183	12.69
367.393	12.48
367.602	12.62
367.811	12.58
368.021	12.41
368.23	12.74
368.439	12.35
368.648	11.94
368.857	12.1
369.067	12.91
369.276	13.14
369.485	13.3
369.694	13.39
369.903	13.16
370.112	13.45
370.321	13.56
370.531	12.86
370.74	12.29
370.949	12.08
371.158	12.6
371.367	12.07
371.576	12.09
371.785	11.71
371.994	11.64
372.203	11.5
372.412	11.17
372.621	10.88
372.83	11.14
373.039	11.67
373.248	11.78
373.457	11.57
373.666	11.51
373.874	10.88
374.083	10.9
374.292	10.83
374.501	11.29
374.71	11.18
374.919	11.19
375.128	11.17
375.336	11.36
375.545	11.5
375.754	11.09
375.963	11.13
376.171	11.38
376.38	12
376.589	12.21
376.798	11.73
377.006	11.81
377.215	12.15
377.424	12.53
377.632	11.96
377.841	12.28
378.05	12.47
378.258	12.47
378.467	12.46
378.675	11.81
378.884	11.67
379.093	11.88
379.301	11.91
379.51	11.43
379.718	11.02
379.927	11.15
380.135	10.43
380.344	10.57
380.552	10.35
380.761	10.28
380.969	10.99
381.177	10.85
381.386	10.48
381.594	10.22
381.803	10.33
382.011	10.75
382.219	10.92
382.428	11.11
382.636	10.94
382.845	11.2
383.053	11.32
383.261	10.67
383.469	10.93
383.678	11.52
383.886	11.56
384.094	11.31
384.302	10.79
384.511	10.48
384.719	10.41
384.927	10.56
385.135	10.57
385.343	10.65
385.552	10.68
385.76	10.33
385.968	10.14
386.176	10.2
386.384	10.56
386.592	10.6
386.8	11.06
387.008	11.18
387.216	11.13
387.424	10.84
387.633	10.75
387.841	10.87
388.049	11.29
388.257	11.19
388.465	11.21
388.672	11.02
388.88	10.97
389.088	10.64
389.296	11.09
389.504	11.25
389.712	11.18
389.92	10.85
390.128	10.72
390.336	10.31
390.544	10.19
390.751	10.06
390.959	10.1
391.167	10.23
391.375	10.35
391.583	9.68
391.79	9.11
391.998	9.29
392.206	9.53
392.414	9.31
392.621	9.38
392.829	9.46
393.037	9.44
393.244	9.26
393.452	9.11
393.66	8.77
393.867	8.79
394.075	8.92
394.283	8.8
394.49	8.75
394.698	9.1
394.905	9
395.113	9.19
395.32	9.03
395.528	9.09
395.735	8.99
395.943	9.18
396.15	9.34
396.358	9.56
396.565	9.29
396.773	9.23
396.98	9.18
397.188	9.23
397.395	9.13
397.602	9.52
397.81	9.5
398.017	9.55
398.225	9.97
398.432	9.93
398.639	9.75
398.847	10.33
399.054	10.15
399.261	10.07
399.468	9.92
399.676	10.09
399.883	10
400.09	9.96
400.297	10.43
400.505	10.01
400.712	10.25
400.919	10.22
401.126	9.89
401.333	10.31
401.54	10.04
401.748	10.23
401.955	9.85
402.162	9.9
402.369	9.95
402.576	9.65
402.783	9.35
402.99	8.98
403.197	9.05
403.404	9.05
403.611	8.61
403.818	8.57
404.025	8.52
404.232	8.4
404.439	8.3
404.646	8.35
404.853	8.54
405.06	8.88
405.267	8.9
405.474	8.61
405.681	8.58
405.887	9.06
406.094	9.18
406.301	9.15
406.508	9.24
406.715	9.15
406.922	9.17
407.128	9.01
407.335	8.86
407.542	8.91
407.749	9.37
407.955	9.46
408.162	9.39
408.369	9.4
408.575	9.55
408.782	9.59
408.989	9.61
409.195	9.8
409.402	9.65
409.609	9.53
409.815	9.5
410.022	9.16
410.228	8.92
410.435	8.64
410.642	8.72
410.848	8.73
411.055	8.8
411.261	8.77
411.468	8.83
411.674	8.98
411.881	9.05
412.087	9.38
412.294	9.58
412.5	9.71
412.706	9.64
412.913	9.39
413.119	9.33
413.326	9.36
413.532	9.23
413.738	8.78
413.945	8.43
414.151	8.58
414.357	8.71
414.564	8.55
414.77	8.61
414.976	9.01
415.182	9.31
415.389	8.97
415.595	8.87
415.801	8.94
416.007	9.09
416.214	9.24
416.42	9.08
416.626	8.61
416.832	8.62
417.038	8.8
417.244	8.52
417.45	8.66
417.657	8.67
417.863	8.64
418.069	8.64
418.275	8.43
418.481	8.56
418.687	8.53
418.893	8.61
419.099	8.45
419.305	8.39
419.511	8.45
419.717	8.22
419.923	8.24
420.129	8.09
420.335	8.05
420.541	7.99
420.746	7.81
420.952	7.78
421.158	7.67
421.364	7.65
421.57	7.63
421.776	7.49
421.982	7.47
422.187	7.46
422.393	7.47
422.599	7.4
422.805	7.43
423.01	7.51
423.216	7.48
423.422	7.75
423.628	7.84
423.833	7.73
424.039	7.75
424.245	7.74
424.45	7.78
424.656	7.84
424.862	7.85
425.067	7.82
425.273	7.9
425.478	8.02
425.684	7.76
425.889	8.01
426.095	8.05
426.301	7.99
426.506	8.1
426.712	8.03
426.917	8.07
427.123	8.17
427.328	8.41
427.533	8.29
427.739	8.11
427.944	8.08
428.15	7.56
428.355	7.53
428.561	7.67
428.766	7.31
428.971	7.45
429.177	7.54
429.382	7.49
429.587	7.24
429.793	7.51
429.998	7.53
430.203	7.8
430.408	7.98
430.614	7.93
430.819	7.97
431.024	8.2
431.229	8.23
431.434	8.15
431.64	8.26
431.845	8.58
432.05	8.42
432.255	8.45
432.46	8.53
432.665	8.63
432.87	8.58
433.076	8.42
433.281	8.62
433.486	8.44
433.691	8.45
433.896	8.3
434.101	8.05
434.306	8.11
434.511	8.22
434.716	8.05
434.921	8.06
435.126	8.27
435.331	8.3
435.535	8.24
435.74	8.25
435.945	8.32
436.15	8.26
436.355	8.54
436.56	8.39
436.765	8.38
436.97	8.38
437.174	8.32
437.379	8.12
437.584	8.34
437.789	8.06
437.993	8.17
438.198	8.26
438.403	8.28
438.608	8.08
438.812	7.92
439.017	7.81
439.222	7.79
439.426	7.75
439.631	7.8
439.836	7.76
440.04	7.75
440.245	7.72
440.45	7.39
440.654	7.36
440.859	7.38
441.063	7.51
441.268	7.55
441.472	7.7
441.677	7.77
441.881	7.8
442.086	7.73
442.29	7.88
442.495	8.03
442.699	8.3
442.904	8.48
443.108	8.35
443.312	8.49
443.517	8.5
443.721	8.3
443.925	8.2
444.13	8.1
444.334	8.12
444.538	8.02
444.743	7.74
444.947	7.69
445.151	7.53
445.356	7.66
445.56	7.61
445.764	7.53
445.968	7.59
446.173	7.63
446.377	7.67
446.581	7.59
446.785	7.61
446.989	7.64
447.193	7.7
447.398	7.82
447.602	7.79
447.806	7.71
448.01	7.73
448.214	7.69
448.418	7.65
448.622	7.74
448.826	7.74
449.03	7.8
449.234	7.99
449.438	7.75
449.642	7.77
449.846	7.98
450.05	7.89
450.254	7.87
450.458	7.93
450.662	7.92
450.866	7.81
451.069	7.99
451.273	7.92
451.477	7.88
451.681	8.12
451.885	7.99
452.089	7.71
452.292	7.68
452.496	7.63
452.7	7.53
452.904	7.7
453.107	7.68
453.311	7.59
453.515	7.58
453.719	7.56
453.922	7.44
454.126	7.55
454.33	7.63
454.533	7.64
454.737	7.78
454.94	7.71
455.144	7.51
455.348	7.52
455.551	7.47
455.755	7.63
455.958	7.53
456.162	7.53
456.365	7.29
456.569	7.24
456.772	7.5
456.976	7.54
457.179	7.71
457.383	7.77
457.586	7.83
457.79	7.85
457.993	7.92
458.196	7.89
458.4	8
458.603	8.25
458.807	8.16
459.01	8.07
459.213	7.95
459.417	7.82
459.62	7.9
459.823	7.77
460.026	7.65
460.23	7.49
460.433	7.47
460.636	7.35
460.839	7.15
461.042	7.22
461.246	7.2
461.449	7.33
461.652	7.5
461.855	7.43
462.058	7.53
462.261	7.72
462.464	7.61
462.668	7.68
462.871	7.8
463.074	8
463.277	8
463.48	8.12
463.683	8.03
463.886	8.09
464.089	8.04
464.292	7.92
464.495	7.88
464.698	8.04
464.901	8.15
465.104	8.19
465.306	8.11
465.509	8.09
465.712	7.86
465.915	8.13
466.118	7.86
466.321	7.87
466.524	7.91
466.726	7.99
466.929	8.05
467.132	7.97
467.335	7.9
467.538	7.92
467.74	7.82
467.943	7.88
468.146	7.47
468.348	7.56
468.551	7.58
468.754	7.73
468.956	7.69
469.159	7.69
469.362	7.65
469.564	7.67
469.767	7.65
469.969	7.78
470.172	7.99
470.375	8.05
470.577	7.99
470.78	7.91
470.982	7.7
471.185	7.62
471.387	7.48
471.59	7.67
471.792	7.56
471.995	7.68
472.197	7.65
472.399	7.47
472.602	7.56
472.804	7.72
473.007	7.69
473.209	7.87
473.411	7.89
473.614	7.92
473.816	7.84
474.018	7.96
474.22	7.71
474.423	7.86
474.625	7.72
474.827	7.61
475.03	7.57
475.232	7.63
475.434	7.47
475.636	7.58
475.838	7.68
476.04	7.58
476.243	7.48
476.445	7.4
476.647	7.35
476.849	7.38
477.051	7.5
477.253	7.52
477.455	7.53
477.657	7.55
477.859	7.47
478.061	7.41
478.263	7.27
478.465	7.36
478.667	7.44
478.869	7.34
479.071	7.41
479.273	7.39
479.475	7.31
479.677	7.35
479.879	7.42
480.081	7.47
480.283	7.51
480.485	7.46
480.686	7.44
480.888	7.44
481.09	7.41
481.292	7.33
481.494	7.19
481.695	7.2
481.897	7.05
482.099	7.04
482.301	7
482.502	6.96
482.704	7.09
482.906	7.04
483.107	7.01
483.309	6.93
483.511	6.93
483.712	6.91
483.914	6.87
484.115	6.85
484.317	6.82
484.519	6.79
484.72	6.78
484.922	6.76
485.123	6.76
485.325	6.76
485.526	6.8
485.728	6.79
485.929	6.83
486.131	6.84
486.332	6.88
486.534	6.85
486.735	6.86
486.936	6.86
487.138	6.85
487.339	6.81
487.541	6.83
487.742	6.83
487.943	6.84
488.144	6.82
488.346	6.84
488.547	6.87
488.748	6.88
488.95	6.91
489.151	6.89
489.352	6.86
489.553	6.93
489.755	6.96
489.956	6.95
490.157	6.95
490.358	7
490.559	6.95
490.76	6.96
490.961	7
491.163	7.02
491.364	7.03
491.565	7.07
491.766	6.96
491.967	7
492.168	7
492.369	7.01
492.57	7.05
492.771	7.12
492.972	7.17
493.173	7.2
493.374	7.25
493.575	7.3
493.776	7.3
493.976	7.44
494.177	7.38
494.378	7.47
494.579	7.59
494.78	7.56
494.981	7.43
495.182	7.34
495.382	7.36
495.583	7.33
495.784	7.38
495.985	7.34
496.185	7.39
496.386	7.39
496.587	7.45
496.788	7.48
496.988	7.44
497.189	7.43
497.39	7.42
497.59	7.43
497.791	7.39
497.992	7.34
498.192	7.44
498.393	7.37
498.593	7.56
498.794	7.43
498.994	7.43
499.195	7.4
499.395	7.66
499.596	7.69
499.796	7.55
499.997	7.48
500.197	7.63
500.398	7.67
500.598	7.76
500.799	7.68
500.999	7.74
501.199	7.58
501.4	7.78
501.6	7.58
501.801	7.62
502.001	7.77
502.201	7.95
502.402	7.85
502.602	7.69
502.802	7.62
503.002	7.59
503.203	7.65
503.403	7.72
503.603	7.61
503.803	7.65
504.003	7.64
504.204	7.66
504.404	7.73
504.604	7.69
504.804	8.01
505.004	7.94
505.204	7.84
505.404	7.84
505.604	7.86
505.804	7.79
506.005	7.69
506.205	7.7
506.405	7.67
506.605	7.51
506.805	7.63
507.005	7.4
507.204	7.38
507.404	7.43
507.604	7.55
507.804	7.61
508.004	7.83
508.204	7.98
508.404	8.15
508.604	8.12
508.804	8.13
509.003	8.18
509.203	8.19
509.403	8.36
509.603	8.44
509.803	8.25
510.002	8.16
510.202	8.1
510.402	8.13
510.602	7.96
510.801	7.98
511.001	7.9
511.201	7.76
511.4	7.6
511.6	7.48
511.8	7.28
511.999	7.44
512.199	7.45
512.398	7.49
512.598	7.5
512.797	7.61
512.997	7.66
513.197	7.78
513.396	7.85
513.596	7.92
513.795	8.08
513.994	8.3
514.194	8.36
514.393	8.56
514.593	8.42
514.792	8.49
514.992	8.67
515.191	8.87
515.39	8.96
515.59	9
515.789	9.3
515.988	9.21
516.188	9.22
516.387	9.2
516.586	8.98
516.786	9.11
516.985	8.93
517.184	8.82
517.383	8.63
517.582	8.51
517.782	8.57
517.981	8.4
518.18	8.44
518.379	8.42
518.578	8.31
518.777	8.29
518.976	8.28
519.176	8.38
519.375	8.29
519.574	8.4
519.773	8.46
519.972	8.35
520.171	8.42
520.37	8.46
520.569	8.57
520.768	8.71
520.967	8.79
521.166	8.82
521.365	8.87
521.564	8.99
521.762	8.96
521.961	8.97
522.16	9.03
522.359	9.05
522.558	9.03
522.757	8.97
522.956	8.94
523.154	8.94
523.353	8.82
523.552	8.74
523.751	8.65
523.949	8.65
524.148	8.7
524.347	8.64
524.546	8.57
524.744	8.58
524.943	8.54
525.142	8.62
525.34	8.61
525.539	8.67
525.737	8.77
525.936	8.85
526.135	8.81
526.333	8.79
526.532	8.95
526.73	8.94
526.929	8.95
527.127	8.92
527.326	8.83
527.524	8.85
527.723	8.92
527.921	8.95
528.12	8.92
528.318	8.94
528.516	8.98
528.715	8.95
528.913	9
529.112	9.03
529.31	9.04
529.508	9.12
529.707	9.14
529.905	9.16
530.103	9.14
530.301	9.14
530.5	9.19
530.698	9.2
530.896	9.19
531.094	9.27
531.293	9.26
531.491	9.4
531.689	9.39
531.887	9.62
532.085	9.69
532.283	9.76
532.481	9.8
532.68	9.73
532.878	9.71
533.076	9.79
533.274	9.94
533.472	9.99
533.67	9.97
533.868	10.07
534.066	9.96
534.264	9.95
534.462	9.9
534.66	10
534.858	10.08
535.056	10.13
535.253	10.17
535.451	10.01
535.649	9.96
535.847	9.99
536.045	10.06
536.243	10.09
536.441	10.06
536.638	10.23
536.836	10.24
537.034	10.32
537.232	10.5
537.43	10.53
537.627	10.63
537.825	10.82
538.023	10.87
538.22	10.91
538.418	11
538.616	11.09
538.813	11.09
539.011	11.18
539.209	11.28
539.406	11.26
539.604	11.32
539.801	11.39
539.999	11.33
540.196	11.41
540.394	11.44
540.591	11.48
540.789	11.45
540.986	11.39
541.184	11.34
541.381	11.31
541.579	11.23
541.776	11.24
541.974	11.23
542.171	11.27
542.368	11.3
542.566	11.28
542.763	11.22
542.96	11.27
543.158	11.24
543.355	11.36
543.552	11.41
543.75	11.6
543.947	11.68
544.144	11.65
544.341	11.72
544.539	11.7
544.736	11.7
544.933	11.76
545.13	11.88
545.327	12.12
545.524	12.19
545.722	12.31
545.919	12.3
546.116	12.38
546.313	12.57
546.51	12.66
546.707	12.89
546.904	12.98
547.101	13.22
547.298	13.22
547.495	13.25
547.692	13.29
547.889	13.36
548.086	13.43
548.283	13.55
548.48	13.62
548.677	13.52
548.874	13.62
549.07	13.53
549.267	13.57
549.464	13.81
549.661	13.96
549.858	13.99
550.055	14.08
550.251	14.29
550.448	14.19
550.645	14.34
550.842	14.61
551.038	14.64
551.235	15.07
551.432	15.09
551.628	15.15
551.825	15.22
552.022	15.34
552.218	15.43
552.415	15.41
552.612	15.48
552.808	15.57
553.005	15.51
553.201	15.5
553.398	15.53
553.594	15.68
553.791	15.83
553.987	15.74
554.184	15.75
554.38	15.92
554.577	16
554.773	16.27
554.97	16.36
555.166	16.58
555.362	16.59
555.559	16.64
555.755	16.76
555.952	16.65
556.148	16.99
556.344	17.19
556.541	17.12
556.737	17.28
556.933	17.33
557.129	17.51
557.326	17.56
557.522	17.84
557.718	17.95
557.914	17.8
558.11	17.97
558.307	18.04
558.503	18.21
558.699	18.33
558.895	18.38
559.091	18.54
559.287	18.74
559.483	18.94
559.679	18.95
559.876	19.03
560.072	19.5
560.268	19.61
560.464	19.66
560.66	19.53
560.856	19.57
561.052	19.77
561.247	19.66
561.443	19.61
561.639	19.49
561.835	19.51
562.031	19.63
562.227	19.44
562.423	19.59
562.619	19.71
562.815	20.04
563.01	20.12
563.206	19.93
563.402	20.16
563.598	20.1
563.793	20.4
563.989	20.59
564.185	20.72
564.381	20.87
564.576	20.86
564.772	20.78
564.968	20.59
565.163	20.61
565.359	20.77
565.555	20.85
565.75	20.99
565.946	21.08
566.141	21.14
566.337	21.21
566.532	21.36
566.728	21.58
566.923	21.79
567.119	22.07
567.314	22.38
567.51	22.51
567.705	22.4
567.901	22.45
568.096	22.3
568.292	22.39
568.487	22.45
568.682	22.37
568.878	22.22
569.073	22.08
569.268	21.92
569.464	21.91
569.659	22.07
569.854	22.34
570.05	22.32
570.245	22.5
570.44	22.61
570.635	22.62
570.831	22.78
571.026	23.07
571.221	23.31
571.416	23.46
571.611	23.42
571.806	23.43
572.002	23.54
572.197	23.63
572.392	23.76
572.587	23.75
572.782	23.96
572.977	24.01
573.172	24.04
573.367	24.15
573.562	24.35
573.757	24.5
573.952	24.55
574.147	24.67
574.342	24.78
574.537	24.88
574.732	24.88
574.927	25.03
575.121	25.07
575.316	25.11
575.511	25.13
575.706	25.14
575.901	25.3
576.096	25.31
576.29	25.32
576.485	25.42
576.68	25.67
576.875	25.82
577.069	25.8
577.264	26
577.459	26.02
577.654	26.16
577.848	26.34
578.043	26.38
578.238	26.58
578.432	26.77
578.627	26.85
578.821	26.8
579.016	26.91
579.21	27
579.405	27.08
579.6	27.15
579.794	27.31
579.989	27.34
580.183	27.28
580.378	27.39
580.572	27.33
580.766	27.73
580.961	27.93
581.155	28
581.35	28.01
581.544	28.05
581.738	28.25
581.933	28.19
582.127	28.25
582.321	28.53
582.516	28.64
582.71	28.99
582.904	28.89
583.099	28.62
583.293	28.99
583.487	29.03
583.681	29.5
583.875	29.48
584.07	29.73
584.264	30.15
584.458	30.31
584.652	30.31
584.846	30.33
585.04	30.34
585.234	30.72
585.428	30.53
585.623	30.59
585.817	30.49
586.011	30.67
586.205	30.77
586.399	30.76
586.593	30.63
586.787	30.74
586.981	30.33
587.174	30.59
587.368	30.58
587.562	30.95
587.756	30.9
587.95	30.83
588.144	30.9
588.338	30.83
588.532	30.47
588.725	30.55
588.919	30.5
589.113	30.55
589.307	30.27
589.501	30.27
589.694	30.09
589.888	30.25
590.082	30.19
590.275	30.19
590.469	30.24
590.663	30.39
590.856	30.24
591.05	30.44
591.244	30.91
591.437	31.19
591.631	31.14
591.824	31.15
592.018	31.17
592.212	31.28
592.405	31.24
592.599	31.32
592.792	31.66
592.986	31.88
593.179	31.78
593.372	31.51
593.566	31.49
593.759	31.74
593.953	31.75
594.146	31.81
594.339	31.84
594.533	31.93
594.726	32
594.92	31.82
595.113	32.04
595.306	32.15
595.499	32.23
595.693	32.06
595.886	31.91
596.079	31.92
596.272	31.86
596.466	31.96
596.659	31.96
596.852	31.9
597.045	31.91
597.238	31.62
597.431	31.6
597.624	31.89
597.818	32
598.011	32.14
598.204	32.31
598.397	32.38
598.59	32.32
598.783	32.32
598.976	32.5
599.169	32.48
599.362	32.8
599.555	33.04
599.748	32.94
599.941	33.05
600.134	33.38
600.326	33.48
600.519	33.79
600.712	33.78
600.905	33.98
601.098	34.08
601.291	34.3
601.483	34.37
601.676	34.36
601.869	34.28
602.062	34.23
602.255	33.95
602.447	33.77
602.64	33.76
602.833	33.78
603.025	33.72
603.218	33.61
603.411	33.52
603.603	33.31
603.796	33.08
603.989	33.05
604.181	33.24
604.374	33.26
604.566	33.34
604.759	33.18
604.951	33.42
605.144	33.43
605.336	33.4
605.529	33.27
605.721	33.54
605.914	33.86
606.106	34.02
606.299	34.03
606.491	34.15
606.683	34.23
606.876	34.67
607.068	34.43
607.26	34.88
607.453	35.16
607.645	35.33
607.837	35.24
608.03	35.16
608.222	35.1
608.414	35.21
608.606	35.12
608.799	35.07
608.991	34.85
609.183	34.85
609.375	34.79
609.567	34.87
609.759	35.08
609.952	35.1
610.144	35.22
610.336	35.17
610.528	35.16
610.72	35.45
610.912	35.64
611.104	35.7
611.296	36.03
611.488	36.29
611.68	36.36
611.872	36.54
612.064	36.86
612.256	37.14
612.448	37.52
612.64	37.64
612.832	37.69
613.023	38.03
613.215	38.06
613.407	38.07
613.599	37.73
613.791	37.85
613.983	38.04
614.174	38.2
614.366	37.99
614.558	37.66
614.75	37.74
614.941	37.91
615.133	37.65
615.325	37.83
615.516	37.85
615.708	37.91
615.9	37.77
616.091	37.28
616.283	37.19
616.475	37.42
616.666	37.75
616.858	38.06
617.049	37.75
617.241	37.82
617.432	37.87
617.624	38.14
617.815	38.31
618.007	38.29
618.198	38.7
618.39	38.74
618.581	38.72
618.773	38.8
618.964	38.61
619.155	38.96
619.347	39.17
619.538	39.26
619.729	39.29
619.921	39
620.112	39.22
620.303	38.99
620.494	39.06
620.686	39
620.877	38.86
621.068	39.2
621.259	38.99
621.451	39.05
621.642	39.24
621.833	39.29
622.024	39.76
622.215	39.76
622.406	39.98
622.597	39.86
622.788	39.92
622.98	40.19
623.171	40.02
623.362	40.21
623.553	40.2
623.744	40.35
623.935	40.49
624.126	40.18
624.317	39.79
624.508	40.06
624.698	40.01
624.889	39.77
625.08	40.08
625.271	39.94
625.462	39.77
625.653	39.58
625.844	39.24
626.034	38.91
626.225	38.71
626.416	38.87
626.607	38.77
626.798	38.64
626.988	38.58
627.179	38.47
627.37	38.42
627.56	38.43
627.751	38.42
627.942	38.34
628.132	38.39
628.323	38.69
628.514	38.79
628.704	38.72
628.895	38.91
629.085	39.27
629.276	38.98
629.466	39.18
629.657	39.17
629.847	39.15
630.038	39.29
630.228	39.49
630.419	39.73
630.609	39.89
630.8	39.97
630.99	39.84
631.181	39.86
631.371	39.99
631.561	39.88
631.752	40.25
631.942	40.77
632.132	40.72
632.323	40.73
632.513	40.47
632.703	40.37
632.893	40.43
633.084	40.32
633.274	40.47
633.464	40.61
633.654	40.63
633.844	40.28
634.034	40.02
634.225	40.19
634.415	40.14
634.605	40.3
634.795	40.5
634.985	40.61
635.175	41.12
635.365	41.04
635.555	40.95
635.745	41.03
635.935	41.2
636.125	41.27
636.315	41.37
636.505	41.42
636.695	41.3
636.885	41.15
637.075	41.34
637.265	41.27
637.455	41.21
637.644	41.35
637.834	41.61
638.024	41.71
638.214	41.79
638.404	41.6
638.593	41.63
638.783	41.67
638.973	42.06
639.163	41.79
639.352	42.25
639.542	42.26
639.732	42.64
639.921	42.56
640.111	42.96
640.301	43.24
640.49	43.7
640.68	44.08
640.87	44.22
641.059	44.27
641.249	44.36
641.438	43.91
641.628	44.36
641.817	44.15
642.007	44.32
642.196	44.28
642.386	43.88
642.575	44.01
642.764	43.65
642.954	43.72
643.143	43.76
643.333	44.28
643.522	44.44
643.711	44.45
643.901	44.72
644.09	44.34
644.279	44.24
644.469	44.5
644.658	44.33
644.847	44.59
645.036	44.96
645.226	44.87
645.415	44.4
645.604	44.5
645.793	44.28
645.982	43.95
646.171	44.33
646.361	44.11
646.55	44.36
646.739	44.45
646.928	44.27
647.117	43.86
647.306	43.94
647.495	43.74
647.684	43.88
647.873	44.03
648.062	44.19
648.251	43.89
648.44	43.89
648.629	43.54
648.818	43.54
649.007	43.71
649.196	43.99
649.384	43.73
649.573	44.01
649.762	44.02
649.951	43.71
650.14	44.09
650.328	44.86
650.517	45.2
650.706	45.56
650.895	45.53
651.083	45.52
651.272	45.37
651.461	45.17
651.65	45.22
651.838	44.96
652.027	44.89
652.216	44.42
652.404	43.93
652.593	43.9
652.781	43.65
652.97	43.65
653.158	43.86
653.347	44.23
653.535	44.88
653.724	44.71
653.912	44.84
654.101	45.17
654.289	45.19
654.478	45.07
654.666	45.19
654.855	45.44
655.043	45.22
655.231	45.22
655.42	45.41
655.608	45.35
655.796	46.03
655.985	46.05
656.173	45.94
656.361	46.43
656.55	46.37
656.738	46.45
656.926	46.53
657.114	46.86
657.302	46.58
657.491	46
657.679	45.58
657.867	45.1
658.055	45
658.243	45.01
658.431	44.66
658.619	44.75
658.807	44.46
658.996	44.13
659.184	43.66
659.372	43.73
659.56	43.59
659.748	43.52
659.936	43.52
660.124	43.4
660.311	43.31
660.499	43.26
660.687	43.51
660.875	43.88
661.063	43.97
661.251	44.78
661.439	44.89
661.627	45.08
661.814	45.62
662.002	45.8
662.19	46.49
662.378	46.89
662.565	47.1
662.753	47.1
662.941	47.03
663.129	47.13
663.316	47.26
663.504	47.53
663.692	48.1
663.879	48.27
664.067	48.7
664.254	48.35
664.442	48.67
664.63	49.29
664.817	49.07
665.005	49.16
665.192	49.61
665.38	49.24
665.567	49.33
665.755	49.09
665.942	48.79
666.13	48.77
666.317	48.65
666.504	48.39
666.692	48.16
666.879	48.65
667.067	48.69
667.254	48.46
667.441	48.51
667.629	48.42
667.816	48.49
668.003	48.39
668.19	47.9
668.378	48.25
668.565	48.37
668.752	48.29
668.939	48.1
669.127	47.96
669.314	47.84
669.501	47.51
669.688	47.78
669.875	47.47
670.062	47.54
670.249	48
670.436	47.86
670.623	48.12
670.81	48.29
670.997	48.35
671.184	48.18
671.371	48.9
671.558	49.77
671.745	49.51
671.932	50.31
672.119	50.84
672.306	51.05
672.493	51.06
672.68	50.76
672.867	50.87
673.054	50.61
673.24	50.94
673.427	50.3
673.614	50.13
673.801	50.33
673.988	49.88
674.174	49.76
674.361	49.51
674.548	49.69
674.734	50.02
674.921	49.86
675.108	50.16
675.294	50.11
675.481	50.53
675.668	50.45
675.854	50.46
676.041	50.59
676.227	50.26
676.414	50.33
676.601	50.6
676.787	50.42
676.974	50.39
677.16	50.32
677.347	50.58
677.533	50.35
677.719	50.22
677.906	49.88
678.092	50.15
678.279	50.3
678.465	50.13
678.651	49.78
678.838	49.55
679.024	49.25
679.21	48.97
679.397	48.36
679.583	47.97
679.769	47.6
679.955	47.51
680.142	47.19
680.328	46.97
680.514	46.51
680.7	46.41
680.886	46.38
681.073	46.71
681.259	46.68
681.445	47.21
681.631	47.32
681.817	47.45
682.003	47.82
682.189	47.72
682.375	47.91
682.561	48.69
682.747	48.77
682.933	49.04
683.119	48.71
683.305	48.97
683.491	48.84
683.677	48.9
683.863	49.33
684.049	49.61
684.235	49.73
684.42	49.79
684.606	49.25
684.792	49.16
684.978	49.03
685.164	49.59
685.349	49.97
685.535	50.05
685.721	50.39
685.907	50.35
686.092	49.56
686.278	49.83
686.464	49.94
686.649	50.24
686.835	50.45
687.021	50.39
687.206	50.2
687.392	50.27
687.577	50.56
687.763	50.3
687.948	50.19
688.134	50.25
688.319	49.92
688.505	49.85
688.69	49.63
688.876	49.5
689.061	49.67
689.247	49.85
689.432	49.28
689.618	49.03
689.803	49.69
689.988	50.57
690.174	50.96
690.359	51.39
690.544	51.58
690.73	52.02
690.915	52.12
691.1	52.38
691.285	52.31
691.471	52.71
691.656	52.49
691.841	52.03
692.026	51.4
692.211	51.38
692.396	50.89
692.582	51.55
692.767	51.61
692.952	51.94
693.137	52.1
693.322	52.3
693.507	52.48
693.692	52.67
693.877	53.54
694.062	53.31
694.247	53.44
694.432	53.77
694.617	52.99
694.802	52.57
694.987	52.51
695.172	52.54
695.357	52.66
695.541	52.62
695.726	52.84
695.911	53.01
696.096	53.01
696.281	53.14
696.466	53.07
696.65	53.19
696.835	52.92
697.02	52.47
697.204	51.77
697.389	51.24
697.574	50.69
697.759	50.18
697.943	48.79
698.128	48.34
698.312	47.83
698.497	47.35
698.682	46.83
698.866	46.57
699.051	46.79
699.235	46.96
699.42	46.85
699.604	47
699.789	46.84
699.973	46.89
700.158	47.14
700.342	47.46
700.527	47.95
700.711	48.6
700.895	49.13
701.08	49.46
701.264	49.62
701.448	49.89
701.633	50.19
701.817	50.88
702.001	52.05
702.186	52.32
702.37	52.62
702.554	52.95
702.738	53.68
702.923	54.7
703.107	54.72
703.291	55.01
703.475	54.92
703.659	55.28
703.843	55.83
704.027	56.3
704.212	56.85
704.396	57.84
704.58	58.19
704.764	57.49
704.948	57.35
705.132	57.73
705.316	57.99
705.5	58.28
705.684	58.78
705.868	58.66
706.052	57.83
706.235	58.04
706.419	57.67
706.603	57.79
706.787	57.99
706.971	57.81
707.155	57.29
707.339	57.11
707.522	57.01
707.706	56.23
707.89	56.42
708.074	56.55
708.257	55.94
708.441	55.79
708.625	55.99
708.808	56.17
708.992	56.47
709.176	56.8
709.359	56.5
709.543	56.51
709.727	56.85
709.91	56.5
710.094	56.28
710.277	56.41
710.461	56.15
710.644	55.64
710.828	54.92
711.011	54.77
711.195	54.99
711.378	55.22
711.562	55.82
711.745	55.87
711.928	56.04
712.112	56.03
712.295	56
712.478	56
712.662	56.15
712.845	56.85
713.028	56.17
713.212	55.78
713.395	55.97
713.578	55.88
713.761	56
713.945	56.1
714.128	56.62
714.311	56.54
714.494	56.13
714.677	56.25
714.86	56.07
715.043	56.36
715.227	56.14
715.41	55.99
715.593	55.85
715.776	55.25
715.959	54.63
716.142	54.45
716.325	53.91
716.508	54.02
716.691	53.53
716.874	53.36
717.057	53.25
717.239	53.69
717.422	53.32
717.605	52.87
717.788	53.16
717.971	53.98
718.154	53.73
718.337	55.2
718.519	55.5
718.702	55.53
718.885	55.45
719.068	56
719.25	56.27
719.433	57.13
719.616	57.79
719.798	57.67
719.981	57.41
720.164	58.02
720.346	57.33
720.529	57.82
720.712	58.31
720.894	59.65
721.077	59.79
721.259	58.89
721.442	58.97
721.624	59.37
721.807	59.73
721.989	60.55
722.172	60.45
722.354	60.4
722.537	60.37
722.719	60.91
722.901	59.87
723.084	60.02
723.266	60.39
723.448	60.53
723.631	60.77
723.813	60.54
723.995	59.66
724.178	59.69
724.36	60.88
724.542	60.66
724.724	60.51
724.907	60.25
725.089	60.03
725.271	60.93
725.453	59.84
725.635	59.85
725.817	60.35
725.999	60.25
726.181	59.73
726.364	58.54
726.546	58.01
726.728	57.53
726.91	57.92
727.092	57.65
727.274	56.78
727.456	57.33
727.638	56.64
727.819	56.25
728.001	56.2
728.183	56.51
728.365	56.23
728.547	56.01
728.729	55.43
728.911	55.75
729.093	55.14
729.274	55.65
729.456	55.39
729.638	55.12
729.82	55.89
730.001	56.06
730.183	56.01
730.365	56.4
730.546	57.07
730.728	58.44
730.91	58.73
731.091	59.33
731.273	58.63
731.455	58.57
731.636	59.17
731.818	58.88
731.999	58.86
732.181	59.35
732.362	59.43
732.544	59.65
732.725	58.76
732.907	58.23
733.088	58.51
733.27	59.27
733.451	59.98
733.633	60.14
733.814	59.79
733.995	60.25
734.177	60.55
734.358	60.63
734.539	60.55
734.721	60.73
734.902	60.59
735.083	61.02
735.264	60.97
735.446	60.91
735.627	60.92
735.808	61.44
735.989	61.67
736.17	61.16
736.351	62.38
736.533	62.83
736.714	63.25
736.895	63.59
737.076	63.44
737.257	63.36
737.438	63.51
737.619	63.39
737.8	63.59
737.981	62.21
738.162	62.03
738.343	61.36
738.524	61
738.705	61.64
738.886	61.62
739.067	61.78
739.247	62.51
739.428	63.01
739.609	63.59
739.79	63.42
739.971	64.27
740.151	65.5
740.332	65.84
740.513	65.6
740.694	65.26
740.874	66.1
741.055	66.53
741.236	65.29
741.417	64.66
741.597	63.97
741.778	64.54
741.958	64.71
742.139	63.87
742.32	63.64
742.5	64.74
742.681	65.46
742.861	65.38
743.042	65.19
743.222	66.92
743.403	66.78
743.583	67.11
743.764	67.03
743.944	68.35
744.124	69.82
744.305	70.37
744.485	70.35
744.666	69.99
744.846	70.07
745.026	70.32
745.207	69.28
745.387	71.3
745.567	71.03
745.747	70.7
745.928	70.39
746.108	69.82
746.288	69.52
746.468	68.52
746.648	68.88
746.829	68.71
747.009	68.73
747.189	68.45
747.369	66.03
747.549	67.9
747.729	67.8
747.909	67.41
748.089	66.77
748.269	65.95
748.449	66.95
748.629	66.83
748.809	67.2
748.989	66.94
749.169	67.49
749.349	68.59
749.529	67.41
749.709	67.12
749.889	66.76
750.068	68.11
750.248	68.7
750.428	69.11
750.608	68.49
750.788	68.1
750.967	67.94
751.147	68.4
751.327	68.09
751.507	67.95
751.686	68.94
751.866	69.28
752.046	67.98
752.225	68.2
752.405	68.57
752.585	69.99
752.764	70.33
752.944	70.26
753.123	70.62
753.303	70.72
753.482	70.94
753.662	70.47
753.841	70.78
754.021	70.81
754.2	71.22
754.38	70.93
754.559	70
754.739	70.13
754.918	71.38
755.097	70.03
755.277	70.08
755.456	71.13
755.635	71.53
755.815	71.65
755.994	70.7
756.173	69.87
756.352	68.45
756.532	67.67
756.711	67.71
756.89	67.22
757.069	67.01
757.248	65.85
757.427	64.47
757.607	64.47
757.786	64.6
757.965	64.53
758.144	64.81
758.323	65
758.502	65.25
758.681	64.55
758.86	63.56
759.039	64.11
759.218	64.25
759.397	64.19
759.576	63.11
759.755	62.39
759.934	63.18
760.113	63.7
760.291	63.09
760.47	63.4
760.649	62.71
760.828	62.25
761.007	61.59
761.186	62.06
761.364	62.09
761.543	61.01
761.722	59.56
761.901	58.6
762.079	57.24
762.258	57.25
762.437	55.74
762.615	55.66
762.794	55.83
762.972	56.38
763.151	55.37
763.33	54.38
763.508	54.83
763.687	54.93
763.865	55
764.044	55.03
764.222	54.3
764.401	54.92
764.579	55.18
764.758	55.01
764.936	54.59
765.114	55.41
765.293	56.06
765.471	56.88
765.65	57.85
765.828	58.26
766.006	58.66
766.184	61.13
766.363	61.72
766.541	61.99
766.719	63.06
766.898	63.91
767.076	64.41
767.254	65.91
767.432	65.88
767.61	67.65
767.788	69.27
767.967	70.17
768.145	69.79
768.323	70.25
768.501	70.6
768.679	70.27
768.857	71.22
769.035	72.4
769.213	72.27
769.391	73.4
769.569	71.4
769.747	71.7
769.925	71.2
770.103	72.19
770.281	72.3
770.459	73.17
770.636	73.57
770.814	73.28
770.992	74.66
771.17	74.67
771.348	74.82
771.525	76.39
771.703	75.81
771.881	76.85
772.059	75.86
772.236	75.25
772.414	75.76
772.592	76.08
772.769	76.44
772.947	75.13
773.125	76.82
773.302	77.9
773.48	78.79
773.657	79.07
773.835	79.22
774.013	81.31
774.19	81.79
774.368	83.49
774.545	85.53
774.723	86.19
774.9	86.61
775.077	85.35
775.255	83.99
775.432	84.3
775.61	83.19
775.787	84.3
775.964	82.18
776.142	83.68
776.319	82.46
776.496	81.01
776.674	80.79
776.851	80.18
777.028	79.5
777.205	79.81
777.382	77.89
777.56	79.15
777.737	78.96
777.914	79.3
778.091	79.19
778.268	77.82
778.445	77.07
778.622	75.54
778.8	77.13
778.977	77.71
779.154	84.11
779.331	83.43
779.508	83.62
779.685	84.31
779.862	85.92
780.038	85.01
780.215	85.51
780.392	86.39
780.569	87.57
780.746	86.26
780.923	86.58
781.1	81.23
781.277	82.03
781.453	81.57
781.63	81.27
781.807	82.35
781.984	83.49
782.16	82.89
782.337	82.06
782.514	81.8
782.691	83.02
782.867	83.82
783.044	82.51
783.221	82.84
783.397	83.86
783.574	81.87
783.75	78.85
783.927	77.61
784.103	79.24
784.28	79.72
784.456	79.28
784.633	79.41
784.809	79.07
784.986	78.37
785.162	76.63
785.339	75.85
785.515	77.71
785.692	77.15
785.868	77.06
786.044	76
786.221	76.52
786.397	75.57
786.573	73.7
786.749	72.78
786.926	73.09
787.102	74.86
787.278	74.11
787.454	72.83
787.631	74.15
787.807	73.36
787.983	73.72
788.159	73.78
788.335	75.92
788.511	74.84
788.687	74.58
788.863	75.52
789.039	76.41
789.216	75.83
789.392	77.57
789.568	75.5
789.744	76.55
789.919	74.9
790.095	74.43
790.271	74.45
790.447	76.47
790.623	78.38
790.799	77.81
790.975	76.84
791.151	78.15
791.327	77.07
791.502	78.75
791.678	78.32
791.854	78.61
792.03	78.19
792.205	77.78
792.381	78.83
792.557	77.36
792.733	77.48
792.908	77.91
793.084	78.18
793.259	77.69
793.435	79.33
793.611	79.53
793.786	80.5
793.962	81.05
794.137	80.99
794.313	79.19
794.488	80.2
794.664	80.69
794.839	80.32
795.015	78.65
795.19	77.31
795.366	74.71
795.541	75.59
795.716	74.84
795.892	73.83
796.067	73
796.242	73.88
796.418	72.63
796.593	72.27
796.768	71.7
796.944	73.15
797.119	73.35
797.294	74.37
797.469	73.13
797.644	74.21
797.82	75.3
797.995	74.18
798.17	73.94
798.345	74.08
798.52	72.81
798.695	72.48
798.87	72.07
799.045	74.14
799.22	73.5
799.395	75.65
799.57	75.43
799.745	75.31
799.92	76.09
800.095	77.99
800.27	76.71
800.445	77.53
800.62	77.9
800.795	80.54
800.97	78.68
801.145	78.43
801.319	76.07
801.494	76.89
801.669	76.82
801.844	79.04
802.018	75.13
802.193	77.6
802.368	77.73
802.543	78.42
802.717	77.88
802.892	77.35
803.067	78.73
803.241	80.42
803.416	79.81
803.59	81.68
803.765	79.17
803.94	82.77
804.114	81.46
804.289	81.86
804.463	82.45
804.638	81.38
804.812	81.88
804.986	80.2
805.161	80.17
805.335	79.11
805.51	77.66
805.684	79.04
805.858	76.03
806.033	75.24
806.207	74.4
806.381	74.67
806.556	76.46
806.73	77.61
806.904	80.18
807.078	80.61
807.253	80.3
807.427	82.62
807.601	80.7
807.775	83.77
807.949	85.15
808.123	86.57
808.298	85.42
808.472	85.53
808.646	85.79
808.82	84.9
808.994	85.17
809.168	86.56
809.342	84.4
809.516	87.08
809.69	85.09
809.864	90.12
810.038	92.95
810.212	94.49
810.385	92.14
810.559	93.64
810.733	93.68
810.907	95.16
811.081	95.04
811.255	93.92
811.428	93.97
811.602	93.59
811.776	87.93
811.95	84.8
812.123	81.8
812.297	79.53
812.471	76.86
812.644	76.27
812.818	73.55
812.992	73.47
813.165	74.45
813.339	74.37
813.512	75.09
813.686	74.67
813.86	75.45
814.033	76.48
814.207	79.31
814.38	81.36
814.554	80.55
814.727	82.42
814.9	82.89
815.074	81.91
815.247	82.65
815.421	76.35
815.594	80.38
815.767	77.67
815.941	78.84
816.114	77.95
816.287	78.05
816.46	77.75
816.634	76.11
816.807	78.06
816.98	78.95
817.153	78.47
817.327	83.4
817.5	82.63
817.673	84.57
817.846	88.27
818.019	85.35
818.192	85.35
818.365	88.05
818.538	88.56
818.711	83.94
818.884	88.88
819.057	87.73
819.23	88.2
819.403	85.4
819.576	84.63
819.749	76.41
819.922	78.97
820.095	75.56
820.268	76.67
820.441	74.38
820.614	72.71
820.786	67.66
820.959	64.93
821.132	60.98
821.305	57.99
821.477	55.14
821.65	54.35
821.823	51.86
821.996	51.13
822.168	48.71
822.341	47.7
822.514	46.52
822.686	45.76
822.859	45.22
823.031	44.81
823.204	44.94
823.376	44.67
823.549	44.89
823.722	45.06
823.894	45.33
824.067	45.28
824.239	44.89
824.411	45.58
824.584	46.19
824.756	46.12
824.929	46.37
825.101	46.25
825.273	46.54
825.446	45.62
825.618	45.06
825.79	45.08
825.963	45.61
826.135	46.35
826.307	45.76
826.479	45.41
826.652	45.54
826.824	45.95
826.996	46.53
827.168	46.9
827.34	48.55
827.512	48.9
827.684	48.74
827.856	48.48
828.029	48.39
828.201	48.79
828.373	48.03
828.545	49.51
828.717	50.96
828.889	50.71
829.061	51.23
829.232	50.97
829.404	51.3
829.576	51.74
829.748	52.6
829.92	53.22
830.092	55.6
830.264	58.66
830.436	59.03
830.607	59.13
830.779	59.19
830.951	59.59
831.123	60.08
831.294	63.26
831.466	65.83
831.638	66.55
831.809	68.32
831.981	69.01
832.153	69.41
832.324	69.39
832.496	66.55
832.667	69.84
832.839	71.22
833.011	72.38
833.182	72.05
833.354	70.78
833.525	72.69
833.697	71.77
833.868	68.75
834.039	67.77
834.211	66.34
834.382	67.44
834.554	65.12
834.725	63.58
834.896	61.17
835.068	59.05
835.239	58.89
835.41	57.4
835.581	58.26
835.753	58.17
835.924	56.25
836.095	56.5
836.266	57.62
836.438	58.25
836.609	58.68
836.78	59.9
836.951	61.11
837.122	60.21
837.293	60.92
837.464	60.95
837.635	63.38
837.806	67.88
837.977	68.8
838.148	68.55
838.319	70.39
838.49	74.69
838.661	74.35
838.832	75.85
839.003	78.13
839.174	80.49
839.345	81.1
839.516	79.49
839.687	79.41
839.857	83.99
840.028	82.5
840.199	85.9
840.37	83.15
840.54	88.08
840.711	87.48
840.882	88.52
841.053	88.55
841.223	85.83
841.394	88.57
841.564	84.51
841.735	83.41
841.906	83.88
842.076	84.69
842.247	87.94
842.417	89.52
842.588	90.11
842.758	91.57
842.929	92.4
843.099	93.23
843.27	92.58
843.44	99.44
843.611	96.94
843.781	100.8
843.951	98.58
844.122	93.98
844.292	93.79
844.462	94.79
844.633	91.32
844.803	92.68
844.973	94.74
845.144	92.63
845.314	94.9
845.484	92.8
845.654	92.1
845.824	96.54
845.995	103.03
846.165	107.52
846.335	111.06
846.505	129.96
846.675	133.74
846.845	132.04
847.015	136.27
847.185	136.11
847.355	141.6
847.525	145.23
847.695	144.77
847.865	131.55
848.035	122.9
848.205	128.34
848.375	116.92
848.545	113.07
848.715	117.43
848.884	119.45
849.054	116.23
849.224	117.82
849.394	114.92
849.564	119.25
849.733	122.39
849.903	126.16
850.073	121.46
850.243	114.4
850.412	114.29
850.582	114.25
850.752	119.25
850.921	120.64
851.091	120.59
851.26	122.26
851.43	114.73
851.599	118.11
851.769	113.73
851.939	118.81
852.108	124.41
852.278	127.5
852.447	129.25
852.616	131.53
852.786	124.6
852.955	126.01
853.125	127.59
853.294	131.94
853.463	121.22
853.633	121.16
853.802	118.79
853.971	121.24
854.141	117.33
854.31	118.54
854.479	114.44
854.648	115.76
854.818	114.95
854.987	110.75
855.156	113.99
855.325	127.1
855.494	134.03
855.663	134.71
855.832	130.74
856.001	141.84
856.171	139.76
856.34	149.9
856.509	158.11
856.678	168.28
856.847	166.42
857.016	143.82
857.185	143.44
857.353	153.58
857.522	154.4
857.691	152.94
857.86	152.59
858.029	162.36
858.198	164.92
858.367	160.1
858.535	161.39
858.704	178.34
858.873	203.15
859.042	184.92
859.21	182.05
859.379	173.88
859.548	175.05
859.717	164.96
859.885	161.32
860.054	144.35
860.222	139.03
860.391	130.58
860.56	130.61
860.728	128.11
860.897	129.86
861.065	113.45
861.234	112.05
861.402	114.09
861.571	119.05
861.739	122.54
861.908	132.02
862.076	152.81
862.244	168.95
862.413	156.57
862.581	153.43
862.749	167.8
862.918	184.91
863.086	167.72
863.254	159.03
863.423	142.86
863.591	120.73
863.759	114.49
863.927	109.44
864.096	115.37
864.264	119.4
864.432	112.08
864.6	104.89
864.768	103.34
864.936	108.51
865.104	115.49
865.272	122.69
865.44	138.13
865.608	140.04
865.776	135.01
865.944	112.35
866.112	116.09
866.28	132.28
866.448	137.41
866.616	137.21
866.784	137.08
866.952	126.71
867.12	133.54
867.288	129.53
867.455	127.17
867.623	130.44
867.791	153.6
867.959	151.28
868.127	156.62
868.294	169.04
868.462	156.92
868.63	140.71
868.797	141.41
868.965	127.34
869.133	132.61
869.3	151.8
869.468	144.91
869.636	132.73
869.803	127.67
869.971	112.81
870.138	111.13
870.306	108.38
870.473	117.77
870.641	125.67
870.808	126.86
870.975	117.03
871.143	110.79
871.31	106.02
871.478	104.24
871.645	98.77
871.812	106.42
871.98	108.16
872.147	111.85
872.314	109.6
872.482	101.22
872.649	95.28
872.816	97.57
872.983	95.86
873.15	102.83
873.318	108.38
873.485	119.55
873.652	120.7
873.819	128.29
873.986	125.36
874.153	126.4
874.32	123.04
874.487	126.5
874.654	126.5
874.821	131.46
874.988	126.95
875.155	121.71
875.322	120.67
875.489	127.05
875.656	120.86
875.823	128.15
875.99	124.6
876.157	135.87
876.324	145.02
876.49	145.02
876.657	138.4
876.824	126.27
876.991	133.84
877.157	135.27
877.324	129.28
877.491	132.14
877.658	128.03
877.824	120.83
877.991	122.88
878.157	120.18
878.324	132.74
878.491	129.84
878.657	128.32
878.824	108.27
878.99	95.77
879.157	96.98
879.323	96.61
879.49	91.31
879.656	102.55
879.823	105.38
879.989	111.19
880.156	105.06
880.322	101.26
880.488	101.8
880.655	115.32
880.821	119.9
880.987	111.24
881.154	106.4
881.32	112.77
881.486	100.78
881.652	92.42
881.819	84.89
881.985	77.9
882.151	74.82
882.317	72.37
882.483	66.57
882.649	62.67
882.816	60.26
882.982	56.6
883.148	52.07
883.314	50.69
883.48	50.17
883.646	48.8
883.812	48.44
883.978	47.34
884.144	47.68
884.31	47.78
884.476	46.16
884.642	44.55
884.807	45.56
884.973	46.31
885.139	46.61
885.305	46.03
885.471	45.91
885.637	46.04
885.802	47.31
885.968	47.93
886.134	47.82
886.3	50.63
886.465	53.97
886.631	56.82
886.797	60.71
886.962	64.17
887.128	68.24
887.293	71.52
887.459	76.05
887.625	78.56
887.79	80.97
887.956	84.82
888.121	85.95
888.287	88.14
888.452	81.93
888.618	80.21
888.783	76
