Data from LC_190_Reflection_2.txt Node
Date: Tue Nov 17 13:30:51 EST 2015
User: robert
Spectrometer: USB4E03001
Autoset integration time: false
Trigger mode: 4
Integration Time (sec): 1.000000E-1
Scans to average: 15
Electric dark correction enabled: true
Nonlinearity correction enabled: false
Boxcar width: 5
Stray light correction enabled: false
XAxis mode: Wavelengths
Stop averaging: false
Number of Pixels in Spectrum: 3648
>>>>>Begin Spectral Data<<<<<
177.566	212.27
177.785	264.29
178.005	-1034.33
178.225	437.85
178.445	-737
178.665	-139.67
178.885	6.14
179.105	-243.5
179.324	517.63
179.544	580.97
179.764	251.28
179.984	155.26
180.204	191.71
180.423	362.15
180.643	525.26
180.863	-1823.75
181.083	-1934.44
181.302	472.17
181.522	231.16
181.742	770.61
181.961	8747.06
182.181	-486.85
182.401	-56.41
182.621	-198.6
182.84	-246.35
183.06	-1005.97
183.279	1257.58
183.499	-6110.08
183.719	-650.33
183.938	-212.82
184.158	-365.34
184.377	-451.17
184.597	-328.33
184.816	330.96
185.036	339.15
185.256	304.1
185.475	167.46
185.695	246.2
185.914	249.31
186.134	228.05
186.353	126.16
186.572	124.01
186.792	131.77
187.011	158.58
187.231	368.93
187.45	1275.05
187.67	371.06
187.889	469.56
188.108	284.47
188.328	231.57
188.547	248.86
188.766	-1029.54
188.986	856.7
189.205	278.01
189.424	326.25
189.644	321.43
189.863	216.77
190.082	200.63
190.302	215.29
190.521	335.65
190.74	8072.73
190.959	991.76
191.178	284.97
191.398	260.72
191.617	718.22
191.836	538.75
192.055	369.76
192.274	-1173.71
192.494	-600.2
192.713	-1664.68
192.932	-735.85
193.151	1302.85
193.37	20063.49
193.589	-687250
193.808	18525.84
194.027	-1920.3
194.246	-670.67
194.465	2845.3
194.685	233.96
194.904	205.86
195.123	34250
195.342	745.57
195.561	213.45
195.78	226.27
195.999	292.87
196.218	156.41
196.436	181.76
196.655	147.84
196.874	153.94
197.093	180.71
197.312	127.42
197.531	116.72
197.75	123.07
197.969	138.22
198.188	144.71
198.407	132.97
198.625	168.88
198.844	137.31
199.063	118.07
199.282	129.3
199.501	110.67
199.719	191.75
199.938	164.32
200.157	194.12
200.376	436.25
200.594	215.46
200.813	144.32
201.032	225.34
201.251	316.89
201.469	4613.62
201.688	1465.32
201.907	-6705.51
202.125	1859.23
202.344	2019.71
202.563	1590.68
202.781	1117.67
203	-1211.66
203.218	-270.27
203.437	-397.31
203.656	-168.45
203.874	-471.44
204.093	-742.17
204.311	-690.34
204.53	16340.79
204.748	-632.82
204.967	2899.34
205.185	621.69
205.404	337.98
205.622	301.34
205.841	217.39
206.059	287.19
206.278	201.08
206.496	170.71
206.715	168.81
206.933	176.37
207.151	136.35
207.37	129.52
207.588	133.84
207.806	143.96
208.025	152.07
208.243	142.53
208.461	139.88
208.68	193.59
208.898	-313.58
209.116	-549.95
209.335	1182.38
209.553	-714.14
209.771	472.98
209.989	176.7
210.208	209.12
210.426	172.5
210.644	211.92
210.862	129.5
211.081	105.01
211.299	74.34
211.517	88.71
211.735	94.25
211.953	108.85
212.171	101.86
212.39	259.97
212.608	248.53
212.826	352.95
213.044	336.41
213.262	404.75
213.48	-15858.21
213.698	-861.21
213.916	484.24
214.134	-1003.8
214.352	-257.02
214.57	-317.86
214.788	3353.12
215.006	1146.67
215.224	984.92
215.442	593.39
215.66	543.46
215.878	373.25
216.096	181.37
216.314	185.84
216.532	127.35
216.75	115.7
216.968	131.89
217.185	160.79
217.403	182.88
217.621	174.09
217.839	201.56
218.057	219.48
218.275	218.45
218.492	254.53
218.71	262.17
218.928	268.06
219.146	280.23
219.363	293.99
219.581	183.8
219.799	167.45
220.017	193.87
220.234	180.57
220.452	140.79
220.67	134.12
220.887	149.61
221.105	168.13
221.323	160.04
221.54	143.05
221.758	103.15
221.976	107.93
222.193	85.17
222.411	76.93
222.629	74.5
222.846	81.46
223.064	66.53
223.281	48.73
223.499	32.89
223.716	62.4
223.934	67.21
224.151	78.02
224.369	81.98
224.586	101.91
224.804	108.83
225.021	112.09
225.239	104.4
225.456	108.75
225.674	93.06
225.891	85.22
226.108	82.48
226.326	85
226.543	74.26
226.76	66.98
226.978	64.29
227.195	54.68
227.413	51.26
227.63	51.66
227.847	45.37
228.064	45.75
228.282	42.34
228.499	39.23
228.716	36.18
228.934	38.43
229.151	38.9
229.368	34.78
229.585	32.33
229.802	32.31
230.02	29.42
230.237	30.89
230.454	29.68
230.671	30.56
230.888	27.11
231.105	27.76
231.323	24.23
231.54	23.73
231.757	26.74
231.974	30.36
232.191	24.92
232.408	25.69
232.625	27.29
232.842	28.23
233.059	30.56
233.276	35.45
233.493	34.82
233.71	36.65
233.927	35.39
234.144	36.8
234.361	36.58
234.578	42.26
234.795	45.54
235.012	41.61
235.229	44.38
235.446	46.22
235.663	52.74
235.879	55.06
236.096	61.21
236.313	63.08
236.53	57.72
236.747	52.6
236.964	51.01
237.181	50.58
237.397	52.42
237.614	46.3
237.831	45.42
238.048	40.74
238.264	38.5
238.481	29.79
238.698	24.01
238.915	26.4
239.131	35.28
239.348	36.41
239.565	34.12
239.781	37.06
239.998	36.58
240.215	31.65
240.431	28.79
240.648	24.89
240.865	25.2
241.081	25
241.298	24.54
241.514	21.18
241.731	19.4
241.947	18.69
242.164	18.59
242.38	18.75
242.597	19.3
242.814	19.51
243.03	20.72
243.246	21.09
243.463	23.01
243.679	23.01
243.896	23.33
244.112	24.16
244.329	26.84
244.545	23.62
244.762	25.83
244.978	25.36
245.194	25.97
245.411	23.76
245.627	24.83
245.843	20.7
246.06	18.06
246.276	15.58
246.492	13.91
246.709	12.73
246.925	14.47
247.141	14.47
247.357	14.27
247.574	14.34
247.79	13.51
248.006	12.29
248.222	12.77
248.439	13.34
248.655	13.6
248.871	14.14
249.087	14.16
249.303	13.84
249.519	12.94
249.736	13.48
249.952	13.24
250.168	17.78
250.384	18.38
250.6	20.18
250.816	19.47
251.032	20.83
251.248	21.18
251.464	19.8
251.68	20.04
251.896	20.11
252.112	17.19
252.328	17.68
252.544	14.55
252.76	16.16
252.976	14.91
253.192	16.35
253.408	15.52
253.624	17.7
253.84	18.92
254.056	18.51
254.272	17.42
254.487	22.01
254.703	20.77
254.919	22.54
255.135	23.25
255.351	23.92
255.567	23.08
255.782	21.17
255.998	20.6
256.214	22.2
256.43	22.11
256.646	23.65
256.861	20.46
257.077	18.92
257.293	18.46
257.508	17.45
257.724	15.37
257.94	14.25
258.155	14.5
258.371	14.86
258.587	12.93
258.802	12.17
259.018	11.37
259.234	11.53
259.449	12.04
259.665	11.95
259.88	10.8
260.096	12.27
260.312	12.36
260.527	12.69
260.743	12.51
260.958	12.19
261.174	13.1
261.389	13.24
261.605	13.96
261.82	14.14
262.036	13.3
262.251	14.48
262.466	12.66
262.682	14.22
262.897	15.49
263.113	14.31
263.328	15.59
263.543	14.85
263.759	14.25
263.974	12.78
264.189	12.7
264.405	15.14
264.62	16.49
264.835	17.71
265.051	16.11
265.266	15.42
265.481	16.79
265.696	18.49
265.912	19.19
266.127	19.9
266.342	20.4
266.557	20.12
266.773	19.64
266.988	19.02
267.203	18.37
267.418	18.95
267.633	17.83
267.848	16.08
268.064	13.77
268.279	12.29
268.494	13.28
268.709	12.26
268.924	12.62
269.139	11.6
269.354	11.08
269.569	12.62
269.784	11.3
269.999	12.67
270.214	13.33
270.429	14.28
270.644	13.77
270.859	13.14
271.074	14.44
271.289	14.82
271.504	14.43
271.719	14.07
271.934	13.41
272.149	13.83
272.363	14.41
272.578	14.37
272.793	13.82
273.008	14.58
273.223	14.42
273.438	13.55
273.653	12.46
273.867	14.2
274.082	15.02
274.297	14.85
274.512	15.12
274.726	13.67
274.941	13.48
275.156	14.69
275.371	14.34
275.585	15.33
275.8	15.72
276.015	16.55
276.229	14.93
276.444	12.97
276.659	13.78
276.873	14.03
277.088	15.69
277.302	14.35
277.517	12.42
277.732	13.31
277.946	12.59
278.161	13.97
278.375	12.93
278.59	13.22
278.804	12.98
279.019	11.53
279.233	9.75
279.448	8.97
279.662	12.3
279.877	13.93
280.091	12.5
280.306	11.83
280.52	11.86
280.735	12.7
280.949	12.25
281.163	14.3
281.378	15.83
281.592	16.59
281.806	15.56
282.021	13.95
282.235	14.24
282.449	15.24
282.664	16.03
282.878	15.08
283.092	13.76
283.307	14.02
283.521	12.98
283.735	11.27
283.949	11.83
284.164	12.28
284.378	11.77
284.592	10.85
284.806	10.47
285.02	9.07
285.234	8.64
285.449	9.33
285.663	9.78
285.877	10.14
286.091	10.3
286.305	9.53
286.519	9.03
286.733	9.27
286.947	9.38
287.161	9.22
287.375	9.57
287.589	10.64
287.803	10.85
288.017	9.88
288.231	9.12
288.445	9.3
288.659	9.58
288.873	9.66
289.087	10.99
289.301	11.57
289.515	11.39
289.729	12.84
289.943	12.06
290.157	12.35
290.371	12.68
290.584	12.89
290.798	12.87
291.012	13.94
291.226	14.6
291.44	13
291.654	12.91
291.867	12.62
292.081	11.5
292.295	11.39
292.509	11.01
292.722	11.33
292.936	11.04
293.15	10.92
293.364	9.34
293.577	8.46
293.791	8.85
294.005	8.73
294.218	9.57
294.432	9.55
294.645	10.72
294.859	10.91
295.073	10.93
295.286	10.57
295.5	9.99
295.713	10.3
295.927	10.25
296.14	10.3
296.354	9.6
296.568	9.84
296.781	9.55
296.994	8.77
297.208	8.9
297.421	8.61
297.635	9.14
297.848	9.05
298.062	8.97
298.275	8.77
298.489	8.33
298.702	9.25
298.915	8.9
299.129	9.56
299.342	9.99
299.555	9.87
299.769	10.45
299.982	11.1
300.195	11.68
300.409	11.99
300.622	12.19
300.835	13.49
301.048	12.47
301.262	11.96
301.475	11.44
301.688	11.27
301.901	11.11
302.115	11.61
302.328	12.26
302.541	12.12
302.754	11.94
302.967	12.33
303.18	12.62
303.393	12.74
303.607	13.54
303.82	14.7
304.033	14.26
304.246	14.56
304.459	14.29
304.672	12.87
304.885	13.15
305.098	13.66
305.311	15.02
305.524	14.15
305.737	15.67
305.95	16.84
306.163	14.46
306.376	14.67
306.589	13.85
306.802	12.88
307.015	13.81
307.228	14.64
307.44	13.77
307.653	11.34
307.866	11.41
308.079	10.29
308.292	8.36
308.505	9.15
308.718	9.12
308.93	9.41
309.143	9.4
309.356	7.81
309.569	7.32
309.781	7.17
309.994	7.03
310.207	7.06
310.42	5.61
310.632	6.05
310.845	7.13
311.058	6.83
311.27	6.21
311.483	6.02
311.696	6.71
311.908	6.59
312.121	6.62
312.333	7.32
312.546	7.15
312.759	7.83
312.971	8.39
313.184	8.28
313.396	8.73
313.609	9.81
313.821	11.35
314.034	11.96
314.246	12.4
314.459	12.82
314.671	13.71
314.884	13.74
315.096	13.83
315.309	12.42
315.521	11.88
315.733	11.83
315.946	11.29
316.158	10.9
316.371	10.43
316.583	10.78
316.795	10.13
317.008	10.8
317.22	10.31
317.432	11.41
317.644	11.33
317.857	11.36
318.069	12.3
318.281	13.5
318.494	12.6
318.706	12.19
318.918	11.12
319.13	13.07
319.342	11.34
319.555	11.76
319.767	11.81
319.979	12.62
320.191	13.63
320.403	13.58
320.615	12.89
320.827	12.3
321.039	13.8
321.252	14.12
321.464	12.8
321.676	13.81
321.888	13.77
322.1	13.54
322.312	13.3
322.524	12.5
322.736	11.36
322.948	11.68
323.16	11.94
323.372	10.39
323.584	10.49
323.796	11.75
324.007	11.78
324.219	11.92
324.431	12.27
324.643	12.43
324.855	13.09
325.067	13.74
325.279	13.57
325.491	14.48
325.702	14.78
325.914	15.04
326.126	14.23
326.338	14.01
326.55	13.57
326.761	13.14
326.973	13.52
327.185	12.47
327.396	13.21
327.608	12.45
327.82	11.34
328.032	11.3
328.243	10.65
328.455	10.18
328.666	9.56
328.878	10.55
329.09	10.21
329.301	9.58
329.513	10.02
329.725	10.21
329.936	10.65
330.148	12.51
330.359	13.04
330.571	13.29
330.782	13.07
330.994	13.96
331.205	12.89
331.417	12.83
331.628	13.01
331.84	13.79
332.051	12.82
332.262	11.97
332.474	11
332.685	12.03
332.897	12.58
333.108	13.45
333.319	12.51
333.531	12.81
333.742	12.9
333.953	12.14
334.165	10.78
334.376	10.41
334.587	10.66
334.799	9.97
335.01	9.36
335.221	8.04
335.432	7.14
335.644	7.8
335.855	7.49
336.066	7.71
336.277	8.36
336.488	9.03
336.7	8.26
336.911	8.2
337.122	8.73
337.333	8.39
337.544	9.82
337.755	10.06
337.966	9.68
338.177	9.97
338.388	9.6
338.599	9.97
338.811	9.75
339.022	10.63
339.233	10.42
339.444	9.55
339.655	9.99
339.866	9.64
340.076	8.6
340.287	8.83
340.498	8.62
340.709	9.83
340.92	9.55
341.131	9.17
341.342	9.04
341.553	9.9
341.764	10.87
341.975	10.71
342.185	10.3
342.396	10.78
342.607	11.16
342.818	11.66
343.029	10.43
343.239	10.01
343.45	10.4
343.661	10.37
343.872	10.23
344.082	10.62
344.293	10.77
344.504	12.45
344.714	12.48
344.925	11.48
345.136	10.46
345.346	11.17
345.557	10.89
345.768	11.31
345.978	10.88
346.189	11.28
346.399	11.06
346.61	10.59
346.821	8.74
347.031	9.66
347.242	10.1
347.452	10.73
347.663	10.88
347.873	11.47
348.084	10.5
348.294	11.38
348.504	10.66
348.715	10.17
348.925	10.01
349.136	10.59
349.346	9.52
349.557	10.25
349.767	9.72
349.977	8.81
350.188	9.03
350.398	10.06
350.608	9.86
350.819	9.58
351.029	9.23
351.239	10.19
351.449	9.78
351.66	10.81
351.87	9.55
352.08	10
352.29	10.75
352.501	10.37
352.711	10.57
352.921	10.6
353.131	11.22
353.341	11.73
353.552	10.58
353.762	10.97
353.972	10.15
354.182	11.89
354.392	12.56
354.602	12.67
354.812	12.57
355.022	11.77
355.232	11.17
355.442	10.94
355.652	10.65
355.862	11.28
356.072	10.22
356.282	10.49
356.492	9.32
356.702	8.71
356.912	8.47
357.122	8.99
357.332	9.16
357.542	9.01
357.752	8.98
357.962	9.42
358.171	9.02
358.381	9.73
358.591	9.26
358.801	9.72
359.011	9.3
359.221	9.87
359.43	9.64
359.64	8.73
359.85	8.73
360.06	8.58
360.269	8.36
360.479	7.91
360.689	7.86
360.899	7.98
361.108	7.42
361.318	7.58
361.528	6.66
361.737	6.61
361.947	7.17
362.156	7.38
362.366	7.27
362.576	6.85
362.785	7.29
362.995	7
363.204	7.05
363.414	7.12
363.623	7.49
363.833	8.14
364.042	7.78
364.252	7.29
364.461	7.23
364.671	7.53
364.88	7.39
365.09	7.26
365.299	7.54
365.509	7.5
365.718	7.82
365.927	7.24
366.137	7.16
366.346	7.45
366.555	7.53
366.765	7.76
366.974	7.36
367.183	8.33
367.393	8.17
367.602	7.91
367.811	7.94
368.021	7.22
368.23	7.89
368.439	7.89
368.648	7.54
368.857	7.58
369.067	7.68
369.276	8.32
369.485	8.32
369.694	8.37
369.903	8.95
370.112	8.94
370.321	9.4
370.531	8.3
370.74	7.55
370.949	7.56
371.158	7.99
371.367	7.41
371.576	7.75
371.785	7.17
371.994	7.3
372.203	6.88
372.412	6.69
372.621	6.53
372.83	7.03
373.039	7.66
373.248	7.99
373.457	7.93
373.666	8.04
373.874	7.1
374.083	7.35
374.292	7.29
374.501	7.6
374.71	7.67
374.919	7.64
375.128	7.86
375.336	7.84
375.545	7.85
375.754	7.65
375.963	7.59
376.171	7.91
376.38	8.21
376.589	7.93
376.798	7.32
377.006	7.78
377.215	8.04
377.424	7.8
377.632	7.06
377.841	6.89
378.05	6.96
378.258	6.83
378.467	6.75
378.675	6.14
378.884	6.43
379.093	6.9
379.301	6.72
379.51	6.66
379.718	6.78
379.927	7.13
380.135	7.12
380.344	7.24
380.552	7.27
380.761	6.97
380.969	7.22
381.177	7.13
381.386	6.24
381.594	6.12
381.803	5.86
382.011	5.69
382.219	5.52
382.428	5.75
382.636	5.53
382.845	5.5
383.053	5.74
383.261	5.49
383.469	5.64
383.678	6.55
383.886	6.31
384.094	6.4
384.302	6.44
384.511	6.6
384.719	6.32
384.927	6.22
385.135	6.42
385.343	6.69
385.552	6.7
385.76	6.34
385.968	6.08
386.176	6.12
386.384	6.24
386.592	6.03
386.8	6.34
387.008	6.3
387.216	6.3
387.424	6.06
387.633	5.77
387.841	5.86
388.049	6.32
388.257	6.42
388.465	6.67
388.672	6.48
388.88	6.56
389.088	6.74
389.296	6.5
389.504	6.87
389.712	7.08
389.92	6.99
390.128	6.88
390.336	6.47
390.544	6.26
390.751	6.06
390.959	6.03
391.167	6.33
391.375	5.98
391.583	5.95
391.79	5.45
391.998	5.81
392.206	5.91
392.414	5.95
392.621	6.16
392.829	6.08
393.037	6.11
393.244	6.26
393.452	6.13
393.66	6.09
393.867	6.41
394.075	6.81
394.283	6.39
394.49	6.2
394.698	6.21
394.905	6.25
395.113	6.52
395.32	6.41
395.528	6.38
395.735	6.57
395.943	6.44
396.15	6.4
396.358	6.33
396.565	6.24
396.773	6.29
396.98	6.42
397.188	6.76
397.395	6.73
397.602	6.93
397.81	7
398.017	6.88
398.225	7.45
398.432	7.61
398.639	7.74
398.847	8.5
399.054	8.36
399.261	8.32
399.468	7.72
399.676	8.02
399.883	8.04
400.09	8.04
400.297	8.21
400.505	7.94
400.712	8.01
400.919	8.12
401.126	7.67
401.333	8.18
401.54	8.36
401.748	8.36
401.955	7.97
402.162	8.46
402.369	8.74
402.576	8.84
402.783	8.7
402.99	8.66
403.197	8.77
403.404	8.87
403.611	8.77
403.818	8.83
404.025	8.84
404.232	8.89
404.439	8.47
404.646	8.61
404.853	8.47
405.06	8.96
405.267	8.97
405.474	8.53
405.681	8.41
405.887	8.46
406.094	8.53
406.301	8.71
406.508	8.89
406.715	9.17
406.922	8.88
407.128	9.34
407.335	9
407.542	9.07
407.749	9.63
407.955	10.09
408.162	10.5
408.369	10.66
408.575	10.98
408.782	11.11
408.989	11.15
409.195	11.38
409.402	11.24
409.609	11.44
409.815	11.32
410.022	11.23
410.228	11.14
410.435	10.91
410.642	10.86
410.848	11
411.055	11.03
411.261	11.25
411.468	11.43
411.674	11.37
411.881	11.26
412.087	11.96
412.294	12.3
412.5	12.33
412.706	12.73
412.913	12.93
413.119	13.07
413.326	13.32
413.532	13.16
413.738	13.23
413.945	13.11
414.151	13.27
414.357	13.31
414.564	13.09
414.77	13.08
414.976	13.15
415.182	13.16
415.389	13.1
415.595	12.79
415.801	12.68
416.007	12.69
416.214	12.87
416.42	12.8
416.626	12.31
416.832	12.16
417.038	12.06
417.244	11.82
417.45	11.67
417.657	11.3
417.863	11.33
418.069	11.29
418.275	10.93
418.481	10.83
418.687	10.7
418.893	10.65
419.099	10.48
419.305	10.48
419.511	10.29
419.717	10.11
419.923	10.06
420.129	9.95
420.335	9.91
420.541	9.77
420.746	9.67
420.952	9.59
421.158	9.57
421.364	9.58
421.57	9.65
421.776	9.53
421.982	9.57
422.187	9.59
422.393	9.62
422.599	9.51
422.805	9.58
423.01	9.59
423.216	9.66
423.422	9.78
423.628	9.77
423.833	9.52
424.039	9.37
424.245	9.23
424.45	9.27
424.656	9.24
424.862	9.38
425.067	9.52
425.273	9.57
425.478	9.6
425.684	9.51
425.889	9.63
426.095	9.91
426.301	10.35
426.506	10.71
426.712	10.87
426.917	11.2
427.123	11.37
427.328	11.57
427.533	11.82
427.739	11.95
427.944	12.18
428.15	12.18
428.355	12.3
428.561	12.48
428.766	12.44
428.971	12.41
429.177	12.34
429.382	12.38
429.587	12.41
429.793	12.3
429.998	12.36
430.203	12.43
430.408	12.52
430.614	12.51
430.819	12.54
431.024	12.7
431.229	12.84
431.434	12.88
431.64	13.11
431.845	13.27
432.05	13.52
432.255	13.57
432.46	13.61
432.665	13.8
432.87	13.91
433.076	13.8
433.281	13.77
433.486	13.83
433.691	13.9
433.896	13.82
434.101	13.87
434.306	14.07
434.511	14.44
434.716	14.79
434.921	15.16
435.126	15.65
435.331	16.35
435.535	16.98
435.74	17.46
435.945	17.85
436.15	18.16
436.355	18.38
436.56	18.33
436.765	18.29
436.97	17.98
437.174	17.63
437.379	17.13
437.584	16.67
437.789	16.13
437.993	15.64
438.198	15.15
438.403	14.65
438.608	14.26
438.812	13.97
439.017	13.69
439.222	13.54
439.426	13.35
439.631	13.15
439.836	12.98
440.04	12.78
440.245	12.8
440.45	12.71
440.654	12.78
440.859	12.71
441.063	12.84
441.268	12.92
441.472	13.11
441.677	13.39
441.881	13.64
442.086	13.86
442.29	14.11
442.495	14.42
442.699	14.7
442.904	15.01
443.108	15.27
443.312	15.39
443.517	15.56
443.721	15.78
443.925	15.52
444.13	15.48
444.334	15.27
444.538	15
444.743	14.52
444.947	14.31
445.151	13.89
445.356	13.65
445.56	13.44
445.764	13.25
445.968	12.87
446.173	12.95
446.377	12.72
446.581	12.68
446.785	12.62
446.989	12.75
447.193	12.84
447.398	13.02
447.602	13.23
447.806	13.39
448.01	13.5
448.214	13.71
448.418	13.91
448.622	14.24
448.826	14.68
449.03	15.35
449.234	15.7
449.438	15.86
449.642	16.28
449.846	16.73
450.05	17.01
450.254	17.18
450.458	17.34
450.662	17.62
450.866	17.82
451.069	17.86
451.273	17.52
451.477	17.48
451.681	17.79
451.885	17.75
452.089	17.43
452.292	17.19
452.496	17.22
452.7	17.25
452.904	17.14
453.107	17.07
453.311	16.86
453.515	16.98
453.719	17.13
453.922	17.18
454.126	17.13
454.33	17.28
454.533	17.52
454.737	17.61
454.94	17.59
455.144	17.7
455.348	18.01
455.551	18.15
455.755	18.41
455.958	18.46
456.162	18.4
456.365	18.34
456.569	18.3
456.772	18.44
456.976	18.52
457.179	18.77
457.383	18.7
457.586	18.37
457.79	18.27
457.993	17.98
458.196	17.7
458.4	17.4
458.603	17.24
458.807	16.8
459.01	16.35
459.213	16.01
459.417	15.52
459.62	15.25
459.823	15.01
460.026	14.69
460.23	14.54
460.433	14.48
460.636	14.58
460.839	14.66
461.042	14.98
461.246	15.22
461.449	15.6
461.652	16.02
461.855	16.47
462.058	17.03
462.261	17.82
462.464	18.4
462.668	18.72
462.871	19.08
463.074	19.58
463.277	19.86
463.48	20.27
463.683	20.41
463.886	20.78
464.089	21.04
464.292	21.08
464.495	21.05
464.698	21.06
464.901	21.39
465.104	21.38
465.306	21.27
465.509	21.28
465.712	21.11
465.915	21.31
466.118	21
466.321	20.89
466.524	20.78
466.726	20.75
466.929	20.83
467.132	20.73
467.335	20.75
467.538	20.78
467.74	20.93
467.943	21.18
468.146	21.11
468.348	21.54
468.551	21.76
468.754	22.05
468.956	22.27
469.159	22.22
469.362	22.18
469.564	22.38
469.767	22.6
469.969	22.76
470.172	23.09
470.375	23.31
470.577	23.56
470.78	23.69
470.982	23.98
471.185	24.31
471.387	24.78
471.59	25.21
471.792	25.34
471.995	25.59
472.197	25.69
472.399	25.63
472.602	25.89
472.804	26.09
473.007	26.19
473.209	26.19
473.411	26.08
473.614	26.24
473.816	26.42
474.018	26.88
474.22	27.23
474.423	27.4
474.625	27.5
474.827	27.35
475.03	27.32
475.232	27.35
475.434	27.56
475.636	27.77
475.838	27.8
476.04	27.72
476.243	27.52
476.445	27.24
476.647	27.3
476.849	27.16
477.051	27.23
477.253	27.2
477.455	27.15
477.657	26.98
477.859	26.96
478.061	26.81
478.263	26.71
478.465	26.78
478.667	26.92
478.869	27.04
479.071	27.34
479.273	27.51
479.475	27.6
479.677	27.77
479.879	27.93
480.081	28.01
480.283	27.95
480.485	27.91
480.686	27.65
480.888	27.27
481.09	26.63
481.292	25.82
481.494	25.05
481.695	24.22
481.897	23.08
482.099	21.85
482.301	20.54
482.502	19.24
482.704	18.04
482.906	16.96
483.107	15.91
483.309	15.05
483.511	14.39
483.712	13.77
483.914	13.17
484.115	12.84
484.317	12.65
484.519	12.49
484.72	12.55
484.922	12.62
485.123	12.79
485.325	13.05
485.526	13.38
485.728	13.77
485.929	14.17
486.131	14.66
486.332	14.98
486.534	15.2
486.735	15.43
486.936	15.48
487.138	15.49
487.339	15.45
487.541	15.42
487.742	15.45
487.943	15.49
488.144	15.57
488.346	15.71
488.547	16.01
488.748	16.4
488.95	16.85
489.151	17.35
489.352	17.95
489.553	18.58
489.755	19.24
489.956	19.67
490.157	19.98
490.358	20.3
490.559	20.38
490.76	20.3
490.961	20.09
491.163	19.79
491.364	19.46
491.565	19.14
491.766	18.87
491.967	18.73
492.168	18.77
492.369	18.96
492.57	19.28
492.771	19.82
492.972	20.49
493.173	21.33
493.374	22.33
493.575	23.57
493.776	24.9
493.976	26.27
494.177	27.7
494.378	29.08
494.579	30.37
494.78	31.38
494.981	32.13
495.182	32.67
495.382	32.86
495.583	32.8
495.784	32.66
495.985	32.52
496.185	32.16
496.386	31.63
496.587	31.34
496.788	31.12
496.988	30.71
497.189	30.54
497.39	30.26
497.59	30.16
497.791	30.25
497.992	30.26
498.192	30.37
498.393	30.64
498.593	30.89
498.794	31.01
498.994	31.26
499.195	31.55
499.395	32.01
499.596	32.44
499.796	32.91
499.997	33.15
500.197	33.4
500.398	33.73
500.598	33.98
500.799	34.53
500.999	34.93
501.199	35.18
501.4	35.68
501.6	35.72
501.801	36.02
502.001	36.12
502.201	36.53
502.402	36.87
502.602	36.77
502.802	36.91
503.002	36.74
503.203	36.72
503.403	36.52
503.603	36.37
503.803	36.34
504.003	36.14
504.204	36.12
504.404	36.16
504.604	35.97
504.804	36.41
505.004	36.48
505.204	36.58
505.404	36.86
505.604	37.09
505.804	37.15
506.005	37.44
506.205	37.63
506.405	37.73
506.605	37.57
506.805	37.68
507.005	37.28
507.204	36.91
507.404	36.63
507.604	36.34
507.804	36.14
508.004	35.96
508.204	35.52
508.404	35.25
508.604	34.96
508.804	34.76
509.003	34.53
509.203	34.36
509.403	34.4
509.603	34.44
509.803	34.32
510.002	34.34
510.202	34.46
510.402	34.51
510.602	34.53
510.801	34.68
511.001	34.78
511.201	34.77
511.4	34.81
511.6	34.87
511.8	34.9
511.999	35.16
512.199	35.14
512.398	35.1
512.598	35.27
512.797	35.5
512.997	35.62
513.197	35.87
513.396	36.23
513.596	36.57
513.795	37.03
513.994	37.36
514.194	37.68
514.393	38.31
514.593	38.73
514.792	39.15
514.992	39.37
515.191	39.79
515.39	39.79
515.59	39.76
515.789	39.88
515.988	39.55
516.188	39.35
516.387	38.82
516.586	38.04
516.786	37.29
516.985	36.43
517.184	35.62
517.383	34.63
517.582	33.87
517.782	33.08
517.981	32.22
518.18	31.72
518.379	31.26
518.578	30.88
518.777	30.57
518.976	30.57
519.176	30.66
519.375	30.83
519.574	31.25
519.773	31.73
519.972	32.36
520.171	32.98
520.37	33.72
520.569	34.43
520.768	35.36
520.967	36.3
521.166	36.97
521.365	37.61
521.564	38.41
521.762	38.89
521.961	39.36
522.16	39.81
522.359	40.34
522.558	40.47
522.757	40.73
522.956	40.78
523.154	40.79
523.353	40.7
523.552	40.65
523.751	40.31
523.949	39.85
524.148	39.29
524.347	38.57
524.546	37.57
524.744	36.79
524.943	35.77
525.142	34.79
525.34	33.93
525.539	33.13
525.737	32.29
525.936	31.62
526.135	30.96
526.333	30.18
526.532	29.47
526.73	28.77
526.929	27.88
527.127	27.04
527.326	26.15
527.524	25.18
527.723	24.26
527.921	23.43
528.12	22.53
528.318	21.78
528.516	21.23
528.715	20.72
528.913	20.49
529.112	20.31
529.31	20.31
529.508	20.49
529.707	20.84
529.905	21.29
530.103	21.87
530.301	22.61
530.5	23.55
530.698	24.54
530.896	25.66
531.094	26.66
531.293	27.72
531.491	28.53
531.689	29.09
531.887	29.4
532.085	29.48
532.283	29.27
532.481	28.97
532.68	28.49
532.878	28.13
533.076	27.72
533.274	27.33
533.472	27.07
533.67	26.93
533.868	26.89
534.066	27.15
534.264	27.44
534.462	27.87
534.66	28.51
534.858	29.21
535.056	29.82
535.253	30.49
535.451	31.29
535.649	31.87
535.847	32.42
536.045	32.94
536.243	33.15
536.441	33.41
536.638	33.65
536.836	33.64
537.034	33.77
537.232	34.09
537.43	34.57
537.627	34.97
537.825	35.6
538.023	36.32
538.22	37.04
538.418	37.66
538.616	38.34
538.813	39.02
539.011	39.8
539.209	40.07
539.406	39.95
539.604	39.43
539.801	38.71
539.999	37.59
540.196	36.41
540.394	35.08
540.591	33.78
540.789	32.67
540.986	31.57
541.184	30.51
541.381	29.83
541.579	29.2
541.776	28.88
541.974	28.64
542.171	28.69
542.368	28.87
542.566	29.21
542.763	29.72
542.96	30.35
543.158	31.04
543.355	31.98
543.552	33.02
543.75	34.29
543.947	35.4
544.144	36.6
544.341	37.94
544.539	39.18
544.736	40.38
544.933	41.51
545.13	42.37
545.327	43.42
545.524	44.13
545.722	44.52
545.919	44.74
546.116	44.92
546.313	44.98
546.51	44.79
546.707	44.65
546.904	44.56
547.101	44.61
547.298	44.67
547.495	44.77
547.692	45.04
547.889	45.52
548.086	46.19
548.283	47.03
548.48	47.93
548.677	48.81
548.874	50.01
549.07	51.06
549.267	52.29
549.464	53.65
549.661	54.82
549.858	55.89
550.055	56.68
550.251	57.27
550.448	57.6
550.645	58
550.842	58.4
551.038	58.28
551.235	58.15
551.432	57.53
551.628	56.93
551.825	56.25
552.022	55.56
552.218	54.98
552.415	54.28
552.612	53.88
552.808	53.4
553.005	52.98
553.201	52.78
553.398	52.8
553.594	53.1
553.791	53.4
553.987	53.74
554.184	54.22
554.38	54.89
554.577	55.75
554.773	56.27
554.97	57.08
555.166	57.97
555.362	58.54
555.559	59.16
555.755	59.61
555.952	60.17
556.148	60.67
556.344	61.15
556.541	61.35
556.737	61.58
556.933	62.1
557.129	62.42
557.326	62.51
557.522	62.79
557.718	62.89
557.914	62.86
558.11	62.94
558.307	63.03
558.503	63.17
558.699	63.45
558.895	63.39
559.091	63.28
559.287	63.28
559.483	63.28
559.679	63.29
559.876	63.05
560.072	63.1
560.268	63.04
560.464	62.9
560.66	62.81
560.856	62.8
561.052	62.87
561.247	62.97
561.443	62.97
561.639	62.71
561.835	62.58
562.031	62.81
562.227	62.94
562.423	63.26
562.619	63.54
562.815	63.83
563.01	63.92
563.206	63.99
563.402	63.95
563.598	63.88
563.793	64.05
563.989	64.17
564.185	63.97
564.381	63.56
564.576	62.69
564.772	61.9
564.968	60.64
565.163	59.61
565.359	58.71
565.555	57.95
565.75	57.2
565.946	56.47
566.141	55.69
566.337	55.07
566.532	54.76
566.728	54.67
566.923	54.77
567.119	55.25
567.314	55.6
567.51	56.04
567.705	56.41
567.901	56.91
568.096	57.59
568.292	58.25
568.487	58.86
568.682	59.63
568.878	60.09
569.073	60.37
569.268	60.46
569.464	60.78
569.659	60.89
569.854	60.9
570.05	60.44
570.245	60.07
570.44	59.66
570.635	59.39
570.831	58.86
571.026	58.37
571.221	57.82
571.416	57.34
571.611	56.71
571.806	56.47
572.002	56.07
572.197	55.98
572.392	55.64
572.587	55.8
572.782	55.86
572.977	55.83
573.172	56.03
573.367	56.4
573.562	56.8
573.757	57.29
573.952	57.23
574.147	57.67
574.342	57.8
574.537	58.3
574.732	58.26
574.927	58.41
575.121	58.48
575.316	58.77
575.511	59.01
575.706	59.23
575.901	59.51
576.096	60.09
576.29	60.62
576.485	61.57
576.68	62.4
576.875	63.39
577.069	64.39
577.264	65.36
577.459	66.13
577.654	67.08
577.848	68.01
578.043	68.82
578.238	69.86
578.432	70.66
578.627	71.49
578.821	72.33
579.016	73.28
579.21	73.97
579.405	75.08
579.6	76.05
579.794	76.55
579.989	77.02
580.183	77.46
580.378	77.83
580.572	78.36
580.766	78.45
580.961	78.72
581.155	78.59
581.35	78.76
581.544	78.68
581.738	78.67
581.933	79.06
582.127	79.49
582.321	79.87
582.516	79.86
582.71	80.34
582.904	81
583.099	81.25
583.293	81.91
583.487	82.47
583.681	82.75
583.875	83.09
584.07	83.3
584.264	83.62
584.458	83.63
584.652	84.1
584.846	83.77
585.04	83.45
585.234	83.51
585.428	83.42
585.623	83.17
585.817	83.19
586.011	83.28
586.205	83.24
586.399	83.23
586.593	83.12
586.787	82.86
586.981	82.54
587.174	82.59
587.368	81.91
587.562	81.18
587.756	80.54
587.95	80.11
588.144	79.21
588.338	78.31
588.532	77.29
588.725	76.66
588.919	75.85
589.113	75.25
589.307	74.52
589.501	74.21
589.694	74.15
589.888	73.66
590.082	73.24
590.275	73.31
590.469	73.54
590.663	73.61
590.856	73.99
591.05	74.46
591.244	74.98
591.437	75.73
591.631	76
591.824	76.19
592.018	76.91
592.212	77.66
592.405	78.02
592.599	78.32
592.792	78.88
592.986	78.92
593.179	79.01
593.372	78.93
593.566	78.47
593.759	78.65
593.953	78.47
594.146	78.09
594.339	77.39
594.533	76.82
594.726	76.37
594.92	75.64
595.113	75.35
595.306	74.57
595.499	73.85
595.693	73.16
595.886	71.9
596.079	70.84
596.272	69.97
596.466	69.07
596.659	68.36
596.852	67.73
597.045	67.36
597.238	66.94
597.431	66.86
597.624	67.09
597.818	67.41
598.011	68.25
598.204	69.25
598.397	70.56
598.59	72.14
598.783	73.5
598.976	74.96
599.169	76.53
599.362	77.86
599.555	79.52
599.748	80.99
599.941	82.3
600.134	83.53
600.326	84.37
600.519	84.77
600.712	84.72
600.905	84.94
601.098	85.18
601.291	85.07
601.483	84.91
601.676	84.49
601.869	83.73
602.062	82.67
602.255	81.31
602.447	80.36
602.64	78.8
602.833	77.77
603.025	76.66
603.218	75.39
603.411	73.95
603.603	72.56
603.796	71.28
603.989	70
604.181	69.12
604.374	68.56
604.566	67.7
604.759	67.58
604.951	67.45
605.144	67.41
605.336	67.91
605.529	68.4
605.721	69.34
605.914	70.34
606.106	71.58
606.299	73.15
606.491	74.51
606.683	76.35
606.876	77.97
607.068	79.45
607.26	80.81
607.453	81.41
607.645	82.25
607.837	82.51
608.03	82.47
608.222	82.41
608.414	81.81
608.606	81.34
608.799	80.42
608.991	79.97
609.183	79.48
609.375	79.35
609.567	79.77
609.759	80.23
609.952	81.14
610.144	82.46
610.336	83.89
610.528	85.51
610.72	87.28
610.912	89.44
611.104	91.64
611.296	93.76
611.488	96.17
611.68	97.8
611.872	99.35
612.064	100.71
612.256	101.72
612.448	102.68
612.64	103.68
612.832	104.07
613.023	104.39
613.215	104.06
613.407	104.4
613.599	103.83
613.791	104.03
613.983	104.45
614.174	104.16
614.366	103.85
614.558	103.7
614.75	103.16
614.941	102.99
615.133	102.57
615.325	102.59
615.516	102.29
615.708	101.75
615.9	101.65
616.091	100.76
616.283	100.81
616.475	100.48
616.666	99.9
616.858	99.71
617.049	99.66
617.241	99.35
617.432	99.05
617.624	98.78
617.815	99.03
618.007	98.06
618.198	98.49
618.39	98.38
618.581	98.6
618.773	98.91
618.964	99.16
619.155	99.36
619.347	100.01
619.538	100.26
619.729	100.66
619.921	100.82
620.112	101.51
620.303	101.44
620.494	101.24
620.686	101.72
620.877	101.96
621.068	102.13
621.259	102.1
621.451	102.36
621.642	103.1
621.833	103.39
622.024	103.74
622.215	103.99
622.406	104.24
622.597	104.59
622.788	104.55
622.98	104.63
623.171	105.14
623.362	105.5
623.553	105.54
623.744	105.32
623.935	105.03
624.126	105.05
624.317	104.51
624.508	104.27
624.698	103.57
624.889	102.48
625.08	101.98
625.271	100.41
625.462	99.17
625.653	97.81
625.844	96.03
626.034	94.3
626.225	92.83
626.416	91.73
626.607	90.59
626.798	89.53
626.988	88.83
627.179	88.05
627.37	87.72
627.56	88
627.751	87.96
627.942	88.6
628.132	89.53
628.323	90.01
628.514	90.85
628.704	91.57
628.895	93.02
629.085	94.48
629.276	95.64
629.466	96.97
629.657	97.39
629.847	98.45
630.038	99.24
630.228	100.11
630.419	101.01
630.609	101.98
630.8	102.96
630.99	103.57
631.181	103.78
631.371	104.4
631.561	104.78
631.752	105.17
631.942	105.2
632.132	105.34
632.323	105.57
632.513	105.24
632.703	104.64
632.893	104.27
633.084	103.45
633.274	103.06
633.464	102.26
633.654	101.56
633.844	100.65
634.034	100.15
634.225	100.01
634.415	99.47
634.605	99.67
634.795	99.93
634.985	100.18
635.175	100.5
635.365	100.6
635.555	101.27
635.745	101.67
635.935	102.79
636.125	103.73
636.315	104.2
636.505	104.83
636.695	105.38
636.885	106.11
637.075	106.94
637.265	107.92
637.455	109.11
637.644	109.53
637.834	110.09
638.024	110.77
638.214	111.07
638.404	111.28
638.593	111.69
638.783	112.56
638.973	113.01
639.163	112.93
639.352	113.6
639.542	113.78
639.732	114.33
639.921	114.7
640.111	115.07
640.301	116.15
640.49	117.37
640.68	118.17
640.87	117.86
641.059	117.57
641.249	117.65
641.438	117.16
641.628	118.04
641.817	118.7
642.007	119.19
642.196	119.31
642.386	118.74
642.575	119.08
642.764	118.89
642.954	119.38
643.143	119.76
643.333	120.27
643.522	120.81
643.711	120.42
643.901	120.02
644.09	119.75
644.279	119.89
644.469	120.49
644.658	119.31
644.847	119.16
645.036	119.44
645.226	119.41
645.415	118.62
645.604	118.38
645.793	117.65
645.982	117.59
646.171	117.65
646.361	116.99
646.55	116.5
646.739	116.94
646.928	116.94
647.117	116.51
647.306	116.05
647.495	116.18
647.684	115.99
647.873	116.46
648.062	116.28
648.251	116.13
648.44	116.33
648.629	116.21
648.818	115.83
649.007	115.82
649.196	115.19
649.384	115.2
649.573	115.53
649.762	115.43
649.951	114.83
650.14	114.88
650.328	114.76
650.517	114.57
650.706	115.14
650.895	115.11
651.083	114.8
651.272	114.86
651.461	115.03
651.65	115.07
651.838	115.1
652.027	115.43
652.216	115.13
652.404	114.89
652.593	115.31
652.781	115.66
652.97	116.19
653.158	116.41
653.347	117.3
653.535	117.99
653.724	118.09
653.912	118.53
654.101	118.7
654.289	119.06
654.478	119.88
654.666	120.13
654.855	119.96
655.043	119.78
655.231	120.15
655.42	120.14
655.608	119.66
655.796	119.95
655.985	119.77
656.173	119.84
656.361	119.6
656.55	119.26
656.738	119.3
656.926	118.53
657.114	118.25
657.302	117.04
657.491	115.59
657.679	114.19
657.867	112.22
658.055	110.75
658.243	109.18
658.431	107.55
658.619	105.84
658.807	104.05
658.996	103.12
659.184	101.56
659.372	100.82
659.56	100.26
659.748	100.06
659.936	100.61
660.124	100.59
660.311	101.35
660.499	102.27
660.687	103.99
660.875	105.81
661.063	106.72
661.251	108.74
661.439	111.06
661.627	113.26
661.814	115.38
662.002	116.87
662.19	119.04
662.378	120.25
662.565	122.25
662.753	123.6
662.941	124.3
663.129	125.33
663.316	126.43
663.504	126.82
663.692	127.47
663.879	128.12
664.067	128.75
664.254	129.47
664.442	130.69
664.63	130.92
664.817	131.38
665.005	131.69
665.192	132.31
665.38	131.94
665.567	131.8
665.755	131.66
665.942	131.19
666.13	131.02
666.317	130.59
666.504	130.07
666.692	129.73
666.879	129.05
667.067	129.02
667.254	128.96
667.441	129.47
667.629	129.15
667.816	128.86
668.003	128.9
668.19	128.32
668.378	127.52
668.565	127.09
668.752	126.5
668.939	125.48
669.127	124.72
669.314	124.19
669.501	123.96
669.688	124.58
669.875	124.68
670.062	124.5
670.249	125.52
670.436	126.59
670.623	127.11
670.81	128.31
670.997	129.81
671.184	130.75
671.371	132.32
671.558	132.96
671.745	133.21
671.932	134.22
672.119	135.46
672.306	135.49
672.493	135.85
672.68	136.51
672.867	136.38
673.054	135.91
673.24	136.05
673.427	135.13
673.614	135.34
673.801	135.27
673.988	135.33
674.174	135.54
674.361	135.75
674.548	135.61
674.734	135.57
674.921	135.43
675.108	135.93
675.294	135.67
675.481	135.52
675.668	135.33
675.854	135.83
676.041	135.42
676.227	134.23
676.414	133.69
676.601	133.97
676.787	133.23
676.974	132.77
677.16	132.31
677.347	131.48
677.533	132
677.719	131.05
677.906	130.02
678.092	129.12
678.279	129.11
678.465	127.84
678.651	125.96
678.838	125.2
679.024	124.53
679.21	122.82
679.397	122.49
679.583	121.14
679.769	119.75
679.955	118.47
680.142	118.09
680.328	117.43
680.514	117.03
680.7	117.2
680.886	117.2
681.073	117.26
681.259	117.28
681.445	117.45
681.631	117.85
681.817	118.08
682.003	119.13
682.189	119.48
682.375	120.45
682.561	121.32
682.747	121.87
682.933	122.05
683.119	122.46
683.305	124.38
683.491	125.1
683.677	125.77
683.863	127.27
684.049	128.39
684.235	129.48
684.42	129.63
684.606	130.33
684.792	130.9
684.978	131.71
685.164	131.99
685.349	131.72
685.535	131.22
685.721	130.95
685.907	130.72
686.092	129.93
686.278	128.8
686.464	128.36
686.649	127.77
686.835	127.32
687.021	126.96
687.206	126.52
687.392	126.24
687.577	126.91
687.763	126.71
687.948	126.23
688.134	125.84
688.319	125.88
688.505	125.9
688.69	126.74
688.876	126.82
689.061	126.91
689.247	127.73
689.432	128.36
689.618	128.17
689.803	128.97
689.988	130.14
690.174	130.88
690.359	131.87
690.544	132.86
690.73	132.56
690.915	134.3
691.1	134.52
691.285	134.94
691.471	134.79
691.656	135.6
691.841	135.94
692.026	136.33
692.211	136.64
692.396	136.57
692.582	137.34
692.767	138.76
692.952	138.02
693.137	139.43
693.322	139.26
693.507	140.19
693.692	140.67
693.877	141.29
694.062	140.97
694.247	142.22
694.432	142.78
694.617	141.6
694.802	140.51
694.987	141
695.172	140.64
695.357	141.41
695.541	141.17
695.726	140.38
695.911	140.42
696.096	140.61
696.281	138.7
696.466	137.54
696.65	135.96
696.835	133.91
697.02	131.06
697.204	128.07
697.389	124.97
697.574	122.1
697.759	119.04
697.943	115.06
698.128	111.84
698.312	109.89
698.497	107.33
698.682	106.11
698.866	104.69
699.051	104.35
699.235	104.61
699.42	104.72
699.604	104.89
699.789	105.6
699.973	107.07
700.158	108.92
700.342	110.44
700.527	112.62
700.711	114.85
700.895	117.46
701.08	119.57
701.264	121.35
701.448	123.17
701.633	124.87
701.817	127.4
702.001	130.25
702.186	132.26
702.37	134.57
702.554	137.6
702.738	140.68
702.923	143.89
703.107	145.56
703.291	147.71
703.475	149.57
703.659	152.9
703.843	154.11
704.027	156.17
704.212	157.95
704.396	159
704.58	159.15
704.764	158.23
704.948	159.27
705.132	160.1
705.316	160.87
705.5	161.33
705.684	161.84
705.868	162.91
706.052	161.4
706.235	161.17
706.419	160.89
706.603	160.92
706.787	161.5
706.971	159.43
707.155	158.59
707.339	157.04
707.522	156.87
707.706	156.58
707.89	156.26
708.074	156.23
708.257	155.59
708.441	155.2
708.625	155.82
708.808	154.86
708.992	154.83
709.176	154.3
709.359	154.57
709.543	153.86
709.727	152.05
709.91	151.44
710.094	150.47
710.277	150.46
710.461	150.76
710.644	149.16
710.828	148.45
711.011	148.46
711.195	148.31
711.378	147.96
711.562	148.82
711.745	150.01
711.928	149.66
712.112	149.75
712.295	149
712.478	147.75
712.662	148.72
712.845	149.03
713.028	148.37
713.212	149.29
713.395	149.02
713.578	148.53
713.761	146.93
713.945	146.33
714.128	146.15
714.311	145.33
714.494	144.85
714.677	144.13
714.86	143.48
715.043	142.85
715.227	140.96
715.41	140.03
715.593	139.16
715.776	137.68
715.959	136.53
716.142	136.2
716.325	135.42
716.508	135.41
716.691	133.77
716.874	133.66
717.057	133.11
717.239	133.64
717.422	133.89
717.605	133.11
717.788	135.03
717.971	137.18
718.154	137.12
718.337	138.77
718.519	138.47
718.702	139.96
718.885	139.94
719.068	140.82
719.25	141.98
719.433	144.47
719.616	146.21
719.798	146.97
719.981	147.69
720.164	148.67
720.346	150.73
720.529	154.28
720.712	156.49
720.894	158.09
721.077	161.42
721.259	161.68
721.442	161.06
721.624	162.51
721.807	163.59
721.989	163.1
722.172	165.35
722.354	163.79
722.537	163.47
722.719	162.88
722.901	162.76
723.084	161.58
723.266	162.48
723.448	162.48
723.631	162.16
723.813	160.7
723.995	160.43
724.178	159.36
724.36	161.55
724.542	160.24
724.724	159.07
724.907	158.31
725.089	159.81
725.271	159.69
725.453	158.82
725.635	158.08
725.817	160.19
725.999	160.39
726.181	159.1
726.364	155.83
726.546	155.29
726.728	156.06
726.91	155.19
727.092	152.11
727.274	149.94
727.456	149.71
727.638	148.51
727.819	146.47
728.001	145.42
728.183	145.52
728.365	145.08
728.547	144.1
728.729	143.69
728.911	144.88
729.093	143.64
729.274	144.81
729.456	143.77
729.638	144.25
729.82	144.91
730.001	144.91
730.183	144.38
730.365	144.98
730.546	145.58
730.728	145.69
730.91	146.87
731.091	147.96
731.273	146.89
731.455	148.9
731.636	148.79
731.818	148.38
731.999	148.69
732.181	148.98
732.362	148.68
732.544	150.27
732.725	150.28
732.907	148.91
733.088	149.65
733.27	152.02
733.451	152.51
733.633	153.52
733.814	154.2
733.995	154.88
734.177	156.66
734.358	158.82
734.539	158.04
734.721	158.84
734.902	160.18
735.083	161.93
735.264	161.63
735.446	162.33
735.627	165.17
735.808	166.15
735.989	168.35
736.17	168.07
736.351	167.97
736.533	169.91
736.714	169.88
736.895	170.33
737.076	169.87
737.257	170.85
737.438	170.58
737.619	169.85
737.8	169.64
737.981	168.19
738.162	167.85
738.343	168.96
738.524	168.55
738.705	169.37
738.886	168.51
739.067	168.77
739.247	169.04
739.428	169.89
739.609	168.05
739.79	168.5
739.971	169.3
740.151	170.91
740.332	171.55
740.513	170.86
740.694	171.57
740.874	174.16
741.055	174.94
741.236	174.83
741.417	175
741.597	176.62
741.778	177.97
741.958	178.03
742.139	178.57
742.32	179.28
742.5	181.64
742.681	183.06
742.861	182.78
743.042	184
743.222	186.23
743.403	186.65
743.583	187.1
743.764	186.4
743.944	188.14
744.124	188.47
744.305	188.98
744.485	189.75
744.666	188.92
744.846	189.68
745.026	190.58
745.207	188.91
745.387	190.89
745.567	191.94
745.747	193.14
745.928	194.61
746.108	196.49
746.288	197.26
746.468	196.25
746.648	197.25
746.829	198.58
747.009	198.07
747.189	197.34
747.369	194.02
747.549	194.07
747.729	194.49
747.909	193.82
748.089	192.76
748.269	191.54
748.449	191.1
748.629	191.2
748.809	190.98
748.989	189.42
749.169	190.41
749.349	192.03
749.529	191.14
749.709	189.62
749.889	189.49
750.068	188.93
750.248	188.44
750.428	187.93
750.608	186.87
750.788	186.23
750.967	186.98
751.147	187.31
751.327	187.56
751.507	187.98
751.686	189.26
751.866	188.78
752.046	188.05
752.225	188.82
752.405	191.74
752.585	193.05
752.764	193.08
752.944	193.05
753.123	193.72
753.303	193.09
753.482	192.7
753.662	192.75
753.841	191.21
754.021	191.97
754.2	191.93
754.38	191.43
754.559	191.99
754.739	192.35
754.918	192.84
755.097	193.47
755.277	194.28
755.456	197.03
755.635	195.92
755.815	199.07
755.994	200.12
756.173	201.68
756.352	198.45
756.532	196.64
756.711	196.67
756.89	198.05
757.069	196.57
757.248	193.84
757.427	193.44
757.607	194.37
757.786	192.54
757.965	189.48
758.144	187.38
758.323	185.55
758.502	183.04
758.681	179.95
758.86	175.64
759.039	172.52
759.218	170.91
759.397	167.83
759.576	163.86
759.755	160.4
759.934	157.73
760.113	155.16
760.291	154.9
760.47	153.76
760.649	152.91
760.828	150.98
761.007	151.06
761.186	150.43
761.364	148.46
761.543	147.44
761.722	144.53
761.901	143.92
762.079	141.28
762.258	139.27
762.437	137.08
762.615	133.93
762.794	132.58
762.972	129.43
763.151	126.66
763.33	124.08
763.508	122.29
763.687	121.36
763.865	120.09
764.044	119.25
764.222	117.91
764.401	118.57
764.579	120.61
764.758	121.74
764.936	123.5
765.114	125.88
765.293	129.22
765.471	132.11
765.65	135.45
765.828	139.13
766.006	143.13
766.184	148.48
766.363	150.7
766.541	152.92
766.719	156.12
766.898	159.15
767.076	163.33
767.254	165.57
767.432	168.61
767.61	172.1
767.788	176.18
767.967	179.31
768.145	182.02
768.323	185.94
768.501	188.88
768.679	190.56
768.857	193.11
769.035	193.34
769.213	194.83
769.391	197.23
769.569	196.3
769.747	197.7
769.925	198.18
770.103	201.52
770.281	202.33
770.459	201.5
770.636	204.81
770.814	206.34
770.992	209.26
771.17	210.71
771.348	210.04
771.525	211.67
771.703	210.19
771.881	208.86
772.059	205.47
772.236	205.87
772.414	206.85
772.592	209.36
772.769	209.4
772.947	210.76
773.125	211.49
773.302	216.5
773.48	219.39
773.657	219.81
773.835	223.9
774.013	225.37
774.19	224.62
774.368	230.2
774.545	227.61
774.723	228.2
774.9	224.69
775.077	226.17
775.255	221.55
775.432	223.45
775.61	225.03
775.787	225.08
775.964	225.56
776.142	225.86
776.319	223.22
776.496	222.71
776.674	222.41
776.851	222.88
777.028	220.28
777.205	220.73
777.382	220.41
777.56	219.84
777.737	219.34
777.914	221.01
778.091	222.06
778.268	220.75
778.445	220.83
778.622	217.01
778.8	221.26
778.977	221.01
779.154	229.13
779.331	223.54
779.508	224.7
779.685	225.85
779.862	223.83
780.038	223.08
780.215	223.16
780.392	220.75
780.569	223.67
780.746	219.78
780.923	221.94
781.1	213.28
781.277	218.08
781.453	216.88
781.63	216.53
781.807	221.98
781.984	222.55
782.16	219
782.337	219.64
782.514	221.15
782.691	226.29
782.867	227.25
783.044	230.22
783.221	227.41
783.397	227.9
783.574	228.59
783.75	217.99
783.927	217.42
784.103	218.9
784.28	215.12
784.456	213.73
784.633	208.89
784.809	206.04
784.986	202.01
785.162	199.26
785.339	199.56
785.515	195.2
785.692	197.71
785.868	196.67
786.044	195.65
786.221	198.23
786.397	194.48
786.573	191.97
786.749	192.4
786.926	191.31
787.102	192.12
787.278	187.62
787.454	187.45
787.631	185.31
787.807	181.59
787.983	182.17
788.159	183.44
788.335	183.33
788.511	182.36
788.687	181.33
788.863	181.51
789.039	182.02
789.216	181.11
789.392	179.48
789.568	178.96
789.744	182.59
789.919	180.7
790.095	177.95
790.271	178.3
790.447	175.63
790.623	175.23
790.799	173.32
790.975	174.25
791.151	175.99
791.327	177.66
791.502	179.79
791.678	177.96
791.854	175.68
792.03	175.5
792.205	176.18
792.381	179.84
792.557	180.17
792.733	184.65
792.908	183.9
793.084	183.96
793.259	185.08
793.435	185.8
793.611	183.81
793.786	186.73
793.962	185.94
794.137	185.38
794.313	179.9
794.488	178.52
794.664	174.52
794.839	174.11
795.015	170.77
795.19	168.16
795.366	166.67
795.541	167.01
795.716	163.59
795.892	163.75
796.067	164.25
796.242	167.75
796.418	166.78
796.593	166.82
796.768	163.15
796.944	165.29
797.119	164.8
797.294	165.27
797.469	165.62
797.644	164.1
797.82	165.31
797.995	161.49
798.17	159.38
798.345	160.99
798.52	160.98
798.695	162.36
798.87	161.1
799.045	161.05
799.22	159.83
799.395	158.96
799.57	164.41
799.745	162.39
799.92	164.2
800.095	166.78
800.27	164.22
800.445	166.69
800.62	165.45
800.795	165.28
800.97	164.49
801.145	163.78
801.319	162.91
801.494	160.45
801.669	163.6
801.844	162.68
802.018	160.63
802.193	162.3
802.368	158.63
802.543	162.21
802.717	166.53
802.892	165.56
803.067	168.11
803.241	167.69
803.416	166.38
803.59	166.02
803.765	164.08
803.94	166.24
804.114	168.73
804.289	168.7
804.463	163.42
804.638	159.44
804.812	158.85
804.986	153.1
805.161	155.78
805.335	154.03
805.51	150.67
805.684	150.01
805.858	149.14
806.033	145.98
806.207	146.07
806.381	151.17
806.556	151.71
806.73	154.8
806.904	162.81
807.078	160.66
807.253	163.81
807.427	163.36
807.601	164.76
807.775	168.35
807.949	165.29
808.123	165.57
808.298	159.32
808.472	160.45
808.646	158.79
808.82	155.41
808.994	155.51
809.168	156.05
809.342	161.3
809.516	162.51
809.69	160.22
809.864	164.27
810.038	167.3
810.212	173.61
810.385	169.05
810.559	170.99
810.733	170.49
810.907	169.6
811.081	165.65
811.255	165.25
811.428	166.34
811.602	164
811.776	164.81
811.95	159.76
812.123	155.95
812.297	156.73
812.471	153.26
812.644	148.4
812.818	147.46
812.992	149.88
813.165	146.85
813.339	147.42
813.512	148.48
813.686	144.15
813.86	143.65
814.033	143.78
814.207	143.95
814.38	143
814.554	144.4
814.727	144.6
814.9	144.28
815.074	142.61
815.247	141.78
815.421	137.14
815.594	136.6
815.767	134.99
815.941	135.12
816.114	135.67
816.287	136.27
816.46	132.91
816.634	131.36
816.807	131.63
816.98	131.33
817.153	130.53
817.327	129.07
817.5	132.5
817.673	133.7
817.846	132.16
818.019	131.5
818.192	133.92
818.365	138.41
818.538	138.17
818.711	133.33
818.884	136.28
819.057	132.43
819.23	133.03
819.403	128.52
819.576	125.82
819.749	123.28
819.922	117.03
820.095	115.76
820.268	113.59
820.441	113.07
820.614	109.46
820.786	102.99
820.959	96.04
821.132	91.68
821.305	87.33
821.477	83.02
821.65	78.64
821.823	75.6
821.996	71.59
822.168	69.06
822.341	65.94
822.514	63.91
822.686	62.37
822.859	62.14
823.031	60.95
823.204	59.85
823.376	59.15
823.549	58.81
823.722	58.83
823.894	59.14
824.067	59.27
824.239	59.27
824.411	59.53
824.584	59.38
824.756	59.63
824.929	60.21
825.101	60.62
825.273	61.1
825.446	60.97
825.618	61.43
825.79	60.99
825.963	61.11
826.135	61.77
826.307	63.02
826.479	64.5
826.652	63.99
826.824	64.42
826.996	65.6
827.168	66.02
827.34	67.86
827.512	68.46
827.684	68.91
827.856	69.31
828.029	70.01
828.201	69.15
828.373	69.04
828.545	70.94
828.717	72.45
828.889	72.55
829.061	73.47
829.232	74.8
829.404	76.36
829.576	78.74
829.748	80.89
829.92	81.52
830.092	83.89
830.264	85.31
830.436	85.77
830.607	86.97
830.779	87.07
830.951	90.16
831.123	89.43
831.294	90.18
831.466	90.28
831.638	90.15
831.809	91.76
831.981	94.91
832.153	96.97
832.324	98.6
832.496	95.73
832.667	97.02
832.839	98.17
833.011	98.26
833.182	99.3
833.354	98.35
833.525	99.53
833.697	94.7
833.868	90.21
834.039	89.62
834.211	87.15
834.382	87.32
834.554	87
834.725	85.85
834.896	84.94
835.068	80.63
835.239	79.86
835.41	78.69
835.581	83.02
835.753	83.77
835.924	81.93
836.095	83.67
836.266	85.65
836.438	84.78
836.609	82.5
836.78	83.47
836.951	88.76
837.122	90.95
837.293	92.01
837.464	92.6
837.635	91.02
837.806	95.42
837.977	96.71
838.148	100.78
838.319	104.67
838.49	110.71
838.661	110.77
838.832	109.47
839.003	110.13
839.174	116.15
839.345	115.32
839.516	120.9
839.687	121.84
839.857	128.1
840.028	123.24
840.199	125.69
840.37	123.48
840.54	126.13
840.711	125.58
840.882	129.44
841.053	119.09
841.223	115.05
841.394	115.92
841.564	112.84
841.735	114.72
841.906	112.1
842.076	112.42
842.247	117.33
842.417	118.31
842.588	118.73
842.758	116.96
842.929	124.77
843.099	131.04
843.27	131.74
843.44	136.24
843.611	127.99
843.781	126.3
843.951	125.23
844.122	120.1
844.292	119.44
844.462	119.41
844.633	118.06
844.803	116.61
844.973	118.39
845.144	120.07
845.314	123.34
845.484	127.56
845.654	141.03
845.824	153.26
845.995	156.81
846.165	167.28
846.335	180.07
846.505	205.73
846.675	222.29
846.845	228.73
847.015	238.28
847.185	232.92
847.355	240.46
847.525	240.07
847.695	242.63
847.865	243.13
848.035	223.61
848.205	233.27
848.375	210.71
848.545	201.75
848.715	193.61
848.884	190.39
849.054	199.65
849.224	197.25
849.394	188.88
849.564	191.66
849.733	188.99
849.903	191
850.073	172.63
850.243	162.05
850.412	161.6
850.582	161.02
850.752	163.52
850.921	157
851.091	148.01
851.26	149.16
851.43	141.06
851.599	140.11
851.769	138.66
851.939	145.5
852.108	156.96
852.278	159.46
852.447	153.96
852.616	159.88
852.786	150.45
852.955	157.68
853.125	162.96
853.294	162.7
853.463	150.19
853.633	153.72
853.802	155.29
853.971	156.49
854.141	147.83
854.31	156.45
854.479	151.04
854.648	161.18
854.818	158.07
854.987	163.26
855.156	176.45
855.325	199.07
855.494	210.17
855.663	204.19
855.832	202.2
856.001	227.12
856.171	225.48
856.34	230.84
856.509	235.2
856.678	245.13
856.847	228.67
857.016	187.88
857.185	183.48
857.353	187.44
857.522	194.48
857.691	186.46
857.86	181.93
858.029	193.27
858.198	194.25
858.367	184.42
858.535	181.67
858.704	189.61
858.873	217.87
859.042	208.72
859.21	214
859.379	201.68
859.548	200.13
859.717	193.75
859.885	184.16
860.054	170.13
860.222	166.69
860.391	164.26
860.56	163.76
860.728	165.53
860.897	163.71
861.065	148.31
861.234	157.36
861.402	165.06
861.571	168.25
861.739	175.65
861.908	199.65
862.076	215.88
862.244	227.4
862.413	227.11
862.581	225.88
862.749	251.64
862.918	269.31
863.086	235.23
863.254	225.11
863.423	206.04
863.591	177.69
863.759	163.69
863.927	159.6
864.096	158.98
864.264	152.55
864.432	146.81
864.6	139.02
864.768	140.18
864.936	136.42
865.104	138.52
865.272	144.96
865.44	156.81
865.608	150.58
865.776	152.45
865.944	153.81
866.112	163.77
866.28	173.65
866.448	171.05
866.616	154.77
866.784	169.23
866.952	154.28
867.12	157.83
867.288	152.33
867.455	155.15
867.623	159.61
867.791	170.06
867.959	174.25
868.127	175.79
868.294	185.3
868.462	185.29
868.63	154.66
868.797	174.08
868.965	164.96
869.133	167.47
869.3	193.63
869.468	171.1
869.636	161.12
869.803	152.32
869.971	142.48
870.138	143.04
870.306	138.44
870.473	147.52
870.641	142.04
870.808	146.89
870.975	136.3
871.143	123.44
871.31	124.5
871.478	110.16
871.645	108.63
871.812	112.83
871.98	114.44
872.147	120.26
872.314	118.99
872.482	115.83
872.649	108.55
872.816	121.48
872.983	122.49
873.15	123
873.318	132.43
873.485	138.8
873.652	140.47
873.819	149.73
873.986	141.06
874.153	137.73
874.32	133.79
874.487	134.51
874.654	124.47
874.821	126.91
874.988	130.24
875.155	132.91
875.322	136.85
875.489	146.04
875.656	141.48
875.823	155.87
875.99	154.88
876.157	165.07
876.324	169.86
876.49	177.22
876.657	169.46
876.824	160.05
876.991	148.64
877.157	156.23
877.324	144.37
877.491	144.36
877.658	132.84
877.824	136.55
877.991	139.71
878.157	138.9
878.324	146.43
878.491	145.17
878.657	136.48
878.824	129.47
878.99	107.84
879.157	113.28
879.323	106.07
879.49	101.54
879.656	105.71
879.823	111.67
879.989	113.03
880.156	105.14
880.322	101.37
880.488	104.12
880.655	107.12
880.821	110.52
880.987	101.23
881.154	96.96
881.32	100.74
881.486	91.18
881.652	81.1
881.819	79.65
881.985	76.09
882.151	70.93
882.317	68.72
882.483	67.32
882.649	63.1
882.816	60.78
882.982	58.83
883.148	57.02
883.314	56.78
883.48	55.92
883.646	52.93
883.812	53.15
883.978	54.05
884.144	53.89
884.31	52.23
884.476	53.63
884.642	52.51
884.807	53.94
884.973	53.77
885.139	52.83
885.305	53.81
885.471	55.81
885.637	56.23
885.802	56.32
885.968	57.97
886.134	60.05
886.3	61.08
886.465	65.27
886.631	67.79
886.797	73.54
886.962	79.48
887.128	84.22
887.293	85.79
887.459	87.66
887.625	92.44
887.79	89.24
887.956	95.86
888.121	97.35
888.287	96.85
888.452	94.54
888.618	89.92
888.783	83.01
