Data from LC_196_Reflection_1.txt Node
Date: Tue Nov 17 13:49:43 EST 2015
User: robert
Spectrometer: USB4E03001
Autoset integration time: false
Trigger mode: 4
Integration Time (sec): 1.000000E-1
Scans to average: 15
Electric dark correction enabled: true
Nonlinearity correction enabled: false
Boxcar width: 5
Stray light correction enabled: false
XAxis mode: Wavelengths
Stop averaging: false
Number of Pixels in Spectrum: 3648
>>>>>Begin Spectral Data<<<<<
177.566	417.43
177.785	444.85
178.005	-2326.49
178.225	522.06
178.445	-687.22
178.665	-246.85
178.885	-166.5
179.105	-512.01
179.324	1238.19
179.544	1727.11
179.764	611.28
179.984	307.6
180.204	358.69
180.423	876.95
180.643	1117.17
180.863	-4612.64
181.083	-6576.79
181.302	1443.12
181.522	739.96
181.742	2272.84
181.961	27607.84
182.181	-1380.02
182.401	-360.66
182.621	-910.63
182.84	-921.51
183.06	-2937.52
183.279	3318.32
183.499	-19567.23
183.719	-1842.74
183.938	-536.62
184.158	-829.94
184.377	-1009.17
184.597	-989.53
184.816	810.37
185.036	779.98
185.256	896.78
185.475	545.41
185.695	672.73
185.914	529.97
186.134	576.13
186.353	359.09
186.572	433.02
186.792	355.89
187.011	333.49
187.231	1311.39
187.45	5025.35
187.67	918.03
187.889	1012.6
188.108	721.6
188.328	674.5
188.547	706.04
188.766	-3639.26
188.986	2744.5
189.205	796.85
189.424	1003.88
189.644	734.67
189.863	522.54
190.082	487
190.302	529.22
190.521	757.59
190.74	15550.65
190.959	2210.98
191.178	557.62
191.398	559.37
191.617	1580.15
191.836	1076.69
192.055	665.16
192.274	-1772.6
192.494	-988.02
192.713	-3023.02
192.932	-1312.8
193.151	2493.82
193.37	33307.94
193.589	-1130450
193.808	30398.88
194.027	-4113.38
194.246	-1808.15
194.465	7682.04
194.685	895.7
194.904	776.22
195.123	124808.33
195.342	2940.85
195.561	960.99
195.78	773.73
195.999	958.26
196.218	588.75
196.436	493.38
196.655	351.95
196.874	438.25
197.093	435
197.312	328.31
197.531	308.61
197.75	311.52
197.969	334.21
198.188	332.11
198.407	319.42
198.625	400.63
198.844	387.19
199.063	356.45
199.282	356.21
199.501	319.38
199.719	481.27
199.938	481.16
200.157	503.66
200.376	1511.25
200.594	818.74
200.813	498.89
201.032	691
201.251	690.62
201.469	10167.18
201.688	3196.43
201.907	-14934.32
202.125	4629.06
202.344	4250.31
202.563	3862.83
202.781	2523.56
203	-2892.23
203.218	-632.18
203.437	-888.8
203.656	-673.13
203.874	-1627.98
204.093	-2226.73
204.311	-2310.49
204.53	41773.68
204.748	-1791.01
204.967	7126.05
205.185	1337.69
205.404	630.5
205.622	559.07
205.841	462.52
206.059	525.51
206.278	410.62
206.496	411.84
206.715	382.53
206.933	454.14
207.151	397.28
207.37	391.74
207.588	481.05
207.806	626.48
208.025	576.75
208.243	525.93
208.461	562.57
208.68	892.72
208.898	-1358.26
209.116	-2241.4
209.335	4997.03
209.553	-3485.86
209.771	1543.06
209.989	485.76
210.208	693.06
210.426	611.43
210.644	580.37
210.862	383.75
211.081	257.16
211.299	184.43
211.517	218.09
211.735	230.19
211.953	219.49
212.171	240.67
212.39	713.51
212.608	637.66
212.826	984.34
213.044	1055.31
213.262	1058.6
213.48	-43892.54
213.698	-2180.41
213.916	998.42
214.134	-1949.65
214.352	-566.44
214.57	-641.1
214.788	6494.01
215.006	2289.4
215.224	2057.79
215.442	1294.02
215.66	1380.61
215.878	857.23
216.096	417.59
216.314	503.77
216.532	273.15
216.75	212.47
216.968	234.32
217.185	241.86
217.403	262.46
217.621	252.07
217.839	274.93
218.057	283.95
218.275	288.69
218.492	317.36
218.71	335.97
218.928	430.11
219.146	454.4
219.363	471.32
219.581	354.82
219.799	354.35
220.017	377.14
220.234	381.84
220.452	317.01
220.67	303.78
220.887	325.91
221.105	302.16
221.323	283.34
221.54	282.83
221.758	234.15
221.976	231.58
222.193	186.99
222.411	174.32
222.629	189.04
222.846	214.83
223.064	201.8
223.281	192.16
223.499	199.5
223.716	196.06
223.934	190.85
224.151	203.95
224.369	200.55
224.586	233.59
224.804	208.35
225.021	212.52
225.239	193.62
225.456	184.01
225.674	167.03
225.891	164.46
226.108	181.13
226.326	178.5
226.543	154.33
226.76	146.96
226.978	127.61
227.195	124.51
227.413	89.42
227.63	81.58
227.847	81.97
228.064	74.59
228.282	65.49
228.499	60.74
228.716	55.58
228.934	56.69
229.151	56.44
229.368	53.42
229.585	51.25
229.802	54.95
230.02	55.99
230.237	56.97
230.454	57.41
230.671	63.11
230.888	63.77
231.105	64.77
231.323	63.8
231.54	64.64
231.757	68.82
231.974	69.87
232.191	69.74
232.408	70.71
232.625	70.11
232.842	74.55
233.059	74.11
233.276	72.78
233.493	79.36
233.71	82.8
233.927	79.04
234.144	83.06
234.361	90.54
234.578	96.29
234.795	94.53
235.012	96.8
235.229	97.86
235.446	92.26
235.663	89.62
235.879	88.61
236.096	88.26
236.313	87.32
236.53	84.13
236.747	78.62
236.964	79.77
237.181	80.68
237.397	77.54
237.614	75.93
237.831	79.03
238.048	82.34
238.264	79.56
238.481	79.06
238.698	78.62
238.915	76.9
239.131	74.8
239.348	71.73
239.565	65.59
239.781	66.99
239.998	65.36
240.215	61.72
240.431	59.55
240.648	54.31
240.865	52.58
241.081	52.33
241.298	49.74
241.514	48.62
241.731	44.87
241.947	42.89
242.164	37.76
242.38	34.51
242.597	34.59
242.814	34.84
243.03	34.04
243.246	32.62
243.463	30.86
243.679	31.85
243.896	31.04
244.112	29.64
244.329	31.95
244.545	33.57
244.762	37.01
244.978	36.32
245.194	34.72
245.411	35.17
245.627	33.41
245.843	32.12
246.06	27.94
246.276	26.39
246.492	26.45
246.709	24.65
246.925	24.6
247.141	23.7
247.357	22.8
247.574	21.99
247.79	22.86
248.006	23.13
248.222	23.4
248.439	24.16
248.655	24.11
248.871	24.25
249.087	25.01
249.303	25.65
249.519	26.21
249.736	27.88
249.952	29.78
250.168	31.98
250.384	34.42
250.6	37.44
250.816	37.4
251.032	38.68
251.248	39.81
251.464	40.8
251.68	41.13
251.896	40.56
252.112	38.45
252.328	37.15
252.544	33.75
252.76	33.48
252.976	33
253.192	35.42
253.408	36.03
253.624	35.37
253.84	34.47
254.056	32.9
254.272	34.26
254.487	37.57
254.703	38.19
254.919	42.59
255.135	45.32
255.351	43
255.567	38.67
255.782	36.09
255.998	36.17
256.214	37.76
256.43	37.73
256.646	38.8
256.861	34.64
257.077	34.89
257.293	32.63
257.508	29.85
257.724	29.28
257.94	30.13
258.155	29.65
258.371	29.28
258.587	25.79
258.802	24.51
259.018	22.3
259.234	21.87
259.449	20.6
259.665	18.93
259.88	18.44
260.096	19.26
260.312	18.4
260.527	17.98
260.743	18.09
260.958	18.79
261.174	19.26
261.389	18.57
261.605	19.53
261.82	20.06
262.036	21.06
262.251	20.66
262.466	18.67
262.682	20.68
262.897	20.7
263.113	19.24
263.328	19.37
263.543	20.74
263.759	23.4
263.974	23.97
264.189	24.23
264.405	25.8
264.62	29.14
264.835	31.81
265.051	32.58
265.266	35.97
265.481	37.61
265.696	38.24
265.912	37.64
266.127	35.17
266.342	31.7
266.557	30.52
266.773	29.1
266.988	27.34
267.203	26.82
267.418	25.96
267.633	24.73
267.848	23.16
268.064	19.95
268.279	19.27
268.494	19.47
268.709	20.91
268.924	21.31
269.139	21.64
269.354	22.88
269.569	22.92
269.784	21.61
269.999	21.44
270.214	21.52
270.429	24.12
270.644	23.31
270.859	22.97
271.074	22.76
271.289	22.73
271.504	22.05
271.719	20.6
271.934	20
272.149	19.73
272.363	19.83
272.578	20.46
272.793	19.67
273.008	20.01
273.223	20.2
273.438	19.87
273.653	20.4
273.867	21.79
274.082	22.37
274.297	22.6
274.512	23.61
274.726	24.48
274.941	23.96
275.156	24.51
275.371	23.98
275.585	25.92
275.8	26.68
276.015	27.24
276.229	24.9
276.444	23.73
276.659	24.96
276.873	24.68
277.088	24.54
277.302	23.82
277.517	23.53
277.732	23.6
277.946	22.89
278.161	23.68
278.375	22.58
278.59	24.22
278.804	24.82
279.019	24.02
279.233	22.74
279.448	21.15
279.662	22.7
279.877	22.61
280.091	21.72
280.306	20.75
280.52	19.96
280.735	19.83
280.949	17.76
281.163	18.82
281.378	18.83
281.592	20.11
281.806	19.22
282.021	19.28
282.235	19.24
282.449	21.17
282.664	21.82
282.878	22.29
283.092	22.92
283.307	23.61
283.521	22.89
283.735	21.4
283.949	20.81
284.164	21.77
284.378	20.58
284.592	19.96
284.806	18.95
285.02	17.35
285.234	16.1
285.449	15.73
285.663	16.68
285.877	16.84
286.091	17.16
286.305	17.19
286.519	17.24
286.733	17.69
286.947	18.2
287.161	17.82
287.375	18.53
287.589	19.09
287.803	19.15
288.017	18.41
288.231	18.34
288.445	19.28
288.659	19.06
288.873	18.58
289.087	19.27
289.301	20.42
289.515	21.49
289.729	21.91
289.943	21.58
290.157	20.7
290.371	20.83
290.584	20.41
290.798	19.12
291.012	20.16
291.226	21.32
291.44	20.16
291.654	20.06
291.867	18.64
292.081	17.37
292.295	18.41
292.509	19.68
292.722	20.16
292.936	20.41
293.15	21.2
293.364	20.19
293.577	20.66
293.791	20.62
294.005	20.06
294.218	21
294.432	21.22
294.645	20.16
294.859	19.48
295.073	18.56
295.286	17.23
295.5	16.96
295.713	16.93
295.927	15.17
296.14	15.1
296.354	14.18
296.568	13.12
296.781	13.69
296.994	14.25
297.208	14.2
297.421	14.12
297.635	14.85
297.848	14.73
298.062	14.84
298.275	15.09
298.489	15.52
298.702	16.3
298.915	16.63
299.129	16.38
299.342	16.01
299.555	16.02
299.769	16.84
299.982	17.53
300.195	17.8
300.409	17.83
300.622	18.19
300.835	17.88
301.048	17.53
301.262	18.51
301.475	18.46
301.688	18.87
301.901	19.18
302.115	19.91
302.328	19.57
302.541	19.04
302.754	18.8
302.967	19.98
303.18	20.61
303.393	20.61
303.607	19.98
303.82	20.68
304.033	19.05
304.246	18.83
304.459	18.47
304.672	18.45
304.885	19.47
305.098	19.02
305.311	18.67
305.524	18.95
305.737	19.07
305.95	20.1
306.163	18.24
306.376	19.32
306.589	19.21
306.802	18.11
307.015	18.6
307.228	20.02
307.44	20.39
307.653	19.46
307.866	19.23
308.079	19.86
308.292	19.76
308.505	21.95
308.718	21.88
308.93	21.85
309.143	21.82
309.356	21.12
309.569	19.68
309.781	20.61
309.994	19.81
310.207	18.68
310.42	17
310.632	16.71
310.845	16.08
311.058	15.66
311.27	14.48
311.483	13.79
311.696	13.83
311.908	13.42
312.121	12.55
312.333	14.1
312.546	14.85
312.759	15.58
312.971	15.88
313.184	16.37
313.396	16.85
313.609	18.7
313.821	20.29
314.034	21.27
314.246	22.25
314.459	23.66
314.671	22.55
314.884	22.35
315.096	22.06
315.309	21.43
315.521	21.64
315.733	22
315.946	20.84
316.158	20.72
316.371	20.32
316.583	20.4
316.795	19.14
317.008	18.92
317.22	19.24
317.432	21.3
317.644	20.89
317.857	20.83
318.069	20.46
318.281	21.58
318.494	21.72
318.706	21.55
318.918	21.47
319.13	22.54
319.342	23.53
319.555	23.53
319.767	22.96
319.979	22.9
320.191	22.45
320.403	22.98
320.615	22.64
320.827	22.35
321.039	23.19
321.252	23.61
321.464	22.96
321.676	23.81
321.888	24.02
322.1	23.37
322.312	23.52
322.524	23.48
322.736	23.1
322.948	23.05
323.16	21.89
323.372	20.51
323.584	20.48
323.796	20.68
324.007	19.85
324.219	20.28
324.431	20.88
324.643	21.47
324.855	22.27
325.067	22.78
325.279	22.43
325.491	22.74
325.702	23.55
325.914	23.45
326.126	22.46
326.338	22.91
326.55	21.4
326.761	21.25
326.973	21.15
327.185	20.36
327.396	20.17
327.608	20.85
327.82	20.97
328.032	21.32
328.243	20.45
328.455	21.36
328.666	21.07
328.878	22.61
329.09	22.11
329.301	22.29
329.513	22.37
329.725	22.17
329.936	23.21
330.148	25.33
330.359	24.58
330.571	25.73
330.782	25.89
330.994	25.72
331.205	24.82
331.417	24.86
331.628	24.78
331.84	26.21
332.051	25.35
332.262	24.96
332.474	23.02
332.685	23.84
332.897	23.51
333.108	23.73
333.319	22.97
333.531	22.89
333.742	22.43
333.953	21.2
334.165	19.91
334.376	21.07
334.587	20.36
334.799	20.2
335.01	19.45
335.221	18.44
335.432	17.74
335.644	18.45
335.855	18.72
336.066	19.95
336.277	20.7
336.488	20.27
336.7	20.19
336.911	20.13
337.122	20.63
337.333	20.62
337.544	21.54
337.755	21.13
337.966	20.53
338.177	20.73
338.388	19.7
338.599	19.66
338.811	20.02
339.022	19.16
339.233	18.4
339.444	17.76
339.655	17.64
339.866	18.51
340.076	18.63
340.287	19.14
340.498	19.54
340.709	20.73
340.92	21.14
341.131	20.56
341.342	20.87
341.553	22.15
341.764	23.28
341.975	23.9
342.185	22.78
342.396	22.84
342.607	23.1
342.818	23.03
343.029	22.63
343.239	21.83
343.45	21.67
343.661	21.98
343.872	21.56
344.082	21.24
344.293	21.23
344.504	22.62
344.714	22.49
344.925	21.98
345.136	21.13
345.346	20.39
345.557	20.3
345.768	21.16
345.978	21.11
346.189	21.27
346.399	21.04
346.61	20.64
346.821	19.07
347.031	19.4
347.242	19.69
347.452	20.13
347.663	20.34
347.873	21.16
348.084	19.86
348.294	20.19
348.504	19.04
348.715	19.02
348.925	18.81
349.136	18.21
349.346	18.15
349.557	17.65
349.767	17.38
349.977	16.52
350.188	16.45
350.398	17.9
350.608	17.1
350.819	17.27
351.029	17.01
351.239	18.03
351.449	18.78
351.66	19
351.87	19.22
352.08	19.56
352.29	20.26
352.501	19.77
352.711	19.62
352.921	20.33
353.131	20.99
353.341	21.53
353.552	19.91
353.762	19.7
353.972	19.22
354.182	20.67
354.392	20.71
354.602	21.49
354.812	21.71
355.022	21.48
355.232	20.71
355.442	20.36
355.652	20.05
355.862	20.7
356.072	20.59
356.282	20.98
356.492	19.35
356.702	18.94
356.912	18.67
357.122	18.95
357.332	18.29
357.542	17.94
357.752	18.46
357.962	18.4
358.171	17.97
358.381	17.81
358.591	17.34
358.801	17.68
359.011	17.51
359.221	17.23
359.43	16.9
359.64	16.59
359.85	16.6
360.06	16.22
360.269	15.79
360.479	15.78
360.689	15.54
360.899	15.66
361.108	15.12
361.318	14.97
361.528	14.5
361.737	14.19
361.947	14.38
362.156	15.08
362.366	14.65
362.576	14.5
362.785	14.38
362.995	14.49
363.204	14.19
363.414	14.41
363.623	14.36
363.833	14.61
364.042	14.43
364.252	13.99
364.461	12.93
364.671	13.33
364.88	13.4
365.09	13.7
365.299	13.83
365.509	13.92
365.718	14.13
365.927	14.2
366.137	14.61
366.346	15.31
366.555	15.91
366.765	16.35
366.974	15.6
367.183	15.79
367.393	15.52
367.602	15.47
367.811	16.02
368.021	15.8
368.23	16.51
368.439	16.47
368.648	15.78
368.857	15.91
369.067	16.37
369.276	17.13
369.485	17.71
369.694	17.8
369.903	17.98
370.112	17.47
370.321	17.74
370.531	16.56
370.74	15.94
370.949	15.73
371.158	15.45
371.367	14.89
371.576	14.83
371.785	14.2
371.994	14.11
372.203	13.96
372.412	14.38
372.621	14.1
372.83	14.59
373.039	15.06
373.248	15.19
373.457	15.74
373.666	15.36
373.874	14.76
374.083	14.95
374.292	15.29
374.501	15.44
374.71	14.72
374.919	14.46
375.128	14.32
375.336	13.98
375.545	14.14
375.754	13.27
375.963	13.27
376.171	13.39
376.38	13.67
376.589	13.29
376.798	12.5
377.006	12.87
377.215	13.34
377.424	13.36
377.632	13.33
377.841	13.47
378.05	14.02
378.258	14.23
378.467	14.35
378.675	13.99
378.884	14.35
379.093	15
379.301	15.01
379.51	14.67
379.718	14.52
379.927	14.82
380.135	14.54
380.344	14.73
380.552	14.76
380.761	14.86
380.969	14.79
381.177	14.18
381.386	14.22
381.594	13.91
381.803	13.56
382.011	13.34
382.219	12.94
382.428	13.21
382.636	12.47
382.845	12.04
383.053	11.69
383.261	11.49
383.469	11.84
383.678	11.84
383.886	11.8
384.094	12.07
384.302	12.46
384.511	12.48
384.719	12.05
384.927	12.17
385.135	12.48
385.343	12.49
385.552	12.91
385.76	12.68
385.968	12.51
386.176	12.28
386.384	12.08
386.592	11.94
386.8	12.1
387.008	12.36
387.216	12.34
387.424	12.42
387.633	12.51
387.841	11.8
388.049	12.17
388.257	12.33
388.465	12.57
388.672	12.57
388.88	12.36
389.088	12.09
389.296	11.67
389.504	11.92
389.712	11.84
389.92	11.58
390.128	12.13
390.336	12.02
390.544	11.54
390.751	11.23
390.959	11.18
391.167	11.17
391.375	11.23
391.583	11.45
391.79	11.15
391.998	11.15
392.206	11.43
392.414	10.98
392.621	10.96
392.829	10.98
393.037	11.13
393.244	11.36
393.452	11.39
393.66	11.07
393.867	11.11
394.075	11.03
394.283	10.83
394.49	10.65
394.698	10.93
394.905	10.69
395.113	11.04
395.32	10.93
395.528	10.9
395.735	10.98
395.943	11.17
396.15	10.95
396.358	11.05
396.565	10.79
396.773	10.97
396.98	11.19
397.188	11.5
397.395	10.94
397.602	11
397.81	10.91
398.017	10.87
398.225	11.27
398.432	11.43
398.639	11.67
398.847	12.36
399.054	12.22
399.261	11.9
399.468	11.64
399.676	12.15
399.883	12.19
400.09	12.13
400.297	12.35
400.505	11.99
400.712	12.48
400.919	12.39
401.126	11.66
401.333	11.83
401.54	11.73
401.748	11.74
401.955	11.7
402.162	11.67
402.369	11.61
402.576	11.53
402.783	11.29
402.99	10.67
403.197	10.58
403.404	10.74
403.611	10.47
403.818	10.43
404.025	10.19
404.232	9.79
404.439	9.71
404.646	9.76
404.853	9.9
405.06	10.04
405.267	10.08
405.474	9.71
405.681	9.7
405.887	9.73
406.094	9.88
406.301	10.18
406.508	10.36
406.715	10.58
406.922	10.59
407.128	10.37
407.335	10.21
407.542	10.32
407.749	10.92
407.955	11.12
408.162	11.36
408.369	11.55
408.575	11.82
408.782	11.91
408.989	11.61
409.195	11.76
409.402	11.78
409.609	11.77
409.815	11.57
410.022	11.13
410.228	10.86
410.435	10.8
410.642	10.66
410.848	10.21
411.055	10.01
411.261	10.16
411.468	9.99
411.674	10.02
411.881	10.03
412.087	10.33
412.294	10.35
412.5	10.31
412.706	9.89
412.913	9.52
413.119	9.59
413.326	9.74
413.532	9.58
413.738	9.5
413.945	8.99
414.151	8.98
414.357	9.06
414.564	9.25
414.77	9.34
414.976	9.8
415.182	10.12
415.389	10
415.595	9.76
415.801	9.7
416.007	9.84
416.214	10.12
416.42	9.94
416.626	9.75
416.832	9.7
417.038	9.66
417.244	9.33
417.45	9.33
417.657	9.31
417.863	9.39
418.069	9.43
418.275	9.27
418.481	9.38
418.687	9.49
418.893	9.51
419.099	9.19
419.305	9.43
419.511	9.59
419.717	9.45
419.923	9.27
420.129	9.21
420.335	9.2
420.541	8.99
420.746	8.73
420.952	8.66
421.158	8.53
421.364	8.65
421.57	8.48
421.776	8.35
421.982	8.24
422.187	8.26
422.393	8.26
422.599	8.14
422.805	8.26
423.01	8.37
423.216	8.44
423.422	8.44
423.628	8.55
423.833	8.47
424.039	8.23
424.245	8.26
424.45	8.24
424.656	8.19
424.862	8.33
425.067	8.34
425.273	8.31
425.478	8.25
425.684	8.12
425.889	8.12
426.095	8.21
426.301	8.38
426.506	8.44
426.712	8.55
426.917	8.57
427.123	8.52
427.328	8.65
427.533	8.71
427.739	8.74
427.944	8.65
428.15	8.59
428.355	8.52
428.561	8.85
428.766	8.81
428.971	8.96
429.177	9.11
429.382	9.08
429.587	9.11
429.793	9.21
429.998	9.13
430.203	9.53
430.408	9.3
430.614	9.25
430.819	9.07
431.024	9.09
431.229	8.95
431.434	8.89
431.64	9.09
431.845	9
432.05	8.96
432.255	8.96
432.46	8.93
432.665	9.28
432.87	9.31
433.076	9.27
433.281	9.32
433.486	9.3
433.691	9.28
433.896	8.91
434.101	8.87
434.306	8.92
434.511	9.02
434.716	8.89
434.921	8.72
435.126	8.79
435.331	8.84
435.535	8.89
435.74	8.94
435.945	9.06
436.15	9.17
436.355	9.35
436.56	9.17
436.765	9.35
436.97	9.41
437.174	9.24
437.379	9.19
437.584	9.49
437.789	9.33
437.993	9.4
438.198	9.15
438.403	9.22
438.608	8.97
438.812	8.83
439.017	8.63
439.222	8.49
439.426	8.49
439.631	8.35
439.836	7.97
440.04	7.94
440.245	7.85
440.45	7.87
440.654	7.77
440.859	7.76
441.063	7.87
441.268	7.74
441.472	7.89
441.677	8.1
441.881	8.11
442.086	8.27
442.29	8.3
442.495	8.35
442.699	8.45
442.904	8.62
443.108	8.51
443.312	8.45
443.517	8.53
443.721	8.51
443.925	8.26
444.13	8.31
444.334	8.2
444.538	8.15
444.743	7.81
444.947	7.92
445.151	7.68
445.356	7.75
445.56	7.86
445.764	7.95
445.968	7.98
446.173	7.98
446.377	7.83
446.581	7.77
446.785	7.79
446.989	7.94
447.193	7.82
447.398	7.99
447.602	8.06
447.806	8.06
448.01	7.91
448.214	7.79
448.418	7.83
448.622	7.95
448.826	8.12
449.03	8.13
449.234	8.15
449.438	7.95
449.642	8.01
449.846	8.03
450.05	7.96
450.254	7.96
450.458	8
450.662	7.9
450.866	7.95
451.069	7.8
451.273	7.61
451.477	7.6
451.681	7.79
451.885	7.69
452.089	7.62
452.292	7.58
452.496	7.7
452.7	7.72
452.904	7.86
453.107	8.01
453.311	8.11
453.515	8.29
453.719	8.38
453.922	8.45
454.126	8.34
454.33	8.4
454.533	8.25
454.737	8.27
454.94	8.28
455.144	8.22
455.348	8.12
455.551	8
455.755	8.06
455.958	7.94
456.162	7.76
456.365	7.73
456.569	7.7
456.772	7.98
456.976	7.94
457.179	8.1
457.383	7.99
457.586	7.98
457.79	7.93
457.993	8.08
458.196	7.98
458.4	8.18
458.603	8.36
458.807	8.2
459.01	8.12
459.213	8.05
459.417	7.9
459.62	8.04
459.823	7.92
460.026	7.84
460.23	7.59
460.433	7.66
460.636	7.54
460.839	7.43
461.042	7.58
461.246	7.64
461.449	7.71
461.652	7.83
461.855	7.72
462.058	7.77
462.261	8.01
462.464	8.11
462.668	8.05
462.871	8.24
463.074	8.26
463.277	8.05
463.48	8.06
463.683	8.02
463.886	8.08
464.089	8.2
464.292	8.18
464.495	8.11
464.698	8.07
464.901	8.21
465.104	8.18
465.306	8.17
465.509	8.16
465.712	7.92
465.915	8.06
466.118	7.9
466.321	7.87
466.524	7.89
466.726	8
466.929	8.13
467.132	8.02
467.335	8.02
467.538	7.98
467.74	8.04
467.943	8.17
468.146	8.02
468.348	8.09
468.551	8.17
468.754	8.32
468.956	8.2
469.159	8.22
469.362	8.31
469.564	8.22
469.767	8.4
469.969	8.38
470.172	8.54
470.375	8.46
470.577	8.5
470.78	8.43
470.982	8.28
471.185	8.22
471.387	8.16
471.59	8.13
471.792	8.04
471.995	7.91
472.197	7.88
472.399	7.77
472.602	8.09
472.804	8.14
473.007	8.07
473.209	8.05
473.411	8.04
473.614	8.13
473.816	8.09
474.018	8.33
474.22	8.26
474.423	8.37
474.625	8.27
474.827	7.81
475.03	7.54
475.232	7.53
475.434	7.59
475.636	7.58
475.838	7.43
476.04	7.44
476.243	7.38
476.445	7.44
476.647	7.51
476.849	7.45
477.051	7.55
477.253	7.63
477.455	7.57
477.657	7.43
477.859	7.41
478.061	7.38
478.263	7.29
478.465	7.18
478.667	7.32
478.869	7.37
479.071	7.5
479.273	7.68
479.475	7.62
479.677	7.67
479.879	7.65
480.081	7.76
480.283	7.73
480.485	7.7
480.686	7.72
480.888	7.63
481.09	7.44
481.292	7.21
481.494	6.94
481.695	7
481.897	6.83
482.099	6.88
482.301	6.81
482.502	6.76
482.704	6.87
482.906	6.73
483.107	6.57
483.309	6.48
483.511	6.52
483.712	6.52
483.914	6.47
484.115	6.46
484.317	6.43
484.519	6.41
484.72	6.41
484.922	6.36
485.123	6.41
485.325	6.42
485.526	6.48
485.728	6.49
485.929	6.52
486.131	6.57
486.332	6.59
486.534	6.59
486.735	6.55
486.936	6.58
487.138	6.55
487.339	6.56
487.541	6.66
487.742	6.64
487.943	6.58
488.144	6.58
488.346	6.55
488.547	6.57
488.748	6.63
488.95	6.66
489.151	6.68
489.352	6.72
489.553	6.78
489.755	6.81
489.956	6.82
490.157	6.84
490.358	6.93
490.559	6.96
490.76	6.92
490.961	6.85
491.163	6.89
491.364	6.81
491.565	6.84
491.766	6.75
491.967	6.73
492.168	6.77
492.369	6.93
492.57	6.91
492.771	7
492.972	7.15
493.173	7.18
493.374	7.27
493.575	7.48
493.776	7.47
493.976	7.64
494.177	7.74
494.378	7.74
494.579	7.76
494.78	7.79
494.981	7.65
495.182	7.54
495.382	7.6
495.583	7.43
495.784	7.35
495.985	7.34
496.185	7.39
496.386	7.27
496.587	7.36
496.788	7.43
496.988	7.42
497.189	7.47
497.39	7.61
497.59	7.74
497.791	7.92
497.992	7.92
498.192	7.85
498.393	7.81
498.593	7.93
498.794	7.78
498.994	7.8
499.195	7.71
499.395	7.71
499.596	7.75
499.796	7.56
499.997	7.43
500.197	7.46
500.398	7.64
500.598	7.63
500.799	7.6
500.999	7.74
501.199	7.54
501.4	7.84
501.6	7.89
501.801	7.77
502.001	7.91
502.201	8.08
502.402	8.08
502.602	7.88
502.802	7.89
503.002	7.92
503.203	7.92
503.403	7.96
503.603	7.77
503.803	7.73
504.003	7.7
504.204	7.65
504.404	7.56
504.604	7.54
504.804	7.88
505.004	7.9
505.204	7.73
505.404	7.89
505.604	7.9
505.804	7.95
506.005	7.98
506.205	8.02
506.405	8.16
506.605	8.21
506.805	8.26
507.005	8.12
507.204	8.09
507.404	8.22
507.604	8.27
507.804	8.38
508.004	8.43
508.204	8.54
508.404	8.63
508.604	8.62
508.804	8.66
509.003	8.72
509.203	8.63
509.403	8.69
509.603	8.76
509.803	8.66
510.002	8.57
510.202	8.55
510.402	8.53
510.602	8.42
510.801	8.36
511.001	8.3
511.201	8.04
511.4	8.03
511.6	7.96
511.8	7.78
511.999	7.82
512.199	7.85
512.398	7.85
512.598	7.93
512.797	8.09
512.997	8.11
513.197	8.19
513.396	8.51
513.596	8.58
513.795	8.76
513.994	9.03
514.194	9.02
514.393	8.99
514.593	9.08
514.792	9.14
514.992	9.09
515.191	9.39
515.39	9.34
515.59	9.21
515.789	9.38
515.988	9.28
516.188	9.26
516.387	9.3
516.586	9.32
516.786	9.29
516.985	9.16
517.184	9.26
517.383	9.12
517.582	9.1
517.782	9.12
517.981	9.04
518.18	9.06
518.379	9.04
518.578	9.03
518.777	9.05
518.976	9.14
519.176	9.26
519.375	9.21
519.574	9.28
519.773	9.32
519.972	9.3
520.171	9.39
520.37	9.49
520.569	9.5
520.768	9.6
520.967	9.6
521.166	9.65
521.365	9.59
521.564	9.67
521.762	9.64
521.961	9.8
522.16	9.96
522.359	10.03
522.558	9.96
522.757	10.05
522.956	10.06
523.154	10.14
523.353	9.94
523.552	9.94
523.751	9.93
523.949	9.9
524.148	9.8
524.347	9.8
524.546	9.81
524.744	9.84
524.943	9.85
525.142	9.8
525.34	9.78
525.539	9.98
525.737	10.07
525.936	10.17
526.135	10.16
526.333	10.18
526.532	10.08
526.73	10.03
526.929	10.05
527.127	10.03
527.326	10.03
527.524	10.06
527.723	10.01
527.921	10.02
528.12	9.96
528.318	9.95
528.516	10
528.715	10.04
528.913	10.06
529.112	10.02
529.31	10
529.508	10.04
529.707	10.09
529.905	10.14
530.103	10.08
530.301	10.1
530.5	10.12
530.698	10.14
530.896	10.17
531.094	10.29
531.293	10.42
531.491	10.58
531.689	10.63
531.887	10.62
532.085	10.58
532.283	10.69
532.481	10.78
532.68	10.72
532.878	10.79
533.076	10.9
533.274	10.9
533.472	10.94
533.67	10.89
533.868	11
534.066	11.05
534.264	11.14
534.462	11.15
534.66	11.18
534.858	11.3
535.056	11.29
535.253	11.27
535.451	11.29
535.649	11.3
535.847	11.39
536.045	11.39
536.243	11.42
536.441	11.46
536.638	11.63
536.836	11.62
537.034	11.67
537.232	11.81
537.43	11.95
537.627	11.96
537.825	12.11
538.023	12.13
538.22	12.29
538.418	12.42
538.616	12.45
538.813	12.46
539.011	12.59
539.209	12.69
539.406	12.7
539.604	12.76
539.801	12.9
539.999	12.82
540.196	12.77
540.394	12.68
540.591	12.64
540.789	12.63
540.986	12.58
541.184	12.57
541.381	12.62
541.579	12.46
541.776	12.44
541.974	12.39
542.171	12.49
542.368	12.57
542.566	12.59
542.763	12.59
542.96	12.62
543.158	12.6
543.355	12.68
543.552	12.69
543.75	12.92
543.947	13.03
544.144	13.12
544.341	13.16
544.539	13.24
544.736	13.23
544.933	13.15
545.13	13.24
545.327	13.54
545.524	13.54
545.722	13.63
545.919	13.55
546.116	13.51
546.313	13.52
546.51	13.48
546.707	13.6
546.904	13.79
547.101	14.08
547.298	14.07
547.495	14.03
547.692	14.09
547.889	14.18
548.086	14.48
548.283	14.66
548.48	14.88
548.677	15.01
548.874	15.1
549.07	14.97
549.267	15.16
549.464	15.35
549.661	15.5
549.858	15.73
550.055	15.78
550.251	15.82
550.448	15.91
550.645	15.83
550.842	15.93
551.038	15.92
551.235	16.25
551.432	16.21
551.628	16.22
551.825	16.38
552.022	16.39
552.218	16.6
552.415	16.75
552.612	16.73
552.808	16.84
553.005	16.78
553.201	16.75
553.398	16.87
553.594	16.98
553.791	17.2
553.987	16.98
554.184	16.89
554.38	16.93
554.577	16.98
554.773	17.14
554.97	17.3
555.166	17.66
555.362	17.9
555.559	17.76
555.755	17.69
555.952	17.87
556.148	18.3
556.344	18.58
556.541	18.34
556.737	18.26
556.933	18.41
557.129	18.51
557.326	18.34
557.522	18.34
557.718	18.68
557.914	18.71
558.11	18.68
558.307	18.51
558.503	18.47
558.699	18.99
558.895	19.12
559.091	19.15
559.287	19.2
559.483	19.46
559.679	19.58
559.876	19.43
560.072	19.8
560.268	19.81
560.464	19.97
560.66	20.05
560.856	20.05
561.052	20
561.247	19.83
561.443	19.84
561.639	19.8
561.835	19.76
562.031	19.9
562.227	19.84
562.423	19.9
562.619	20
562.815	20.17
563.01	20.24
563.206	20.32
563.402	20.42
563.598	20.46
563.793	20.42
563.989	20.63
564.185	20.64
564.381	20.68
564.576	20.83
564.772	20.77
564.968	20.83
565.163	20.61
565.359	20.79
565.555	20.91
565.75	21.19
565.946	21.57
566.141	21.49
566.337	21.63
566.532	21.87
566.728	21.92
566.923	22.06
567.119	22.23
567.314	22.5
567.51	22.37
567.705	22.47
567.901	22.27
568.096	22.18
568.292	22.44
568.487	22.4
568.682	22.47
568.878	22.39
569.073	22.5
569.268	22.29
569.464	22.46
569.659	22.69
569.854	22.81
570.05	22.93
570.245	23.13
570.44	23.1
570.635	23.2
570.831	23.26
571.026	23.41
571.221	23.52
571.416	23.7
571.611	23.39
571.806	23.49
572.002	23.55
572.197	23.63
572.392	23.35
572.587	23.55
572.782	23.8
572.977	23.82
573.172	23.87
573.367	23.84
573.562	24.01
573.757	24.43
573.952	24.52
574.147	24.68
574.342	24.67
574.537	25
574.732	24.76
574.927	24.77
575.121	24.87
575.316	25.07
575.511	25.23
575.706	25.15
575.901	25.15
576.096	25.16
576.29	25.25
576.485	25.44
576.68	25.67
576.875	25.88
577.069	26.04
577.264	26.06
577.459	26.04
577.654	26.24
577.848	26.38
578.043	26.51
578.238	26.65
578.432	26.5
578.627	26.55
578.821	26.41
579.016	26.69
579.21	26.54
579.405	26.65
579.6	26.87
579.794	26.71
579.989	26.88
580.183	26.53
580.378	26.54
580.572	26.72
580.766	26.91
580.961	27.09
581.155	27
581.35	27.24
581.544	27.38
581.738	27.32
581.933	27.49
582.127	27.63
582.321	27.97
582.516	27.86
582.71	27.88
582.904	27.98
583.099	27.96
583.293	28.19
583.487	28.21
583.681	28.36
583.875	28.28
584.07	28.29
584.264	28.51
584.458	28.74
584.652	28.96
584.846	29.14
585.04	29.05
585.234	29.22
585.428	29.45
585.623	29.4
585.817	29.21
586.011	29.67
586.205	29.73
586.399	29.59
586.593	29.39
586.787	29.68
586.981	29.56
587.174	29.79
587.368	29.71
587.562	29.62
587.756	29.79
587.95	29.94
588.144	29.83
588.338	29.86
588.532	29.89
588.725	30.16
588.919	30.2
589.113	30.36
589.307	29.98
589.501	30.19
589.694	30.3
589.888	30.32
590.082	30.24
590.275	30.17
590.469	30.43
590.663	30.41
590.856	30.3
591.05	30.21
591.244	30.39
591.437	31.14
591.631	31.09
591.824	31.07
592.018	31.12
592.212	31.29
592.405	31.33
592.599	31.44
592.792	31.78
592.986	31.88
593.179	32.04
593.372	31.86
593.566	31.58
593.759	31.8
593.953	31.88
594.146	31.85
594.339	31.85
594.533	32
594.726	31.87
594.92	31.83
595.113	32.06
595.306	32.12
595.499	32.46
595.693	32.31
595.886	32.11
596.079	31.91
596.272	31.87
596.466	31.95
596.659	31.85
596.852	31.91
597.045	31.73
597.238	31.6
597.431	31.51
597.624	31.48
597.818	31.56
598.011	31.66
598.204	31.67
598.397	31.77
598.59	31.61
598.783	31.64
598.976	31.63
599.169	31.76
599.362	31.98
599.555	32.28
599.748	32.2
599.941	32.41
600.134	32.45
600.326	32.62
600.519	32.83
600.712	32.89
600.905	33.16
601.098	33.5
601.291	33.47
601.483	33.36
601.676	33.12
601.869	33.23
602.062	33.08
602.255	33.13
602.447	33.21
602.64	33.22
602.833	33.46
603.025	33.51
603.218	33.32
603.411	33.45
603.603	33.54
603.796	33.67
603.989	33.45
604.181	33.37
604.374	33.38
604.566	33.27
604.759	33.34
604.951	33.27
605.144	33.23
605.336	33.16
605.529	33.09
605.721	33.16
605.914	33.05
606.106	33.4
606.299	33.59
606.491	33.72
606.683	33.89
606.876	33.93
607.068	34.14
607.26	34.43
607.453	34.51
607.645	34.75
607.837	34.61
608.03	34.99
608.222	34.9
608.414	35.03
608.606	34.89
608.799	34.77
608.991	34.72
609.183	34.56
609.375	34.61
609.567	34.77
609.759	34.85
609.952	34.81
610.144	34.65
610.336	34.51
610.528	34.39
610.72	34.48
610.912	34.54
611.104	34.71
611.296	34.91
611.488	34.93
611.68	34.87
611.872	34.57
612.064	34.93
612.256	35.01
612.448	35.22
612.64	35.47
612.832	35.79
613.023	36.23
613.215	36.14
613.407	36.18
613.599	35.94
613.791	36.02
613.983	36.38
614.174	36.4
614.366	36.26
614.558	36.39
614.75	36.31
614.941	36.08
615.133	36.03
615.325	36.13
615.516	36.11
615.708	35.84
615.9	35.84
616.091	35.84
616.283	35.7
616.475	35.82
616.666	35.73
616.858	36.25
617.049	36.26
617.241	36.06
617.432	36.19
617.624	36.47
617.815	36.93
618.007	36.92
618.198	36.93
618.39	36.97
618.581	36.9
618.773	37.07
618.964	36.59
619.155	36.82
619.347	36.91
619.538	36.89
619.729	36.66
619.921	36.48
620.112	36.52
620.303	36.45
620.494	36.6
620.686	36.96
620.877	36.87
621.068	37.1
621.259	36.9
621.451	36.97
621.642	37.16
621.833	37.06
622.024	37.45
622.215	37.69
622.406	37.88
622.597	37.72
622.788	37.47
622.98	37.47
623.171	37.58
623.362	37.52
623.553	37.68
623.744	37.92
623.935	38.15
624.126	37.71
624.317	37.18
624.508	37.1
624.698	36.96
624.889	36.86
625.08	37.24
625.271	37.25
625.462	37.17
625.653	37.02
625.844	36.63
626.034	36.45
626.225	36.89
626.416	37.15
626.607	37.3
626.798	37.53
626.988	37.59
627.179	37.69
627.37	37.62
627.56	37.93
627.751	38.06
627.942	38.16
628.132	38.61
628.323	38.43
628.514	38.66
628.704	38.73
628.895	38.86
629.085	39.07
629.276	38.61
629.466	38.71
629.657	38.64
629.847	38.49
630.038	38.68
630.228	38.38
630.419	38.53
630.609	38.65
630.8	38.47
630.99	38.16
631.181	38.3
631.371	38.78
631.561	38.72
631.752	38.98
631.942	39.24
632.132	39.15
632.323	39.31
632.513	39.29
632.703	39.16
632.893	39.5
633.084	39.6
633.274	39.64
633.464	39.45
633.654	39.47
633.844	39.03
634.034	39.02
634.225	39.16
634.415	39.01
634.605	39.32
634.795	39.16
634.985	38.91
635.175	39.16
635.365	39.07
635.555	39.09
635.745	39.04
635.935	39.3
636.125	39.61
636.315	39.52
636.505	39.54
636.695	39.23
636.885	39.49
637.075	39.71
637.265	39.94
637.455	40.15
637.644	40.37
637.834	40.47
638.024	40.57
638.214	40.41
638.404	40.11
638.593	40.2
638.783	40.28
638.973	40.44
639.163	40.32
639.352	40.48
639.542	40.2
639.732	40.12
639.921	40.05
640.111	40.47
640.301	40.52
640.49	41.13
640.68	41.26
640.87	41.23
641.059	41.15
641.249	41.25
641.438	40.88
641.628	40.81
641.817	41.16
642.007	41.45
642.196	40.85
642.386	40.69
642.575	40.66
642.764	40.55
642.954	40.48
643.143	40.52
643.333	40.92
643.522	40.91
643.711	40.87
643.901	40.27
644.09	40
644.279	40.95
644.469	41.03
644.658	40.69
644.847	40.76
645.036	41.01
645.226	40.71
645.415	40.41
645.604	40.77
645.793	41.25
645.982	41.43
646.171	41.59
646.361	40.9
646.55	41.35
646.739	41.59
646.928	41.66
647.117	41.66
647.306	42.01
647.495	42.11
647.684	42.05
647.873	42.25
648.062	42.57
648.251	42.56
648.44	42.61
648.629	42.37
648.818	42.47
649.007	42.58
649.196	42.61
649.384	42.52
649.573	42.63
649.762	42.51
649.951	42.08
650.14	42.23
650.328	42.55
650.517	42.77
650.706	42.89
650.895	42.84
651.083	42.89
651.272	43.01
651.461	43.32
651.65	43.38
651.838	43.2
652.027	43.15
652.216	42.75
652.404	42.71
652.593	42.65
652.781	42.17
652.97	42.25
653.158	42.5
653.347	42.67
653.535	42.91
653.724	42.56
653.912	43.02
654.101	43.19
654.289	43.25
654.478	43.45
654.666	43.22
654.855	43.71
655.043	43.28
655.231	42.82
655.42	42.71
655.608	42.43
655.796	42.92
655.985	42.58
656.173	42.52
656.361	42.74
656.55	42.11
656.738	42.63
656.926	42.51
657.114	43.08
657.302	43.32
657.491	43.19
657.679	43.2
657.867	42.67
658.055	43.14
658.243	43.38
658.431	43.51
658.619	43.57
658.807	43.44
658.996	43.7
659.184	43.72
659.372	43.74
659.56	43.55
659.748	43.38
659.936	43.97
660.124	43.71
660.311	43.53
660.499	43.41
660.687	43.61
660.875	43.71
661.063	43.24
661.251	43.09
661.439	43.17
661.627	43.51
661.814	43.73
662.002	43.22
662.19	43.34
662.378	43.27
662.565	43.24
662.753	43.63
662.941	43.81
663.129	44.18
663.316	44.4
663.504	44.17
663.692	44.12
663.879	44.06
664.067	44.59
664.254	44.6
664.442	45.54
664.63	45.82
664.817	45.69
665.005	45.39
665.192	45.75
665.38	45.58
665.567	45.47
665.755	45.11
665.942	45.03
666.13	45.05
666.317	45.23
666.504	44.65
666.692	44.93
666.879	44.61
667.067	44.78
667.254	44.5
667.441	44.86
667.629	44.81
667.816	45.33
668.003	45.28
668.19	45.18
668.378	45.13
668.565	45.46
668.752	45.13
668.939	45.05
669.127	45.1
669.314	45.11
669.501	44.71
669.688	45.37
669.875	45.43
670.062	45.72
670.249	46.19
670.436	46.27
670.623	46.12
670.81	45.94
670.997	46.24
671.184	46.25
671.371	46.56
671.558	46.7
671.745	46.07
671.932	46.15
672.119	46.25
672.306	45.58
672.493	45.44
672.68	45.6
672.867	45.85
673.054	45.82
673.24	45.5
673.427	45.42
673.614	45.94
673.801	46.51
673.988	46.02
674.174	45.92
674.361	46.28
674.548	46.55
674.734	46.27
674.921	46.12
675.108	46.37
675.294	46.67
675.481	46.66
675.668	46.54
675.854	46.72
676.041	47.13
676.227	47.07
676.414	46.95
676.601	47.21
676.787	47.38
676.974	47.48
677.16	47.43
677.347	47.34
677.533	47.39
677.719	46.57
677.906	46.24
678.092	46.42
678.279	46.59
678.465	46.18
678.651	45.74
678.838	45.69
679.024	45.77
679.21	45.76
679.397	45.64
679.583	45.39
679.769	45.84
679.955	45.91
680.142	45.77
680.328	45.94
680.514	46.08
680.7	46.29
680.886	46.55
681.073	46.8
681.259	46.69
681.445	46.68
681.631	46.98
681.817	46.75
682.003	46.7
682.189	46.62
682.375	46.76
682.561	47.08
682.747	46.74
682.933	46.61
683.119	46.51
683.305	46.7
683.491	46.78
683.677	46.52
683.863	46.86
684.049	47.2
684.235	47.36
684.42	47.01
684.606	46.85
684.792	47.36
684.978	47.77
685.164	47.78
685.349	47.87
685.535	48.08
685.721	47.76
685.907	47.72
686.092	47.54
686.278	47.83
686.464	48
686.649	48.31
686.835	48.01
687.021	47.88
687.206	47.54
687.392	47.3
687.577	48.04
687.763	49.02
687.948	49.08
688.134	48.8
688.319	48.34
688.505	48.32
688.69	48.32
688.876	48.43
689.061	48.07
689.247	49.08
689.432	49.26
689.618	48.4
689.803	48.2
689.988	48.72
690.174	49.45
690.359	49.81
690.544	49.84
690.73	49.65
690.915	49.83
691.1	49.86
691.285	49.02
691.471	49.35
691.656	49.64
691.841	49.67
692.026	49.09
692.211	48.75
692.396	48.22
692.582	48.36
692.767	48.81
692.952	48.41
693.137	48.71
693.322	48.74
693.507	48.62
693.692	48.41
693.877	48.64
694.062	48.55
694.247	48.85
694.432	49.48
694.617	49.13
694.802	48.36
694.987	48.5
695.172	48.2
695.357	48.23
695.541	47.9
695.726	48.17
695.911	48.39
696.096	48.13
696.281	48.11
696.466	47.63
696.65	47.7
696.835	47.91
697.02	48.16
697.204	48.1
697.389	48.23
697.574	48.37
697.759	48.55
697.943	47.83
698.128	48.21
698.312	48.1
698.497	48
698.682	48.01
698.866	48.07
699.051	48.33
699.235	48.53
699.42	48.49
699.604	48.7
699.789	48.5
699.973	48.52
700.158	48.15
700.342	48.2
700.527	48.15
700.711	48.37
700.895	48.42
701.08	48.05
701.264	47.87
701.448	48.25
701.633	48.2
701.817	48.29
702.001	48.73
702.186	49.23
702.37	48.88
702.554	49.59
702.738	50.1
702.923	50.72
703.107	51.37
703.291	51.45
703.475	50.86
703.659	50.45
703.843	50.45
704.027	50.86
704.212	51.29
704.396	51.81
704.58	51.89
704.764	51.39
704.948	51.24
705.132	50.71
705.316	50.67
705.5	51.01
705.684	51.58
705.868	51.88
706.052	51.5
706.235	51.47
706.419	51.36
706.603	51.58
706.787	51.73
706.971	51.74
707.155	51.45
707.339	51.68
707.522	52.24
707.706	52.36
707.89	52.55
708.074	52.81
708.257	52.45
708.441	52.52
708.625	52.24
708.808	52.26
708.992	52.73
709.176	53.08
709.359	52.54
709.543	51.99
709.727	51.87
709.91	51.76
710.094	51.49
710.277	51.56
710.461	51.86
710.644	52.62
710.828	52.12
711.011	51.64
711.195	51.58
711.378	52.15
711.562	52.27
711.745	51.75
711.928	51.79
712.112	51.95
712.295	51.73
712.478	51.55
712.662	51.43
712.845	51.57
713.028	51.29
713.212	50.99
713.395	51.18
713.578	51.09
713.761	51.21
713.945	50.88
714.128	51.03
714.311	51.82
714.494	51.07
714.677	51.3
714.86	51.88
715.043	52.15
715.227	52.2
715.41	52.61
715.593	52.44
715.776	52.27
715.959	52.53
716.142	51.86
716.325	51.29
716.508	51.64
716.691	50.66
716.874	50.37
717.057	50.2
717.239	50.72
717.422	50.25
717.605	50.44
717.788	50.84
717.971	51.59
718.154	52.64
718.337	52.94
718.519	54.04
718.702	54.35
718.885	54.37
719.068	55.31
719.25	56.29
719.433	56.71
719.616	57.09
719.798	56.8
719.981	56.5
720.164	56.03
720.346	56.12
720.529	55.65
720.712	55.41
720.894	55.71
721.077	54.49
721.259	52.78
721.442	51.92
721.624	51.79
721.807	52.77
721.989	51.93
722.172	52.07
722.354	52.5
722.537	52.44
722.719	52.78
722.901	53.05
723.084	53.24
723.266	53.61
723.448	54.74
723.631	55.36
723.813	54.98
723.995	55.31
724.178	54.73
724.36	55.64
724.542	55.11
724.724	56.18
724.907	55.94
725.089	55.92
725.271	57.38
725.453	56.61
725.635	56.57
725.817	57.96
725.999	58.66
726.181	58.86
726.364	57.88
726.546	57.88
726.728	57.1
726.91	56.79
727.092	57.59
727.274	56.08
727.456	57.04
727.638	56.34
727.819	55.3
728.001	54.47
728.183	54.51
728.365	54
728.547	54.46
728.729	55.71
728.911	56.53
729.093	55.98
729.274	57.09
729.456	56.54
729.638	56.89
729.82	57.03
730.001	57.15
730.183	57.11
730.365	57.44
730.546	57.19
730.728	55.49
730.91	55.26
731.091	55.61
731.273	54
731.455	54.27
731.636	54.35
731.818	54.37
731.999	53.68
732.181	54.01
732.362	54.24
732.544	54.64
732.725	55.09
732.907	55.05
733.088	55.52
733.27	56.81
733.451	56.31
733.633	55.64
733.814	55.68
733.995	56.99
734.177	57.16
734.358	57.27
734.539	56.71
734.721	56.79
734.902	55.92
735.083	55.31
735.264	55.37
735.446	54.97
735.627	56.27
735.808	56.07
735.989	56.16
736.17	56.22
736.351	56.31
736.533	56.28
736.714	56.6
736.895	57.17
737.076	57.34
737.257	57.08
737.438	57.78
737.619	57.4
737.8	57.08
737.981	55.88
738.162	55.2
738.343	55.16
738.524	56.24
738.705	55.78
738.886	55.73
739.067	55.83
739.247	55.68
739.428	55.49
739.609	55.47
739.79	55.86
739.971	56.26
740.151	56.68
740.332	55.73
740.513	55.41
740.694	55.64
740.874	55.28
741.055	55.1
741.236	54.83
741.417	54.89
741.597	54.57
741.778	54.89
741.958	55.04
742.139	55.5
742.32	56.35
742.5	57
742.681	57.24
742.861	57.72
743.042	57.58
743.222	56.82
743.403	56.33
743.583	56.66
743.764	56.08
743.944	57.36
744.124	57.44
744.305	57.27
744.485	56.79
744.666	56.33
744.846	57.15
745.026	57.9
745.207	57.88
745.387	59.5
745.567	59.93
745.747	60.71
745.928	60.69
746.108	60.42
746.288	60.89
746.468	59.4
746.648	60.44
746.829	59.97
747.009	59.99
747.189	61.55
747.369	59.75
747.549	59.71
747.729	59.52
747.909	58.99
748.089	59.12
748.269	57.97
748.449	59.44
748.629	59.19
748.809	59.07
748.989	57.81
749.169	57.39
749.349	59
749.529	58.31
749.709	58.39
749.889	57.07
750.068	57.87
750.248	58.92
750.428	58.44
750.608	57.57
750.788	58.24
750.967	58.27
751.147	58.53
751.327	57.85
751.507	58.32
751.686	58.08
751.866	58.57
752.046	57.18
752.225	57.32
752.405	57.85
752.585	58.76
752.764	57.88
752.944	57.39
753.123	57.74
753.303	57.97
753.482	58.12
753.662	57.55
753.841	57.53
754.021	58.19
754.2	58.5
754.38	58.56
754.559	59.13
754.739	58.5
754.918	59.56
755.097	57.99
755.277	57.33
755.456	57.52
755.635	57.91
755.815	58.71
755.994	57.56
756.173	56.06
756.352	56.3
756.532	55.32
756.711	56.62
756.89	56.97
757.069	56.93
757.248	56.02
757.427	55.28
757.607	56.63
757.786	57.21
757.965	57.32
758.144	59.43
758.323	59.02
758.502	58.52
758.681	57.99
758.86	57.53
759.039	59.36
759.218	60.71
759.397	60.54
759.576	58.82
759.755	58.3
759.934	59.28
760.113	58.67
760.291	59.11
760.47	59.78
760.649	59.98
760.828	59.71
761.007	58.73
761.186	59.23
761.364	59.05
761.543	59.98
761.722	59.27
761.901	58.64
762.079	58.11
762.258	57.26
762.437	56.53
762.615	57.04
762.794	57.43
762.972	57.52
763.151	57.04
763.33	56.81
763.508	55.97
763.687	55.78
763.865	55.63
764.044	55.32
764.222	54.69
764.401	55.63
764.579	54.92
764.758	55.18
764.936	55.7
765.114	55.71
765.293	55.7
765.471	56.24
765.65	56.67
765.828	57.53
766.006	58.38
766.184	60.73
766.363	60.28
766.541	60.92
766.719	61.08
766.898	60.54
767.076	60.9
767.254	62.35
767.432	61.85
767.61	61.96
767.788	62.61
767.967	61.83
768.145	60.81
768.323	60.5
768.501	60.98
768.679	60.2
768.857	61.2
769.035	61
769.213	61.18
769.391	62.23
769.569	62.07
769.747	62.59
769.925	62.99
770.103	63.81
770.281	64.37
770.459	64.1
770.636	64.59
770.814	63.6
770.992	64.51
771.17	62.47
771.348	62.44
771.525	62.79
771.703	61.03
771.881	60.65
772.059	59.73
772.236	58.8
772.414	59.32
772.592	60.53
772.769	62.17
772.947	62.36
773.125	65.3
773.302	65.82
773.48	66.44
773.657	66.42
773.835	67.05
774.013	67.89
774.19	70
774.368	70.67
774.545	69.77
774.723	68.88
774.9	67.79
775.077	66.21
775.255	65.6
775.432	67.1
775.61	66.71
775.787	67.68
775.964	66.64
776.142	65.67
776.319	64.75
776.496	64.52
776.674	64.78
776.851	64.65
777.028	64.84
777.205	64.87
777.382	63.96
777.56	66.63
777.737	70.94
777.914	70.85
778.091	70.02
778.268	69.44
778.445	68.76
778.622	68.44
778.8	70.35
778.977	70.8
779.154	78.6
779.331	76.84
779.508	74.97
779.685	71.8
779.862	72.94
780.038	74.15
780.215	75.9
780.392	76.69
780.569	77.81
780.746	75.81
780.923	76.8
781.1	70.76
781.277	71.64
781.453	71.39
781.63	70.67
781.807	71.61
781.984	71.52
782.16	70.75
782.337	70.41
782.514	69.83
782.691	71.08
782.867	70.12
783.044	67.7
783.221	67.01
783.397	66.13
783.574	65.53
783.75	65.4
783.927	65.98
784.103	67.34
784.28	65.54
784.456	64.79
784.633	63.58
784.809	63.71
784.986	65.07
785.162	63.05
785.339	65.22
785.515	64.98
785.692	62.22
785.868	61.89
786.044	60.79
786.221	62.54
786.397	61.19
786.573	62.35
786.749	61.69
786.926	61.91
787.102	64.85
787.278	64.7
787.454	65.62
787.631	68
787.807	66.72
787.983	66.28
788.159	66.48
788.335	68.68
788.511	68.9
788.687	69.01
788.863	68.92
789.039	68.12
789.216	66.95
789.392	66.62
789.568	65.96
789.744	67.84
789.919	67
790.095	68.03
790.271	66.06
790.447	65.48
790.623	65.93
790.799	65.92
790.975	66.08
791.151	67.58
791.327	66.95
791.502	66.76
791.678	65.9
791.854	67.04
792.03	65.36
792.205	67.63
792.381	68.28
792.557	68.48
792.733	68.29
792.908	70.83
793.084	70.86
793.259	71.34
793.435	73.79
793.611	73.74
793.786	73.64
793.962	74.16
794.137	73.86
794.313	73.39
794.488	73.16
794.664	73.77
794.839	72.09
795.015	71.42
795.19	68.58
795.366	65.01
795.541	65.42
795.716	64.32
795.892	65.3
796.067	64.24
796.242	65.93
796.418	66.3
796.593	65.44
796.768	65.91
796.944	66.07
797.119	68.28
797.294	70.85
797.469	71.08
797.644	71.64
797.82	71.35
797.995	71.38
798.17	71.1
798.345	72.32
798.52	73.11
798.695	72.28
798.87	71.66
799.045	73.17
799.22	73.46
799.395	73.12
799.57	74.32
799.745	72.78
799.92	72.16
800.095	72.85
800.27	70.69
800.445	71.46
800.62	70.76
800.795	71.56
800.97	71.82
801.145	69.01
801.319	68.76
801.494	68.1
801.669	69.62
801.844	71.34
802.018	68.63
802.193	69.78
802.368	67.23
802.543	69.25
802.717	72.32
802.892	70.46
803.067	73.26
803.241	72.85
803.416	73.12
803.59	74.15
803.765	74.33
803.94	75.78
804.114	74.29
804.289	76.29
804.463	75.71
804.638	71.96
804.812	70.07
804.986	68.26
805.161	69.95
805.335	69.45
805.51	68.31
805.684	67.94
805.858	66.91
806.033	67.06
806.207	67.17
806.381	67.28
806.556	69.17
806.73	73.24
806.904	74.63
807.078	73.27
807.253	74.96
807.427	75.98
807.601	75.87
807.775	77.14
807.949	77.72
808.123	76.99
808.298	75.53
808.472	75.63
808.646	75.31
808.82	74.75
808.994	75.15
809.168	75.2
809.342	76.21
809.516	77.59
809.69	79.39
809.864	82.02
810.038	86.48
810.212	89.55
810.385	89.54
810.559	90.5
810.733	92.76
810.907	92.92
811.081	90.44
811.255	88.8
811.428	89.53
811.602	87.25
811.776	85.33
811.95	81.07
812.123	79.22
812.297	79.02
812.471	78.39
812.644	78.63
812.818	78.25
812.992	79.39
813.165	80.5
813.339	79.8
813.512	82.2
813.686	82.63
813.86	83.41
814.033	84.81
814.207	84.96
814.38	83.22
814.554	82.93
814.727	84.32
814.9	83.87
815.074	82.04
815.247	83.25
815.421	76.76
815.594	77.69
815.767	77.03
815.941	76.74
816.114	79
816.287	80.48
816.46	78
816.634	75.52
816.807	77.79
816.98	79.47
817.153	79.99
817.327	83.67
817.5	83.39
817.673	83.93
817.846	84.02
818.019	82.12
818.192	83.66
818.365	86.91
818.538	88.67
818.711	84.19
818.884	86.74
819.057	84.12
819.23	83.59
819.403	81.91
819.576	80.65
819.749	78.82
819.922	76.25
820.095	74.41
820.268	73.37
820.441	71.5
820.614	73.57
820.786	70.78
820.959	69.09
821.132	66.56
821.305	63.56
821.477	61.44
821.65	59.97
821.823	59.92
821.996	58.64
822.168	57.27
822.341	57.45
822.514	56.11
822.686	55.26
822.859	55.37
823.031	55.46
823.204	56.04
823.376	56.14
823.549	56.27
823.722	55.86
823.894	55.95
824.067	55.81
824.239	55.56
824.411	55.92
824.584	56.78
824.756	56.13
824.929	56.86
825.101	56.71
825.273	56.97
825.446	56.33
825.618	56.41
825.79	56.33
825.963	56.77
826.135	56.67
826.307	57.05
826.479	56.69
826.652	56.7
826.824	56.76
826.996	57.64
827.168	58.23
827.34	59.54
827.512	60.18
827.684	60.58
827.856	61.17
828.029	61.26
828.201	59.89
828.373	60.13
828.545	62.01
828.717	62.29
828.889	61.51
829.061	60.46
829.232	61.18
829.404	60.24
829.576	61.62
829.748	62.05
829.92	63.94
830.092	66.87
830.264	68.19
830.436	67.55
830.607	67.45
830.779	68.19
830.951	71.37
831.123	70.7
831.294	72.56
831.466	73.72
831.638	73.13
831.809	72.42
831.981	72.7
832.153	70.76
832.324	72.55
832.496	71.13
832.667	74.03
832.839	73.98
833.011	75.81
833.182	78.31
833.354	76.27
833.525	78.53
833.697	76.7
833.868	74.26
834.039	75.65
834.211	73.25
834.382	74.65
834.554	72.89
834.725	72.5
834.896	70.63
835.068	67.89
835.239	67.25
835.41	65.69
835.581	66.75
835.753	68.15
835.924	65.93
836.095	65.77
836.266	65.55
836.438	65.11
836.609	62.95
836.78	64.85
836.951	66
837.122	65.92
837.293	68.89
837.464	71.68
837.635	72.26
837.806	74
837.977	74.55
838.148	75.58
838.319	79.26
838.49	83.28
838.661	80.34
838.832	78.41
839.003	80.64
839.174	78.77
839.345	78.07
839.516	78.06
839.687	83.07
839.857	88.47
840.028	86.04
840.199	86.53
840.37	84.15
840.54	90.4
840.711	89.41
840.882	88.53
841.053	85.08
841.223	81.37
841.394	83.13
841.564	80.76
841.735	82
841.906	82.68
842.076	79.03
842.247	82.66
842.417	82.96
842.588	84.45
842.758	86.29
842.929	92.02
843.099	96.38
843.27	93.92
843.44	94.26
843.611	91.3
843.781	91.57
843.951	92.88
844.122	89.51
844.292	85.33
844.462	89.18
844.633	87.95
844.803	89.4
844.973	91.97
845.144	93.43
845.314	97.81
845.484	100.29
845.654	107.49
845.824	118
845.995	122.12
846.165	133.24
846.335	141.78
846.505	171.03
846.675	175.89
846.845	166.92
847.015	165.2
847.185	162.79
847.355	160.37
847.525	168.88
847.695	165.45
847.865	168
848.035	145.68
848.205	146.36
848.375	130.76
848.545	127.04
848.715	130.34
848.884	131.87
849.054	133.57
849.224	134.09
849.394	128.35
849.564	132.21
849.733	127.29
849.903	136.8
850.073	126.49
850.243	115.21
850.412	113.53
850.582	106.57
850.752	118.67
850.921	115.26
851.091	115
851.26	111.93
851.43	103.85
851.599	103.17
851.769	101.53
851.939	109.04
852.108	113.69
852.278	122.1
852.447	125.44
852.616	120.94
852.786	120.85
852.955	123.2
853.125	123.13
853.294	125.41
853.463	117.54
853.633	123.01
853.802	120.03
853.971	125.63
854.141	122.64
854.31	124.56
854.479	124.11
854.648	120.42
854.818	117.73
854.987	118.25
855.156	127.14
855.325	148.41
855.494	152.94
855.663	162.42
855.832	160.21
856.001	166.23
856.171	167.44
856.34	174.01
856.509	188.67
856.678	192
856.847	192.17
857.016	166.25
857.185	159.49
857.353	169.19
857.522	164.18
857.691	151.6
857.86	155.17
858.029	164.36
858.198	164.35
858.367	155.05
858.535	165.34
858.704	164.09
858.873	194.68
859.042	183.96
859.21	176.34
859.379	166.45
859.548	176.96
859.717	168.7
859.885	167.87
860.054	155.02
860.222	154.29
860.391	141.57
860.56	137.51
860.728	131.81
860.897	132.17
861.065	126.27
861.234	129.25
861.402	130.25
861.571	137.23
861.739	146.12
861.908	165.49
862.076	179.85
862.244	192.72
862.413	205.91
862.581	199.89
862.749	209.85
862.918	222.88
863.086	194.89
863.254	186.55
863.423	173.69
863.591	147.37
863.759	134.4
863.927	121.69
864.096	125.18
864.264	126.24
864.432	123.2
864.6	122
864.768	126.74
864.936	132.51
865.104	138.12
865.272	137.61
865.44	149.7
865.608	149.55
865.776	161.04
865.944	149.04
866.112	156.15
866.28	165.9
866.448	170.91
866.616	151.38
866.784	165.76
866.952	155.57
867.12	159.54
867.288	158.29
867.455	150.06
867.623	151.8
867.791	162.14
867.959	167.1
868.127	168.8
868.294	176.06
868.462	168.71
868.63	138.52
868.797	144.52
868.965	134.62
869.133	129.97
869.3	149.42
869.468	135.24
869.636	138.25
869.803	128.86
869.971	128.24
870.138	128.65
870.306	129.86
870.473	138.15
870.641	137.4
870.808	144.36
870.975	137.05
871.143	132.05
871.31	140.63
871.478	134.01
871.645	134.66
871.812	132.68
871.98	134.17
872.147	133.98
872.314	127.18
872.482	119.57
872.649	111.38
872.816	119.82
872.983	121.2
873.15	122.72
873.318	128.57
873.485	132.37
873.652	138.83
873.819	149.97
873.986	151.51
874.153	155.53
874.32	149.29
874.487	151.96
874.654	148.03
874.821	148.92
874.988	145.59
875.155	139.46
875.322	135.48
875.489	136.67
875.656	129.86
875.823	137.23
875.99	128.68
876.157	145.47
876.324	152.65
876.49	162.12
876.657	157.96
876.824	138.99
876.991	133.23
877.157	145.61
877.324	146.08
877.491	141.76
877.658	131.04
877.824	139.69
877.991	143.44
878.157	139.08
878.324	142.31
878.491	141.88
878.657	147.59
878.824	137.93
878.99	118.68
879.157	120.44
879.323	114.29
879.49	110.37
879.656	112.8
879.823	115.88
879.989	119.76
880.156	112.3
880.322	111.88
880.488	111.43
880.655	123.57
880.821	132.11
880.987	119.64
881.154	115.81
881.32	121.19
881.486	113.07
881.652	108.46
881.819	104.08
881.985	102.75
882.151	97.27
882.317	91.86
882.483	87.92
882.649	84.03
882.816	81.31
882.982	78.33
883.148	75.31
883.314	74.1
883.48	73.19
883.646	71.8
883.812	71.11
883.978	70.71
884.144	71.97
884.31	69.51
884.476	69.08
884.642	69.81
884.807	73.56
884.973	73.5
885.139	75.14
885.305	74.76
885.471	75.56
885.637	75.13
885.802	76.97
885.968	77.92
886.134	80.29
886.3	82.7
886.465	84.59
886.631	85.95
886.797	90.66
886.962	92.62
887.128	97.95
887.293	101.02
887.459	105.22
887.625	108.25
887.79	105.68
887.956	114.24
888.121	115.4
888.287	116.65
888.452	111.45
888.618	111.18
888.783	107.58
