Data from LC_151_Reflection_3.txt Node
Date: Mon Nov 16 22:05:21 EST 2015
User: robert
Spectrometer: USB4E03001
Autoset integration time: false
Trigger mode: 4
Integration Time (sec): 1.000000E-1
Scans to average: 15
Electric dark correction enabled: true
Nonlinearity correction enabled: false
Boxcar width: 5
Stray light correction enabled: false
XAxis mode: Wavelengths
Stop averaging: false
Number of Pixels in Spectrum: 3648
>>>>>Begin Spectral Data<<<<<
177.566	4855.42
177.785	366.4
178.005	-2468.91
178.225	188.76
178.445	71.04
178.665	387.33
178.885	546.22
179.105	1044.86
179.324	1196.73
179.544	-206.34
179.764	-1170.57
179.984	-529.29
180.204	-446.1
180.423	-382.95
180.643	-432.94
180.863	-240.94
181.083	-197.65
181.302	-278.52
181.522	-232.25
181.742	-209.54
181.961	-347.48
182.181	-289.37
182.401	-404.62
182.621	-1467.74
182.84	-669.86
183.06	-466.25
183.279	-288.65
183.499	-201.08
183.719	-158.62
183.938	-151.6
184.158	-174.78
184.377	-98.71
184.597	-155.82
184.816	-77.73
185.036	-68.48
185.256	-39.88
185.475	-60.6
185.695	-93.95
185.914	-156.09
186.134	-259.04
186.353	-387.78
186.572	-356.55
186.792	-566.3
187.011	-153.35
187.231	-242.74
187.45	-142.24
187.67	-409.8
187.889	-1204.13
188.108	2295.57
188.328	-551.17
188.547	-171.45
188.766	-301.33
188.986	-620.51
189.205	-354.03
189.424	-242.25
189.644	-661.59
189.863	-704.43
190.082	-508.8
190.302	-1045.62
190.521	-507.81
190.74	548.14
190.959	250.31
191.178	287.73
191.398	202.71
191.617	206.63
191.836	197.13
192.055	242.73
192.274	116.2
192.494	98.97
192.713	79.46
192.932	141.59
193.151	79.85
193.37	41.77
193.589	-76.65
193.808	-9.29
194.027	-126.66
194.246	-2033.52
194.465	430.6
194.685	1060.76
194.904	568.07
195.123	-628.47
195.342	-377.83
195.561	-148.83
195.78	-282.57
195.999	11132.39
196.218	403.36
196.436	291.52
196.655	-300.86
196.874	-92.55
197.093	-139.33
197.312	-39.56
197.531	1005.89
197.75	298
197.969	-743.74
198.188	-103.09
198.407	-38.59
198.625	-61.92
198.844	-42.52
199.063	-62.29
199.282	-159.73
199.501	-109.28
199.719	-97.92
199.938	-48.44
200.157	-61.78
200.376	-81.62
200.594	-135.88
200.813	-294.31
201.032	-195.94
201.251	-150.16
201.469	-147.56
201.688	-82.4
201.907	-167.77
202.125	-224.14
202.344	8898.81
202.563	1568.62
202.781	289.45
203	835.46
203.218	679.16
203.437	572.87
203.656	376.3
203.874	241.83
204.093	245.63
204.311	302.45
204.53	299.91
204.748	438.48
204.967	313.04
205.185	337.48
205.404	340.82
205.622	205.16
205.841	148.71
206.059	160.51
206.278	151.58
206.496	347.43
206.715	201.86
206.933	131.52
207.151	97.06
207.37	104.96
207.588	126.82
207.806	141.06
208.025	355.88
208.243	-775.1
208.461	1226.16
208.68	-11363.53
208.898	528.09
209.116	564.44
209.335	668.97
209.553	716.3
209.771	6765.42
209.989	1315.14
210.208	2595.06
210.426	-3864.51
210.644	2096.36
210.862	-1994.29
211.081	907.81
211.299	-409.82
211.517	1801.63
211.735	-445.38
211.953	-135385.71
212.171	-2384.64
212.39	-6382.88
212.608	-15939.13
212.826	715.9
213.044	502
213.262	378.63
213.48	2457.38
213.698	284.1
213.916	442.79
214.134	252.44
214.352	504.9
214.57	360.17
214.788	444.65
215.006	412.41
215.224	334.89
215.442	260.99
215.66	206.53
215.878	174.61
216.096	163.09
216.314	142.09
216.532	342.22
216.75	305.08
216.968	288.1
217.185	755.26
217.403	1252.69
217.621	-3380.61
217.839	-1174.22
218.057	-1625.55
218.275	2643.6
218.492	923.15
218.71	1493.5
218.928	375.98
219.146	379
219.363	324.95
219.581	241.94
219.799	187.96
220.017	195.62
220.234	148.94
220.452	129.27
220.67	172.03
220.887	165.31
221.105	183.68
221.323	164.72
221.54	149.6
221.758	156.82
221.976	153.91
222.193	176.5
222.411	114.68
222.629	110.24
222.846	117.46
223.064	125.85
223.281	101.64
223.499	81.47
223.716	82.61
223.934	64.93
224.151	61
224.369	51.55
224.586	42.75
224.804	40.61
225.021	60.56
225.239	51.57
225.456	45.87
225.674	48.25
225.891	51.18
226.108	65.58
226.326	72.99
226.543	82.01
226.76	84.88
226.978	76.66
227.195	83.73
227.413	69.96
227.63	58.87
227.847	52.22
228.064	44.72
228.282	39.44
228.499	33.84
228.716	27.81
228.934	23.27
229.151	21.02
229.368	20.58
229.585	18.13
229.802	18.1
230.02	18.98
230.237	18.53
230.454	20.37
230.671	21.05
230.888	20.71
231.105	21.83
231.323	22.45
231.54	22.78
231.757	24.69
231.974	19.94
232.191	18.81
232.408	22.52
232.625	22.67
232.842	22.71
233.059	28.21
233.276	28.05
233.493	29.22
233.71	26.23
233.927	27.41
234.144	23.88
234.361	26.27
234.578	31.99
234.795	27.06
235.012	25.72
235.229	22.97
235.446	19.77
235.663	19.9
235.879	23.52
236.096	23.45
236.313	18.43
236.53	18.96
236.747	20.01
236.964	17.38
237.181	21.1
237.397	20.28
237.614	24.27
237.831	18.43
238.048	23.81
238.264	23.66
238.481	20.81
238.698	27.84
238.915	22.83
239.131	25.04
239.348	23.68
239.565	23.92
239.781	25.51
239.998	22.25
240.215	24
240.431	19.26
240.648	13.82
240.865	14.41
241.081	12.11
241.298	15.07
241.514	14.29
241.731	13.18
241.947	12.57
242.164	11.6
242.38	11.85
242.597	12.44
242.814	12.74
243.03	13.41
243.246	13.64
243.463	14.27
243.679	13.02
243.896	11.04
244.112	13.08
244.329	12.48
244.545	14.04
244.762	14.01
244.978	15.74
245.194	15.53
245.411	16.17
245.627	16.03
245.843	15.52
246.06	15.9
246.276	16.13
246.492	15.05
246.709	15.14
246.925	14.08
247.141	13.92
247.357	12.71
247.574	12.42
247.79	11.77
248.006	11.14
248.222	10.63
248.439	10.67
248.655	10.95
248.871	11.43
249.087	11.82
249.303	11.62
249.519	12.52
249.736	13.59
249.952	13.61
250.168	14.99
250.384	16.62
250.6	16.85
250.816	16.46
251.032	15
251.248	13.49
251.464	12.87
251.68	12.23
251.896	11.37
252.112	10.95
252.328	11.26
252.544	11.8
252.76	11.59
252.976	10.71
253.192	10.38
253.408	11.95
253.624	14.8
253.84	15.03
254.056	18.05
254.272	16.65
254.487	16.5
254.703	16.98
254.919	15.77
255.135	15.15
255.351	19.45
255.567	20.42
255.782	23.23
255.998	18.7
256.214	18.37
256.43	15
256.646	17.35
256.861	16.09
257.077	15.44
257.293	13.74
257.508	12.48
257.724	12.88
257.94	13.97
258.155	10.73
258.371	11.17
258.587	10.77
258.802	11.37
259.018	11.52
259.234	11.97
259.449	12.2
259.665	12.5
259.88	12.34
260.096	11.44
260.312	10.29
260.527	10.64
260.743	11.08
260.958	11.85
261.174	11.51
261.389	11.22
261.605	11.39
261.82	10.93
262.036	12.03
262.251	14.25
262.466	14.51
262.682	16.95
262.897	17.51
263.113	16.86
263.328	15.78
263.543	17.89
263.759	17.65
263.974	17.73
264.189	18.98
264.405	17.9
264.62	17.03
264.835	18.6
265.051	17.56
265.266	19.02
265.481	20.17
265.696	20.58
265.912	19.01
266.127	18.72
266.342	16.29
266.557	15.75
266.773	15.75
266.988	14.21
267.203	14.14
267.418	13.79
267.633	12.54
267.848	13.08
268.064	11.91
268.279	12.07
268.494	12.33
268.709	14.21
268.924	14.53
269.139	13.95
269.354	14.49
269.569	12.92
269.784	13.48
269.999	13.39
270.214	12.62
270.429	12.97
270.644	11.46
270.859	10.23
271.074	10.19
271.289	9.24
271.504	9.9
271.719	9.75
271.934	10.52
272.149	9.05
272.363	8.69
272.578	7.14
272.793	7.08
273.008	7.32
273.223	8.41
273.438	8.48
273.653	9.26
273.867	8.26
274.082	7.73
274.297	7.58
274.512	8.5
274.726	8.87
274.941	10.85
275.156	11.08
275.371	12.38
275.585	12.89
275.8	12.73
276.015	12.23
276.229	12.32
276.444	13.86
276.659	13.95
276.873	14.51
277.088	14.37
277.302	14.29
277.517	15.44
277.732	17.28
277.946	15.89
278.161	15.47
278.375	15.51
278.59	14.67
278.804	14.69
279.019	13.56
279.233	12.84
279.448	13
279.662	11.12
279.877	11.06
280.091	8.73
280.306	8.95
280.52	10.63
280.735	9.71
280.949	11.11
281.163	9.65
281.378	10.16
281.592	10.01
281.806	9.66
282.021	10.22
282.235	9.54
282.449	9.66
282.664	10.42
282.878	8.81
283.092	10.01
283.307	10.55
283.521	10.73
283.735	10.09
283.949	10.96
284.164	11.46
284.378	11.77
284.592	11.04
284.806	11.22
285.02	11.05
285.234	10.56
285.449	9.02
285.663	7.88
285.877	8.11
286.091	8.82
286.305	8.19
286.519	6.95
286.733	6.37
286.947	6.23
287.161	6.08
287.375	5.56
287.589	7.17
287.803	9.16
288.017	10.15
288.231	10.38
288.445	10.51
288.659	10.11
288.873	11.04
289.087	11.72
289.301	12.12
289.515	11.79
289.729	11.69
289.943	10.25
290.157	10.04
290.371	10.87
290.584	10.61
290.798	11.05
291.012	11.64
291.226	10.8
291.44	11.17
291.654	11.55
291.867	11.68
292.081	10.89
292.295	11.45
292.509	10.93
292.722	10
292.936	10.09
293.15	10.29
293.364	10.32
293.577	11.05
293.791	10.48
294.005	11.36
294.218	11.59
294.432	13.48
294.645	13.35
294.859	13.14
295.073	12.78
295.286	13.53
295.5	12.63
295.713	13.06
295.927	13.11
296.14	13.41
296.354	12.48
296.568	12.41
296.781	12.2
296.994	12.74
297.208	12.65
297.421	12.56
297.635	11.44
297.848	12.06
298.062	11.43
298.275	12.15
298.489	11.48
298.702	11.84
298.915	11.93
299.129	11.39
299.342	10.76
299.555	11.31
299.769	11.75
299.982	12.44
300.195	12.33
300.409	13.96
300.622	13.44
300.835	15.17
301.048	14.8
301.262	14.26
301.475	14.24
301.688	15.09
301.901	15.16
302.115	14.73
302.328	15.8
302.541	14.8
302.754	14.46
302.967	14.25
303.18	14.25
303.393	14.56
303.607	15.2
303.82	15.77
304.033	14.78
304.246	15.2
304.459	15.33
304.672	14.5
304.885	15.44
305.098	14.69
305.311	14.73
305.524	14.46
305.737	14.97
305.95	15.09
306.163	14.42
306.376	14.52
306.589	13.95
306.802	13.71
307.015	14.88
307.228	14.29
307.44	13.46
307.653	12.56
307.866	11.08
308.079	12.2
308.292	12.22
308.505	12.66
308.718	12.67
308.93	12.19
309.143	12.74
309.356	11.64
309.569	12.22
309.781	13.84
309.994	14.28
310.207	14.74
310.42	13.47
310.632	12.31
310.845	12.53
311.058	11.68
311.27	12.51
311.483	12.61
311.696	13.22
311.908	13.45
312.121	12.95
312.333	14.05
312.546	14.01
312.759	14.53
312.971	14.91
313.184	15.27
313.396	16.77
313.609	17.21
313.821	17.01
314.034	16.8
314.246	16.36
314.459	15.79
314.671	14.94
314.884	14.6
315.096	13.45
315.309	13.76
315.521	14.33
315.733	13.23
315.946	10.58
316.158	10.4
316.371	10.55
316.583	10.85
316.795	11.32
317.008	11.93
317.22	14.14
317.432	14.86
317.644	15.79
317.857	14.72
318.069	15.64
318.281	17.47
318.494	17.38
318.706	17.48
318.918	17.16
319.13	17.55
319.342	17.97
319.555	16.59
319.767	17.44
319.979	17.67
320.191	17.27
320.403	16.82
320.615	17.22
320.827	18.49
321.039	17.86
321.252	17.82
321.464	16.1
321.676	15.3
321.888	14.81
322.1	15.34
322.312	13.61
322.524	12.99
322.736	12.86
322.948	12.21
323.16	10.85
323.372	11.36
323.584	10.77
323.796	11.27
324.007	11.89
324.219	12.3
324.431	11.1
324.643	12.48
324.855	13.39
325.067	13.66
325.279	14.23
325.491	14.96
325.702	14.12
325.914	14.34
326.126	15.49
326.338	15.22
326.55	15.63
326.761	16.19
326.973	16.59
327.185	17.71
327.396	18.17
327.608	18.25
327.82	18.43
328.032	19.66
328.243	20.69
328.455	20.81
328.666	20.76
328.878	20.69
329.09	19.64
329.301	18.61
329.513	18.02
329.725	17.85
329.936	17.77
330.148	17.42
330.359	17.36
330.571	16.95
330.782	17.86
330.994	19.6
331.205	20.17
331.417	21.7
331.628	23.14
331.84	23.25
332.051	24.81
332.262	25.23
332.474	25.23
332.685	26.45
332.897	26.68
333.108	26.67
333.319	25.92
333.531	26.52
333.742	27.1
333.953	26.78
334.165	26.34
334.376	25.07
334.587	24.73
334.799	25.78
335.01	25.15
335.221	24.75
335.432	23.57
335.644	22.79
335.855	22.92
336.066	23.26
336.277	23.32
336.488	24.38
336.7	24.3
336.911	25.18
337.122	25.13
337.333	25.31
337.544	26.07
337.755	27.14
337.966	28.15
338.177	28
338.388	27.85
338.599	28.45
338.811	28.65
339.022	29.41
339.233	30.23
339.444	29.61
339.655	28.5
339.866	28.23
340.076	28.5
340.287	29.06
340.498	29.36
340.709	29.18
340.92	28.4
341.131	28.44
341.342	28.89
341.553	27.44
341.764	27.92
341.975	29.08
342.185	29.7
342.396	29.07
342.607	27.75
342.818	27.93
343.029	27.85
343.239	28.71
343.45	28.71
343.661	28.37
343.872	29.03
344.082	28.67
344.293	29.52
344.504	28.96
344.714	28.45
344.925	27.98
345.136	27.77
345.346	27.76
345.557	27.34
345.768	27.12
345.978	26.43
346.189	26.57
346.399	25.88
346.61	25.08
346.821	25.26
347.031	26.16
347.242	26.66
347.452	26.28
347.663	25.66
347.873	25.61
348.084	25.77
348.294	26.35
348.504	26.14
348.715	27.04
348.925	26.42
349.136	26.05
349.346	24.91
349.557	25.53
349.767	25.58
349.977	25.72
350.188	26.42
350.398	26.2
350.608	26.19
350.819	25.4
351.029	25.38
351.239	25.49
351.449	25.84
351.66	26.74
351.87	26.95
352.08	27.27
352.29	27.4
352.501	25.93
352.711	24.95
352.921	25.05
353.131	24.85
353.341	25.12
353.552	25.61
353.762	24.93
353.972	25.02
354.182	24.98
354.392	24.31
354.602	24.39
354.812	24.83
355.022	25.73
355.232	26.13
355.442	27.06
355.652	26.88
355.862	26.2
356.072	27.4
356.282	27.36
356.492	26.92
356.702	27
356.912	27.44
357.122	27.68
357.332	27.11
357.542	26.9
357.752	26.5
357.962	26.15
358.171	26.4
358.381	25.8
358.591	25.34
358.801	25.06
359.011	25.23
359.221	24.66
359.43	24.47
359.64	24.98
359.85	24.72
360.06	25.07
360.269	25.29
360.479	25.45
360.689	25.42
360.899	25.26
361.108	25.41
361.318	25.25
361.528	25.24
361.737	24.93
361.947	24.56
362.156	24.41
362.366	24.18
362.576	24.36
362.785	24.2
362.995	24.06
363.204	24.16
363.414	24.5
363.623	24.23
363.833	24.6
364.042	24.84
364.252	25.25
364.461	25.28
364.671	25.33
364.88	25.6
365.09	25.44
365.299	25.74
365.509	24.99
365.718	24.14
365.927	24.04
366.137	24.04
366.346	23.87
366.555	23.69
366.765	23.32
366.974	23.44
367.183	22.57
367.393	22.34
367.602	21.79
367.811	22.26
368.021	22.27
368.23	22.76
368.439	21.87
368.648	22
368.857	21.9
369.067	22.07
369.276	21.68
369.485	21.86
369.694	22.34
369.903	23.23
370.112	23.25
370.321	23.21
370.531	22.82
370.74	23.22
370.949	22.86
371.158	22.72
371.367	22.57
371.576	22.27
371.785	22.33
371.994	21.86
372.203	21.49
372.412	21.63
372.621	22
372.83	22.01
373.039	21.99
373.248	21.66
373.457	21.82
373.666	21.77
373.874	21.85
374.083	22.51
374.292	22.52
374.501	21.9
374.71	21.39
374.919	21.48
375.128	21.66
375.336	21.34
375.545	21.93
375.754	21.57
375.963	21.52
376.171	21.65
376.38	20.97
376.589	21.42
376.798	21.26
377.006	21.49
377.215	21.53
377.424	21.6
377.632	21.72
377.841	21.42
378.05	21.36
378.258	21.5
378.467	21.19
378.675	21.19
378.884	20.6
379.093	20.89
379.301	20.44
379.51	20.25
379.718	20.11
379.927	19.94
380.135	19.69
380.344	19.84
380.552	19.97
380.761	19.8
380.969	19.69
381.177	19.69
381.386	19.53
381.594	19.96
381.803	19.84
382.011	19.74
382.219	19.37
382.428	19.14
382.636	18.79
382.845	18.38
383.053	18.59
383.261	18.31
383.469	18.5
383.678	18.63
383.886	18.7
384.094	18.34
384.302	18.53
384.511	18.93
384.719	19.41
384.927	19.17
385.135	19.12
385.343	19.36
385.552	19.46
385.76	19.08
385.968	18.87
386.176	18.57
386.384	18.68
386.592	18
386.8	17.65
387.008	17.79
387.216	18.17
387.424	18.09
387.633	18.32
387.841	18.09
388.049	18.44
388.257	18.2
388.465	18.19
388.672	18.08
388.88	18.36
389.088	18.44
389.296	18.41
389.504	18.17
389.712	18.32
389.92	17.88
390.128	18.01
390.336	17.87
390.544	18.38
390.751	18.03
390.959	17.92
391.167	17.72
391.375	17.51
391.583	17.21
391.79	17.11
391.998	16.96
392.206	16.71
392.414	16.49
392.621	16.45
392.829	16.15
393.037	16.36
393.244	16.46
393.452	16.41
393.66	16.64
393.867	16.73
394.075	16.85
394.283	16.77
394.49	16.55
394.698	16.61
394.905	16.42
395.113	16.34
395.32	16.35
395.528	16.28
395.735	16.5
395.943	16.39
396.15	16.39
396.358	16.33
396.565	16.34
396.773	17
396.98	16.9
397.188	17
397.395	17.04
397.602	16.92
397.81	16.66
398.017	16.48
398.225	16.39
398.432	16.36
398.639	16.43
398.847	16.45
399.054	15.72
399.261	15.65
399.468	15.83
399.676	15.47
399.883	15.48
400.09	15.72
400.297	15.64
400.505	15.73
400.712	15.24
400.919	15.11
401.126	15.18
401.333	15.25
401.54	15.46
401.748	15.27
401.955	15.47
402.162	15.52
402.369	15.37
402.576	15.57
402.783	15.6
402.99	15.88
403.197	15.75
403.404	15.65
403.611	15.8
403.818	15.74
404.025	15.72
404.232	15.65
404.439	15.49
404.646	15.33
404.853	14.95
405.06	14.92
405.267	14.8
405.474	14.81
405.681	14.62
405.887	14.49
406.094	14.32
406.301	14.11
406.508	14.1
406.715	14.26
406.922	14.51
407.128	14.5
407.335	14.44
407.542	14.25
407.749	14.34
407.955	14.53
408.162	14.63
408.369	14.85
408.575	14.74
408.782	14.6
408.989	14.48
409.195	14.34
409.402	14.45
409.609	14.5
409.815	14.99
410.022	14.95
410.228	14.97
410.435	14.96
410.642	14.82
410.848	15
411.055	15.27
411.261	15.3
411.468	15.47
411.674	15.4
411.881	15.25
412.087	15.28
412.294	15.16
412.5	14.68
412.706	14.82
412.913	14.65
413.119	14.54
413.326	14.38
413.532	14.41
413.738	14.07
413.945	14.18
414.151	14.16
414.357	13.81
414.564	13.89
414.77	14.29
414.976	14.16
415.182	14.45
415.389	14.34
415.595	14.35
415.801	14.05
416.007	14.33
416.214	14.44
416.42	14.61
416.626	14.49
416.832	14.39
417.038	14.25
417.244	14.13
417.45	13.92
417.657	14.14
417.863	14.29
418.069	14.43
418.275	14.43
418.481	14.34
418.687	14.12
418.893	14.11
419.099	14.1
419.305	14.17
419.511	14.18
419.717	14.27
419.923	14.13
420.129	14.02
420.335	13.96
420.541	13.9
420.746	13.88
420.952	13.96
421.158	13.93
421.364	13.98
421.57	14.03
421.776	14.04
421.982	14.01
422.187	13.95
422.393	13.92
422.599	13.88
422.805	13.84
423.01	13.9
423.216	13.85
423.422	13.88
423.628	13.93
423.833	13.81
424.039	13.94
424.245	13.95
424.45	14.19
424.656	14.25
424.862	14.33
425.067	14.33
425.273	14.22
425.478	14.31
425.684	14.38
425.889	14.46
426.095	14.57
426.301	14.48
426.506	14.52
426.712	14.31
426.917	14.21
427.123	14.19
427.328	14.16
427.533	14.47
427.739	14.48
427.944	14.43
428.15	14.21
428.355	14.11
428.561	13.99
428.766	13.88
428.971	13.97
429.177	14.08
429.382	14.31
429.587	14.35
429.793	14.15
429.998	14.03
430.203	14.09
430.408	14.15
430.614	14.3
430.819	14.32
431.024	14.43
431.229	14.33
431.434	14.38
431.64	14.15
431.845	14.35
432.05	14.31
432.255	14.4
432.46	14.33
432.665	14.27
432.87	14.24
433.076	14.27
433.281	14.36
433.486	14.3
433.691	14.03
433.896	13.82
434.101	13.59
434.306	13.68
434.511	13.62
434.716	13.72
434.921	13.69
435.126	13.48
435.331	13.59
435.535	13.47
435.74	13.58
435.945	13.83
436.15	14.05
436.355	14.08
436.56	13.99
436.765	13.9
436.97	13.73
437.174	13.85
437.379	13.95
437.584	13.87
437.789	13.77
437.993	13.74
438.198	13.79
438.403	13.96
438.608	14.12
438.812	13.92
439.017	14.01
439.222	13.99
439.426	13.92
439.631	14.01
439.836	13.88
440.04	13.95
440.245	13.91
440.45	13.78
440.654	13.6
440.859	13.57
441.063	13.68
441.268	13.7
441.472	13.79
441.677	13.86
441.881	13.65
442.086	13.75
442.29	13.77
442.495	13.79
442.699	13.8
442.904	13.82
443.108	13.62
443.312	13.59
443.517	13.45
443.721	13.24
443.925	13.15
444.13	13.37
444.334	13.24
444.538	13.11
444.743	13.09
444.947	13.08
445.151	13.09
445.356	13.19
445.56	13.32
445.764	13.35
445.968	13.43
446.173	13.39
446.377	13.38
446.581	13.4
446.785	13.47
446.989	13.5
447.193	13.48
447.398	13.46
447.602	13.43
447.806	13.33
448.01	13.38
448.214	13.57
448.418	13.65
448.622	13.62
448.826	13.66
449.03	13.69
449.234	13.72
449.438	13.78
449.642	13.77
449.846	13.74
450.05	13.87
450.254	13.73
450.458	13.77
450.662	13.65
450.866	13.57
451.069	13.44
451.273	13.44
451.477	13.33
451.681	13.26
451.885	13.2
452.089	13.31
452.292	13.27
452.496	13.44
452.7	13.22
452.904	13.34
453.107	13.52
453.311	13.66
453.515	13.58
453.719	13.44
453.922	13.56
454.126	13.62
454.33	13.61
454.533	13.45
454.737	13.38
454.94	13.47
455.144	13.53
455.348	13.56
455.551	13.57
455.755	13.56
455.958	13.7
456.162	13.64
456.365	13.72
456.569	13.59
456.772	13.66
456.976	13.54
457.179	13.53
457.383	13.41
457.586	13.42
457.79	13.36
457.993	13.44
458.196	13.4
458.4	13.45
458.603	13.41
458.807	13.55
459.01	13.62
459.213	13.61
459.417	13.4
459.62	13.4
459.823	13.28
460.026	13.24
460.23	13.3
460.433	13.39
460.636	13.39
460.839	13.49
461.042	13.44
461.246	13.45
461.449	13.56
461.652	13.77
461.855	13.72
462.058	13.71
462.261	13.69
462.464	13.59
462.668	13.63
462.871	13.56
463.074	13.49
463.277	13.24
463.48	13.16
463.683	13.16
463.886	13.17
464.089	13.22
464.292	13.27
464.495	13.36
464.698	13.23
464.901	13.12
465.104	13.07
465.306	13.12
465.509	13.33
465.712	13.4
465.915	13.19
466.118	13.09
466.321	13.05
466.524	13.14
466.726	13.24
466.929	13.36
467.132	13.41
467.335	13.37
467.538	13.24
467.74	13.2
467.943	13.34
468.146	13.56
468.348	13.48
468.551	13.63
468.754	13.55
468.956	13.39
469.159	13.46
469.362	13.42
469.564	13.44
469.767	13.5
469.969	13.51
470.172	13.27
470.375	13.15
470.577	13.26
470.78	13.13
470.982	13.11
471.185	13.29
471.387	13.42
471.59	13.38
471.792	13.51
471.995	13.54
472.197	13.6
472.399	13.6
472.602	13.54
472.804	13.62
473.007	13.61
473.209	13.76
473.411	13.63
473.614	13.52
473.816	13.65
474.018	13.74
474.22	13.63
474.423	13.68
474.625	13.73
474.827	13.94
475.03	14.13
475.232	14.1
475.434	13.93
475.636	13.93
475.838	13.82
476.04	13.7
476.243	13.46
476.445	13.49
476.647	13.58
476.849	13.39
477.051	13.31
477.253	13.17
477.455	13.27
477.657	13.33
477.859	13.44
478.061	13.4
478.263	13.43
478.465	13.54
478.667	13.6
478.869	13.44
479.071	13.66
479.273	13.72
479.475	13.64
479.677	13.52
479.879	13.4
480.081	13.44
480.283	13.49
480.485	13.43
480.686	13.36
480.888	13.27
481.09	13.3
481.292	13.24
481.494	13.16
481.695	13.1
481.897	13.08
482.099	13.15
482.301	13.09
482.502	13.08
482.704	13.1
482.906	13.05
483.107	13.05
483.309	13.02
483.511	13.05
483.712	13.06
483.914	13.03
484.115	13
484.317	12.98
484.519	12.94
484.72	12.93
484.922	12.89
485.123	12.96
485.325	12.94
485.526	12.94
485.728	12.89
485.929	12.84
486.131	12.89
486.332	12.96
486.534	12.97
486.735	13.01
486.936	12.99
487.138	12.97
487.339	12.92
487.541	13.01
487.742	12.99
487.943	12.99
488.144	12.99
488.346	12.94
488.547	12.95
488.748	12.97
488.95	12.93
489.151	12.92
489.352	13.04
489.553	13.02
489.755	12.96
489.956	13.02
490.157	13.1
490.358	13.11
490.559	13.24
490.76	13.14
490.961	13.1
491.163	13.16
491.364	13.25
491.565	13.14
491.766	13.16
491.967	13.21
492.168	13.15
492.369	13.13
492.57	13.17
492.771	13.19
492.972	13.28
493.173	13.35
493.374	13.33
493.575	13.34
493.776	13.42
493.976	13.51
494.177	13.53
494.378	13.67
494.579	13.58
494.78	13.7
494.981	13.69
495.182	13.62
495.382	13.61
495.583	13.55
495.784	13.48
495.985	13.49
496.185	13.37
496.386	13.38
496.587	13.45
496.788	13.49
496.988	13.45
497.189	13.39
497.39	13.43
497.59	13.5
497.791	13.7
497.992	13.78
498.192	13.84
498.393	14.03
498.593	14.12
498.794	14.02
498.994	14.22
499.195	14.21
499.395	14.29
499.596	14.36
499.796	14.23
499.997	14.14
500.197	14.26
500.398	14.36
500.598	14.26
500.799	14.26
500.999	14.26
501.199	14.09
501.4	14.24
501.6	14.21
501.801	14.27
502.001	14.38
502.201	14.54
502.402	14.36
502.602	14.22
502.802	14.25
503.002	14.11
503.203	14.33
503.403	14.44
503.603	14.46
503.803	14.38
504.003	14.34
504.204	14.46
504.404	14.2
504.604	14.22
504.804	14.28
505.004	14.31
505.204	14.4
505.404	14.35
505.604	14.43
505.804	14.41
506.005	14.52
506.205	14.57
506.405	14.52
506.605	14.79
506.805	14.82
507.005	14.96
507.204	15.07
507.404	15.2
507.604	15.19
507.804	15.16
508.004	15.18
508.204	15.22
508.404	15.41
508.604	15.48
508.804	15.57
509.003	15.72
509.203	15.71
509.403	15.81
509.603	15.78
509.803	15.95
510.002	15.95
510.202	15.93
510.402	15.93
510.602	15.94
510.801	15.97
511.001	15.89
511.201	15.91
511.4	15.91
511.6	15.89
511.8	15.92
511.999	15.92
512.199	16
512.398	16.09
512.598	16.32
512.797	16.35
512.997	16.45
513.197	16.6
513.396	16.72
513.596	16.88
513.795	16.97
513.994	17.02
514.194	17.08
514.393	17.19
514.593	17.22
514.792	17.32
514.992	17.27
515.191	17.23
515.39	17.28
515.59	17.23
515.789	17.25
515.988	17.34
516.188	17.34
516.387	17.41
516.586	17.42
516.786	17.61
516.985	17.58
517.184	17.67
517.383	17.92
517.582	18.04
517.782	18.16
517.981	18.1
518.18	18.04
518.379	18.25
518.578	18.27
518.777	18.43
518.976	18.39
519.176	18.51
519.375	18.63
519.574	18.46
519.773	18.44
519.972	18.4
520.171	18.54
520.37	18.67
520.569	18.67
520.768	18.67
520.967	18.67
521.166	18.71
521.365	18.69
521.564	18.75
521.762	18.95
521.961	19.1
522.16	19.24
522.359	19.22
522.558	19.34
522.757	19.42
522.956	19.6
523.154	19.58
523.353	19.88
523.552	19.95
523.751	20.1
523.949	20.14
524.148	20.17
524.347	20.24
524.546	20.35
524.744	20.27
524.943	20.37
525.142	20.36
525.34	20.57
525.539	20.52
525.737	20.61
525.936	20.54
526.135	20.59
526.333	20.63
526.532	20.66
526.73	20.79
526.929	20.92
527.127	20.95
527.326	20.98
527.524	21.02
527.723	21.06
527.921	21.1
528.12	21.2
528.318	21.29
528.516	21.34
528.715	21.35
528.913	21.36
529.112	21.39
529.31	21.38
529.508	21.41
529.707	21.41
529.905	21.4
530.103	21.42
530.301	21.38
530.5	21.36
530.698	21.4
530.896	21.51
531.094	21.54
531.293	21.7
531.491	21.86
531.689	21.97
531.887	22.07
532.085	22.26
532.283	22.33
532.481	22.51
532.68	22.63
532.878	22.64
533.076	22.65
533.274	22.69
533.472	22.7
533.67	22.62
533.868	22.68
534.066	22.74
534.264	22.72
534.462	22.75
534.66	22.8
534.858	22.85
535.056	22.91
535.253	23.02
535.451	23.13
535.649	23.16
535.847	23.39
536.045	23.34
536.243	23.43
536.441	23.58
536.638	23.66
536.836	23.78
537.034	23.81
537.232	23.86
537.43	23.89
537.627	23.97
537.825	24.02
538.023	24.02
538.22	24.31
538.418	24.31
538.616	24.44
538.813	24.48
539.011	24.52
539.209	24.48
539.406	24.65
539.604	24.78
539.801	24.88
539.999	24.94
540.196	25.12
540.394	25.11
540.591	25.15
540.789	25.13
540.986	25.15
541.184	25.09
541.381	25.2
541.579	25.19
541.776	25.18
541.974	25.15
542.171	25.22
542.368	25.15
542.566	25.14
542.763	25.2
542.96	25.16
543.158	25.29
543.355	25.43
543.552	25.5
543.75	25.65
543.947	25.56
544.144	25.54
544.341	25.57
544.539	25.67
544.736	25.82
544.933	25.8
545.13	26
545.327	25.98
545.524	25.93
545.722	26.07
545.919	25.98
546.116	26.3
546.313	26.48
546.51	26.52
546.707	26.48
546.904	26.5
547.101	26.67
547.298	26.73
547.495	26.78
547.692	26.71
547.889	26.65
548.086	26.88
548.283	26.85
548.48	26.96
548.677	26.97
548.874	27.11
549.07	27.23
549.267	27.18
549.464	27.15
549.661	27.31
549.858	27.61
550.055	27.7
550.251	27.56
550.448	27.53
550.645	27.6
550.842	27.66
551.038	27.67
551.235	27.67
551.432	27.71
551.628	27.88
551.825	28.05
552.022	28.12
552.218	28.1
552.415	28.18
552.612	28.33
552.808	28.41
553.005	28.47
553.201	28.62
553.398	28.62
553.594	28.78
553.791	28.88
553.987	28.69
554.184	28.86
554.38	28.93
554.577	29.01
554.773	29.1
554.97	29.15
555.166	29.43
555.362	29.58
555.559	29.63
555.755	29.8
555.952	29.73
556.148	30.02
556.344	29.83
556.541	29.96
556.737	30.06
556.933	30.24
557.129	30.01
557.326	30.02
557.522	30.07
557.718	30.15
557.914	30.01
558.11	30.1
558.307	29.97
558.503	30.23
558.699	30.27
558.895	30.44
559.091	30.36
559.287	30.53
559.483	30.47
559.679	30.46
559.876	30.54
560.072	30.68
560.268	30.65
560.464	30.67
560.66	30.68
560.856	30.82
561.052	30.85
561.247	31.03
561.443	31.25
561.639	31.25
561.835	31.3
562.031	31.24
562.227	31.41
562.423	31.44
562.619	31.58
562.815	31.65
563.01	31.87
563.206	31.77
563.402	31.88
563.598	31.95
563.793	32.07
563.989	32.04
564.185	32.23
564.381	32.36
564.576	32.6
564.772	32.75
564.968	32.72
565.163	32.63
565.359	32.59
565.555	32.55
565.75	32.51
565.946	32.59
566.141	32.71
566.337	32.71
566.532	32.7
566.728	32.79
566.923	32.81
567.119	32.94
567.314	32.95
567.51	33.15
567.705	33.2
567.901	33.35
568.096	33.57
568.292	33.69
568.487	33.94
568.682	34.02
568.878	34.04
569.073	34.03
569.268	34.05
569.464	34.16
569.659	34.32
569.854	34.29
570.05	34.27
570.245	34.18
570.44	34.24
570.635	34.38
570.831	34.26
571.026	34.35
571.221	34.42
571.416	34.33
571.611	34.38
571.806	34.47
572.002	34.48
572.197	34.57
572.392	34.66
572.587	34.67
572.782	34.58
572.977	34.82
573.172	34.93
573.367	35.03
573.562	35.36
573.757	35.39
573.952	35.51
574.147	35.88
574.342	36.13
574.537	36.22
574.732	36.39
574.927	36.41
575.121	36.38
575.316	36.13
575.511	36.11
575.706	35.99
575.901	36.05
576.096	36.09
576.29	36.02
576.485	35.87
576.68	35.73
576.875	35.67
577.069	35.83
577.264	35.6
577.459	35.92
577.654	36
577.848	36.17
578.043	36.36
578.238	36.14
578.432	36.13
578.627	36.32
578.821	36.56
579.016	36.67
579.21	36.6
579.405	36.97
579.6	36.83
579.794	36.72
579.989	36.46
580.183	36.55
580.378	36.81
580.572	36.93
580.766	36.94
580.961	36.99
581.155	37.09
581.35	37.08
581.544	37.15
581.738	37.23
581.933	37.46
582.127	37.81
582.321	37.65
582.516	37.68
582.71	37.49
582.904	37.39
583.099	37.27
583.293	37.23
583.487	37.32
583.681	37.44
583.875	37.57
584.07	37.73
584.264	37.68
584.458	37.74
584.652	37.65
584.846	37.82
585.04	37.96
585.234	38.07
585.428	37.96
585.623	38
585.817	37.66
586.011	37.66
586.205	37.77
586.399	37.87
586.593	37.95
586.787	38.09
586.981	37.91
587.174	37.86
587.368	37.72
587.562	37.86
587.756	37.98
587.95	38.33
588.144	38.29
588.338	38.31
588.532	38.59
588.725	38.6
588.919	38.65
589.113	38.77
589.307	38.76
589.501	38.99
589.694	39.14
589.888	39.2
590.082	39.13
590.275	39.34
590.469	39.41
590.663	38.98
590.856	39.11
591.05	38.92
591.244	39.07
591.437	39.21
591.631	39.06
591.824	38.88
592.018	39.03
592.212	39.07
592.405	38.86
592.599	38.74
592.792	39.03
592.986	39.23
593.179	39.52
593.372	39.36
593.566	39.46
593.759	39.81
593.953	40.09
594.146	39.88
594.339	40.03
594.533	40.51
594.726	40.54
594.92	40.53
595.113	40.41
595.306	40.07
595.499	40.3
595.693	40.42
595.886	40.15
596.079	40.06
596.272	39.99
596.466	39.82
596.659	39.54
596.852	39.57
597.045	39.65
597.238	39.58
597.431	39.83
597.624	39.83
597.818	39.76
598.011	40
598.204	39.98
598.397	40.08
598.59	40.09
598.783	40.19
598.976	40.12
599.169	40.02
599.362	40.07
599.555	40.31
599.748	40.17
599.941	40.1
600.134	39.97
600.326	40.21
600.519	40.41
600.712	40.67
600.905	40.82
601.098	41
601.291	41.13
601.483	41.19
601.676	41.08
601.869	41.22
602.062	41.34
602.255	41.37
602.447	41.55
602.64	41.58
602.833	41.72
603.025	41.51
603.218	41.61
603.411	41.43
603.603	41.25
603.796	41.15
603.989	41.27
604.181	41.07
604.374	41.34
604.566	41.19
604.759	41.07
604.951	40.84
605.144	41.01
605.336	40.92
605.529	40.92
605.721	41.13
605.914	41.18
606.106	41.16
606.299	41.27
606.491	41.06
606.683	41
606.876	41.06
607.068	41.27
607.26	41.27
607.453	41.57
607.645	41.78
607.837	41.57
608.03	41.75
608.222	41.63
608.414	41.85
608.606	41.91
608.799	41.91
608.991	42.03
609.183	42.04
609.375	42.06
609.567	41.69
609.759	41.66
609.952	41.9
610.144	41.8
610.336	42.03
610.528	41.96
610.72	41.83
610.912	42.06
611.104	42.1
611.296	42.18
611.488	42.21
611.68	42.44
611.872	42.37
612.064	42.55
612.256	42.62
612.448	42.59
612.64	42.57
612.832	42.7
613.023	42.53
613.215	42.39
613.407	42.37
613.599	42.36
613.791	42.01
613.983	42.11
614.174	41.9
614.366	41.77
614.558	41.71
614.75	41.46
614.941	41.58
615.133	41.61
615.325	41.69
615.516	41.53
615.708	41.47
615.9	41.64
616.091	41.77
616.283	41.96
616.475	41.94
616.666	41.91
616.858	42.24
617.049	42.11
617.241	42.08
617.432	42.08
617.624	42.27
617.815	42.26
618.007	42.25
618.198	42.27
618.39	42.26
618.581	42.52
618.773	42.35
618.964	42.34
619.155	42.46
619.347	42.7
619.538	42.7
619.729	43.03
619.921	43.2
620.112	43.05
620.303	43.08
620.494	42.93
620.686	42.9
620.877	43.35
621.068	43.3
621.259	43.08
621.451	42.8
621.642	42.75
621.833	42.59
622.024	42.56
622.215	42.84
622.406	42.99
622.597	43.2
622.788	43.2
622.98	43.09
623.171	43.24
623.362	43.62
623.553	43.93
623.744	43.81
623.935	43.77
624.126	43.83
624.317	43.86
624.508	43.77
624.698	43.68
624.889	43.86
625.08	43.84
625.271	43.92
625.462	43.84
625.653	43.84
625.844	43.98
626.034	43.77
626.225	43.8
626.416	43.97
626.607	43.81
626.798	44.09
626.988	43.99
627.179	43.85
627.37	43.62
627.56	43.77
627.751	43.66
627.942	43.86
628.132	43.83
628.323	43.6
628.514	43.61
628.704	43.81
628.895	43.42
629.085	43.37
629.276	43.5
629.466	43.64
629.657	43.49
629.847	43.52
630.038	43.36
630.228	43.47
630.419	43.71
630.609	43.51
630.8	43.28
630.99	43.46
631.181	43.48
631.371	43.49
631.561	43.62
631.752	43.8
631.942	43.86
632.132	43.81
632.323	43.9
632.513	43.99
632.703	44.34
632.893	44.48
633.084	44.33
633.274	44.27
633.464	44.14
633.654	43.96
633.844	43.91
634.034	43.84
634.225	43.99
634.415	43.95
634.605	43.96
634.795	43.96
634.985	44.22
635.175	44.22
635.365	44.32
635.555	44.61
635.745	44.79
635.935	44.66
636.125	44.71
636.315	44.78
636.505	44.67
636.695	44.77
636.885	44.76
637.075	44.56
637.265	44.64
637.455	44.46
637.644	44.39
637.834	44.32
638.024	44.35
638.214	44.25
638.404	44.25
638.593	44.46
638.783	44.31
638.973	44.36
639.163	43.95
639.352	44.09
639.542	44.78
639.732	44.57
639.921	44.87
640.111	44.99
640.301	45.37
640.49	45.6
640.68	45.69
640.87	45.67
641.059	45.51
641.249	45.8
641.438	45.9
641.628	45.3
641.817	45.46
642.007	45.37
642.196	45.34
642.386	45.44
642.575	45.37
642.764	45.12
642.954	45.13
643.143	45.26
643.333	45.59
643.522	45.47
643.711	45.65
643.901	45.78
644.09	45.74
644.279	45.93
644.469	45.7
644.658	45.45
644.847	45.75
645.036	45.99
645.226	45.7
645.415	45.6
645.604	45.47
645.793	45.54
645.982	45.4
646.171	45.33
646.361	45.66
646.55	45.7
646.739	46.13
646.928	46.21
647.117	46.11
647.306	46.59
647.495	46.62
647.684	46.87
647.873	47.12
648.062	47.23
648.251	47.31
648.44	46.92
648.629	46.67
648.818	46.3
649.007	46
649.196	46.12
649.384	45.88
649.573	45.51
649.762	45.56
649.951	45.42
650.14	45.2
650.328	45.09
650.517	45.28
650.706	45.55
650.895	45.81
651.083	46.1
651.272	46.13
651.461	46.56
651.65	47.39
651.838	47.53
652.027	47.41
652.216	47.48
652.404	47.62
652.593	47.29
652.781	47.21
652.97	47.08
653.158	47.12
653.347	47.32
653.535	46.78
653.724	46.21
653.912	45.95
654.101	46.1
654.289	46.17
654.478	46
654.666	46.36
654.855	46.23
655.043	45.83
655.231	45.43
655.42	45.12
655.608	45.25
655.796	45.41
655.985	45.66
656.173	45.74
656.361	45.65
656.55	45.88
656.738	45.77
656.926	46.01
657.114	46.63
657.302	46.87
657.491	46.51
657.679	46.6
657.867	46.45
658.055	46.35
658.243	46.04
658.431	46.21
658.619	46.15
658.807	46.04
658.996	46.11
659.184	45.72
659.372	45.84
659.56	46.17
659.748	45.93
659.936	46.19
660.124	46.22
660.311	46.4
660.499	46.61
660.687	46.72
660.875	46.87
661.063	46.64
661.251	47.06
661.439	47.03
661.627	47.3
661.814	47.49
662.002	47.06
662.19	46.85
662.378	46.66
662.565	46.49
662.753	46.45
662.941	46.43
663.129	46.77
663.316	46.73
663.504	46.8
663.692	46.79
663.879	47.24
664.067	47.66
664.254	47.81
664.442	47.82
664.63	47.98
664.817	47.93
665.005	47.79
665.192	47.74
665.38	47.41
665.567	47.32
665.755	47.3
665.942	47.09
666.13	47.09
666.317	47.24
666.504	47.34
666.692	47.46
666.879	47.43
667.067	47.21
667.254	46.93
667.441	47.07
667.629	46.76
667.816	46.57
668.003	46.21
668.19	46.25
668.378	46.09
668.565	45.88
668.752	45.5
668.939	45.57
669.127	46.09
669.314	46.17
669.501	46.24
669.688	46.5
669.875	46.32
670.062	46.58
670.249	46.8
670.436	46.96
670.623	47.32
670.81	47.57
670.997	47.36
671.184	47.32
671.371	47.79
671.558	47.85
671.745	48.14
671.932	48.12
672.119	47.75
672.306	47.16
672.493	47
672.68	46.92
672.867	47.27
673.054	47.35
673.24	47.4
673.427	47.28
673.614	47.38
673.801	47.56
673.988	47.94
674.174	48.14
674.361	48.24
674.548	48.09
674.734	48.1
674.921	47.56
675.108	48.19
675.294	47.96
675.481	48.17
675.668	48.41
675.854	47.95
676.041	47.86
676.227	48.26
676.414	48.52
676.601	49.07
676.787	49.1
676.974	49.2
677.16	48.53
677.347	48.35
677.533	47.9
677.719	47.52
677.906	47.07
678.092	47.26
678.279	46.76
678.465	46.69
678.651	46.48
678.838	46.55
679.024	46.6
679.21	46.89
679.397	47.4
679.583	47.5
679.769	47.48
679.955	47.91
680.142	47.7
680.328	47.96
680.514	47.87
680.7	47.82
680.886	48.08
681.073	48.2
681.259	47.95
681.445	47.95
681.631	48.06
681.817	48.31
682.003	48.44
682.189	48.39
682.375	48.44
682.561	48.63
682.747	49.14
682.933	48.75
683.119	48.86
683.305	49
683.491	48.8
683.677	48.64
683.863	48.64
684.049	48.45
684.235	48.67
684.42	48.83
684.606	48.66
684.792	48.33
684.978	48.55
685.164	48.62
685.349	49.01
685.535	49.22
685.721	49.4
685.907	49.2
686.092	49.22
686.278	49.1
686.464	49.11
686.649	49.46
686.835	49.3
687.021	49.36
687.206	49.27
687.392	48.89
687.577	48.68
687.763	48.52
687.948	48.58
688.134	48.81
688.319	49.15
688.505	49.06
688.69	49.31
688.876	49.19
689.061	49.15
689.247	48.82
689.432	49.24
689.618	49.25
689.803	49.51
689.988	49.51
690.174	49.45
690.359	49.22
690.544	48.8
690.73	48.85
690.915	49.1
691.1	49.3
691.285	49.38
691.471	49.67
691.656	49.73
691.841	49.34
692.026	49.43
692.211	49.59
692.396	49.91
692.582	50.61
692.767	50.54
692.952	50.26
693.137	50.15
693.322	50.35
693.507	50.2
693.692	50.44
693.877	50.93
694.062	50.65
694.247	50.22
694.432	49.95
694.617	49.9
694.802	49.8
694.987	50.43
695.172	50.33
695.357	50.3
695.541	49.98
695.726	50.05
695.911	50.43
696.096	50.74
696.281	51.42
696.466	51.41
696.65	51.36
696.835	51.22
697.02	50.98
697.204	50.84
697.389	50.84
697.574	50.49
697.759	50.31
697.943	50.07
698.128	50.05
698.312	49.9
698.497	49.35
698.682	49.28
698.866	49.26
699.051	49.4
699.235	49.62
699.42	49.67
699.604	49.8
699.789	49.76
699.973	49.62
700.158	49.95
700.342	50.11
700.527	50.84
700.711	51.18
700.895	51.31
701.08	51.06
701.264	51.09
701.448	51.16
701.633	51.1
701.817	51.06
702.001	51.15
702.186	50.58
702.37	50.3
702.554	49.94
702.738	49.75
702.923	49.69
703.107	50.08
703.291	50.12
703.475	50.01
703.659	50.89
703.843	51.22
704.027	51.38
704.212	51.87
704.396	51.15
704.58	51.23
704.764	51.07
704.948	50.92
705.132	50.77
705.316	50.67
705.5	51.14
705.684	51.26
705.868	51.33
706.052	50.99
706.235	50.77
706.419	51.52
706.603	51.75
706.787	51.67
706.971	51.96
707.155	51.65
707.339	51.67
707.522	51.15
707.706	50.71
707.89	50.83
708.074	51.13
708.257	51.24
708.441	51.27
708.625	51.03
708.808	51.35
708.992	51.25
709.176	51.79
709.359	52.02
709.543	51.95
709.727	51.52
709.91	50.96
710.094	50.56
710.277	50.36
710.461	49.84
710.644	50.2
710.828	49.92
711.011	49.97
711.195	49.58
711.378	50.12
711.562	50.55
711.745	50.71
711.928	51.07
712.112	50.89
712.295	51.29
712.478	52.25
712.662	52.22
712.845	52.3
713.028	52.4
713.212	52.35
713.395	51.68
713.578	51.37
713.761	51.09
713.945	50.61
714.128	51.14
714.311	50.83
714.494	50.44
714.677	50.52
714.86	50.32
715.043	50.12
715.227	50.12
715.41	49.86
715.593	49.73
715.776	49.95
715.959	49.86
716.142	50.54
716.325	50.88
716.508	50.71
716.691	50.63
716.874	50.99
717.057	51.16
717.239	50.77
717.422	50.86
717.605	51.2
717.788	51.14
717.971	51.9
718.154	51.16
718.337	50.8
718.519	51.25
718.702	51.87
718.885	51.95
719.068	51.99
719.25	52.76
719.433	52.85
719.616	53.47
719.798	53.69
719.981	53.9
720.164	53.43
720.346	53.38
720.529	53.42
720.712	52.58
720.894	51.98
721.077	51.86
721.259	51.55
721.442	52.19
721.624	51.61
721.807	51.44
721.989	50.68
722.172	51.23
722.354	50.96
722.537	50.9
722.719	50.92
722.901	51.03
723.084	51.36
723.266	51.97
723.448	52.04
723.631	51.37
723.813	51.17
723.995	51.52
724.178	51.75
724.36	51.97
724.542	51.18
724.724	51.8
724.907	52.67
725.089	52.2
725.271	52.7
725.453	52.05
725.635	53
725.817	53.94
725.999	54.29
726.181	54.53
726.364	54.71
726.546	55.42
726.728	55.2
726.91	54.57
727.092	54.65
727.274	53.29
727.456	53.8
727.638	52.96
727.819	52.51
728.001	52.43
728.183	52.26
728.365	51.3
728.547	51.59
728.729	51.51
728.911	51.62
729.093	51.46
729.274	51.25
729.456	50.71
729.638	51.24
729.82	51.35
730.001	50.56
730.183	50.75
730.365	51.74
730.546	51.44
730.728	50.76
730.91	50.6
731.091	50.77
731.273	50.98
731.455	51.03
731.636	51.34
731.818	51.64
731.999	52.16
732.181	52.18
732.362	52.28
732.544	52.47
732.725	53.02
732.907	53.15
733.088	53.2
733.27	54.25
733.451	54.21
733.633	53.91
733.814	53.42
733.995	53.59
734.177	52.92
734.358	52.43
734.539	52.66
734.721	51.63
734.902	51.41
735.083	51.12
735.264	51.04
735.446	51.38
735.627	52.07
735.808	51.32
735.989	51.83
736.17	52.75
736.351	52.87
736.533	52.54
736.714	52.71
736.895	53.11
737.076	53.17
737.257	52.3
737.438	52.02
737.619	51.71
737.8	53.76
737.981	53.73
738.162	53.24
738.343	53.89
738.524	53.37
738.705	54.07
738.886	53.6
739.067	53.84
739.247	54.3
739.428	55.16
739.609	53.99
739.79	53.53
739.971	52.38
740.151	52.21
740.332	52.24
740.513	51.74
740.694	51.44
740.874	51.48
741.055	51.82
741.236	52.15
741.417	51.68
741.597	52.38
741.778	51.74
741.958	52.48
742.139	52.44
742.32	52.98
742.5	54.02
742.681	54.99
742.861	54.71
743.042	54.33
743.222	53.88
743.403	53.6
743.583	53.62
743.764	53.68
743.944	53.38
744.124	53.57
744.305	52.6
744.485	52.13
744.666	50.8
744.846	51.42
745.026	51.94
745.207	51.63
745.387	51.63
745.567	52.02
745.747	52.11
745.928	51.94
746.108	52.46
746.288	52.25
746.468	52.6
746.648	54.13
746.829	54.89
747.009	54.13
747.189	54.79
747.369	55.65
747.549	55.03
747.729	54.52
747.909	54.26
748.089	54.2
748.269	54.91
748.449	55.11
748.629	54.53
748.809	53.78
748.989	54.92
749.169	55.77
749.349	54.98
749.529	55.49
749.709	54.58
749.889	55.62
750.068	54.23
750.248	54.33
750.428	53.94
750.608	53.4
750.788	52.86
750.967	51.47
751.147	50.49
751.327	50.8
751.507	49.79
751.686	50.41
751.866	50.19
752.046	51.02
752.225	51.2
752.405	52.3
752.585	53.29
752.764	53.28
752.944	54.02
753.123	54.48
753.303	55.07
753.482	55.95
753.662	57.62
753.841	57.73
754.021	58.24
754.2	57.89
754.38	57.55
754.559	57.01
754.739	57.41
754.918	57.27
755.097	56.7
755.277	55.71
755.456	55.91
755.635	55.09
755.815	54.82
755.994	54.37
756.173	54.24
756.352	53.01
756.532	53.09
756.711	53.53
756.89	52.63
757.069	53.85
757.248	53.45
757.427	53.59
757.607	53.85
757.786	54.23
757.965	54.02
758.144	53.82
758.323	55.26
758.502	55.15
758.681	54.95
758.86	55.78
759.039	55.06
759.218	55.71
759.397	55.88
759.576	55.07
759.755	54.33
759.934	54.82
760.113	54.63
760.291	53.42
760.47	54.16
760.649	54.4
760.828	55.27
761.007	54.1
761.186	53.81
761.364	52.5
761.543	52.19
761.722	52.05
761.901	51.46
762.079	51.79
762.258	52.82
762.437	52.45
762.615	51.96
762.794	51.4
762.972	51.55
763.151	51.39
763.33	51.9
763.508	53.01
763.687	53.13
763.865	53.41
764.044	53.32
764.222	53
764.401	52.8
764.579	52.6
764.758	52.43
764.936	52.99
765.114	53.44
765.293	53.11
765.471	52.79
765.65	52.88
765.828	53.21
766.006	53.57
766.184	53.71
766.363	54.03
766.541	53.96
766.719	54.62
766.898	55.1
767.076	54.44
767.254	55.1
767.432	55.16
767.61	55.4
767.788	55.07
767.967	54.27
768.145	54.14
768.323	53.95
768.501	55.33
768.679	54.67
768.857	54.1
769.035	54.81
769.213	55.07
769.391	54.98
769.569	55.66
769.747	55.44
769.925	55.63
770.103	54.89
770.281	54.72
770.459	53.35
770.636	53.6
770.814	53.21
770.992	53.45
771.17	53.43
771.348	53.4
771.525	52.96
771.703	53.35
771.881	54.72
772.059	54.4
772.236	53.98
772.414	55.26
772.592	54.64
772.769	54.89
772.947	54.08
773.125	54.33
773.302	54.12
773.48	54.36
773.657	55.84
773.835	53.71
774.013	55.25
774.19	56.52
774.368	56
774.545	56.44
774.723	55.25
774.9	55.93
775.077	56.71
775.255	56.5
775.432	56.31
775.61	54.77
775.787	55.75
775.964	55.46
776.142	55.76
776.319	55.53
776.496	55.7
776.674	55.87
776.851	56.2
777.028	54.38
777.205	54.78
777.382	53.91
777.56	52.79
777.737	52.89
777.914	52.9
778.091	52.82
778.268	54.05
778.445	53.34
778.622	54.55
778.8	53.75
778.977	53.83
779.154	57.79
779.331	58.35
779.508	59.84
779.685	60.41
779.862	59.61
780.038	57.96
780.215	56.84
780.392	58.52
780.569	57.73
780.746	59.46
780.923	60.13
781.1	57.04
781.277	57.38
781.453	56.48
781.63	56.07
781.807	56.83
781.984	57.91
782.16	57.94
782.337	56.43
782.514	57.42
782.691	57.48
782.867	55.77
783.044	54.11
783.221	53.49
783.397	54.76
783.574	54.99
783.75	56.67
783.927	57.5
784.103	57.89
784.28	58.73
784.456	59.67
784.633	59.72
784.809	61.41
784.986	60.99
785.162	61.57
785.339	60.97
785.515	59.8
785.692	57.02
785.868	55.8
786.044	55.67
786.221	57.17
786.397	53.82
786.573	53.35
786.749	53.09
786.926	54.52
787.102	54.47
787.278	55.11
787.454	56.15
787.631	56.33
787.807	56.35
787.983	56.3
788.159	55.16
788.335	56.9
788.511	55.72
788.687	55.25
788.863	55.24
789.039	54.96
789.216	53.19
789.392	54.85
789.568	55.4
789.744	55.32
789.919	56.71
790.095	56.5
790.271	57.93
790.447	57.74
790.623	58.1
790.799	58.16
790.975	57.28
791.151	59.95
791.327	60.54
791.502	61.36
791.678	61.49
791.854	60.22
792.03	60.78
792.205	60.5
792.381	60.99
792.557	61.46
792.733	63.73
792.908	64.14
793.084	60.55
793.259	58.59
793.435	57.32
793.611	56.4
793.786	55.64
793.962	55
794.137	54.41
794.313	52.54
794.488	50.87
794.664	48.61
794.839	48.49
795.015	49.72
795.19	49.28
795.366	51.7
795.541	52.47
795.716	53.03
795.892	53.56
796.067	52.97
796.242	54.08
796.418	54.83
796.593	56.19
796.768	56.25
796.944	56.83
797.119	57.05
797.294	55.53
797.469	55.75
797.644	56.41
797.82	55.47
797.995	53.96
798.17	53.85
798.345	54.44
798.52	53.76
798.695	54.8
798.87	55.18
799.045	54.79
799.22	56.32
799.395	56.48
799.57	58.09
799.745	58.03
799.92	59.87
800.095	61.76
800.27	61.71
800.445	62.57
800.62	59.97
800.795	61.55
800.97	62.77
801.145	60.09
801.319	62.7
801.494	61.56
801.669	62.42
801.844	64.19
802.018	63
802.193	64.27
802.368	62.43
802.543	63.43
802.717	62.25
802.892	63.51
803.067	64.82
803.241	61.33
803.416	62.04
803.59	61.84
803.765	60.9
803.94	61.28
804.114	58.55
804.289	58.16
804.463	59.7
804.638	58.94
804.812	58.27
804.986	57.54
805.161	56.56
805.335	54.75
805.51	54.87
805.684	54.03
805.858	53.91
806.033	53.95
806.207	53.15
806.381	52.64
806.556	51.75
806.73	49.38
806.904	49.42
807.078	50.61
807.253	50.92
807.427	49.83
807.601	51.12
807.775	51.34
807.949	54.62
808.123	56.35
808.298	56.51
808.472	58.9
808.646	59.51
808.82	60.04
808.994	62.7
809.168	66.05
809.342	67.46
809.516	65.7
809.69	65.33
809.864	64.87
810.038	65.39
810.212	66.61
810.385	65.06
810.559	65.52
810.733	66.94
810.907	64.44
811.081	61.49
811.255	63.24
811.428	63.33
811.602	63.95
811.776	63.37
811.95	61.38
812.123	61.17
812.297	61.51
812.471	61.09
812.644	57.95
812.818	59.57
812.992	57.72
813.165	56.86
813.339	55.07
813.512	54.25
813.686	53.71
813.86	55.54
814.033	53.77
814.207	53.79
814.38	54.95
814.554	56.75
814.727	56.68
814.9	59.76
815.074	57.44
815.247	58.45
815.421	58.37
815.594	58.32
815.767	57.16
815.941	61.18
816.114	61.11
816.287	60.19
816.46	59.25
816.634	59.01
816.807	59.35
816.98	57.64
817.153	60.6
817.327	60.97
817.5	60.69
817.673	61.77
817.846	60.85
818.019	60.58
818.192	62.4
818.365	60.4
818.538	58.2
818.711	56.11
818.884	60.01
819.057	57.49
819.23	56.65
819.403	55.43
819.576	53.74
819.749	52.4
819.922	53.25
820.095	49.96
820.268	51.87
820.441	53.99
820.614	54.16
820.786	51.28
820.959	51.06
821.132	50.82
821.305	50.93
821.477	51.64
821.65	51.21
821.823	50.29
821.996	50.24
822.168	49.71
822.341	49.06
822.514	49.08
822.686	49.44
822.859	49.61
823.031	49.42
823.204	49.65
823.376	49.58
823.549	49.59
823.722	49.62
823.894	50.36
824.067	50.27
824.239	50.99
824.411	51.39
824.584	51.85
824.756	52.15
824.929	52.89
825.101	52.81
825.273	52.72
825.446	53.23
825.618	53.19
825.79	53.06
825.963	53.04
826.135	51.65
826.307	51.04
826.479	50.86
826.652	51.2
826.824	50.12
826.996	50.2
827.168	50.19
827.34	49.51
827.512	50.51
827.684	49.6
827.856	50.15
828.029	51.78
828.201	52.23
828.373	52.86
828.545	52.7
828.717	53.16
828.889	53.12
829.061	53.75
829.232	54.44
829.404	53.55
829.576	54.27
829.748	54.12
829.92	53.18
830.092	53.79
830.264	52.59
830.436	52.68
830.607	53.46
830.779	54.45
830.951	54.66
831.123	53.08
831.294	53.03
831.466	53.39
831.638	52.93
831.809	52.68
831.981	51.68
832.153	52.13
832.324	52.22
832.496	53.35
832.667	54.04
832.839	53.2
833.011	53.81
833.182	53.94
833.354	55.64
833.525	58.87
833.697	60.07
833.868	59.27
834.039	59.87
834.211	58.47
834.382	56.35
834.554	57.31
834.725	57.08
834.896	57.18
835.068	58.06
835.239	56.2
835.41	55.52
835.581	54.38
835.753	54.74
835.924	53.22
836.095	54.43
836.266	54.14
836.438	52.8
836.609	52.66
836.78	53.74
836.951	53.3
837.122	53.12
837.293	52.37
837.464	52.72
837.635	53.62
837.806	55.33
837.977	56.16
838.148	59.43
838.319	59.01
838.49	59.42
838.661	60.06
838.832	58.9
839.003	58.43
839.174	59.6
839.345	60.98
839.516	62.72
839.687	64.63
839.857	63.48
840.028	63.51
840.199	62.84
840.37	63.68
840.54	65.18
840.711	63.48
840.882	68.73
841.053	66.15
841.223	66.67
841.394	60.99
841.564	64.12
841.735	65.3
841.906	65.25
842.076	61.7
842.247	64.61
842.417	60.44
842.588	63.67
842.758	62.26
842.929	65.28
843.099	65.21
843.27	72.11
843.44	68.8
843.611	67.67
843.781	66.46
843.951	69.52
844.122	68.37
844.292	72.56
844.462	74.75
844.633	74.61
844.803	72.07
844.973	72.44
845.144	69.66
845.314	65.1
845.484	60.24
845.654	61.43
845.824	63.81
845.995	67.54
846.165	67.85
846.335	65.8
846.505	63.17
846.675	72.22
846.845	77.23
847.015	74.15
847.185	79.1
847.355	83.41
847.525	87.97
847.695	90.83
847.865	89.79
848.035	86.64
848.205	81.37
848.375	86.86
848.545	72.15
848.715	68.84
848.884	75.42
849.054	76.01
849.224	78.89
849.394	77.1
849.564	79.48
849.733	77.62
849.903	81
850.073	94.18
850.243	87.08
850.412	89.31
850.582	89.1
850.752	88.39
850.921	85.63
851.091	82.99
851.26	81.54
851.43	78.08
851.599	76.91
851.769	76.32
851.939	67.74
852.108	74.05
852.278	76.87
852.447	74.67
852.616	74.14
852.786	73.13
852.955	77.92
853.125	87.19
853.294	83.27
853.463	84.09
853.633	93.5
853.802	90.73
853.971	98.62
854.141	99.89
854.31	93.67
854.479	88.15
854.648	85.15
854.818	71.77
854.987	63.56
855.156	66.55
855.325	71.1
855.494	62.91
855.663	67.03
855.832	59.25
856.001	68.25
856.171	72.44
856.34	79.22
856.509	91.32
856.678	101.45
856.847	96.58
857.016	100.26
857.185	88.69
857.353	94.83
857.522	105.01
857.691	107.21
857.86	102.58
858.029	89.68
858.198	93.55
858.367	89.94
858.535	94.95
858.704	108.19
858.873	103.93
859.042	116.1
859.21	115.23
859.379	107.78
859.548	92.23
859.717	83.49
859.885	97.92
860.054	85.04
860.222	77.33
860.391	77.24
860.56	61.43
860.728	67.36
860.897	51.81
861.065	49.85
861.234	52.82
861.402	55.45
861.571	53.27
861.739	50.65
861.908	55.23
862.076	64.21
862.244	73.15
862.413	65.18
862.581	63.49
862.749	64.25
862.918	56.76
863.086	53.19
863.254	57.16
863.423	55.76
863.591	58.41
863.759	53.27
863.927	49.85
864.096	43.68
864.264	53.4
864.432	45.18
864.6	46.52
864.768	41.05
864.936	49.31
865.104	53.46
865.272	61.28
865.44	55.85
865.608	61.86
865.776	60.68
865.944	63.39
866.112	63.38
866.28	64.61
866.448	73.54
866.616	74.38
866.784	65.21
866.952	64.31
867.12	59.93
867.288	62.91
867.455	61.03
867.623	63.83
867.791	60.54
867.959	61.89
868.127	64.75
868.294	60.07
868.462	66.25
868.63	74.12
868.797	74.29
868.965	76.57
869.133	82.26
869.3	87.08
869.468	85.59
869.636	80.92
869.803	90.28
869.971	93.22
870.138	96.03
870.306	82.92
870.473	80.85
870.641	79.39
870.808	82.02
870.975	79
871.143	77.41
871.31	74.23
871.478	81.91
871.645	66.72
871.812	69.59
871.98	69.43
872.147	78.41
872.314	75.2
872.482	75.73
872.649	73.38
872.816	63.29
872.983	58.25
873.15	59.5
873.318	61.65
873.485	72.15
873.652	67.69
873.819	79.52
873.986	86.42
874.153	79.45
874.32	76.99
874.487	80.73
874.654	92.37
874.821	102.43
874.988	104
875.155	104.06
875.322	107.61
875.489	114.17
875.656	98.83
875.823	79.61
875.99	81.29
876.157	79.58
876.324	75.81
876.49	72.68
876.657	59.63
876.824	58.08
876.991	66.98
877.157	57.53
877.324	58.09
877.491	61.19
877.658	68.33
877.824	66.1
877.991	66.79
878.157	68.47
878.324	66.1
878.491	77.66
878.657	88.37
878.824	83.82
878.99	92.57
879.157	97.23
879.323	91.92
879.49	91.36
879.656	102.45
879.823	100.48
879.989	95.8
880.156	94.11
880.322	87.33
880.488	80.04
880.655	73.04
880.821	70.14
880.987	67.57
881.154	66.62
881.32	65.78
881.486	62.7
881.652	67.26
881.819	67.46
881.985	64.51
882.151	63.69
882.317	62.77
882.483	62.91
882.649	60.53
882.816	58.85
882.982	58.66
883.148	56.83
883.314	55.34
883.48	52.53
883.646	51.98
883.812	51.66
883.978	49.94
884.144	49.58
884.31	48.34
884.476	49.63
884.642	50.14
884.807	50.28
884.973	51.69
885.139	51.62
885.305	53.97
885.471	55.15
885.637	55.84
885.802	57.31
885.968	56.54
886.134	57.65
886.3	56.28
886.465	57.18
886.631	54.91
886.797	53.5
886.962	55.81
887.128	55.09
887.293	53.87
887.459	56.65
887.625	55.93
887.79	60.89
887.956	64.43
888.121	66.56
888.287	63.79
888.452	72.05
888.618	76.42
888.783	78.15
