Data from LC_162_Reflection_3.txt Node
Date: Mon Nov 16 22:41:15 EST 2015
User: robert
Spectrometer: USB4E03001
Autoset integration time: false
Trigger mode: 4
Integration Time (sec): 1.000000E-1
Scans to average: 15
Electric dark correction enabled: true
Nonlinearity correction enabled: false
Boxcar width: 5
Stray light correction enabled: false
XAxis mode: Wavelengths
Stop averaging: false
Number of Pixels in Spectrum: 3648
>>>>>Begin Spectral Data<<<<<
177.566	659.04
177.785	-22.85
178.005	1291.6
178.225	-47.31
178.445	-175
178.665	510.62
178.885	28.01
179.105	-779.44
179.324	-1484.11
179.544	164.37
179.764	-418.16
179.984	-47.03
180.204	-48.43
180.423	-41.74
180.643	-123.09
180.863	-109.39
181.083	-111.7
181.302	-109.06
181.522	-123.76
181.742	-96.5
181.961	-200.84
182.181	-128.78
182.401	-201.97
182.621	-1094.09
182.84	-547.8
183.06	-344.75
183.279	-184.2
183.499	-178.36
183.719	-178.85
183.938	-156.64
184.158	-175.88
184.377	-113.71
184.597	-204.67
184.816	-114.92
185.036	-48.74
185.256	-24.89
185.475	-37.94
185.695	-69.71
185.914	-82.49
186.134	-240.96
186.353	-348.05
186.572	-517.47
186.792	-724.8
187.011	-303.52
187.231	-349.73
187.45	-243.96
187.67	-661.68
187.889	-2001.5
188.108	3328.69
188.328	-756.96
188.547	-206.7
188.766	-307.28
188.986	-460.93
189.205	-318.74
189.424	-251.27
189.644	-559.88
189.863	-621.42
190.082	-391.08
190.302	-769.25
190.521	-330.02
190.74	431.83
190.959	259.07
191.178	394.44
191.398	354.93
191.617	339.31
191.836	248.39
192.055	564.37
192.274	313.38
192.494	333.26
192.713	280.28
192.932	693.29
193.151	582.88
193.37	925.3
193.589	-643.98
193.808	-125.59
194.027	-168.17
194.246	-1781.84
194.465	406.95
194.685	717.25
194.904	525.53
195.123	-790.14
195.342	-536.11
195.561	-258.12
195.78	-416.49
195.999	19164.79
196.218	785.66
196.436	651.21
196.655	-2377.03
196.874	-821.29
197.093	-1302.05
197.312	-912.66
197.531	2460.84
197.75	799.16
197.969	-2949.41
198.188	-654.28
198.407	-174.18
198.625	-213.07
198.844	-196.09
199.063	-207.57
199.282	-450.51
199.501	-249.82
199.719	-133.59
199.938	-86.62
200.157	-81.56
200.376	-63.12
200.594	-74.96
200.813	-190.75
201.032	-110.66
201.251	-96.73
201.469	-80.84
201.688	-24.37
201.907	-109.41
202.125	-232.35
202.344	10936.9
202.563	2439.57
202.781	450.22
203	1224.75
203.218	1026.98
203.437	894.81
203.656	441.6
203.874	259.94
204.093	245.58
204.311	299.84
204.53	324.99
204.748	408.92
204.967	238.05
205.185	213.49
205.404	288.48
205.622	171.16
205.841	145.43
206.059	179.05
206.278	169.46
206.496	385.65
206.715	220.76
206.933	106.21
207.151	94.42
207.37	93.84
207.588	89.89
207.806	95.43
208.025	89.36
208.243	64.88
208.461	-290.13
208.68	-3971.76
208.898	217.05
209.116	242.33
209.335	365.76
209.553	357.41
209.771	4380.42
209.989	956.82
210.208	1568.63
210.426	-2900.34
210.644	1792.22
210.862	-1797.94
211.081	799
211.299	-330.36
211.517	1654.89
211.735	-289.46
211.953	-101157.14
212.171	-1416.27
212.39	-4622.52
212.608	-12736.96
212.826	591.39
213.044	343.36
213.262	271.22
213.48	1296.41
213.698	229.39
213.916	335.67
214.134	277.13
214.352	615.17
214.57	387.51
214.788	461.71
215.006	390.93
215.224	297.93
215.442	247.03
215.66	199.76
215.878	163.23
216.096	154.29
216.314	98.52
216.532	171.55
216.75	115.94
216.968	122.01
217.185	230.63
217.403	533.89
217.621	-1360.52
217.839	-382.67
218.057	-604.87
218.275	1206.25
218.492	327.94
218.71	616.84
218.928	199.68
219.146	211.55
219.363	164.18
219.581	132.81
219.799	114.52
220.017	122.38
220.234	101.58
220.452	90.98
220.67	93.24
220.887	111.37
221.105	118.65
221.323	63.81
221.54	90.9
221.758	86.55
221.976	126.62
222.193	100.7
222.411	73.1
222.629	95.79
222.846	119.72
223.064	132.66
223.281	125.36
223.499	118.42
223.716	135.44
223.934	104.69
224.151	102.6
224.369	81.62
224.586	86.12
224.804	89.18
225.021	88.93
225.239	64.46
225.456	71.73
225.674	62.26
225.891	53.14
226.108	71.82
226.326	64.29
226.543	63.59
226.76	62.79
226.978	57.88
227.195	65.85
227.413	53.78
227.63	51.01
227.847	41.91
228.064	37.3
228.282	32.38
228.499	26.31
228.716	24.35
228.934	23.13
229.151	23.28
229.368	22.8
229.585	20.47
229.802	22.18
230.02	21.23
230.237	21.83
230.454	22.87
230.671	26.3
230.888	26.29
231.105	26.32
231.323	26.28
231.54	27.38
231.757	23.73
231.974	23.77
232.191	20.99
232.408	26.35
232.625	20.92
232.842	18.71
233.059	19.07
233.276	19.86
233.493	23.84
233.71	23.05
233.927	24.08
234.144	31.57
234.361	26.99
234.578	27.78
234.795	20.77
235.012	24.71
235.229	26.32
235.446	26.01
235.663	26.12
235.879	27.42
236.096	23.78
236.313	24.25
236.53	20.76
236.747	25.63
236.964	28.73
237.181	36.78
237.397	37.3
237.614	37.15
237.831	35.45
238.048	30.57
238.264	33.6
238.481	27.1
238.698	27.59
238.915	24.59
239.131	24.09
239.348	22.26
239.565	20.69
239.781	20.86
239.998	19.07
240.215	16.65
240.431	20.44
240.648	15.93
240.865	21.15
241.081	19.48
241.298	19.16
241.514	19.06
241.731	18.71
241.947	17.11
242.164	16.05
242.38	15.42
242.597	16.47
242.814	15.58
243.03	15.53
243.246	15.86
243.463	15.45
243.679	16.61
243.896	15.37
244.112	15.52
244.329	17.13
244.545	17.3
244.762	16.74
244.978	17.46
245.194	16.4
245.411	16.16
245.627	15.2
245.843	15.22
246.06	14.07
246.276	14.51
246.492	13.25
246.709	12.83
246.925	12.85
247.141	12.83
247.357	11.85
247.574	12.29
247.79	12.22
248.006	11.5
248.222	11.35
248.439	11.48
248.655	11.44
248.871	11.57
249.087	11.05
249.303	9.98
249.519	11.35
249.736	12.23
249.952	10.95
250.168	11.32
250.384	13.1
250.6	13.37
250.816	11.84
251.032	11.08
251.248	10.67
251.464	10.83
251.68	11.35
251.896	11.53
252.112	10.93
252.328	13.46
252.544	14.92
252.76	13.86
252.976	12.87
253.192	14.83
253.408	15.37
253.624	18.99
253.84	18.34
254.056	21.32
254.272	21.04
254.487	23.15
254.703	20.32
254.919	18.48
255.135	18.89
255.351	20.77
255.567	19.6
255.782	20.74
255.998	17.56
256.214	19.66
256.43	16.81
256.646	18.19
256.861	16.75
257.077	18.6
257.293	18.51
257.508	18.61
257.724	19.24
257.94	18.93
258.155	17.99
258.371	16.62
258.587	15.37
258.802	14.69
259.018	13.55
259.234	13.21
259.449	12.32
259.665	12.1
259.88	12.71
260.096	12.21
260.312	11.71
260.527	11.41
260.743	12.11
260.958	12.5
261.174	12.55
261.389	13.16
261.605	13.84
261.82	15.11
262.036	15.52
262.251	15.63
262.466	15.44
262.682	17.48
262.897	18.18
263.113	18.33
263.328	18.07
263.543	19.7
263.759	18.88
263.974	18.85
264.189	18.16
264.405	18.25
264.62	18.45
264.835	19.41
265.051	18
265.266	17.71
265.481	17.26
265.696	18.68
265.912	17.11
266.127	15.97
266.342	14.74
266.557	14.93
266.773	14.44
266.988	14.39
267.203	13.83
267.418	13.23
267.633	12.58
267.848	12.79
268.064	11.56
268.279	11.91
268.494	11.68
268.709	11.38
268.924	11.05
269.139	12.04
269.354	11.79
269.569	12.19
269.784	12.72
269.999	13.04
270.214	13.35
270.429	13.95
270.644	12.89
270.859	12.25
271.074	12.46
271.289	12.06
271.504	11.12
271.719	9.95
271.934	9.31
272.149	9.34
272.363	9
272.578	7.61
272.793	7.56
273.008	7.74
273.223	8.06
273.438	8.12
273.653	8.26
273.867	8.44
274.082	8.88
274.297	9.71
274.512	9.73
274.726	9.52
274.941	10.64
275.156	10.61
275.371	11.8
275.585	12.73
275.8	12.75
276.015	13.32
276.229	12.96
276.444	13.27
276.659	13.23
276.873	13.41
277.088	13.79
277.302	13.79
277.517	14.54
277.732	15.05
277.946	14.27
278.161	15.18
278.375	14.28
278.59	14.25
278.804	12.55
279.019	13.63
279.233	12.57
279.448	12.44
279.662	11.87
279.877	10.88
280.091	9.93
280.306	9.14
280.52	7.44
280.735	6.21
280.949	7.01
281.163	8.22
281.378	5.14
281.592	5.56
281.806	6.15
282.021	5.5
282.235	5.71
282.449	6.25
282.664	8.13
282.878	8.57
283.092	10.8
283.307	9.74
283.521	10.62
283.735	11.73
283.949	12.5
284.164	12.39
284.378	12.78
284.592	12.75
284.806	11.9
285.02	11
285.234	10.88
285.449	9.7
285.663	9.97
285.877	8.85
286.091	9.28
286.305	8.24
286.519	7.54
286.733	7.33
286.947	7
287.161	6.05
287.375	6.35
287.589	6.81
287.803	7.44
288.017	7.17
288.231	7.95
288.445	8.45
288.659	10.08
288.873	10.54
289.087	10.81
289.301	11.06
289.515	12.21
289.729	11.71
289.943	11.97
290.157	12.49
290.371	14.31
290.584	13.76
290.798	13.63
291.012	13.26
291.226	13.19
291.44	14.17
291.654	14.17
291.867	13.98
292.081	13.72
292.295	13.76
292.509	13.09
292.722	12.4
292.936	12.56
293.15	13.89
293.364	12.91
293.577	12.52
293.791	11.04
294.005	12.08
294.218	11.91
294.432	12.38
294.645	12.11
294.859	11.76
295.073	10.98
295.286	11.9
295.5	10.76
295.713	11.71
295.927	12.63
296.14	13.91
296.354	13.43
296.568	13.34
296.781	13.75
296.994	13.96
297.208	13.55
297.421	13.81
297.635	13.04
297.848	12.94
298.062	12.5
298.275	11.95
298.489	10.63
298.702	9.75
298.915	10.93
299.129	11.06
299.342	10.82
299.555	11.56
299.769	11.64
299.982	11.37
300.195	11.04
300.409	11.59
300.622	12.23
300.835	13.98
301.048	14.19
301.262	13.29
301.475	12.04
301.688	12.23
301.901	12.6
302.115	12.49
302.328	14.2
302.541	14.48
302.754	15.15
302.967	15.32
303.18	14.97
303.393	15.12
303.607	14.65
303.82	16.43
304.033	16.16
304.246	15.13
304.459	15.89
304.672	14.67
304.885	13.9
305.098	11.84
305.311	11.35
305.524	10.91
305.737	12.08
305.95	12.96
306.163	10.94
306.376	10.84
306.589	11.6
306.802	10.75
307.015	12.04
307.228	13.01
307.44	13.59
307.653	13.6
307.866	12.18
308.079	12.42
308.292	12.88
308.505	13.84
308.718	14.42
308.93	13.19
309.143	13.04
309.356	12.42
309.569	12.51
309.781	13.66
309.994	13.97
310.207	15.26
310.42	13.57
310.632	11.85
310.845	12.25
311.058	10.73
311.27	11.7
311.483	11.95
311.696	11.75
311.908	11.36
312.121	10.2
312.333	10.57
312.546	9.7
312.759	10.04
312.971	10.96
313.184	11.28
313.396	12.22
313.609	12.98
313.821	12.35
314.034	12.41
314.246	12.64
314.459	12.97
314.671	12.01
314.884	12.22
315.096	12.42
315.309	12.15
315.521	12.68
315.733	11.62
315.946	9.99
316.158	10.94
316.371	10.23
316.583	10.24
316.795	9.87
317.008	10.52
317.22	11.6
317.432	11.99
317.644	11.6
317.857	9.39
318.069	10.96
318.281	11.62
318.494	10.91
318.706	12.15
318.918	11.53
319.13	12.69
319.342	12.02
319.555	11.22
319.767	11.94
319.979	12.64
320.191	13.54
320.403	13.42
320.615	13.63
320.827	14.6
321.039	13.29
321.252	13.29
321.464	11.49
321.676	12.37
321.888	11.69
322.1	10.23
322.312	8.53
322.524	7.39
322.736	7.49
322.948	6.72
323.16	4.91
323.372	6.09
323.584	6.29
323.796	5.69
324.007	5.51
324.219	5.68
324.431	6.88
324.643	8.12
324.855	8.89
325.067	8.67
325.279	9.14
325.491	9.94
325.702	9.01
325.914	8.35
326.126	10.17
326.338	9.91
326.55	10.77
326.761	10.25
326.973	9.67
327.185	10.34
327.396	10.63
327.608	10.51
327.82	11
328.032	11.7
328.243	12.1
328.455	11.94
328.666	11.69
328.878	11.44
329.09	10.54
329.301	9.85
329.513	9.01
329.725	7.97
329.936	8.01
330.148	8.33
330.359	8.01
330.571	8.1
330.782	8.15
330.994	9.58
331.205	9.8
331.417	10.49
331.628	10.95
331.84	11.57
332.051	13.5
332.262	13.97
332.474	13.05
332.685	13.8
332.897	13.75
333.108	13.93
333.319	12.55
333.531	12.53
333.742	13.74
333.953	14.08
334.165	13.55
334.376	13.05
334.587	12.83
334.799	12.89
335.01	12.04
335.221	12.32
335.432	11.48
335.644	11.68
335.855	11.84
336.066	11.92
336.277	12.87
336.488	12.74
336.7	11.51
336.911	11.46
337.122	11.47
337.333	12.76
337.544	13.68
337.755	14.03
337.966	14.33
338.177	14
338.388	13.54
338.599	13.6
338.811	13.85
339.022	14.55
339.233	15.15
339.444	15.86
339.655	13.99
339.866	13.58
340.076	14.4
340.287	13.74
340.498	14.16
340.709	14.06
340.92	13.55
341.131	13.77
341.342	14.25
341.553	13.82
341.764	13.75
341.975	14.3
342.185	13.55
342.396	12.98
342.607	13.79
342.818	13.8
343.029	13.53
343.239	13.6
343.45	12.91
343.661	12.53
343.872	12.18
344.082	11.58
344.293	12.07
344.504	12.49
344.714	11.85
344.925	11.27
345.136	10.89
345.346	9.23
345.557	9.46
345.768	9.73
345.978	9.16
346.189	8.82
346.399	8.11
346.61	7.98
346.821	7.99
347.031	9.25
347.242	9.28
347.452	9.42
347.663	11.19
347.873	11.51
348.084	11.51
348.294	12.53
348.504	13.07
348.715	13.76
348.925	13.16
349.136	12.59
349.346	11.06
349.557	11.09
349.767	10.87
349.977	10.4
350.188	10.52
350.398	11.36
350.608	11.03
350.819	10.71
351.029	11.31
351.239	11.85
351.449	12.06
351.66	12.56
351.87	13.06
352.08	12.53
352.29	12.74
352.501	11.49
352.711	10.79
352.921	10.73
353.131	10.04
353.341	9.22
353.552	9.19
353.762	9.21
353.972	9.37
354.182	10.34
354.392	10.33
354.602	10.4
354.812	10.96
355.022	10.99
355.232	10.45
355.442	11.47
355.652	12.12
355.862	12.04
356.072	12.14
356.282	11.66
356.492	10.71
356.702	11.02
356.912	10.79
357.122	10.7
357.332	11.06
357.542	10.98
357.752	11.11
357.962	10.2
358.171	10.17
358.381	10.61
358.591	11.06
358.801	10.38
359.011	10.96
359.221	11.09
359.43	10.6
359.64	10.66
359.85	11.11
360.06	10.83
360.269	11.22
360.479	11.02
360.689	10.47
360.899	10.14
361.108	10.28
361.318	9.94
361.528	9.44
361.737	9.81
361.947	9.21
362.156	8.94
362.366	9.12
362.576	9.03
362.785	9.11
362.995	8.74
363.204	8.8
363.414	9.04
363.623	9.33
363.833	10.47
364.042	10.19
364.252	10.35
364.461	10.46
364.671	10.38
364.88	10.68
365.09	11.14
365.299	12.02
365.509	11.44
365.718	10.95
365.927	10.27
366.137	9.67
366.346	9.66
366.555	9.81
366.765	9.89
366.974	9.71
367.183	9.22
367.393	8.18
367.602	7.65
367.811	8.25
368.021	7.82
368.23	8.29
368.439	7.84
368.648	7.92
368.857	7.96
369.067	7.7
369.276	7.93
369.485	8.32
369.694	8.57
369.903	9.33
370.112	9.37
370.321	9.8
370.531	9.48
370.74	9.56
370.949	9.56
371.158	9.56
371.367	9.77
371.576	9.42
371.785	9.07
371.994	9.36
372.203	8.97
372.412	9.02
372.621	9.58
372.83	9.69
373.039	10.25
373.248	9.79
373.457	9.61
373.666	9.37
373.874	9.18
374.083	9.7
374.292	9.18
374.501	8.85
374.71	7.97
374.919	8.03
375.128	7.95
375.336	7.89
375.545	8.41
375.754	8.07
375.963	8.07
376.171	7.96
376.38	7.92
376.589	8.53
376.798	8.23
377.006	9.03
377.215	9
377.424	8.91
377.632	8.94
377.841	8.97
378.05	9.35
378.258	9.2
378.467	9.26
378.675	9.36
378.884	9.07
379.093	9.15
379.301	8.73
379.51	8.3
379.718	8.14
379.927	7.84
380.135	7.26
380.344	7.24
380.552	7.4
380.761	7.67
380.969	7.15
381.177	7.22
381.386	6.72
381.594	7.08
381.803	7.2
382.011	7.21
382.219	6.89
382.428	6.8
382.636	6.55
382.845	6.63
383.053	6.48
383.261	6.28
383.469	6.34
383.678	7.05
383.886	6.52
384.094	6.35
384.302	6.66
384.511	6.9
384.719	7.22
384.927	7.39
385.135	7.42
385.343	7.18
385.552	7.36
385.76	7.09
385.968	6.58
386.176	6.67
386.384	6.54
386.592	6.2
386.8	5.97
387.008	6.28
387.216	6.1
387.424	6.12
387.633	6.32
387.841	6.27
388.049	6.13
388.257	6.34
388.465	6.41
388.672	6.52
388.88	6.85
389.088	6.89
389.296	6.63
389.504	7.06
389.712	6.86
389.92	6.76
390.128	6.78
390.336	6.87
390.544	7.28
390.751	6.87
390.959	6.75
391.167	6.64
391.375	6.86
391.583	7.02
391.79	6.29
391.998	6.3
392.206	6.44
392.414	6.26
392.621	6.48
392.829	6.42
393.037	6.56
393.244	6.65
393.452	6.59
393.66	6.71
393.867	6.78
394.075	7.02
394.283	6.99
394.49	6.6
394.698	6.96
394.905	6.69
395.113	6.19
395.32	6.38
395.528	6.52
395.735	6.44
395.943	6.07
396.15	5.77
396.358	5.83
396.565	6.08
396.773	6.64
396.98	6.59
397.188	6.69
397.395	6.81
397.602	6.7
397.81	6.39
398.017	6.58
398.225	6.63
398.432	6.89
398.639	6.92
398.847	6.92
399.054	6.48
399.261	6.27
399.468	6.37
399.676	6.51
399.883	6.55
400.09	6.82
400.297	6.73
400.505	6.73
400.712	6.53
400.919	6.65
401.126	6.67
401.333	6.95
401.54	6.94
401.748	6.91
401.955	6.97
402.162	7.08
402.369	7.12
402.576	7.17
402.783	7.13
402.99	7.09
403.197	6.7
403.404	6.28
403.611	6.25
403.818	6.34
404.025	6.37
404.232	6.15
404.439	5.83
404.646	5.62
404.853	5.3
405.06	5.27
405.267	5.16
405.474	5.28
405.681	5.27
405.887	5.14
406.094	5.08
406.301	5.03
406.508	5.23
406.715	5.46
406.922	5.39
407.128	5.49
407.335	5.61
407.542	5.72
407.749	5.93
407.955	6.33
408.162	6.3
408.369	6.57
408.575	6.41
408.782	6.19
408.989	6.14
409.195	6.19
409.402	6.4
409.609	6.44
409.815	6.41
410.022	6.43
410.228	6.4
410.435	6.52
410.642	5.91
410.848	5.99
411.055	6
411.261	6
411.468	6.17
411.674	5.89
411.881	5.71
412.087	5.79
412.294	5.68
412.5	5.15
412.706	5.05
412.913	5.3
413.119	5.3
413.326	5.24
413.532	5.34
413.738	5.08
413.945	5.29
414.151	5.02
414.357	5.05
414.564	4.87
414.77	5.17
414.976	5.29
415.182	5.67
415.389	5.64
415.595	5.66
415.801	5.58
416.007	5.8
416.214	5.93
416.42	6.19
416.626	5.96
416.832	6.19
417.038	6.18
417.244	6.16
417.45	5.76
417.657	5.87
417.863	6.08
418.069	6.17
418.275	6.09
418.481	5.88
418.687	5.93
418.893	5.94
419.099	5.86
419.305	5.93
419.511	5.91
419.717	6.11
419.923	5.97
420.129	5.8
420.335	5.79
420.541	5.79
420.746	5.75
420.952	5.79
421.158	5.79
421.364	5.67
421.57	5.68
421.776	5.57
421.982	5.42
422.187	5.2
422.393	5.29
422.599	5.12
422.805	5.07
423.01	5.11
423.216	4.83
423.422	4.84
423.628	4.87
423.833	4.71
424.039	4.92
424.245	4.95
424.45	5.22
424.656	5.24
424.862	5.32
425.067	5.3
425.273	5.29
425.478	5.46
425.684	5.39
425.889	5.59
426.095	5.75
426.301	5.59
426.506	5.68
426.712	5.68
426.917	5.48
427.123	5.55
427.328	5.64
427.533	5.9
427.739	5.92
427.944	6.05
428.15	5.73
428.355	5.73
428.561	5.66
428.766	5.55
428.971	5.54
429.177	5.77
429.382	5.83
429.587	5.85
429.793	5.6
429.998	5.54
430.203	5.58
430.408	5.76
430.614	5.7
430.819	5.82
431.024	5.74
431.229	5.74
431.434	5.58
431.64	5.55
431.845	5.65
432.05	5.72
432.255	5.7
432.46	5.65
432.665	5.58
432.87	5.66
433.076	5.48
433.281	5.64
433.486	5.55
433.691	5.48
433.896	5.27
434.101	5.2
434.306	5.23
434.511	5.22
434.716	5.19
434.921	5.25
435.126	5.06
435.331	5.29
435.535	5.23
435.74	5.32
435.945	5.54
436.15	5.56
436.355	5.62
436.56	5.58
436.765	5.66
436.97	5.56
437.174	5.46
437.379	5.57
437.584	5.51
437.789	5.43
437.993	5.3
438.198	5.2
438.403	5.25
438.608	5.08
438.812	4.92
439.017	4.83
439.222	4.93
439.426	5.04
439.631	5.11
439.836	5
440.04	5.07
440.245	5.15
440.45	5.07
440.654	5.01
440.859	5
441.063	4.95
441.268	4.91
441.472	5.01
441.677	5.04
441.881	4.85
442.086	4.94
442.29	4.89
442.495	4.86
442.699	5.09
442.904	5.36
443.108	5.5
443.312	5.55
443.517	5.73
443.721	5.51
443.925	5.46
444.13	5.53
444.334	5.48
444.538	5.6
444.743	5.47
444.947	5.2
445.151	4.98
445.356	4.86
445.56	4.9
445.764	4.88
445.968	4.9
446.173	4.92
446.377	4.93
446.581	4.98
446.785	4.95
446.989	5.07
447.193	5.28
447.398	5.37
447.602	5.42
447.806	5.56
448.01	5.62
448.214	5.71
448.418	5.59
448.622	5.65
448.826	5.61
449.03	5.6
449.234	5.62
449.438	5.47
449.642	5.4
449.846	5.4
450.05	5.31
450.254	5.09
450.458	5.2
450.662	5.27
450.866	5.16
451.069	5.19
451.273	5.17
451.477	5.05
451.681	5.14
451.885	5.1
452.089	5.08
452.292	5.05
452.496	5.2
452.7	4.9
452.904	4.89
453.107	4.94
453.311	4.94
453.515	5
453.719	4.91
453.922	4.83
454.126	4.88
454.33	4.94
454.533	4.77
454.737	4.75
454.94	4.89
455.144	4.97
455.348	4.86
455.551	4.81
455.755	4.62
455.958	4.65
456.162	4.66
456.365	4.74
456.569	4.57
456.772	4.74
456.976	4.78
457.179	4.88
457.383	4.8
457.586	5.03
457.79	5.04
457.993	5.24
458.196	5.29
458.4	5.23
458.603	5.06
458.807	5.17
459.01	5.33
459.213	5.18
459.417	5.06
459.62	5.14
459.823	5.08
460.026	5.06
460.23	4.99
460.433	5.02
460.636	5.07
460.839	5.17
461.042	5.27
461.246	5.16
461.449	5.19
461.652	5.33
461.855	5.18
462.058	5.18
462.261	5.04
462.464	5
462.668	5.08
462.871	5.16
463.074	5.14
463.277	4.81
463.48	4.83
463.683	4.97
463.886	4.91
464.089	4.82
464.292	4.82
464.495	5.16
464.698	5.31
464.901	5.27
465.104	5.18
465.306	5.19
465.509	5.27
465.712	5.26
465.915	5.06
466.118	4.88
466.321	5.05
466.524	5.19
466.726	5.25
466.929	5.21
467.132	5.11
467.335	4.91
467.538	4.72
467.74	4.85
467.943	4.97
468.146	5.22
468.348	5.32
468.551	5.2
468.754	5.04
468.956	4.93
469.159	5.03
469.362	5.04
469.564	5.22
469.767	5.42
469.969	5.37
470.172	5.05
470.375	4.81
470.577	4.81
470.78	4.94
470.982	4.94
471.185	4.86
471.387	4.78
471.59	4.81
471.792	4.88
471.995	4.9
472.197	4.91
472.399	4.97
472.602	5.04
472.804	5.13
473.007	5.12
473.209	5.07
473.411	5.05
473.614	4.91
473.816	5.05
474.018	5.01
474.22	5.07
474.423	5.1
474.625	5.04
474.827	5.25
475.03	5.27
475.232	5.34
475.434	5.43
475.636	5.42
475.838	5.42
476.04	5.26
476.243	5.24
476.445	5.11
476.647	5.03
476.849	5.05
477.051	4.81
477.253	4.78
477.455	4.79
477.657	4.61
477.859	4.58
478.061	4.59
478.263	4.61
478.465	4.57
478.667	4.61
478.869	4.66
479.071	4.69
479.273	4.71
479.475	4.61
479.677	4.57
479.879	4.57
480.081	4.57
480.283	4.63
480.485	4.58
480.686	4.62
480.888	4.59
481.09	4.62
481.292	4.64
481.494	4.62
481.695	4.75
481.897	4.65
482.099	4.68
482.301	4.7
482.502	4.68
482.704	4.67
482.906	4.64
483.107	4.65
483.309	4.62
483.511	4.67
483.712	4.65
483.914	4.61
484.115	4.64
484.317	4.63
484.519	4.62
484.72	4.6
484.922	4.59
485.123	4.63
485.325	4.59
485.526	4.61
485.728	4.58
485.929	4.6
486.131	4.65
486.332	4.64
486.534	4.61
486.735	4.66
486.936	4.65
487.138	4.64
487.339	4.59
487.541	4.64
487.742	4.64
487.943	4.6
488.144	4.62
488.346	4.53
488.547	4.52
488.748	4.61
488.95	4.51
489.151	4.52
489.352	4.54
489.553	4.51
489.755	4.51
489.956	4.46
490.157	4.56
490.358	4.6
490.559	4.69
490.76	4.69
490.961	4.62
491.163	4.68
491.364	4.71
491.565	4.67
491.766	4.69
491.967	4.67
492.168	4.68
492.369	4.63
492.57	4.56
492.771	4.57
492.972	4.55
493.173	4.55
493.374	4.51
493.575	4.53
493.776	4.63
493.976	4.77
494.177	4.88
494.378	4.94
494.579	4.96
494.78	5.25
494.981	5.16
495.182	5.21
495.382	5.35
495.583	5.35
495.784	5.32
495.985	5.32
496.185	5.15
496.386	4.99
496.587	5.03
496.788	5.05
496.988	4.99
497.189	5.03
497.39	5.08
497.59	5.03
497.791	5.11
497.992	5.1
498.192	5.21
498.393	5.32
498.593	5.4
498.794	5.36
498.994	5.38
499.195	5.25
499.395	5.36
499.596	5.3
499.796	5.28
499.997	5.22
500.197	5.34
500.398	5.21
500.598	5.21
500.799	5.09
500.999	5.17
501.199	5.11
501.4	5.16
501.6	4.98
501.801	5.1
502.001	5.07
502.201	5.24
502.402	5.23
502.602	5.18
502.802	5.14
503.002	5.42
503.203	5.49
503.403	5.35
503.603	5.33
503.803	5.27
504.003	5.24
504.204	5.36
504.404	5.33
504.604	5.15
504.804	5.25
505.004	5.22
505.204	5.21
505.404	5.13
505.604	5.34
505.804	5.37
506.005	5.57
506.205	5.55
506.405	5.58
506.605	5.56
506.805	5.67
507.005	5.76
507.204	5.8
507.404	5.61
507.604	5.65
507.804	5.64
508.004	5.61
508.204	5.61
508.404	5.73
508.604	5.68
508.804	5.76
509.003	5.92
509.203	5.86
509.403	5.82
509.603	5.93
509.803	6.03
510.002	6.11
510.202	6.08
510.402	6.08
510.602	6.1
510.801	6.12
511.001	6.02
511.201	5.94
511.4	5.86
511.6	6.01
511.8	6.05
511.999	6.01
512.199	5.97
512.398	6.1
512.598	6.12
512.797	6.29
512.997	6.39
513.197	6.41
513.396	6.42
513.596	6.62
513.795	6.64
513.994	6.61
514.194	6.61
514.393	6.66
514.593	6.63
514.792	6.78
514.992	6.55
515.191	6.42
515.39	6.38
515.59	6.34
515.789	6.31
515.988	6.27
516.188	6.3
516.387	6.3
516.586	6.15
516.786	6.24
516.985	6
517.184	6.09
517.383	6.28
517.582	6.46
517.782	6.6
517.981	6.54
518.18	6.49
518.379	6.61
518.578	6.55
518.777	6.64
518.976	6.54
519.176	6.8
519.375	6.87
519.574	6.82
519.773	6.81
519.972	6.7
520.171	6.74
520.37	6.84
520.569	6.87
520.768	6.94
520.967	7.07
521.166	7.15
521.365	6.98
521.564	7.06
521.762	7.01
521.961	6.96
522.16	7.04
522.359	7.02
522.558	7
522.757	6.88
522.956	6.92
523.154	6.83
523.353	6.95
523.552	6.98
523.751	6.95
523.949	7.02
524.148	7.16
524.347	7.24
524.546	7.33
524.744	7.18
524.943	7.26
525.142	7.27
525.34	7.42
525.539	7.4
525.737	7.51
525.936	7.44
526.135	7.4
526.333	7.23
526.532	7.19
526.73	7.21
526.929	7.27
527.127	7.24
527.326	7.21
527.524	7.15
527.723	7.16
527.921	7.14
528.12	7.14
528.318	7.19
528.516	7.34
528.715	7.31
528.913	7.28
529.112	7.3
529.31	7.28
529.508	7.24
529.707	7.24
529.905	7.26
530.103	7.26
530.301	7.27
530.5	7.21
530.698	7.17
530.896	7.25
531.094	7.41
531.293	7.48
531.491	7.59
531.689	7.8
531.887	7.88
532.085	7.97
532.283	8
532.481	8.06
532.68	8.08
532.878	8.08
533.076	8.08
533.274	7.96
533.472	7.96
533.67	7.88
533.868	7.87
534.066	7.81
534.264	7.71
534.462	7.72
534.66	7.69
534.858	7.78
535.056	7.76
535.253	7.71
535.451	7.79
535.649	7.86
535.847	8.06
536.045	8.05
536.243	8.09
536.441	8.2
536.638	8.28
536.836	8.39
537.034	8.35
537.232	8.41
537.43	8.54
537.627	8.63
537.825	8.53
538.023	8.45
538.22	8.51
538.418	8.52
538.616	8.6
538.813	8.65
539.011	8.7
539.209	8.82
539.406	8.88
539.604	9.02
539.801	9.04
539.999	9.16
540.196	9.24
540.394	9.27
540.591	9.3
540.789	9.27
540.986	9.14
541.184	9.13
541.381	9.13
541.579	9.13
541.776	9.11
541.974	9.06
542.171	9.1
542.368	9.06
542.566	9.04
542.763	9.11
542.96	9.09
543.158	9.18
543.355	9.21
543.552	9.33
543.75	9.49
543.947	9.37
544.144	9.42
544.341	9.41
544.539	9.55
544.736	9.6
544.933	9.57
545.13	9.7
545.327	9.74
545.524	9.76
545.722	9.76
545.919	9.71
546.116	9.85
546.313	9.92
546.51	10.02
546.707	9.95
546.904	10
547.101	10.09
547.298	10.14
547.495	10.26
547.692	10.3
547.889	10.19
548.086	10.22
548.283	10.28
548.48	10.41
548.677	10.34
548.874	10.42
549.07	10.62
549.267	10.64
549.464	10.58
549.661	10.47
549.858	10.54
550.055	10.96
550.251	10.87
550.448	10.87
550.645	10.81
550.842	10.97
551.038	11.02
551.235	10.84
551.432	10.79
551.628	10.94
551.825	11.15
552.022	11.06
552.218	10.96
552.415	11.22
552.612	11.2
552.808	11.17
553.005	11.21
553.201	11.43
553.398	11.45
553.594	11.62
553.791	11.66
553.987	11.79
554.184	12.07
554.38	12.01
554.577	11.85
554.773	12.1
554.97	12.32
555.166	12.35
555.362	12.18
555.559	12.43
555.755	12.55
555.952	12.59
556.148	12.57
556.344	12.55
556.541	12.54
556.737	12.75
556.933	12.88
557.129	12.85
557.326	12.9
557.522	13.1
557.718	13.16
557.914	13.07
558.11	13.15
558.307	13.1
558.503	13.39
558.699	13.6
558.895	13.65
559.091	13.44
559.287	13.37
559.483	13.46
559.679	13.55
559.876	13.77
560.072	13.87
560.268	13.87
560.464	13.87
560.66	13.78
560.856	13.9
561.052	14.03
561.247	14.34
561.443	14.66
561.639	14.67
561.835	14.71
562.031	14.5
562.227	14.54
562.423	14.67
562.619	14.81
562.815	14.85
563.01	14.9
563.206	14.95
563.402	14.99
563.598	14.92
563.793	15.11
563.989	15.08
564.185	15.18
564.381	15.52
564.576	15.64
564.772	15.81
564.968	15.85
565.163	15.7
565.359	15.37
565.555	15.34
565.75	15.4
565.946	15.32
566.141	15.38
566.337	15.51
566.532	15.35
566.728	15.55
566.923	15.52
567.119	15.43
567.314	15.62
567.51	15.97
567.705	16.11
567.901	16.07
568.096	16.23
568.292	16.31
568.487	16.27
568.682	16.41
568.878	16.26
569.073	16.24
569.268	16.49
569.464	16.57
569.659	16.5
569.854	16.57
570.05	16.72
570.245	16.63
570.44	16.75
570.635	16.9
570.831	16.77
571.026	16.88
571.221	17.1
571.416	17.04
571.611	17.04
571.806	17.16
572.002	17.24
572.197	17.26
572.392	17.49
572.587	17.55
572.782	17.61
572.977	17.77
573.172	17.87
573.367	17.85
573.562	17.97
573.757	17.99
573.952	18.17
574.147	18.17
574.342	18.34
574.537	18.3
574.732	18.28
574.927	18.33
575.121	18.55
575.316	18.51
575.511	18.58
575.706	18.63
575.901	18.76
576.096	18.85
576.29	18.92
576.485	18.95
576.68	19.08
576.875	19.05
577.069	19.03
577.264	18.9
577.459	19.17
577.654	19.23
577.848	19.32
578.043	19.43
578.238	19.34
578.432	19.16
578.627	19.21
578.821	19.3
579.016	19.59
579.21	19.81
579.405	19.91
579.6	20
579.794	20.2
579.989	20.22
580.183	20.26
580.378	20.52
580.572	20.91
580.766	20.83
580.961	20.59
581.155	20.58
581.35	20.53
581.544	20.41
581.738	20.36
581.933	20.36
582.127	20.59
582.321	20.59
582.516	20.37
582.71	20.31
582.904	20.5
583.099	20.68
583.293	20.66
583.487	20.81
583.681	21.32
583.875	21.44
584.07	21.45
584.264	21.35
584.458	21.24
584.652	21.31
584.846	21.12
585.04	21.13
585.234	21.32
585.428	21.45
585.623	21.44
585.817	21.17
586.011	21.07
586.205	21.29
586.399	21.42
586.593	21.65
586.787	21.85
586.981	22.09
587.174	22.24
587.368	22.4
587.562	22.6
587.756	22.65
587.95	22.75
588.144	22.73
588.338	22.74
588.532	22.76
588.725	22.9
588.919	23.05
589.113	23.05
589.307	23.04
589.501	22.93
589.694	22.82
589.888	22.74
590.082	22.73
590.275	22.82
590.469	22.81
590.663	22.68
590.856	22.71
591.05	22.63
591.244	22.66
591.437	22.82
591.631	22.88
591.824	22.96
592.018	23.24
592.212	23.39
592.405	23.37
592.599	23.38
592.792	23.6
592.986	23.69
593.179	23.71
593.372	23.8
593.566	23.94
593.759	24.09
593.953	24.25
594.146	24.04
594.339	24.17
594.533	24.56
594.726	24.59
594.92	24.7
595.113	24.67
595.306	24.48
595.499	24.42
595.693	24.42
595.886	24.27
596.079	24.2
596.272	24.27
596.466	24.15
596.659	23.97
596.852	24.03
597.045	24.12
597.238	23.93
597.431	24.08
597.624	24.15
597.818	24.09
598.011	24.19
598.204	24.13
598.397	24.36
598.59	24.36
598.783	24.26
598.976	24.33
599.169	24.11
599.362	24.38
599.555	24.66
599.748	25
599.941	24.85
600.134	24.86
600.326	25.24
600.519	25.28
600.712	25.41
600.905	25.59
601.098	25.77
601.291	25.94
601.483	26.16
601.676	25.99
601.869	25.69
602.062	25.95
602.255	25.93
602.447	25.76
602.64	25.62
602.833	25.69
603.025	25.47
603.218	25.3
603.411	25.16
603.603	25.01
603.796	25.15
603.989	25.31
604.181	25.15
604.374	25.23
604.566	25.09
604.759	25.16
604.951	25.15
605.144	25.32
605.336	25.44
605.529	25.59
605.721	25.73
605.914	25.74
606.106	25.75
606.299	26.04
606.491	26.11
606.683	26.43
606.876	26.39
607.068	26.48
607.26	26.81
607.453	26.68
607.645	26.78
607.837	26.8
608.03	26.92
608.222	26.83
608.414	26.83
608.606	26.89
608.799	26.86
608.991	26.71
609.183	26.85
609.375	26.61
609.567	26.59
609.759	26.62
609.952	26.52
610.144	26.63
610.336	26.86
610.528	26.74
610.72	26.8
610.912	26.87
611.104	27.36
611.296	27.22
611.488	27.29
611.68	27.44
611.872	27.37
612.064	27.74
612.256	27.71
612.448	27.54
612.64	27.6
612.832	27.5
613.023	27.46
613.215	27.21
613.407	27.2
613.599	27.38
613.791	27.62
613.983	27.5
614.174	27.3
614.366	27.29
614.558	27.49
614.75	27.34
614.941	27.44
615.133	27.67
615.325	27.82
615.516	27.9
615.708	27.63
615.9	27.25
616.091	27.42
616.283	27.39
616.475	27.2
616.666	27.19
616.858	27.49
617.049	27.45
617.241	27.45
617.432	27.36
617.624	27.66
617.815	27.85
618.007	28.13
618.198	28.61
618.39	28.39
618.581	28.38
618.773	28.47
618.964	28.55
619.155	28.86
619.347	28.75
619.538	28.91
619.729	28.75
619.921	28.76
620.112	28.63
620.303	28.38
620.494	28.79
620.686	29.31
620.877	29.22
621.068	29.13
621.259	29.26
621.451	29.31
621.642	29.11
621.833	29.16
622.024	29.32
622.215	29.56
622.406	29.54
622.597	29.61
622.788	29.31
622.98	29.21
623.171	29.05
623.362	28.77
623.553	29.03
623.744	29.04
623.935	29.37
624.126	29.13
624.317	29.08
624.508	28.97
624.698	28.77
624.889	28.76
625.08	29.15
625.271	29.54
625.462	29.49
625.653	29.3
625.844	29.6
626.034	29.31
626.225	29.42
626.416	29.24
626.607	29.36
626.798	29.57
626.988	29.66
627.179	29.45
627.37	29.18
627.56	29.41
627.751	29.5
627.942	29.67
628.132	29.68
628.323	29.87
628.514	29.93
628.704	29.92
628.895	29.84
629.085	29.7
629.276	29.78
629.466	30.02
629.657	29.72
629.847	29.57
630.038	29.27
630.228	29.24
630.419	29.15
630.609	29.22
630.8	29.21
630.99	29.22
631.181	29.61
631.371	29.64
631.561	29.74
631.752	30.31
631.942	30.34
632.132	30.46
632.323	30.53
632.513	30.73
632.703	31.03
632.893	31.24
633.084	31.23
633.274	30.88
633.464	30.8
633.654	31.01
633.844	30.89
634.034	30.85
634.225	30.78
634.415	30.87
634.605	30.83
634.795	30.57
634.985	30.56
635.175	30.41
635.365	30.41
635.555	30.81
635.745	30.3
635.935	30.19
636.125	30.28
636.315	30.29
636.505	30.22
636.695	29.99
636.885	29.94
637.075	29.92
637.265	30.28
637.455	30.47
637.644	30.02
637.834	30.55
638.024	30.68
638.214	30.78
638.404	30.94
638.593	31.18
638.783	31.38
638.973	32.06
639.163	32.02
639.352	31.7
639.542	31.9
639.732	32.19
639.921	32.22
640.111	32.13
640.301	31.99
640.49	31.85
640.68	31.66
640.87	31.7
641.059	31.2
641.249	31.31
641.438	31.59
641.628	31.2
641.817	31.2
642.007	30.9
642.196	30.6
642.386	31.03
642.575	31.29
642.764	31.32
642.954	31.16
643.143	31.27
643.333	31.26
643.522	31.12
643.711	31.14
643.901	31.15
644.09	31.47
644.279	31.95
644.469	31.89
644.658	32
644.847	31.91
645.036	32.13
645.226	32.17
645.415	32.26
645.604	32.48
645.793	32.92
645.982	32.69
646.171	32.66
646.361	32.79
646.55	33.06
646.739	32.62
646.928	32.82
647.117	32.62
647.306	32.45
647.495	32.77
647.684	32.66
647.873	32.74
648.062	33.18
648.251	32.83
648.44	32.54
648.629	32.14
648.818	32.25
649.007	32.08
649.196	32.29
649.384	32.53
649.573	31.94
649.762	31.95
649.951	32.08
650.14	31.8
650.328	32.17
650.517	32.48
650.706	32.63
650.895	33.15
651.083	33.54
651.272	33.32
651.461	33.51
651.65	34.02
651.838	33.61
652.027	33.32
652.216	33.03
652.404	32.88
652.593	32.56
652.781	32.46
652.97	32.24
653.158	32.13
653.347	32.62
653.535	32.4
653.724	31.9
653.912	32.53
654.101	32.68
654.289	33.01
654.478	33.11
654.666	33.49
654.855	33.58
655.043	33.37
655.231	33.13
655.42	33.43
655.608	33.75
655.796	34.19
655.985	34.06
656.173	34.12
656.361	34.41
656.55	34.18
656.738	33.64
656.926	34.06
657.114	34.16
657.302	34.57
657.491	33.63
657.679	33.3
657.867	33.08
658.055	33.15
658.243	33.11
658.431	33.06
658.619	33.32
658.807	33.78
658.996	33.71
659.184	33.77
659.372	33.81
659.56	34.17
659.748	34.1
659.936	34.39
660.124	34.31
660.311	34.4
660.499	34.48
660.687	34.38
660.875	34.57
661.063	34.44
661.251	34.3
661.439	34.2
661.627	34.42
661.814	34.9
662.002	34.57
662.19	34.94
662.378	34.86
662.565	34.85
662.753	35.38
662.941	35.3
663.129	35.48
663.316	35.83
663.504	35.66
663.692	35.4
663.879	35.32
664.067	35.81
664.254	35.43
664.442	35.41
664.63	35.16
664.817	35
665.005	34.79
665.192	34.94
665.38	34.62
665.567	34.6
665.755	34.83
665.942	35.04
666.13	34.88
666.317	35.07
666.504	35.09
666.692	35.61
666.879	35.67
667.067	35.53
667.254	35.33
667.441	35.4
667.629	35.48
667.816	35.27
668.003	35.07
668.19	35.15
668.378	35.01
668.565	34.93
668.752	34.51
668.939	34.29
669.127	34.34
669.314	34.16
669.501	34.24
669.688	34.69
669.875	34.92
670.062	34.92
670.249	35.15
670.436	35.66
670.623	35.39
670.81	35.9
670.997	36.15
671.184	36.28
671.371	36.94
671.558	37.05
671.745	37.11
671.932	36.88
672.119	36.42
672.306	36.11
672.493	35.72
672.68	36.36
672.867	36.64
673.054	36.51
673.24	36.67
673.427	36.46
673.614	36.36
673.801	36.47
673.988	36.9
674.174	37.37
674.361	37.42
674.548	37.43
674.734	37.57
674.921	36.74
675.108	37.24
675.294	37.02
675.481	36.9
675.668	37.23
675.854	36.65
676.041	36.43
676.227	36.43
676.414	36.89
676.601	37.39
676.787	37.19
676.974	37.7
677.16	37.18
677.347	37.29
677.533	37.19
677.719	36.96
677.906	37.27
678.092	37.74
678.279	37.55
678.465	37.36
678.651	37.25
678.838	37.86
679.024	38.01
679.21	37.93
679.397	38.28
679.583	38.45
679.769	38.42
679.955	38.14
680.142	37.83
680.328	38.2
680.514	38.26
680.7	37.92
680.886	37.66
681.073	37.36
681.259	37.37
681.445	37.24
681.631	36.95
681.817	36.82
682.003	37.12
682.189	36.84
682.375	36.57
682.561	36.19
682.747	36.67
682.933	36.46
683.119	36.37
683.305	36.28
683.491	36.17
683.677	36.39
683.863	36.73
684.049	36.49
684.235	36.31
684.42	36.33
684.606	36.35
684.792	35.91
684.978	35.95
685.164	36.13
685.349	36.53
685.535	36.82
685.721	36.73
685.907	36.36
686.092	36.69
686.278	37.52
686.464	37.24
686.649	37.3
686.835	37.64
687.021	37.88
687.206	38.17
687.392	37.81
687.577	37.89
687.763	37.99
687.948	38.41
688.134	38.12
688.319	38.22
688.505	38.78
688.69	39.36
688.876	39.4
689.061	39.15
689.247	38.89
689.432	39
689.618	38.66
689.803	38.95
689.988	39.09
690.174	39.63
690.359	39.29
690.544	39.14
690.73	38.82
690.915	38.73
691.1	38.92
691.285	38.82
691.471	39.39
691.656	39.34
691.841	39
692.026	38.95
692.211	38.98
692.396	39.13
692.582	39.43
692.767	40.08
692.952	40.07
693.137	39.82
693.322	40.01
693.507	39.81
693.692	40.06
693.877	40.17
694.062	40.32
694.247	40.09
694.432	40.47
694.617	40.6
694.802	40.31
694.987	40.61
695.172	40.85
695.357	41
695.541	41.04
695.726	41.32
695.911	41.74
696.096	41
696.281	40.81
696.466	40.57
696.65	40.08
696.835	40.43
697.02	40.45
697.204	40.59
697.389	40.72
697.574	40.06
697.759	40
697.943	39.55
698.128	39.84
698.312	39.96
698.497	39.56
698.682	39.63
698.866	39.08
699.051	38.88
699.235	38.91
699.42	38.77
699.604	39.09
699.789	38.91
699.973	39.07
700.158	39.22
700.342	38.95
700.527	39.52
700.711	39.72
700.895	39.69
701.08	40.09
701.264	39.98
701.448	39.84
701.633	39.88
701.817	39.78
702.001	40.16
702.186	40.03
702.37	40.55
702.554	40.13
702.738	40.31
702.923	40.66
703.107	40.7
703.291	41.03
703.475	41.59
703.659	41.43
703.843	41.71
704.027	40.95
704.212	40.69
704.396	40.89
704.58	40.89
704.764	40.64
704.948	40.26
705.132	40.03
705.316	39.4
705.5	39.44
705.684	40.34
705.868	40.24
706.052	40.06
706.235	40.54
706.419	40.33
706.603	40.52
706.787	40.79
706.971	41.48
707.155	40.84
707.339	41.03
707.522	41.32
707.706	40.54
707.89	40.71
708.074	41.54
708.257	40.89
708.441	41.61
708.625	41.63
708.808	41.67
708.992	41.28
709.176	42.09
709.359	42.32
709.543	41.89
709.727	41.97
709.91	41.49
710.094	41.42
710.277	41.84
710.461	40.85
710.644	40.44
710.828	40.03
711.011	40.24
711.195	40.05
711.378	40.26
711.562	39.85
711.745	39.95
711.928	39.93
712.112	39.27
712.295	39.64
712.478	40.01
712.662	40.56
712.845	40.35
713.028	40.28
713.212	40.33
713.395	39.87
713.578	40.52
713.761	40.45
713.945	40.95
714.128	41.5
714.311	41.88
714.494	41.51
714.677	41.51
714.86	41.87
715.043	42.17
715.227	42.18
715.41	42.55
715.593	42.74
715.776	42.81
715.959	42.83
716.142	43.19
716.325	42.18
716.508	42.48
716.691	42.35
716.874	42.28
717.057	42.02
717.239	41.73
717.422	41.36
717.605	40.72
717.788	41.14
717.971	41.64
718.154	41.74
718.337	42.32
718.519	41.88
718.702	42.19
718.885	42.13
719.068	41.62
719.25	42.1
719.433	41.8
719.616	41.79
719.798	40.7
719.981	41
720.164	40.34
720.346	40.32
720.529	40.93
720.712	41.05
720.894	41.29
721.077	41.5
721.259	41.17
721.442	42.83
721.624	43.27
721.807	44.3
721.989	43.28
722.172	43.37
722.354	43.38
722.537	43.41
722.719	42.87
722.901	42.66
723.084	43.1
723.266	42.73
723.448	42.42
723.631	42.34
723.813	41.75
723.995	42.19
724.178	41.99
724.36	42.16
724.542	42
724.724	42.76
724.907	43.91
725.089	43.9
725.271	44.86
725.453	43.81
725.635	43.44
725.817	44.31
725.999	44.72
726.181	45.59
726.364	44.99
726.546	45.32
726.728	44.73
726.91	43.73
727.092	44.04
727.274	43.75
727.456	44.12
727.638	44.64
727.819	44.69
728.001	44.52
728.183	44.4
728.365	44.2
728.547	44.15
728.729	44.22
728.911	44.69
729.093	44.23
729.274	43.6
729.456	44.15
729.638	43.74
729.82	43.7
730.001	43.02
730.183	42.86
730.365	43.05
730.546	43.24
730.728	42.63
730.91	41.75
731.091	41.67
731.273	41.58
731.455	41.46
731.636	41.92
731.818	41.37
731.999	41.47
732.181	41.21
732.362	41.4
732.544	41.57
732.725	42.04
732.907	42.23
733.088	42.58
733.27	43.39
733.451	43.18
733.633	43.73
733.814	43.96
733.995	44.51
734.177	45.07
734.358	44.7
734.539	44.27
734.721	44.46
734.902	44.58
735.083	44.73
735.264	45.39
735.446	45.68
735.627	45.04
735.808	44.32
735.989	43.93
736.17	43.73
736.351	44.12
736.533	44.28
736.714	43.98
736.895	44.77
737.076	44.33
737.257	43.1
737.438	42.04
737.619	42.61
737.8	43.85
737.981	44.07
738.162	43.45
738.343	44.41
738.524	43.18
738.705	43.42
738.886	42.94
739.067	43.37
739.247	43.79
739.428	44.51
739.609	43.29
739.79	43.6
739.971	43.09
740.151	42.8
740.332	42.54
740.513	42.68
740.694	43.14
740.874	43.15
741.055	43.47
741.236	43.16
741.417	43.07
741.597	43.29
741.778	42.38
741.958	42.85
742.139	44.56
742.32	44.4
742.5	45.88
742.681	45.57
742.861	45.14
743.042	44.36
743.222	45.39
743.403	45.36
743.583	45.66
743.764	46.15
743.944	46.12
744.124	45.26
744.305	45.22
744.485	45.24
744.666	44.78
744.846	46.12
745.026	46.4
745.207	45.3
745.387	45.84
745.567	46.37
745.747	47.17
745.928	46.78
746.108	47.65
746.288	47.31
746.468	47.23
746.648	47.71
746.829	47.52
747.009	48.41
747.189	48.8
747.369	48.78
747.549	48.44
747.729	47.68
747.909	46.96
748.089	46.62
748.269	47.33
748.449	47.49
748.629	46.73
748.809	46.09
748.989	45.46
749.169	45.66
749.349	45.14
749.529	45.64
749.709	44.97
749.889	46.16
750.068	45.29
750.248	45.4
750.428	44.83
750.608	45.7
750.788	45.62
750.967	45.11
751.147	45.61
751.327	45.28
751.507	44.33
751.686	45.57
751.866	46.07
752.046	47.08
752.225	47.2
752.405	47.35
752.585	46.87
752.764	47.09
752.944	47.32
753.123	47.08
753.303	47.1
753.482	47.84
753.662	47.11
753.841	46.19
754.021	45.98
754.2	45.47
754.38	45.47
754.559	45.2
754.739	44.55
754.918	44.11
755.097	43.67
755.277	43.89
755.456	43.73
755.635	44.62
755.815	44.65
755.994	44.52
756.173	44.81
756.352	44.37
756.532	44.69
756.711	44.78
756.89	44.57
757.069	44.67
757.248	44.72
757.427	43.26
757.607	42.35
757.786	43.3
757.965	42.55
758.144	42.6
758.323	43.8
758.502	44.42
758.681	45.8
758.86	46.67
759.039	46.68
759.218	47.13
759.397	48.97
759.576	48.62
759.755	47.6
759.934	48.22
760.113	48.33
760.291	47.64
760.47	47.84
760.649	46.94
760.828	47
761.007	47.54
761.186	47.07
761.364	46.83
761.543	46.75
761.722	47.05
761.901	46.43
762.079	46.66
762.258	46.3
762.437	45.95
762.615	45.78
762.794	45.46
762.972	44.56
763.151	44.46
763.33	44.36
763.508	44.15
763.687	43.65
763.865	44.4
764.044	43.66
764.222	43.76
764.401	43.56
764.579	43.95
764.758	44.06
764.936	44.45
765.114	43.93
765.293	43.83
765.471	44.58
765.65	45.57
765.828	46
766.006	46.33
766.184	46.22
766.363	46.58
766.541	45.55
766.719	45.58
766.898	45.8
767.076	46.57
767.254	46.08
767.432	46.47
767.61	45.58
767.788	43.96
767.967	43.84
768.145	44.05
768.323	42.92
768.501	43.9
768.679	44.34
768.857	43.92
769.035	44.74
769.213	46.26
769.391	46.14
769.569	46.45
769.747	47.71
769.925	47.68
770.103	47.03
770.281	47.77
770.459	49.33
770.636	49.05
770.814	49.66
770.992	48.49
771.17	47.78
771.348	47.29
771.525	48.16
771.703	48.21
771.881	49.25
772.059	51.25
772.236	51.03
772.414	49.67
772.592	49.95
772.769	48.73
772.947	49.44
773.125	47.87
773.302	48.17
773.48	47.34
773.657	47.09
773.835	45.31
774.013	45.1
774.19	46.7
774.368	45.85
774.545	45.9
774.723	46.99
774.9	46.49
775.077	48.39
775.255	48.57
775.432	49.98
775.61	50.3
775.787	50.84
775.964	50.62
776.142	50.55
776.319	51.22
776.496	51.51
776.674	51.05
776.851	50.91
777.028	48.82
777.205	48.51
777.382	47.07
777.56	46.3
777.737	49.93
777.914	48.86
778.091	47.58
778.268	47.36
778.445	47
778.622	47.77
778.8	49.07
778.977	50.43
779.154	57.17
779.331	58.71
779.508	60.66
779.685	58.48
779.862	58.88
780.038	59.57
780.215	58.93
780.392	58.12
780.569	56.9
780.746	55.72
780.923	56.39
781.1	50.4
781.277	49.49
781.453	48.07
781.63	47.9
781.807	48.36
781.984	49.52
782.16	49.29
782.337	49.25
782.514	49.31
782.691	51.5
782.867	49.9
783.044	48.99
783.221	49.88
783.397	49.54
783.574	48.45
783.75	48.4
783.927	47.32
784.103	48.8
784.28	50.54
784.456	52.44
784.633	50.85
784.809	52.04
784.986	50.97
785.162	48.84
785.339	47.84
785.515	47.87
785.692	46.87
785.868	47.03
786.044	48.18
786.221	47.64
786.397	46.02
786.573	46.25
786.749	44.96
786.926	46.65
787.102	47.56
787.278	49
787.454	48.46
787.631	49.14
787.807	49.97
787.983	48.48
788.159	47.89
788.335	48.26
788.511	48.09
788.687	49.57
788.863	48.11
789.039	48.87
789.216	48.96
789.392	49.56
789.568	51.46
789.744	51.5
789.919	51.06
790.095	51.18
790.271	51.88
790.447	50.33
790.623	49.33
790.799	50.82
790.975	48.89
791.151	48.1
791.327	48.64
791.502	46.02
791.678	43.43
791.854	44.84
792.03	45.19
792.205	46.51
792.381	47.7
792.557	49.09
792.733	48.06
792.908	50.84
793.084	50.36
793.259	50.12
793.435	51.16
793.611	52.49
793.786	51.88
793.962	51.25
794.137	50.05
794.313	49.58
794.488	48.6
794.664	48.82
794.839	45.75
795.015	46.73
795.19	47.06
795.366	46.36
795.541	44.32
795.716	44.11
795.892	46.3
796.067	46.06
796.242	46.18
796.418	45.4
796.593	46.48
796.768	48.7
796.944	48.15
797.119	48.41
797.294	47.92
797.469	49.61
797.644	50.12
797.82	49.05
797.995	46.86
798.17	46.28
798.345	48.88
798.52	47.55
798.695	46.11
798.87	46.14
799.045	45.45
799.22	45.66
799.395	46.68
799.57	47.39
799.745	47.95
799.92	49.73
800.095	51.45
800.27	49.69
800.445	51.43
800.62	50.36
800.795	52.29
800.97	53.22
801.145	53.3
801.319	53.56
801.494	53.21
801.669	52.75
801.844	53.42
802.018	53.32
802.193	54.61
802.368	52.91
802.543	53.98
802.717	52.34
802.892	53.09
803.067	53.95
803.241	52.64
803.416	52.74
803.59	50.84
803.765	50.82
803.94	50.75
804.114	49.6
804.289	50.56
804.463	49.87
804.638	49.14
804.812	50.56
804.986	48.03
805.161	46.33
805.335	46.23
805.51	46.8
805.684	44.66
805.858	43.87
806.033	42.28
806.207	40.52
806.381	41.41
806.556	41.29
806.73	37.87
806.904	40.42
807.078	41.1
807.253	39.36
807.427	39.91
807.601	39.36
807.775	41.33
807.949	44.11
808.123	46
808.298	47.24
808.472	50.04
808.646	49.34
808.82	46.71
808.994	49.15
809.168	52.7
809.342	53.67
809.516	57.46
809.69	55.32
809.864	55.23
810.038	56.66
810.212	56.08
810.385	54.27
810.559	57.46
810.733	59.65
810.907	60.28
811.081	58.6
811.255	56.34
811.428	52.97
811.602	52.44
811.776	51.92
811.95	50.16
812.123	49.08
812.297	49.05
812.471	47.58
812.644	46.55
812.818	47.08
812.992	46.26
813.165	49.51
813.339	50.38
813.512	51.55
813.686	52.52
813.86	52.85
814.033	55.07
814.207	56.55
814.38	55.93
814.554	55.39
814.727	53.95
814.9	53.45
815.074	53.06
815.247	53.92
815.421	52.13
815.594	52.15
815.767	47.86
815.941	48.42
816.114	46.33
816.287	47.13
816.46	45.67
816.634	45.05
816.807	45.67
816.98	42.94
817.153	43.6
817.327	43.36
817.5	42.8
817.673	46.41
817.846	45.48
818.019	46.99
818.192	47.05
818.365	46.77
818.538	44.92
818.711	42.3
818.884	45.41
819.057	42.62
819.23	43.82
819.403	40.92
819.576	40.93
819.749	39.6
819.922	37.69
820.095	37.03
820.268	38.6
820.441	39.3
820.614	39.94
820.786	37.23
820.959	39.12
821.132	39.07
821.305	39.49
821.477	39.47
821.65	41.19
821.823	41.26
821.996	40.92
822.168	40.73
822.341	40.78
822.514	41.02
822.686	41.02
822.859	40.55
823.031	40.83
823.204	41.31
823.376	41.72
823.549	41.18
823.722	41.6
823.894	42.2
824.067	41.7
824.239	42.01
824.411	42.37
824.584	42.91
824.756	43.65
824.929	43.11
825.101	43.29
825.273	42.91
825.446	42.86
825.618	42.66
825.79	42.19
825.963	43.34
826.135	42.8
826.307	42.54
826.479	42.61
826.652	41.92
826.824	42.42
826.996	41.6
827.168	41.24
827.34	41.21
827.512	41.4
827.684	41.71
827.856	40.77
828.029	41.38
828.201	40.67
828.373	40.18
828.545	40.58
828.717	40.64
828.889	41.23
829.061	41.98
829.232	42.84
829.404	42.75
829.576	43.19
829.748	43.85
829.92	44.1
830.092	45.5
830.264	45.88
830.436	45.75
830.607	46.83
830.779	47.47
830.951	48.22
831.123	46.47
831.294	46.11
831.466	44.88
831.638	45.36
831.809	45.78
831.981	46.96
832.153	47.19
832.324	46.33
832.496	44.14
832.667	44.56
832.839	44.44
833.011	45.04
833.182	45.29
833.354	44.72
833.525	46.41
833.697	45.12
833.868	41.12
834.039	43.73
834.211	43.95
834.382	43.85
834.554	44.08
834.725	44.5
834.896	44.19
835.068	43.4
835.239	43.69
835.41	42.31
835.581	43.11
835.753	44.45
835.924	40.85
836.095	40.89
836.266	40.76
836.438	39.16
836.609	39.14
836.78	40.75
836.951	41.8
837.122	40.8
837.293	42.26
837.464	41.59
837.635	43.66
837.806	46.65
837.977	47.69
838.148	50.03
838.319	50.26
838.49	47.85
838.661	47.55
838.832	47.96
839.003	47.76
839.174	47.12
839.345	46.31
839.516	47.86
839.687	49.89
839.857	51.03
840.028	51.53
840.199	52.28
840.37	54.8
840.54	58.39
840.711	54.06
840.882	58.04
841.053	57.09
841.223	56.97
841.394	53.29
841.564	53.75
841.735	51.52
841.906	49.74
842.076	45.88
842.247	46.35
842.417	42.02
842.588	48.11
842.758	49.28
842.929	50.34
843.099	54.16
843.27	60.54
843.44	56.49
843.611	57.71
843.781	54.85
843.951	59.9
844.122	61.48
844.292	62.78
844.462	62.74
844.633	60.83
844.803	66.35
844.973	67.51
845.144	57.25
845.314	59.08
845.484	57.41
845.654	63.88
845.824	64.07
845.995	62.75
846.165	62.41
846.335	68.13
846.505	72.01
846.675	69.57
846.845	68.88
847.015	74.67
847.185	79.58
847.355	79.15
847.525	76.26
847.695	84.01
847.865	82.67
848.035	82.64
848.205	70.6
848.375	71.43
848.545	52.79
848.715	54.31
848.884	56.05
849.054	52.4
849.224	55.86
849.394	60.57
849.564	55.41
849.733	50.89
849.903	52.51
850.073	55.62
850.243	57
850.412	68.07
850.582	66.64
850.752	66.32
850.921	56.8
851.091	56.82
851.26	58.12
851.43	58.62
851.599	63.24
851.769	66.6
851.939	63.99
852.108	59.41
852.278	60.83
852.447	54.88
852.616	54.13
852.786	54.06
852.955	57.17
853.125	63.57
853.294	63.93
853.463	63.19
853.633	61.8
853.802	64.52
853.971	63.75
854.141	63.85
854.31	67.54
854.479	69.69
854.648	79.05
854.818	76.38
854.987	66.24
855.156	66.4
855.325	63.82
855.494	67.1
855.663	59.12
855.832	55.29
856.001	54.03
856.171	51.72
856.34	47.96
856.509	45.02
856.678	48.22
856.847	63.15
857.016	59.05
857.185	61
857.353	62.52
857.522	73.12
857.691	85.08
857.86	95.67
858.029	93.09
858.198	94.64
858.367	97.38
858.535	100.56
858.704	86.06
858.873	87.4
859.042	96.72
859.21	93.75
859.379	94.25
859.548	85.94
859.717	78.74
859.885	79.4
860.054	68.54
860.222	65.87
860.391	58.57
860.56	53.64
860.728	55.41
860.897	36.06
861.065	31.89
861.234	29.11
861.402	26.15
861.571	30.5
861.739	36.88
861.908	41.1
862.076	42.45
862.244	45.83
862.413	53.15
862.581	53.51
862.749	54.13
862.918	52.71
863.086	50.85
863.254	56.21
863.423	51.85
863.591	50.64
863.759	53.42
863.927	54.23
864.096	52.53
864.264	60.96
864.432	55.67
864.6	70.58
864.768	78.08
864.936	88.15
865.104	87.44
865.272	91.56
865.44	92.04
865.608	91.17
865.776	91.72
865.944	103.63
866.112	105.93
866.28	114.67
866.448	109.05
866.616	102.32
866.784	102.57
866.952	96.79
867.12	95.84
867.288	98.81
867.455	95.27
867.623	93.88
867.791	79.89
867.959	72.3
868.127	64.11
868.294	67.46
868.462	64.36
868.63	59.98
868.797	72.23
868.965	70.6
869.133	53.32
869.3	55.59
869.468	64.09
869.636	59.75
869.803	61.92
869.971	67.34
870.138	61.88
870.306	60.78
870.473	60.44
870.641	55.1
870.808	52.18
870.975	66.36
871.143	71.16
871.31	62.87
871.478	81.89
871.645	74.76
871.812	76.85
871.98	75.12
872.147	80.41
872.314	74.58
872.482	68.07
872.649	73.32
872.816	68.41
872.983	63.75
873.15	66.09
873.318	54.36
873.485	67.04
873.652	66.97
873.819	79.31
873.986	84.22
874.153	86.43
874.32	89.32
874.487	86.67
874.654	83.03
874.821	94.94
874.988	87.21
875.155	84.59
875.322	74.62
875.489	71.07
875.656	58.73
875.823	53.43
875.99	49.59
876.157	51.87
876.324	57.99
876.49	54.73
876.657	54.46
876.824	60.1
876.991	65.74
877.157	67.96
877.324	68.04
877.491	66.26
877.658	75.4
877.824	73.59
877.991	75.06
878.157	72.56
878.324	70.49
878.491	72.48
878.657	78.07
878.824	75.07
878.99	71.08
879.157	77.07
879.323	76.97
879.49	71.26
879.656	73.64
879.823	66.53
879.989	63.88
880.156	68.74
880.322	61.81
880.488	56.27
880.655	57.47
880.821	59.98
880.987	54.02
881.154	52.5
881.32	50.96
881.486	55.09
881.652	55.66
881.819	54.59
881.985	49.63
882.151	49.59
882.317	47.98
882.483	44.8
882.649	44.31
882.816	43.41
882.982	40.82
883.148	41.55
883.314	39.88
883.48	42.78
883.646	42.44
883.812	43.93
883.978	44.67
884.144	46.91
884.31	46.47
884.476	47
884.642	47.08
884.807	51.05
884.973	50.83
885.139	50.35
885.305	49.06
885.471	49.31
885.637	48.3
885.802	46.72
885.968	45.35
886.134	47
886.3	46.6
886.465	47.82
886.631	44.85
886.797	46.31
886.962	48.28
887.128	46.62
887.293	47.21
887.459	50.63
887.625	50.57
887.79	51.06
887.956	49.63
888.121	51.5
888.287	51.61
888.452	52.83
888.618	50.38
888.783	48.93
