Data from LC_160_Reflection_3.txt Node
Date: Mon Nov 16 22:35:08 EST 2015
User: robert
Spectrometer: USB4E03001
Autoset integration time: false
Trigger mode: 4
Integration Time (sec): 1.000000E-1
Scans to average: 15
Electric dark correction enabled: true
Nonlinearity correction enabled: false
Boxcar width: 5
Stray light correction enabled: false
XAxis mode: Wavelengths
Stop averaging: false
Number of Pixels in Spectrum: 3648
>>>>>Begin Spectral Data<<<<<
177.566	5810.84
177.785	469.9
178.005	-4839.5
178.225	247.7
178.445	362.3
178.665	-66.78
178.885	451.54
179.105	1883.18
179.324	2168.69
179.544	-197.4
179.764	-1183.89
179.984	-451.31
180.204	-443.67
180.423	-483.19
180.643	-521.42
180.863	-409.27
181.083	-318.43
181.302	-395.98
181.522	-300.38
181.742	-268.93
181.961	-459.14
182.181	-416.21
182.401	-610.56
182.621	-2437.85
182.84	-1091.3
183.06	-793.95
183.279	-459.68
183.499	-338.37
183.719	-289.34
183.938	-279.12
184.158	-343.9
184.377	-229.58
184.597	-271.78
184.816	-149.72
185.036	-89.05
185.256	-57.62
185.475	-66.12
185.695	-82.04
185.914	-132.77
186.134	-270.85
186.353	-328.69
186.572	-427.73
186.792	-714.57
187.011	-289.71
187.231	-321.34
187.45	-218.67
187.67	-710.05
187.889	-1906.13
188.108	3784.81
188.328	-960.94
188.547	-306.94
188.766	-719.62
188.986	-875.6
189.205	-597.04
189.424	-446.41
189.644	-1095.25
189.863	-1307.33
190.082	-902.45
190.302	-1959.09
190.521	-1079.77
190.74	990.3
190.959	458.48
191.178	568.89
191.398	552.88
191.617	520.08
191.836	424.29
192.055	1266.48
192.274	476.87
192.494	441.58
192.713	482.3
192.932	994.24
193.151	855
193.37	1566.27
193.589	-998.57
193.808	-243.09
194.027	-302.34
194.246	-3594.97
194.465	593.1
194.685	1381.25
194.904	739.44
195.123	-829.42
195.342	-524.95
195.561	-261.6
195.78	-449.58
195.999	17723.94
196.218	733.08
196.436	697.12
196.655	-2532.64
196.874	-959.5
197.093	-1467.19
197.312	-1124.67
197.531	2903.99
197.75	971.02
197.969	-3291.49
198.188	-646.19
198.407	-178.93
198.625	-209.2
198.844	-161.97
199.063	-146.34
199.282	-315.85
199.501	-225.5
199.719	-172.15
199.938	-125.35
200.157	-133.46
200.376	-136.68
200.594	-213.53
200.813	-490.64
201.032	-328.92
201.251	-273.65
201.469	-248.28
201.688	-191.96
201.907	-319.73
202.125	-486.51
202.344	18880.95
202.563	3469.2
202.781	530.41
203	1491.9
203.218	994.06
203.437	932.01
203.656	517.11
203.874	294.44
204.093	254.31
204.311	329.28
204.53	316.45
204.748	477.62
204.967	259.42
205.185	277.38
205.404	320.5
205.622	249.21
205.841	179.21
206.059	198.76
206.278	263.16
206.496	652.85
206.715	310.1
206.933	271.12
207.151	205.91
207.37	256.89
207.588	248.56
207.806	189.54
208.025	315.08
208.243	-600.99
208.461	989.09
208.68	-6882.35
208.898	435
209.116	483.81
209.335	554.05
209.553	579.73
209.771	5790.42
209.989	1272.96
210.208	2950.95
210.426	-5324.23
210.644	2961.59
210.862	-2540.25
211.081	1337.83
211.299	-566.64
211.517	2623.55
211.735	-591.14
211.953	-211714.29
212.171	-4087.95
212.39	-11500.9
212.608	-32358.7
212.826	1083.81
213.044	742.96
213.262	533.27
213.48	3134.81
213.698	358.27
213.916	427.41
214.134	282.69
214.352	496.45
214.57	294.77
214.788	366.52
215.006	317.57
215.224	292.9
215.442	242.72
215.66	237.93
215.878	195.17
216.096	223.11
216.314	257.95
216.532	491.41
216.75	445.36
216.968	458.48
217.185	1107.34
217.403	1935.71
217.621	-6072.81
217.839	-1718.63
218.057	-2157.56
218.275	3838.57
218.492	1098.82
218.71	1752.75
218.928	486.46
219.146	420.35
219.363	328.47
219.581	230.86
219.799	163.18
220.017	157.1
220.234	156.18
220.452	135.99
220.67	132.66
220.887	157.12
221.105	194.92
221.323	164.88
221.54	161.98
221.758	222.07
221.976	260.18
222.193	255.04
222.411	165.71
222.629	157.25
222.846	181.92
223.064	217.35
223.281	180.84
223.499	164.89
223.716	168.6
223.934	140.53
224.151	130.43
224.369	117.94
224.586	117.9
224.804	120.97
225.021	116.88
225.239	88.05
225.456	69.03
225.674	75.05
225.891	61.76
226.108	80.77
226.326	81.12
226.543	74.06
226.76	62.9
226.978	62.88
227.195	70.29
227.413	56.62
227.63	51.55
227.847	43.38
228.064	35.17
228.282	31.78
228.499	25.66
228.716	23.29
228.934	20.36
229.151	23.86
229.368	21.94
229.585	18.19
229.802	20.5
230.02	18.44
230.237	20.97
230.454	22.4
230.671	21.29
230.888	20.71
231.105	23.15
231.323	24.22
231.54	21.17
231.757	21.5
231.974	19.82
232.191	19.72
232.408	26.53
232.625	25.24
232.842	23.33
233.059	32.27
233.276	29.49
233.493	28.42
233.71	26.33
233.927	30.05
234.144	31
234.361	29.89
234.578	30
234.795	25.74
235.012	24.55
235.229	27.42
235.446	23.56
235.663	24.82
235.879	24.42
236.096	21.68
236.313	21.1
236.53	21.82
236.747	30.38
236.964	27.97
237.181	28.73
237.397	29.39
237.614	29.09
237.831	28.17
238.048	31.94
238.264	34.4
238.481	36.2
238.698	33.74
238.915	29.9
239.131	23.28
239.348	27.3
239.565	30.31
239.781	31.05
239.998	28.21
240.215	28.29
240.431	27.91
240.648	24.08
240.865	23.51
241.081	22.73
241.298	23.78
241.514	25.04
241.731	21.28
241.947	21.19
242.164	19.43
242.38	19.97
242.597	19.66
242.814	19.42
243.03	19.02
243.246	19.99
243.463	21.08
243.679	20.73
243.896	17.98
244.112	19.72
244.329	17.66
244.545	17.78
244.762	16.18
244.978	17.6
245.194	16.26
245.411	16.56
245.627	15.36
245.843	14.02
246.06	14.18
246.276	15.67
246.492	15.13
246.709	15.55
246.925	15.38
247.141	15.61
247.357	14.26
247.574	13.95
247.79	13.59
248.006	13.07
248.222	12.71
248.439	12.8
248.655	13.26
248.871	14.08
249.087	14.33
249.303	13.26
249.519	13.54
249.736	15.43
249.952	15.1
250.168	16.79
250.384	16.64
250.6	17.84
250.816	16.69
251.032	14.56
251.248	12.78
251.464	11.99
251.68	14.68
251.896	13.62
252.112	13.01
252.328	14.88
252.544	16
252.76	18.92
252.976	18.83
253.192	20.43
253.408	20.68
253.624	23.69
253.84	24.29
254.056	27.02
254.272	28.64
254.487	30.43
254.703	29.01
254.919	27.93
255.135	24.99
255.351	25.78
255.567	27.56
255.782	30.8
255.998	27.38
256.214	28.45
256.43	23.35
256.646	25.04
256.861	23.68
257.077	24.01
257.293	22.99
257.508	23.43
257.724	23.42
257.94	20.64
258.155	17
258.371	15.01
258.587	13.67
258.802	13.47
259.018	12.99
259.234	12.06
259.449	12.81
259.665	11.76
259.88	12.34
260.096	11.98
260.312	11.41
260.527	12.19
260.743	12.93
260.958	13.34
261.174	13.62
261.389	13.88
261.605	14.17
261.82	13.55
262.036	15.19
262.251	15.95
262.466	15.43
262.682	17.52
262.897	18.17
263.113	18.22
263.328	18.16
263.543	17.75
263.759	16.73
263.974	17.36
264.189	17.64
264.405	17.61
264.62	16.57
264.835	17.3
265.051	15.62
265.266	15.97
265.481	16.27
265.696	18.05
265.912	18.77
266.127	18.02
266.342	17.11
266.557	17.89
266.773	17.56
266.988	16.93
267.203	17.68
267.418	16.49
267.633	14.8
267.848	16.33
268.064	14.83
268.279	14.08
268.494	13.47
268.709	13.78
268.924	13.26
269.139	12.95
269.354	12.45
269.569	11.21
269.784	13.12
269.999	14.24
270.214	12.2
270.429	11.39
270.644	11.21
270.859	10.98
271.074	12.08
271.289	12.26
271.504	12.38
271.719	12.77
271.934	13.15
272.149	11.71
272.363	11.48
272.578	10.47
272.793	11.01
273.008	10.55
273.223	11.26
273.438	9.03
273.653	9.61
273.867	9.35
274.082	8.32
274.297	8.87
274.512	10.09
274.726	10.02
274.941	12.03
275.156	10.72
275.371	12.17
275.585	11.65
275.8	13.78
276.015	13.13
276.229	13.43
276.444	14.83
276.659	13.94
276.873	13.48
277.088	13.73
277.302	13.28
277.517	15.65
277.732	15.96
277.946	16.98
278.161	16.93
278.375	16.5
278.59	15.64
278.804	15.02
279.019	15.43
279.233	15.22
279.448	15.79
279.662	15.02
279.877	14.61
280.091	13.39
280.306	12.19
280.52	12.45
280.735	10.13
280.949	11.01
281.163	11.48
281.378	11.96
281.592	11.49
281.806	11.97
282.021	11.14
282.235	11.66
282.449	12.45
282.664	12.88
282.878	12.02
283.092	14.44
283.307	14.51
283.521	14.88
283.735	14.9
283.949	15.74
284.164	14.54
284.378	15.61
284.592	14.66
284.806	14.24
285.02	14.03
285.234	13.9
285.449	13.1
285.663	12.69
285.877	11.43
286.091	10.88
286.305	10.17
286.519	9.42
286.733	8.49
286.947	8.77
287.161	8.41
287.375	8.77
287.589	9.03
287.803	9.8
288.017	10.17
288.231	10.6
288.445	9.78
288.659	10.58
288.873	10.65
289.087	10.59
289.301	10.19
289.515	9.87
289.729	9.93
289.943	9.38
290.157	9.3
290.371	10.02
290.584	10.41
290.798	11.44
291.012	12.25
291.226	12.76
291.44	13.7
291.654	14.14
291.867	15.25
292.081	15.17
292.295	16.54
292.509	16.45
292.722	15.56
292.936	15.41
293.15	15.31
293.364	14.84
293.577	14.78
293.791	14.05
294.005	15.41
294.218	14.5
294.432	14.35
294.645	13.48
294.859	12.79
295.073	12.34
295.286	12.83
295.5	11.86
295.713	10.9
295.927	10.6
296.14	11
296.354	9.12
296.568	9.33
296.781	8.83
296.994	8.74
297.208	8.71
297.421	8.94
297.635	8.31
297.848	9.24
298.062	8.78
298.275	9.53
298.489	10.23
298.702	10.45
298.915	10.68
299.129	11.18
299.342	11.89
299.555	12.76
299.769	12.87
299.982	12.99
300.195	12.74
300.409	13.81
300.622	14.32
300.835	13.88
301.048	13.5
301.262	13.26
301.475	13.6
301.688	14.52
301.901	13.67
302.115	13.99
302.328	14.67
302.541	13.86
302.754	13.31
302.967	13.08
303.18	13.2
303.393	13.47
303.607	13.88
303.82	13.83
304.033	12.68
304.246	13.01
304.459	12.5
304.672	11.42
304.885	11.5
305.098	12.01
305.311	10.98
305.524	11.3
305.737	11.83
305.95	12.52
306.163	10.94
306.376	11.5
306.589	10.5
306.802	11.48
307.015	12.08
307.228	12.52
307.44	12.58
307.653	13.19
307.866	11.61
308.079	12.42
308.292	12.17
308.505	14.19
308.718	12.8
308.93	13.78
309.143	13.23
309.356	14.05
309.569	13.97
309.781	14.33
309.994	14.13
310.207	14.39
310.42	13.21
310.632	11.32
310.845	11.16
311.058	10.5
311.27	10.65
311.483	9.69
311.696	8.7
311.908	8.67
312.121	8.29
312.333	8.53
312.546	9.22
312.759	9.92
312.971	11.39
313.184	11.28
313.396	11.77
313.609	12.23
313.821	12.92
314.034	13.96
314.246	14.41
314.459	14.32
314.671	13.96
314.884	13.41
315.096	12.54
315.309	12.05
315.521	11.77
315.733	11.57
315.946	10.51
316.158	10.55
316.371	9.3
316.583	10.11
316.795	10.61
317.008	10.63
317.22	12.22
317.432	12.99
317.644	13.53
317.857	13.37
318.069	14.07
318.281	14.28
318.494	13.88
318.706	14.89
318.918	14.18
319.13	14.62
319.342	15.05
319.555	12.97
319.767	14.67
319.979	15.71
320.191	15.96
320.403	16.03
320.615	16.03
320.827	17.85
321.039	18.22
321.252	17.77
321.464	15.8
321.676	15.99
321.888	16.2
322.1	14.66
322.312	11.45
322.524	10.97
322.736	11.05
322.948	10.12
323.16	8.25
323.372	7.58
323.584	8.1
323.796	7.87
324.007	6.96
324.219	7.54
324.431	7.07
324.643	8.55
324.855	8.31
325.067	8.57
325.279	8.95
325.491	10.54
325.702	9.73
325.914	9.84
326.126	11.48
326.338	12.23
326.55	11.5
326.761	12.56
326.973	13.39
327.185	14.33
327.396	14.81
327.608	15.77
327.82	15.11
328.032	15.68
328.243	15.14
328.455	14.92
328.666	14.88
328.878	15.38
329.09	14.13
329.301	12.92
329.513	12.61
329.725	11.92
329.936	11.31
330.148	11.38
330.359	10.57
330.571	10.5
330.782	10.5
330.994	10.44
331.205	11.55
331.417	11.94
331.628	12.59
331.84	12.86
332.051	13.34
332.262	14.02
332.474	13.25
332.685	15.04
332.897	14.5
333.108	14.62
333.319	13.89
333.531	13.19
333.742	14.32
333.953	13.43
334.165	13.6
334.376	12.88
334.587	11.57
334.799	12.09
335.01	10.69
335.221	11.32
335.432	10.29
335.644	10.37
335.855	9.97
336.066	9.54
336.277	9.84
336.488	10.01
336.7	9.47
336.911	10.61
337.122	10.34
337.333	11.08
337.544	11.01
337.755	11.82
337.966	12.02
338.177	12.09
338.388	11.83
338.599	12.25
338.811	10.98
339.022	11.28
339.233	11.65
339.444	11.84
339.655	11.33
339.866	11.31
340.076	11.73
340.287	11.86
340.498	11.86
340.709	11.01
340.92	10.85
341.131	11.63
341.342	11.68
341.553	10.64
341.764	10.2
341.975	10.3
342.185	11.07
342.396	10.53
342.607	10.71
342.818	10.98
343.029	11.48
343.239	11.36
343.45	11.51
343.661	11.65
343.872	11.47
344.082	11.49
344.293	11.44
344.504	11.05
344.714	10.5
344.925	9.38
345.136	9.31
345.346	7.5
345.557	8.06
345.768	7.69
345.978	7.38
346.189	8.14
346.399	8.5
346.61	8.59
346.821	8.5
347.031	9.25
347.242	9.72
347.452	9.73
347.663	10.93
347.873	11.4
348.084	10.95
348.294	11.48
348.504	11
348.715	11.12
348.925	10.78
349.136	10.31
349.346	9.27
349.557	9.43
349.767	9.87
349.977	10.5
350.188	10.33
350.398	11.47
350.608	11.28
350.819	10.35
351.029	9.93
351.239	10.21
351.449	10.06
351.66	11.27
351.87	12.16
352.08	11.32
352.29	10.86
352.501	10.12
352.711	9.45
352.921	9.9
353.131	10.03
353.341	10.01
353.552	9.97
353.762	10.17
353.972	9.44
354.182	9.02
354.392	9.29
354.602	9.81
354.812	9.54
355.022	9.45
355.232	9.58
355.442	10.47
355.652	10.56
355.862	9.85
356.072	10.29
356.282	10.3
356.492	10.52
356.702	10.3
356.912	10.53
357.122	10.96
357.332	10.68
357.542	9.75
357.752	9.62
357.962	9.27
358.171	9.37
358.381	9.49
358.591	8.97
358.801	8.25
359.011	9.12
359.221	8.27
359.43	8.33
359.64	8.72
359.85	9.02
360.06	8.72
360.269	9.13
360.479	9.38
360.689	8.44
360.899	8.9
361.108	8.99
361.318	8.66
361.528	8.58
361.737	7.92
361.947	7.63
362.156	7.84
362.366	7.71
362.576	7.55
362.785	7.61
362.995	7.42
363.204	7.25
363.414	7.26
363.623	6.99
363.833	7.52
364.042	7.88
364.252	8.37
364.461	7.71
364.671	7.6
364.88	7.63
365.09	8.01
365.299	9.04
365.509	8.99
365.718	8.75
365.927	8.25
366.137	8.36
366.346	8.61
366.555	7.84
366.765	8.59
366.974	9.29
367.183	9.39
367.393	8.82
367.602	8
367.811	8.02
368.021	7.74
368.23	8.47
368.439	8.11
368.648	8.02
368.857	9.15
369.067	8.56
369.276	8.18
369.485	8.1
369.694	8.16
369.903	8.86
370.112	9.03
370.321	9.13
370.531	8.3
370.74	8.17
370.949	8.18
371.158	7.52
371.367	7.67
371.576	6.98
371.785	6.55
371.994	6.38
372.203	6.36
372.412	6.06
372.621	6.48
372.83	6.71
373.039	6.87
373.248	6.51
373.457	6.45
373.666	6.49
373.874	6.8
374.083	7.68
374.292	7.89
374.501	7.27
374.71	7.1
374.919	7.04
375.128	7.05
375.336	6.99
375.545	7.26
375.754	6.81
375.963	6.6
376.171	6.66
376.38	6.38
376.589	6.31
376.798	6.48
377.006	6.8
377.215	7.11
377.424	6.78
377.632	6.35
377.841	6.14
378.05	6.48
378.258	6.41
378.467	6.64
378.675	6.54
378.884	6.28
379.093	6.37
379.301	6.05
379.51	5.44
379.718	5.43
379.927	5.94
380.135	5.51
380.344	5.53
380.552	5.45
380.761	5.61
380.969	5.36
381.177	5.49
381.386	4.88
381.594	5.02
381.803	4.99
382.011	5.05
382.219	4.63
382.428	4.38
382.636	3.82
382.845	4.21
383.053	4.06
383.261	3.9
383.469	3.97
383.678	4.69
383.886	4.5
384.094	4.42
384.302	4.81
384.511	5.25
384.719	5.75
384.927	6.07
385.135	6.19
385.343	6.26
385.552	6.47
385.76	6.21
385.968	5.98
386.176	6.07
386.384	6.19
386.592	5.64
386.8	5.33
387.008	5.45
387.216	5.43
387.424	5.31
387.633	5.18
387.841	5.02
388.049	4.92
388.257	4.72
388.465	4.53
388.672	4.43
388.88	4.81
389.088	4.88
389.296	4.56
389.504	4.62
389.712	4.45
389.92	4.26
390.128	4.22
390.336	4.63
390.544	4.95
390.751	4.71
390.959	4.99
391.167	5.02
391.375	5.11
391.583	5.08
391.79	5
391.998	4.89
392.206	5
392.414	4.97
392.621	5.07
392.829	5.08
393.037	5.35
393.244	5.11
393.452	5.18
393.66	4.78
393.867	5.12
394.075	5.05
394.283	5.2
394.49	4.93
394.698	4.97
394.905	4.68
395.113	4.46
395.32	4.47
395.528	4.42
395.735	4.37
395.943	4.78
396.15	4.48
396.358	4.71
396.565	4.42
396.773	4.95
396.98	4.89
397.188	4.92
397.395	5.1
397.602	5.04
397.81	4.87
398.017	5
398.225	4.61
398.432	4.88
398.639	4.6
398.847	4.67
399.054	4.13
399.261	4.16
399.468	4.41
399.676	4.2
399.883	4.3
400.09	4.52
400.297	4.43
400.505	4.63
400.712	4.45
400.919	4.85
401.126	5
401.333	5.06
401.54	5.17
401.748	4.91
401.955	5.01
402.162	5.03
402.369	5.14
402.576	4.9
402.783	5.04
402.99	5.01
403.197	4.6
403.404	4.4
403.611	4.49
403.818	4.48
404.025	4.4
404.232	4.35
404.439	4.14
404.646	4.02
404.853	3.91
405.06	3.8
405.267	3.82
405.474	3.85
405.681	3.81
405.887	3.83
406.094	3.66
406.301	3.69
406.508	3.8
406.715	4.02
406.922	4.18
407.128	4.16
407.335	4.14
407.542	4.11
407.749	4.37
407.955	4.68
408.162	4.68
408.369	5.06
408.575	5.11
408.782	4.91
408.989	4.78
409.195	4.7
409.402	5.06
409.609	5.33
409.815	5.46
410.022	5.43
410.228	5.28
410.435	5.62
410.642	5.25
410.848	5.2
411.055	5.17
411.261	5.28
411.468	5.29
411.674	4.96
411.881	4.56
412.087	4.78
412.294	4.63
412.5	4.43
412.706	4.16
412.913	4.05
413.119	3.98
413.326	3.89
413.532	3.97
413.738	3.87
413.945	4.14
414.151	3.98
414.357	3.74
414.564	3.53
414.77	3.54
414.976	3.22
415.182	3.64
415.389	3.67
415.595	3.67
415.801	3.4
416.007	3.39
416.214	3.27
416.42	3.53
416.626	3.56
416.832	3.78
417.038	3.7
417.244	3.94
417.45	3.67
417.657	3.83
417.863	4.11
418.069	4.21
418.275	4.23
418.481	4.11
418.687	3.97
418.893	3.85
419.099	3.77
419.305	4.08
419.511	4.04
419.717	4.03
419.923	3.81
420.129	3.65
420.335	3.68
420.541	3.71
420.746	3.78
420.952	3.87
421.158	3.92
421.364	3.96
421.57	3.83
421.776	3.8
421.982	3.86
422.187	3.75
422.393	3.78
422.599	3.71
422.805	3.65
423.01	3.62
423.216	3.53
423.422	3.47
423.628	3.51
423.833	3.48
424.039	3.41
424.245	3.39
424.45	3.73
424.656	3.68
424.862	3.72
425.067	3.84
425.273	3.83
425.478	3.89
425.684	3.86
425.889	3.97
426.095	4.06
426.301	4.19
426.506	4.15
426.712	4.1
426.917	3.97
427.123	4.13
427.328	4.15
427.533	4.25
427.739	4.28
427.944	4.28
428.15	4.09
428.355	3.94
428.561	3.85
428.766	4
428.971	3.97
429.177	4.19
429.382	4.2
429.587	4.17
429.793	4.27
429.998	4.43
430.203	4.53
430.408	4.46
430.614	4.63
430.819	4.71
431.024	4.59
431.229	4.55
431.434	4.71
431.64	4.54
431.845	4.61
432.05	4.51
432.255	4.33
432.46	4.24
432.665	4.17
432.87	4.13
433.076	4.17
433.281	4.28
433.486	4.23
433.691	3.99
433.896	3.88
434.101	3.62
434.306	3.72
434.511	3.67
434.716	3.76
434.921	3.91
435.126	3.64
435.331	3.6
435.535	3.42
435.74	3.49
435.945	3.63
436.15	3.76
436.355	3.87
436.56	3.83
436.765	3.92
436.97	3.64
437.174	3.63
437.379	3.95
437.584	3.98
437.789	4.02
437.993	4.01
438.198	4.06
438.403	4.07
438.608	4.17
438.812	3.93
439.017	3.98
439.222	4.03
439.426	3.96
439.631	3.99
439.836	3.9
440.04	3.87
440.245	3.87
440.45	3.78
440.654	3.72
440.859	3.68
441.063	3.7
441.268	3.59
441.472	3.79
441.677	3.77
441.881	3.57
442.086	3.49
442.29	3.54
442.495	3.49
442.699	3.55
442.904	3.61
443.108	3.55
443.312	3.66
443.517	3.76
443.721	3.58
443.925	3.67
444.13	3.84
444.334	3.87
444.538	3.79
444.743	3.73
444.947	3.57
445.151	3.53
445.356	3.44
445.56	3.47
445.764	3.39
445.968	3.44
446.173	3.42
446.377	3.4
446.581	3.46
446.785	3.49
446.989	3.53
447.193	3.62
447.398	3.52
447.602	3.55
447.806	3.55
448.01	3.71
448.214	3.79
448.418	3.81
448.622	3.86
448.826	3.86
449.03	3.97
449.234	4.03
449.438	3.88
449.642	4.07
449.846	4.05
450.05	4.01
450.254	3.82
450.458	3.9
450.662	3.71
450.866	3.49
451.069	3.39
451.273	3.25
451.477	3.22
451.681	3.27
451.885	3.17
452.089	3.2
452.292	3.28
452.496	3.41
452.7	3.31
452.904	3.44
453.107	3.5
453.311	3.61
453.515	3.52
453.719	3.34
453.922	3.43
454.126	3.36
454.33	3.39
454.533	3.3
454.737	3.06
454.94	3.15
455.144	3.23
455.348	3.37
455.551	3.43
455.755	3.42
455.958	3.59
456.162	3.59
456.365	3.72
456.569	3.74
456.772	3.8
456.976	3.78
457.179	3.6
457.383	3.54
457.586	3.53
457.79	3.39
457.993	3.53
458.196	3.42
458.4	3.53
458.603	3.44
458.807	3.41
459.01	3.49
459.213	3.51
459.417	3.48
459.62	3.53
459.823	3.43
460.026	3.41
460.23	3.5
460.433	3.61
460.636	3.6
460.839	3.7
461.042	3.81
461.246	3.82
461.449	3.78
461.652	3.98
461.855	3.79
462.058	3.87
462.261	3.83
462.464	3.72
462.668	3.79
462.871	3.89
463.074	3.79
463.277	3.61
463.48	3.63
463.683	3.78
463.886	3.73
464.089	3.77
464.292	3.8
464.495	4.06
464.698	4.23
464.901	4.15
465.104	4.11
465.306	4.1
465.509	4.2
465.712	4
465.915	3.88
466.118	3.67
466.321	3.66
466.524	3.62
466.726	3.66
466.929	3.38
467.132	3.29
467.335	3.03
467.538	2.91
467.74	2.85
467.943	3.07
468.146	3.33
468.348	3.39
468.551	3.54
468.754	3.63
468.956	3.43
469.159	3.6
469.362	3.54
469.564	3.72
469.767	3.81
469.969	3.83
470.172	3.46
470.375	3.33
470.577	3.4
470.78	3.28
470.982	3.21
471.185	3.3
471.387	3.3
471.59	3.45
471.792	3.45
471.995	3.61
472.197	3.56
472.399	3.72
472.602	3.52
472.804	3.52
473.007	3.44
473.209	3.4
473.411	3.44
473.614	3.38
473.816	3.36
474.018	3.42
474.22	3.32
474.423	3.38
474.625	3.46
474.827	3.61
475.03	3.64
475.232	3.8
475.434	3.88
475.636	4.01
475.838	4.06
476.04	4.04
476.243	3.97
476.445	3.89
476.647	3.82
476.849	3.64
477.051	3.62
477.253	3.65
477.455	3.62
477.657	3.41
477.859	3.25
478.061	3.08
478.263	3.03
478.465	3.03
478.667	3.09
478.869	3.08
479.071	3.1
479.273	3.13
479.475	2.96
479.677	2.97
479.879	3.03
480.081	3.07
480.283	3.19
480.485	3.04
480.686	3.02
480.888	3.11
481.09	3.13
481.292	3.13
481.494	3.1
481.695	3.25
481.897	3.16
482.099	3.18
482.301	3.14
482.502	3.08
482.704	3.19
482.906	3.16
483.107	3.1
483.309	3.09
483.511	3.14
483.712	3.12
483.914	3.01
484.115	2.99
484.317	2.95
484.519	2.94
484.72	2.96
484.922	2.9
485.123	2.89
485.325	2.86
485.526	2.87
485.728	2.81
485.929	2.74
486.131	2.79
486.332	2.84
486.534	2.84
486.735	2.83
486.936	2.79
487.138	2.82
487.339	2.79
487.541	2.86
487.742	2.82
487.943	2.82
488.144	2.85
488.346	2.81
488.547	2.84
488.748	2.92
488.95	2.9
489.151	2.93
489.352	3
489.553	3.01
489.755	2.94
489.956	2.92
490.157	2.94
490.358	2.95
490.559	3.08
490.76	3
490.961	2.97
491.163	3.07
491.364	3.1
491.565	2.98
491.766	3
491.967	3.01
492.168	3.01
492.369	3.07
492.57	3.09
492.771	3.08
492.972	3.16
493.173	3.22
493.374	3.12
493.575	3.13
493.776	3.28
493.976	3.38
494.177	3.45
494.378	3.62
494.579	3.52
494.78	3.64
494.981	3.48
495.182	3.43
495.382	3.49
495.583	3.55
495.784	3.49
495.985	3.55
496.185	3.34
496.386	3.21
496.587	3.25
496.788	3.34
496.988	3.34
497.189	3.45
497.39	3.45
497.59	3.4
497.791	3.44
497.992	3.34
498.192	3.21
498.393	3.33
498.593	3.42
498.794	3.26
498.994	3.27
499.195	3.25
499.395	3.24
499.596	3.35
499.796	3.18
499.997	3.19
500.197	3.44
500.398	3.46
500.598	3.51
500.799	3.6
500.999	3.75
501.199	3.6
501.4	3.64
501.6	3.61
501.801	3.56
502.001	3.75
502.201	3.82
502.402	3.76
502.602	3.76
502.802	3.79
503.002	3.76
503.203	3.66
503.403	3.73
503.603	3.6
503.803	3.62
504.003	3.63
504.204	3.65
504.404	3.55
504.604	3.43
504.804	3.63
505.004	3.53
505.204	3.57
505.404	3.7
505.604	3.85
505.804	3.88
506.005	3.98
506.205	3.92
506.405	3.94
506.605	3.95
506.805	4.07
507.005	3.92
507.204	4
507.404	3.89
507.604	3.81
507.804	3.63
508.004	3.7
508.204	3.7
508.404	3.78
508.604	3.65
508.804	3.67
509.003	3.69
509.203	3.76
509.403	3.72
509.603	3.74
509.803	3.94
510.002	4.09
510.202	3.93
510.402	3.82
510.602	3.78
510.801	3.77
511.001	3.73
511.201	3.72
511.4	3.74
511.6	3.65
511.8	3.67
511.999	3.67
512.199	3.54
512.398	3.63
512.598	3.77
512.797	3.84
512.997	3.95
513.197	4.05
513.396	4.1
513.596	4.12
513.795	4.31
513.994	4.36
514.194	4.23
514.393	4.41
514.593	4.53
514.792	4.51
514.992	4.42
515.191	4.33
515.39	4.33
515.59	4.16
515.789	4.18
515.988	4.06
516.188	4.07
516.387	3.99
516.586	3.86
516.786	3.93
516.985	3.89
517.184	3.9
517.383	4.04
517.582	4.06
517.782	4.12
517.981	3.94
518.18	3.9
518.379	3.97
518.578	3.9
518.777	3.98
518.976	3.83
519.176	3.93
519.375	3.99
519.574	3.94
519.773	3.91
519.972	3.86
520.171	3.96
520.37	4.03
520.569	3.93
520.768	4.09
520.967	4.11
521.166	4.15
521.365	4.11
521.564	4.26
521.762	4.31
521.961	4.32
522.16	4.45
522.359	4.41
522.558	4.45
522.757	4.57
522.956	4.48
523.154	4.4
523.353	4.39
523.552	4.24
523.751	4.21
523.949	4.1
524.148	4.11
524.347	4.15
524.546	4.16
524.744	4.08
524.943	4.05
525.142	4.12
525.34	4.28
525.539	4.32
525.737	4.44
525.936	4.38
526.135	4.44
526.333	4.36
526.532	4.29
526.73	4.34
526.929	4.36
527.127	4.33
527.326	4.34
527.524	4.26
527.723	4.25
527.921	4.26
528.12	4.22
528.318	4.19
528.516	4.23
528.715	4.21
528.913	4.19
529.112	4.21
529.31	4.19
529.508	4.16
529.707	4.17
529.905	4.18
530.103	4.1
530.301	4.09
530.5	4.11
530.698	4.11
530.896	4.19
531.094	4.22
531.293	4.24
531.491	4.4
531.689	4.48
531.887	4.46
532.085	4.5
532.283	4.55
532.481	4.69
532.68	4.68
532.878	4.69
533.076	4.69
533.274	4.69
533.472	4.76
533.67	4.67
533.868	4.64
534.066	4.66
534.264	4.6
534.462	4.66
534.66	4.67
534.858	4.77
535.056	4.71
535.253	4.7
535.451	4.76
535.649	4.66
535.847	4.82
536.045	4.8
536.243	4.88
536.441	5.13
536.638	5.21
536.836	5.18
537.034	5.23
537.232	5.41
537.43	5.51
537.627	5.62
537.825	5.71
538.023	5.61
538.22	5.84
538.418	5.84
538.616	5.82
538.813	5.86
539.011	6.04
539.209	6.05
539.406	6.01
539.604	6.07
539.801	6.03
539.999	6.05
540.196	6.2
540.394	6.12
540.591	6.2
540.789	6.04
540.986	5.89
541.184	5.84
541.381	5.84
541.579	5.91
541.776	5.81
541.974	5.76
542.171	5.71
542.368	5.67
542.566	5.7
542.763	5.67
542.96	5.81
543.158	6.01
543.355	6.03
543.552	6.09
543.75	6.12
543.947	6.07
544.144	6.14
544.341	6.29
544.539	6.34
544.736	6.44
544.933	6.44
545.13	6.4
545.327	6.29
545.524	6.34
545.722	6.37
545.919	6.29
546.116	6.58
546.313	6.64
546.51	6.66
546.707	6.72
546.904	6.63
547.101	6.68
547.298	6.74
547.495	6.83
547.692	6.8
547.889	6.74
548.086	6.89
548.283	6.94
548.48	7.03
548.677	6.98
548.874	7
549.07	7.13
549.267	7.21
549.464	7.25
549.661	7.35
549.858	7.63
550.055	7.86
550.251	7.78
550.448	7.65
550.645	7.63
550.842	7.95
551.038	7.91
551.235	7.83
551.432	7.67
551.628	7.67
551.825	7.85
552.022	7.72
552.218	7.73
552.415	8.02
552.612	8.07
552.808	8.07
553.005	7.92
553.201	8.12
553.398	8.21
553.594	8.36
553.791	8.6
553.987	8.57
554.184	8.68
554.38	8.6
554.577	8.37
554.773	8.61
554.97	8.89
555.166	9.16
555.362	9.07
555.559	9.16
555.755	9.34
555.952	9.2
556.148	9.12
556.344	9.23
556.541	9.23
556.737	9.46
556.933	9.46
557.129	9.28
557.326	9.19
557.522	9.57
557.718	9.75
557.914	9.68
558.11	9.83
558.307	9.84
558.503	9.86
558.699	9.94
558.895	10.26
559.091	10.26
559.287	10.4
559.483	10.46
559.679	10.49
559.876	10.34
560.072	10.47
560.268	10.46
560.464	10.51
560.66	10.53
560.856	10.85
561.052	10.68
561.247	10.98
561.443	11.1
561.639	11.3
561.835	11.13
562.031	11.34
562.227	11.45
562.423	11.46
562.619	11.63
562.815	11.81
563.01	11.85
563.206	11.86
563.402	11.44
563.598	11.44
563.793	11.4
563.989	11.58
564.185	11.45
564.381	11.64
564.576	11.65
564.772	11.84
564.968	11.91
565.163	11.78
565.359	11.63
565.555	11.91
565.75	12
565.946	12
566.141	11.85
566.337	12.04
566.532	12.03
566.728	12.25
566.923	12.22
567.119	12.09
567.314	12.11
567.51	12.37
567.705	12.53
567.901	12.48
568.096	12.6
568.292	12.91
568.487	12.89
568.682	12.9
568.878	12.92
569.073	13.03
569.268	13.13
569.464	13.33
569.659	13.44
569.854	13.52
570.05	13.67
570.245	13.74
570.44	13.66
570.635	13.85
570.831	13.92
571.026	13.98
571.221	13.86
571.416	13.82
571.611	13.81
571.806	13.79
572.002	13.8
572.197	13.81
572.392	13.77
572.587	13.85
572.782	13.9
572.977	14.1
573.172	14.14
573.367	14.22
573.562	14.42
573.757	14.44
573.952	14.52
574.147	14.62
574.342	14.79
574.537	15
574.732	14.99
574.927	14.91
575.121	14.97
575.316	14.92
575.511	15
575.706	15.07
575.901	15.22
576.096	15.43
576.29	15.51
576.485	15.58
576.68	15.53
576.875	15.59
577.069	15.72
577.264	15.58
577.459	15.88
577.654	15.94
577.848	15.95
578.043	16.05
578.238	15.92
578.432	15.78
578.627	15.72
578.821	15.78
579.016	15.83
579.21	16.16
579.405	16.17
579.6	16.2
579.794	16.17
579.989	16.22
580.183	16.11
580.378	16.16
580.572	16.39
580.766	16.28
580.961	16.19
581.155	16.35
581.35	16.16
581.544	16.11
581.738	16.1
581.933	16.51
582.127	16.85
582.321	17.07
582.516	16.98
582.71	17.09
582.904	17.28
583.099	17.41
583.293	17.26
583.487	17.33
583.681	17.74
583.875	17.7
584.07	17.66
584.264	17.43
584.458	17.23
584.652	17.5
584.846	17.47
585.04	17.57
585.234	17.73
585.428	18.06
585.623	18.12
585.817	17.94
586.011	18.13
586.205	18.29
586.399	18.46
586.593	18.68
586.787	18.75
586.981	18.68
587.174	18.89
587.368	18.7
587.562	18.53
587.756	18.73
587.95	18.74
588.144	18.9
588.338	18.97
588.532	19.05
588.725	19.04
588.919	19.1
589.113	19.21
589.307	19.18
589.501	19.31
589.694	19.57
589.888	19.57
590.082	19.75
590.275	19.7
590.469	19.7
590.663	19.48
590.856	19.77
591.05	19.72
591.244	19.69
591.437	19.59
591.631	19.6
591.824	19.39
592.018	19.41
592.212	19.56
592.405	19.35
592.599	19.36
592.792	19.8
592.986	19.69
593.179	19.76
593.372	19.91
593.566	20.17
593.759	20.49
593.953	20.64
594.146	20.48
594.339	20.47
594.533	20.75
594.726	20.62
594.92	20.55
595.113	20.65
595.306	20.67
595.499	20.46
595.693	20.6
595.886	20.44
596.079	20.62
596.272	20.58
596.466	20.53
596.659	20.47
596.852	20.55
597.045	20.56
597.238	20.56
597.431	20.52
597.624	20.55
597.818	20.22
598.011	20.33
598.204	20.18
598.397	20.44
598.59	20.43
598.783	20.53
598.976	20.44
599.169	20.27
599.362	20.28
599.555	20.74
599.748	21.26
599.941	21.4
600.134	21.47
600.326	21.8
600.519	21.97
600.712	22.07
600.905	22.15
601.098	22.53
601.291	22.76
601.483	22.73
601.676	22.6
601.869	22.36
602.062	22.57
602.255	22.56
602.447	22.53
602.64	22.49
602.833	22.77
603.025	22.51
603.218	22.35
603.411	22.2
603.603	22.23
603.796	21.95
603.989	22.14
604.181	22.07
604.374	22.21
604.566	22.03
604.759	22.02
604.951	21.73
605.144	21.77
605.336	21.9
605.529	21.94
605.721	22.02
605.914	22.22
606.106	22.09
606.299	22.05
606.491	21.9
606.683	22.14
606.876	22.09
607.068	22.22
607.26	22.43
607.453	22.58
607.645	22.68
607.837	22.61
608.03	22.71
608.222	22.67
608.414	23.06
608.606	23.21
608.799	23.13
608.991	23
609.183	23.18
609.375	23.16
609.567	22.85
609.759	23
609.952	23.08
610.144	23.16
610.336	23.13
610.528	22.78
610.72	22.72
610.912	22.98
611.104	23.3
611.296	23.25
611.488	23.27
611.68	23.52
611.872	23.36
612.064	23.59
612.256	23.54
612.448	23.78
612.64	23.72
612.832	23.82
613.023	23.5
613.215	23.29
613.407	23.44
613.599	23.62
613.791	23.62
613.983	23.76
614.174	23.73
614.366	23.81
614.558	23.94
614.75	24.09
614.941	24.1
615.133	24.44
615.325	24.7
615.516	24.65
615.708	24.64
615.9	24.36
616.091	24.14
616.283	24.18
616.475	24.09
616.666	24.18
616.858	24.77
617.049	24.41
617.241	24.26
617.432	24.23
617.624	24.3
617.815	24.18
618.007	24.59
618.198	24.97
618.39	24.58
618.581	24.7
618.773	24.47
618.964	24.49
619.155	24.9
619.347	24.95
619.538	24.81
619.729	25.04
619.921	25.2
620.112	25.18
620.303	25.47
620.494	25.96
620.686	26.08
620.877	26.13
621.068	25.74
621.259	26.01
621.451	26.01
621.642	26.23
621.833	25.94
622.024	25.9
622.215	25.95
622.406	25.74
622.597	25.55
622.788	25.35
622.98	25.55
623.171	25.59
623.362	25.49
623.553	25.82
623.744	25.62
623.935	25.97
624.126	25.92
624.317	25.88
624.508	26.05
624.698	26.06
624.889	26.39
625.08	26.5
625.271	26.84
625.462	26.7
625.653	26.45
625.844	26.47
626.034	26.21
626.225	26.2
626.416	25.96
626.607	25.91
626.798	26.05
626.988	25.89
627.179	25.97
627.37	25.71
627.56	25.88
627.751	26.05
627.942	26.29
628.132	26.34
628.323	26.49
628.514	26.94
628.704	26.76
628.895	26.67
629.085	26.59
629.276	26.68
629.466	26.77
629.657	26.67
629.847	26.55
630.038	26.42
630.228	26.49
630.419	26.45
630.609	26.32
630.8	26.46
630.99	26.52
631.181	26.89
631.371	26.71
631.561	26.9
631.752	27.1
631.942	27.27
632.132	27.46
632.323	27.55
632.513	27.93
632.703	28.23
632.893	28.15
633.084	28.18
633.274	27.96
633.464	27.52
633.654	27.44
633.844	27.63
634.034	27.24
634.225	27.02
634.415	26.96
634.605	26.93
634.795	26.73
634.985	26.97
635.175	26.89
635.365	26.91
635.555	27.41
635.745	27.34
635.935	26.96
636.125	27.35
636.315	27.78
636.505	28.09
636.695	27.69
636.885	27.55
637.075	27.49
637.265	27.81
637.455	27.74
637.644	27.69
637.834	28.08
638.024	28.12
638.214	27.86
638.404	27.56
638.593	27.6
638.783	27.78
638.973	28.07
639.163	27.99
639.352	27.86
639.542	28.26
639.732	28.65
639.921	28.46
640.111	28.86
640.301	29.07
640.49	29.11
640.68	28.89
640.87	29.18
641.059	29.21
641.249	29.67
641.438	29.61
641.628	29.53
641.817	29.01
642.007	29.18
642.196	29.03
642.386	29.27
642.575	29.67
642.764	29.52
642.954	29.54
643.143	29.81
643.333	29.7
643.522	29.81
643.711	29.72
643.901	29.91
644.09	29.75
644.279	29.61
644.469	29.32
644.658	29.27
644.847	29.42
645.036	29.27
645.226	29.01
645.415	29.03
645.604	29.1
645.793	29.43
645.982	29.37
646.171	29.31
646.361	29.89
646.55	30.19
646.739	29.83
646.928	29.95
647.117	30.02
647.306	29.94
647.495	29.9
647.684	30.17
647.873	29.91
648.062	30.04
648.251	30.27
648.44	29.94
648.629	29.55
648.818	29.79
649.007	29.76
649.196	30.1
649.384	30.05
649.573	29.99
649.762	29.55
649.951	29.56
650.14	29.58
650.328	29.44
650.517	29.7
650.706	30.08
650.895	30.25
651.083	30.28
651.272	29.67
651.461	30.06
651.65	30.43
651.838	30.77
652.027	30.84
652.216	30.85
652.404	31.17
652.593	30.96
652.781	31.15
652.97	30.96
653.158	31.11
653.347	31.62
653.535	31.41
653.724	30.84
653.912	31.1
654.101	31.04
654.289	31.18
654.478	30.95
654.666	31.33
654.855	31.01
655.043	30.9
655.231	30.79
655.42	30.87
655.608	31.13
655.796	31.5
655.985	31.01
656.173	30.94
656.361	30.84
656.55	31.2
656.738	30.68
656.926	30.88
657.114	31.5
657.302	31.69
657.491	31.29
657.679	30.77
657.867	30.85
658.055	31.01
658.243	31.01
658.431	31.1
658.619	30.89
658.807	31.26
658.996	31.21
659.184	30.92
659.372	30.89
659.56	31
659.748	31.12
659.936	30.95
660.124	31.17
660.311	31.39
660.499	31.26
660.687	31.38
660.875	31.41
661.063	31.57
661.251	31.36
661.439	31.51
661.627	31.8
661.814	32.23
662.002	32.11
662.19	32.19
662.378	32.33
662.565	32.88
662.753	33.08
662.941	33.27
663.129	33.53
663.316	34.18
663.504	33.84
663.692	33.94
663.879	33.87
664.067	34.28
664.254	34.34
664.442	33.98
664.63	33.57
664.817	33.41
665.005	33.35
665.192	33.2
665.38	32.81
665.567	33.11
665.755	33.07
665.942	33.31
666.13	33.53
666.317	33.24
666.504	33.28
666.692	33.73
666.879	33.57
667.067	33.3
667.254	33.1
667.441	33.06
667.629	32.78
667.816	32.53
668.003	32.37
668.19	32.33
668.378	32.41
668.565	32.52
668.752	32.03
668.939	31.89
669.127	31.97
669.314	32.03
669.501	32.36
669.688	32.58
669.875	32.58
670.062	32.91
670.249	33.29
670.436	33.47
670.623	33.15
670.81	33.73
670.997	33.58
671.184	33.87
671.371	34.3
671.558	34.41
671.745	34.51
671.932	34.64
672.119	34.11
672.306	33.48
672.493	33.39
672.68	34.27
672.867	34.84
673.054	35.38
673.24	35.33
673.427	35.26
673.614	35.45
673.801	35.69
673.988	36.1
674.174	36.15
674.361	36.46
674.548	36.35
674.734	36.08
674.921	34.99
675.108	35.27
675.294	34.6
675.481	34.52
675.668	34.27
675.854	33.98
676.041	33.77
676.227	33.88
676.414	34.31
676.601	34.67
676.787	34.63
676.974	34.91
677.16	34.83
677.347	35.27
677.533	35.08
677.719	34.66
677.906	34.74
678.092	35.11
678.279	34.48
678.465	34.04
678.651	33.98
678.838	34.34
679.024	34.35
679.21	34.01
679.397	34.02
679.583	34.19
679.769	34.51
679.955	34.08
680.142	33.72
680.328	34.68
680.514	34.69
680.7	34.36
680.886	34.15
681.073	34.24
681.259	34.56
681.445	34.93
681.631	34.72
681.817	34.78
682.003	35.33
682.189	35.51
682.375	35.39
682.561	35.29
682.747	35.86
682.933	35.91
683.119	35.96
683.305	36.06
683.491	35.74
683.677	35.94
683.863	36.13
684.049	35.97
684.235	35.8
684.42	35.73
684.606	35.78
684.792	35.93
684.978	35.74
685.164	35.59
685.349	35.21
685.535	35.67
685.721	35.43
685.907	35.14
686.092	35.02
686.278	35.22
686.464	35.05
686.649	35.04
686.835	34.82
687.021	35.12
687.206	35.26
687.392	35.26
687.577	35
687.763	35.3
687.948	35.55
688.134	35.78
688.319	36.04
688.505	36.58
688.69	37.23
688.876	37.09
689.061	37.28
689.247	37.37
689.432	37.34
689.618	36.96
689.803	36.96
689.988	36.68
690.174	36.93
690.359	36.56
690.544	36.04
690.73	35.83
690.915	36.16
691.1	36.26
691.285	36.17
691.471	36.8
691.656	37.67
691.841	37.75
692.026	38.2
692.211	38.44
692.396	38.72
692.582	39.01
692.767	39.13
692.952	38.56
693.137	38.21
693.322	38.29
693.507	38.22
693.692	37.91
693.877	37.78
694.062	37.61
694.247	37.11
694.432	37.22
694.617	37.4
694.802	37.19
694.987	37.63
695.172	37.56
695.357	37.76
695.541	37.58
695.726	37.78
695.911	38.59
696.096	38.25
696.281	38.86
696.466	38.55
696.65	38.04
696.835	38.16
697.02	38.02
697.204	37.92
697.389	37.87
697.574	37.45
697.759	37.29
697.943	36.89
698.128	37.14
698.312	36.79
698.497	36.37
698.682	36.29
698.866	36.11
699.051	35.97
699.235	36.1
699.42	36.06
699.604	35.96
699.789	35.77
699.973	35.91
700.158	36.35
700.342	36.33
700.527	37.18
700.711	37.56
700.895	37.71
701.08	38.12
701.264	38.49
701.448	38.88
701.633	39.46
701.817	39.22
702.001	39.12
702.186	38.86
702.37	39.01
702.554	38.92
702.738	39.19
702.923	39.25
703.107	39.81
703.291	39.97
703.475	39.43
703.659	39.95
703.843	40.63
704.027	40.92
704.212	40.54
704.396	40.66
704.58	40.25
704.764	40.2
704.948	40.62
705.132	39.76
705.316	39.66
705.5	40.41
705.684	40.53
705.868	40.65
706.052	39.84
706.235	40.14
706.419	40.16
706.603	40.75
706.787	40.64
706.971	40.58
707.155	40.86
707.339	40.75
707.522	40.22
707.706	39.76
707.89	39.63
708.074	40.61
708.257	40.41
708.441	40.86
708.625	39.91
708.808	39.65
708.992	39.25
709.176	39.3
709.359	39.43
709.543	39.83
709.727	39.62
709.91	39.22
710.094	38.97
710.277	39.5
710.461	38.93
710.644	39.47
710.828	39.67
711.011	39.74
711.195	39.72
711.378	39.29
711.562	39.18
711.745	39.37
711.928	39.87
712.112	39.32
712.295	38.88
712.478	38.68
712.662	39.36
712.845	39.17
713.028	39.43
713.212	39.28
713.395	39.36
713.578	39.91
713.761	40.18
713.945	40.23
714.128	40.69
714.311	40.68
714.494	40.81
714.677	40.04
714.86	40.1
715.043	40.85
715.227	41.12
715.41	41.29
715.593	41.21
715.776	41.01
715.959	41.07
716.142	40.96
716.325	40.85
716.508	41.42
716.691	41.64
716.874	41.8
717.057	40.91
717.239	40.67
717.422	40.51
717.605	40.28
717.788	40.13
717.971	40.45
718.154	40.65
718.337	41.35
718.519	41.12
718.702	41.72
718.885	41.22
719.068	41.93
719.25	42.61
719.433	42.99
719.616	42.55
719.798	42.1
719.981	42.44
720.164	42.6
720.346	42.51
720.529	43.2
720.712	42.65
720.894	43.35
721.077	42.46
721.259	42.69
721.442	43.76
721.624	43.94
721.807	44.48
721.989	43.44
722.172	43.52
722.354	42.92
722.537	42.5
722.719	42.5
722.901	42.66
723.084	43.83
723.266	43.28
723.448	42.91
723.631	43.18
723.813	43.29
723.995	43.57
724.178	43.44
724.36	44.29
724.542	43.85
724.724	44.53
724.907	44.62
725.089	43.34
725.271	43.53
725.453	42.46
725.635	42.68
725.817	42.83
725.999	43.4
726.181	44.23
726.364	44.01
726.546	44.25
726.728	44.01
726.91	43.86
727.092	44.36
727.274	44.02
727.456	44.73
727.638	44.55
727.819	44.9
728.001	44.49
728.183	43.88
728.365	42.68
728.547	43.01
728.729	42.84
728.911	43.34
729.093	43.19
729.274	42.62
729.456	42.27
729.638	42.05
729.82	41.52
730.001	41.78
730.183	41.91
730.365	42.85
730.546	42.46
730.728	42.63
730.91	42.19
731.091	42.37
731.273	42.32
731.455	42.72
731.636	42.74
731.818	43.67
731.999	43.7
732.181	43.8
732.362	43.8
732.544	44.27
732.725	44.09
732.907	44.44
733.088	44.2
733.27	45.41
733.451	44.81
733.633	45.92
733.814	45.42
733.995	45.41
734.177	45.44
734.358	45.28
734.539	45.26
734.721	45.08
734.902	44.84
735.083	45.37
735.264	45.29
735.446	45.73
735.627	44.53
735.808	43.95
735.989	43.85
736.17	44.13
736.351	44.77
736.533	43.41
736.714	43.26
736.895	43.97
737.076	43.68
737.257	43.4
737.438	43.01
737.619	44.29
737.8	45.51
737.981	45.93
738.162	45
738.343	45.61
738.524	46.05
738.705	46.58
738.886	45.78
739.067	45.6
739.247	45.85
739.428	46.53
739.609	45.09
739.79	44.97
739.971	43.87
740.151	44.24
740.332	43.63
740.513	44.57
740.694	45.29
740.874	45.79
741.055	46.1
741.236	45.74
741.417	45.86
741.597	46.47
741.778	46.26
741.958	47.41
742.139	47.32
742.32	47.89
742.5	48.09
742.681	48.28
742.861	47.86
743.042	47.48
743.222	48.22
743.403	47.79
743.583	47.36
743.764	47.09
743.944	46.71
744.124	47.53
744.305	46.44
744.485	45.75
744.666	43.86
744.846	44.35
745.026	45.17
745.207	44.81
745.387	45.31
745.567	46.11
745.747	46.22
745.928	46.18
746.108	45.91
746.288	45.89
746.468	46.05
746.648	45.78
746.829	45.21
747.009	45.72
747.189	45.56
747.369	44.91
747.549	44.59
747.729	44.4
747.909	43.74
748.089	43.83
748.269	43.82
748.449	44.62
748.629	45.13
748.809	45.51
748.989	45.18
749.169	45.16
749.349	45.34
749.529	45.45
749.709	44.62
749.889	45.33
750.068	45.26
750.248	46.22
750.428	46.06
750.608	46.48
750.788	45.46
750.967	44.28
751.147	44.12
751.327	43.55
751.507	43.23
751.686	45.04
751.866	45.47
752.046	45.25
752.225	45.22
752.405	45.7
752.585	46.28
752.764	46.67
752.944	47.41
753.123	48.2
753.303	48.94
753.482	49.53
753.662	49.26
753.841	49.07
754.021	49.23
754.2	48.96
754.38	47.86
754.559	47.5
754.739	47.28
754.918	47.03
755.097	47.06
755.277	46.74
755.456	46.26
755.635	46.54
755.815	45.5
755.994	45.45
756.173	44.64
756.352	44.79
756.532	44.63
756.711	44.71
756.89	43.99
757.069	44.32
757.248	43.99
757.427	43.7
757.607	43.15
757.786	43.75
757.965	43.13
758.144	43.82
758.323	45.4
758.502	46.19
758.681	47.18
758.86	47.9
759.039	47.45
759.218	48.24
759.397	48.85
759.576	48.35
759.755	48.27
759.934	49.56
760.113	49.57
760.291	48.65
760.47	48.02
760.649	48.24
760.828	48.96
761.007	48.77
761.186	48.61
761.364	48.72
761.543	49.33
761.722	49.18
761.901	48
762.079	47.89
762.258	47.11
762.437	47.41
762.615	46.3
762.794	46.05
762.972	44.74
763.151	43.96
763.33	43.44
763.508	42.83
763.687	42.61
763.865	42.64
764.044	42.82
764.222	43.42
764.401	43.41
764.579	43.45
764.758	43.12
764.936	44.08
765.114	44.53
765.293	44.26
765.471	44.26
765.65	45.09
765.828	45.49
766.006	45.88
766.184	45.04
766.363	44.11
766.541	43.74
766.719	43.97
766.898	44.32
767.076	44.76
767.254	45.74
767.432	46.89
767.61	46.71
767.788	46.8
767.967	46.7
768.145	47.48
768.323	48.38
768.501	49.89
768.679	50.53
768.857	49.49
769.035	49.23
769.213	49.39
769.391	48.57
769.569	48.95
769.747	50.24
769.925	49.53
770.103	48.24
770.281	47.96
770.459	48.59
770.636	48.38
770.814	50.78
770.992	51.77
771.17	51.57
771.348	51.88
771.525	52.64
771.703	51.76
771.881	52.71
772.059	54.23
772.236	54.65
772.414	54.13
772.592	54.56
772.769	52.52
772.947	51.43
773.125	51.43
773.302	52.82
773.48	52.89
773.657	52.02
773.835	51.02
774.013	52.46
774.19	53.21
774.368	52.47
774.545	52.73
774.723	54.59
774.9	54.44
775.077	54.39
775.255	52.48
775.432	52.16
775.61	52.84
775.787	51.66
775.964	49.94
776.142	49.14
776.319	48.94
776.496	48.32
776.674	47.37
776.851	48.88
777.028	48.37
777.205	49.62
777.382	48.39
777.56	47.74
777.737	51.58
777.914	50.75
778.091	49.98
778.268	51.76
778.445	51.81
778.622	52.17
778.8	51.08
778.977	52.32
779.154	56.27
779.331	57.17
779.508	57.41
779.685	55.42
779.862	56.54
780.038	57.49
780.215	56.15
780.392	54.85
780.569	52.99
780.746	53.69
780.923	53.25
781.1	50.35
781.277	49.39
781.453	49.56
781.63	47.87
781.807	48.04
781.984	48
782.16	47.95
782.337	48.8
782.514	48.67
782.691	49.97
782.867	50.9
783.044	48.11
783.221	49.79
783.397	51.12
783.574	51.52
783.75	52.96
783.927	54.21
784.103	54.82
784.28	54.62
784.456	56.82
784.633	56.73
784.809	55.62
784.986	56.26
785.162	56.3
785.339	54.47
785.515	54.06
785.692	51.72
785.868	51.01
786.044	51.01
786.221	51.75
786.397	51.01
786.573	50.26
786.749	50.69
786.926	52.12
787.102	50.3
787.278	50.7
787.454	53.1
787.631	53.88
787.807	53.36
787.983	53.13
788.159	53.17
788.335	54.14
788.511	53.79
788.687	52.23
788.863	52.34
789.039	52.5
789.216	53.24
789.392	53.05
789.568	53.9
789.744	56.04
789.919	56.31
790.095	54.86
790.271	54.27
790.447	53.72
790.623	54.44
790.799	53.82
790.975	52.54
791.151	52.44
791.327	52.3
791.502	50.46
791.678	48.53
791.854	47.94
792.03	50.16
792.205	53.11
792.381	53.79
792.557	57.62
792.733	56.7
792.908	59.26
793.084	57.64
793.259	58.69
793.435	59.41
793.611	60.43
793.786	61.36
793.962	60.29
794.137	58.2
794.313	56.84
794.488	52.46
794.664	54.29
794.839	52.96
795.015	55.72
795.19	54.19
795.366	54.39
795.541	52.87
795.716	52.95
795.892	53.9
796.067	53.36
796.242	53.27
796.418	53.33
796.593	53.21
796.768	54.71
796.944	53.01
797.119	53.07
797.294	54.96
797.469	55.86
797.644	56.24
797.82	55.18
797.995	54.54
798.17	53.23
798.345	53.39
798.52	51.73
798.695	51.95
798.87	52.35
799.045	52.56
799.22	51.92
799.395	50.13
799.57	49.86
799.745	50.08
799.92	49.17
800.095	53.36
800.27	54.88
800.445	57.25
800.62	54.89
800.795	58.36
800.97	59.65
801.145	56.15
801.319	57.92
801.494	57.88
801.669	57.95
801.844	58.66
802.018	56.94
802.193	58.61
802.368	55.9
802.543	57.17
802.717	53.96
802.892	53.36
803.067	56
803.241	54.37
803.416	55.15
803.59	54.94
803.765	55.77
803.94	55.08
804.114	52.16
804.289	54.27
804.463	53.28
804.638	52.2
804.812	53.82
804.986	52.1
805.161	50.51
805.335	49.83
805.51	49.38
805.684	48.08
805.858	47.93
806.033	45.81
806.207	46.2
806.381	48.02
806.556	49.25
806.73	48.02
806.904	49.47
807.078	51.42
807.253	52.72
807.427	52.52
807.601	53.68
807.775	55.33
807.949	56.85
808.123	55.2
808.298	55.14
808.472	55.72
808.646	53.79
808.82	54.72
808.994	55.15
809.168	54.96
809.342	54.78
809.516	54.4
809.69	53.13
809.864	53.65
810.038	57.22
810.212	57.6
810.385	54.31
810.559	57.64
810.733	59.83
810.907	60.25
811.081	56.9
811.255	58.27
811.428	59.69
811.602	60.18
811.776	61.09
811.95	59.14
812.123	57.61
812.297	61.26
812.471	57.35
812.644	53.3
812.818	56.1
812.992	59.07
813.165	60.37
813.339	60.19
813.512	58.73
813.686	58.99
813.86	59.8
814.033	59.18
814.207	58.28
814.38	59
814.554	59.32
814.727	56.66
814.9	57
815.074	58.5
815.247	56.09
815.421	57.09
815.594	57.93
815.767	56.45
815.941	57.45
816.114	58.8
816.287	61.51
816.46	60.84
816.634	58.67
816.807	59.59
816.98	58.5
817.153	63.05
817.327	60.43
817.5	59.51
817.673	61.32
817.846	61.67
818.019	60.16
818.192	57.11
818.365	55.65
818.538	58.06
818.711	52.58
818.884	50.58
819.057	48.19
819.23	49.91
819.403	48.87
819.576	48.1
819.749	48.7
819.922	48.94
820.095	49.9
820.268	51.4
820.441	52.28
820.614	52.24
820.786	51.65
820.959	50.24
821.132	51.29
821.305	49.28
821.477	47.93
821.65	47.35
821.823	46.45
821.996	44.66
822.168	43.74
822.341	42.45
822.514	42.55
822.686	42.59
822.859	42.25
823.031	41.36
823.204	42.07
823.376	41.8
823.549	41.33
823.722	41.07
823.894	41.75
824.067	41.71
824.239	42.65
824.411	42.94
824.584	42.39
824.756	42.69
824.929	42.76
825.101	42.73
825.273	43.06
825.446	42.66
825.618	42.67
825.79	43.02
825.963	43.72
826.135	43.09
826.307	42.85
826.479	43.86
826.652	43.8
826.824	43.14
826.996	42.95
827.168	42.54
827.34	43.71
827.512	44.25
827.684	43.8
827.856	44.24
828.029	45.17
828.201	45.51
828.373	45.27
828.545	45.73
828.717	47.76
828.889	47.63
829.061	48.96
829.232	49.7
829.404	49.3
829.576	50.75
829.748	50.79
829.92	51.73
830.092	52.63
830.264	53.48
830.436	53.74
830.607	53.25
830.779	55.97
830.951	55.26
831.123	54.05
831.294	54.77
831.466	53.33
831.638	52.47
831.809	48.81
831.981	49.59
832.153	48.84
832.324	47.31
832.496	48.19
832.667	47.99
832.839	49.6
833.011	49.79
833.182	48.5
833.354	49.14
833.525	51.18
833.697	52.49
833.868	48.71
834.039	50.42
834.211	49.55
834.382	47.59
834.554	47.28
834.725	47.45
834.896	46.75
835.068	47.19
835.239	45.99
835.41	45.23
835.581	46.2
835.753	48.16
835.924	46.97
836.095	49.14
836.266	50.12
836.438	48.35
836.609	47.19
836.78	47.28
836.951	49.38
837.122	50.49
837.293	49.98
837.464	49.05
837.635	51.35
837.806	51.73
837.977	53.2
838.148	55.89
838.319	57.2
838.49	56.25
838.661	60.23
838.832	61.41
839.003	62.58
839.174	62.06
839.345	63.17
839.516	64.39
839.687	66.17
839.857	67.84
840.028	68.81
840.199	68
840.37	72.73
840.54	71.23
840.711	67.26
840.882	68.84
841.053	70.72
841.223	69.87
841.394	68.2
841.564	70.8
841.735	69.36
841.906	65.19
842.076	58.6
842.247	62.3
842.417	64.86
842.588	67.08
842.758	64.66
842.929	65.05
843.099	64.59
843.27	64.07
843.44	59.51
843.611	57.02
843.781	54.9
843.951	62.76
844.122	62.49
844.292	60.47
844.462	60.78
844.633	65.35
844.803	66.41
844.973	67.79
845.144	69.32
845.314	73.27
845.484	71.71
845.654	78.67
845.824	80.67
845.995	73.62
846.165	72.03
846.335	76.29
846.505	70.62
846.675	73.61
846.845	80.3
847.015	80.07
847.185	80.2
847.355	88.27
847.525	93.56
847.695	100.67
847.865	104.12
848.035	112.56
848.205	97.72
848.375	112.03
848.545	95.27
848.715	89.47
848.884	89.71
849.054	84.05
849.224	81.8
849.394	77.22
849.564	74.14
849.733	75.91
849.903	78.45
850.073	91.87
850.243	82.84
850.412	85.71
850.582	83.88
850.752	82.73
850.921	86.34
851.091	85.58
851.26	83.37
851.43	82.01
851.599	78.62
851.769	76.36
851.939	62.57
852.108	66.24
852.278	72.49
852.447	68.94
852.616	70.28
852.786	68.59
852.955	73.06
853.125	82.7
853.294	84.55
853.463	83.52
853.633	85.98
853.802	101.9
853.971	105.42
854.141	105.1
854.31	104.73
854.479	100.02
854.648	100.71
854.818	87.36
854.987	81.41
855.156	80.76
855.325	79
855.494	79.37
855.663	71.24
855.832	63.96
856.001	58.53
856.171	60.47
856.34	58.77
856.509	68.47
856.678	83.6
856.847	83.91
857.016	80.77
857.185	79.65
857.353	74.19
857.522	76.35
857.691	75.29
857.86	81.79
858.029	73.8
858.198	85.07
858.367	78.3
858.535	76.36
858.704	71.02
858.873	71.68
859.042	82.81
859.21	89.44
859.379	90.07
859.548	82.99
859.717	76.87
859.885	86.48
860.054	71.81
860.222	70.83
860.391	73.39
860.56	79.37
860.728	80.11
860.897	69.41
861.065	65.25
861.234	66.03
861.402	73.3
861.571	72.74
861.739	74.65
861.908	83.28
862.076	85.23
862.244	80.2
862.413	81.4
862.581	84.42
862.749	88.28
862.918	88.15
863.086	90.08
863.254	84.6
863.423	91.75
863.591	97.35
863.759	89.26
863.927	84.46
864.096	89.02
864.264	93.57
864.432	91.99
864.6	95.17
864.768	96.31
864.936	92.42
865.104	94.12
865.272	94.4
865.44	93.9
865.608	84.21
865.776	90.75
865.944	89.29
866.112	79.76
866.28	81.74
866.448	75.62
866.616	70.78
866.784	74.67
866.952	75.74
867.12	73.9
867.288	71.68
867.455	78.29
867.623	77.85
867.791	74.17
867.959	71.9
868.127	65.71
868.294	70.03
868.462	71.95
868.63	70.82
868.797	75.7
868.965	74.89
869.133	71.23
869.3	71.11
869.468	75.34
869.636	66.03
869.803	70.75
869.971	77.18
870.138	69.51
870.306	66.22
870.473	70.21
870.641	69.59
870.808	64.9
870.975	69.52
871.143	70.52
871.31	66.06
871.478	92.2
871.645	84.77
871.812	85.01
871.98	87.47
872.147	94.02
872.314	83.08
872.482	76.51
872.649	81.26
872.816	71.82
872.983	73.49
873.15	72.76
873.318	65.61
873.485	83.25
873.652	78.42
873.819	84.64
873.986	87.09
874.153	98.1
874.32	96.82
874.487	94.02
874.654	99.77
874.821	110.68
874.988	108.22
875.155	104.57
875.322	97.76
875.489	105.23
875.656	97.85
875.823	84.09
875.99	74.52
876.157	81.06
876.324	89.55
876.49	81.36
876.657	72.38
876.824	58.71
876.991	65.71
877.157	66.77
877.324	64.86
877.491	67.19
877.658	81.6
877.824	84.64
877.991	83.09
878.157	78.64
878.324	81.96
878.491	89.65
878.657	110.39
878.824	103.38
878.99	98.08
879.157	98.51
879.323	92.28
879.49	89.24
879.656	90.69
879.823	91.5
879.989	90.45
880.156	90.7
880.322	83.39
880.488	74.06
880.655	73.32
880.821	77.7
880.987	77.49
881.154	80.35
881.32	70.37
881.486	69.01
881.652	64.5
881.819	62.37
881.985	58.97
882.151	54.22
882.317	54.12
882.483	51.61
882.649	51.94
882.816	52.87
882.982	49.16
883.148	49.88
883.314	46.73
883.48	48.67
883.646	47.36
883.812	44.84
883.978	45.98
884.144	45.91
884.31	43.6
884.476	43.12
884.642	42.48
884.807	43.45
884.973	43.74
885.139	45.16
885.305	43.7
885.471	45.34
885.637	46.73
885.802	47.13
885.968	46.59
886.134	50.47
886.3	49.6
886.465	48.85
886.631	46.96
886.797	48.44
886.962	49.3
887.128	49.95
887.293	50.32
887.459	51.67
887.625	51.83
887.79	55.48
887.956	53.24
888.121	54.19
888.287	54.52
888.452	61.9
888.618	60.55
888.783	62.29
