Data from LC_153_Reflection_2.txt Node
Date: Mon Nov 16 22:12:00 EST 2015
User: robert
Spectrometer: USB4E03001
Autoset integration time: false
Trigger mode: 4
Integration Time (sec): 1.000000E-1
Scans to average: 15
Electric dark correction enabled: true
Nonlinearity correction enabled: false
Boxcar width: 5
Stray light correction enabled: false
XAxis mode: Wavelengths
Stop averaging: false
Number of Pixels in Spectrum: 3648
>>>>>Begin Spectral Data<<<<<
177.566	-1337.35
177.785	-66.88
178.005	1331.09
178.225	-107.69
178.445	-215.44
178.665	919.52
178.885	-121.85
179.105	-731.78
179.324	-1254.21
179.544	-1.62
179.764	-598.68
179.984	-20.36
180.204	-82.98
180.423	-93.64
180.643	-117.11
180.863	-57.41
181.083	-75.71
181.302	-158.73
181.522	-134.75
181.742	-112.88
181.961	-138.4
182.181	-84.04
182.401	-166.09
182.621	-702.47
182.84	-357.17
183.06	-280.31
183.279	-225.78
183.499	-123.32
183.719	-74.64
183.938	-55.73
184.158	-75.97
184.377	-90.93
184.597	-157.75
184.816	-83.55
185.036	-50.63
185.256	-34.15
185.475	-43.44
185.695	-50.89
185.914	-124.96
186.134	-268.9
186.353	-381.74
186.572	-313.54
186.792	-437.67
187.011	-158.38
187.231	-169.74
187.45	-86.05
187.67	-179.19
187.889	-559.88
188.108	1224.68
188.328	-233.8
188.547	-84.5
188.766	-135.09
188.986	-337.48
189.205	-120.39
189.424	-75.24
189.644	-414.86
189.863	-486.23
190.082	-303.05
190.302	-446.89
190.521	-41.2
190.74	13.28
190.959	44.94
191.178	46.88
191.398	67.51
191.617	35.69
191.836	17.92
192.055	-327.5
192.274	-35.27
192.494	14.06
192.713	41.36
192.932	206.79
193.151	216.7
193.37	261.98
193.589	-182.87
193.808	-44.29
194.027	-239.67
194.246	-2271.51
194.465	574.05
194.685	1419.68
194.904	579.36
195.123	-816.64
195.342	-406.28
195.561	-225.1
195.78	-311.25
195.999	15316.9
196.218	557.49
196.436	325.99
196.655	-746.63
196.874	-197.78
197.093	-83.04
197.312	-39.06
197.531	48.29
197.75	177.91
197.969	-112.29
198.188	-53.65
198.407	39.4
198.625	58.35
198.844	80.64
199.063	93.55
199.282	95.95
199.501	89.16
199.719	49.64
199.938	60.54
200.157	50.3
200.376	64.58
200.594	107.67
200.813	151.7
201.032	104.03
201.251	63.86
201.469	2.98
201.688	62.8
201.907	29.41
202.125	18.66
202.344	1555.95
202.563	287.72
202.781	111.52
203	536.54
203.218	474.19
203.437	346.72
203.656	190.92
203.874	107.77
204.093	157.55
204.311	188.12
204.53	204.67
204.748	251.22
204.967	148.38
205.185	151.19
205.404	179.28
205.622	111.26
205.841	110.83
206.059	117.35
206.278	79.61
206.496	-49.45
206.715	25.06
206.933	-34.73
207.151	10.13
207.37	26.75
207.588	68.5
207.806	29.12
208.025	9.37
208.243	283.04
208.461	-216.59
208.68	-4183.53
208.898	339.98
209.116	372.73
209.335	340.74
209.553	323.32
209.771	3366.67
209.989	634.36
210.208	1560.84
210.426	-2602.39
210.644	1664.9
210.862	-994.14
211.081	375.8
211.299	-62.11
211.517	444.02
211.735	-106.85
211.953	-44114.29
212.171	-139.16
212.39	-884.68
212.608	-354.35
212.826	194.89
213.044	79.23
213.262	168.38
213.48	736.5
213.698	119.84
213.916	172.51
214.134	86.72
214.352	240.92
214.57	197.01
214.788	219.48
215.006	238.27
215.224	196.67
215.442	177.08
215.66	175.05
215.878	155.19
216.096	155.31
216.314	140.68
216.532	275.38
216.75	212.01
216.968	190.02
217.185	382.58
217.403	596.82
217.621	-1544.44
217.839	-494.22
218.057	-688.82
218.275	1483.38
218.492	416.26
218.71	608.24
218.928	147.89
219.146	140.89
219.363	122.5
219.581	101.94
219.799	68.32
220.017	57.79
220.234	25.28
220.452	-16.65
220.67	-57.47
220.887	-40.36
221.105	-23.96
221.323	-8.5
221.54	2.73
221.758	-30.48
221.976	-13.06
222.193	5.73
222.411	12.69
222.629	36.65
222.846	67.72
223.064	77.87
223.281	81.21
223.499	70.54
223.716	69.43
223.934	45.35
224.151	42.42
224.369	29.09
224.586	14.51
224.804	0.15
225.021	-0.61
225.239	-0.71
225.456	9.02
225.674	-6.97
225.891	2.02
226.108	15.54
226.326	20.56
226.543	35.05
226.76	37.7
226.978	36.74
227.195	46
227.413	34.51
227.63	29.01
227.847	24.93
228.064	24.39
228.282	21.71
228.499	18.33
228.716	18.11
228.934	14.48
229.151	14.96
229.368	14.27
229.585	13.1
229.802	14.26
230.02	13.33
230.237	15.35
230.454	14.72
230.671	13.53
230.888	14.33
231.105	14.17
231.323	14.95
231.54	10.74
231.757	12.49
231.974	8.89
232.191	6.49
232.408	7.55
232.625	-1.08
232.842	-3.33
233.059	3.19
233.276	0.15
233.493	-2.1
233.71	2.22
233.927	5.76
234.144	5.51
234.361	6.11
234.578	11.02
234.795	9.74
235.012	10.95
235.229	12.97
235.446	11.34
235.663	13.27
235.879	15.73
236.096	7.34
236.313	6.24
236.53	6.07
236.747	9.42
236.964	5.47
237.181	3.34
237.397	5.92
237.614	6.58
237.831	-0.84
238.048	4.73
238.264	2.52
238.481	4.89
238.698	9.83
238.915	9.99
239.131	9.67
239.348	15.24
239.565	18.59
239.781	18.07
239.998	17.37
240.215	21.16
240.431	17.59
240.648	19.04
240.865	19.01
241.081	15.3
241.298	15.67
241.514	14.49
241.731	12.87
241.947	14.62
242.164	13.37
242.38	12.51
242.597	11.25
242.814	10.95
243.03	9.85
243.246	10.16
243.463	10.44
243.679	9.2
243.896	6.75
244.112	6.58
244.329	2.66
244.545	3.24
244.762	3.33
244.978	5.46
245.194	6.47
245.411	7.05
245.627	7.38
245.843	7.82
246.06	9.58
246.276	12.7
246.492	12.49
246.709	13.15
246.925	12.12
247.141	11.95
247.357	11.45
247.574	11.82
247.79	11.67
248.006	10.67
248.222	10.35
248.439	9.98
248.655	9.83
248.871	10.15
249.087	10.73
249.303	11.55
249.519	12.04
249.736	13.22
249.952	11.14
250.168	12.49
250.384	14.17
250.6	16.33
250.816	16.01
251.032	15.38
251.248	13.61
251.464	11.78
251.68	10.94
251.896	10.65
252.112	8.91
252.328	11.43
252.544	10.25
252.76	11.42
252.976	9.85
253.192	9.95
253.408	11.14
253.624	12.85
253.84	11.53
254.056	12.98
254.272	11.49
254.487	12.13
254.703	11.33
254.919	11.55
255.135	6.98
255.351	6.29
255.567	7.61
255.782	6.31
255.998	5.14
256.214	7.28
256.43	3.7
256.646	4.18
256.861	4.1
257.077	3.69
257.293	2.82
257.508	5.45
257.724	8.57
257.94	8.14
258.155	7.73
258.371	7.05
258.587	6.82
258.802	9.08
259.018	9.85
259.234	9.41
259.449	10.78
259.665	10.26
259.88	10.83
260.096	10.48
260.312	9.7
260.527	9.67
260.743	10.37
260.958	10.14
261.174	10
261.389	10.3
261.605	10.92
261.82	10.65
262.036	11.23
262.251	10.69
262.466	9.87
262.682	12.08
262.897	11.06
263.113	10.97
263.328	12.11
263.543	11.11
263.759	10.63
263.974	10.79
264.189	9.17
264.405	9.57
264.62	10.86
264.835	12.54
265.051	10.49
265.266	13.37
265.481	13.15
265.696	14.17
265.912	13.35
266.127	12.61
266.342	10.54
266.557	10.65
266.773	10.56
266.988	9.77
267.203	9.4
267.418	8.82
267.633	6.94
267.848	6.49
268.064	5.67
268.279	7.16
268.494	7.95
268.709	9.57
268.924	9.11
269.139	8.55
269.354	7.75
269.569	6.92
269.784	7.05
269.999	7.76
270.214	7.29
270.429	8.51
270.644	8.35
270.859	6.09
271.074	6.34
271.289	6.91
271.504	7.55
271.719	8.59
271.934	8.35
272.149	8.82
272.363	9.97
272.578	9.27
272.793	8.51
273.008	7.33
273.223	8.02
273.438	6.07
273.653	6.22
273.867	6.2
274.082	4.91
274.297	5.8
274.512	5.79
274.726	4.36
274.941	4.84
275.156	4.61
275.371	5.34
275.585	5.74
275.8	8.21
276.015	7.56
276.229	7.43
276.444	8.4
276.659	8.23
276.873	8.11
277.088	8.45
277.302	8.39
277.517	8.46
277.732	11.07
277.946	11.18
278.161	11.33
278.375	11.41
278.59	12.04
278.804	12.08
279.019	12.38
279.233	11.89
279.448	11.71
279.662	11.99
279.877	12.81
280.091	10.78
280.306	9.56
280.52	8.6
280.735	7.49
280.949	7.36
281.163	6.72
281.378	6.17
281.592	6.21
281.806	7.15
282.021	6.84
282.235	6.29
282.449	6.67
282.664	8.93
282.878	8.51
283.092	9.62
283.307	8.36
283.521	8.9
283.735	8.46
283.949	8.36
284.164	7.17
284.378	7.47
284.592	7.37
284.806	6.94
285.02	5.58
285.234	5.15
285.449	5.71
285.663	5.97
285.877	6.23
286.091	6.28
286.305	6.19
286.519	6.41
286.733	5.71
286.947	6.09
287.161	6.11
287.375	6.41
287.589	7.02
287.803	6.62
288.017	6.84
288.231	5.99
288.445	6.46
288.659	7.14
288.873	7.09
289.087	8.5
289.301	7.49
289.515	7.86
289.729	7.49
289.943	7.6
290.157	7.06
290.371	8.53
290.584	8.98
290.798	9.12
291.012	9.28
291.226	9.09
291.44	9.22
291.654	9.81
291.867	9.72
292.081	9.45
292.295	10
292.509	10.53
292.722	9.48
292.936	8.65
293.15	8.96
293.364	8.54
293.577	8.98
293.791	7.91
294.005	8.33
294.218	8.01
294.432	8.95
294.645	7.82
294.859	7.42
295.073	7.98
295.286	8.46
295.5	7.76
295.713	7.66
295.927	8.11
296.14	8.53
296.354	7.69
296.568	7.59
296.781	7.49
296.994	8.84
297.208	8.61
297.421	8.1
297.635	8.36
297.848	8.35
298.062	8.77
298.275	8.65
298.489	8.37
298.702	8.76
298.915	9.13
299.129	8.8
299.342	7.91
299.555	8.3
299.769	8.21
299.982	8.49
300.195	8.13
300.409	8.05
300.622	7.12
300.835	8.66
301.048	8.51
301.262	7.49
301.475	7.54
301.688	8.43
301.901	8.61
302.115	9.07
302.328	8.89
302.541	9.53
302.754	10.1
302.967	9.61
303.18	8.77
303.393	8.7
303.607	8.93
303.82	9.16
304.033	8.62
304.246	7.67
304.459	7.35
304.672	6.31
304.885	6.82
305.098	6.45
305.311	7.7
305.524	7.94
305.737	7.81
305.95	9.39
306.163	8.13
306.376	8.17
306.589	8.89
306.802	9.24
307.015	10.55
307.228	10.43
307.44	8.98
307.653	8.56
307.866	7.01
308.079	8.72
308.292	8.8
308.505	10.12
308.718	9.48
308.93	8.75
309.143	8.4
309.356	7.81
309.569	7.21
309.781	7.96
309.994	8.54
310.207	9.35
310.42	8.25
310.632	6.72
310.845	7.67
311.058	7.24
311.27	7.55
311.483	6.88
311.696	6.83
311.908	6.68
312.121	6.99
312.333	7.99
312.546	7.63
312.759	8.48
312.971	9.25
313.184	8.05
313.396	7.95
313.609	9.18
313.821	9.8
314.034	9.67
314.246	10.33
314.459	9.3
314.671	6.96
314.884	6.04
315.096	3.98
315.309	2.43
315.521	2.98
315.733	2.13
315.946	0.58
316.158	1.55
316.371	2.04
316.583	2.66
316.795	3.54
317.008	4.04
317.22	6.23
317.432	7.54
317.644	9.15
317.857	7.04
318.069	8.84
318.281	8.62
318.494	6.98
318.706	7.62
318.918	6.21
319.13	6.68
319.342	7.15
319.555	6.8
319.767	7.52
319.979	7.38
320.191	9.09
320.403	8.32
320.615	9.96
320.827	11.75
321.039	11.54
321.252	11.34
321.464	9.09
321.676	8.51
321.888	8.04
322.1	8.11
322.312	6.95
322.524	5.8
322.736	6.65
322.948	5.24
323.16	3.91
323.372	3.51
323.584	3.49
323.796	4.95
324.007	5
324.219	3.84
324.431	2.89
324.643	3.23
324.855	3.99
325.067	3.03
325.279	3.26
325.491	2.89
325.702	2.11
325.914	2.98
326.126	3.48
326.338	3.7
326.55	5.51
326.761	6
326.973	6.07
327.185	6.2
327.396	6.88
327.608	7.68
327.82	8.99
328.032	9.21
328.243	7.67
328.455	8.14
328.666	8.18
328.878	7.73
329.09	7.58
329.301	7.1
329.513	7.77
329.725	7.61
329.936	6.72
330.148	6.18
330.359	5.82
330.571	6.64
330.782	6.21
330.994	7.05
331.205	7.2
331.417	6.72
331.628	7.71
331.84	7.31
332.051	7.81
332.262	8.61
332.474	7.75
332.685	9.1
332.897	9.14
333.108	9.53
333.319	8.18
333.531	8.18
333.742	8.72
333.953	7.54
334.165	7.3
334.376	6.93
334.587	6.27
334.799	6.74
335.01	6.09
335.221	6.59
335.432	5.84
335.644	5.99
335.855	5.78
336.066	6.16
336.277	7.09
336.488	7.09
336.7	6.92
336.911	7.6
337.122	6.96
337.333	7.7
337.544	8.07
337.755	8.36
337.966	8.59
338.177	8.44
338.388	7.9
338.599	8.33
338.811	8.44
339.022	8.86
339.233	9.13
339.444	9.68
339.655	7.93
339.866	8.03
340.076	7.82
340.287	8.19
340.498	8.61
340.709	8.28
340.92	7.23
341.131	7.47
341.342	7.45
341.553	6.55
341.764	6.77
341.975	7.89
342.185	7.46
342.396	7.57
342.607	7.66
342.818	7.26
343.029	7.42
343.239	7.73
343.45	8.07
343.661	7.05
343.872	6.88
344.082	6.78
344.293	7.11
344.504	7.56
344.714	7.05
344.925	6.11
345.136	6
345.346	6.27
345.557	6.59
345.768	5.84
345.978	5.76
346.189	6.13
346.399	5.32
346.61	5.38
346.821	5.24
347.031	5.73
347.242	5.72
347.452	6.13
347.663	5.47
347.873	5.1
348.084	5.32
348.294	6.85
348.504	6.47
348.715	7.18
348.925	6.99
349.136	5.84
349.346	5.18
349.557	5.88
349.767	5.79
349.977	6.59
350.188	6.99
350.398	7.76
350.608	7.52
350.819	7.54
351.029	7.44
351.239	6.56
351.449	7.47
351.66	8.5
351.87	9.06
352.08	8.67
352.29	8.09
352.501	7.48
352.711	6.68
352.921	6.36
353.131	6.58
353.341	6.92
353.552	7.75
353.762	7.66
353.972	6.98
354.182	7.05
354.392	6.97
354.602	6.65
354.812	6.99
355.022	6.84
355.232	6.43
355.442	6.4
355.652	5.66
355.862	4.83
356.072	4.32
356.282	4.04
356.492	4.4
356.702	4.28
356.912	5.27
357.122	5.1
357.332	5.31
357.542	5.32
357.752	5.27
357.962	5.44
358.171	6.14
358.381	6.58
358.591	6.89
358.801	5.24
359.011	5.56
359.221	5.25
359.43	5.7
359.64	5.95
359.85	6.47
360.06	6.73
360.269	7.45
360.479	7.19
360.689	6.99
360.899	7.12
361.108	7.8
361.318	7.94
361.528	7.62
361.737	7.58
361.947	7.22
362.156	6.99
362.366	6.35
362.576	5.95
362.785	6.14
362.995	5.7
363.204	5.61
363.414	5.67
363.623	5.5
363.833	5.85
364.042	5.4
364.252	5.51
364.461	5.52
364.671	5.96
364.88	6.41
365.09	6.26
365.299	6.91
365.509	5.91
365.718	5.41
365.927	5.35
366.137	5.35
366.346	5.92
366.555	5.58
366.765	5.4
366.974	5.02
367.183	4.56
367.393	4.48
367.602	4.18
367.811	5.09
368.021	5.31
368.23	5.4
368.439	4.77
368.648	4.52
368.857	5.05
369.067	5.63
369.276	6.03
369.485	6.57
369.694	6.43
369.903	7.22
370.112	7.21
370.321	7.28
370.531	7.12
370.74	7.53
370.949	7.95
371.158	7.58
371.367	7.42
371.576	7.73
371.785	6.91
371.994	6.59
372.203	6.07
372.412	6.07
372.621	5.97
372.83	6.36
373.039	6.76
373.248	5.97
373.457	6.31
373.666	6.26
373.874	5.9
374.083	6.49
374.292	6.36
374.501	6.3
374.71	5.82
374.919	6.33
375.128	5.72
375.336	5.11
375.545	5.67
375.754	5
375.963	4.78
376.171	4.89
376.38	4.92
376.589	5.42
376.798	5.19
377.006	5.86
377.215	5.91
377.424	6.05
377.632	6.32
377.841	6.03
378.05	5.94
378.258	6.17
378.467	5.63
378.675	5.81
378.884	5.61
379.093	5.67
379.301	4.98
379.51	4.42
379.718	4.16
379.927	4.01
380.135	3.76
380.344	3.98
380.552	2.98
380.761	3.57
380.969	3.01
381.177	2.9
381.386	2.6
381.594	2.97
381.803	3.08
382.011	3.21
382.219	3.01
382.428	2.58
382.636	2.36
382.845	3.03
383.053	2.79
383.261	2.66
383.469	3.03
383.678	3.56
383.886	3.29
384.094	3.04
384.302	3.1
384.511	3.27
384.719	3.75
384.927	3.95
385.135	3.9
385.343	4.08
385.552	4.15
385.76	3.89
385.968	3.69
386.176	3.86
386.384	4.19
386.592	4.07
386.8	3.78
387.008	3.94
387.216	4.11
387.424	4.09
387.633	4.44
387.841	4.52
388.049	4.56
388.257	4.45
388.465	4.45
388.672	4.41
388.88	4.32
389.088	4.31
389.296	4.25
389.504	4.16
389.712	4.5
389.92	4.05
390.128	4.02
390.336	3.88
390.544	4.31
390.751	4.08
390.959	3.95
391.167	4.03
391.375	4.25
391.583	3.87
391.79	3.77
391.998	3.4
392.206	3.36
392.414	3.35
392.621	3.51
392.829	3.39
393.037	3.68
393.244	3.64
393.452	3.71
393.66	3.86
393.867	4.32
394.075	4.04
394.283	4.28
394.49	4.27
394.698	4.13
394.905	4.05
395.113	3.85
395.32	3.74
395.528	3.92
395.735	3.89
395.943	3.72
396.15	3.64
396.358	4.01
396.565	3.9
396.773	4.15
396.98	4.31
397.188	4.13
397.395	4.17
397.602	4.09
397.81	3.64
398.017	3.98
398.225	3.83
398.432	3.75
398.639	3.81
398.847	3.82
399.054	3.4
399.261	3.34
399.468	3.69
399.676	3.63
399.883	3.64
400.09	3.91
400.297	3.57
400.505	3.68
400.712	3.58
400.919	3.77
401.126	3.78
401.333	3.66
401.54	3.66
401.748	3.63
401.955	3.53
402.162	3.61
402.369	3.63
402.576	3.74
402.783	3.62
402.99	3.61
403.197	3.13
403.404	2.86
403.611	3.09
403.818	3.16
404.025	2.96
404.232	2.89
404.439	2.67
404.646	2.51
404.853	2.47
405.06	2.46
405.267	2.35
405.474	2.34
405.681	2.35
405.887	2.36
406.094	2.42
406.301	2.48
406.508	2.8
406.715	3.06
406.922	3.28
407.128	3.02
407.335	3.22
407.542	3.41
407.749	3.7
407.955	3.94
408.162	3.81
408.369	3.84
408.575	3.92
408.782	3.84
408.989	3.67
409.195	3.49
409.402	3.79
409.609	3.81
409.815	3.91
410.022	3.82
410.228	3.75
410.435	3.97
410.642	3.69
410.848	3.71
411.055	3.56
411.261	3.62
411.468	3.74
411.674	3.63
411.881	3.42
412.087	3.4
412.294	3.23
412.5	2.91
412.706	2.83
412.913	2.9
413.119	2.74
413.326	2.78
413.532	2.9
413.738	2.71
413.945	2.87
414.151	2.79
414.357	2.89
414.564	2.96
414.77	3.17
414.976	3.06
415.182	3.19
415.389	3.4
415.595	3.32
415.801	3.02
416.007	3.29
416.214	3.2
416.42	3.34
416.626	3.02
416.832	3.08
417.038	3.08
417.244	3.2
417.45	2.98
417.657	3.02
417.863	3.26
418.069	3.47
418.275	3.48
418.481	3.45
418.687	3.4
418.893	3.46
419.099	3.39
419.305	3.61
419.511	3.67
419.717	3.82
419.923	3.67
420.129	3.68
420.335	3.71
420.541	3.66
420.746	3.63
420.952	3.7
421.158	3.68
421.364	3.69
421.57	3.63
421.776	3.6
421.982	3.54
422.187	3.45
422.393	3.26
422.599	3.13
422.805	3.11
423.01	3.08
423.216	2.98
423.422	3.07
423.628	3.15
423.833	3.02
424.039	3.01
424.245	3.03
424.45	3.23
424.656	3.31
424.862	3.38
425.067	3.38
425.273	3.35
425.478	3.4
425.684	3.39
425.889	3.43
426.095	3.57
426.301	3.51
426.506	3.51
426.712	3.5
426.917	3.42
427.123	3.46
427.328	3.44
427.533	3.6
427.739	3.59
427.944	3.54
428.15	3.32
428.355	3.34
428.561	3.47
428.766	3.46
428.971	3.43
429.177	3.65
429.382	3.73
429.587	3.89
429.793	3.84
429.998	3.98
430.203	4.12
430.408	4.25
430.614	4.2
430.819	4.08
431.024	4.25
431.229	4.17
431.434	4.18
431.64	3.97
431.845	3.89
432.05	3.89
432.255	3.81
432.46	3.5
432.665	3.41
432.87	3.5
433.076	3.5
433.281	3.52
433.486	3.66
433.691	3.35
433.896	3.18
434.101	3.1
434.306	3.13
434.511	3.05
434.716	3.35
434.921	3.47
435.126	3.15
435.331	3.08
435.535	2.89
435.74	2.8
435.945	3.08
436.15	3.05
436.355	3.34
436.56	3.44
436.765	3.46
436.97	3.07
437.174	3.06
437.379	3.25
437.584	3.39
437.789	3.37
437.993	3.36
438.198	3.42
438.403	3.84
438.608	3.64
438.812	3.36
439.017	3.32
439.222	3.43
439.426	3.32
439.631	3.44
439.836	3.31
440.04	3.51
440.245	3.43
440.45	3.37
440.654	3.14
440.859	3.08
441.063	3.25
441.268	3.34
441.472	3.3
441.677	3.43
441.881	3.2
442.086	3.34
442.29	3.18
442.495	3.15
442.699	3.08
442.904	3.1
443.108	3.2
443.312	3.16
443.517	3.03
443.721	3.06
443.925	2.87
444.13	3.02
444.334	3
444.538	2.88
444.743	2.87
444.947	2.85
445.151	2.85
445.356	2.73
445.56	2.85
445.764	2.93
445.968	2.99
446.173	3.11
446.377	3.15
446.581	3.08
446.785	3.25
446.989	3.32
447.193	3.36
447.398	3.36
447.602	3.42
447.806	3.37
448.01	3.48
448.214	3.51
448.418	3.49
448.622	3.51
448.826	3.58
449.03	3.56
449.234	3.62
449.438	3.62
449.642	3.72
449.846	3.75
450.05	3.65
450.254	3.49
450.458	3.65
450.662	3.68
450.866	3.54
451.069	3.42
451.273	3.32
451.477	3.2
451.681	3.25
451.885	3.15
452.089	3.17
452.292	3.23
452.496	3.27
452.7	3.1
452.904	3.11
453.107	3.17
453.311	3.22
453.515	3.22
453.719	3.19
453.922	3.23
454.126	3.35
454.33	3.37
454.533	3.35
454.737	3.24
454.94	3.35
455.144	3.31
455.348	3.37
455.551	3.28
455.755	3.26
455.958	3.35
456.162	3.26
456.365	3.23
456.569	3.05
456.772	3.04
456.976	3.14
457.179	3.15
457.383	3.07
457.586	3.18
457.79	3.43
457.993	3.52
458.196	3.5
458.4	3.42
458.603	3.36
458.807	3.47
459.01	3.58
459.213	3.53
459.417	3.34
459.62	3.41
459.823	3.25
460.026	3.11
460.23	3.13
460.433	3.14
460.636	3.14
460.839	3.16
461.042	3.23
461.246	3.25
461.449	3.3
461.652	3.38
461.855	3.24
462.058	3.31
462.261	3.12
462.464	3.03
462.668	3.18
462.871	3.31
463.074	3.43
463.277	2.99
463.48	2.93
463.683	2.83
463.886	2.98
464.089	3.05
464.292	3.2
464.495	3.53
464.698	3.58
464.901	3.4
465.104	3.2
465.306	3.14
465.509	3.56
465.712	3.54
465.915	3.54
466.118	3.45
466.321	3.48
466.524	3.52
466.726	3.59
466.929	3.62
467.132	3.66
467.335	3.67
467.538	3.45
467.74	3.26
467.943	3.42
468.146	3.59
468.348	3.62
468.551	3.69
468.754	3.48
468.956	3.24
469.159	3.16
469.362	3.21
469.564	3.12
469.767	3.22
469.969	3.2
470.172	2.94
470.375	2.84
470.577	2.78
470.78	2.89
470.982	2.99
471.185	3.16
471.387	3.1
471.59	3.11
471.792	3.44
471.995	3.44
472.197	3.53
472.399	3.45
472.602	3.32
472.804	3.38
473.007	3.31
473.209	3.24
473.411	3.1
473.614	3.13
473.816	3.03
474.018	2.85
474.22	3.06
474.423	3.11
474.625	3.28
474.827	3.48
475.03	3.51
475.232	3.49
475.434	3.54
475.636	3.62
475.838	3.79
476.04	3.89
476.243	4.01
476.445	3.92
476.647	3.84
476.849	3.63
477.051	3.59
477.253	3.58
477.455	3.54
477.657	3.5
477.859	3.49
478.061	3.38
478.263	3.29
478.465	3.26
478.667	3.2
478.869	3.14
479.071	3.26
479.273	3.23
479.475	3.08
479.677	3.09
479.879	2.96
480.081	3.08
480.283	3.03
480.485	2.92
480.686	2.88
480.888	2.92
481.09	2.97
481.292	2.91
481.494	2.88
481.695	3.05
481.897	2.96
482.099	3.03
482.301	3.05
482.502	3.1
482.704	3.19
482.906	3.18
483.107	3.2
483.309	3.19
483.511	3.27
483.712	3.23
483.914	3.16
484.115	3.2
484.317	3.19
484.519	3.14
484.72	3.13
484.922	3.1
485.123	3.13
485.325	3.13
485.526	3.15
485.728	3.11
485.929	3.11
486.131	3.16
486.332	3.14
486.534	3.12
486.735	3.16
486.936	3.08
487.138	3.07
487.339	3.02
487.541	2.99
487.742	2.91
487.943	2.9
488.144	2.93
488.346	2.88
488.547	2.87
488.748	2.92
488.95	2.78
489.151	2.85
489.352	2.84
489.553	2.76
489.755	2.71
489.956	2.78
490.157	2.84
490.358	2.79
490.559	2.92
490.76	2.91
490.961	2.88
491.163	2.98
491.364	3
491.565	2.98
491.766	3.05
491.967	3.11
492.168	3.05
492.369	3.02
492.57	3.06
492.771	3
492.972	2.98
493.173	3.03
493.374	3.01
493.575	3
493.776	3.11
493.976	3.14
494.177	3.11
494.378	3.26
494.579	3.21
494.78	3.41
494.981	3.5
495.182	3.52
495.382	3.39
495.583	3.38
495.784	3.43
495.985	3.4
496.185	3.51
496.386	3.46
496.587	3.47
496.788	3.47
496.988	3.34
497.189	3.29
497.39	3.34
497.59	3.38
497.791	3.39
497.992	3.26
498.192	3.29
498.393	3.23
498.593	3.28
498.794	3.26
498.994	3.37
499.195	3.24
499.395	3.25
499.596	3.2
499.796	3.24
499.997	3.26
500.197	3.39
500.398	3.38
500.598	3.41
500.799	3.44
500.999	3.38
501.199	3.28
501.4	3.33
501.6	3.19
501.801	3.33
502.001	3.3
502.201	3.46
502.402	3.34
502.602	3.2
502.802	3.15
503.002	3.26
503.203	3.3
503.403	3.35
503.603	3.45
503.803	3.49
504.003	3.42
504.204	3.53
504.404	3.38
504.604	3.34
504.804	3.57
505.004	3.59
505.204	3.52
505.404	3.6
505.604	3.7
505.804	3.6
506.005	3.76
506.205	3.73
506.405	3.72
506.605	3.83
506.805	4
507.005	4
507.204	4.04
507.404	4.06
507.604	4.03
507.804	3.87
508.004	4.03
508.204	3.97
508.404	3.95
508.604	3.83
508.804	3.91
509.003	3.95
509.203	3.83
509.403	3.74
509.603	3.73
509.803	3.8
510.002	3.89
510.202	3.81
510.402	3.77
510.602	3.88
510.801	3.97
511.001	3.91
511.201	3.82
511.4	3.85
511.6	3.95
511.8	3.94
511.999	3.97
512.199	3.94
512.398	4.01
512.598	4.11
512.797	4.06
512.997	4.08
513.197	4.11
513.396	4.14
513.596	4.17
513.795	4.29
513.994	4.32
514.194	4.19
514.393	4.22
514.593	4.23
514.792	4.17
514.992	4.26
515.191	4.29
515.39	4.24
515.59	4.14
515.789	4.17
515.988	4.06
516.188	4.04
516.387	4.13
516.586	4.01
516.786	4.12
516.985	4.16
517.184	4.12
517.383	4.24
517.582	4.37
517.782	4.56
517.981	4.51
518.18	4.46
518.379	4.5
518.578	4.46
518.777	4.58
518.976	4.44
519.176	4.5
519.375	4.5
519.574	4.47
519.773	4.49
519.972	4.33
520.171	4.37
520.37	4.49
520.569	4.48
520.768	4.43
520.967	4.5
521.166	4.59
521.365	4.5
521.564	4.54
521.762	4.59
521.961	4.52
522.16	4.58
522.359	4.5
522.558	4.45
522.757	4.47
522.956	4.67
523.154	4.48
523.353	4.52
523.552	4.54
523.751	4.68
523.949	4.52
524.148	4.51
524.347	4.6
524.546	4.64
524.744	4.56
524.943	4.67
525.142	4.62
525.34	4.83
525.539	4.89
525.737	4.96
525.936	4.87
526.135	4.96
526.333	4.96
526.532	4.98
526.73	5.08
526.929	5.09
527.127	4.98
527.326	4.97
527.524	4.89
527.723	4.88
527.921	4.9
528.12	4.91
528.318	4.9
528.516	4.95
528.715	4.97
528.913	4.92
529.112	4.95
529.31	4.94
529.508	4.94
529.707	4.89
529.905	4.85
530.103	4.82
530.301	4.85
530.5	4.89
530.698	4.86
530.896	4.87
531.094	4.96
531.293	5.06
531.491	5.17
531.689	5.18
531.887	5.35
532.085	5.44
532.283	5.41
532.481	5.43
532.68	5.42
532.878	5.46
533.076	5.49
533.274	5.43
533.472	5.45
533.67	5.39
533.868	5.45
534.066	5.44
534.264	5.35
534.462	5.46
534.66	5.41
534.858	5.49
535.056	5.41
535.253	5.32
535.451	5.34
535.649	5.25
535.847	5.47
536.045	5.48
536.243	5.5
536.441	5.68
536.638	5.63
536.836	5.64
537.034	5.62
537.232	5.77
537.43	5.91
537.627	5.95
537.825	5.99
538.023	5.84
538.22	5.89
538.418	5.97
538.616	5.99
538.813	6.16
539.011	6.35
539.209	6.4
539.406	6.31
539.604	6.38
539.801	6.43
539.999	6.48
540.196	6.54
540.394	6.52
540.591	6.5
540.789	6.45
540.986	6.29
541.184	6.28
541.381	6.24
541.579	6.25
541.776	6.18
541.974	6.1
542.171	6.1
542.368	6.07
542.566	6.12
542.763	6.12
542.96	6.15
543.158	6.28
543.355	6.27
543.552	6.39
543.75	6.49
543.947	6.4
544.144	6.44
544.341	6.48
544.539	6.55
544.736	6.55
544.933	6.49
545.13	6.49
545.327	6.45
545.524	6.47
545.722	6.44
545.919	6.44
546.116	6.62
546.313	6.77
546.51	6.81
546.707	6.81
546.904	6.88
547.101	7.01
547.298	7.08
547.495	7.13
547.692	7.08
547.889	7.06
548.086	7.11
548.283	7.17
548.48	7.21
548.677	7.19
548.874	7.19
549.07	7.27
549.267	7.22
549.464	7.14
549.661	7.22
549.858	7.45
550.055	7.44
550.251	7.39
550.448	7.39
550.645	7.39
550.842	7.38
551.038	7.49
551.235	7.29
551.432	7.42
551.628	7.57
551.825	7.72
552.022	7.65
552.218	7.8
552.415	7.97
552.612	7.95
552.808	7.92
553.005	7.96
553.201	8.05
553.398	8.08
553.594	8.08
553.791	8.24
553.987	8.11
554.184	8.27
554.38	8.2
554.577	8.07
554.773	8.23
554.97	8.39
555.166	8.61
555.362	8.57
555.559	8.66
555.755	8.76
555.952	8.73
556.148	8.78
556.344	8.65
556.541	8.69
556.737	8.7
556.933	8.76
557.129	8.58
557.326	8.49
557.522	8.58
557.718	8.84
557.914	8.81
558.11	8.83
558.307	8.79
558.503	8.88
558.699	8.99
558.895	9.34
559.091	9.39
559.287	9.45
559.483	9.59
559.679	9.76
559.876	9.68
560.072	9.76
560.268	9.64
560.464	9.68
560.66	9.8
560.856	9.82
561.052	9.72
561.247	9.87
561.443	10.13
561.639	10.11
561.835	10.25
562.031	10.23
562.227	10.27
562.423	10.43
562.619	10.59
562.815	10.58
563.01	10.69
563.206	10.63
563.402	10.41
563.598	10.33
563.793	10.39
563.989	10.15
564.185	10.24
564.381	10.5
564.576	10.51
564.772	10.51
564.968	10.67
565.163	10.58
565.359	10.46
565.555	10.63
565.75	10.89
565.946	10.94
566.141	10.95
566.337	11.05
566.532	10.92
566.728	11.11
566.923	11.23
567.119	11
567.314	10.91
567.51	11.31
567.705	11.34
567.901	11.16
568.096	11.31
568.292	11.49
568.487	11.47
568.682	11.48
568.878	11.39
569.073	11.53
569.268	11.82
569.464	12.25
569.659	12.13
569.854	12.17
570.05	12.3
570.245	12.17
570.44	12.07
570.635	12.23
570.831	12.12
571.026	12.3
571.221	12.28
571.416	12.26
571.611	12.33
571.806	12.35
572.002	12.43
572.197	12.41
572.392	12.42
572.587	12.62
572.782	12.64
572.977	12.89
573.172	12.86
573.367	12.74
573.562	12.77
573.757	12.55
573.952	12.73
574.147	12.83
574.342	12.98
574.537	13.01
574.732	13
574.927	13.1
575.121	13.22
575.316	13.13
575.511	13.32
575.706	13.35
575.901	13.56
576.096	13.59
576.29	13.56
576.485	13.52
576.68	13.77
576.875	13.84
577.069	13.86
577.264	13.74
577.459	13.95
577.654	13.95
577.848	13.93
578.043	14.07
578.238	14.08
578.432	13.94
578.627	14.02
578.821	14.05
579.016	14.01
579.21	13.98
579.405	14.15
579.6	14.26
579.794	14.32
579.989	14.54
580.183	14.87
580.378	15
580.572	15.25
580.766	15.29
580.961	15.15
581.155	15.38
581.35	15.37
581.544	15.36
581.738	15.23
581.933	15.52
582.127	15.76
582.321	15.34
582.516	15.28
582.71	15.55
582.904	15.8
583.099	15.87
583.293	15.8
583.487	15.9
583.681	15.94
583.875	15.98
584.07	15.8
584.264	15.64
584.458	15.6
584.652	15.62
584.846	15.45
585.04	15.38
585.234	15.37
585.428	15.37
585.623	15.37
585.817	15.4
586.011	15.57
586.205	15.67
586.399	15.9
586.593	16.14
586.787	16.37
586.981	16.13
587.174	16.16
587.368	16.23
587.562	16.44
587.756	16.54
587.95	16.62
588.144	16.69
588.338	16.9
588.532	16.85
588.725	17.1
588.919	17.12
589.113	17.39
589.307	17.31
589.501	17.25
589.694	17.28
589.888	17.2
590.082	17.31
590.275	17.41
590.469	17.26
590.663	16.92
590.856	16.88
591.05	16.79
591.244	16.67
591.437	16.77
591.631	16.83
591.824	16.84
592.018	17.05
592.212	17.1
592.405	16.81
592.599	16.79
592.792	17.11
592.986	17.11
593.179	17.18
593.372	17.4
593.566	17.52
593.759	17.6
593.953	17.53
594.146	17.36
594.339	17.45
594.533	17.76
594.726	17.92
594.92	17.87
595.113	17.86
595.306	17.84
595.499	17.73
595.693	17.61
595.886	17.76
596.079	17.87
596.272	17.91
596.466	17.8
596.659	17.79
596.852	18.02
597.045	18.02
597.238	17.96
597.431	17.9
597.624	17.88
597.818	17.97
598.011	17.9
598.204	17.88
598.397	18.05
598.59	18.07
598.783	18.09
598.976	17.76
599.169	17.74
599.362	17.96
599.555	18.12
599.748	18.4
599.941	18.54
600.134	18.61
600.326	18.66
600.519	18.91
600.712	19.05
600.905	18.98
601.098	19.12
601.291	19.32
601.483	19.07
601.676	19.12
601.869	19.06
602.062	18.9
602.255	18.93
602.447	18.93
602.64	18.74
602.833	18.87
603.025	18.75
603.218	18.77
603.411	18.7
603.603	18.61
603.796	18.63
603.989	18.77
604.181	18.9
604.374	18.98
604.566	19
604.759	19
604.951	18.79
605.144	18.93
605.336	19.14
605.529	19.19
605.721	19.24
605.914	19.25
606.106	19.19
606.299	19.19
606.491	19.19
606.683	19.32
606.876	19.39
607.068	19.56
607.26	19.62
607.453	19.52
607.645	19.69
607.837	19.96
608.03	20.11
608.222	20.19
608.414	20.3
608.606	20.39
608.799	20.39
608.991	20.33
609.183	20.38
609.375	20.44
609.567	20.39
609.759	20.36
609.952	20.21
610.144	20.11
610.336	20.04
610.528	19.87
610.72	20.01
610.912	19.96
611.104	20.04
611.296	20.08
611.488	20.15
611.68	20.15
611.872	20.07
612.064	20.52
612.256	20.71
612.448	20.78
612.64	20.61
612.832	20.43
613.023	20.51
613.215	20.55
613.407	20.52
613.599	20.47
613.791	20.39
613.983	20.43
614.174	20.18
614.366	20.23
614.558	20.1
614.75	20.54
614.941	20.69
615.133	21
615.325	21.1
615.516	21.17
615.708	21.16
615.9	21.18
616.091	21.2
616.283	21.13
616.475	21.05
616.666	21.24
616.858	21.26
617.049	20.97
617.241	20.61
617.432	20.63
617.624	20.89
617.815	20.9
618.007	21.22
618.198	21.48
618.39	21.49
618.581	21.48
618.773	21.82
618.964	21.61
619.155	21.63
619.347	21.77
619.538	21.69
619.729	21.52
619.921	21.47
620.112	21.3
620.303	21.33
620.494	21.61
620.686	21.62
620.877	21.31
621.068	21.72
621.259	21.94
621.451	22.03
621.642	21.75
621.833	21.81
622.024	21.92
622.215	21.94
622.406	22.07
622.597	22.1
622.788	22
622.98	21.9
623.171	21.82
623.362	21.95
623.553	22.22
623.744	22.32
623.935	22.31
624.126	22.41
624.317	22.28
624.508	22.2
624.698	21.94
624.889	22.31
625.08	22.68
625.271	22.91
625.462	23.17
625.653	22.78
625.844	23.21
626.034	23.04
626.225	23.03
626.416	23.26
626.607	23.25
626.798	23.65
626.988	23.52
627.179	23.48
627.37	23.1
627.56	22.81
627.751	23
627.942	22.92
628.132	22.99
628.323	23.1
628.514	22.98
628.704	22.98
628.895	22.72
629.085	22.7
629.276	22.68
629.466	22.97
629.657	23.01
629.847	22.97
630.038	22.92
630.228	23.18
630.419	23.34
630.609	23.47
630.8	23.56
630.99	23.45
631.181	23.82
631.371	24.15
631.561	24.23
631.752	24.57
631.942	24.54
632.132	24.79
632.323	24.46
632.513	24.19
632.703	24.2
632.893	24.06
633.084	24.16
633.274	23.74
633.464	23.37
633.654	23.56
633.844	23.47
634.034	23.3
634.225	23.19
634.415	23.48
634.605	23.76
634.795	23.87
634.985	24.05
635.175	24.02
635.365	24.09
635.555	24.44
635.745	24.33
635.935	24.05
636.125	24.3
636.315	24.43
636.505	24.41
636.695	24.05
636.885	23.89
637.075	23.93
637.265	24.06
637.455	24.04
637.644	23.85
637.834	24.01
638.024	23.95
638.214	24.06
638.404	24.14
638.593	24.26
638.783	24.68
638.973	25.04
639.163	24.57
639.352	24.9
639.542	25.17
639.732	25.35
639.921	25.39
640.111	25.78
640.301	25.78
640.49	25.57
640.68	25.36
640.87	25.32
641.059	25.02
641.249	25.51
641.438	25.15
641.628	24.99
641.817	24.71
642.007	24.69
642.196	24.59
642.386	24.64
642.575	24.93
642.764	24.96
642.954	24.87
643.143	25.26
643.333	25.16
643.522	25.48
643.711	25.43
643.901	25.44
644.09	25.17
644.279	25.03
644.469	25.07
644.658	24.78
644.847	25.08
645.036	25.21
645.226	25
645.415	25.34
645.604	25.14
645.793	25.29
645.982	25.36
646.171	25.34
646.361	25.87
646.55	26.2
646.739	26.16
646.928	25.96
647.117	26.07
647.306	25.93
647.495	25.86
647.684	26.07
647.873	26.24
648.062	26.43
648.251	26.51
648.44	26.2
648.629	25.96
648.818	25.99
649.007	25.71
649.196	25.58
649.384	25.66
649.573	25.43
649.762	25.48
649.951	25.47
650.14	25.44
650.328	25.47
650.517	25.7
650.706	25.82
650.895	26.44
651.083	26.91
651.272	26.65
651.461	26.73
651.65	27.28
651.838	27.05
652.027	26.81
652.216	26.76
652.404	26.99
652.593	26.82
652.781	26.63
652.97	26.53
653.158	26.55
653.347	26.97
653.535	26.81
653.724	25.98
653.912	26.24
654.101	26.62
654.289	26.76
654.478	26.78
654.666	27.03
654.855	27.02
655.043	26.46
655.231	26.06
655.42	25.96
655.608	26.49
655.796	26.79
655.985	26.78
656.173	26.67
656.361	26.65
656.55	26.64
656.738	26.52
656.926	26.99
657.114	27.48
657.302	27.69
657.491	27.53
657.679	27.14
657.867	26.97
658.055	27
658.243	26.95
658.431	27.25
658.619	27.27
658.807	27.35
658.996	27.32
659.184	26.96
659.372	27.27
659.56	27.42
659.748	27.43
659.936	27.72
660.124	27.83
660.311	27.99
660.499	27.89
660.687	28.13
660.875	28.1
661.063	28.07
661.251	28.25
661.439	28.15
661.627	28.35
661.814	28.75
662.002	28.76
662.19	28.83
662.378	28.72
662.565	28.74
662.753	28.38
662.941	28.5
663.129	28.49
663.316	28.73
663.504	28.66
663.692	28.69
663.879	28.83
664.067	28.92
664.254	29.05
664.442	29.05
664.63	28.86
664.817	28.87
665.005	28.86
665.192	28.95
665.38	28.74
665.567	28.5
665.755	28.67
665.942	28.68
666.13	28.96
666.317	28.52
666.504	28.95
666.692	29.13
666.879	29.36
667.067	29.18
667.254	29.03
667.441	29.06
667.629	29.08
667.816	28.99
668.003	28.92
668.19	28.69
668.378	28.68
668.565	28.32
668.752	28.4
668.939	28
669.127	28.19
669.314	28.2
669.501	28.47
669.688	28.62
669.875	28.76
670.062	28.68
670.249	29.09
670.436	29.27
670.623	29.6
670.81	29.54
670.997	29.8
671.184	29.5
671.371	30.05
671.558	30.21
671.745	30.47
671.932	30.1
672.119	29.85
672.306	29.48
672.493	29.85
672.68	30.25
672.867	30.73
673.054	30.57
673.24	31.1
673.427	30.98
673.614	30.6
673.801	31.2
673.988	31.71
674.174	32.02
674.361	31.9
674.548	31.36
674.734	30.78
674.921	30.12
675.108	30.63
675.294	29.98
675.481	29.62
675.668	29.9
675.854	28.57
676.041	28.38
676.227	28.24
676.414	28.72
676.601	29.31
676.787	29.83
676.974	30.17
677.16	29.82
677.347	30.29
677.533	30.54
677.719	30.52
677.906	31.09
678.092	31.14
678.279	30.89
678.465	30.65
678.651	30.19
678.838	29.71
679.024	29.78
679.21	29.76
679.397	29.87
679.583	30.13
679.769	30.09
679.955	30.2
680.142	30.18
680.328	30.97
680.514	30.91
680.7	30.99
680.886	31.28
681.073	31.34
681.259	31.68
681.445	31.95
681.631	31.63
681.817	31.66
682.003	31.71
682.189	31.94
682.375	31.3
682.561	31.46
682.747	31.68
682.933	31.35
683.119	31.33
683.305	31.25
683.491	31.02
683.677	30.87
683.863	31.19
684.049	31.35
684.235	30.91
684.42	30.87
684.606	30.79
684.792	30.78
684.978	30.79
685.164	30.73
685.349	31.13
685.535	31.19
685.721	30.94
685.907	30.46
686.092	30.23
686.278	30.29
686.464	30.44
686.649	30.28
686.835	30.28
687.021	30.51
687.206	30.7
687.392	30.11
687.577	30.01
687.763	30.03
687.948	30.1
688.134	30.41
688.319	31.04
688.505	31.12
688.69	31.43
688.876	31.53
689.061	31.63
689.247	31.92
689.432	31.91
689.618	32.04
689.803	32.06
689.988	31.96
690.174	31.94
690.359	31.77
690.544	31.8
690.73	31.9
690.915	31.72
691.1	31.32
691.285	30.7
691.471	31.05
691.656	31.11
691.841	31.5
692.026	31.82
692.211	32
692.396	32.11
692.582	32.34
692.767	32.31
692.952	32.44
693.137	32.67
693.322	32.94
693.507	32.99
693.692	32.81
693.877	33.06
694.062	33.54
694.247	33.53
694.432	33.47
694.617	33.15
694.802	33.21
694.987	33.34
695.172	33.89
695.357	34.08
695.541	33.73
695.726	33.98
695.911	34.17
696.096	33.44
696.281	33.75
696.466	33.82
696.65	34.27
696.835	34.71
697.02	34.78
697.204	34.44
697.389	34.43
697.574	34.26
697.759	34.12
697.943	33.65
698.128	33.85
698.312	33.16
698.497	32.75
698.682	32.54
698.866	32.23
699.051	32.39
699.235	32.57
699.42	32.39
699.604	32.64
699.789	32.47
699.973	32.77
700.158	32.72
700.342	33.08
700.527	33.57
700.711	33.71
700.895	33.66
701.08	33.57
701.264	33.39
701.448	33.79
701.633	33.87
701.817	33.73
702.001	33.96
702.186	34.08
702.37	34.39
702.554	33.81
702.738	34
702.923	33.93
703.107	34.1
703.291	34.56
703.475	34.02
703.659	33.87
703.843	34.19
704.027	34.33
704.212	34.51
704.396	34.09
704.58	34.23
704.764	33.63
704.948	33.11
705.132	32.38
705.316	32.45
705.5	32.94
705.684	33.39
705.868	33.27
706.052	32.77
706.235	32.69
706.419	33.05
706.603	33.33
706.787	33.39
706.971	34.57
707.155	35.2
707.339	35.07
707.522	35.33
707.706	35.21
707.89	35.96
708.074	36.04
708.257	35.25
708.441	35.61
708.625	35.54
708.808	36.17
708.992	35.79
709.176	35.27
709.359	35.2
709.543	34.68
709.727	34.42
709.91	33.75
710.094	33.06
710.277	33.91
710.461	33.32
710.644	33.23
710.828	32.74
711.011	32.86
711.195	33.13
711.378	32.97
711.562	33.24
711.745	33
711.928	33.43
712.112	34.04
712.295	33.86
712.478	33.95
712.662	34.69
712.845	34.74
713.028	34.43
713.212	34.24
713.395	34.2
713.578	34.41
713.761	34.88
713.945	34.57
714.128	34.6
714.311	34.8
714.494	34.9
714.677	34.54
714.86	34.63
715.043	34.73
715.227	35.21
715.41	35.01
715.593	34.76
715.776	34.79
715.959	34.54
716.142	35.12
716.325	34.8
716.508	35.06
716.691	35.54
716.874	35.36
717.057	35.43
717.239	35.07
717.422	35.56
717.605	35.38
717.788	34.98
717.971	35.35
718.154	34.85
718.337	35.16
718.519	35.14
718.702	34.88
718.885	34.91
719.068	35.01
719.25	35.34
719.433	34.75
719.616	35.33
719.798	34.7
719.981	35.36
720.164	35.3
720.346	35.53
720.529	35.21
720.712	34.5
720.894	34.67
721.077	34.26
721.259	33.75
721.442	34.7
721.624	34.57
721.807	35.47
721.989	35.18
722.172	35.23
722.354	34.93
722.537	34.95
722.719	35.01
722.901	35.11
723.084	35.65
723.266	35.55
723.448	35.62
723.631	35.73
723.813	35.73
723.995	35.18
724.178	34.88
724.36	34.93
724.542	34.91
724.724	35.1
724.907	35.32
725.089	34.69
725.271	35.8
725.453	34.76
725.635	34.47
725.817	34.79
725.999	35.31
726.181	35.96
726.364	35.24
726.546	35.2
726.728	35.6
726.91	35.99
727.092	37.17
727.274	36.12
727.456	37.01
727.638	37.25
727.819	36.59
728.001	36.14
728.183	36.34
728.365	36.88
728.547	37.14
728.729	37.01
728.911	37.03
729.093	36.54
729.274	36.39
729.456	36.75
729.638	36.81
729.82	37.37
730.001	37.28
730.183	36.93
730.365	37.55
730.546	36.96
730.728	36.04
730.91	35.83
731.091	35.98
731.273	35.8
731.455	34.87
731.636	34.94
731.818	35.43
731.999	35.89
732.181	35.69
732.362	35.45
732.544	36.21
732.725	36.66
732.907	36.37
733.088	37.03
733.27	38.05
733.451	38.22
733.633	39.16
733.814	38.73
733.995	38.79
734.177	38.41
734.358	38.5
734.539	38.17
734.721	38.35
734.902	37.76
735.083	36.33
735.264	36.6
735.446	37.4
735.627	35.8
735.808	35.71
735.989	35.75
736.17	37.63
736.351	37.58
736.533	37.23
736.714	37.05
736.895	37.71
737.076	38.67
737.257	38.82
737.438	37.68
737.619	38.65
737.8	40
737.981	40.45
738.162	39.75
738.343	39.62
738.524	39.36
738.705	39.58
738.886	39.5
739.067	39.12
739.247	38.67
739.428	39.26
739.609	38.12
739.79	37.53
739.971	36.11
740.151	36.08
740.332	36.43
740.513	36.29
740.694	37.24
740.874	36.95
741.055	36.65
741.236	36.34
741.417	36.5
741.597	37.31
741.778	37.64
741.958	38.62
742.139	38.33
742.32	37.65
742.5	38.88
742.681	38.5
742.861	38.21
743.042	38.24
743.222	37.84
743.403	37.12
743.583	37.19
743.764	36.35
743.944	36.13
744.124	36.48
744.305	35.81
744.485	35.82
744.666	34.88
744.846	36.26
745.026	36.97
745.207	37.74
745.387	38.3
745.567	38.29
745.747	37.88
745.928	37.52
746.108	37.65
746.288	37.84
746.468	36.81
746.648	37.37
746.829	37.18
747.009	36.6
747.189	36.14
747.369	36.35
747.549	35.48
747.729	35.69
747.909	36.31
748.089	35.81
748.269	36.63
748.449	37.27
748.629	36.83
748.809	37.01
748.989	37.64
749.169	38.63
749.349	38.19
749.529	39.77
749.709	39.13
749.889	38.99
750.068	38.49
750.248	39.28
750.428	39.74
750.608	40.4
750.788	39.51
750.967	38.79
751.147	37.71
751.327	38.49
751.507	37.15
751.686	38.02
751.866	39.27
752.046	39.09
752.225	38.05
752.405	37.88
752.585	37.48
752.764	37.79
752.944	38.18
753.123	37.63
753.303	36.66
753.482	37.7
753.662	37.43
753.841	36.57
754.021	37.32
754.2	37.72
754.38	37.29
754.559	37.11
754.739	36.58
754.918	36.18
755.097	36.95
755.277	37.33
755.456	36.92
755.635	37.24
755.815	36.7
755.994	36.37
756.173	35.94
756.352	35.53
756.532	35.3
756.711	36.37
756.89	36.41
757.069	36.55
757.248	35.73
757.427	35.18
757.607	35.44
757.786	35.87
757.965	35.63
758.144	36.53
758.323	37.78
758.502	37.87
758.681	38.1
758.86	38.67
759.039	38.24
759.218	39.51
759.397	39.36
759.576	38.58
759.755	38.75
759.934	39.22
760.113	38.64
760.291	37.62
760.47	37.56
760.649	37.27
760.828	37.08
761.007	37.05
761.186	36.89
761.364	37.64
761.543	38.09
761.722	37.61
761.901	37.01
762.079	37.14
762.258	37.54
762.437	39.05
762.615	38.23
762.794	38.18
762.972	38.2
763.151	37.78
763.33	37.68
763.508	37.3
763.687	37.07
763.865	37.89
764.044	37.78
764.222	37.38
764.401	37.08
764.579	37.77
764.758	37.6
764.936	37.82
765.114	37.94
765.293	37.85
765.471	38.4
765.65	38.83
765.828	37.94
766.006	37.87
766.184	38.44
766.363	37.61
766.541	37.18
766.719	38.21
766.898	38.63
767.076	38.33
767.254	38.58
767.432	38.71
767.61	38.15
767.788	39.16
767.967	38.79
768.145	38.2
768.323	37.91
768.501	38.74
768.679	37.81
768.857	37.13
769.035	37.51
769.213	36.77
769.391	37.16
769.569	37.99
769.747	38.52
769.925	38.45
770.103	38.82
770.281	40.07
770.459	39.37
770.636	39.13
770.814	39.26
770.992	39.67
771.17	38.97
771.348	38.25
771.525	38.62
771.703	37.45
771.881	37.9
772.059	38.2
772.236	37.93
772.414	37.82
772.592	37.54
772.769	37.26
772.947	36.41
773.125	36.58
773.302	35.67
773.48	35.26
773.657	35.54
773.835	35.57
774.013	36.67
774.19	36.11
774.368	35.6
774.545	35.56
774.723	35.47
774.9	37.03
775.077	39.43
775.255	40.68
775.432	42.06
775.61	41.18
775.787	40.75
775.964	39.09
776.142	40.4
776.319	40.9
776.496	41.02
776.674	40.87
776.851	41.15
777.028	39.57
777.205	39.32
777.382	37.41
777.56	38.06
777.737	40.27
777.914	40.09
778.091	39.5
778.268	40.14
778.445	41.49
778.622	42.96
778.8	42.68
778.977	42.82
779.154	46.97
779.331	48.29
779.508	49.33
779.685	48.43
779.862	49.32
780.038	49.53
780.215	50.4
780.392	48.16
780.569	47.31
780.746	47.07
780.923	47.05
781.1	43.31
781.277	42.33
781.453	42.01
781.63	41.49
781.807	40.33
781.984	40
782.16	38.5
782.337	40.7
782.514	40.33
782.691	40.6
782.867	39.8
783.044	38.12
783.221	38.3
783.397	39.19
783.574	37.88
783.75	40.33
783.927	39.96
784.103	40.33
784.28	42.27
784.456	42.81
784.633	42.55
784.809	43.52
784.986	44.93
785.162	44.76
785.339	43.46
785.515	44.38
785.692	42.37
785.868	41.63
786.044	42.08
786.221	40.32
786.397	40.39
786.573	39.52
786.749	38.05
786.926	39.05
787.102	38.06
787.278	38.74
787.454	39.46
787.631	38.85
787.807	37.95
787.983	36.77
788.159	35.63
788.335	35.04
788.511	35.02
788.687	37.79
788.863	36.33
789.039	38.45
789.216	37.11
789.392	36.53
789.568	38.81
789.744	41.57
789.919	40.15
790.095	39.87
790.271	42.03
790.447	42.93
790.623	42.21
790.799	43.32
790.975	41.73
791.151	43.48
791.327	45.34
791.502	44.17
791.678	43.83
791.854	45.5
792.03	46.42
792.205	46.04
792.381	46.45
792.557	47.6
792.733	48.62
792.908	49.56
793.084	46.75
793.259	45.32
793.435	44.13
793.611	44.23
793.786	44.51
793.962	43.93
794.137	42.21
794.313	40.97
794.488	37.62
794.664	35.88
794.839	38.21
795.015	40.36
795.19	40.9
795.366	42.96
795.541	41.85
795.716	41.01
795.892	42.49
796.067	42.31
796.242	41.76
796.418	43.61
796.593	43.97
796.768	41.02
796.944	40.12
797.119	38.63
797.294	36.44
797.469	36.35
797.644	38.18
797.82	38.44
797.995	37.64
798.17	37.38
798.345	37.15
798.52	36.58
798.695	37.4
798.87	38.1
799.045	38.89
799.22	40.12
799.395	40.32
799.57	39.14
799.745	38.27
799.92	39.54
800.095	41.29
800.27	40.27
800.445	40.61
800.62	39.46
800.795	40.58
800.97	41.6
801.145	40.73
801.319	42.9
801.494	43.55
801.669	46.18
801.844	47.06
802.018	46.31
802.193	47.37
802.368	46.18
802.543	46.49
802.717	45.48
802.892	45.53
803.067	46.32
803.241	43.08
803.416	43.43
803.59	42.16
803.765	41.2
803.94	41.97
804.114	41.22
804.289	43.87
804.463	43.42
804.638	40.89
804.812	42.75
804.986	41.64
805.161	42.48
805.335	40.65
805.51	37.63
805.684	36.85
805.858	35.49
806.033	34.86
806.207	32.42
806.381	35.46
806.556	36.82
806.73	33.79
806.904	34.29
807.078	33.72
807.253	35.95
807.427	36.88
807.601	39.93
807.775	42.47
807.949	45.11
808.123	46.22
808.298	44.31
808.472	46.71
808.646	47.14
808.82	46.05
808.994	46.78
809.168	47.08
809.342	48.17
809.516	46.82
809.69	44.91
809.864	44.74
810.038	46.56
810.212	46.89
810.385	45.66
810.559	46.37
810.733	49.03
810.907	48.34
811.081	45.31
811.255	46.92
811.428	45.44
811.602	45.92
811.776	47.12
811.95	46.58
812.123	45.13
812.297	44.16
812.471	43.93
812.644	41.84
812.818	41.97
812.992	42.49
813.165	41.29
813.339	42.1
813.512	40.04
813.686	37.31
813.86	35.59
814.033	38.15
814.207	39.78
814.38	39.22
814.554	41.91
814.727	41.96
814.9	43.83
815.074	42.44
815.247	40.93
815.421	40.5
815.594	40.76
815.767	38.55
815.941	34.79
816.114	32.72
816.287	32.17
816.46	29.19
816.634	30.68
816.807	32.64
816.98	31.43
817.153	31.6
817.327	33.66
817.5	34.6
817.673	36.9
817.846	39.7
818.019	42.69
818.192	42.52
818.365	43.34
818.538	41.64
818.711	38.21
818.884	39.97
819.057	40.97
819.23	39.23
819.403	38.49
819.576	39.07
819.749	39.12
819.922	36.96
820.095	36.39
820.268	36.2
820.441	36.96
820.614	34.61
820.786	34.21
820.959	34.86
821.132	36.04
821.305	35.75
821.477	36.15
821.65	36.64
821.823	37.56
821.996	37.81
822.168	37.94
822.341	37.5
822.514	38.05
822.686	37.75
822.859	38.03
823.031	37.81
823.204	37.92
823.376	37.7
823.549	37.29
823.722	36.75
823.894	36.99
824.067	37.11
824.239	37.62
824.411	38.13
824.584	38.53
824.756	38.45
824.929	38.48
825.101	38.83
825.273	39.38
825.446	39.64
825.618	39.6
825.79	39.97
825.963	39.57
826.135	39.63
826.307	39.11
826.479	39.53
826.652	38.74
826.824	38.66
826.996	38.36
827.168	38.59
827.34	39.02
827.512	39.13
827.684	38.75
827.856	39.16
828.029	39.71
828.201	40.51
828.373	39.77
828.545	40.43
828.717	41.38
828.889	41.76
829.061	41.41
829.232	41.85
829.404	41.3
829.576	40.51
829.748	40
829.92	40.38
830.092	39.8
830.264	40.41
830.436	40.94
830.607	40.22
830.779	39.33
830.951	39.33
831.123	37.87
831.294	39.13
831.466	38.77
831.638	39.76
831.809	37.55
831.981	39.97
832.153	39.59
832.324	38.3
832.496	39.41
832.667	42.09
832.839	40.89
833.011	40.93
833.182	40.47
833.354	42.83
833.525	43.42
833.697	42.96
833.868	40.66
834.039	40.91
834.211	40.49
834.382	38.91
834.554	37.32
834.725	36.72
834.896	35.67
835.068	35.28
835.239	34.83
835.41	33.71
835.581	35.03
835.753	34.78
835.924	34.95
836.095	35.99
836.266	36.36
836.438	36
836.609	37.29
836.78	38.55
836.951	39.32
837.122	37.79
837.293	38.77
837.464	36.79
837.635	38.52
837.806	38.86
837.977	40.32
838.148	40.68
838.319	41.68
838.49	40.31
838.661	41.52
838.832	42.15
839.003	43.67
839.174	42.83
839.345	42.88
839.516	44.8
839.687	44.91
839.857	42.45
840.028	40.97
840.199	40.6
840.37	44.13
840.54	45.13
840.711	45.04
840.882	50.26
841.053	49.38
841.223	50.04
841.394	46.29
841.564	46.94
841.735	45.97
841.906	45.99
842.076	45.05
842.247	47.29
842.417	44.37
842.588	44.48
842.758	40.78
842.929	45.22
843.099	47.55
843.27	48.77
843.44	44.75
843.611	49.52
843.781	49.15
843.951	50.72
844.122	47.52
844.292	46.32
844.462	49.63
844.633	46.82
844.803	44.17
844.973	44.09
845.144	43.4
845.314	46.89
845.484	39.86
845.654	42.52
845.824	41.88
845.995	41.74
846.165	47.41
846.335	45.12
846.505	46.69
846.675	45.65
846.845	49.54
847.015	46.56
847.185	47
847.355	48.72
847.525	55.12
847.695	64.22
847.865	57.47
848.035	56.04
848.205	50.64
848.375	51.35
848.545	43.48
848.715	36.12
848.884	42.6
849.054	39.92
849.224	37.21
849.394	31.96
849.564	26.73
849.733	30.78
849.903	27.31
850.073	31.04
850.243	33.63
850.412	39.31
850.582	37.49
850.752	37.58
850.921	41.02
851.091	41.72
851.26	43.85
851.43	46.7
851.599	51.06
851.769	55.13
851.939	49.79
852.108	53.83
852.278	59.83
852.447	59.5
852.616	57.49
852.786	53.21
852.955	58.97
853.125	64.97
853.294	62.64
853.463	59.58
853.633	64.79
853.802	62.1
853.971	66.33
854.141	66.53
854.31	66.56
854.479	61.82
854.648	65.59
854.818	61.97
854.987	49.29
855.156	50.15
855.325	46.56
855.494	43.2
855.663	53.28
855.832	48.13
856.001	35.99
856.171	38.95
856.34	31.28
856.509	28.12
856.678	20.63
856.847	31.52
857.016	34.83
857.185	35.75
857.353	34.95
857.522	38.15
857.691	35.6
857.86	44.11
858.029	31.46
858.198	43.27
858.367	49.29
858.535	50.57
858.704	53.9
858.873	55.76
859.042	51.29
859.21	46.83
859.379	43.32
859.548	39.66
859.717	42.58
859.885	47.57
860.054	47.08
860.222	34.89
860.391	41.42
860.56	33.3
860.728	34.14
860.897	29.43
861.065	31.27
861.234	36.93
861.402	36.35
861.571	35.55
861.739	41.24
861.908	40.99
862.076	51.11
862.244	44.81
862.413	36.76
862.581	27.99
862.749	39.62
862.918	49.42
863.086	39.53
863.254	45.03
863.423	45.85
863.591	52.03
863.759	52.2
863.927	45.64
864.096	49.55
864.264	55.71
864.432	55.4
864.6	59.88
864.768	57.52
864.936	68.46
865.104	62.25
865.272	65.16
865.44	55.57
865.608	57.18
865.776	60.41
865.944	60.19
866.112	63.27
866.28	62.95
866.448	56.97
866.616	53.63
866.784	51.73
866.952	49.87
867.12	43.86
867.288	49.95
867.455	46.44
867.623	44.15
867.791	47.66
867.959	44.21
868.127	45.96
868.294	52.21
868.462	46.22
868.63	40.01
868.797	38.27
868.965	48.38
869.133	41.09
869.3	38.6
869.468	36.8
869.636	27.58
869.803	38.8
869.971	40.28
870.138	22.45
870.306	25.41
870.473	21.54
870.641	23.95
870.808	19.1
870.975	23.31
871.143	25.36
871.31	34.41
871.478	42.4
871.645	33.09
871.812	34.82
871.98	46.28
872.147	54
872.314	57.28
872.482	64.43
872.649	62.38
872.816	61.89
872.983	55.34
873.15	48.61
873.318	40.99
873.485	38.91
873.652	41
873.819	38.67
873.986	37.02
874.153	39.06
874.32	30.88
874.487	26.6
874.654	29.33
874.821	40.57
874.988	39.37
875.155	37.19
875.322	40.07
875.489	30.82
875.656	33.16
875.823	27.16
875.99	22.97
876.157	30.68
876.324	36.35
876.49	35.21
876.657	33.4
876.824	33.18
876.991	38.99
877.157	34.14
877.324	40.99
877.491	34.74
877.658	41.09
877.824	44.33
877.991	38.01
878.157	39.15
878.324	36.75
878.491	39.66
878.657	49.18
878.824	50.94
878.99	53.08
879.157	53.89
879.323	54.2
879.49	50.42
879.656	53.87
879.823	53.93
879.989	50.65
880.156	50.73
880.322	46.38
880.488	46.25
880.655	46.02
880.821	47.3
880.987	42.73
881.154	40.09
881.32	40.63
881.486	41.12
881.652	41.92
881.819	43.17
881.985	40.18
882.151	41.52
882.317	40.29
882.483	40.53
882.649	40.73
882.816	42.42
882.982	43.6
883.148	43.91
883.314	41.62
883.48	41.37
883.646	41.41
883.812	39.62
883.978	39.99
884.144	38.85
884.31	37.43
884.476	38.57
884.642	37.81
884.807	37.68
884.973	37.18
885.139	37.89
885.305	37.8
885.471	37.01
885.637	39.58
885.802	38.44
885.968	38.46
886.134	39.68
886.3	38.07
886.465	35.94
886.631	35.39
886.797	36.48
886.962	36.57
887.128	38.99
887.293	39.82
887.459	40.62
887.625	39.45
887.79	42.71
887.956	40.72
888.121	41.9
888.287	46.32
888.452	47.85
888.618	46.15
888.783	48.72
