Data from LC_152_Reflection_3.txt Node
Date: Mon Nov 16 22:09:03 EST 2015
User: robert
Spectrometer: USB4E03001
Autoset integration time: false
Trigger mode: 4
Integration Time (sec): 1.000000E-1
Scans to average: 15
Electric dark correction enabled: true
Nonlinearity correction enabled: false
Boxcar width: 5
Stray light correction enabled: false
XAxis mode: Wavelengths
Stop averaging: false
Number of Pixels in Spectrum: 3648
>>>>>Begin Spectral Data<<<<<
177.566	-113.25
177.785	139.97
178.005	-378.99
178.225	59.92
178.445	-46.86
178.665	386.99
178.885	276.47
179.105	66.36
179.324	-346.73
179.544	22.41
179.764	-241.58
179.984	-161.71
180.204	-215.1
180.423	-143.17
180.643	-225.86
180.863	-119.22
181.083	-93.81
181.302	-126.08
181.522	-129.62
181.742	-122.51
181.961	-235.47
182.181	-249.01
182.401	-254.51
182.621	-972.8
182.84	-479.29
183.06	-321.77
183.279	-219.26
183.499	-145.19
183.719	-100.27
183.938	-61.29
184.158	-105.04
184.377	-54.39
184.597	-83.33
184.816	-30.86
185.036	15.59
185.256	22.04
185.475	17.52
185.695	35.73
185.914	-1.9
186.134	-100.17
186.353	-242.13
186.572	-235.49
186.792	-552.83
187.011	-214.31
187.231	-248.1
187.45	-235.1
187.67	-686.24
187.889	-1844.25
188.108	3823
188.328	-954.8
188.547	-337.61
188.766	-568.64
188.986	-749.15
189.205	-487.1
189.424	-304.31
189.644	-972.51
189.863	-1020.45
190.082	-648.77
190.302	-1521.22
190.521	-706.58
190.74	790.16
190.959	341.61
191.178	493.21
191.398	449.49
191.617	346
191.836	305.98
192.055	483.36
192.274	292.02
192.494	315.74
192.713	281.31
192.932	638.12
193.151	553.49
193.37	1294.65
193.589	-734.34
193.808	-208.24
194.027	-359.56
194.246	-3325.98
194.465	734.43
194.685	1478.94
194.904	774.89
195.123	-1008.75
195.342	-707.46
195.561	-272.05
195.78	-382.29
195.999	17942.25
196.218	707.62
196.436	575.84
196.655	-1820.73
196.874	-475.76
197.093	-786.21
197.312	-578.29
197.531	1766.92
197.75	421.83
197.969	-1296.69
198.188	-206.12
198.407	-30.39
198.625	2.39
198.844	27.46
199.063	-0.97
199.282	-144.01
199.501	-92.34
199.719	-95.34
199.938	-45.99
200.157	-54.57
200.376	-69
200.594	-123.53
200.813	-333.26
201.032	-241.68
201.251	-254.98
201.469	-239.39
201.688	-155.85
201.907	-277.84
202.125	-358.15
202.344	13664.29
202.563	2721.44
202.781	417.27
203	1055.36
203.218	830.71
203.437	764.83
203.656	391.08
203.874	235.57
204.093	217.02
204.311	276.54
204.53	242.36
204.748	396.08
204.967	242.84
205.185	261.95
205.404	364.6
205.622	219.45
205.841	163.74
206.059	153.88
206.278	168.98
206.496	444.91
206.715	236.57
206.933	243.95
207.151	156.46
207.37	177.37
207.588	195.17
207.806	116.92
208.025	231.73
208.243	-297.82
208.461	930.64
208.68	-7737.65
208.898	371.23
209.116	403.74
209.335	441.78
209.553	495.82
209.771	4766.25
209.989	927.87
210.208	2105.51
210.426	-3522.53
210.644	1951.99
210.862	-1363.71
211.081	761.41
211.299	-326.41
211.517	1469.38
211.735	-308.91
211.953	-113271.43
212.171	-1534.64
212.39	-4355.86
212.608	-13139.13
212.826	543.25
213.044	413.44
213.262	324.21
213.48	1442.41
213.698	193.04
213.916	256.42
214.134	149.15
214.352	250.72
214.57	300.49
214.788	397.17
215.006	383
215.224	300.41
215.442	249.46
215.66	280.56
215.878	207.71
216.096	195.98
216.314	231.26
216.532	509.07
216.75	463.81
216.968	374.5
217.185	794.6
217.403	1187.57
217.621	-3721.51
217.839	-954.51
218.057	-909.92
218.275	2195.58
218.492	737.23
218.71	979.62
218.928	227.17
219.146	242.57
219.363	225.03
219.581	187.47
219.799	162.35
220.017	179.16
220.234	180.09
220.452	185.06
220.67	184.03
220.887	165.47
221.105	189.29
221.323	160.5
221.54	132.05
221.758	138.13
221.976	147.53
222.193	107
222.411	35.71
222.629	64.92
222.846	79.45
223.064	81.57
223.281	105.19
223.499	94.8
223.716	102.96
223.934	71.54
224.151	61.34
224.369	39.98
224.586	46.54
224.804	56.96
225.021	55.75
225.239	40.25
225.456	51.67
225.674	35.23
225.891	45.37
226.108	54.54
226.326	66.23
226.543	73.72
226.76	72.65
226.978	68.25
227.195	71.84
227.413	56.16
227.63	48.91
227.847	40.24
228.064	37.12
228.282	32.64
228.499	28.95
228.716	24.35
228.934	19.85
229.151	21.74
229.368	19.18
229.585	17
229.802	20.1
230.02	20.58
230.237	21.9
230.454	22.05
230.671	22.7
230.888	22.37
231.105	24.16
231.323	28.27
231.54	26.02
231.757	27.88
231.974	27.47
232.191	24.26
232.408	28.26
232.625	27.9
232.842	31.11
233.059	30.86
233.276	26.6
233.493	26.36
233.71	22.41
233.927	27.21
234.144	22.88
234.361	21.04
234.578	25.04
234.795	21.95
235.012	20.76
235.229	23.1
235.446	22.53
235.663	25.35
235.879	28.19
236.096	24.58
236.313	23.35
236.53	28.05
236.747	29.41
236.964	25.97
237.181	29.35
237.397	29.61
237.614	22.8
237.831	23.63
238.048	28.52
238.264	27.21
238.481	29.78
238.698	31.53
238.915	27.03
239.131	27.18
239.348	24.31
239.565	24.65
239.781	24.12
239.998	25.65
240.215	25.09
240.431	21.76
240.648	20.96
240.865	21.56
241.081	19.34
241.298	20.34
241.514	19.89
241.731	19.95
241.947	19.37
242.164	20.11
242.38	19.15
242.597	18.22
242.814	17.84
243.03	17.15
243.246	17.08
243.463	17.32
243.679	18.16
243.896	16.65
244.112	17.52
244.329	16.67
244.545	15.69
244.762	17.03
244.978	17.82
245.194	18.59
245.411	18.86
245.627	18.23
245.843	17.46
246.06	15.88
246.276	16.81
246.492	15.31
246.709	14.91
246.925	14.91
247.141	14.34
247.357	13.77
247.574	13.28
247.79	13.23
248.006	12.16
248.222	12.18
248.439	12.15
248.655	12.24
248.871	12.81
249.087	12.98
249.303	12.24
249.519	13.23
249.736	14.01
249.952	13.81
250.168	14.97
250.384	16.76
250.6	17.18
250.816	16.89
251.032	15.64
251.248	15.21
251.464	15.95
251.68	16.16
251.896	15.83
252.112	17.49
252.328	18.64
252.544	18.11
252.76	18.83
252.976	19.02
253.192	19.78
253.408	20.1
253.624	22.16
253.84	21.42
254.056	23.33
254.272	20.48
254.487	18.75
254.703	16.03
254.919	16.01
255.135	13.03
255.351	12.14
255.567	12.9
255.782	14.85
255.998	11.84
256.214	12.67
256.43	9.6
256.646	13.67
256.861	13.23
257.077	14.29
257.293	11.93
257.508	11.26
257.724	13.51
257.94	12.41
258.155	10.41
258.371	12.03
258.587	11.3
258.802	11.64
259.018	11.35
259.234	10.95
259.449	11.01
259.665	10.87
259.88	11.82
260.096	10.79
260.312	10.1
260.527	10.55
260.743	10.89
260.958	11.32
261.174	10.73
261.389	10.75
261.605	10.86
261.82	11.16
262.036	12.27
262.251	12.55
262.466	12.18
262.682	14.15
262.897	13.7
263.113	11.95
263.328	11.43
263.543	12.71
263.759	11.44
263.974	12.51
264.189	12.71
264.405	11.01
264.62	10.5
264.835	12.56
265.051	13.3
265.266	15.06
265.481	16.1
265.696	17.36
265.912	16.33
266.127	16.1
266.342	14.58
266.557	14.42
266.773	15.09
266.988	15.38
267.203	15.16
267.418	12.67
267.633	11.76
267.848	11.92
268.064	11.05
268.279	12.57
268.494	11.86
268.709	12.56
268.924	12.61
269.139	12.95
269.354	12.17
269.569	10.58
269.784	11.97
269.999	12.02
270.214	10.75
270.429	11.39
270.644	9.56
270.859	10.68
271.074	10.53
271.289	10.31
271.504	10.16
271.719	10.71
271.934	10.35
272.149	9.59
272.363	10
272.578	9.98
272.793	9.05
273.008	9.64
273.223	8.96
273.438	8.03
273.653	8.11
273.867	7.45
274.082	6.68
274.297	8.23
274.512	9.65
274.726	8.5
274.941	9.54
275.156	10.49
275.371	11.52
275.585	11.99
275.8	13.48
276.015	12.55
276.229	12.83
276.444	13.97
276.659	13.83
276.873	13.32
277.088	14.81
277.302	14.05
277.517	15.26
277.732	15.59
277.946	15.54
278.161	15.65
278.375	16.95
278.59	16.63
278.804	16
279.019	15.55
279.233	15.62
279.448	15.03
279.662	14.18
279.877	12.86
280.091	11.58
280.306	11.24
280.52	11.22
280.735	9.65
280.949	9.18
281.163	9.4
281.378	8.37
281.592	8.41
281.806	9.86
282.021	9.5
282.235	9.09
282.449	9.12
282.664	9.44
282.878	8.8
283.092	9.89
283.307	9.69
283.521	9.81
283.735	10.07
283.949	10.3
284.164	9.36
284.378	11.13
284.592	11.17
284.806	11.82
285.02	11.73
285.234	11.36
285.449	10.66
285.663	11.37
285.877	11.24
286.091	11.39
286.305	11.36
286.519	10.65
286.733	9.69
286.947	9.72
287.161	9.47
287.375	10.11
287.589	10.91
287.803	11.13
288.017	10.75
288.231	10.73
288.445	11.23
288.659	10.85
288.873	10.18
289.087	10.42
289.301	10.94
289.515	10.53
289.729	9.43
289.943	9.76
290.157	9.63
290.371	11.44
290.584	10.62
290.798	11.82
291.012	13.06
291.226	13.08
291.44	13.49
291.654	14.09
291.867	14.81
292.081	14.58
292.295	14.83
292.509	15.25
292.722	14.34
292.936	14.88
293.15	14.15
293.364	13.25
293.577	14.31
293.791	14.08
294.005	13.27
294.218	12.57
294.432	13.29
294.645	11.86
294.859	11.44
295.073	11.3
295.286	11.92
295.5	11.36
295.713	11.5
295.927	11.68
296.14	11.85
296.354	11.21
296.568	11.03
296.781	11.72
296.994	12.38
297.208	12.46
297.421	12.6
297.635	11.52
297.848	11.19
298.062	10.47
298.275	10.42
298.489	10.53
298.702	11.25
298.915	12.01
299.129	11.55
299.342	11.54
299.555	11.01
299.769	11.43
299.982	12.38
300.195	12.6
300.409	12.92
300.622	13.18
300.835	13.48
301.048	13.22
301.262	12.93
301.475	12.21
301.688	12.6
301.901	13.53
302.115	13.04
302.328	13.8
302.541	13.57
302.754	14.08
302.967	13.79
303.18	13.46
303.393	13.93
303.607	13.34
303.82	13.82
304.033	12.8
304.246	13.27
304.459	13.06
304.672	11.84
304.885	12.78
305.098	12.93
305.311	13.03
305.524	13.13
305.737	12.39
305.95	13.27
306.163	13.25
306.376	13.57
306.589	13.97
306.802	13.25
307.015	14.16
307.228	14.74
307.44	14.3
307.653	14.29
307.866	12.93
308.079	13.52
308.292	13.57
308.505	13.85
308.718	13.6
308.93	12.08
309.143	13.07
309.356	12.77
309.569	11.81
309.781	12.29
309.994	12.38
310.207	13.73
310.42	13.22
310.632	12.75
310.845	13.09
311.058	12.43
311.27	13.46
311.483	12.85
311.696	13.03
311.908	13.04
312.121	13.28
312.333	12.77
312.546	12.24
312.759	13.25
312.971	12.73
313.184	13.11
313.396	13.97
313.609	14.21
313.821	14.59
314.034	14.88
314.246	15.42
314.459	14.86
314.671	14.95
314.884	14.38
315.096	13.07
315.309	13.08
315.521	12.96
315.733	12.22
315.946	10.73
316.158	9.37
316.371	8.34
316.583	8.21
316.795	7.9
317.008	9.2
317.22	10.49
317.432	9.72
317.644	10.64
317.857	9.55
318.069	10.36
318.281	11.59
318.494	13.16
318.706	14.43
318.918	14.08
319.13	14.28
319.342	14.02
319.555	13.73
319.767	15.38
319.979	15.16
320.191	15.79
320.403	15.7
320.615	16.2
320.827	16.61
321.039	15.54
321.252	15.73
321.464	14.53
321.676	14.24
321.888	13.66
322.1	13.25
322.312	11.52
322.524	10.61
322.736	10.77
322.948	9.12
323.16	8.23
323.372	9.5
323.584	9.26
323.796	8.72
324.007	9.16
324.219	10.17
324.431	9.96
324.643	11.37
324.855	12.22
325.067	12.72
325.279	13.27
325.491	13.65
325.702	12.4
325.914	12.63
326.126	14.37
326.338	14.72
326.55	13.11
326.761	13.37
326.973	13
327.185	13
327.396	12.3
327.608	12.52
327.82	12.98
328.032	13.35
328.243	12.31
328.455	13.28
328.666	12.01
328.878	13.54
329.09	12.52
329.301	12.36
329.513	12.83
329.725	13.31
329.936	12.12
330.148	11.28
330.359	11.24
330.571	11.68
330.782	10.15
330.994	10.99
331.205	10.69
331.417	11.68
331.628	13.08
331.84	13.05
332.051	13.49
332.262	15.27
332.474	14.77
332.685	15.76
332.897	15.86
333.108	16.96
333.319	16.75
333.531	17.24
333.742	17.66
333.953	16.31
334.165	15.77
334.376	16.09
334.587	15.71
334.799	16.57
335.01	15.72
335.221	15.79
335.432	15.52
335.644	15.08
335.855	14.81
336.066	15.11
336.277	15.97
336.488	16.01
336.7	15.41
336.911	16.07
337.122	15.72
337.333	16.79
337.544	17.95
337.755	17.64
337.966	18.54
338.177	18.2
338.388	17.76
338.599	17.75
338.811	17.77
339.022	18.15
339.233	17.35
339.444	18.16
339.655	16.88
339.866	16.8
340.076	17.39
340.287	17.42
340.498	17.86
340.709	18.01
340.92	17.09
341.131	16.6
341.342	16.74
341.553	16.47
341.764	15.87
341.975	16.88
342.185	16.22
342.396	15.19
342.607	15.04
342.818	15.28
343.029	15.55
343.239	16.6
343.45	17.32
343.661	16.96
343.872	17.55
344.082	17.66
344.293	17.05
344.504	17.58
344.714	17.4
344.925	16.65
345.136	16.9
345.346	16.99
345.557	16.81
345.768	16.29
345.978	16
346.189	15.91
346.399	14.94
346.61	15.57
346.821	15.26
347.031	16.04
347.242	16.45
347.452	16.31
347.663	15.43
347.873	15.33
348.084	15.59
348.294	16.44
348.504	16.59
348.715	17.79
348.925	17.67
349.136	17.51
349.346	17.5
349.557	17.87
349.767	17.62
349.977	17.9
350.188	18.27
350.398	18.53
350.608	18.17
350.819	17.98
351.029	18.22
351.239	17.72
351.449	17.19
351.66	17.47
351.87	17.37
352.08	17.08
352.29	17.24
352.501	16.57
352.711	16.17
352.921	16.06
353.131	15.61
353.341	15.17
353.552	14.67
353.762	15.45
353.972	14.97
354.182	14.69
354.392	14.04
354.602	14.04
354.812	14.19
355.022	14.84
355.232	14.8
355.442	15.31
355.652	15.52
355.862	15.58
356.072	15.6
356.282	15.43
356.492	15.46
356.702	15.73
356.912	15.44
357.122	15.14
357.332	14.33
357.542	14.46
357.752	14.12
357.962	13.41
358.171	13.76
358.381	14.19
358.591	14.15
358.801	13.72
359.011	14.43
359.221	14.61
359.43	14.92
359.64	15.58
359.85	16.05
360.06	15.9
360.269	16.54
360.479	15.89
360.689	15.08
360.899	14.98
361.108	15.06
361.318	14.97
361.528	14.63
361.737	14.42
361.947	13.72
362.156	13.3
362.366	13.24
362.576	12.92
362.785	13.44
362.995	13.49
363.204	13.5
363.414	13.49
363.623	12.93
363.833	12.91
364.042	12.73
364.252	13.1
364.461	12.83
364.671	12.79
364.88	13.3
365.09	12.96
365.299	12.57
365.509	11.79
365.718	11.67
365.927	11.67
366.137	12.04
366.346	11.97
366.555	11.89
366.765	12.19
366.974	12.3
367.183	11.64
367.393	11.34
367.602	11.72
367.811	12.77
368.021	13
368.23	13.29
368.439	12.82
368.648	13.37
368.857	13.84
369.067	13.41
369.276	13.03
369.485	13.13
369.694	13.75
369.903	13.92
370.112	13.68
370.321	13.65
370.531	13.54
370.74	13.46
370.949	13.35
371.158	12.97
371.367	13.52
371.576	13.65
371.785	13.48
371.994	13.18
372.203	13.09
372.412	13
372.621	13.12
372.83	12.61
373.039	13.03
373.248	12.75
373.457	12.49
373.666	11.76
373.874	11.58
374.083	12.01
374.292	11.81
374.501	11.84
374.71	11.57
374.919	11.64
375.128	11.91
375.336	11.48
375.545	11.67
375.754	11.4
375.963	11.19
376.171	11.43
376.38	11.55
376.589	11.85
376.798	11.57
377.006	11.9
377.215	12
377.424	12.11
377.632	12.36
377.841	12.48
378.05	12.74
378.258	13.21
378.467	13.23
378.675	12.99
378.884	12.86
379.093	13.05
379.301	12.67
379.51	12.32
379.718	12.16
379.927	12.19
380.135	11.89
380.344	12
380.552	11.65
380.761	11.88
380.969	11.55
381.177	11.49
381.386	11.17
381.594	11.31
381.803	11.37
382.011	11.5
382.219	11.14
382.428	10.68
382.636	10.63
382.845	10.87
383.053	10.35
383.261	10.34
383.469	10.45
383.678	10.95
383.886	11.01
384.094	10.73
384.302	10.47
384.511	10.74
384.719	11.27
384.927	10.84
385.135	10.94
385.343	11.17
385.552	11.32
385.76	11.02
385.968	10.67
386.176	10.51
386.384	10.28
386.592	10.31
386.8	9.85
387.008	9.82
387.216	10.18
387.424	10.08
387.633	10.31
387.841	10.22
388.049	10.32
388.257	10.16
388.465	10.25
388.672	10.76
388.88	10.92
389.088	11
389.296	10.97
389.504	11.14
389.712	11.3
389.92	10.98
390.128	10.85
390.336	11.03
390.544	11.31
390.751	10.93
390.959	10.67
391.167	10.56
391.375	10.9
391.583	10.58
391.79	10.24
391.998	9.91
392.206	10
392.414	10.06
392.621	9.88
392.829	9.87
393.037	9.78
393.244	9.6
393.452	9.45
393.66	9.27
393.867	9.81
394.075	9.98
394.283	9.93
394.49	9.71
394.698	9.74
394.905	9.63
395.113	9.49
395.32	10.07
395.528	10.26
395.735	10.43
395.943	10.39
396.15	9.84
396.358	9.82
396.565	9.78
396.773	10.12
396.98	10.2
397.188	10.11
397.395	10.31
397.602	9.93
397.81	9.74
398.017	9.81
398.225	9.85
398.432	10.12
398.639	9.95
398.847	9.94
399.054	9.69
399.261	9.49
399.468	9.71
399.676	9.21
399.883	9.22
400.09	9.39
400.297	9.36
400.505	9.15
400.712	8.93
400.919	9.12
401.126	9.45
401.333	9.43
401.54	9.52
401.748	9.49
401.955	9.73
402.162	9.93
402.369	9.95
402.576	9.84
402.783	10.08
402.99	10.38
403.197	10.25
403.404	9.89
403.611	9.86
403.818	9.74
404.025	9.7
404.232	9.58
404.439	9.46
404.646	9.29
404.853	9.2
405.06	9.16
405.267	8.79
405.474	8.66
405.681	8.66
405.887	8.7
406.094	8.65
406.301	8.7
406.508	8.79
406.715	8.93
406.922	9.01
407.128	9.01
407.335	9.01
407.542	9.12
407.749	9.33
407.955	9.55
408.162	9.58
408.369	9.72
408.575	9.62
408.782	9.45
408.989	9.2
409.195	9.14
409.402	9.29
409.609	9.11
409.815	9.05
410.022	9.12
410.228	9.04
410.435	8.74
410.642	8.53
410.848	8.68
411.055	8.62
411.261	8.83
411.468	9.02
411.674	8.84
411.881	8.94
412.087	9.23
412.294	9.28
412.5	8.94
412.706	9.14
412.913	9.08
413.119	8.74
413.326	8.83
413.532	8.76
413.738	8.5
413.945	8.56
414.151	8.43
414.357	8.38
414.564	7.95
414.77	8.34
414.976	8.32
415.182	8.58
415.389	8.77
415.595	8.65
415.801	8.69
416.007	8.85
416.214	9.03
416.42	9.12
416.626	8.85
416.832	8.96
417.038	8.78
417.244	8.84
417.45	8.69
417.657	8.77
417.863	9.05
418.069	9.19
418.275	9.15
418.481	8.93
418.687	8.97
418.893	9.08
419.099	9.08
419.305	9.22
419.511	9.19
419.717	9.19
419.923	9.11
420.129	8.98
420.335	8.82
420.541	8.81
420.746	8.9
420.952	8.91
421.158	8.89
421.364	8.87
421.57	8.94
421.776	8.91
421.982	8.89
422.187	8.81
422.393	8.84
422.599	8.79
422.805	8.83
423.01	8.95
423.216	8.91
423.422	8.89
423.628	8.91
423.833	8.81
424.039	8.83
424.245	8.86
424.45	8.94
424.656	8.99
424.862	9.08
425.067	9.08
425.273	8.93
425.478	8.97
425.684	8.9
425.889	9.03
426.095	9.05
426.301	9
426.506	8.99
426.712	9.13
426.917	8.95
427.123	8.98
427.328	8.96
427.533	8.92
427.739	8.94
427.944	9
428.15	8.78
428.355	8.9
428.561	8.85
428.766	8.87
428.971	8.66
429.177	8.94
429.382	8.89
429.587	8.9
429.793	8.89
429.998	8.78
430.203	8.95
430.408	8.97
430.614	8.75
430.819	8.95
431.024	9.14
431.229	9.13
431.434	9.06
431.64	9.01
431.845	9.05
432.05	9.09
432.255	8.89
432.46	8.63
432.665	8.68
432.87	8.64
433.076	8.54
433.281	8.46
433.486	8.46
433.691	8.2
433.896	8.02
434.101	8.01
434.306	8.15
434.511	8.15
434.716	8.36
434.921	8.36
435.126	8.34
435.331	8.34
435.535	8.34
435.74	8.28
435.945	8.55
436.15	8.71
436.355	8.64
436.56	8.54
436.765	8.78
436.97	8.63
437.174	8.59
437.379	8.77
437.584	8.91
437.789	8.87
437.993	9.02
438.198	9.01
438.403	9.1
438.608	9.07
438.812	8.98
439.017	8.98
439.222	9.05
439.426	8.98
439.631	8.93
439.836	8.74
440.04	8.75
440.245	8.76
440.45	8.75
440.654	8.69
440.859	8.61
441.063	8.69
441.268	8.61
441.472	8.54
441.677	8.6
441.881	8.47
442.086	8.53
442.29	8.5
442.495	8.5
442.699	8.56
442.904	8.46
443.108	8.59
443.312	8.56
443.517	8.54
443.721	8.55
443.925	8.57
444.13	8.62
444.334	8.68
444.538	8.58
444.743	8.39
444.947	8.17
445.151	8.25
445.356	8.13
445.56	8.13
445.764	8.1
445.968	8.18
446.173	8.15
446.377	8.36
446.581	8.31
446.785	8.36
446.989	8.46
447.193	8.63
447.398	8.59
447.602	8.53
447.806	8.64
448.01	8.74
448.214	8.74
448.418	8.73
448.622	8.64
448.826	8.69
449.03	8.89
449.234	8.97
449.438	8.77
449.642	8.88
449.846	9.1
450.05	9.01
450.254	8.93
450.458	9.01
450.662	8.95
450.866	8.75
451.069	8.64
451.273	8.43
451.477	8.3
451.681	8.38
451.885	8.19
452.089	8.26
452.292	8.27
452.496	8.31
452.7	8.26
452.904	8.36
453.107	8.48
453.311	8.63
453.515	8.56
453.719	8.36
453.922	8.35
454.126	8.44
454.33	8.3
454.533	8.2
454.737	8.12
454.94	8.08
455.144	8.1
455.348	7.96
455.551	7.9
455.755	7.84
455.958	8.09
456.162	8.08
456.365	8.21
456.569	8.22
456.772	8.1
456.976	8.15
457.179	8.18
457.383	8.07
457.586	8.29
457.79	8.24
457.993	8.37
458.196	8.15
458.4	8.19
458.603	8.04
458.807	8.03
459.01	8.15
459.213	8.07
459.417	7.88
459.62	8
459.823	7.91
460.026	7.84
460.23	7.82
460.433	8.01
460.636	7.98
460.839	8.02
461.042	8.05
461.246	8.11
461.449	8.18
461.652	8.37
461.855	8.2
462.058	8.22
462.261	8.13
462.464	8.21
462.668	8.17
462.871	8.2
463.074	8.24
463.277	8.02
463.48	8.04
463.683	7.98
463.886	7.91
464.089	7.84
464.292	7.91
464.495	8.08
464.698	7.99
464.901	7.9
465.104	7.92
465.306	7.83
465.509	8.12
465.712	8.01
465.915	8.19
466.118	7.99
466.321	8.04
466.524	8.16
466.726	8.3
466.929	8.33
467.132	8.5
467.335	8.5
467.538	8.37
467.74	8.15
467.943	8.35
468.146	8.24
468.348	8.5
468.551	8.57
468.754	8.39
468.956	8.3
469.159	8.27
469.362	8.05
469.564	8.08
469.767	8.16
469.969	8.16
470.172	8
470.375	8
470.577	7.85
470.78	7.87
470.982	8
471.185	8.06
471.387	8.23
471.59	8.31
471.792	8.25
471.995	8.43
472.197	8.52
472.399	8.46
472.602	8.31
472.804	8.38
473.007	8.36
473.209	8.24
473.411	8.12
473.614	7.93
473.816	7.88
474.018	7.98
474.22	7.93
474.423	8.08
474.625	8.14
474.827	8.37
475.03	8.46
475.232	8.59
475.434	8.65
475.636	8.79
475.838	8.83
476.04	8.9
476.243	8.63
476.445	8.62
476.647	8.42
476.849	8.31
477.051	8.22
477.253	8.17
477.455	8.08
477.657	7.94
477.859	7.8
478.061	7.8
478.263	7.68
478.465	7.84
478.667	7.82
478.869	7.73
479.071	7.7
479.273	7.84
479.475	7.76
479.677	7.7
479.879	7.74
480.081	7.9
480.283	7.9
480.485	7.82
480.686	7.79
480.888	7.87
481.09	7.9
481.292	7.96
481.494	7.82
481.695	7.9
481.897	7.83
482.099	7.83
482.301	7.76
482.502	7.71
482.704	7.78
482.906	7.83
483.107	7.81
483.309	7.84
483.511	7.88
483.712	7.87
483.914	7.84
484.115	7.86
484.317	7.88
484.519	7.86
484.72	7.88
484.922	7.86
485.123	7.87
485.325	7.81
485.526	7.83
485.728	7.79
485.929	7.75
486.131	7.76
486.332	7.76
486.534	7.74
486.735	7.8
486.936	7.76
487.138	7.71
487.339	7.69
487.541	7.74
487.742	7.69
487.943	7.7
488.144	7.73
488.346	7.68
488.547	7.68
488.748	7.7
488.95	7.63
489.151	7.72
489.352	7.79
489.553	7.81
489.755	7.83
489.956	7.83
490.157	7.83
490.358	7.86
490.559	7.92
490.76	7.91
490.961	7.88
491.163	7.88
491.364	7.88
491.565	7.81
491.766	7.78
491.967	7.79
492.168	7.79
492.369	7.83
492.57	7.82
492.771	7.79
492.972	7.8
493.173	7.81
493.374	7.81
493.575	7.81
493.776	7.92
493.976	7.95
494.177	7.87
494.378	8.18
494.579	8.13
494.78	8.31
494.981	8.33
495.182	8.32
495.382	8.36
495.583	8.35
495.784	8.37
495.985	8.45
496.185	8.49
496.386	8.56
496.587	8.46
496.788	8.42
496.988	8.35
497.189	8.5
497.39	8.59
497.59	8.55
497.791	8.64
497.992	8.52
498.192	8.46
498.393	8.44
498.593	8.53
498.794	8.3
498.994	8.35
499.195	8.34
499.395	8.38
499.596	8.39
499.796	8.42
499.997	8.4
500.197	8.5
500.398	8.57
500.598	8.5
500.799	8.53
500.999	8.71
501.199	8.82
501.4	8.82
501.6	8.62
501.801	8.76
502.001	8.83
502.201	8.97
502.402	9.06
502.602	8.96
502.802	9.03
503.002	9.02
503.203	9.09
503.403	9.01
503.603	9.01
503.803	9.12
504.003	9.12
504.204	9.05
504.404	8.96
504.604	8.89
504.804	9
505.004	9.03
505.204	9.02
505.404	9.07
505.604	9.14
505.804	9.12
506.005	9.12
506.205	9.05
506.405	9.23
506.605	9.28
506.805	9.31
507.005	9.28
507.204	9.33
507.404	9.36
507.604	9.36
507.804	9.35
508.004	9.49
508.204	9.47
508.404	9.53
508.604	9.48
508.804	9.49
509.003	9.64
509.203	9.71
509.403	9.71
509.603	9.74
509.803	9.82
510.002	9.86
510.202	9.85
510.402	9.8
510.602	9.81
510.801	9.87
511.001	9.97
511.201	9.9
511.4	9.91
511.6	9.94
511.8	10.01
511.999	10.03
512.199	9.91
512.398	9.96
512.598	10.17
512.797	10.27
512.997	10.31
513.197	10.31
513.396	10.29
513.596	10.41
513.795	10.55
513.994	10.54
514.194	10.43
514.393	10.58
514.593	10.54
514.792	10.47
514.992	10.45
515.191	10.38
515.39	10.29
515.59	10.38
515.789	10.34
515.988	10.3
516.188	10.35
516.387	10.37
516.586	10.45
516.786	10.69
516.985	10.72
517.184	10.75
517.383	10.89
517.582	11.04
517.782	11.14
517.981	11.11
518.18	11.13
518.379	11.11
518.578	11.25
518.777	11.3
518.976	11.14
519.176	11.22
519.375	11.2
519.574	11.12
519.773	11.14
519.972	11.01
520.171	11.06
520.37	11.11
520.569	11.28
520.768	11.17
520.967	11.22
521.166	11.25
521.365	11.24
521.564	11.33
521.762	11.48
521.961	11.5
522.16	11.67
522.359	11.74
522.558	11.75
522.757	11.71
522.956	11.9
523.154	11.81
523.353	11.95
523.552	11.93
523.751	12.09
523.949	12.14
524.148	12.17
524.347	12.23
524.546	12.34
524.744	12.2
524.943	12.3
525.142	12.3
525.34	12.42
525.539	12.43
525.737	12.46
525.936	12.4
526.135	12.37
526.333	12.39
526.532	12.41
526.73	12.46
526.929	12.57
527.127	12.55
527.326	12.63
527.524	12.67
527.723	12.69
527.921	12.78
528.12	12.8
528.318	12.82
528.516	12.83
528.715	12.82
528.913	12.74
529.112	12.77
529.31	12.74
529.508	12.71
529.707	12.68
529.905	12.7
530.103	12.74
530.301	12.76
530.5	12.77
530.698	12.79
530.896	12.83
531.094	12.97
531.293	13.1
531.491	13.28
531.689	13.33
531.887	13.49
532.085	13.57
532.283	13.48
532.481	13.52
532.68	13.56
532.878	13.54
533.076	13.64
533.274	13.56
533.472	13.49
533.67	13.46
533.868	13.54
534.066	13.48
534.264	13.37
534.462	13.4
534.66	13.45
534.858	13.52
535.056	13.55
535.253	13.45
535.451	13.57
535.649	13.65
535.847	13.72
536.045	13.73
536.243	13.84
536.441	14.09
536.638	14.18
536.836	14.19
537.034	14.2
537.232	14.34
537.43	14.46
537.627	14.51
537.825	14.51
538.023	14.53
538.22	14.65
538.418	14.62
538.616	14.58
538.813	14.7
539.011	14.76
539.209	14.74
539.406	14.75
539.604	14.92
539.801	15.08
539.999	15.31
540.196	15.36
540.394	15.48
540.591	15.65
540.789	15.69
540.986	15.66
541.184	15.7
541.381	15.76
541.579	15.78
541.776	15.75
541.974	15.67
542.171	15.65
542.368	15.65
542.566	15.57
542.763	15.59
542.96	15.61
543.158	15.69
543.355	15.84
543.552	15.94
543.75	16.06
543.947	15.99
544.144	16.07
544.341	16.13
544.539	16.25
544.736	16.34
544.933	16.3
545.13	16.29
545.327	16.25
545.524	16.17
545.722	16.19
545.919	16.17
546.116	16.38
546.313	16.51
546.51	16.45
546.707	16.47
546.904	16.47
547.101	16.53
547.298	16.75
547.495	16.9
547.692	16.86
547.889	16.86
548.086	17.02
548.283	17.05
548.48	17.09
548.677	17.19
548.874	17.35
549.07	17.49
549.267	17.53
549.464	17.46
549.661	17.39
549.858	17.63
550.055	17.76
550.251	17.78
550.448	17.84
550.645	17.98
550.842	18
551.038	18.03
551.235	17.92
551.432	17.97
551.628	18.02
551.825	18.3
552.022	18.3
552.218	18.39
552.415	18.43
552.612	18.4
552.808	18.29
553.005	18.47
553.201	18.55
553.398	18.64
553.594	18.83
553.791	18.93
553.987	18.93
554.184	19.06
554.38	18.99
554.577	18.96
554.773	19.16
554.97	19.35
555.166	19.52
555.362	19.54
555.559	19.72
555.755	19.72
555.952	19.68
556.148	19.73
556.344	19.66
556.541	19.75
556.737	19.89
556.933	19.94
557.129	19.87
557.326	19.7
557.522	19.83
557.718	19.9
557.914	19.92
558.11	20.09
558.307	20.04
558.503	20.2
558.699	20.35
558.895	20.59
559.091	20.52
559.287	20.52
559.483	20.68
559.679	20.86
559.876	20.72
560.072	20.73
560.268	20.73
560.464	20.71
560.66	20.79
560.856	20.81
561.052	20.86
561.247	21.06
561.443	21.29
561.639	21.26
561.835	21.15
562.031	21.29
562.227	21.46
562.423	21.58
562.619	21.71
562.815	21.76
563.01	21.78
563.206	21.6
563.402	21.48
563.598	21.35
563.793	21.51
563.989	21.57
564.185	21.56
564.381	21.71
564.576	21.79
564.772	21.92
564.968	22
565.163	22.04
565.359	21.99
565.555	22.18
565.75	22.33
565.946	22.34
566.141	22.42
566.337	22.59
566.532	22.6
566.728	22.79
566.923	22.77
567.119	22.66
567.314	22.62
567.51	22.88
567.705	22.95
567.901	23.04
568.096	23.11
568.292	23.28
568.487	23.28
568.682	23.36
568.878	23.34
569.073	23.51
569.268	23.67
569.464	23.9
569.659	23.92
569.854	24.04
570.05	24.12
570.245	24.01
570.44	23.93
570.635	24.07
570.831	23.96
571.026	24.02
571.221	24.11
571.416	24.12
571.611	24.12
571.806	24.16
572.002	24.14
572.197	24.12
572.392	24.25
572.587	24.32
572.782	24.44
572.977	24.63
573.172	24.75
573.367	24.76
573.562	24.77
573.757	24.61
573.952	24.78
574.147	24.96
574.342	25.28
574.537	25.47
574.732	25.64
574.927	25.44
575.121	25.52
575.316	25.43
575.511	25.36
575.706	25.52
575.901	25.68
576.096	25.85
576.29	25.8
576.485	25.64
576.68	25.77
576.875	25.61
577.069	25.87
577.264	25.77
577.459	25.94
577.654	26.1
577.848	26.09
578.043	26.34
578.238	26.23
578.432	26.11
578.627	26.1
578.821	25.95
579.016	26.07
579.21	26.19
579.405	26.25
579.6	26.3
579.794	26.3
579.989	26.33
580.183	26.5
580.378	26.52
580.572	26.85
580.766	26.79
580.961	26.85
581.155	26.88
581.35	26.76
581.544	26.62
581.738	26.48
581.933	26.78
582.127	26.98
582.321	26.8
582.516	26.85
582.71	26.86
582.904	27.02
583.099	27.05
583.293	27.12
583.487	27.28
583.681	27.67
583.875	27.95
584.07	27.76
584.264	27.58
584.458	27.74
584.652	27.68
584.846	27.4
585.04	27.5
585.234	27.53
585.428	27.56
585.623	27.49
585.817	27.54
586.011	27.26
586.205	27.43
586.399	27.63
586.593	27.73
586.787	27.84
586.981	27.93
587.174	27.97
587.368	27.92
587.562	28.04
587.756	28.19
587.95	27.98
588.144	28.16
588.338	28.34
588.532	28.38
588.725	28.35
588.919	28.31
589.113	28.38
589.307	28.36
589.501	28.44
589.694	28.5
589.888	28.46
590.082	28.55
590.275	28.63
590.469	28.51
590.663	28.36
590.856	28.36
591.05	28.48
591.244	28.69
591.437	28.81
591.631	28.89
591.824	28.79
592.018	28.91
592.212	28.99
592.405	28.96
592.599	29.05
592.792	29.14
592.986	29.3
593.179	29.38
593.372	29.31
593.566	29.53
593.759	29.45
593.953	29.52
594.146	29.52
594.339	29.64
594.533	29.72
594.726	29.71
594.92	29.9
595.113	29.73
595.306	29.62
595.499	29.56
595.693	29.62
595.886	29.9
596.079	29.93
596.272	29.91
596.466	29.98
596.659	29.99
596.852	30.14
597.045	30.17
597.238	30.15
597.431	30.27
597.624	30.32
597.818	30.12
598.011	29.95
598.204	29.78
598.397	29.82
598.59	29.65
598.783	29.75
598.976	29.57
599.169	29.5
599.362	29.66
599.555	29.74
599.748	29.79
599.941	29.74
600.134	29.86
600.326	30.23
600.519	30.32
600.712	30.49
600.905	30.31
601.098	30.59
601.291	30.77
601.483	30.88
601.676	30.96
601.869	31.22
602.062	31.45
602.255	31.46
602.447	31.51
602.64	31.43
602.833	31.7
603.025	31.75
603.218	31.61
603.411	31.55
603.603	31.48
603.796	31.44
603.989	31.39
604.181	31.46
604.374	31.57
604.566	31.44
604.759	31.45
604.951	31.29
605.144	31.33
605.336	31.37
605.529	31.19
605.721	31.22
605.914	31.24
606.106	31.32
606.299	31.26
606.491	31.34
606.683	31.55
606.876	31.58
607.068	31.61
607.26	31.77
607.453	31.95
607.645	32.21
607.837	32.17
608.03	32.18
608.222	31.94
608.414	32.13
608.606	32.09
608.799	32.03
608.991	32.07
609.183	32.25
609.375	32.23
609.567	31.91
609.759	31.91
609.952	31.97
610.144	31.98
610.336	32.12
610.528	31.91
610.72	31.92
610.912	32
611.104	32.08
611.296	31.82
611.488	31.71
611.68	31.95
611.872	31.92
612.064	31.97
612.256	32.08
612.448	32.01
612.64	31.95
612.832	31.99
613.023	32.01
613.215	32.14
613.407	32.2
613.599	32.39
613.791	32.21
613.983	32.47
614.174	32.35
614.366	32.31
614.558	32.51
614.75	32.62
614.941	32.54
615.133	32.45
615.325	32.5
615.516	32.57
615.708	32.6
615.9	32.49
616.091	32.23
616.283	32.47
616.475	32.36
616.666	32.19
616.858	32.46
617.049	32.45
617.241	32.35
617.432	32.38
617.624	32.49
617.815	32.53
618.007	32.95
618.198	33.11
618.39	32.98
618.581	33.03
618.773	33.29
618.964	33.29
619.155	33.6
619.347	33.83
619.538	33.76
619.729	33.71
619.921	33.64
620.112	33.49
620.303	33.71
620.494	33.74
620.686	33.67
620.877	33.58
621.068	33.37
621.259	33.14
621.451	32.96
621.642	33.1
621.833	33.31
622.024	33.53
622.215	33.74
622.406	33.39
622.597	33.62
622.788	33.78
622.98	33.58
623.171	33.71
623.362	33.79
623.553	34.02
623.744	33.71
623.935	33.85
624.126	33.7
624.317	33.5
624.508	33.8
624.698	33.65
624.889	33.75
625.08	34.17
625.271	34.35
625.462	34.23
625.653	34.05
625.844	34.44
626.034	34.27
626.225	34.24
626.416	34.26
626.607	34.27
626.798	34.38
626.988	34.45
627.179	34.24
627.37	34.11
627.56	34.21
627.751	34.32
627.942	34.24
628.132	34.2
628.323	34.5
628.514	34.88
628.704	34.73
628.895	34.55
629.085	34.49
629.276	34.74
629.466	34.96
629.657	35.12
629.847	35.18
630.038	35.01
630.228	34.95
630.419	34.69
630.609	34.53
630.8	34.67
630.99	34.94
631.181	35.08
631.371	35.08
631.561	35.07
631.752	34.94
631.942	34.71
632.132	34.9
632.323	35
632.513	35.05
632.703	34.74
632.893	34.79
633.084	34.72
633.274	34.62
633.464	34.24
633.654	34.32
633.844	34.36
634.034	34.49
634.225	34.4
634.415	34.45
634.605	34.56
634.795	34.71
634.985	34.83
635.175	34.81
635.365	34.73
635.555	35.1
635.745	34.88
635.935	34.84
636.125	34.85
636.315	34.97
636.505	35.06
636.695	35.01
636.885	34.78
637.075	34.53
637.265	34.74
637.455	34.72
637.644	34.59
637.834	34.9
638.024	34.89
638.214	35.21
638.404	35.28
638.593	35.42
638.783	35.55
638.973	36.04
639.163	35.92
639.352	35.71
639.542	35.95
639.732	36.22
639.921	36.28
640.111	36.46
640.301	36.03
640.49	35.77
640.68	35.57
640.87	35.46
641.059	35.68
641.249	36
641.438	36.26
641.628	36.26
641.817	35.86
642.007	35.54
642.196	35.47
642.386	36.05
642.575	36.56
642.764	36.49
642.954	36.56
643.143	36.48
643.333	36.55
643.522	36.53
643.711	36.35
643.901	36.48
644.09	36.86
644.279	37.3
644.469	36.86
644.658	36.6
644.847	36.55
645.036	36.6
645.226	36.46
645.415	36.35
645.604	36.22
645.793	36.46
645.982	36.4
646.171	36.2
646.361	36.13
646.55	36.54
646.739	36.67
646.928	37.08
647.117	37.1
647.306	37.15
647.495	37.18
647.684	37.29
647.873	37.64
648.062	37.78
648.251	37.82
648.44	37.55
648.629	37.32
648.818	37.18
649.007	37
649.196	37.27
649.384	37.15
649.573	37.35
649.762	37.19
649.951	36.95
650.14	36.92
650.328	37.14
650.517	37.34
650.706	37.73
650.895	37.96
651.083	38.14
651.272	37.92
651.461	38.06
651.65	38.03
651.838	38.11
652.027	37.87
652.216	37.77
652.404	37.89
652.593	37.57
652.781	37.26
652.97	37.25
653.158	37.24
653.347	37.28
653.535	37.17
653.724	36.87
653.912	37.03
654.101	37.36
654.289	37.67
654.478	37.42
654.666	37.8
654.855	37.65
655.043	37
655.231	36.63
655.42	36.56
655.608	36.5
655.796	36.54
655.985	36.6
656.173	36.4
656.361	36.11
656.55	35.87
656.738	35.56
656.926	36.15
657.114	37.06
657.302	37.63
657.491	37.58
657.679	37.62
657.867	37.5
658.055	37.66
658.243	37.7
658.431	38.12
658.619	38.34
658.807	38.6
658.996	38.5
659.184	38.27
659.372	38.1
659.56	38.17
659.748	38.16
659.936	38.52
660.124	38.54
660.311	38.76
660.499	38.62
660.687	38.85
660.875	38.89
661.063	38.65
661.251	38.57
661.439	38.39
661.627	38.48
661.814	38.93
662.002	38.91
662.19	38.4
662.378	38.09
662.565	38.28
662.753	38.02
662.941	38.33
663.129	38.4
663.316	38.55
663.504	38.82
663.692	39.08
663.879	38.8
664.067	39.06
664.254	39.49
664.442	39.47
664.63	39.19
664.817	39.24
665.005	38.97
665.192	39.31
665.38	39.19
665.567	38.56
665.755	38.28
665.942	38.11
666.13	38.32
666.317	38.38
666.504	38.63
666.692	38.78
666.879	38.69
667.067	38.47
667.254	38.35
667.441	38.35
667.629	38.7
667.816	38.64
668.003	38.76
668.19	38.34
668.378	38.39
668.565	38.28
668.752	38.33
668.939	38.34
669.127	38.59
669.314	38.6
669.501	38.77
669.688	38.96
669.875	39.35
670.062	39.35
670.249	39.63
670.436	39.41
670.623	39.46
670.81	39.34
670.997	39.24
671.184	39.16
671.371	39.57
671.558	39.63
671.745	39.98
671.932	39.47
672.119	39.75
672.306	39.59
672.493	39.56
672.68	39.89
672.867	40.04
673.054	40.01
673.24	40.12
673.427	40.08
673.614	39.86
673.801	40.24
673.988	41.14
674.174	40.9
674.361	41.09
674.548	40.94
674.734	40.92
674.921	40.81
675.108	41.32
675.294	40.65
675.481	40.12
675.668	40.38
675.854	39.59
676.041	39.45
676.227	39.33
676.414	39.58
676.601	40.26
676.787	40
676.974	40.15
677.16	39.58
677.347	39.8
677.533	39.75
677.719	39.42
677.906	39.2
678.092	38.7
678.279	38.97
678.465	38.68
678.651	38.36
678.838	38.46
679.024	38.26
679.21	38.62
679.397	39.2
679.583	39.49
679.769	39.9
679.955	39.98
680.142	40.21
680.328	40.43
680.514	40.23
680.7	40.11
680.886	40.16
681.073	40.21
681.259	39.99
681.445	39.93
681.631	39.9
681.817	39.73
682.003	39.9
682.189	39.84
682.375	39.54
682.561	39.62
682.747	39.85
682.933	39.86
683.119	39.93
683.305	39.97
683.491	39.81
683.677	40.03
683.863	40.14
684.049	40.23
684.235	39.7
684.42	39.85
684.606	40.15
684.792	40.3
684.978	40.15
685.164	40.61
685.349	40.77
685.535	40.89
685.721	40.36
685.907	40.16
686.092	40.03
686.278	40.6
686.464	40.29
686.649	39.88
686.835	39.75
687.021	40.17
687.206	40.31
687.392	40.28
687.577	40.1
687.763	40.19
687.948	40.07
688.134	40.33
688.319	40.32
688.505	40.61
688.69	41.15
688.876	41.13
689.061	40.89
689.247	40.45
689.432	40.57
689.618	40.3
689.803	40.35
689.988	40.08
690.174	39.74
690.359	39.56
690.544	39.37
690.73	39.79
690.915	39.63
691.1	39.72
691.285	39.61
691.471	39.7
691.656	40.35
691.841	40.29
692.026	40.86
692.211	41.39
692.396	41.66
692.582	41.68
692.767	41.18
692.952	41.77
693.137	41.29
693.322	41.54
693.507	41.34
693.692	41.28
693.877	41.74
694.062	41.7
694.247	41.4
694.432	41.53
694.617	41.91
694.802	42.04
694.987	42.28
695.172	42.93
695.357	43.34
695.541	43.56
695.726	43.65
695.911	43.96
696.096	43.56
696.281	43.78
696.466	43.73
696.65	43.38
696.835	43.3
697.02	42.75
697.204	42.21
697.389	42.24
697.574	41.67
697.759	41.56
697.943	41.07
698.128	41.48
698.312	41.31
698.497	41.19
698.682	41.51
698.866	41.4
699.051	41.34
699.235	41.55
699.42	41.46
699.604	41.84
699.789	41.84
699.973	41.89
700.158	41.83
700.342	42.05
700.527	42.2
700.711	42.3
700.895	42.06
701.08	42.24
701.264	42.43
701.448	41.94
701.633	42.04
701.817	42.07
702.001	42.39
702.186	42.16
702.37	42.23
702.554	41.61
702.738	41.05
702.923	41.1
703.107	41.12
703.291	40.87
703.475	41.06
703.659	40.67
703.843	40.6
704.027	41.05
704.212	41.59
704.396	41.14
704.58	41.48
704.764	41.33
704.948	41.45
705.132	41.15
705.316	41.68
705.5	42.21
705.684	42.85
705.868	42.34
706.052	41.52
706.235	40.82
706.419	40.84
706.603	41.28
706.787	41.81
706.971	41.81
707.155	41.72
707.339	41.71
707.522	41.47
707.706	40.98
707.89	41.83
708.074	41.56
708.257	42.11
708.441	42.56
708.625	42.3
708.808	42.42
708.992	42.38
709.176	42.87
709.359	42.86
709.543	42.65
709.727	42.94
709.91	42.53
710.094	43.01
710.277	43.55
710.461	43.41
710.644	43.16
710.828	42.67
711.011	43.03
711.195	42.91
711.378	42.74
711.562	43.38
711.745	43.31
711.928	43.52
712.112	43
712.295	43.09
712.478	42.97
712.662	43.38
712.845	43.08
713.028	42.85
713.212	42.15
713.395	42.05
713.578	41.85
713.761	41.75
713.945	41.37
714.128	41.91
714.311	41.2
714.494	41.41
714.677	41.39
714.86	42.34
715.043	42.35
715.227	43.28
715.41	43.36
715.593	42.88
715.776	42.69
715.959	43.16
716.142	42.92
716.325	42.58
716.508	42.42
716.691	42.49
716.874	42.16
717.057	42.76
717.239	42.19
717.422	42.32
717.605	42.61
717.788	42.97
717.971	42.73
718.154	42.88
718.337	43.25
718.519	43.65
718.702	44.2
718.885	44.36
719.068	44.28
719.25	44.5
719.433	44.25
719.616	43.9
719.798	43.66
719.981	44.58
720.164	44.19
720.346	44.12
720.529	44.06
720.712	43.63
720.894	43.83
721.077	43.2
721.259	43.49
721.442	43.5
721.624	44.19
721.807	44.14
721.989	42.98
722.172	43.97
722.354	44.09
722.537	44.23
722.719	43.65
722.901	43.63
723.084	43.91
723.266	43.65
723.448	44.17
723.631	43.89
723.813	44.03
723.995	43.57
724.178	42.96
724.36	43.26
724.542	43.43
724.724	44.69
724.907	44.66
725.089	44.43
725.271	44.97
725.453	44.22
725.635	44.19
725.817	44.51
725.999	45.25
726.181	45.64
726.364	45.99
726.546	45.16
726.728	44.15
726.91	43.09
727.092	43.31
727.274	42.48
727.456	43.24
727.638	43.02
727.819	42.67
728.001	42.46
728.183	43.25
728.365	42.42
728.547	42.99
728.729	43.41
728.911	44.27
729.093	44.29
729.274	44.38
729.456	44.15
729.638	44.67
729.82	45.04
730.001	45.3
730.183	43.97
730.365	44.88
730.546	44.39
730.728	44.06
730.91	43.57
731.091	43.18
731.273	42.79
731.455	42.15
731.636	42.12
731.818	42.25
731.999	42.41
732.181	42.95
732.362	42.45
732.544	43.28
732.725	43.51
732.907	44.16
733.088	45.03
733.27	46.65
733.451	47.14
733.633	47.56
733.814	47.46
733.995	47.41
734.177	47.65
734.358	47.74
734.539	47.74
734.721	47.47
734.902	47.54
735.083	46.6
735.264	45.89
735.446	46.38
735.627	45.52
735.808	44.96
735.989	45.54
736.17	45.65
736.351	46.21
736.533	45.58
736.714	44.82
736.895	44.63
737.076	45.05
737.257	45.18
737.438	44.46
737.619	45.3
737.8	45.92
737.981	45.12
738.162	44.92
738.343	44.84
738.524	44.36
738.705	44.4
738.886	44.34
739.067	43.96
739.247	44.02
739.428	44.98
739.609	44.76
739.79	44.93
739.971	44.31
740.151	43.76
740.332	43.26
740.513	43.48
740.694	44.59
740.874	44.55
741.055	44.98
741.236	44.71
741.417	44.51
741.597	43.78
741.778	44.3
741.958	44.46
742.139	45.56
742.32	46.02
742.5	46.3
742.681	46.92
742.861	47.03
743.042	46.45
743.222	46.62
743.403	45.54
743.583	45.75
743.764	45.18
743.944	46.28
744.124	45.79
744.305	44.39
744.485	45.3
744.666	44.65
744.846	44.36
745.026	45.67
745.207	44.85
745.387	45.15
745.567	46.11
745.747	45.14
745.928	44.16
746.108	44.03
746.288	44.64
746.468	43.77
746.648	43.14
746.829	43.08
747.009	43.4
747.189	43.91
747.369	45.07
747.549	43.75
747.729	45.16
747.909	44.47
748.089	44.92
748.269	44.21
748.449	44.23
748.629	43.99
748.809	44.48
748.989	43.3
749.169	43.7
749.349	42.73
749.529	43.31
749.709	41.85
749.889	43.77
750.068	42.92
750.248	44.43
750.428	45.1
750.608	45.35
750.788	45.01
750.967	44.59
751.147	44.3
751.327	45.26
751.507	45.29
751.686	45.9
751.866	45.69
752.046	46.03
752.225	46.03
752.405	46.03
752.585	46.63
752.764	46.64
752.944	47.31
753.123	46.9
753.303	46.17
753.482	46.97
753.662	47.02
753.841	46.04
754.021	47.07
754.2	46.94
754.38	46.74
754.559	46.83
754.739	46.14
754.918	45.79
755.097	46.31
755.277	47.35
755.456	46.99
755.635	47.93
755.815	47.98
755.994	46.73
756.173	45.72
756.352	45.34
756.532	45.35
756.711	45.92
756.89	45.59
757.069	46.09
757.248	44.6
757.427	44.26
757.607	44.28
757.786	45.2
757.965	45.04
758.144	46.23
758.323	46.22
758.502	45.81
758.681	46.04
758.86	46.8
759.039	46.71
759.218	47.53
759.397	48.19
759.576	47.1
759.755	46.66
759.934	47.11
760.113	46.8
760.291	46.86
760.47	46.73
760.649	47.33
760.828	47.73
761.007	47.19
761.186	46.38
761.364	45.68
761.543	46.1
761.722	46.1
761.901	45.38
762.079	45.87
762.258	46.13
762.437	45.91
762.615	45.05
762.794	44.23
762.972	44.08
763.151	44.14
763.33	44.18
763.508	43.91
763.687	42.9
763.865	43.71
764.044	43.02
764.222	42.51
764.401	42.04
764.579	41.68
764.758	41.89
764.936	42.42
765.114	42.78
765.293	42.59
765.471	43.06
765.65	44.12
765.828	43.71
766.006	44.38
766.184	44.35
766.363	45.62
766.541	45.81
766.719	46.68
766.898	46.11
767.076	46.2
767.254	46.48
767.432	47.06
767.61	46.58
767.788	46.64
767.967	46.38
768.145	46.89
768.323	46.12
768.501	47.6
768.679	46.73
768.857	46.2
769.035	46.03
769.213	46.04
769.391	44.99
769.569	45.51
769.747	45.88
769.925	45.07
770.103	43.89
770.281	44.45
770.459	44.31
770.636	45.09
770.814	46.5
770.992	46.42
771.17	46.34
771.348	46.04
771.525	47.3
771.703	46.67
771.881	47.8
772.059	50.06
772.236	50.16
772.414	48.85
772.592	48.65
772.769	48.77
772.947	48.84
773.125	48.52
773.302	48.99
773.48	47.71
773.657	49.12
773.835	47.4
774.013	47.34
774.19	47.39
774.368	47.33
774.545	45.33
774.723	44.77
774.9	45.13
775.077	45.44
775.255	44.85
775.432	45.62
775.61	43.99
775.787	45.13
775.964	44.21
776.142	44.31
776.319	45.12
776.496	47.63
776.674	46.94
776.851	47.05
777.028	46.56
777.205	47.35
777.382	46.61
777.56	46.58
777.737	46.94
777.914	45.5
778.091	45.8
778.268	47.46
778.445	46.1
778.622	46.31
778.8	45.86
778.977	47.78
779.154	51.17
779.331	51.12
779.508	52.4
779.685	52.13
779.862	53.4
780.038	52.1
780.215	50.27
780.392	50.92
780.569	51.84
780.746	52.99
780.923	51.07
781.1	49
781.277	48.13
781.453	47.81
781.63	46.51
781.807	47.31
781.984	49.45
782.16	50.04
782.337	51.04
782.514	50.33
782.691	49.79
782.867	50.2
783.044	48.29
783.221	49.75
783.397	50.51
783.574	52.59
783.75	52.81
783.927	51.24
784.103	51.2
784.28	51
784.456	51.49
784.633	51.43
784.809	52.62
784.986	50.91
785.162	49.9
785.339	47.67
785.515	47.1
785.692	44.7
785.868	44.69
786.044	45.82
786.221	45.47
786.397	44.5
786.573	44.26
786.749	42.86
786.926	45.29
787.102	44.43
787.278	45.23
787.454	45.63
787.631	49.46
787.807	49.02
787.983	46.6
788.159	45.51
788.335	46.58
788.511	46.62
788.687	47.7
788.863	46.94
789.039	49.04
789.216	47.34
789.392	46.03
789.568	44.43
789.744	45.46
789.919	46.95
790.095	47.93
790.271	48.83
790.447	49.4
790.623	49.07
790.799	48.87
790.975	47.6
791.151	49.58
791.327	51.58
791.502	51.56
791.678	49.82
791.854	50.6
792.03	52
792.205	52.72
792.381	52.59
792.557	53.02
792.733	53.64
792.908	53.63
793.084	52.08
793.259	52.39
793.435	53.31
793.611	55.82
793.786	54
793.962	51.31
794.137	50.14
794.313	49.04
794.488	48.47
794.664	47.47
794.839	47.13
795.015	50.15
795.19	50.86
795.366	48.79
795.541	46.68
795.716	47.16
795.892	50.59
796.067	48.66
796.242	48.59
796.418	47.69
796.593	49.32
796.768	50.4
796.944	48.73
797.119	46.97
797.294	47.06
797.469	47.08
797.644	48.14
797.82	44.99
797.995	46.38
798.17	46.36
798.345	47.25
798.52	46.34
798.695	47.32
798.87	47.48
799.045	46.59
799.22	48.69
799.395	49.95
799.57	49.7
799.745	49.82
799.92	50.49
800.095	51.43
800.27	52.09
800.445	54.52
800.62	51.78
800.795	53.24
800.97	55.11
801.145	52.9
801.319	54.02
801.494	54.56
801.669	55.78
801.844	56.72
802.018	55.09
802.193	57.28
802.368	54.22
802.543	54.87
802.717	53.98
802.892	53.06
803.067	54.18
803.241	51.4
803.416	50.39
803.59	48.9
803.765	48.68
803.94	51.04
804.114	45.64
804.289	46.52
804.463	47.14
804.638	46.32
804.812	48.48
804.986	47.02
805.161	47.56
805.335	46.77
805.51	46.48
805.684	45.8
805.858	45.11
806.033	46.43
806.207	45.71
806.381	46.39
806.556	46.82
806.73	44.34
806.904	45.05
807.078	44.55
807.253	44.77
807.427	45.75
807.601	43.45
807.775	42.37
807.949	44.17
808.123	45.1
808.298	45.13
808.472	46.21
808.646	46.14
808.82	46.13
808.994	47.86
809.168	50.1
809.342	49.76
809.516	52.82
809.69	55.81
809.864	53.88
810.038	55.75
810.212	55.79
810.385	52.73
810.559	54.58
810.733	56.35
810.907	57.06
811.081	55.2
811.255	54.04
811.428	50.42
811.602	49.95
811.776	52.67
811.95	51.61
812.123	50.92
812.297	52.6
812.471	53.08
812.644	51.47
812.818	51.63
812.992	50.05
813.165	54.87
813.339	56.48
813.512	53.17
813.686	50.46
813.86	49.75
814.033	49.47
814.207	50.07
814.38	47.6
814.554	48.7
814.727	48.61
814.9	51.37
815.074	50.11
815.247	50.85
815.421	50.71
815.594	52.87
815.767	51.84
815.941	51.13
816.114	50.72
816.287	53.44
816.46	51.13
816.634	50.33
816.807	50.55
816.98	48.46
817.153	47.94
817.327	49.46
817.5	48.86
817.673	51.39
817.846	51.7
818.019	52.95
818.192	51.66
818.365	51.84
818.538	53.28
818.711	50.81
818.884	51.28
819.057	49.58
819.23	48.41
819.403	46.03
819.576	45.32
819.749	45.44
819.922	45.64
820.095	45.36
820.268	44.95
820.441	45.19
820.614	44.88
820.786	41.92
820.959	44.08
821.132	44.24
821.305	44.08
821.477	43.19
821.65	43.9
821.823	43.21
821.996	42.81
822.168	42.69
822.341	42.34
822.514	42.79
822.686	43.58
822.859	43.32
823.031	43
823.204	43.67
823.376	43.97
823.549	43.82
823.722	43.83
823.894	44.12
824.067	44.55
824.239	45.07
824.411	45.16
824.584	45.13
824.756	45.4
824.929	46.12
825.101	46.02
825.273	46.36
825.446	46.59
825.618	46.66
825.79	47.04
825.963	46.76
826.135	46.17
826.307	45.59
826.479	45.53
826.652	44.99
826.824	44.71
826.996	44.46
827.168	43.56
827.34	43.06
827.512	43.5
827.684	43.35
827.856	43.57
828.029	44.07
828.201	44.69
828.373	44.71
828.545	45.98
828.717	47.01
828.889	47.31
829.061	48.42
829.232	49.48
829.404	49.57
829.576	49.7
829.748	48.77
829.92	49.22
830.092	50.22
830.264	51.69
830.436	51.16
830.607	51.11
830.779	52.64
830.951	52.38
831.123	50.77
831.294	50.33
831.466	48.75
831.638	49.25
831.809	47.88
831.981	47.64
832.153	46.52
832.324	46.1
832.496	43.76
832.667	43.39
832.839	42.58
833.011	42.15
833.182	41.75
833.354	42.77
833.525	46.71
833.697	47.1
833.868	46.46
834.039	47.48
834.211	46.44
834.382	46.16
834.554	45.31
834.725	45.02
834.896	45.67
835.068	46.26
835.239	46.58
835.41	45.57
835.581	46.86
835.753	47.01
835.924	45.82
836.095	46.16
836.266	47.36
836.438	47.3
836.609	48.3
836.78	48.72
836.951	49.25
837.122	50.87
837.293	49.51
837.464	47.08
837.635	46.92
837.806	48.58
837.977	49.33
838.148	50.95
838.319	52.44
838.49	51.63
838.661	54.71
838.832	53.84
839.003	48.58
839.174	50.97
839.345	53.76
839.516	54.99
839.687	54.53
839.857	53.98
840.028	54.76
840.199	50.32
840.37	51.33
840.54	51.37
840.711	50.44
840.882	54.9
841.053	52.72
841.223	51.82
841.394	53.33
841.564	55.11
841.735	57.36
841.906	55.11
842.076	52.72
842.247	55.82
842.417	52.1
842.588	53.77
842.758	53.79
842.929	54.16
843.099	54.81
843.27	55.18
843.44	55.27
843.611	54.5
843.781	55.71
843.951	64.02
844.122	66.17
844.292	66.68
844.462	67.47
844.633	66.89
844.803	68.64
844.973	70.27
845.144	74.28
845.314	74.15
845.484	70.24
845.654	72.55
845.824	62.35
845.995	55.65
846.165	53.96
846.335	58.63
846.505	59.97
846.675	61.35
846.845	58.84
847.015	50.55
847.185	50.86
847.355	56.74
847.525	53.56
847.695	69.83
847.865	71.98
848.035	84.26
848.205	75.82
848.375	75.46
848.545	64.67
848.715	68.49
848.884	71.77
849.054	69.56
849.224	58.77
849.394	64.92
849.564	54.74
849.733	56.81
849.903	60.05
850.073	66.02
850.243	63.33
850.412	68.23
850.582	62.76
850.752	63.64
850.921	59.69
851.091	66.8
851.26	64.02
851.43	63
851.599	61.85
851.769	59.37
851.939	51.52
852.108	60.71
852.278	65.4
852.447	64.69
852.616	62.76
852.786	61.43
852.955	66.14
853.125	65.74
853.294	70.95
853.463	68.86
853.633	65.55
853.802	64.44
853.971	64.19
854.141	60.83
854.31	54.29
854.479	48.88
854.648	54.25
854.818	52.44
854.987	47.16
855.156	45.29
855.325	44.36
855.494	48.24
855.663	49.96
855.832	43.17
856.001	41.04
856.171	54.01
856.34	63.45
856.509	63.88
856.678	60.78
856.847	66.68
857.016	68.02
857.185	69.58
857.353	67
857.522	74.24
857.691	70.27
857.86	74.66
858.029	66.99
858.198	70.68
858.367	69.44
858.535	70.89
858.704	67.22
858.873	67.61
859.042	80.49
859.21	79.13
859.379	80.16
859.548	77.55
859.717	74.65
859.885	70.19
860.054	64.49
860.222	61.5
860.391	65.34
860.56	62.3
860.728	70.57
860.897	53.33
861.065	46.63
861.234	44.05
861.402	57.64
861.571	58.97
861.739	68.25
861.908	75.13
862.076	78.64
862.244	79.56
862.413	77.04
862.581	73.51
862.749	73.35
862.918	76.37
863.086	70.61
863.254	57.26
863.423	54.1
863.591	57.67
863.759	52.06
863.927	45.66
864.096	45.34
864.264	53.44
864.432	48.09
864.6	52.16
864.768	50.15
864.936	54.82
865.104	56.32
865.272	54.35
865.44	54.64
865.608	53.11
865.776	62.22
865.944	65.98
866.112	63.84
866.28	63.46
866.448	62.14
866.616	56.22
866.784	63.61
866.952	70.5
867.12	78.76
867.288	77.98
867.455	77.26
867.623	72.57
867.791	73.06
867.959	72.1
868.127	70.84
868.294	71.22
868.462	73.39
868.63	66.37
868.797	62.51
868.965	62.03
869.133	58.45
869.3	56.58
869.468	64.44
869.636	45.96
869.803	43.28
869.971	47.78
870.138	46.92
870.306	42.33
870.473	51.08
870.641	53.57
870.808	54.6
870.975	62.05
871.143	69.82
871.31	61.63
871.478	83.7
871.645	85.44
871.812	84.78
871.98	84.48
872.147	91.64
872.314	89.56
872.482	88.75
872.649	86.45
872.816	84.02
872.983	80.88
873.15	82.78
873.318	71.2
873.485	73.99
873.652	75.62
873.819	80.99
873.986	80.83
874.153	75.11
874.32	72.01
874.487	70.71
874.654	62.91
874.821	60.5
874.988	54.73
875.155	55.91
875.322	49.66
875.489	43.14
875.656	33.13
875.823	41.28
875.99	38.18
876.157	44.95
876.324	53.47
876.49	55.27
876.657	53.57
876.824	62.06
876.991	70.17
877.157	71.95
877.324	73.55
877.491	81.84
877.658	84.42
877.824	85.33
877.991	78.48
878.157	71.81
878.324	70.57
878.491	76.85
878.657	89.31
878.824	79.61
878.99	80.72
879.157	79.32
879.323	75.55
879.49	71.69
879.656	71.07
879.823	73.52
879.989	74.13
880.156	77.97
880.322	73.22
880.488	62.97
880.655	65.31
880.821	61.57
880.987	60.06
881.154	58.56
881.32	57.67
881.486	59.42
881.652	57.13
881.819	57.48
881.985	53.13
882.151	52.75
882.317	53.18
882.483	50.76
882.649	52.82
882.816	53.15
882.982	51.82
883.148	50.88
883.314	48.81
883.48	47.86
883.646	46.03
883.812	45.36
883.978	45.46
884.144	45.47
884.31	44.71
884.476	45.17
884.642	44.19
884.807	45.45
884.973	45.84
885.139	45.99
885.305	48.04
885.471	49.45
885.637	51.01
885.802	51.5
885.968	51.75
886.134	55.05
886.3	51.89
886.465	51.57
886.631	49.69
886.797	50.92
886.962	53.34
887.128	54.75
887.293	54.2
887.459	58.47
887.625	58.52
887.79	59.72
887.956	56.89
888.121	64.16
888.287	67.42
888.452	73.72
888.618	75.15
888.783	76.85
