Data from LC_167_Reflection_2.txt Node
Date: Mon Nov 16 23:04:07 EST 2015
User: robert
Spectrometer: USB4E03001
Autoset integration time: false
Trigger mode: 4
Integration Time (sec): 1.000000E-1
Scans to average: 15
Electric dark correction enabled: true
Nonlinearity correction enabled: false
Boxcar width: 5
Stray light correction enabled: false
XAxis mode: Wavelengths
Stop averaging: false
Number of Pixels in Spectrum: 3648
>>>>>Begin Spectral Data<<<<<
177.566	-1259.04
177.785	82.17
178.005	238.66
178.225	-83.77
178.445	-213.66
178.665	113.7
178.885	67.51
179.105	616.82
179.324	1254.67
179.544	-177.3
179.764	-983.16
179.984	-255.97
180.204	-388.69
180.423	-392.78
180.643	-488.11
180.863	-337.69
181.083	-327.26
181.302	-427.16
181.522	-344.11
181.742	-282.54
181.961	-442.36
182.181	-355.41
182.401	-558.35
182.621	-2181.4
182.84	-995.39
183.06	-674.34
183.279	-455.61
183.499	-351.9
183.719	-293.35
183.938	-274.33
184.158	-292.44
184.377	-194.6
184.597	-291.6
184.816	-177.42
185.036	-105.88
185.256	-74.03
185.475	-86.13
185.695	-114.14
185.914	-155.69
186.134	-339.35
186.353	-459.82
186.572	-582.08
186.792	-974.32
187.011	-359.65
187.231	-357.38
187.45	-235.83
187.67	-635.18
187.889	-1725
188.108	3064.98
188.328	-797.13
188.547	-234.56
188.766	-472.62
188.986	-777.96
189.205	-499.35
189.424	-371.96
189.644	-1006.91
189.863	-1340.34
190.082	-942.55
190.302	-2118.55
190.521	-1191.53
190.74	1127.83
190.959	539.28
191.178	785.12
191.398	580.29
191.617	536.8
191.836	485.61
192.055	1056.8
192.274	391.69
192.494	433.42
192.713	438.66
192.932	1119.97
193.151	1064.53
193.37	1875.23
193.589	-1099.6
193.808	-368.95
194.027	-437.04
194.246	-4181.56
194.465	714.26
194.685	1953.82
194.904	992.44
195.123	-1314.91
195.342	-891.77
195.561	-382.86
195.78	-640.31
195.999	28408.45
196.218	1003.21
196.436	908.48
196.655	-3321.93
196.874	-1370.32
197.093	-1830.1
197.312	-1281.33
197.531	3970.53
197.75	1189.12
197.969	-3877.07
198.188	-732.36
198.407	-158.71
198.625	-175.09
198.844	-178.06
199.063	-202.83
199.282	-368.77
199.501	-204.29
199.719	-150.93
199.938	-56.74
200.157	-34.42
200.376	-74.35
200.594	-124.67
200.813	-357.16
201.032	-254.98
201.251	-223.72
201.469	-200.3
201.688	-161.25
201.907	-338.92
202.125	-534.65
202.344	20452.38
202.563	4595.71
202.781	622.9
203	1818.99
203.218	1430.57
203.437	1280.35
203.656	632.63
203.874	333.52
204.093	314.15
204.311	394.15
204.53	381.58
204.748	584.12
204.967	306.09
205.185	316.07
205.404	354.62
205.622	226.43
205.841	181.25
206.059	176.69
206.278	242.62
206.496	543.59
206.715	332.24
206.933	306.51
207.151	257.01
207.37	334.84
207.588	351.63
207.806	301.99
208.025	671.84
208.243	-1331.65
208.461	2029.75
208.68	-18728.24
208.898	824.3
209.116	878.08
209.335	842.2
209.553	901.92
209.771	8122.5
209.989	1521.21
210.208	3622.05
210.426	-5433.11
210.644	2762.58
210.862	-2541.36
211.081	1161.18
211.299	-488.83
211.517	1920.65
211.735	-488.07
211.953	-175971.43
212.171	-3549.7
212.39	-11003.6
212.608	-23697.83
212.826	930.71
213.044	669.74
213.262	541.52
213.48	2628.9
213.698	327.09
213.916	444
214.134	302.13
214.352	521.54
214.57	359.07
214.788	462.05
215.006	466.02
215.224	397.76
215.442	306.39
215.66	286.01
215.878	252.55
216.096	253.83
216.314	301.13
216.532	531.03
216.75	437.14
216.968	406.78
217.185	906.39
217.403	1576.5
217.621	-4322.7
217.839	-1446.93
218.057	-1620.67
218.275	2941.92
218.492	989.19
218.71	1430.13
218.928	388.02
219.146	372.35
219.363	316.26
219.581	254.4
219.799	156.07
220.017	174.31
220.234	137.89
220.452	150.46
220.67	171.95
220.887	159.48
221.105	187.11
221.323	160.75
221.54	161.18
221.758	198.56
221.976	211.11
222.193	241.56
222.411	152.74
222.629	167.12
222.846	182.55
223.064	173.03
223.281	164.06
223.499	146.78
223.716	156.33
223.934	115.58
224.151	115.34
224.369	103.63
224.586	117.22
224.804	121.22
225.021	122.86
225.239	101.6
225.456	113.28
225.674	102.77
225.891	98.16
226.108	103.19
226.326	112.72
226.543	92.25
226.76	90.24
226.978	78.25
227.195	88.08
227.413	76.02
227.63	69.02
227.847	55.45
228.064	49.1
228.282	46.91
228.499	39.52
228.716	33.35
228.934	28
229.151	25.77
229.368	23.26
229.585	19.71
229.802	20.1
230.02	18.6
230.237	21.37
230.454	23.43
230.671	22.24
230.888	23.86
231.105	27.96
231.323	30.63
231.54	32.7
231.757	36.14
231.974	38.23
232.191	38.75
232.408	45.18
232.625	41.71
232.842	39.34
233.059	41.65
233.276	42.17
233.493	40.13
233.71	41.55
233.927	40.04
234.144	37.88
234.361	32.67
234.578	37.85
234.795	35.21
235.012	38.17
235.229	39.75
235.446	38.65
235.663	36.28
235.879	37.24
236.096	36.25
236.313	36.69
236.53	37.53
236.747	38.28
236.964	30.7
237.181	31.3
237.397	33.81
237.614	35.57
237.831	32.49
238.048	35.48
238.264	36.08
238.481	34.62
238.698	37.76
238.915	38.8
239.131	39.35
239.348	41.11
239.565	41.23
239.781	38.94
239.998	36.64
240.215	35.38
240.431	32.7
240.648	30.46
240.865	30.46
241.081	26.86
241.298	26.94
241.514	26.6
241.731	24.48
241.947	22.52
242.164	20.38
242.38	18.23
242.597	18.89
242.814	19.02
243.03	17.89
243.246	17.48
243.463	18.25
243.679	17.44
243.896	15.04
244.112	15.54
244.329	16.02
244.545	17.21
244.762	17.42
244.978	18.43
245.194	16.44
245.411	16.9
245.627	16.99
245.843	16.52
246.06	15.8
246.276	17.1
246.492	16.72
246.709	16.43
246.925	14.86
247.141	15.29
247.357	13.65
247.574	14.03
247.79	14
248.006	13.77
248.222	13.27
248.439	13.26
248.655	13.55
248.871	13.67
249.087	13.47
249.303	14.06
249.519	14.46
249.736	16.96
249.952	17.05
250.168	19.59
250.384	20.3
250.6	21.88
250.816	21.83
251.032	21.44
251.248	19.62
251.464	19.63
251.68	20.13
251.896	19.39
252.112	17.82
252.328	18.82
252.544	17.95
252.76	17.23
252.976	16.3
253.192	16.47
253.408	14.76
253.624	19.55
253.84	19
254.056	20.89
254.272	19.06
254.487	20.43
254.703	18.87
254.919	15.91
255.135	15.26
255.351	16.08
255.567	17.74
255.782	22.09
255.998	16.78
256.214	19.86
256.43	16.1
256.646	20.99
256.861	20.69
257.077	21.45
257.293	22.22
257.508	22.58
257.724	23.5
257.94	22.58
258.155	19.92
258.371	18.77
258.587	15.76
258.802	15.11
259.018	13.86
259.234	12.08
259.449	12.3
259.665	11.48
259.88	11.36
260.096	10.46
260.312	9.66
260.527	9.67
260.743	10.39
260.958	11.39
261.174	11.52
261.389	11.89
261.605	13.49
261.82	13.82
262.036	14.83
262.251	16.26
262.466	16.75
262.682	18.71
262.897	19.59
263.113	19.04
263.328	18.43
263.543	19.97
263.759	19.67
263.974	17.56
264.189	17.08
264.405	18.39
264.62	17.16
264.835	18.47
265.051	15.66
265.266	16.54
265.481	17.09
265.696	19.33
265.912	18.49
266.127	16.81
266.342	16.49
266.557	17.36
266.773	16.07
266.988	15.26
267.203	15.19
267.418	15.91
267.633	14.78
267.848	15.11
268.064	12.77
268.279	12.39
268.494	12.61
268.709	13.58
268.924	11.82
269.139	12.25
269.354	12.9
269.569	12.42
269.784	12.27
269.999	12.71
270.214	12.48
270.429	15
270.644	14.9
270.859	14.09
271.074	14.12
271.289	14.48
271.504	14.7
271.719	14.7
271.934	14.25
272.149	13.93
272.363	14.21
272.578	12.27
272.793	9.93
273.008	9.41
273.223	9.46
273.438	8.53
273.653	9.25
273.867	8.05
274.082	8.08
274.297	8.71
274.512	9.78
274.726	8.71
274.941	10.85
275.156	12.71
275.371	13.89
275.585	15.73
275.8	16.86
276.015	15.75
276.229	16.79
276.444	16.13
276.659	15.49
276.873	14.14
277.088	15.28
277.302	15.5
277.517	15.24
277.732	16.34
277.946	16.04
278.161	16.26
278.375	16.75
278.59	15.96
278.804	16.15
279.019	16.88
279.233	17.42
279.448	17.35
279.662	16.55
279.877	15.85
280.091	14.23
280.306	12.95
280.52	11.63
280.735	10.49
280.949	11.81
281.163	12.31
281.378	11.49
281.592	10.49
281.806	10.8
282.021	10.25
282.235	10.51
282.449	10.12
282.664	11.08
282.878	11.24
283.092	12.86
283.307	11.75
283.521	11.31
283.735	11.7
283.949	13.6
284.164	13.19
284.378	13.94
284.592	13.16
284.806	13.51
285.02	12.13
285.234	12.42
285.449	11.07
285.663	11.55
285.877	11.07
286.091	10.34
286.305	9.97
286.519	9.69
286.733	8.77
286.947	8.69
287.161	8.47
287.375	10.05
287.589	10.44
287.803	10.87
288.017	11.03
288.231	11.3
288.445	12.17
288.659	11.93
288.873	11.4
289.087	12.33
289.301	12.52
289.515	13.18
289.729	11.62
289.943	11.87
290.157	11.91
290.371	12.43
290.584	12.34
290.798	12.89
291.012	14.06
291.226	13.82
291.44	14.51
291.654	14.99
291.867	14.25
292.081	13.52
292.295	13.26
292.509	13.44
292.722	12.64
292.936	13.22
293.15	13.47
293.364	12.62
293.577	14.07
293.791	13.24
294.005	14.27
294.218	14.49
294.432	16.02
294.645	15.77
294.859	14.89
295.073	15.14
295.286	15.51
295.5	13.89
295.713	12.98
295.927	12.5
296.14	12.89
296.354	12.08
296.568	12.43
296.781	12.78
296.994	12.94
297.208	13.83
297.421	12.97
297.635	12.03
297.848	12.63
298.062	12.17
298.275	12.55
298.489	12.48
298.702	12.5
298.915	12.4
299.129	12.1
299.342	11.07
299.555	10.35
299.769	10.94
299.982	11.99
300.195	11.66
300.409	13.12
300.622	13.51
300.835	13.93
301.048	13.35
301.262	13.2
301.475	13.01
301.688	14.22
301.901	15.49
302.115	15.81
302.328	16.04
302.541	15.55
302.754	15.16
302.967	14.58
303.18	14.16
303.393	14.14
303.607	14.13
303.82	14.75
304.033	13.77
304.246	13.13
304.459	13.5
304.672	13.41
304.885	13.6
305.098	13.38
305.311	14.11
305.524	15.19
305.737	15.66
305.95	16.21
306.163	13.79
306.376	15.16
306.589	15.9
306.802	15.23
307.015	15.96
307.228	17.28
307.44	16.67
307.653	15.08
307.866	13.28
308.079	14.82
308.292	14.58
308.505	17.05
308.718	15.76
308.93	14.94
309.143	15.56
309.356	14.24
309.569	13.75
309.781	14.08
309.994	15.15
310.207	14.96
310.42	12.9
310.632	12.02
310.845	12.92
311.058	12.32
311.27	12.5
311.483	11.95
311.696	12.07
311.908	11.8
312.121	11.38
312.333	12.21
312.546	12.4
312.759	12.94
312.971	13.54
313.184	12.23
313.396	12.56
313.609	12.49
313.821	12.71
314.034	13.13
314.246	14.01
314.459	14.5
314.671	13.68
314.884	13.04
315.096	13.56
315.309	13.1
315.521	14.82
315.733	14.94
315.946	13.79
316.158	12.73
316.371	11.88
316.583	11.64
316.795	11.95
317.008	12.03
317.22	14.54
317.432	14.01
317.644	15.21
317.857	12.22
318.069	12.73
318.281	14.03
318.494	14.87
318.706	15.82
318.918	15.61
319.13	15.91
319.342	15.07
319.555	14.44
319.767	15.08
319.979	14.16
320.191	14.93
320.403	15.99
320.615	16.75
320.827	17.13
321.039	15.88
321.252	15.45
321.464	16.57
321.676	15.89
321.888	15.33
322.1	15.04
322.312	13.37
322.524	12.94
322.736	11.97
322.948	10.18
323.16	9.78
323.372	10.24
323.584	9.63
323.796	7.96
324.007	8.53
324.219	8.85
324.431	8.9
324.643	9.93
324.855	10.64
325.067	9.47
325.279	9.19
325.491	8.75
325.702	8.63
325.914	8.98
326.126	10.35
326.338	10.14
326.55	9.55
326.761	9.85
326.973	10.61
327.185	10.41
327.396	11.88
327.608	13.96
327.82	14.85
328.032	15.64
328.243	14.56
328.455	14.07
328.666	14.58
328.878	14.31
329.09	14.4
329.301	13.43
329.513	13.44
329.725	12.81
329.936	10.79
330.148	10.61
330.359	9.6
330.571	10.69
330.782	10.97
330.994	11.8
331.205	12.53
331.417	11.65
331.628	12.72
331.84	12.7
332.051	12.52
332.262	14.25
332.474	13.86
332.685	15.29
332.897	14.93
333.108	15.01
333.319	14.06
333.531	13.89
333.742	14.96
333.953	14.43
334.165	14.65
334.376	15.11
334.587	13.78
334.799	13.31
335.01	12.57
335.221	12.93
335.432	11.77
335.644	10.83
335.855	10.65
336.066	10.36
336.277	11.03
336.488	11.34
336.7	10.75
336.911	10.63
337.122	11.23
337.333	11.42
337.544	12.78
337.755	13.01
337.966	13.23
338.177	13.43
338.388	12.72
338.599	13.3
338.811	13.3
339.022	13.52
339.233	14.2
339.444	13.89
339.655	11.93
339.866	10.33
340.076	10.97
340.287	12
340.498	11.82
340.709	12.38
340.92	10.76
341.131	10.57
341.342	11.41
341.553	11.31
341.764	11.69
341.975	13.08
342.185	13.23
342.396	12.41
342.607	12.57
342.818	12.44
343.029	12.99
343.239	13.58
343.45	13.26
343.661	11.93
343.872	10.9
344.082	10.33
344.293	10.17
344.504	11.64
344.714	10.8
344.925	9.7
345.136	9.42
345.346	7.44
345.557	7.45
345.768	7.05
345.978	7.54
346.189	8.24
346.399	8.21
346.61	8.65
346.821	7.69
347.031	9.38
347.242	8.75
347.452	9.18
347.663	10.22
347.873	9.98
348.084	10.47
348.294	10.74
348.504	10.64
348.715	11.25
348.925	10.04
349.136	9.18
349.346	7.89
349.557	9.47
349.767	9.46
349.977	9.51
350.188	9.87
350.398	10.7
350.608	11
350.819	10.88
351.029	10.63
351.239	11.59
351.449	11.85
351.66	12.58
351.87	12.3
352.08	11.85
352.29	12.1
352.501	11.2
352.711	9.71
352.921	9.48
353.131	10.12
353.341	9.46
353.552	8.97
353.762	9.3
353.972	9.29
354.182	9.69
354.392	9.58
354.602	9.67
354.812	10.26
355.022	10.49
355.232	10.39
355.442	10.56
355.652	11.44
355.862	11.36
356.072	11.44
356.282	10.96
356.492	10.5
356.702	10.63
356.912	10.82
357.122	10.78
357.332	10.92
357.542	10.68
357.752	10.36
357.962	9.84
358.171	9.85
358.381	9.71
358.591	10.22
358.801	9.9
359.011	10.68
359.221	10.3
359.43	10.34
359.64	10.17
359.85	10.07
360.06	10.13
360.269	10.46
360.479	10.64
360.689	10.1
360.899	9.79
361.108	10.11
361.318	9.75
361.528	9.65
361.737	8.99
361.947	8.6
362.156	8.55
362.366	8.2
362.576	7.72
362.785	7.7
362.995	7.69
363.204	7.41
363.414	7.17
363.623	6.77
363.833	7.26
364.042	7.45
364.252	7.98
364.461	8.09
364.671	7.98
364.88	8.26
365.09	8.65
365.299	9.16
365.509	8.95
365.718	8.7
365.927	8.73
366.137	8.22
366.346	8.61
366.555	8.51
366.765	8.13
366.974	8.46
367.183	8.43
367.393	8.1
367.602	7.53
367.811	8.06
368.021	7.75
368.23	7.73
368.439	7.25
368.648	7.25
368.857	7.75
369.067	8.2
369.276	7.98
369.485	8.33
369.694	8.38
369.903	9.15
370.112	8.97
370.321	9.2
370.531	9.26
370.74	9.76
370.949	9.46
371.158	9.28
371.367	9.06
371.576	8.57
371.785	8.08
371.994	7.4
372.203	6.61
372.412	6.35
372.621	6.74
372.83	6.69
373.039	6.27
373.248	6.09
373.457	6.5
373.666	6.42
373.874	6.62
374.083	7.01
374.292	7.6
374.501	7.82
374.71	7.69
374.919	7.66
375.128	7.58
375.336	7.73
375.545	8.39
375.754	7.21
375.963	7.4
376.171	7.48
376.38	7.38
376.589	7.46
376.798	6.7
377.006	7.22
377.215	7.45
377.424	7.43
377.632	7.39
377.841	7.09
378.05	7.71
378.258	7.48
378.467	7.36
378.675	7.32
378.884	7.05
379.093	7.87
379.301	7.23
379.51	6.55
379.718	6.17
379.927	6.3
380.135	5.7
380.344	5.43
380.552	4.82
380.761	4.74
380.969	4.5
381.177	4.59
381.386	3.9
381.594	4.04
381.803	3.91
382.011	4.01
382.219	3.35
382.428	3.35
382.636	2.97
382.845	4.15
383.053	4.16
383.261	4.36
383.469	4.25
383.678	4.78
383.886	4.92
384.094	4.85
384.302	5.06
384.511	5.63
384.719	5.93
384.927	6.13
385.135	5.78
385.343	5.8
385.552	5.72
385.76	5.23
385.968	5.12
386.176	5.14
386.384	5.24
386.592	5.03
386.8	4.65
387.008	4.8
387.216	5.03
387.424	4.98
387.633	5.23
387.841	5.01
388.049	5.48
388.257	5.7
388.465	5.55
388.672	5.89
388.88	6
389.088	6.26
389.296	6.25
389.504	6.04
389.712	5.94
389.92	5.67
390.128	5.65
390.336	5.54
390.544	5.63
390.751	5.31
390.959	5.22
391.167	5.4
391.375	5.38
391.583	5.17
391.79	5.11
391.998	5.02
392.206	5.32
392.414	5.13
392.621	5.22
392.829	4.87
393.037	5.22
393.244	5.18
393.452	5.2
393.66	5.16
393.867	5.27
394.075	5.29
394.283	5.44
394.49	5.15
394.698	5.38
394.905	5.04
395.113	4.96
395.32	4.88
395.528	4.94
395.735	4.79
395.943	4.69
396.15	4.64
396.358	4.57
396.565	4.44
396.773	4.76
396.98	4.86
397.188	5.12
397.395	5.32
397.602	5.4
397.81	5.07
398.017	5.34
398.225	5.51
398.432	5.53
398.639	5.65
398.847	5.66
399.054	5.32
399.261	5.12
399.468	5.39
399.676	5.29
399.883	5.28
400.09	5.56
400.297	5.18
400.505	5.27
400.712	5.11
400.919	5.22
401.126	5.22
401.333	5.38
401.54	5.32
401.748	5.11
401.955	5.13
402.162	4.87
402.369	4.52
402.576	4.59
402.783	4.41
402.99	4.6
403.197	4.44
403.404	4.29
403.611	4.09
403.818	4.32
404.025	4.07
404.232	4.08
404.439	4.03
404.646	3.82
404.853	3.73
405.06	3.63
405.267	3.46
405.474	3.29
405.681	3.23
405.887	3.32
406.094	3.25
406.301	3.56
406.508	3.59
406.715	4.03
406.922	4.31
407.128	4.18
407.335	4.45
407.542	4.44
407.749	4.64
407.955	5.06
408.162	4.92
408.369	5.12
408.575	4.77
408.782	4.73
408.989	4.3
409.195	4.44
409.402	4.81
409.609	4.8
409.815	4.92
410.022	5.15
410.228	4.89
410.435	5.24
410.642	4.91
410.848	5.16
411.055	4.89
411.261	5.17
411.468	5.25
411.674	4.9
411.881	4.71
412.087	4.85
412.294	4.53
412.5	4.26
412.706	4.15
412.913	4.37
413.119	4.16
413.326	4.19
413.532	4.11
413.738	3.76
413.945	3.97
414.151	3.72
414.357	3.63
414.564	3.69
414.77	3.86
414.976	3.65
415.182	3.56
415.389	3.75
415.595	3.79
415.801	3.75
416.007	3.94
416.214	3.97
416.42	4.27
416.626	3.96
416.832	4.03
417.038	3.98
417.244	4.01
417.45	3.83
417.657	3.75
417.863	4.08
418.069	4.1
418.275	4.04
418.481	3.85
418.687	3.7
418.893	3.88
419.099	3.72
419.305	3.79
419.511	3.78
419.717	3.88
419.923	3.66
420.129	3.47
420.335	3.5
420.541	3.52
420.746	3.68
420.952	3.73
421.158	3.65
421.364	3.65
421.57	3.71
421.776	3.75
421.982	3.62
422.187	3.62
422.393	3.54
422.599	3.45
422.805	3.45
423.01	3.3
423.216	3.12
423.422	3.09
423.628	3.22
423.833	3.16
424.039	3.19
424.245	3.25
424.45	3.47
424.656	3.54
424.862	3.56
425.067	3.61
425.273	3.56
425.478	3.82
425.684	3.81
425.889	3.82
426.095	3.81
426.301	3.74
426.506	3.82
426.712	3.83
426.917	3.72
427.123	3.78
427.328	3.67
427.533	3.78
427.739	3.7
427.944	3.92
428.15	3.83
428.355	3.75
428.561	3.75
428.766	3.68
428.971	3.5
429.177	3.68
429.382	3.81
429.587	3.82
429.793	3.92
429.998	4.04
430.203	3.9
430.408	3.8
430.614	3.92
430.819	3.99
431.024	4.01
431.229	3.92
431.434	4.03
431.64	3.79
431.845	3.96
432.05	3.99
432.255	3.77
432.46	3.7
432.665	3.62
432.87	3.73
433.076	3.74
433.281	3.82
433.486	3.88
433.691	3.68
433.896	3.5
434.101	3.35
434.306	3.36
434.511	3.42
434.716	3.38
434.921	3.51
435.126	3.35
435.331	3.14
435.535	2.96
435.74	2.95
435.945	3.06
436.15	3.18
436.355	3.26
436.56	3.17
436.765	3.15
436.97	2.99
437.174	2.92
437.379	2.91
437.584	3.13
437.789	3.16
437.993	3.16
438.198	3.23
438.403	3.48
438.608	3.46
438.812	3.35
439.017	3.4
439.222	3.52
439.426	3.44
439.631	3.42
439.836	3.31
440.04	3.43
440.245	3.39
440.45	3.33
440.654	3.13
440.859	3.08
441.063	3.13
441.268	2.96
441.472	3.14
441.677	3.26
441.881	3.25
442.086	3.19
442.29	3.04
442.495	3.06
442.699	3.09
442.904	3.06
443.108	3
443.312	3.05
443.517	3.12
443.721	2.86
443.925	2.8
444.13	2.84
444.334	2.89
444.538	2.86
444.743	2.92
444.947	2.84
445.151	2.84
445.356	2.83
445.56	2.76
445.764	2.77
445.968	2.95
446.173	2.96
446.377	2.98
446.581	3.03
446.785	3.07
446.989	3
447.193	2.96
447.398	2.98
447.602	3.03
447.806	3.08
448.01	3.26
448.214	3.17
448.418	3.19
448.622	3.2
448.826	3.18
449.03	3.07
449.234	3.31
449.438	3.28
449.642	3.43
449.846	3.45
450.05	3.59
450.254	3.37
450.458	3.49
450.662	3.43
450.866	3.38
451.069	3.29
451.273	3.51
451.477	3.3
451.681	3.42
451.885	3.21
452.089	3.1
452.292	2.93
452.496	3.05
452.7	3.02
452.904	3.09
453.107	3.08
453.311	3.18
453.515	2.97
453.719	2.96
453.922	3.01
454.126	2.98
454.33	3.09
454.533	3.01
454.737	2.82
454.94	2.83
455.144	2.9
455.348	2.85
455.551	2.85
455.755	2.97
455.958	2.95
456.162	2.88
456.365	3.04
456.569	2.86
456.772	2.9
456.976	2.96
457.179	2.9
457.383	2.83
457.586	3
457.79	2.85
457.993	2.94
458.196	2.92
458.4	2.8
458.603	2.73
458.807	2.97
459.01	3.07
459.213	2.94
459.417	2.87
459.62	2.86
459.823	2.74
460.026	2.84
460.23	2.93
460.433	2.94
460.636	3.01
460.839	3.02
461.042	2.9
461.246	2.92
461.449	3.01
461.652	3.07
461.855	2.97
462.058	2.97
462.261	2.82
462.464	2.6
462.668	2.73
462.871	2.8
463.074	2.96
463.277	2.88
463.48	2.96
463.683	2.96
463.886	3.05
464.089	3.09
464.292	3.24
464.495	3.66
464.698	3.78
464.901	3.67
465.104	3.68
465.306	3.58
465.509	3.61
465.712	3.37
465.915	3.51
466.118	3.39
466.321	3.37
466.524	3.34
466.726	3.25
466.929	3.29
467.132	3.29
467.335	3.24
467.538	3.12
467.74	3.21
467.943	3.35
468.146	3.38
468.348	3.45
468.551	3.57
468.754	3.44
468.956	3.28
469.159	3.29
469.362	3.34
469.564	3.24
469.767	3.41
469.969	3.41
470.172	3.12
470.375	2.94
470.577	3.02
470.78	3.01
470.982	3.07
471.185	3.16
471.387	3.15
471.59	3.09
471.792	3.27
471.995	3.12
472.197	3.11
472.399	3.24
472.602	3.14
472.804	2.98
473.007	2.86
473.209	2.89
473.411	2.9
473.614	2.88
473.816	2.91
474.018	2.77
474.22	2.8
474.423	2.79
474.625	2.93
474.827	3.16
475.03	3.35
475.232	3.35
475.434	3.42
475.636	3.39
475.838	3.26
476.04	3.25
476.243	3.17
476.445	3.14
476.647	3.16
476.849	2.9
477.051	2.73
477.253	2.8
477.455	2.96
477.657	2.79
477.859	2.77
478.061	2.78
478.263	2.79
478.465	2.86
478.667	2.88
478.869	2.73
479.071	2.77
479.273	2.81
479.475	2.5
479.677	2.35
479.879	2.42
480.081	2.47
480.283	2.54
480.485	2.48
480.686	2.55
480.888	2.54
481.09	2.62
481.292	2.57
481.494	2.61
481.695	2.74
481.897	2.67
482.099	2.58
482.301	2.51
482.502	2.41
482.704	2.43
482.906	2.36
483.107	2.35
483.309	2.3
483.511	2.34
483.712	2.3
483.914	2.24
484.115	2.23
484.317	2.23
484.519	2.22
484.72	2.22
484.922	2.16
485.123	2.2
485.325	2.16
485.526	2.19
485.728	2.19
485.929	2.18
486.131	2.24
486.332	2.33
486.534	2.3
486.735	2.3
486.936	2.31
487.138	2.31
487.339	2.26
487.541	2.26
487.742	2.23
487.943	2.22
488.144	2.2
488.346	2.17
488.547	2.13
488.748	2.18
488.95	2.11
489.151	2.14
489.352	2.25
489.553	2.23
489.755	2.27
489.956	2.29
490.157	2.36
490.358	2.44
490.559	2.53
490.76	2.45
490.961	2.41
491.163	2.48
491.364	2.55
491.565	2.45
491.766	2.46
491.967	2.51
492.168	2.51
492.369	2.52
492.57	2.48
492.771	2.44
492.972	2.52
493.173	2.62
493.374	2.55
493.575	2.52
493.776	2.58
493.976	2.65
494.177	2.65
494.378	2.73
494.579	2.6
494.78	2.84
494.981	2.81
495.182	2.78
495.382	2.69
495.583	2.76
495.784	2.71
495.985	2.74
496.185	2.73
496.386	2.62
496.587	2.63
496.788	2.63
496.988	2.57
497.189	2.57
497.39	2.68
497.59	2.64
497.791	2.7
497.992	2.64
498.192	2.64
498.393	2.67
498.593	2.79
498.794	2.7
498.994	2.8
499.195	2.7
499.395	2.81
499.596	2.8
499.796	2.78
499.997	2.88
500.197	3.09
500.398	3.01
500.598	3
500.799	3.02
500.999	3.12
501.199	3.03
501.4	3.19
501.6	3.03
501.801	3.02
502.001	3.14
502.201	3.06
502.402	2.92
502.602	2.77
502.802	2.73
503.002	2.81
503.203	2.79
503.403	2.82
503.603	2.69
503.803	2.82
504.003	2.81
504.204	2.8
504.404	2.71
504.604	2.74
504.804	3.03
505.004	3.03
505.204	2.91
505.404	3.03
505.604	3.17
505.804	3.08
506.005	3.04
506.205	3.07
506.405	3.14
506.605	3.27
506.805	3.3
507.005	3.35
507.204	3.48
507.404	3.52
507.604	3.47
507.804	3.35
508.004	3.48
508.204	3.5
508.404	3.48
508.604	3.45
508.804	3.53
509.003	3.51
509.203	3.5
509.403	3.38
509.603	3.36
509.803	3.41
510.002	3.53
510.202	3.46
510.402	3.5
510.602	3.41
510.801	3.36
511.001	3.26
511.201	3.28
511.4	3.16
511.6	3.18
511.8	3.16
511.999	3.34
512.199	3.31
512.398	3.37
512.598	3.42
512.797	3.58
512.997	3.72
513.197	3.79
513.396	3.92
513.596	4.01
513.795	4.19
513.994	4.27
514.194	4.05
514.393	4.09
514.593	4.16
514.792	4.12
514.992	4.08
515.191	3.98
515.39	4.08
515.59	3.96
515.789	4.05
515.988	4.02
516.188	3.87
516.387	3.87
516.586	3.72
516.786	3.67
516.985	3.66
517.184	3.7
517.383	3.85
517.582	3.78
517.782	3.8
517.981	3.74
518.18	3.65
518.379	3.86
518.578	3.91
518.777	4
518.976	3.96
519.176	4.07
519.375	4.12
519.574	3.93
519.773	3.91
519.972	3.83
520.171	3.85
520.37	3.89
520.569	3.86
520.768	3.83
520.967	3.93
521.166	3.99
521.365	3.9
521.564	3.96
521.762	4.09
521.961	4.14
522.16	4.33
522.359	4.33
522.558	4.34
522.757	4.33
522.956	4.51
523.154	4.44
523.353	4.47
523.552	4.45
523.751	4.5
523.949	4.55
524.148	4.67
524.347	4.69
524.546	4.7
524.744	4.62
524.943	4.63
525.142	4.54
525.34	4.61
525.539	4.58
525.737	4.62
525.936	4.49
526.135	4.37
526.333	4.18
526.532	4.11
526.73	4.14
526.929	4.12
527.127	4.11
527.326	4.05
527.524	4.04
527.723	4.05
527.921	4.05
528.12	4.1
528.318	4.18
528.516	4.23
528.715	4.24
528.913	4.19
529.112	4.22
529.31	4.16
529.508	4.17
529.707	4.13
529.905	4.16
530.103	4.17
530.301	4.17
530.5	4.19
530.698	4.23
530.896	4.27
531.094	4.34
531.293	4.44
531.491	4.6
531.689	4.67
531.887	4.8
532.085	4.89
532.283	4.88
532.481	4.85
532.68	4.77
532.878	4.75
533.076	4.72
533.274	4.68
533.472	4.65
533.67	4.57
533.868	4.59
534.066	4.52
534.264	4.41
534.462	4.44
534.66	4.53
534.858	4.62
535.056	4.71
535.253	4.72
535.451	4.81
535.649	4.82
535.847	5.04
536.045	5.02
536.243	5.18
536.441	5.38
536.638	5.41
536.836	5.36
537.034	5.36
537.232	5.39
537.43	5.44
537.627	5.56
537.825	5.56
538.023	5.49
538.22	5.61
538.418	5.55
538.616	5.43
538.813	5.48
539.011	5.65
539.209	5.73
539.406	5.74
539.604	5.91
539.801	5.95
539.999	6.06
540.196	6.1
540.394	6.17
540.591	6.15
540.789	6.13
540.986	6.07
541.184	6.07
541.381	6.09
541.579	6.15
541.776	6.07
541.974	6
542.171	6.03
542.368	6
542.566	6
542.763	6.08
542.96	6.17
543.158	6.28
543.355	6.3
543.552	6.31
543.75	6.39
543.947	6.34
544.144	6.37
544.341	6.42
544.539	6.48
544.736	6.51
544.933	6.42
545.13	6.38
545.327	6.27
545.524	6.29
545.722	6.4
545.919	6.31
546.116	6.53
546.313	6.66
546.51	6.66
546.707	6.69
546.904	6.73
547.101	6.76
547.298	6.92
547.495	7.07
547.692	6.97
547.889	6.91
548.086	7.03
548.283	7.18
548.48	7.23
548.677	7.21
548.874	7.22
549.07	7.3
549.267	7.51
549.464	7.38
549.661	7.45
549.858	7.77
550.055	8
550.251	8.02
550.448	7.84
550.645	7.95
550.842	8.01
551.038	8.28
551.235	8.07
551.432	8.03
551.628	8.17
551.825	8.35
552.022	8.22
552.218	8.26
552.415	8.39
552.612	8.48
552.808	8.38
553.005	8.5
553.201	8.45
553.398	8.62
553.594	8.77
553.791	8.89
553.987	8.83
554.184	9.09
554.38	8.98
554.577	8.84
554.773	8.92
554.97	9.03
555.166	9.28
555.362	9.29
555.559	9.43
555.755	9.48
555.952	9.4
556.148	9.49
556.344	9.3
556.541	9.42
556.737	9.59
556.933	9.68
557.129	9.63
557.326	9.33
557.522	9.65
557.718	9.66
557.914	9.63
558.11	9.87
558.307	9.79
558.503	10.11
558.699	10.12
558.895	10.27
559.091	10.35
559.287	10.21
559.483	10.39
559.679	10.3
559.876	10.35
560.072	10.44
560.268	10.32
560.464	10.22
560.66	9.99
560.856	10.23
561.052	10.16
561.247	10.16
561.443	10.44
561.639	10.5
561.835	10.48
562.031	10.41
562.227	10.54
562.423	10.6
562.619	10.95
562.815	11.11
563.01	11.18
563.206	11.22
563.402	11.16
563.598	11.22
563.793	11.19
563.989	11.23
564.185	11.45
564.381	11.59
564.576	11.71
564.772	11.74
564.968	11.88
565.163	11.67
565.359	11.47
565.555	11.6
565.75	11.67
565.946	11.72
566.141	11.72
566.337	11.78
566.532	11.76
566.728	11.9
566.923	11.94
567.119	11.78
567.314	11.74
567.51	12.03
567.705	12.01
567.901	11.88
568.096	12.06
568.292	12.18
568.487	12.15
568.682	12.08
568.878	11.97
569.073	11.99
569.268	12.21
569.464	12.34
569.659	12.32
569.854	12.41
570.05	12.6
570.245	12.58
570.44	12.61
570.635	12.72
570.831	12.81
571.026	12.93
571.221	13
571.416	13.01
571.611	13.11
571.806	13.2
572.002	13.28
572.197	13.32
572.392	13.27
572.587	13.45
572.782	13.66
572.977	13.85
573.172	13.87
573.367	13.86
573.562	14.09
573.757	14.15
573.952	14.29
574.147	14.48
574.342	14.68
574.537	14.84
574.732	14.76
574.927	14.6
575.121	14.57
575.316	14.55
575.511	14.6
575.706	14.43
575.901	14.53
576.096	14.6
576.29	14.52
576.485	14.5
576.68	14.65
576.875	14.58
577.069	14.57
577.264	14.44
577.459	14.78
577.654	14.99
577.848	15.03
578.043	15.05
578.238	14.96
578.432	14.83
578.627	14.83
578.821	14.74
579.016	14.82
579.21	15.03
579.405	15.11
579.6	15.05
579.794	14.94
579.989	15.07
580.183	15.11
580.378	15.23
580.572	15.55
580.766	15.62
580.961	15.79
581.155	16
581.35	15.98
581.544	16.13
581.738	15.9
581.933	16.07
582.127	16.37
582.321	16.53
582.516	16.52
582.71	16.71
582.904	16.83
583.099	16.71
583.293	16.68
583.487	16.79
583.681	16.91
583.875	17.06
584.07	17.13
584.264	16.95
584.458	16.98
584.652	17
584.846	16.68
585.04	16.39
585.234	16.47
585.428	16.53
585.623	16.34
585.817	16.06
586.011	16.31
586.205	16.43
586.399	16.61
586.593	16.6
586.787	16.93
586.981	17.1
587.174	17.59
587.368	17.6
587.562	17.91
587.756	18.17
587.95	18.45
588.144	18.33
588.338	18.3
588.532	18.26
588.725	18.37
588.919	18.31
589.113	18.27
589.307	18.13
589.501	18.1
589.694	17.92
589.888	17.98
590.082	18
590.275	18.14
590.469	18.32
590.663	18.16
590.856	18.36
591.05	18.53
591.244	18.57
591.437	18.61
591.631	18.7
591.824	18.72
592.018	18.74
592.212	18.88
592.405	18.79
592.599	18.56
592.792	18.65
592.986	18.6
593.179	18.62
593.372	18.88
593.566	19.03
593.759	19.17
593.953	19.23
594.146	19.18
594.339	19.28
594.533	19.52
594.726	19.6
594.92	19.6
595.113	19.52
595.306	19.41
595.499	19.15
595.693	18.99
595.886	19.03
596.079	19.09
596.272	19.26
596.466	19.3
596.659	19.23
596.852	19.35
597.045	19.72
597.238	19.65
597.431	19.61
597.624	19.66
597.818	19.74
598.011	19.72
598.204	19.73
598.397	19.77
598.59	19.55
598.783	19.66
598.976	19.7
599.169	19.49
599.362	19.71
599.555	19.91
599.748	20.32
599.941	20.41
600.134	20.56
600.326	20.78
600.519	20.95
600.712	21.09
600.905	21
601.098	21.2
601.291	21.07
601.483	21.16
601.676	21.09
601.869	20.87
602.062	20.89
602.255	20.7
602.447	20.66
602.64	20.48
602.833	20.66
603.025	20.5
603.218	20.24
603.411	20.45
603.603	20.15
603.796	20.14
603.989	20.21
604.181	20.4
604.374	20.7
604.566	20.66
604.759	20.67
604.951	20.51
605.144	20.65
605.336	20.66
605.529	20.55
605.721	20.76
605.914	20.86
606.106	20.87
606.299	20.74
606.491	20.7
606.683	20.72
606.876	20.66
607.068	20.91
607.26	21.07
607.453	21.42
607.645	21.71
607.837	21.75
608.03	21.91
608.222	21.99
608.414	22.08
608.606	22.02
608.799	22.1
608.991	22.18
609.183	22.13
609.375	22.14
609.567	21.84
609.759	21.71
609.952	21.64
610.144	21.61
610.336	21.74
610.528	21.61
610.72	21.58
610.912	21.63
611.104	21.78
611.296	21.88
611.488	21.85
611.68	22.14
611.872	22.13
612.064	22.4
612.256	22.34
612.448	22.39
612.64	22.34
612.832	22.52
613.023	22.37
613.215	22.28
613.407	22.02
613.599	22.15
613.791	22.19
613.983	22.25
614.174	22.11
614.366	22.2
614.558	22.05
614.75	22.08
614.941	21.98
615.133	22.38
615.325	22.54
615.516	22.74
615.708	22.63
615.9	22.36
616.091	22.34
616.283	22.38
616.475	22.18
616.666	22.44
616.858	23
617.049	22.9
617.241	22.69
617.432	22.8
617.624	23.19
617.815	23.28
618.007	23.45
618.198	23.53
618.39	23.71
618.581	23.94
618.773	23.63
618.964	23.43
619.155	23.71
619.347	23.66
619.538	23.69
619.729	23.62
619.921	23.51
620.112	23.52
620.303	23.9
620.494	23.89
620.686	23.92
620.877	24.11
621.068	23.99
621.259	24.06
621.451	24.29
621.642	24.07
621.833	23.92
622.024	24.21
622.215	24.44
622.406	24.18
622.597	24.37
622.788	24.37
622.98	24.37
623.171	24.73
623.362	24.66
623.553	24.76
623.744	24.51
623.935	24.47
624.126	24.32
624.317	23.94
624.508	24.06
624.698	23.77
624.889	23.8
625.08	23.97
625.271	24.03
625.462	23.64
625.653	23.37
625.844	23.75
626.034	23.7
626.225	23.74
626.416	24.12
626.607	23.97
626.798	23.98
626.988	23.96
627.179	23.88
627.37	23.58
627.56	24.05
627.751	24.12
627.942	24
628.132	23.94
628.323	24.19
628.514	24.22
628.704	24.15
628.895	24.27
629.085	24.19
629.276	24.17
629.466	24.26
629.657	24.13
629.847	24.21
630.038	24.43
630.228	24.98
630.419	24.84
630.609	24.74
630.8	24.94
630.99	24.96
631.181	25.17
631.371	25.32
631.561	25.52
631.752	25.62
631.942	25.57
632.132	25.54
632.323	25.11
632.513	25.23
632.703	25.34
632.893	25.44
633.084	25.34
633.274	25.32
633.464	24.96
633.654	25.13
633.844	24.98
634.034	24.79
634.225	24.82
634.415	24.81
634.605	24.8
634.795	24.5
634.985	24.47
635.175	24.71
635.365	24.54
635.555	24.99
635.745	24.78
635.935	24.99
636.125	25.17
636.315	25.08
636.505	25.26
636.695	25.2
636.885	25.23
637.075	25.09
637.265	25.05
637.455	25.29
637.644	25.13
637.834	25.32
638.024	25.03
638.214	25.21
638.404	25.37
638.593	25.44
638.783	25.64
638.973	26.04
639.163	26.22
639.352	26.3
639.542	26.68
639.732	26.58
639.921	26.64
640.111	27.1
640.301	26.99
640.49	26.93
640.68	26.99
640.87	27.07
641.059	27
641.249	27.08
641.438	27.18
641.628	26.85
641.817	26.74
642.007	26.79
642.196	26.5
642.386	26.94
642.575	27.44
642.764	27.14
642.954	26.86
643.143	26.94
643.333	27.03
643.522	26.85
643.711	26.74
643.901	26.82
644.09	26.81
644.279	27.34
644.469	27.01
644.658	26.73
644.847	26.87
645.036	27.01
645.226	26.75
645.415	26.75
645.604	26.77
645.793	27.08
645.982	26.93
646.171	26.82
646.361	26.75
646.55	27.17
646.739	27.05
646.928	27.06
647.117	26.89
647.306	27.01
647.495	26.8
647.684	26.95
647.873	27.06
648.062	27.39
648.251	27.47
648.44	27.01
648.629	26.7
648.818	26.97
649.007	26.87
649.196	27.14
649.384	27.35
649.573	27.23
649.762	26.98
649.951	26.72
650.14	27.03
650.328	27.33
650.517	27.85
650.706	28.16
650.895	28.48
651.083	28.76
651.272	28.61
651.461	28.78
651.65	29.21
651.838	28.94
652.027	28.93
652.216	28.39
652.404	28.06
652.593	27.89
652.781	27.66
652.97	27.35
653.158	27.37
653.347	27.83
653.535	27.52
653.724	27.15
653.912	27.52
654.101	27.87
654.289	28.41
654.478	28.64
654.666	28.7
654.855	28.36
655.043	28.07
655.231	27.93
655.42	27.77
655.608	28.06
655.796	28.48
655.985	28.42
656.173	28.42
656.361	28.34
656.55	28.18
656.738	28.03
656.926	28.66
657.114	29.15
657.302	29.33
657.491	28.89
657.679	28.79
657.867	28.54
658.055	28.69
658.243	28.55
658.431	28.79
658.619	29.02
658.807	29.33
658.996	29.38
659.184	29.26
659.372	29.36
659.56	29.74
659.748	29.45
659.936	29.84
660.124	29.9
660.311	30.04
660.499	29.93
660.687	29.95
660.875	29.96
661.063	29.6
661.251	29.63
661.439	29.71
661.627	29.72
661.814	30
662.002	29.85
662.19	29.9
662.378	29.82
662.565	29.9
662.753	29.64
662.941	29.56
663.129	29.92
663.316	30.09
663.504	29.8
663.692	30.19
663.879	30.54
664.067	30.39
664.254	30.61
664.442	30.53
664.63	30.52
664.817	30.9
665.005	30.79
665.192	30.93
665.38	30.6
665.567	30.62
665.755	30.38
665.942	30.4
666.13	30.75
666.317	30.7
666.504	30.64
666.692	30.52
666.879	30.37
667.067	30.35
667.254	30.02
667.441	30.02
667.629	30.1
667.816	30.04
668.003	29.63
668.19	29.59
668.378	29.58
668.565	29.96
668.752	30.1
668.939	29.96
669.127	30.16
669.314	30.5
669.501	30.64
669.688	31.05
669.875	30.88
670.062	31.38
670.249	31.49
670.436	31.26
670.623	31.42
670.81	31.29
670.997	31.2
671.184	31.37
671.371	31.63
671.558	31.76
671.745	31.58
671.932	31.47
672.119	31.16
672.306	31.09
672.493	31.58
672.68	31.29
672.867	31.93
673.054	31.91
673.24	31.8
673.427	31.6
673.614	31.82
673.801	32.47
673.988	32.88
674.174	33.1
674.361	33.18
674.548	33.23
674.734	33.75
674.921	33.4
675.108	34.34
675.294	34.01
675.481	34.4
675.668	34.42
675.854	33.65
676.041	33.28
676.227	33.11
676.414	33.46
676.601	33.71
676.787	33.14
676.974	33.37
677.16	32.45
677.347	32.91
677.533	32.45
677.719	31.92
677.906	31.81
678.092	32.13
678.279	32.02
678.465	31.52
678.651	31.19
678.838	31.2
679.024	31.05
679.21	31.38
679.397	31.35
679.583	31.47
679.769	31.62
679.955	31.46
680.142	31.31
680.328	31.74
680.514	31.83
680.7	31.31
680.886	31.63
681.073	31.76
681.259	31.52
681.445	31.29
681.631	30.88
681.817	31.13
682.003	31.11
682.189	31.07
682.375	30.71
682.561	30.9
682.747	31.68
682.933	31.57
683.119	31.64
683.305	31.98
683.491	32.33
683.677	32.88
683.863	32.82
684.049	33.31
684.235	33.35
684.42	33.72
684.606	33.69
684.792	34.03
684.978	33.77
685.164	33.74
685.349	33.5
685.535	33.69
685.721	33.21
685.907	33.21
686.092	33.51
686.278	33.85
686.464	33.62
686.649	33.62
686.835	33.4
687.021	33.77
687.206	33.86
687.392	33.67
687.577	33.62
687.763	33.78
687.948	33.74
688.134	33.11
688.319	33.69
688.505	33.98
688.69	33.93
688.876	33.81
689.061	34.02
689.247	33.89
689.432	34.35
689.618	34.13
689.803	34.47
689.988	34.42
690.174	34.94
690.359	34.21
690.544	33.76
690.73	33.96
690.915	34.09
691.1	33.74
691.285	33.59
691.471	33.66
691.656	33.58
691.841	33.59
692.026	34.08
692.211	34.12
692.396	34.44
692.582	34.78
692.767	35.04
692.952	34.74
693.137	34.58
693.322	35.02
693.507	35.31
693.692	35.9
693.877	35.76
694.062	35.77
694.247	35.36
694.432	35.41
694.617	35.39
694.802	35.11
694.987	35.65
695.172	35.94
695.357	35.76
695.541	35.16
695.726	34.96
695.911	35.85
696.096	35.33
696.281	35.54
696.466	34.64
696.65	34.58
696.835	34.82
697.02	35.13
697.204	34.73
697.389	34.97
697.574	35.09
697.759	35.04
697.943	34.26
698.128	34.46
698.312	34.72
698.497	34.91
698.682	34.9
698.866	34.65
699.051	33.97
699.235	34.22
699.42	33.99
699.604	34.1
699.789	33.93
699.973	33.95
700.158	34.07
700.342	33.78
700.527	34.12
700.711	34.59
700.895	34.48
701.08	34.91
701.264	35.26
701.448	35.46
701.633	35.78
701.817	36.14
702.001	36.83
702.186	36.81
702.37	37.2
702.554	36.78
702.738	36.55
702.923	36.44
703.107	36.43
703.291	36.24
703.475	36.25
703.659	35.7
703.843	35.52
704.027	35.32
704.212	35.24
704.396	35.07
704.58	35.01
704.764	34.98
704.948	34.97
705.132	34.67
705.316	34.74
705.5	34.91
705.684	35.73
705.868	35.42
706.052	35.14
706.235	34.87
706.419	35.41
706.603	36.04
706.787	35.67
706.971	36.72
707.155	36.31
707.339	36.25
707.522	36.62
707.706	36.29
707.89	36.37
708.074	36.81
708.257	36.56
708.441	37.16
708.625	36.65
708.808	36.79
708.992	36.19
709.176	36.51
709.359	36.69
709.543	36.3
709.727	36.02
709.91	36.12
710.094	35.77
710.277	36.8
710.461	35.47
710.644	36.09
710.828	36.59
711.011	36.72
711.195	36.81
711.378	36.5
711.562	36.5
711.745	36.55
711.928	36.71
712.112	36.39
712.295	36.15
712.478	36.3
712.662	36.49
712.845	36.16
713.028	36.21
713.212	36.2
713.395	35.92
713.578	36.39
713.761	36.15
713.945	36.14
714.128	36.6
714.311	36.26
714.494	36.54
714.677	36.12
714.86	36.39
715.043	36.66
715.227	37.24
715.41	37.83
715.593	37.47
715.776	37.68
715.959	37.64
716.142	37.86
716.325	37.73
716.508	38.12
716.691	38.4
716.874	38.28
717.057	38.18
717.239	38.34
717.422	38.66
717.605	38.23
717.788	38.01
717.971	38.34
718.154	37.98
718.337	38.47
718.519	38.44
718.702	38.93
718.885	38.51
719.068	38.24
719.25	37.44
719.433	36.89
719.616	37.12
719.798	36.91
719.981	37.59
720.164	37.55
720.346	37.47
720.529	37.57
720.712	37.24
720.894	38.18
721.077	38.17
721.259	38.8
721.442	39.41
721.624	39.68
721.807	40.01
721.989	38.9
722.172	39.23
722.354	39.32
722.537	38.93
722.719	38.36
722.901	38.62
723.084	39.29
723.266	38.7
723.448	38.89
723.631	38.65
723.813	38.76
723.995	38.99
724.178	38.48
724.36	39.15
724.542	38.69
724.724	39.5
724.907	39.28
725.089	38.55
725.271	38.75
725.453	38.27
725.635	38.43
725.817	39.18
725.999	39.12
726.181	39.75
726.364	38.22
726.546	39.09
726.728	39.19
726.91	38.3
727.092	38.92
727.274	38.94
727.456	39.45
727.638	39.76
727.819	39.15
728.001	39.48
728.183	39.9
728.365	40.6
728.547	40.22
728.729	39.83
728.911	40.61
729.093	40.31
729.274	40.15
729.456	39.57
729.638	39.56
729.82	40.31
730.001	40.44
730.183	39.94
730.365	40.11
730.546	40.33
730.728	39.95
730.91	39.97
731.091	39.75
731.273	39.27
731.455	39.62
731.636	40.32
731.818	40.36
731.999	39.83
732.181	40.1
732.362	40.09
732.544	40.42
732.725	40.45
732.907	39.78
733.088	40.6
733.27	41.21
733.451	40.88
733.633	41.02
733.814	40.54
733.995	41.41
734.177	41.08
734.358	41.19
734.539	41
734.721	41.53
734.902	41.43
735.083	41.03
735.264	42.02
735.446	42.39
735.627	41.15
735.808	40.63
735.989	40.8
736.17	40.82
736.351	40.43
736.533	40.21
736.714	39.05
736.895	39.9
737.076	39.67
737.257	38.9
737.438	38.73
737.619	39.37
737.8	40.43
737.981	39.93
738.162	39.6
738.343	40.17
738.524	39.73
738.705	41.06
738.886	40.58
739.067	41.17
739.247	41.26
739.428	41.13
739.609	40.31
739.79	41.32
739.971	40.92
740.151	41.78
740.332	41.82
740.513	41.72
740.694	42.3
740.874	42.96
741.055	42.2
741.236	42.04
741.417	42.56
741.597	43.08
741.778	41.97
741.958	42.39
742.139	43.09
742.32	43.71
742.5	44.76
742.681	44.56
742.861	43.88
743.042	44.5
743.222	44.97
743.403	44.34
743.583	44.86
743.764	45.25
743.944	45.17
744.124	44.37
744.305	43.22
744.485	42.92
744.666	41.75
744.846	42.09
745.026	42.1
745.207	41.79
745.387	42.34
745.567	42.94
745.747	42.69
745.928	42.66
746.108	42.16
746.288	42.63
746.468	43.01
746.648	43.38
746.829	43.72
747.009	44.02
747.189	43.78
747.369	43.5
747.549	42.46
747.729	43.02
747.909	43.26
748.089	43.92
748.269	44.04
748.449	43.38
748.629	43.31
748.809	43.16
748.989	42.25
749.169	43.01
749.349	43.57
749.529	42.92
749.709	41.08
749.889	41.29
750.068	40.39
750.248	40.68
750.428	41.47
750.608	41.75
750.788	41.14
750.967	41.25
751.147	41.31
751.327	41.5
751.507	41.67
751.686	43.26
751.866	43.57
752.046	43.91
752.225	43.81
752.405	43.99
752.585	43.95
752.764	43.82
752.944	44.93
753.123	44.74
753.303	43.95
753.482	45.01
753.662	44.49
753.841	43.47
754.021	44.07
754.2	44.44
754.38	44.31
754.559	43.24
754.739	43.32
754.918	42.43
755.097	42.78
755.277	42.47
755.456	42.41
755.635	42.51
755.815	43.15
755.994	42.9
756.173	42.12
756.352	41
756.532	42.13
756.711	41.92
756.89	42.03
757.069	41.67
757.248	41.64
757.427	40.8
757.607	40.5
757.786	40.05
757.965	39.37
758.144	39.94
758.323	41.25
758.502	41.3
758.681	42.21
758.86	42.08
759.039	42.35
759.218	43.21
759.397	44.03
759.576	44.64
759.755	44.15
759.934	44.76
760.113	44.76
760.291	43.76
760.47	43.94
760.649	44.04
760.828	44.58
761.007	43.65
761.186	43.03
761.364	43.3
761.543	43.39
761.722	44.14
761.901	43.53
762.079	43.76
762.258	44.13
762.437	43.69
762.615	43.18
762.794	42.95
762.972	42.88
763.151	42.92
763.33	42.7
763.508	42.11
763.687	41.72
763.865	41.83
764.044	41.25
764.222	41.42
764.401	41.75
764.579	42
764.758	41.62
764.936	42.45
765.114	42.11
765.293	41.66
765.471	42.49
765.65	43.4
765.828	44.12
766.006	44.89
766.184	45.36
766.363	45.19
766.541	44.99
766.719	45.63
766.898	45.65
767.076	46.05
767.254	46.28
767.432	46.57
767.61	46.1
767.788	46.1
767.967	44.97
768.145	44.31
768.323	43.73
768.501	43.93
768.679	43.87
768.857	42.69
769.035	43.46
769.213	43.85
769.391	43.29
769.569	43.56
769.747	44.37
769.925	44.96
770.103	44.13
770.281	44.74
770.459	45.68
770.636	46.77
770.814	48.18
770.992	48.25
771.17	48.63
771.348	49.46
771.525	48.81
771.703	47.63
771.881	48.07
772.059	49.85
772.236	49.11
772.414	48.32
772.592	46.46
772.769	45.59
772.947	45.46
773.125	44.41
773.302	44.11
773.48	46.17
773.657	47.19
773.835	47.19
774.013	47.26
774.19	49.28
774.368	48.3
774.545	49.48
774.723	49.36
774.9	48.68
775.077	48.3
775.255	46.34
775.432	46.45
775.61	45.17
775.787	44.83
775.964	44.6
776.142	44.74
776.319	46.74
776.496	47.14
776.674	47.25
776.851	48.31
777.028	49.99
777.205	52.18
777.382	50.98
777.56	51.29
777.737	54.33
777.914	52.55
778.091	52.21
778.268	52.36
778.445	52.24
778.622	52.16
778.8	51.52
778.977	51.09
779.154	54.61
779.331	54.53
779.508	55.28
779.685	51.82
779.862	53.44
780.038	53.75
780.215	54.21
780.392	54.68
780.569	54.53
780.746	54.88
780.923	55.05
781.1	51.46
781.277	50.8
781.453	50.54
781.63	50.65
781.807	50.48
781.984	49.65
782.16	49.3
782.337	48.52
782.514	49.03
782.691	51.22
782.867	50.09
783.044	48.12
783.221	47.91
783.397	47.28
783.574	46.9
783.75	48.51
783.927	49.02
784.103	47.88
784.28	47.57
784.456	47.38
784.633	44.99
784.809	46.01
784.986	46.42
785.162	47.31
785.339	46.12
785.515	46.31
785.692	44.61
785.868	44.95
786.044	47.19
786.221	48.28
786.397	48.9
786.573	49.3
786.749	49.27
786.926	52.09
787.102	52.17
787.278	55.41
787.454	56.32
787.631	58.28
787.807	57.3
787.983	53.93
788.159	52.62
788.335	53.78
788.511	52.63
788.687	53.5
788.863	53.19
789.039	52.9
789.216	49.76
789.392	49.02
789.568	48.16
789.744	49.42
789.919	50.39
790.095	51.45
790.271	50.96
790.447	52.57
790.623	52.94
790.799	52.68
790.975	52.27
791.151	54.28
791.327	54.9
791.502	53.97
791.678	52.43
791.854	54.31
792.03	53.22
792.205	55.23
792.381	54.85
792.557	53.74
792.733	53.62
792.908	54.83
793.084	52.74
793.259	52.99
793.435	52.61
793.611	54.46
793.786	51.18
793.962	51.65
794.137	49.45
794.313	48.39
794.488	48.75
794.664	48.14
794.839	45.5
795.015	48.06
795.19	48.89
795.366	49.11
795.541	47.24
795.716	48.63
795.892	51.21
796.067	51.26
796.242	51.35
796.418	50.9
796.593	51.46
796.768	52.56
796.944	52.51
797.119	50.24
797.294	50.21
797.469	51.68
797.644	52.67
797.82	51.6
797.995	49.13
798.17	49.3
798.345	49.22
798.52	48.33
798.695	49.16
798.87	48.81
799.045	50.42
799.22	52.31
799.395	52.31
799.57	52.88
799.745	52.1
799.92	54.01
800.095	57.16
800.27	57.7
800.445	59.47
800.62	59.06
800.795	60.22
800.97	59.31
801.145	57.03
801.319	57.43
801.494	57.4
801.669	58.77
801.844	62.41
802.018	58.14
802.193	57.98
802.368	57.33
802.543	57.35
802.717	56.6
802.892	57.12
803.067	57.27
803.241	56.27
803.416	57.29
803.59	56.74
803.765	54.01
803.94	55.83
804.114	54.18
804.289	55.4
804.463	56.72
804.638	54.45
804.812	56.82
804.986	56.01
805.161	55.57
805.335	52.35
805.51	51.53
805.684	51.88
805.858	51.6
806.033	51.38
806.207	49.24
806.381	49.52
806.556	50.8
806.73	49.7
806.904	50.92
807.078	50.61
807.253	52.81
807.427	52.19
807.601	49.64
807.775	51.24
807.949	55.49
808.123	55.44
808.298	56.58
808.472	55.26
808.646	56.57
808.82	56.54
808.994	57.71
809.168	59.16
809.342	59.96
809.516	61.98
809.69	59.74
809.864	56.7
810.038	60.17
810.212	56.37
810.385	59.69
810.559	60.52
810.733	59.76
810.907	57.79
811.081	56.64
811.255	58.65
811.428	57.52
811.602	60.16
811.776	61.44
811.95	58.72
812.123	59.98
812.297	61.12
812.471	58.05
812.644	60.97
812.818	63.26
812.992	61.84
813.165	61.51
813.339	62.77
813.512	58.49
813.686	59.23
813.86	58.6
814.033	57.07
814.207	56.32
814.38	56.21
814.554	54.09
814.727	53.25
814.9	55.57
815.074	54.37
815.247	55.36
815.421	57.07
815.594	56.67
815.767	56.67
815.941	57.39
816.114	57.74
816.287	59.67
816.46	61.32
816.634	60.84
816.807	60.84
816.98	60.32
817.153	60.72
817.327	63.77
817.5	65.81
817.673	70.37
817.846	71.15
818.019	71.66
818.192	70.53
818.365	66.7
818.538	67.44
818.711	63.81
818.884	66.95
819.057	60.87
819.23	58.8
819.403	52.05
819.576	48.85
819.749	48.22
819.922	45.69
820.095	45.63
820.268	48.95
820.441	49.87
820.614	49.01
820.786	46.32
820.959	48.7
821.132	47.37
821.305	47.9
821.477	47.52
821.65	47.43
821.823	47.75
821.996	46.07
822.168	44.85
822.341	44.33
822.514	44.71
822.686	44.24
822.859	44.01
823.031	44.6
823.204	45.23
823.376	45.15
823.549	45.38
823.722	45.32
823.894	46.28
824.067	45.93
824.239	45.97
824.411	46.13
824.584	46.52
824.756	47.47
824.929	47.39
825.101	47.79
825.273	48.03
825.446	47.78
825.618	47.55
825.79	47.28
825.963	47.89
826.135	47.91
826.307	48.2
826.479	48.4
826.652	47.52
826.824	46.81
826.996	45.78
827.168	45.89
827.34	46.24
827.512	46.14
827.684	46.15
827.856	46.65
828.029	47.05
828.201	46.36
828.373	46.41
828.545	46.82
828.717	47.88
828.889	48.17
829.061	48.32
829.232	48.28
829.404	49.56
829.576	49.77
829.748	49.13
829.92	50.24
830.092	50.99
830.264	50.9
830.436	51.86
830.607	52.49
830.779	53.04
830.951	54.33
831.123	54.38
831.294	51.3
831.466	51.18
831.638	51.14
831.809	49.17
831.981	50.15
832.153	51.99
832.324	50.17
832.496	49.11
832.667	48.72
832.839	49.16
833.011	46.68
833.182	48.57
833.354	49.1
833.525	50.9
833.697	53.33
833.868	50.44
834.039	51.88
834.211	52.17
834.382	52.02
834.554	54
834.725	53.29
834.896	54.82
835.068	54.12
835.239	53.62
835.41	53.9
835.581	51.93
835.753	53.71
835.924	51.69
836.095	51.73
836.266	51.97
836.438	49.55
836.609	47.88
836.78	47.91
836.951	50.19
837.122	51.75
837.293	52.11
837.464	53.44
837.635	54.92
837.806	56.75
837.977	57.54
838.148	59.45
838.319	62.43
838.49	64.64
838.661	67.57
838.832	67.35
839.003	65.45
839.174	65.22
839.345	63.13
839.516	66.05
839.687	64.51
839.857	64.47
840.028	64.71
840.199	61.76
840.37	62.9
840.54	62.95
840.711	60.48
840.882	62.37
841.053	64.98
841.223	65.33
841.394	58.2
841.564	60.88
841.735	61.55
841.906	58.99
842.076	54.48
842.247	53.24
842.417	53.22
842.588	56.51
842.758	54.53
842.929	49.87
843.099	55.16
843.27	63.04
843.44	60.88
843.611	61.27
843.781	58.16
843.951	65.63
844.122	65.86
844.292	66.13
844.462	66.56
844.633	70
844.803	73.08
844.973	71.29
845.144	64.51
845.314	65.55
845.484	64.54
845.654	67.82
845.824	69.43
845.995	75.25
846.165	73.18
846.335	74.64
846.505	72.28
846.675	68.71
846.845	69.73
847.015	73.48
847.185	74.07
847.355	77.43
847.525	85.72
847.695	92.75
847.865	91.52
848.035	95.73
848.205	93.76
848.375	100.28
848.545	94.38
848.715	94.96
848.884	94.93
849.054	91.83
849.224	103.97
849.394	104.51
849.564	91.86
849.733	90.97
849.903	94.83
850.073	97.81
850.243	95.2
850.412	99.43
850.582	98.17
850.752	98.71
850.921	101.42
851.091	94.58
851.26	89.19
851.43	89.01
851.599	81.98
851.769	78.33
851.939	77.46
852.108	84.04
852.278	85.69
852.447	88.53
852.616	93.39
852.786	89.32
852.955	90.92
853.125	96.27
853.294	99.79
853.463	105.4
853.633	107.65
853.802	104.88
853.971	102.11
854.141	106.55
854.31	100.89
854.479	93.97
854.648	100.13
854.818	86.32
854.987	85.67
855.156	82.72
855.325	85.97
855.494	97.24
855.663	96.47
855.832	90.55
856.001	86.85
856.171	93.33
856.34	93.71
856.509	96
856.678	110.81
856.847	116.77
857.016	117.11
857.185	110.6
857.353	96.75
857.522	100.72
857.691	112.2
857.86	115.41
858.029	106.12
858.198	116.39
858.367	119.27
858.535	120.92
858.704	114.89
858.873	115.45
859.042	122.77
859.21	128.53
859.379	132.11
859.548	115.28
859.717	113.2
859.885	116.63
860.054	106.09
860.222	100.17
860.391	105.83
860.56	96.85
860.728	102.79
860.897	96.84
861.065	85.66
861.234	82.81
861.402	87.76
861.571	86.1
861.739	87.39
861.908	88.54
862.076	91.44
862.244	96.58
862.413	90.87
862.581	88.32
862.749	88.73
862.918	86.85
863.086	81.66
863.254	82.54
863.423	78.7
863.591	76.38
863.759	77.75
863.927	81.57
864.096	73.41
864.264	82.52
864.432	80.53
864.6	81.44
864.768	84.94
864.936	92.94
865.104	91.05
865.272	98.38
865.44	106.9
865.608	102.23
865.776	103.64
865.944	105.91
866.112	104.54
866.28	98.02
866.448	102.58
866.616	99.83
866.784	97.36
866.952	99.04
867.12	96.95
867.288	94.48
867.455	95.13
867.623	95.44
867.791	89.98
867.959	90.38
868.127	95.15
868.294	91.48
868.462	84.28
868.63	80.34
868.797	78.6
868.965	76.83
869.133	70.93
869.3	68.86
869.468	64.93
869.636	57.74
869.803	63.48
869.971	71.6
870.138	76.36
870.306	78.71
870.473	79.71
870.641	74.45
870.808	72.41
870.975	78.41
871.143	84.13
871.31	84.93
871.478	98.67
871.645	85.47
871.812	74.52
871.98	74.72
872.147	83.6
872.314	83.76
872.482	91.18
872.649	97.77
872.816	94.59
872.983	89.49
873.15	87.59
873.318	88.64
873.485	99.08
873.652	105.08
873.819	117.71
873.986	124.61
874.153	124.92
874.32	119.14
874.487	118.67
874.654	113.69
874.821	118.18
874.988	118.12
875.155	112.42
875.322	112.68
875.489	120.18
875.656	109.65
875.823	99.6
875.99	92.03
876.157	99.94
876.324	102.5
876.49	102.63
876.657	91.79
876.824	98.46
876.991	102.35
877.157	91.97
877.324	96.73
877.491	97.44
877.658	99.38
877.824	94.69
877.991	87.57
878.157	84.15
878.324	88.66
878.491	100.81
878.657	101.25
878.824	95.52
878.99	92.71
879.157	87.68
879.323	85.59
879.49	84.28
879.656	98.25
879.823	97.86
879.989	94.51
880.156	85.2
880.322	76.82
880.488	74.84
880.655	76.77
880.821	84.46
880.987	86.38
881.154	81.28
881.32	78.32
881.486	70.75
881.652	70.67
881.819	69.29
881.985	67.12
882.151	67.05
882.317	60.25
882.483	58.17
882.649	56.7
882.816	54.4
882.982	54.43
883.148	54.06
883.314	53.2
883.48	54.07
883.646	53.89
883.812	53.96
883.978	53.93
884.144	55.58
884.31	54.72
884.476	55.07
884.642	54.54
884.807	56.11
884.973	56.74
885.139	56.61
885.305	58.06
885.471	57.83
885.637	56.91
885.802	57.11
885.968	56.32
886.134	58.31
886.3	57.44
886.465	59.12
886.631	55.36
886.797	56.92
886.962	59.15
887.128	58.28
887.293	60.55
887.459	67.39
887.625	69.43
887.79	74.88
887.956	77.39
888.121	80.91
888.287	80.83
888.452	92.03
888.618	95.53
888.783	104.93
