Data from LC_186__Reflection_1.txt Node
Date: Tue Nov 17 13:17:30 EST 2015
User: robert
Spectrometer: USB4E03001
Autoset integration time: false
Trigger mode: 4
Integration Time (sec): 1.000000E-1
Scans to average: 15
Electric dark correction enabled: true
Nonlinearity correction enabled: false
Boxcar width: 5
Stray light correction enabled: false
XAxis mode: Wavelengths
Stop averaging: false
Number of Pixels in Spectrum: 3648
>>>>>Begin Spectral Data<<<<<
177.566	206.84
177.785	267.7
178.005	-859.7
178.225	419.63
178.445	-379.64
178.665	-147.64
178.885	-43.73
179.105	-343.31
179.324	600.37
179.544	656.97
179.764	237.22
179.984	112.58
180.204	127.83
180.423	192.56
180.643	382.66
180.863	-914.75
181.083	-1241.33
181.302	236.91
181.522	91.91
181.742	269.82
181.961	2094.12
182.181	124.4
182.401	91.13
182.621	201.11
182.84	248.1
183.06	731.06
183.279	-758.68
183.499	6092.44
183.719	673.54
183.938	206.37
184.158	179.28
184.377	199.66
184.597	156.59
184.816	-18.51
185.036	22.79
185.256	38.16
185.475	-9.78
185.695	-42.37
185.914	-28.68
186.134	-6.31
186.353	4.54
186.572	-50.68
186.792	4.01
187.011	20.27
187.231	-103.42
187.45	-246.34
187.67	-11.43
187.889	112.49
188.108	66.79
188.328	101.24
188.547	91.18
188.766	-52.05
188.986	179.27
189.205	34.07
189.424	52.85
189.644	88.3
189.863	70.03
190.082	98.19
190.302	128.59
190.521	221.65
190.74	3531.17
190.959	604.87
191.178	184.1
191.398	184.32
191.617	394.24
191.836	230.2
192.055	129.36
192.274	-435.71
192.494	-258.93
192.713	-524.6
192.932	-141.34
193.151	476.59
193.37	6155.56
193.589	-239400
193.808	5043.82
194.027	-825.56
194.246	-431.86
194.465	1875.69
194.685	187.49
194.904	135.68
195.123	16916.67
195.342	755.59
195.561	218.36
195.78	184.67
195.999	220.02
196.218	160.61
196.436	132.94
196.655	111.73
196.874	117.98
197.093	105.44
197.312	72.57
197.531	61.12
197.75	30.77
197.969	53.61
198.188	59.45
198.407	61.77
198.625	72.69
198.844	82.31
199.063	49.51
199.282	59.33
199.501	18.11
199.719	1.99
199.938	7.81
200.157	40.78
200.376	-335.5
200.594	-208.44
200.813	-50.5
201.032	-97.61
201.251	-47.16
201.469	-932.51
201.688	-270.86
201.907	53.39
202.125	346.14
202.344	789.72
202.563	636.25
202.781	521.68
203	-716.3
203.218	-119.43
203.437	-175.23
203.656	-32.64
203.874	-170.26
204.093	-301.84
204.311	-263.27
204.53	4948.68
204.748	-65.28
204.967	454.3
205.185	204.76
205.404	128.52
205.622	130.82
205.841	129.91
206.059	176.04
206.278	148.94
206.496	148.36
206.715	139.56
206.933	141.22
207.151	116.64
207.37	121.45
207.588	106.69
207.806	125.82
208.025	99.88
208.243	117.91
208.461	122.69
208.68	141.89
208.898	-110.37
209.116	-206.32
209.335	891.49
209.553	-227.37
209.771	74.12
209.989	103.61
210.208	115.12
210.426	131.76
210.644	111.87
210.862	106.89
211.081	85.35
211.299	64.93
211.517	73.96
211.735	58.42
211.953	84.57
212.171	104.92
212.39	202.56
212.608	177.85
212.826	205.44
213.044	216.5
213.262	176.77
213.48	-2897.01
213.698	-171.47
213.916	78.2
214.134	-145.54
214.352	30.34
214.57	24.97
214.788	244.14
215.006	-17.86
215.224	-87.05
215.442	-99.22
215.66	-155.2
215.878	-52.39
216.096	0.43
216.314	26.12
216.532	11.12
216.75	21.82
216.968	16.29
217.185	22.42
217.403	48.89
217.621	48.63
217.839	44.7
218.057	57.39
218.275	76.67
218.492	83.39
218.71	70.32
218.928	111.72
219.146	156.39
219.363	154.14
219.581	130.17
219.799	128.4
220.017	139.31
220.234	143.43
220.452	109.56
220.67	89.47
220.887	107.35
221.105	107.72
221.323	76.87
221.54	52.02
221.758	63.54
221.976	64.2
222.193	66.93
222.411	56.95
222.629	50.73
222.846	40.39
223.064	15.15
223.281	19.17
223.499	17.29
223.716	39.85
223.934	46.1
224.151	29.96
224.369	26.47
224.586	16.63
224.804	44.93
225.021	48.31
225.239	48.84
225.456	49.13
225.674	40.42
225.891	49.16
226.108	37.53
226.326	23.31
226.543	27.31
226.76	22.73
226.978	25.62
227.195	14.91
227.413	15.5
227.63	17.06
227.847	21.23
228.064	18.39
228.282	11.58
228.499	16.41
228.716	16.57
228.934	17.86
229.151	19.23
229.368	15.79
229.585	14.66
229.802	16.77
230.02	18.76
230.237	18.96
230.454	22.65
230.671	27.43
230.888	24.45
231.105	27.82
231.323	25.62
231.54	23
231.757	28.09
231.974	29.54
232.191	22.51
232.408	22.55
232.625	22.4
232.842	24.05
233.059	21.8
233.276	26.21
233.493	22.76
233.71	27.32
233.927	28.17
234.144	26.09
234.361	23.67
234.578	34.25
234.795	26.43
235.012	24.74
235.229	19.14
235.446	11.55
235.663	13.88
235.879	14.43
236.096	15.53
236.313	17.75
236.53	14.98
236.747	22.33
236.964	15.02
237.181	17.71
237.397	19.59
237.614	17.31
237.831	21.85
238.048	16.87
238.264	21.13
238.481	15.66
238.698	7.49
238.915	15.36
239.131	17.92
239.348	23.89
239.565	20.75
239.781	25.44
239.998	29.13
240.215	29.08
240.431	27.15
240.648	20.76
240.865	18.98
241.081	23.12
241.298	21.75
241.514	19.46
241.731	18.35
241.947	20.19
242.164	17.82
242.38	15.29
242.597	15.13
242.814	14.72
243.03	16.36
243.246	17.12
243.463	16.96
243.679	16.74
243.896	16.87
244.112	15.08
244.329	15.99
244.545	13.47
244.762	14.44
244.978	12.44
245.194	14.9
245.411	14.85
245.627	16.53
245.843	16.41
246.06	14.46
246.276	13.61
246.492	13.82
246.709	13.7
246.925	15.67
247.141	16.35
247.357	17.74
247.574	18.01
247.79	17.8
248.006	16.99
248.222	17.24
248.439	17.36
248.655	16.88
248.871	17.99
249.087	18.07
249.303	18.61
249.519	18.48
249.736	17.69
249.952	16.29
250.168	15.45
250.384	17.1
250.6	15.23
250.816	14.17
251.032	15.37
251.248	13.89
251.464	10.19
251.68	9.11
251.896	8.45
252.112	9.13
252.328	10.6
252.544	12.51
252.76	10.16
252.976	11.17
253.192	12.1
253.408	13.65
253.624	14.07
253.84	14.94
254.056	13.61
254.272	10.8
254.487	10.91
254.703	12.01
254.919	10.79
255.135	15.74
255.351	14.2
255.567	14.58
255.782	10.1
255.998	10.21
256.214	13.99
256.43	15.43
256.646	17.97
256.861	16.87
257.077	13.22
257.293	14.66
257.508	14.01
257.724	14.05
257.94	13.06
258.155	14.61
258.371	15.13
258.587	12.76
258.802	12.4
259.018	11.83
259.234	11.09
259.449	11.52
259.665	10.69
259.88	9.35
260.096	10.15
260.312	10
260.527	9.69
260.743	9.55
260.958	10.24
261.174	10.23
261.389	10.08
261.605	10.74
261.82	10.41
262.036	10.88
262.251	11.95
262.466	10.54
262.682	12.43
262.897	12.65
263.113	11.63
263.328	11.87
263.543	12.07
263.759	12.95
263.974	12.72
264.189	13.29
264.405	14.19
264.62	12.83
264.835	13.25
265.051	12.49
265.266	10.91
265.481	12.19
265.696	12.91
265.912	12.95
266.127	11.72
266.342	11.57
266.557	10.33
266.773	9.1
266.988	10.92
267.203	11.31
267.418	11.14
267.633	11.73
267.848	10.63
268.064	8.98
268.279	9.19
268.494	10.15
268.709	9.82
268.924	10.71
269.139	10.92
269.354	10.77
269.569	11.14
269.784	10.24
269.999	11.04
270.214	11.92
270.429	12.52
270.644	11.94
270.859	11.15
271.074	11.15
271.289	12.71
271.504	11.74
271.719	11.04
271.934	10.73
272.149	11.53
272.363	11.99
272.578	11.31
272.793	10.59
273.008	11.1
273.223	11.46
273.438	10.54
273.653	10.35
273.867	11.37
274.082	11.77
274.297	11.8
274.512	11.25
274.726	9.57
274.941	10.01
275.156	11.19
275.371	10.67
275.585	11.99
275.8	13.39
276.015	12.27
276.229	11.67
276.444	10.05
276.659	10.52
276.873	10.37
277.088	11.83
277.302	11.34
277.517	9.73
277.732	8.72
277.946	8.2
278.161	9.24
278.375	9.05
278.59	9.99
278.804	11.18
279.019	10.28
279.233	9.95
279.448	9.33
279.662	10.82
279.877	12.21
280.091	12.3
280.306	11.93
280.52	10.93
280.735	11.59
280.949	10.48
281.163	10.97
281.378	12.33
281.592	12.61
281.806	12.06
282.021	12.18
282.235	11.71
282.449	12.13
282.664	12.11
282.878	12.19
283.092	10.76
283.307	11.7
283.521	11.53
283.735	9.95
283.949	8.79
284.164	9.38
284.378	7.84
284.592	7.56
284.806	7.86
285.02	7.6
285.234	7.49
285.449	8.18
285.663	7.65
285.877	8.36
286.091	8.78
286.305	9.9
286.519	9.34
286.733	10.25
286.947	11.1
287.161	10.44
287.375	10.4
287.589	10.14
287.803	9.25
288.017	8.69
288.231	8.21
288.445	8.89
288.659	8.81
288.873	8.6
289.087	8.61
289.301	7.89
289.515	9.22
289.729	10.28
289.943	9.68
290.157	10.16
290.371	10.66
290.584	10.2
290.798	10.04
291.012	10.26
291.226	11.3
291.44	10.56
291.654	11.32
291.867	10.36
292.081	8.35
292.295	9.27
292.509	9.05
292.722	9.59
292.936	9.21
293.15	8.46
293.364	7.12
293.577	7.55
293.791	7.39
294.005	6.71
294.218	6.74
294.432	8.38
294.645	8.55
294.859	9.35
295.073	9.17
295.286	9.1
295.5	8.66
295.713	8.69
295.927	8.1
296.14	8.51
296.354	8.08
296.568	9.22
296.781	9.03
296.994	9.37
297.208	9.38
297.421	9.08
297.635	10.03
297.848	10.08
298.062	10.39
298.275	10.49
298.489	10.07
298.702	11.9
298.915	11.52
299.129	11.63
299.342	11.44
299.555	10.45
299.769	11.08
299.982	10.6
300.195	10.8
300.409	11.2
300.622	11.04
300.835	11.21
301.048	9.66
301.262	8.76
301.475	8.24
301.688	8.23
301.901	9.16
302.115	8.93
302.328	8.35
302.541	8.99
302.754	8.19
302.967	7.65
303.18	8
303.393	7.36
303.607	7.59
303.82	8.05
304.033	7.45
304.246	7.38
304.459	7.26
304.672	7.69
304.885	7.38
305.098	8.17
305.311	8.99
305.524	9.08
305.737	9.83
305.95	11.18
306.163	10.06
306.376	10.44
306.589	10.62
306.802	10.15
307.015	9.31
307.228	11.1
307.44	10.63
307.653	9.72
307.866	10.16
308.079	9.48
308.292	8.29
308.505	8.81
308.718	9.02
308.93	9.2
309.143	10.23
309.356	10.14
309.569	8.97
309.781	10.12
309.994	9.38
310.207	8.75
310.42	8.41
310.632	7.87
310.845	8.37
311.058	8.16
311.27	7.29
311.483	6.44
311.696	6.93
311.908	7.03
312.121	6.5
312.333	7.52
312.546	7.97
312.759	8.22
312.971	9.21
313.184	9.24
313.396	9.52
313.609	10.57
313.821	11.55
314.034	11.99
314.246	11.51
314.459	11.65
314.671	12.19
314.884	11.78
315.096	12.18
315.309	12.06
315.521	11.96
315.733	11.45
315.946	10.36
316.158	9.62
316.371	8.16
316.583	9.03
316.795	9.35
317.008	10.02
317.22	10.63
317.432	12
317.644	11.35
317.857	10.98
318.069	11.91
318.281	12.74
318.494	12.77
318.706	13.27
318.918	12.68
319.13	12.79
319.342	12.16
319.555	10.56
319.767	9.65
319.979	9.46
320.191	10.19
320.403	10.32
320.615	10.89
320.827	9.71
321.039	11.03
321.252	10.89
321.464	9.65
321.676	9.87
321.888	11.85
322.1	12.04
322.312	13.06
322.524	12.53
322.736	11.45
322.948	11.09
323.16	12.21
323.372	10.93
323.584	11.37
323.796	11.83
324.007	11.48
324.219	11.81
324.431	12.42
324.643	11.89
324.855	12.51
325.067	13.67
325.279	13.83
325.491	14.35
325.702	15.08
325.914	14.59
326.126	15.02
326.338	14.89
326.55	13.23
326.761	12.63
326.973	13.07
327.185	11.99
327.396	10.61
327.608	10.81
327.82	10.37
328.032	10.56
328.243	10.5
328.455	10.52
328.666	11.6
328.878	12.14
329.09	13.05
329.301	12.66
329.513	13.85
329.725	16.18
329.936	15.68
330.148	16.35
330.359	16.22
330.571	15.99
330.782	15.66
330.994	14.92
331.205	14.5
331.417	13.77
331.628	14.09
331.84	15.31
332.051	14.69
332.262	15.13
332.474	14.52
332.685	15.25
332.897	16.01
333.108	16.21
333.319	15.71
333.531	16.14
333.742	15.4
333.953	15.17
334.165	13.52
334.376	12.85
334.587	12.79
334.799	13.12
335.01	13.45
335.221	12.96
335.432	11.96
335.644	12.48
335.855	12.99
336.066	12.94
336.277	13.32
336.488	14.31
336.7	14.72
336.911	15.04
337.122	14.61
337.333	14.57
337.544	15.35
337.755	15.87
337.966	15.65
338.177	16.07
338.388	16.8
338.599	17.2
338.811	16.55
339.022	15.81
339.233	15.38
339.444	15.52
339.655	15.39
339.866	15.93
340.076	15.42
340.287	15.49
340.498	14.99
340.709	15.32
340.92	14.56
341.131	14.76
341.342	14.64
341.553	14.64
341.764	15.02
341.975	15.08
342.185	14.19
342.396	15.02
342.607	15.5
342.818	16.5
343.029	15.27
343.239	15.62
343.45	16.19
343.661	17.08
343.872	17.2
344.082	17.34
344.293	17.01
344.504	16.82
344.714	16.61
344.925	16.55
345.136	15.87
345.346	16.52
345.557	16.09
345.768	16.08
345.978	15.3
346.189	15.76
346.399	15.75
346.61	15.55
346.821	15.96
347.031	16.37
347.242	16.01
347.452	16.62
347.663	16.43
347.873	16.46
348.084	15.69
348.294	17.09
348.504	16.87
348.715	16.66
348.925	16.74
349.136	16.86
349.346	16.68
349.557	16.73
349.767	15.93
349.977	16.12
350.188	16.82
350.398	17.66
350.608	16.68
350.819	16.77
351.029	16.75
351.239	17.29
351.449	17.1
351.66	16.96
351.87	17.09
352.08	17.39
352.29	18.15
352.501	17.51
352.711	17.5
352.921	17.66
353.131	17.51
353.341	17.18
353.552	16.54
353.762	16.18
353.972	15.75
354.182	16.37
354.392	16.24
354.602	15.93
354.812	16.07
355.022	15.99
355.232	15.73
355.442	15.12
355.652	15.43
355.862	15.83
356.072	16.22
356.282	17.16
356.492	16.38
356.702	16.29
356.912	16.44
357.122	16.48
357.332	15.81
357.542	15.95
357.752	15.81
357.962	15.39
358.171	15.01
358.381	14.43
358.591	13.2
358.801	13.42
359.011	12.89
359.221	12.73
359.43	12.69
359.64	12.87
359.85	12.5
360.06	12.95
360.269	13.37
360.479	13.26
360.689	13.41
360.899	13.96
361.108	13.6
361.318	13.72
361.528	13.44
361.737	13.73
361.947	13.51
362.156	13.94
362.366	13.9
362.576	13.39
362.785	13.56
362.995	13.96
363.204	13.67
363.414	13.79
363.623	13.79
363.833	13.71
364.042	13.24
364.252	13.13
364.461	12.46
364.671	12.3
364.88	12.82
365.09	12.7
365.299	12.01
365.509	12.02
365.718	12.25
365.927	12.68
366.137	13.52
366.346	13.77
366.555	13.73
366.765	14.34
366.974	14.55
367.183	14.71
367.393	14.74
367.602	15.25
367.811	15.97
368.021	15.4
368.23	15.61
368.439	15.07
368.648	14.97
368.857	15.26
369.067	15.28
369.276	15.17
369.485	15.13
369.694	14.52
369.903	14.21
370.112	13.78
370.321	14.2
370.531	13.49
370.74	13
370.949	12.81
371.158	13.23
371.367	12.92
371.576	13
371.785	12.53
371.994	12.86
372.203	12.85
372.412	13
372.621	12.99
372.83	13.34
373.039	13.66
373.248	13.66
373.457	13.5
373.666	13.23
373.874	12.85
374.083	13.12
374.292	13.22
374.501	13.38
374.71	13.01
374.919	13.02
375.128	12.94
375.336	12.92
375.545	13.03
375.754	12.9
375.963	12.71
376.171	12.71
376.38	13.01
376.589	13.21
376.798	12.86
377.006	12.72
377.215	12.9
377.424	12.41
377.632	12.2
377.841	12.47
378.05	12.54
378.258	12.73
378.467	12.75
378.675	12.05
378.884	11.59
379.093	11.84
379.301	11.97
379.51	11.63
379.718	11.81
379.927	11.65
380.135	11.16
380.344	10.76
380.552	11.14
380.761	11.1
380.969	11.46
381.177	11.66
381.386	11.32
381.594	11.5
381.803	10.98
382.011	11.38
382.219	11.37
382.428	11.48
382.636	11.59
382.845	11.26
383.053	11.35
383.261	11.33
383.469	11.4
383.678	11.69
383.886	11.25
384.094	11.5
384.302	11.29
384.511	11.21
384.719	11.12
384.927	11.28
385.135	11.42
385.343	11.43
385.552	11.41
385.76	11.52
385.968	11.48
386.176	11.64
386.384	11.66
386.592	11.57
386.8	12.03
387.008	11.93
387.216	11.83
387.424	11.72
387.633	11.88
387.841	11.86
388.049	11.77
388.257	11.74
388.465	11.82
388.672	11.97
388.88	12.08
389.088	12.12
389.296	12.41
389.504	12.67
389.712	12.92
389.92	12.98
390.128	13.07
390.336	12.93
390.544	12.72
390.751	12.51
390.959	12.51
391.167	12.2
391.375	12.04
391.583	11.88
391.79	11.43
391.998	11.35
392.206	11.25
392.414	10.85
392.621	10.8
392.829	10.84
393.037	10.74
393.244	10.74
393.452	10.64
393.66	10.36
393.867	10.39
394.075	10.37
394.283	10.1
394.49	10.06
394.698	10.33
394.905	10.24
395.113	10.49
395.32	10.62
395.528	10.57
395.735	10.94
395.943	10.93
396.15	10.8
396.358	10.86
396.565	10.55
396.773	10.14
396.98	10.16
397.188	10.49
397.395	10.44
397.602	10.59
397.81	10.58
398.017	10.55
398.225	10.64
398.432	10.79
398.639	10.86
398.847	11.43
399.054	11.22
399.261	11.03
399.468	10.78
399.676	10.71
399.883	10.46
400.09	10.23
400.297	10.24
400.505	10.03
400.712	9.68
400.919	9.48
401.126	9.21
401.333	10
401.54	10.19
401.748	10.21
401.955	10.11
402.162	10.21
402.369	10.33
402.576	10.07
402.783	10.22
402.99	10.15
403.197	10.25
403.404	10.23
403.611	9.75
403.818	9.4
404.025	9.08
404.232	8.83
404.439	8.72
404.646	8.71
404.853	8.74
405.06	8.89
405.267	9.07
405.474	8.85
405.681	8.66
405.887	8.74
406.094	9.08
406.301	9.4
406.508	9.42
406.715	9.74
406.922	9.78
407.128	10.04
407.335	9.59
407.542	9.47
407.749	9.9
407.955	10.26
408.162	10.43
408.369	10.1
408.575	10.09
408.782	10.16
408.989	10.2
409.195	10.55
409.402	10.32
409.609	10.4
409.815	10.59
410.022	10.36
410.228	9.95
410.435	9.66
410.642	9.73
410.848	9.61
411.055	9.61
411.261	9.12
411.468	9.11
411.674	9.04
411.881	9.22
412.087	9.13
412.294	9.24
412.5	9.45
412.706	9.51
412.913	9.57
413.119	9.71
413.326	9.57
413.532	9.89
413.738	9.62
413.945	9.47
414.151	9.28
414.357	9.35
414.564	9.27
414.77	9.35
414.976	9.64
415.182	9.67
415.389	9.43
415.595	9.6
415.801	9.51
416.007	9.34
416.214	9.46
416.42	9.49
416.626	9.34
416.832	9.17
417.038	9.09
417.244	8.84
417.45	8.97
417.657	8.99
417.863	8.98
418.069	8.83
418.275	8.82
418.481	8.93
418.687	8.88
418.893	9.02
419.099	8.98
419.305	9.07
419.511	9.03
419.717	8.85
419.923	8.79
420.129	8.82
420.335	8.82
420.541	8.8
420.746	8.64
420.952	8.62
421.158	8.53
421.364	8.57
421.57	8.6
421.776	8.61
421.982	8.59
422.187	8.62
422.393	8.49
422.599	8.53
422.805	8.39
423.01	8.48
423.216	8.6
423.422	8.69
423.628	8.65
423.833	8.55
424.039	8.37
424.245	8.25
424.45	8.22
424.656	8.34
424.862	8.28
425.067	8.44
425.273	8.37
425.478	8.36
425.684	8.19
425.889	8.25
426.095	8.24
426.301	8.37
426.506	8.65
426.712	8.6
426.917	8.48
427.123	8.61
427.328	8.61
427.533	8.66
427.739	8.6
427.944	8.55
428.15	8.43
428.355	8.38
428.561	8.41
428.766	7.96
428.971	8.01
429.177	8.1
429.382	7.98
429.587	8.05
429.793	8.04
429.998	7.97
430.203	8.08
430.408	8.26
430.614	8.2
430.819	8.27
431.024	8.35
431.229	8.46
431.434	8.5
431.64	8.58
431.845	8.5
432.05	8.48
432.255	8.73
432.46	8.77
432.665	8.78
432.87	8.81
433.076	8.74
433.281	8.99
433.486	8.91
433.691	8.77
433.896	8.5
434.101	8.5
434.306	8.59
434.511	8.39
434.716	8.26
434.921	8.2
435.126	8.23
435.331	8.22
435.535	8.24
435.74	8.23
435.945	8.26
436.15	8.36
436.355	8.46
436.56	8.41
436.765	8.55
436.97	8.6
437.174	8.54
437.379	8.52
437.584	8.62
437.789	8.47
437.993	8.5
438.198	8.52
438.403	8.67
438.608	8.61
438.812	8.46
439.017	8.27
439.222	8.31
439.426	8.29
439.631	8.27
439.836	8.24
440.04	8.22
440.245	8.29
440.45	8.21
440.654	8.13
440.859	8.04
441.063	8.22
441.268	8.3
441.472	8.44
441.677	8.49
441.881	8.58
442.086	8.65
442.29	8.59
442.495	8.66
442.699	8.71
442.904	8.66
443.108	8.59
443.312	8.44
443.517	8.4
443.721	8.22
443.925	8.22
444.13	8.13
444.334	8.13
444.538	8.16
444.743	7.92
444.947	8.1
445.151	8.17
445.356	8.24
445.56	8.33
445.764	8.41
445.968	8.43
446.173	8.39
446.377	8.31
446.581	8.31
446.785	8.33
446.989	8.39
447.193	8.31
447.398	8.36
447.602	8.42
447.806	8.42
448.01	8.21
448.214	8.17
448.418	8.23
448.622	8.3
448.826	8.29
449.03	8.29
449.234	8.25
449.438	8.14
449.642	8.07
449.846	7.97
450.05	7.85
450.254	7.98
450.458	7.93
450.662	7.84
450.866	7.76
451.069	7.7
451.273	7.59
451.477	7.7
451.681	7.96
451.885	7.95
452.089	7.99
452.292	7.81
452.496	7.83
452.7	7.82
452.904	7.8
453.107	8
453.311	8
453.515	8.01
453.719	7.9
453.922	7.67
454.126	7.78
454.33	7.84
454.533	8.07
454.737	8.11
454.94	7.86
455.144	7.91
455.348	7.72
455.551	7.61
455.755	7.83
455.958	7.81
456.162	8.02
456.365	7.87
456.569	7.78
456.772	7.71
456.976	7.58
457.179	7.89
457.383	7.93
457.586	8.09
457.79	8.19
457.993	8.3
458.196	8.3
458.4	8.22
458.603	8.38
458.807	8.43
459.01	8.51
459.213	8.53
459.417	8.46
459.62	8.49
459.823	8.38
460.026	8.42
460.23	8.24
460.433	8.24
460.636	8.14
460.839	7.91
461.042	7.89
461.246	7.85
461.449	7.92
461.652	7.96
461.855	7.85
462.058	7.88
462.261	7.86
462.464	7.83
462.668	7.77
462.871	7.81
463.074	8
463.277	7.87
463.48	7.81
463.683	7.86
463.886	7.84
464.089	7.8
464.292	7.71
464.495	7.57
464.698	7.59
464.901	7.84
465.104	7.83
465.306	7.73
465.509	7.77
465.712	7.7
465.915	7.77
466.118	7.77
466.321	7.71
466.524	7.84
466.726	7.89
466.929	8.03
467.132	7.82
467.335	7.85
467.538	7.97
467.74	7.93
467.943	7.99
468.146	7.75
468.348	7.7
468.551	7.68
468.754	7.63
468.956	7.63
469.159	7.57
469.362	7.62
469.564	7.62
469.767	7.52
469.969	7.72
470.172	7.96
470.375	7.91
470.577	8.13
470.78	8.21
470.982	8.24
471.185	8.2
471.387	8.32
471.59	8.32
471.792	8.31
471.995	8.27
472.197	8.16
472.399	7.94
472.602	8.15
472.804	8.1
473.007	8.07
473.209	8.04
473.411	8.02
473.614	7.88
473.816	7.9
474.018	8.02
474.22	8.19
474.423	8.25
474.625	8.2
474.827	7.88
475.03	7.86
475.232	7.84
475.434	7.8
475.636	7.77
475.838	7.63
476.04	7.64
476.243	7.61
476.445	7.42
476.647	7.51
476.849	7.55
477.051	7.68
477.253	7.61
477.455	7.65
477.657	7.57
477.859	7.61
478.061	7.67
478.263	7.65
478.465	7.61
478.667	7.73
478.869	7.66
479.071	7.71
479.273	7.75
479.475	7.81
479.677	7.79
479.879	7.86
480.081	7.92
480.283	7.99
480.485	7.97
480.686	7.9
480.888	7.97
481.09	7.84
481.292	7.76
481.494	7.78
481.695	7.74
481.897	7.65
482.099	7.71
482.301	7.65
482.502	7.57
482.704	7.62
482.906	7.65
483.107	7.54
483.309	7.58
483.511	7.57
483.712	7.55
483.914	7.52
484.115	7.55
484.317	7.52
484.519	7.5
484.72	7.55
484.922	7.5
485.123	7.46
485.325	7.43
485.526	7.42
485.728	7.35
485.929	7.34
486.131	7.4
486.332	7.33
486.534	7.28
486.735	7.29
486.936	7.27
487.138	7.28
487.339	7.3
487.541	7.35
487.742	7.39
487.943	7.43
488.144	7.41
488.346	7.32
488.547	7.43
488.748	7.48
488.95	7.49
489.151	7.46
489.352	7.41
489.553	7.44
489.755	7.53
489.956	7.43
490.157	7.47
490.358	7.53
490.559	7.55
490.76	7.51
490.961	7.51
491.163	7.49
491.364	7.52
491.565	7.54
491.766	7.45
491.967	7.34
492.168	7.44
492.369	7.47
492.57	7.51
492.771	7.52
492.972	7.52
493.173	7.62
493.374	7.7
493.575	7.72
493.776	7.73
493.976	7.86
494.177	7.92
494.378	7.88
494.579	7.95
494.78	7.95
494.981	7.96
495.182	7.97
495.382	7.71
495.583	7.61
495.784	7.66
495.985	7.73
496.185	7.66
496.386	7.61
496.587	7.6
496.788	7.59
496.988	7.57
497.189	7.7
497.39	7.71
497.59	7.99
497.791	8.04
497.992	8.01
498.192	8.04
498.393	8.02
498.593	8.09
498.794	8.06
498.994	8.13
499.195	8.13
499.395	8.03
499.596	8.01
499.796	7.78
499.997	7.76
500.197	7.83
500.398	7.89
500.598	8.07
500.799	8.19
500.999	8.27
501.199	8.05
501.4	8.1
501.6	8.13
501.801	8.22
502.001	8.36
502.201	8.58
502.402	8.74
502.602	8.66
502.802	8.55
503.002	8.5
503.203	8.53
503.403	8.65
503.603	8.6
503.803	8.53
504.003	8.4
504.204	8.5
504.404	8.52
504.604	8.35
504.804	8.5
505.004	8.49
505.204	8.48
505.404	8.58
505.604	8.52
505.804	8.45
506.005	8.52
506.205	8.63
506.405	8.45
506.605	8.44
506.805	8.55
507.005	8.48
507.204	8.54
507.404	8.61
507.604	8.63
507.804	8.85
508.004	9.13
508.204	9.2
508.404	9.34
508.604	9.51
508.804	9.45
509.003	9.4
509.203	9.47
509.403	9.64
509.603	9.63
509.803	9.62
510.002	9.62
510.202	9.68
510.402	9.78
510.602	9.72
510.801	9.64
511.001	9.77
511.201	9.74
511.4	9.6
511.6	9.52
511.8	9.44
511.999	9.52
512.199	9.43
512.398	9.36
512.598	9.47
512.797	9.52
512.997	9.67
513.197	9.56
513.396	9.64
513.596	9.76
513.795	9.84
513.994	10.13
514.194	10.17
514.393	10.32
514.593	10.32
514.792	10.27
514.992	10.4
515.191	10.54
515.39	10.7
515.59	10.7
515.789	10.92
515.988	10.89
516.188	10.91
516.387	10.95
516.586	10.91
516.786	10.98
516.985	11.01
517.184	11.07
517.383	11.03
517.582	11
517.782	11.09
517.981	11.01
518.18	11.05
518.379	11.05
518.578	11.03
518.777	11.09
518.976	11.1
519.176	11.09
519.375	11.03
519.574	11.14
519.773	11.21
519.972	11.19
520.171	11.27
520.37	11.44
520.569	11.53
520.768	11.64
520.967	11.79
521.166	11.92
521.365	12.01
521.564	12.17
521.762	12.07
521.961	12.16
522.16	12.35
522.359	12.43
522.558	12.42
522.757	12.42
522.956	12.59
523.154	12.64
523.353	12.58
523.552	12.66
523.751	12.67
523.949	12.76
524.148	12.88
524.347	12.79
524.546	12.82
524.744	12.85
524.943	13
525.142	13.05
525.34	12.98
525.539	13.04
525.737	13.07
525.936	13.19
526.135	13.18
526.333	13.16
526.532	13.26
526.73	13.34
526.929	13.42
527.127	13.47
527.326	13.43
527.524	13.53
527.723	13.57
527.921	13.68
528.12	13.69
528.318	13.77
528.516	13.79
528.715	13.78
528.913	13.81
529.112	13.81
529.31	13.74
529.508	13.82
529.707	13.82
529.905	13.93
530.103	13.87
530.301	13.86
530.5	13.84
530.698	13.88
530.896	13.89
531.094	14
531.293	14.05
531.491	14.18
531.689	14.19
531.887	14.3
532.085	14.3
532.283	14.41
532.481	14.44
532.68	14.5
532.878	14.59
533.076	14.73
533.274	14.72
533.472	14.74
533.67	14.75
533.868	14.85
534.066	14.93
534.264	14.92
534.462	14.92
534.66	15.05
534.858	15.08
535.056	15.02
535.253	14.99
535.451	15
535.649	15.08
535.847	15.18
536.045	15.16
536.243	15.12
536.441	15.19
536.638	15.33
536.836	15.39
537.034	15.49
537.232	15.64
537.43	15.74
537.627	15.8
537.825	15.75
538.023	15.66
538.22	15.69
538.418	15.72
538.616	15.79
538.813	15.94
539.011	15.92
539.209	16.03
539.406	16.13
539.604	16.3
539.801	16.47
539.999	16.66
540.196	16.95
540.394	16.98
540.591	17.04
540.789	17.16
540.986	17.09
541.184	17.14
541.381	17.16
541.579	17.18
541.776	17.23
541.974	17.16
542.171	17.17
542.368	17.14
542.566	17.17
542.763	17.14
542.96	17.11
543.158	17.15
543.355	17.2
543.552	17.21
543.75	17.25
543.947	17.26
544.144	17.38
544.341	17.5
544.539	17.56
544.736	17.55
544.933	17.68
545.13	17.72
545.327	17.83
545.524	17.97
545.722	18.14
545.919	18.15
546.116	18.18
546.313	18.25
546.51	18.3
546.707	18.43
546.904	18.64
547.101	18.73
547.298	18.81
547.495	18.73
547.692	18.7
547.889	18.75
548.086	18.87
548.283	18.92
548.48	18.96
548.677	18.91
548.874	18.85
549.07	18.75
549.267	18.93
549.464	19
549.661	19.28
549.858	19.28
550.055	19.1
550.251	19.24
550.448	19.34
550.645	19.33
550.842	19.48
551.038	19.76
551.235	20.01
551.432	19.87
551.628	19.9
551.825	19.88
552.022	20.06
552.218	20.31
552.415	20.41
552.612	20.53
552.808	20.76
553.005	20.76
553.201	20.59
553.398	20.59
553.594	20.73
553.791	20.89
553.987	20.86
554.184	20.9
554.38	20.9
554.577	20.84
554.773	20.78
554.97	20.9
555.166	21.03
555.362	21.16
555.559	21.38
555.755	21.47
555.952	21.53
556.148	21.63
556.344	21.78
556.541	21.83
556.737	21.89
556.933	22.17
557.129	22.14
557.326	22.18
557.522	22.42
557.718	22.5
557.914	22.45
558.11	22.42
558.307	22.64
558.503	22.57
558.699	22.67
558.895	22.68
559.091	22.73
559.287	22.68
559.483	22.89
559.679	22.92
559.876	22.86
560.072	23.33
560.268	23.55
560.464	23.55
560.66	23.59
560.856	23.89
561.052	24.2
561.247	24.13
561.443	24.58
561.639	24.47
561.835	24.37
562.031	24.48
562.227	24.29
562.423	24.4
562.619	24.53
562.815	24.71
563.01	24.53
563.206	24.5
563.402	24.49
563.598	24.28
563.793	24.33
563.989	24.61
564.185	24.71
564.381	24.9
564.576	24.91
564.772	24.91
564.968	24.93
565.163	25.11
565.359	25.09
565.555	25.09
565.75	25.26
565.946	25.46
566.141	25.46
566.337	25.58
566.532	25.6
566.728	25.65
566.923	25.8
567.119	25.93
567.314	26.06
567.51	26.16
567.705	26.4
567.901	26.29
568.096	26.23
568.292	26.22
568.487	26.35
568.682	26.44
568.878	26.6
569.073	26.59
569.268	26.57
569.464	26.64
569.659	26.71
569.854	26.97
570.05	26.97
570.245	27.18
570.44	27.39
570.635	27.24
570.831	27.2
571.026	27.26
571.221	27.4
571.416	27.65
571.611	27.61
571.806	27.63
572.002	27.6
572.197	27.79
572.392	27.84
572.587	27.8
572.782	28.03
572.977	28.1
573.172	28.13
573.367	28.14
573.562	27.94
573.757	28.14
573.952	28.27
574.147	28.27
574.342	28.4
574.537	28.63
574.732	28.83
574.927	28.73
575.121	28.79
575.316	28.83
575.511	28.94
575.706	29.15
575.901	29.22
576.096	29.24
576.29	29.38
576.485	29.41
576.68	29.38
576.875	29.39
577.069	29.51
577.264	29.45
577.459	29.49
577.654	29.64
577.848	29.8
578.043	29.66
578.238	29.77
578.432	29.69
578.627	29.65
578.821	29.52
579.016	29.41
579.21	29.6
579.405	29.9
579.6	29.83
579.794	29.61
579.989	29.41
580.183	29.7
580.378	29.73
580.572	29.64
580.766	29.77
580.961	29.94
581.155	30.18
581.35	30.02
581.544	30.11
581.738	30.2
581.933	30.46
582.127	30.69
582.321	30.58
582.516	30.37
582.71	30.8
582.904	30.87
583.099	30.59
583.293	30.74
583.487	30.78
583.681	30.68
583.875	30.87
584.07	30.78
584.264	30.86
584.458	31.11
584.652	31.62
584.846	31.44
585.04	31.43
585.234	31.98
585.428	32.02
585.623	32.16
585.817	32.32
586.011	32.4
586.205	32.61
586.399	32.73
586.593	32.47
586.787	32.37
586.981	32.4
587.174	32.63
587.368	32.75
587.562	32.74
587.756	32.91
587.95	33.01
588.144	32.98
588.338	33.03
588.532	32.73
588.725	33.07
588.919	33.2
589.113	33.31
589.307	33.27
589.501	33.19
589.694	33.21
589.888	33
590.082	32.92
590.275	32.96
590.469	32.81
590.663	33.02
590.856	32.98
591.05	33.16
591.244	33.31
591.437	33.37
591.631	33.25
591.824	33.37
592.018	33.64
592.212	33.69
592.405	33.83
592.599	34.35
592.792	34.56
592.986	34.69
593.179	34.56
593.372	34.55
593.566	34.71
593.759	35.12
593.953	35.03
594.146	34.92
594.339	35.15
594.533	35.17
594.726	35.21
594.92	35.24
595.113	35.23
595.306	35.3
595.499	35.27
595.693	35.2
595.886	34.99
596.079	35.09
596.272	35.19
596.466	35.15
596.659	35.19
596.852	34.99
597.045	35.1
597.238	35.05
597.431	35.01
597.624	35.25
597.818	35.31
598.011	35.42
598.204	35.49
598.397	35.48
598.59	35.42
598.783	35.36
598.976	35.4
599.169	35.39
599.362	35.43
599.555	35.48
599.748	35.31
599.941	35.36
600.134	35.37
600.326	35.37
600.519	35.31
600.712	35.2
600.905	35.38
601.098	35.7
601.291	35.5
601.483	35.32
601.676	35.5
601.869	35.61
602.062	35.39
602.255	35.35
602.447	35.28
602.64	35.54
602.833	35.82
603.025	35.92
603.218	35.67
603.411	35.82
603.603	36.14
603.796	35.94
603.989	35.83
604.181	36.15
604.374	36.15
604.566	36.13
604.759	36.18
604.951	36.25
605.144	36.2
605.336	36.28
605.529	36.19
605.721	36.23
605.914	36.42
606.106	36.56
606.299	36.51
606.491	36.72
606.683	36.97
606.876	37.11
607.068	37.06
607.26	37.41
607.453	37.47
607.645	37.68
607.837	37.53
608.03	37.4
608.222	37.61
608.414	37.43
608.606	37.38
608.799	37.24
608.991	37.08
609.183	36.96
609.375	36.75
609.567	36.82
609.759	36.87
609.952	36.86
610.144	37.04
610.336	36.79
610.528	37.02
610.72	37.05
610.912	37.01
611.104	36.96
611.296	37.06
611.488	37.28
611.68	37.41
611.872	37.47
612.064	37.78
612.256	37.93
612.448	37.88
612.64	37.88
612.832	37.89
613.023	38.16
613.215	38.35
613.407	38.61
613.599	38.56
613.791	38.45
613.983	38.31
614.174	38.27
614.366	37.99
614.558	38.33
614.75	38.24
614.941	38.41
615.133	38.46
615.325	38.43
615.516	38.37
615.708	38.04
615.9	38.09
616.091	37.93
616.283	37.51
616.475	37.63
616.666	37.5
616.858	37.66
617.049	37.37
617.241	37.24
617.432	37.38
617.624	37.25
617.815	37.61
618.007	37.48
618.198	37.72
618.39	38.01
618.581	37.95
618.773	38.16
618.964	38.15
619.155	38.09
619.347	38.12
619.538	38.21
619.729	38.55
619.921	38.35
620.112	38.16
620.303	37.98
620.494	37.95
620.686	38.12
620.877	37.81
621.068	37.73
621.259	37.95
621.451	37.9
621.642	37.58
621.833	37.27
622.024	37.36
622.215	37.73
622.406	38.02
622.597	38.02
622.788	38.09
622.98	38.35
623.171	38.64
623.362	38.72
623.553	39.28
623.744	39.73
623.935	40.15
624.126	40.13
624.317	40.07
624.508	40.04
624.698	40.17
624.889	40.09
625.08	40.1
625.271	39.96
625.462	39.96
625.653	39.81
625.844	39.5
626.034	39.37
626.225	39.4
626.416	39.46
626.607	39.65
626.798	39.74
626.988	39.93
627.179	40.28
627.37	40.28
627.56	40.26
627.751	40.18
627.942	40.27
628.132	40.28
628.323	40.42
628.514	40.49
628.704	40.29
628.895	40.3
629.085	40.2
629.276	39.65
629.466	39.76
629.657	39.85
629.847	39.88
630.038	39.83
630.228	39.83
630.419	39.89
630.609	39.62
630.8	39.87
630.99	39.65
631.181	39.86
631.371	40.25
631.561	40.17
631.752	40.4
631.942	40.5
632.132	40.59
632.323	40.86
632.513	40.55
632.703	41.1
632.893	41.08
633.084	41.13
633.274	41.21
633.464	40.93
633.654	40.6
633.844	40.5
634.034	40.3
634.225	40.52
634.415	40.33
634.605	40.53
634.795	40.33
634.985	40.45
635.175	40.33
635.365	40.02
635.555	40.25
635.745	40.59
635.935	40.48
636.125	40.8
636.315	40.75
636.505	40.85
636.695	40.58
636.885	40.37
637.075	40.4
637.265	40.84
637.455	41.04
637.644	41.17
637.834	41.18
638.024	41.26
638.214	41.26
638.404	40.99
638.593	40.71
638.783	40.99
638.973	41.15
639.163	40.87
639.352	41.14
639.542	41.07
639.732	40.77
639.921	40.81
640.111	40.98
640.301	41
640.49	41.22
640.68	41.86
640.87	41.89
641.059	41.8
641.249	41.85
641.438	41.44
641.628	41.54
641.817	41.67
642.007	41.82
642.196	41.46
642.386	41.09
642.575	41.31
642.764	40.98
642.954	41.05
643.143	41.38
643.333	41.52
643.522	41.58
643.711	41.24
643.901	41.2
644.09	40.97
644.279	41.39
644.469	41.71
644.658	41.36
644.847	41.09
645.036	41.48
645.226	41.29
645.415	41.1
645.604	41.31
645.793	41.45
645.982	41.45
646.171	41.61
646.361	41.39
646.55	41.18
646.739	41.57
646.928	42.01
647.117	41.56
647.306	41.69
647.495	42.06
647.684	42.16
647.873	42.5
648.062	42.78
648.251	42.9
648.44	43.13
648.629	43.15
648.818	43.23
649.007	42.98
649.196	43.04
649.384	42.93
649.573	42.57
649.762	42.73
649.951	42.62
650.14	42.93
650.328	42.78
650.517	42.74
650.706	43.05
650.895	42.82
651.083	42.86
651.272	43.04
651.461	43.13
651.65	43.28
651.838	42.77
652.027	42.45
652.216	42.12
652.404	42.4
652.593	42.3
652.781	42.3
652.97	42.51
653.158	42.58
653.347	42.77
653.535	42.71
653.724	42.78
653.912	42.89
654.101	43.34
654.289	43.19
654.478	43.04
654.666	43
654.855	42.49
655.043	42.13
655.231	42.17
655.42	41.99
655.608	42.28
655.796	42.51
655.985	42.76
656.173	42.63
656.361	43.15
656.55	43.26
656.738	43.61
656.926	44.23
657.114	44.55
657.302	44.75
657.491	44.78
657.679	44.7
657.867	44.3
658.055	44.46
658.243	44.38
658.431	44.2
658.619	44.31
658.807	44.2
658.996	44.43
659.184	44.46
659.372	44.18
659.56	44.11
659.748	44.09
659.936	44.19
660.124	43.86
660.311	43.95
660.499	43.72
660.687	43.8
660.875	43.85
661.063	43.46
661.251	43.45
661.439	43.51
661.627	43.44
661.814	43.35
662.002	43.28
662.19	43.48
662.378	43.45
662.565	43.78
662.753	43.39
662.941	43.44
663.129	43.36
663.316	43.46
663.504	43.92
663.692	44.11
663.879	44.33
664.067	44.86
664.254	45.19
664.442	45.53
664.63	45.6
664.817	45.88
665.005	45.73
665.192	46.16
665.38	45.68
665.567	45.31
665.755	45.06
665.942	44.83
666.13	44.83
666.317	44.81
666.504	44.27
666.692	43.93
666.879	43.72
667.067	43.86
667.254	43.61
667.441	44.02
667.629	44.16
667.816	44.21
668.003	44.12
668.19	43.72
668.378	43.43
668.565	43.97
668.752	44.26
668.939	44.32
669.127	44.42
669.314	44.52
669.501	44.17
669.688	44.64
669.875	44.69
670.062	45.04
670.249	45.38
670.436	45.68
670.623	45.71
670.81	45.73
670.997	45.72
671.184	45.77
671.371	45.64
671.558	46.29
671.745	45.94
671.932	46.61
672.119	46.51
672.306	46.47
672.493	46.06
672.68	45.82
672.867	45.89
673.054	45.72
673.24	45.51
673.427	45.79
673.614	45.65
673.801	45.16
673.988	44.37
674.174	44.01
674.361	43.75
674.548	44.23
674.734	44.25
674.921	44.27
675.108	44.54
675.294	44.45
675.481	44.54
675.668	44.49
675.854	45.28
676.041	45.79
676.227	46.24
676.414	47.23
676.601	47.25
676.787	47.27
676.974	46.96
677.16	47.05
677.347	47.34
677.533	47.38
677.719	47.04
677.906	46.65
678.092	46.99
678.279	47.19
678.465	46.69
678.651	46.83
678.838	46.85
679.024	47
679.21	47.06
679.397	46.92
679.583	46.93
679.769	47.07
679.955	47.14
680.142	46.72
680.328	46.75
680.514	46.78
680.7	46.77
680.886	46.88
681.073	46.95
681.259	46.79
681.445	47
681.631	46.86
681.817	46.62
682.003	46.58
682.189	46.66
682.375	47.19
682.561	47.15
682.747	47.02
682.933	47.08
683.119	47.35
683.305	47.82
683.491	47.71
683.677	47.81
683.863	48.15
684.049	48.4
684.235	48.59
684.42	48.02
684.606	47.83
684.792	47.64
684.978	47.83
685.164	47.58
685.349	47.34
685.535	47.42
685.721	46.9
685.907	47.21
686.092	47.51
686.278	47.59
686.464	47.67
686.649	48.04
686.835	47.86
687.021	47.69
687.206	47.51
687.392	47.58
687.577	47.84
687.763	48.48
687.948	48.21
688.134	47.56
688.319	47.48
688.505	47.4
688.69	47.27
688.876	47.47
689.061	47.23
689.247	47.43
689.432	47.39
689.618	47.32
689.803	47.39
689.988	47.62
690.174	48.42
690.359	48.4
690.544	48.63
690.73	48.38
690.915	48.92
691.1	49.38
691.285	49.72
691.471	49.91
691.656	49.59
691.841	49.45
692.026	49.52
692.211	48.82
692.396	48.33
692.582	48.01
692.767	48.34
692.952	47.8
693.137	47.81
693.322	47.35
693.507	47.32
693.692	47.74
693.877	47.8
694.062	47.76
694.247	47.98
694.432	48.38
694.617	47.92
694.802	47.35
694.987	47.62
695.172	47.46
695.357	47.56
695.541	47.42
695.726	46.9
695.911	47.02
696.096	46.82
696.281	47.29
696.466	47.23
696.65	47.41
696.835	47.68
697.02	47.53
697.204	47.29
697.389	47.8
697.574	47.96
697.759	48.04
697.943	47.8
698.128	48.04
698.312	47.78
698.497	47.4
698.682	47.56
698.866	47.63
699.051	48.11
699.235	48.55
699.42	48.31
699.604	48.44
699.789	48.86
699.973	48.96
700.158	48.92
700.342	48.79
700.527	48.96
700.711	49.24
700.895	49.86
701.08	49.45
701.264	49.12
701.448	49.13
701.633	48.94
701.817	48.6
702.001	48.83
702.186	48.77
702.37	48.68
702.554	48.94
702.738	49.15
702.923	48.87
703.107	49.19
703.291	49.07
703.475	48.75
703.659	48.63
703.843	48.34
704.027	48
704.212	48.08
704.396	48.88
704.58	49.17
704.764	48.68
704.948	48.45
705.132	48.53
705.316	48.95
705.5	49.28
705.684	49.65
705.868	50.19
706.052	50.24
706.235	50.03
706.419	49.77
706.603	49.68
706.787	49.69
706.971	49.58
707.155	48.66
707.339	48.03
707.522	47.65
707.706	47.34
707.89	47.77
708.074	47.95
708.257	48.26
708.441	48.38
708.625	48.8
708.808	48.91
708.992	48.77
709.176	49.15
709.359	49.19
709.543	49.66
709.727	49.59
709.91	48.95
710.094	48.35
710.277	48.12
710.461	48.06
710.644	47.81
710.828	47.47
711.011	47.9
711.195	48.24
711.378	48.37
711.562	48.6
711.745	48.75
711.928	49.24
712.112	49.73
712.295	49.79
712.478	49.51
712.662	49.81
712.845	50.11
713.028	50.19
713.212	50.49
713.395	50.45
713.578	50.6
713.761	50.22
713.945	50.25
714.128	50.14
714.311	49.94
714.494	49.74
714.677	49.43
714.86	49.68
715.043	49.31
715.227	48.99
715.41	49.51
715.593	49.41
715.776	49.77
715.959	48.89
716.142	49.41
716.325	49.16
716.508	48.86
716.691	48.88
716.874	49.04
717.057	48.54
717.239	48.64
717.422	48.64
717.605	48.31
717.788	48.09
717.971	48.83
718.154	48
718.337	48.74
718.519	49.53
718.702	49.42
718.885	48.81
719.068	49.94
719.25	49.85
719.433	49.75
719.616	49.48
719.798	49.74
719.981	49.58
720.164	50.12
720.346	50.26
720.529	50.36
720.712	50.93
720.894	51.4
721.077	50.82
721.259	50.35
721.442	50.14
721.624	50.76
721.807	50.08
721.989	50.84
722.172	50.53
722.354	50.28
722.537	50.41
722.719	50.31
722.901	50.59
723.084	50.68
723.266	51.03
723.448	51.74
723.631	51.81
723.813	52.46
723.995	51.35
724.178	50.54
724.36	50.8
724.542	50.25
724.724	50.09
724.907	50.06
725.089	49.66
725.271	50.45
725.453	49.49
725.635	49.42
725.817	49.55
725.999	50.78
726.181	51.69
726.364	50.87
726.546	50.67
726.728	50.76
726.91	51.03
727.092	51.86
727.274	50.85
727.456	51.38
727.638	50.92
727.819	50.55
728.001	50.05
728.183	50.2
728.365	50.11
728.547	50.26
728.729	49.58
728.911	49.15
729.093	48.27
729.274	48.41
729.456	47.97
729.638	48.01
729.82	48.57
730.001	48
730.183	47.85
730.365	47.99
730.546	48.18
730.728	48.66
730.91	49.7
731.091	49.81
731.273	50.1
731.455	50.19
731.636	50.75
731.818	50.71
731.999	51.12
732.181	51.65
732.362	51.86
732.544	52.26
732.725	52.62
732.907	51.78
733.088	52.63
733.27	53.3
733.451	53.07
733.633	52.23
733.814	52.81
733.995	53.08
734.177	52.73
734.358	52.84
734.539	52.76
734.721	53.06
734.902	52.7
735.083	52.32
735.264	51.25
735.446	51.61
735.627	51.87
735.808	50.02
735.989	49.81
736.17	50.12
736.351	51.26
736.533	51.36
736.714	50.74
736.895	51.06
737.076	51.25
737.257	51.85
737.438	51.53
737.619	51.96
737.8	52.6
737.981	52.27
738.162	51.64
738.343	50.87
738.524	51.1
738.705	50.6
738.886	49.68
739.067	49.85
739.247	49.52
739.428	49.93
739.609	49.82
739.79	50.54
739.971	50.32
740.151	50.83
740.332	50.11
740.513	49.31
740.694	49.91
740.874	50.5
741.055	50.76
741.236	51.08
741.417	51.6
741.597	51.84
741.778	52.15
741.958	52.41
742.139	52.89
742.32	54.03
742.5	54.3
742.681	54.23
742.861	53.55
743.042	53.22
743.222	53.44
743.403	52.17
743.583	51.72
743.764	51.02
743.944	50.99
744.124	50.19
744.305	50.58
744.485	50.78
744.666	50
744.846	51.01
745.026	50.48
745.207	50.17
745.387	51.54
745.567	51.77
745.747	51.82
745.928	52.18
746.108	52.37
746.288	51.65
746.468	50.38
746.648	51.25
746.829	51.21
747.009	51.26
747.189	51.02
747.369	49.76
747.549	49.6
747.729	50.12
747.909	49.85
748.089	50.18
748.269	49
748.449	49.62
748.629	49.86
748.809	49.68
748.989	49.06
749.169	48.78
749.349	49.56
749.529	49.68
749.709	49.58
749.889	49.48
750.068	49
750.248	49.68
750.428	49.61
750.608	49.26
750.788	48.95
750.967	49.23
751.147	50.22
751.327	50.15
751.507	51.34
751.686	51.11
751.866	51.24
752.046	51
752.225	52.28
752.405	53.01
752.585	53.74
752.764	54.26
752.944	53.81
753.123	53.06
753.303	52.28
753.482	51.61
753.662	50.49
753.841	50.34
754.021	50.58
754.2	49.5
754.38	50.22
754.559	49.2
754.739	49.16
754.918	50.17
755.097	49.89
755.277	50.38
755.456	51.03
755.635	51.77
755.815	52.02
755.994	52.48
756.173	52.25
756.352	51.04
756.532	51.93
756.711	52.05
756.89	52.2
757.069	51.98
757.248	51.69
757.427	50.58
757.607	50.54
757.786	51.15
757.965	50.79
758.144	52.13
758.323	51.44
758.502	50.36
758.681	50.64
758.86	50.49
759.039	50.61
759.218	50.83
759.397	51.61
759.576	51.78
759.755	51.7
759.934	52.56
760.113	51.79
760.291	53.6
760.47	54.3
760.649	53.01
760.828	52.34
761.007	53.57
761.186	52.63
761.364	51.7
761.543	51.84
761.722	50.44
761.901	49.81
762.079	49.67
762.258	48.85
762.437	48.95
762.615	49.93
762.794	50.89
762.972	50.73
763.151	52.21
763.33	52.64
763.508	52.44
763.687	52.99
763.865	52.51
764.044	51.89
764.222	51.69
764.401	51.7
764.579	51.7
764.758	51.5
764.936	50.8
765.114	50.48
765.293	50.16
765.471	50.83
765.65	51.12
765.828	51.36
766.006	52.65
766.184	53.55
766.363	53.49
766.541	53.47
766.719	53.06
766.898	53.81
767.076	53.34
767.254	53.69
767.432	52.64
767.61	52.77
767.788	53.89
767.967	52.87
768.145	52.68
768.323	52.56
768.501	52.2
768.679	52.59
768.857	52.22
769.035	53.08
769.213	52.33
769.391	52.5
769.569	52.25
769.747	51.3
769.925	51.58
770.103	51.23
770.281	50.97
770.459	51.4
770.636	51.04
770.814	49.71
770.992	49.03
771.17	50.2
771.348	50.76
771.525	51.44
771.703	51.41
771.881	51.42
772.059	51.03
772.236	49.4
772.414	48.9
772.592	49.52
772.769	51.55
772.947	52.95
773.125	51.84
773.302	51.99
773.48	51.7
773.657	51.62
773.835	51.05
774.013	53
774.19	56.03
774.368	56.66
774.545	56.57
774.723	54.73
774.9	53.21
775.077	53.54
775.255	52.97
775.432	52.19
775.61	51.19
775.787	52.8
775.964	50.26
776.142	49.8
776.319	50.95
776.496	50.42
776.674	51.58
776.851	51.28
777.028	51.62
777.205	52.18
777.382	51.61
777.56	53.62
777.737	52.87
777.914	53.07
778.091	52.35
778.268	51.23
778.445	50.44
778.622	50.14
778.8	52.19
778.977	52.04
779.154	56.91
779.331	57.23
779.508	56.33
779.685	56.8
779.862	58.09
780.038	58.59
780.215	59.22
780.392	60.62
780.569	61.01
780.746	58.81
780.923	58.37
781.1	54.99
781.277	56.07
781.453	54.66
781.63	54.97
781.807	54.44
781.984	53.84
782.16	53.3
782.337	51.44
782.514	51.4
782.691	53.72
782.867	54.71
783.044	52.16
783.221	50.72
783.397	50.72
783.574	50.67
783.75	50.63
783.927	51.6
784.103	51.82
784.28	52.55
784.456	53.39
784.633	50.99
784.809	51.23
784.986	51.1
785.162	51.22
785.339	52.59
785.515	51.89
785.692	50.84
785.868	50.03
786.044	48.54
786.221	48.35
786.397	46.76
786.573	47.84
786.749	46.73
786.926	47.24
787.102	49.79
787.278	48.76
787.454	48.85
787.631	50.58
787.807	51.48
787.983	52.02
788.159	53.67
788.335	55.1
788.511	53.88
788.687	54.56
788.863	52.41
789.039	50.25
789.216	50.72
789.392	50.43
789.568	49.2
789.744	48.31
789.919	48.99
790.095	48.72
790.271	49.12
790.447	49.71
790.623	49.34
790.799	51.85
790.975	51.52
791.151	51.74
791.327	52.71
791.502	52.97
791.678	53.55
791.854	52.17
792.03	50.92
792.205	50.88
792.381	51.65
792.557	51.67
792.733	51.89
792.908	53.68
793.084	54.58
793.259	54.37
793.435	54.07
793.611	53.87
793.786	55.7
793.962	56.47
794.137	54.64
794.313	53.09
794.488	55.01
794.664	56.13
794.839	56.26
795.015	54.66
795.19	52.18
795.366	52.45
795.541	52.68
795.716	52.44
795.892	51.63
796.067	52.01
796.242	53.45
796.418	51.27
796.593	48.78
796.768	48.64
796.944	49.81
797.119	50.65
797.294	51.41
797.469	50.72
797.644	50.06
797.82	50.98
797.995	50.71
798.17	49.98
798.345	51.51
798.52	51.82
798.695	49.97
798.87	49.18
799.045	49.95
799.22	50.84
799.395	51.28
799.57	53.14
799.745	53.08
799.92	54.13
800.095	56.28
800.27	53.77
800.445	55.39
800.62	56.41
800.795	56.49
800.97	55.86
801.145	54.64
801.319	55.49
801.494	54.79
801.669	54.56
801.844	56.18
802.018	53.56
802.193	55.23
802.368	54.35
802.543	56.91
802.717	57.76
802.892	58.39
803.067	59.42
803.241	59.19
803.416	56.54
803.59	57.45
803.765	53.68
803.94	55.4
804.114	55.67
804.289	56.65
804.463	52.74
804.638	51.66
804.812	51.9
804.986	50.01
805.161	48.16
805.335	50.05
805.51	48.02
805.684	48.64
805.858	48.28
806.033	48.45
806.207	48.01
806.381	50.14
806.556	50.92
806.73	52.57
806.904	54.86
807.078	54.72
807.253	54.94
807.427	58.21
807.601	58.66
807.775	59.1
807.949	59.5
808.123	59.12
808.298	58.33
808.472	59.66
808.646	58.51
808.82	58.25
808.994	59.02
809.168	59.02
809.342	55.95
809.516	57.65
809.69	57.65
809.864	57.81
810.038	60.59
810.212	62.01
810.385	61.68
810.559	60.14
810.733	59.05
810.907	60.48
811.081	59.79
811.255	61.7
811.428	60.26
811.602	60.51
811.776	60.31
811.95	56.65
812.123	54.67
812.297	54.86
812.471	54.75
812.644	56.12
812.818	54.8
812.992	53.36
813.165	53.63
813.339	55.23
813.512	54.37
813.686	54.84
813.86	56.03
814.033	56.92
814.207	54.59
814.38	59.1
814.554	57.38
814.727	58.46
814.9	60.77
815.074	61.1
815.247	60.17
815.421	57.95
815.594	56.75
815.767	56.34
815.941	55.45
816.114	58.21
816.287	56.89
816.46	54.85
816.634	52.61
816.807	53.13
816.98	52.8
817.153	51.46
817.327	52.5
817.5	52.91
817.673	52.82
817.846	54.39
818.019	52.92
818.192	52.59
818.365	54.18
818.538	57.84
818.711	54.65
818.884	54.81
819.057	58
819.23	58.46
819.403	57.49
819.576	56.83
819.749	53.8
819.922	54.79
820.095	52.8
820.268	53.92
820.441	54.21
820.614	56.36
820.786	55.09
820.959	53.07
821.132	53.84
821.305	54.05
821.477	53.58
821.65	55.6
821.823	54.82
821.996	55.08
822.168	54.66
822.341	54.27
822.514	53.96
822.686	54.3
822.859	54.73
823.031	54.17
823.204	54.02
823.376	54.31
823.549	53.48
823.722	53.88
823.894	54.05
824.067	53.88
824.239	53.79
824.411	53.58
824.584	53.42
824.756	52.96
824.929	53.28
825.101	54.19
825.273	53.74
825.446	53.28
825.618	52.87
825.79	52.49
825.963	53.56
826.135	52.95
826.307	53.45
826.479	53.24
826.652	53.03
826.824	52.99
826.996	52.5
827.168	53.04
827.34	53.92
827.512	53.78
827.684	53.81
827.856	52.97
828.029	54.14
828.201	53.12
828.373	52.61
828.545	52.84
828.717	53.54
828.889	53.23
829.061	52.86
829.232	53.35
829.404	52.77
829.576	53.84
829.748	52.63
829.92	51.7
830.092	52.03
830.264	53.07
830.436	54.23
830.607	52.37
830.779	52.61
830.951	53.14
831.123	52.14
831.294	53.83
831.466	52.04
831.638	53.41
831.809	54.2
831.981	53.32
832.153	53.77
832.324	52.54
832.496	50.6
832.667	49.25
832.839	51.01
833.011	52.37
833.182	52.81
833.354	55.08
833.525	55.35
833.697	54.89
833.868	56.06
834.039	56.11
834.211	55.58
834.382	56.46
834.554	56.41
834.725	56.44
834.896	56.33
835.068	55.15
835.239	54.68
835.41	54.37
835.581	54.89
835.753	54.68
835.924	54.06
836.095	54.37
836.266	56.08
836.438	55.55
836.609	53.15
836.78	53.33
836.951	53.4
837.122	51.49
837.293	52.67
837.464	53.68
837.635	53.25
837.806	53.56
837.977	53.45
838.148	53.41
838.319	54.51
838.49	57.04
838.661	56.2
838.832	54.59
839.003	56.58
839.174	57.99
839.345	57.01
839.516	59.8
839.687	60.92
839.857	61.33
840.028	60.44
840.199	60.04
840.37	57.28
840.54	56.92
840.711	59.13
840.882	58.54
841.053	53.7
841.223	48.91
841.394	47.62
841.564	45.47
841.735	44.62
841.906	46.03
842.076	47.23
842.247	49.6
842.417	48.83
842.588	49.27
842.758	51.03
842.929	53.82
843.099	56.86
843.27	57.45
843.44	61.5
843.611	61.61
843.781	56.42
843.951	57.95
844.122	56.43
844.292	56.32
844.462	60.11
844.633	59.49
844.803	58.06
844.973	54.71
845.144	52.27
845.314	50.59
845.484	53.38
845.654	59.99
845.824	59.69
845.995	64.19
846.165	67.18
846.335	66.3
846.505	71.47
846.675	70.75
846.845	65.69
847.015	70.65
847.185	71.97
847.355	63.11
847.525	59.34
847.695	48.26
847.865	43.32
848.035	42.4
848.205	28.56
848.375	26.81
848.545	35.03
848.715	40.97
848.884	36.39
849.054	30.52
849.224	43.07
849.394	39.98
849.564	52.54
849.733	53.6
849.903	51.01
850.073	55.28
850.243	58.38
850.412	50.4
850.582	52.2
850.752	59.94
850.921	58.32
851.091	56.08
851.26	60.92
851.43	59.03
851.599	61.73
851.769	61.53
851.939	61.9
852.108	58.3
852.278	61.01
852.447	60.09
852.616	56.55
852.786	60.43
852.955	63.02
853.125	57.88
853.294	59.09
853.463	53.8
853.633	51.81
853.802	53.49
853.971	52.62
854.141	54.72
854.31	54.97
854.479	52.09
854.648	46.67
854.818	43.99
854.987	47.1
855.156	46.39
855.325	51.1
855.494	52.81
855.663	52.19
855.832	61.69
856.001	68.66
856.171	79.06
856.34	80.54
856.509	78.39
856.678	79.75
856.847	78.54
857.016	74.46
857.185	72.51
857.353	80.05
857.522	80.82
857.691	75.65
857.86	73.61
858.029	68.11
858.198	71.47
858.367	76.06
858.535	83.75
858.704	90.27
858.873	92.83
859.042	75.65
859.21	72.88
859.379	67.78
859.548	66.52
859.717	60.14
859.885	60.03
860.054	60.33
860.222	64.01
860.391	53.41
860.56	43.2
860.728	43.55
860.897	48.07
861.065	45.21
861.234	48.28
861.402	48.66
861.571	47.48
861.739	51.26
861.908	47.81
862.076	39.37
862.244	53.91
862.413	58.07
862.581	55.37
862.749	60.54
862.918	75.09
863.086	72.9
863.254	61.54
863.423	72.53
863.591	65.11
863.759	72.39
863.927	72.44
864.096	71.12
864.264	75
864.432	69.78
864.6	63.54
864.768	57.5
864.936	51.77
865.104	55.1
865.272	47.61
865.44	54.29
865.608	42.63
865.776	40.43
865.944	38.05
866.112	33.19
866.28	40.1
866.448	45.02
866.616	48.24
866.784	59.21
866.952	65.22
867.12	73.58
867.288	67.3
867.455	71.59
867.623	71.7
867.791	72.4
867.959	74.97
868.127	82.87
868.294	96.54
868.462	89.45
868.63	79.17
868.797	67.59
868.965	59.27
869.133	64.61
869.3	66.73
869.468	70.99
869.636	67.68
869.803	62.44
869.971	52.21
870.138	54.72
870.306	55.58
870.473	54.5
870.641	57
870.808	62.52
870.975	62.22
871.143	59.79
871.31	64.86
871.478	61.26
871.645	59.77
871.812	59.66
871.98	50.92
872.147	52.54
872.314	47.53
872.482	44.74
872.649	41.3
872.816	37.81
872.983	36.75
873.15	35.19
873.318	44.11
873.485	48.66
873.652	60.02
873.819	66.6
873.986	59.41
874.153	66.91
874.32	72.99
874.487	68.92
874.654	66.31
874.821	63.17
874.988	58.26
875.155	48.64
875.322	46.05
875.489	39.47
875.656	36.87
875.823	52.39
875.99	49.13
876.157	46.01
876.324	47.34
876.49	50.54
876.657	57.79
876.824	62.02
876.991	63.29
877.157	66.54
877.324	62.47
877.491	63.7
877.658	65.37
877.824	65.85
877.991	64.64
878.157	58.34
878.324	58.37
878.491	63.84
878.657	62.84
878.824	56.83
878.99	54.13
879.157	60.01
879.323	59.55
879.49	50.91
879.656	52.67
879.823	57.24
879.989	67.8
880.156	68.72
880.322	67.85
880.488	70.73
880.655	76.9
880.821	80.53
880.987	71.56
881.154	74.24
881.32	77.86
881.486	75.4
881.652	68.27
881.819	62.69
881.985	59.3
882.151	55.27
882.317	53.64
882.483	53.86
882.649	50.15
882.816	50.84
882.982	49.47
883.148	50.27
883.314	50.66
883.48	49.16
883.646	50.08
883.812	49.71
883.978	51.43
884.144	50.49
884.31	49.78
884.476	51.51
884.642	52.11
884.807	53.53
884.973	53.5
885.139	53.98
885.305	56.58
885.471	56.26
885.637	56.82
885.802	56.49
885.968	58.31
886.134	59.58
886.3	60.8
886.465	60.46
886.631	60.5
886.797	61.33
886.962	61.67
887.128	64.2
887.293	63.76
887.459	65.44
887.625	65.03
887.79	60.86
887.956	63.85
888.121	61.29
888.287	62.42
888.452	59.64
888.618	57.2
888.783	53.42
