Data from LC_152_Reflection_2.txt Node
Date: Mon Nov 16 22:08:48 EST 2015
User: robert
Spectrometer: USB4E03001
Autoset integration time: false
Trigger mode: 4
Integration Time (sec): 1.000000E-1
Scans to average: 15
Electric dark correction enabled: true
Nonlinearity correction enabled: false
Boxcar width: 5
Stray light correction enabled: false
XAxis mode: Wavelengths
Stop averaging: false
Number of Pixels in Spectrum: 3648
>>>>>Begin Spectral Data<<<<<
177.566	521.69
177.785	-36.54
178.005	130.25
178.225	58.48
178.445	-215.16
178.665	965.07
178.885	421.57
179.105	4.67
179.324	-438.79
179.544	3.98
179.764	-98.54
179.984	108.04
180.204	93.13
180.423	2.24
180.643	-174.46
180.863	-48.58
181.083	-32.86
181.302	-111.25
181.522	-156.89
181.742	-137.84
181.961	-234.78
182.181	-242
182.401	-365.73
182.621	-1380.75
182.84	-536.41
183.06	-260.77
183.279	-130.84
183.499	-87.95
183.719	-77.61
183.938	-47.94
184.158	-75.56
184.377	-26.99
184.597	-68.57
184.816	-48.84
185.036	-31.71
185.256	-24.55
185.475	-50.61
185.695	-122.74
185.914	-238.87
186.134	-443.15
186.353	-586.04
186.572	-655.35
186.792	-1049.15
187.011	-346.25
187.231	-280.02
187.45	-123.21
187.67	-260.51
187.889	-524.5
188.108	698.73
188.328	-20.35
188.547	118.2
188.766	244.64
188.986	259.1
189.205	140.04
189.424	72.84
189.644	-65.45
189.863	-260.39
190.082	-233.21
190.302	-662.01
190.521	-298.03
190.74	496.77
190.959	322.33
191.178	412.56
191.398	330.91
191.617	206.95
191.836	169.92
192.055	237.42
192.274	100.12
192.494	138.71
192.713	144.03
192.932	265.51
193.151	-20.84
193.37	-383.27
193.589	228.13
193.808	143.67
194.027	122.42
194.246	236.87
194.465	97.83
194.685	559.38
194.904	281.83
195.123	-213.01
195.342	-91.46
195.561	-8.25
195.78	-5.31
195.999	3035.21
196.218	222.06
196.436	178.42
196.655	-210.54
196.874	26.39
197.093	299.53
197.312	241.86
197.531	118.06
197.75	228.33
197.969	-1074.94
198.188	-359.61
198.407	-96.78
198.625	-86.1
198.844	-46.51
199.063	-61
199.282	-164.47
199.501	-92.58
199.719	-32.33
199.938	26.84
200.157	27.86
200.376	36.49
200.594	74.26
200.813	47.44
201.032	14.47
201.251	-5.61
201.469	-38.96
201.688	-8.89
201.907	-75.77
202.125	-174.37
202.344	9560.71
202.563	1801.17
202.781	331.38
203	1112.51
203.218	768.67
203.437	741.41
203.656	370.71
203.874	209.05
204.093	205.93
204.311	230.72
204.53	216.05
204.748	292.24
204.967	142.92
205.185	133.07
205.404	130.86
205.622	92.05
205.841	59.42
206.059	40.71
206.278	-12.58
206.496	-30.07
206.715	29.54
206.933	43.55
207.151	73.19
207.37	70.66
207.588	95
207.806	120.3
208.025	221.45
208.243	-608.43
208.461	1043.05
208.68	-9861.18
208.898	360.06
209.116	381.49
209.335	366.35
209.553	375.59
209.771	3801.25
209.989	809.82
210.208	1410.65
210.426	-2439.25
210.644	1030.46
210.862	-741.2
211.081	425.8
211.299	-188.16
211.517	1174.64
211.735	-305.08
211.953	-94114.29
212.171	-2019.58
212.39	-6298.2
212.608	-17515.22
212.826	634.14
213.044	534.55
213.262	502.72
213.48	2711.81
213.698	282.43
213.916	350.39
214.134	229.43
214.352	405.03
214.57	250.04
214.788	280.52
215.006	236.01
215.224	194.31
215.442	131.25
215.66	105.98
215.878	78.43
216.096	51.58
216.314	24
216.532	39.7
216.75	96.63
216.968	110.51
217.185	292.23
217.403	444.28
217.621	-1139.48
217.839	-319.86
218.057	-364.62
218.275	817.99
218.492	446.43
218.71	780.35
218.928	268.01
219.146	245.67
219.363	219.13
219.581	162.06
219.799	152.04
220.017	143.91
220.234	129.65
220.452	126.5
220.67	148.43
220.887	127.78
221.105	145.01
221.323	83.19
221.54	86.63
221.758	109.52
221.976	113.46
222.193	102.87
222.411	108.83
222.629	123.66
222.846	138.62
223.064	124.79
223.281	100.5
223.499	92.51
223.716	100.21
223.934	60.32
224.151	52.83
224.369	35.37
224.586	22.29
224.804	-13.81
225.021	-15.82
225.239	-24.76
225.456	-13.82
225.674	-9.64
225.891	-14.21
226.108	2.92
226.326	17.6
226.543	22.61
226.76	29.64
226.978	28
227.195	44.06
227.413	34.78
227.63	28.64
227.847	26.35
228.064	28.45
228.282	26.77
228.499	21.53
228.716	18.66
228.934	16.28
229.151	16.99
229.368	18.28
229.585	15.05
229.802	15.14
230.02	16.82
230.237	17.5
230.454	16.26
230.671	15.91
230.888	17.02
231.105	20.8
231.323	23.4
231.54	22.03
231.757	19.39
231.974	19.02
232.191	17.38
232.408	21.17
232.625	16.5
232.842	14.34
233.059	20.05
233.276	20.67
233.493	20.21
233.71	21.51
233.927	22.78
234.144	26.66
234.361	24.92
234.578	30.66
234.795	25.3
235.012	26.19
235.229	27.46
235.446	25.25
235.663	24.21
235.879	25.84
236.096	16.53
236.313	14.98
236.53	13.43
236.747	14.45
236.964	12.14
237.181	15.95
237.397	13.77
237.614	15.7
237.831	11.86
238.048	19.7
238.264	17.31
238.481	21.23
238.698	22.31
238.915	21.51
239.131	23.91
239.348	24.18
239.565	20.91
239.781	24.38
239.998	23.3
240.215	24.76
240.431	20.9
240.648	18.4
240.865	19.32
241.081	20.27
241.298	20.78
241.514	18.58
241.731	16.52
241.947	18.4
242.164	18.4
242.38	17.65
242.597	16.87
242.814	17.38
243.03	18.13
243.246	17.35
243.463	17.13
243.679	17.5
243.896	16.9
244.112	18.78
244.329	17.32
244.545	15.99
244.762	16.29
244.978	17.55
245.194	17.01
245.411	15.94
245.627	17.17
245.843	15.89
246.06	14.87
246.276	16.03
246.492	15.13
246.709	15.12
246.925	14.79
247.141	14.36
247.357	13.9
247.574	13.67
247.79	13.77
248.006	12.57
248.222	12.73
248.439	12.76
248.655	12.12
248.871	12.66
249.087	12.71
249.303	12.65
249.519	12.05
249.736	12.9
249.952	11.44
250.168	11.16
250.384	12.7
250.6	13.74
250.816	12.22
251.032	11.4
251.248	8.8
251.464	7.52
251.68	8.76
251.896	9.79
252.112	9.01
252.328	10.62
252.544	9.92
252.76	9.87
252.976	8.54
253.192	9.43
253.408	11.07
253.624	14.19
253.84	14.05
254.056	14.24
254.272	14.2
254.487	15.77
254.703	15.45
254.919	16.64
255.135	14.79
255.351	15.58
255.567	18.27
255.782	17.65
255.998	15.26
256.214	16.99
256.43	13.91
256.646	13.97
256.861	12.1
257.077	11.08
257.293	8.34
257.508	9.08
257.724	10.07
257.94	9.76
258.155	8.15
258.371	8.7
258.587	9.36
258.802	9.24
259.018	10.08
259.234	9.62
259.449	10.23
259.665	11.44
259.88	12.55
260.096	11.89
260.312	11.17
260.527	11.7
260.743	11.53
260.958	11.38
261.174	12.03
261.389	11.9
261.605	12.61
261.82	13.11
262.036	12.79
262.251	13.17
262.466	13.09
262.682	14.63
262.897	14.15
263.113	14.38
263.328	14.69
263.543	16.12
263.759	15.32
263.974	14.97
264.189	14.67
264.405	15.44
264.62	14.61
264.835	16.16
265.051	14.6
265.266	16.35
265.481	17.24
265.696	16.5
265.912	13.9
266.127	13.22
266.342	13.04
266.557	13.24
266.773	12.87
266.988	12.27
267.203	12.53
267.418	11.03
267.633	11.7
267.848	11.82
268.064	11.94
268.279	13.51
268.494	13.43
268.709	13.78
268.924	13.3
269.139	14.47
269.354	13.63
269.569	13.84
269.784	14.79
269.999	14.21
270.214	13.91
270.429	14.37
270.644	13.82
270.859	13.35
271.074	12.77
271.289	12.38
271.504	12.1
271.719	13.12
271.934	11.82
272.149	12.47
272.363	11.58
272.578	10.95
272.793	10.97
273.008	10.11
273.223	10.7
273.438	10.36
273.653	11.4
273.867	10.99
274.082	10.31
274.297	10.65
274.512	10.1
274.726	10.2
274.941	10.78
275.156	10.06
275.371	11.35
275.585	11.54
275.8	14.23
276.015	13.28
276.229	12.99
276.444	12.88
276.659	12.95
276.873	12.79
277.088	13.19
277.302	13.2
277.517	14.61
277.732	15.4
277.946	15.05
278.161	13.6
278.375	13.57
278.59	13.21
278.804	12.39
279.019	12.11
279.233	12.42
279.448	12.92
279.662	12.17
279.877	12.07
280.091	10.83
280.306	10.99
280.52	10.55
280.735	9.27
280.949	9.8
281.163	10.87
281.378	10.52
281.592	9.68
281.806	9.34
282.021	9.14
282.235	8.57
282.449	9.07
282.664	9.64
282.878	9.24
283.092	10.14
283.307	9.99
283.521	10.86
283.735	11.35
283.949	13.04
284.164	12.78
284.378	12.91
284.592	11.72
284.806	11.91
285.02	11.83
285.234	11.53
285.449	11.6
285.663	11.59
285.877	10.88
286.091	10.91
286.305	9.46
286.519	8.62
286.733	7.74
286.947	8.18
287.161	6.95
287.375	7.58
287.589	8.16
287.803	8.82
288.017	9.3
288.231	9.47
288.445	9.19
288.659	9.82
288.873	10.81
289.087	12.88
289.301	12.75
289.515	13.81
289.729	12.39
289.943	12.14
290.157	11.46
290.371	11.46
290.584	11.04
290.798	11.7
291.012	13.03
291.226	12.82
291.44	11.64
291.654	11.57
291.867	10.8
292.081	10.92
292.295	11.67
292.509	11.25
292.722	10.81
292.936	10.98
293.15	11.68
293.364	10.16
293.577	10.77
293.791	11.44
294.005	13.81
294.218	14.16
294.432	14.62
294.645	13.48
294.859	14.57
295.073	14.18
295.286	14.1
295.5	12.99
295.713	13.15
295.927	12.31
296.14	12.12
296.354	10.82
296.568	10.61
296.781	11.02
296.994	11.32
297.208	10.98
297.421	11.25
297.635	10.75
297.848	11.44
298.062	11.4
298.275	11.96
298.489	12.11
298.702	12.22
298.915	12.24
299.129	12.08
299.342	12.31
299.555	12
299.769	12.51
299.982	12.76
300.195	11.65
300.409	11.55
300.622	11.17
300.835	11.36
301.048	11.31
301.262	11.13
301.475	10.31
301.688	10.8
301.901	11.93
302.115	10.71
302.328	11.69
302.541	10.92
302.754	12.18
302.967	12.25
303.18	11.89
303.393	12.27
303.607	11.89
303.82	11.94
304.033	11.38
304.246	10.22
304.459	11.27
304.672	11.01
304.885	12.6
305.098	10.85
305.311	10.12
305.524	10.64
305.737	10.48
305.95	11.65
306.163	11.71
306.376	12.16
306.589	12.12
306.802	11.4
307.015	11.91
307.228	12.19
307.44	12.29
307.653	13.1
307.866	11.89
308.079	13.02
308.292	12.86
308.505	13.76
308.718	13.15
308.93	13.15
309.143	12.74
309.356	12.01
309.569	11.69
309.781	12.21
309.994	12.18
310.207	13.08
310.42	11.29
310.632	10.78
310.845	10.82
311.058	10.82
311.27	12.16
311.483	12.67
311.696	13.05
311.908	12.6
312.121	12.98
312.333	14.07
312.546	13.75
312.759	15.09
312.971	15.74
313.184	15.38
313.396	15
313.609	14.4
313.821	14.27
314.034	15.23
314.246	16.15
314.459	15.75
314.671	14.71
314.884	14.47
315.096	13.66
315.309	12.9
315.521	13.37
315.733	13.48
315.946	12.08
316.158	11.78
316.371	10.65
316.583	10.6
316.795	9.51
317.008	10.62
317.22	12.23
317.432	12.02
317.644	12.75
317.857	11.94
318.069	12.61
318.281	13.48
318.494	14.51
318.706	15.58
318.918	15.79
319.13	17.29
319.342	16.93
319.555	16.02
319.767	16
319.979	15.89
320.191	16.92
320.403	17.04
320.615	17.19
320.827	17.83
321.039	15.7
321.252	14.42
321.464	13.16
321.676	13.04
321.888	12.61
322.1	13.3
322.312	11.31
322.524	8.99
322.736	8.89
322.948	8.11
323.16	6.34
323.372	7.26
323.584	7.18
323.796	6.04
324.007	5.64
324.219	5.76
324.431	5.55
324.643	6.42
324.855	7.9
325.067	7.92
325.279	9.04
325.491	9.44
325.702	8.64
325.914	8.91
326.126	10.65
326.338	10.44
326.55	10.04
326.761	10.19
326.973	11.43
327.185	11.35
327.396	10.98
327.608	10.25
327.82	10.83
328.032	11.79
328.243	11.79
328.455	11.99
328.666	11.8
328.878	12.16
329.09	10.96
329.301	10.4
329.513	9.88
329.725	10.4
329.936	10.08
330.148	10.01
330.359	10.87
330.571	10.63
330.782	10.56
330.994	11.32
331.205	11.89
331.417	12.71
331.628	13.1
331.84	14.02
332.051	13.98
332.262	15
332.474	14.44
332.685	14.17
332.897	14.82
333.108	15.24
333.319	13.99
333.531	13.47
333.742	14.04
333.953	12.92
334.165	12.52
334.376	12.27
334.587	11.41
334.799	11.88
335.01	10.53
335.221	10.54
335.432	9.79
335.644	9.75
335.855	9.51
336.066	9.88
336.277	10.74
336.488	10.87
336.7	10.16
336.911	10.46
337.122	9.9
337.333	10.58
337.544	10.89
337.755	10.63
337.966	11.2
338.177	11.27
338.388	11.01
338.599	11.05
338.811	10.4
339.022	11.29
339.233	11.59
339.444	12.36
339.655	11.05
339.866	10.49
340.076	11.44
340.287	11.75
340.498	12.13
340.709	11.17
340.92	10.63
341.131	11.86
341.342	11.6
341.553	11.03
341.764	10.98
341.975	12.23
342.185	12.13
342.396	11.24
342.607	11.06
342.818	11.4
343.029	12.47
343.239	13.47
343.45	13.63
343.661	13.29
343.872	13.42
344.082	12.79
344.293	12.49
344.504	12.72
344.714	12.61
344.925	11.93
345.136	12.14
345.346	11.95
345.557	11.68
345.768	11.22
345.978	10.5
346.189	10.8
346.399	10.25
346.61	10.25
346.821	9.94
347.031	10.64
347.242	10.75
347.452	10.31
347.663	9.56
347.873	9.3
348.084	9.09
348.294	10.29
348.504	10.01
348.715	9.98
348.925	9.8
349.136	10.34
349.346	9.67
349.557	10.32
349.767	10.4
349.977	10.76
350.188	10.36
350.398	11.03
350.608	10.64
350.819	10.49
351.029	11.58
351.239	11.69
351.449	10.85
351.66	10.94
351.87	11.41
352.08	10.89
352.29	10.61
352.501	10.48
352.711	9.52
352.921	9.68
353.131	9.48
353.341	9.02
353.552	9.24
353.762	9.79
353.972	10.18
354.182	9.87
354.392	9.53
354.602	9.51
354.812	9.87
355.022	10.31
355.232	10.67
355.442	11.19
355.652	11.24
355.862	10.71
356.072	11.02
356.282	10.54
356.492	10.79
356.702	11.19
356.912	11.69
357.122	11.98
357.332	11.83
357.542	11.37
357.752	11.21
357.962	11.15
358.171	11.68
358.381	11.37
358.591	11.39
358.801	10.94
359.011	11.45
359.221	11.09
359.43	10.72
359.64	10.68
359.85	10.98
360.06	10.95
360.269	10.85
360.479	10.2
360.689	9.78
360.899	9.96
361.108	10.12
361.318	9.92
361.528	9.8
361.737	9.48
361.947	9
362.156	8.73
362.366	8.72
362.576	9.03
362.785	9.16
362.995	9.13
363.204	9.01
363.414	8.82
363.623	8.47
363.833	8.91
364.042	8.99
364.252	9.14
364.461	9.31
364.671	8.71
364.88	8.81
365.09	8.69
365.299	9.1
365.509	8.77
365.718	8.4
365.927	8.4
366.137	8.05
366.346	7.82
366.555	8.02
366.765	7.75
366.974	8.08
367.183	7.67
367.393	7.63
367.602	7.07
367.811	7.08
368.021	6.84
368.23	7.07
368.439	6.83
368.648	7.58
368.857	8.04
369.067	8.15
369.276	7.97
369.485	7.91
369.694	8.5
369.903	9.39
370.112	9.7
370.321	9.85
370.531	9.62
370.74	9.53
370.949	9.28
371.158	8.94
371.367	8.94
371.576	9.25
371.785	9.2
371.994	8.87
372.203	8.47
372.412	8.47
372.621	9.05
372.83	9.28
373.039	9.59
373.248	9.38
373.457	9.48
373.666	9.26
373.874	9.48
374.083	9.68
374.292	9.26
374.501	9.01
374.71	8.8
374.919	8.27
375.128	8.2
375.336	7.98
375.545	7.97
375.754	7.1
375.963	7.15
376.171	6.7
376.38	6.66
376.589	7.3
376.798	6.96
377.006	7.28
377.215	7.54
377.424	7.45
377.632	7.24
377.841	7.33
378.05	7.9
378.258	7.69
378.467	7.68
378.675	7.87
378.884	7.52
379.093	7.71
379.301	7.34
379.51	7.02
379.718	7.1
379.927	7.04
380.135	6.58
380.344	6.33
380.552	6.53
380.761	6.64
380.969	6.23
381.177	6.6
381.386	6.87
381.594	7.07
381.803	7.15
382.011	6.51
382.219	6.6
382.428	6.59
382.636	6.46
382.845	6.79
383.053	6.7
383.261	6.5
383.469	6.43
383.678	6.57
383.886	6.47
384.094	6.27
384.302	7
384.511	7.32
384.719	7.33
384.927	7.22
385.135	7.04
385.343	7.21
385.552	7.04
385.76	6.74
385.968	6.41
386.176	6.57
386.384	6.65
386.592	6.29
386.8	5.95
387.008	6.27
387.216	6.53
387.424	6.49
387.633	6.45
387.841	6.81
388.049	6.66
388.257	6.41
388.465	6.09
388.672	6.39
388.88	6.15
389.088	6.31
389.296	6.33
389.504	6.68
389.712	6.54
389.92	6.52
390.128	6.51
390.336	6.69
390.544	7.23
390.751	7.19
390.959	6.92
391.167	7.06
391.375	6.94
391.583	6.73
391.79	6.21
391.998	6.16
392.206	6.11
392.414	5.7
392.621	5.59
392.829	5.58
393.037	5.43
393.244	5.62
393.452	5.83
393.66	5.98
393.867	5.95
394.075	6.17
394.283	6.28
394.49	6.18
394.698	6.35
394.905	6.64
395.113	6.26
395.32	6.5
395.528	6.49
395.735	6.46
395.943	6.38
396.15	6.27
396.358	6.36
396.565	6.47
396.773	6.58
396.98	6.93
397.188	6.52
397.395	6.69
397.602	6.45
397.81	5.89
398.017	5.75
398.225	5.57
398.432	5.95
398.639	5.8
398.847	5.67
399.054	5.59
399.261	5.22
399.468	5.36
399.676	5.07
399.883	5.26
400.09	5.75
400.297	5.71
400.505	5.93
400.712	5.74
400.919	5.69
401.126	5.81
401.333	5.88
401.54	5.99
401.748	6.07
401.955	6.35
402.162	6.21
402.369	6.21
402.576	6.41
402.783	6.29
402.99	6.26
403.197	6.27
403.404	5.85
403.611	5.74
403.818	5.65
404.025	5.54
404.232	5.49
404.439	5.65
404.646	5.36
404.853	4.96
405.06	4.8
405.267	4.53
405.474	4.5
405.681	4.59
405.887	4.66
406.094	4.78
406.301	4.85
406.508	4.8
406.715	4.77
406.922	4.89
407.128	5.16
407.335	5.53
407.542	5.92
407.749	6
407.955	6.21
408.162	6.24
408.369	6.42
408.575	6.09
408.782	6.02
408.989	5.92
409.195	6.06
409.402	6.07
409.609	5.92
409.815	6.06
410.022	6.11
410.228	5.91
410.435	5.97
410.642	5.59
410.848	5.92
411.055	6.01
411.261	5.79
411.468	5.64
411.674	5.4
411.881	5.12
412.087	5.23
412.294	5.2
412.5	5.32
412.706	5.24
412.913	5.28
413.119	5.04
413.326	4.99
413.532	5.24
413.738	5.16
413.945	5.57
414.151	5.7
414.357	5.46
414.564	5.34
414.77	5.52
414.976	5.34
415.182	5.77
415.389	5.9
415.595	5.62
415.801	5.51
416.007	5.74
416.214	5.67
416.42	5.7
416.626	5.59
416.832	5.59
417.038	5.37
417.244	5.67
417.45	5.33
417.657	5.48
417.863	5.75
418.069	5.81
418.275	5.86
418.481	5.68
418.687	5.72
418.893	5.71
419.099	5.7
419.305	5.85
419.511	5.71
419.717	5.75
419.923	5.61
420.129	5.69
420.335	5.74
420.541	5.69
420.746	5.79
420.952	5.66
421.158	5.67
421.364	5.66
421.57	5.68
421.776	5.68
421.982	5.66
422.187	5.57
422.393	5.41
422.599	5.28
422.805	5.2
423.01	5.23
423.216	5.33
423.422	5.28
423.628	5.43
423.833	5.35
424.039	5.42
424.245	5.51
424.45	5.73
424.656	5.69
424.862	5.69
425.067	5.87
425.273	5.8
425.478	5.81
425.684	5.92
425.889	5.84
426.095	5.94
426.301	5.86
426.506	5.85
426.712	5.86
426.917	5.9
427.123	6.06
427.328	5.92
427.533	5.97
427.739	5.94
427.944	5.89
428.15	5.83
428.355	5.65
428.561	5.66
428.766	5.6
428.971	5.47
429.177	5.66
429.382	5.72
429.587	5.75
429.793	5.59
429.998	5.58
430.203	5.53
430.408	5.6
430.614	5.84
430.819	5.74
431.024	5.78
431.229	5.67
431.434	5.52
431.64	5.24
431.845	5.31
432.05	5.44
432.255	5.44
432.46	5.25
432.665	5.12
432.87	4.98
433.076	5.1
433.281	5.16
433.486	5.16
433.691	5
433.896	5.05
434.101	4.85
434.306	4.89
434.511	4.88
434.716	5.11
434.921	5.2
435.126	5.12
435.331	5.1
435.535	5.14
435.74	5.13
435.945	5.52
436.15	5.6
436.355	5.73
436.56	5.68
436.765	5.73
436.97	5.71
437.174	5.78
437.379	5.92
437.584	5.94
437.789	5.91
437.993	5.92
438.198	5.82
438.403	5.94
438.608	5.97
438.812	5.78
439.017	5.71
439.222	5.49
439.426	5.44
439.631	5.44
439.836	5.37
440.04	5.34
440.245	5.45
440.45	5.46
440.654	5.38
440.859	5.3
441.063	5.41
441.268	5.32
441.472	5.38
441.677	5.31
441.881	5.19
442.086	5.18
442.29	5.04
442.495	4.91
442.699	4.74
442.904	4.64
443.108	4.63
443.312	4.58
443.517	4.77
443.721	4.83
443.925	4.88
444.13	4.99
444.334	5.01
444.538	5.06
444.743	5.05
444.947	5.04
445.151	5
445.356	4.99
445.56	5.08
445.764	5.02
445.968	4.97
446.173	4.93
446.377	5.04
446.581	5.07
446.785	5.12
446.989	5.14
447.193	5.27
447.398	5.33
447.602	5.38
447.806	5.37
448.01	5.39
448.214	5.61
448.418	5.6
448.622	5.44
448.826	5.35
449.03	5.47
449.234	5.59
449.438	5.54
449.642	5.53
449.846	5.55
450.05	5.54
450.254	5.38
450.458	5.29
450.662	5.2
450.866	5.16
451.069	5.13
451.273	4.91
451.477	4.74
451.681	4.61
451.885	4.5
452.089	4.5
452.292	4.55
452.496	4.76
452.7	4.71
452.904	4.81
453.107	4.95
453.311	5.1
453.515	5.04
453.719	5.01
453.922	5.24
454.126	5.26
454.33	5.23
454.533	5.01
454.737	4.87
454.94	4.84
455.144	4.84
455.348	4.9
455.551	4.75
455.755	4.75
455.958	4.75
456.162	4.47
456.365	4.66
456.569	4.6
456.772	4.73
456.976	4.68
457.179	4.67
457.383	4.71
457.586	4.74
457.79	4.86
457.993	4.88
458.196	4.86
458.4	4.91
458.603	4.88
458.807	5
459.01	5.07
459.213	5.14
459.417	5.13
459.62	5.19
459.823	4.98
460.026	4.91
460.23	5.03
460.433	5.03
460.636	5.08
460.839	5.12
461.042	5.09
461.246	5.08
461.449	5.12
461.652	5.17
461.855	5.03
462.058	5.16
462.261	5.08
462.464	4.97
462.668	5.13
462.871	5.14
463.074	5.17
463.277	5.01
463.48	4.98
463.683	4.94
463.886	4.96
464.089	4.96
464.292	5.05
464.495	5.19
464.698	5.03
464.901	5.02
465.104	5.02
465.306	4.91
465.509	5.01
465.712	5.05
465.915	5.04
466.118	5.06
466.321	5.08
466.524	5.05
466.726	5.04
466.929	5.33
467.132	5.31
467.335	5.21
467.538	5.08
467.74	5.1
467.943	5.18
468.146	5.31
468.348	5.28
468.551	5.37
468.754	5.24
468.956	5.28
469.159	5.19
469.362	5.14
469.564	5.23
469.767	5.26
469.969	5.18
470.172	4.84
470.375	4.6
470.577	4.58
470.78	4.53
470.982	4.53
471.185	4.54
471.387	4.58
471.59	4.59
471.792	4.58
471.995	4.59
472.197	4.65
472.399	4.73
472.602	4.76
472.804	4.7
473.007	4.63
473.209	4.62
473.411	4.54
473.614	4.5
473.816	4.47
474.018	4.5
474.22	4.61
474.423	4.73
474.625	4.74
474.827	4.88
475.03	5.01
475.232	5.22
475.434	5.18
475.636	5.32
475.838	5.34
476.04	5.22
476.243	5.18
476.445	5.14
476.647	4.98
476.849	5
477.051	4.86
477.253	4.79
477.455	4.79
477.657	4.83
477.859	4.68
478.061	4.53
478.263	4.61
478.465	4.61
478.667	4.7
478.869	4.81
479.071	4.76
479.273	4.86
479.475	4.73
479.677	4.6
479.879	4.62
480.081	4.7
480.283	4.87
480.485	4.82
480.686	4.78
480.888	4.75
481.09	4.75
481.292	4.78
481.494	4.73
481.695	4.74
481.897	4.74
482.099	4.73
482.301	4.7
482.502	4.64
482.704	4.7
482.906	4.72
483.107	4.67
483.309	4.6
483.511	4.63
483.712	4.62
483.914	4.62
484.115	4.56
484.317	4.56
484.519	4.56
484.72	4.56
484.922	4.48
485.123	4.52
485.325	4.52
485.526	4.56
485.728	4.52
485.929	4.49
486.131	4.53
486.332	4.63
486.534	4.59
486.735	4.63
486.936	4.59
487.138	4.65
487.339	4.57
487.541	4.56
487.742	4.51
487.943	4.51
488.144	4.55
488.346	4.48
488.547	4.43
488.748	4.46
488.95	4.37
489.151	4.4
489.352	4.38
489.553	4.39
489.755	4.36
489.956	4.37
490.157	4.45
490.358	4.46
490.559	4.61
490.76	4.61
490.961	4.6
491.163	4.7
491.364	4.77
491.565	4.77
491.766	4.77
491.967	4.81
492.168	4.86
492.369	4.82
492.57	4.82
492.771	4.76
492.972	4.81
493.173	4.89
493.374	4.84
493.575	4.82
493.776	4.88
493.976	4.87
494.177	5
494.378	5.08
494.579	4.92
494.78	5.04
494.981	4.95
495.182	4.79
495.382	4.69
495.583	4.7
495.784	4.74
495.985	4.71
496.185	4.7
496.386	4.49
496.587	4.51
496.788	4.71
496.988	4.76
497.189	4.85
497.39	5.06
497.59	5.14
497.791	5.2
497.992	5.1
498.192	5.2
498.393	5.27
498.593	5.37
498.794	5.3
498.994	5.28
499.195	5.15
499.395	5.21
499.596	5.21
499.796	5.01
499.997	4.92
500.197	5.09
500.398	5.01
500.598	5.02
500.799	5.06
500.999	5.1
501.199	5
501.4	4.93
501.6	4.89
501.801	4.95
502.001	5.06
502.201	5.28
502.402	5.12
502.602	5.12
502.802	5.18
503.002	5.24
503.203	5.21
503.403	5.31
503.603	5.4
503.803	5.37
504.003	5.25
504.204	5.45
504.404	5.42
504.604	5.45
504.804	5.59
505.004	5.6
505.204	5.61
505.404	5.71
505.604	5.85
505.804	5.87
506.005	5.96
506.205	6.01
506.405	5.96
506.605	5.94
506.805	6.02
507.005	5.97
507.204	5.92
507.404	5.88
507.604	5.81
507.804	5.83
508.004	5.96
508.204	6.01
508.404	5.98
508.604	5.97
508.804	6.03
509.003	6.09
509.203	6.13
509.403	6.14
509.603	6.09
509.803	6.27
510.002	6.24
510.202	6.14
510.402	6.09
510.602	6.17
510.801	6.21
511.001	6.17
511.201	6.12
511.4	6.07
511.6	6.22
511.8	6.32
511.999	6.36
512.199	6.33
512.398	6.33
512.598	6.41
512.797	6.46
512.997	6.42
513.197	6.48
513.396	6.55
513.596	6.72
513.795	6.74
513.994	6.81
514.194	6.72
514.393	6.83
514.593	6.91
514.792	6.94
514.992	6.91
515.191	6.83
515.39	6.83
515.59	6.72
515.789	6.67
515.988	6.69
516.188	6.58
516.387	6.56
516.586	6.46
516.786	6.56
516.985	6.5
517.184	6.53
517.383	6.76
517.582	6.76
517.782	6.92
517.981	6.88
518.18	6.9
518.379	7.01
518.578	6.99
518.777	7.05
518.976	6.92
519.176	7.02
519.375	7.11
519.574	7.07
519.773	7.03
519.972	6.89
520.171	6.92
520.37	6.84
520.569	6.87
520.768	6.91
520.967	7.02
521.166	7.1
521.365	7.09
521.564	7.01
521.762	7
521.961	7.02
522.16	7.14
522.359	7.21
522.558	7.28
522.757	7.22
522.956	7.3
523.154	7.22
523.353	7.32
523.552	7.28
523.751	7.38
523.949	7.42
524.148	7.59
524.347	7.7
524.546	7.82
524.744	7.69
524.943	7.86
525.142	7.82
525.34	7.92
525.539	7.86
525.737	8.02
525.936	7.96
526.135	7.94
526.333	7.87
526.532	7.86
526.73	7.82
526.929	7.95
527.127	7.94
527.326	7.97
527.524	7.91
527.723	7.94
527.921	7.89
528.12	7.95
528.318	8.03
528.516	8.06
528.715	8.03
528.913	7.99
529.112	7.98
529.31	7.94
529.508	7.94
529.707	7.95
529.905	7.98
530.103	8
530.301	8.04
530.5	8.05
530.698	8.07
530.896	8.15
531.094	8.23
531.293	8.33
531.491	8.43
531.689	8.57
531.887	8.72
532.085	8.8
532.283	8.81
532.481	8.79
532.68	8.77
532.878	8.8
533.076	8.78
533.274	8.76
533.472	8.82
533.67	8.75
533.868	8.67
534.066	8.66
534.264	8.51
534.462	8.49
534.66	8.49
534.858	8.51
535.056	8.43
535.253	8.43
535.451	8.55
535.649	8.49
535.847	8.68
536.045	8.7
536.243	8.73
536.441	8.98
536.638	9.13
536.836	9.26
537.034	9.29
537.232	9.49
537.43	9.59
537.627	9.61
537.825	9.6
538.023	9.5
538.22	9.69
538.418	9.71
538.616	9.68
538.813	9.69
539.011	9.82
539.209	9.93
539.406	9.93
539.604	9.96
539.801	10.06
539.999	10.18
540.196	10.38
540.394	10.45
540.591	10.51
540.789	10.53
540.986	10.52
541.184	10.46
541.381	10.46
541.579	10.53
541.776	10.56
541.974	10.56
542.171	10.6
542.368	10.61
542.566	10.58
542.763	10.6
542.96	10.63
543.158	10.78
543.355	10.81
543.552	10.91
543.75	10.97
543.947	10.96
544.144	10.94
544.341	11.02
544.539	11.05
544.736	11.13
544.933	11.15
545.13	11.26
545.327	11.24
545.524	11.36
545.722	11.43
545.919	11.42
546.116	11.66
546.313	11.81
546.51	11.77
546.707	11.81
546.904	11.77
547.101	11.84
547.298	11.89
547.495	11.88
547.692	11.8
547.889	11.81
548.086	11.94
548.283	11.9
548.48	11.83
548.677	11.89
548.874	11.83
549.07	12
549.267	12
549.464	12.04
549.661	12.08
549.858	12.33
550.055	12.36
550.251	12.35
550.448	12.42
550.645	12.55
550.842	12.68
551.038	13.02
551.235	12.96
551.432	12.99
551.628	13.13
551.825	13.31
552.022	13.27
552.218	13.34
552.415	13.36
552.612	13.35
552.808	13.25
553.005	13.34
553.201	13.23
553.398	13.25
553.594	13.35
553.791	13.53
553.987	13.66
554.184	13.63
554.38	13.59
554.577	13.62
554.773	13.73
554.97	13.98
555.166	14.05
555.362	14.18
555.559	14.35
555.755	14.49
555.952	14.32
556.148	14.18
556.344	14.3
556.541	14.35
556.737	14.51
556.933	14.52
557.129	14.35
557.326	14.43
557.522	14.53
557.718	14.67
557.914	14.71
558.11	14.78
558.307	14.89
558.503	15.14
558.699	15.29
558.895	15.4
559.091	15.45
559.287	15.45
559.483	15.41
559.679	15.55
559.876	15.42
560.072	15.4
560.268	15.31
560.464	15.25
560.66	15.18
560.856	15.31
561.052	15.34
561.247	15.6
561.443	15.85
561.639	15.89
561.835	15.75
562.031	15.93
562.227	16.12
562.423	16.34
562.619	16.53
562.815	16.84
563.01	17.06
563.206	17.01
563.402	16.73
563.598	16.8
563.793	16.94
563.989	16.97
564.185	17.06
564.381	17.12
564.576	17.1
564.772	17.24
564.968	17.05
565.163	16.85
565.359	16.65
565.555	16.92
565.75	17.02
565.946	16.92
566.141	16.97
566.337	16.99
566.532	16.94
566.728	17.11
566.923	17.08
567.119	17.06
567.314	17.01
567.51	17.25
567.705	17.25
567.901	17.22
568.096	17.33
568.292	17.51
568.487	17.61
568.682	17.71
568.878	17.67
569.073	17.8
569.268	17.9
569.464	18.14
569.659	18.21
569.854	18.32
570.05	18.48
570.245	18.74
570.44	18.71
570.635	18.72
570.831	18.74
571.026	18.95
571.221	18.91
571.416	18.9
571.611	18.91
571.806	18.93
572.002	18.91
572.197	18.93
572.392	18.79
572.587	18.96
572.782	19
572.977	19.11
573.172	19.05
573.367	19.12
573.562	19.29
573.757	19.22
573.952	19.4
574.147	19.57
574.342	19.62
574.537	19.78
574.732	19.7
574.927	19.61
575.121	19.67
575.316	19.61
575.511	19.68
575.706	19.67
575.901	19.81
576.096	20.06
576.29	19.98
576.485	20.08
576.68	20.24
576.875	20.21
577.069	20.31
577.264	20.26
577.459	20.61
577.654	20.53
577.848	20.62
578.043	20.79
578.238	20.45
578.432	20.5
578.627	20.58
578.821	20.49
579.016	20.57
579.21	20.84
579.405	20.93
579.6	21.02
579.794	21.23
579.989	21.15
580.183	21.42
580.378	21.74
580.572	21.87
580.766	21.7
580.961	21.5
581.155	21.95
581.35	21.74
581.544	21.63
581.738	21.42
581.933	21.54
582.127	21.88
582.321	21.59
582.516	21.27
582.71	21.4
582.904	21.54
583.099	21.7
583.293	21.55
583.487	21.74
583.681	22.18
583.875	22.23
584.07	22.14
584.264	21.84
584.458	21.9
584.652	21.99
584.846	21.81
585.04	21.85
585.234	21.88
585.428	21.68
585.623	21.59
585.817	21.47
586.011	21.49
586.205	21.74
586.399	21.99
586.593	22.19
586.787	22.42
586.981	22.48
587.174	22.47
587.368	22.55
587.562	22.63
587.756	22.95
587.95	22.91
588.144	23.03
588.338	23.08
588.532	23.11
588.725	22.98
588.919	23.12
589.113	23.24
589.307	23.21
589.501	23.26
589.694	23.39
589.888	23.34
590.082	23.49
590.275	23.63
590.469	23.53
590.663	23.38
590.856	23.54
591.05	23.52
591.244	23.54
591.437	23.86
591.631	23.86
591.824	23.88
592.018	23.92
592.212	23.91
592.405	23.78
592.599	23.98
592.792	24.12
592.986	24.31
593.179	24.39
593.372	24.52
593.566	24.36
593.759	24.35
593.953	24.41
594.146	24.23
594.339	24.49
594.533	24.61
594.726	24.65
594.92	24.81
595.113	24.68
595.306	24.61
595.499	24.56
595.693	24.63
595.886	24.9
596.079	24.89
596.272	25.09
596.466	24.95
596.659	24.96
596.852	24.93
597.045	24.8
597.238	24.73
597.431	24.79
597.624	24.75
597.818	24.85
598.011	24.65
598.204	24.65
598.397	24.64
598.59	24.53
598.783	24.57
598.976	24.54
599.169	24.57
599.362	24.7
599.555	24.85
599.748	25.09
599.941	24.97
600.134	25.35
600.326	25.54
600.519	25.75
600.712	25.74
600.905	25.76
601.098	25.98
601.291	26.04
601.483	26.12
601.676	26.06
601.869	26.09
602.062	26.46
602.255	26.17
602.447	26.19
602.64	26.11
602.833	26.38
603.025	26.33
603.218	26.14
603.411	26.25
603.603	26.16
603.796	26.16
603.989	26.14
604.181	25.95
604.374	26.13
604.566	26.02
604.759	26.13
604.951	25.97
605.144	26.09
605.336	26.12
605.529	26.06
605.721	26.26
605.914	26.29
606.106	26.27
606.299	26.19
606.491	26.1
606.683	26.33
606.876	26.27
607.068	26.52
607.26	26.52
607.453	26.57
607.645	26.72
607.837	26.47
608.03	26.46
608.222	26.28
608.414	26.45
608.606	26.57
608.799	26.44
608.991	26.39
609.183	26.39
609.375	26.2
609.567	26.14
609.759	26.17
609.952	26.21
610.144	26.44
610.336	26.6
610.528	26.57
610.72	26.53
610.912	26.68
611.104	26.81
611.296	26.72
611.488	26.75
611.68	26.85
611.872	26.78
612.064	26.99
612.256	26.87
612.448	27.14
612.64	27.22
612.832	27.18
613.023	27.05
613.215	27
613.407	27.05
613.599	27.13
613.791	27.3
613.983	27.3
614.174	27.17
614.366	27
614.558	26.91
614.75	26.75
614.941	26.96
615.133	27.19
615.325	27.23
615.516	27.4
615.708	27.45
615.9	27.17
616.091	27.04
616.283	27.21
616.475	27.56
616.666	27.45
616.858	27.65
617.049	27.42
617.241	27.27
617.432	27.3
617.624	27.43
617.815	27.59
618.007	27.73
618.198	28.31
618.39	28.26
618.581	28.09
618.773	28.47
618.964	28.6
619.155	28.87
619.347	28.91
619.538	29.08
619.729	28.96
619.921	28.92
620.112	28.99
620.303	28.94
620.494	29.02
620.686	29.02
620.877	28.59
621.068	28.44
621.259	28.31
621.451	28.29
621.642	28.09
621.833	27.98
622.024	28.25
622.215	28.26
622.406	28.05
622.597	28.08
622.788	28.21
622.98	28.38
623.171	28.53
623.362	28.64
623.553	28.85
623.744	28.78
623.935	28.81
624.126	28.75
624.317	28.78
624.508	28.87
624.698	29.01
624.889	29
625.08	29.17
625.271	29.34
625.462	29.41
625.653	29.1
625.844	29.2
626.034	29.03
626.225	29
626.416	28.99
626.607	29
626.798	29.06
626.988	29.2
627.179	29.23
627.37	28.92
627.56	29
627.751	29.2
627.942	29.31
628.132	29.53
628.323	29.54
628.514	29.63
628.704	29.67
628.895	29.52
629.085	29.37
629.276	29.32
629.466	29.45
629.657	29.42
629.847	29.4
630.038	29.38
630.228	29.43
630.419	29.32
630.609	29.12
630.8	29.13
630.99	29.17
631.181	29.39
631.371	29.54
631.561	29.71
631.752	29.66
631.942	29.67
632.132	29.73
632.323	29.62
632.513	29.74
632.703	30
632.893	30.05
633.084	29.92
633.274	29.73
633.464	29.54
633.654	29.46
633.844	29.45
634.034	29.41
634.225	29.25
634.415	29.36
634.605	29.56
634.795	29.6
634.985	29.45
635.175	29.47
635.365	29.32
635.555	29.47
635.745	29.46
635.935	29.36
636.125	29.31
636.315	29.56
636.505	29.61
636.695	29.36
636.885	29.31
637.075	29.23
637.265	29.31
637.455	29.21
637.644	29.22
637.834	29.58
638.024	29.54
638.214	29.75
638.404	29.74
638.593	29.74
638.783	29.89
638.973	30.06
639.163	30.31
639.352	30.45
639.542	31.08
639.732	31.18
639.921	31.25
640.111	31.49
640.301	31.4
640.49	31.06
640.68	31.04
640.87	31.02
641.059	30.96
641.249	31.01
641.438	30.86
641.628	30.31
641.817	29.97
642.007	29.55
642.196	29.59
642.386	29.98
642.575	30.55
642.764	30.58
642.954	30.36
643.143	30.58
643.333	30.53
643.522	30.53
643.711	31.06
643.901	31.32
644.09	31.42
644.279	31.43
644.469	31.02
644.658	30.84
644.847	30.94
645.036	31.11
645.226	31.01
645.415	30.91
645.604	31.11
645.793	30.79
645.982	30.67
646.171	31.03
646.361	31.13
646.55	31.78
646.739	31.4
646.928	31.42
647.117	31.46
647.306	31.5
647.495	31.57
647.684	31.29
647.873	31.45
648.062	31.34
648.251	30.89
648.44	31.13
648.629	30.63
648.818	31.32
649.007	31.13
649.196	31.46
649.384	31.55
649.573	31.21
649.762	31.32
649.951	31.21
650.14	31.5
650.328	31.83
650.517	31.8
650.706	31.89
650.895	31.67
651.083	31.69
651.272	31.37
651.461	31.06
651.65	31.69
651.838	32.03
652.027	32.09
652.216	31.64
652.404	31.68
652.593	31.46
652.781	31.55
652.97	31.57
653.158	32.11
653.347	32.46
653.535	32.58
653.724	32.21
653.912	32.09
654.101	32.29
654.289	32.71
654.478	32.41
654.666	32.37
654.855	32.66
655.043	32.43
655.231	31.59
655.42	31.35
655.608	31.82
655.796	31.71
655.985	31.72
656.173	31.66
656.361	31.63
656.55	31.77
656.738	31.78
656.926	31.71
657.114	32.32
657.302	32.71
657.491	32.64
657.679	32.09
657.867	32.4
658.055	32.25
658.243	32.11
658.431	32.2
658.619	32.34
658.807	32.48
658.996	32.53
659.184	32.09
659.372	32.34
659.56	32.48
659.748	32.53
659.936	32.67
660.124	32.66
660.311	32.87
660.499	32.71
660.687	32.7
660.875	32.82
661.063	32.58
661.251	32.72
661.439	32.55
661.627	32.61
661.814	32.63
662.002	32.26
662.19	32.71
662.378	32.61
662.565	32.88
662.753	33.02
662.941	32.97
663.129	33.02
663.316	33.33
663.504	33.28
663.692	33.34
663.879	33.6
664.067	33.85
664.254	33.59
664.442	33.28
664.63	33.39
664.817	33.37
665.005	33.22
665.192	33.55
665.38	33.21
665.567	33.01
665.755	32.9
665.942	32.75
666.13	32.94
666.317	32.87
666.504	33.3
666.692	33.71
666.879	33.75
667.067	33.91
667.254	33.47
667.441	33.61
667.629	33.48
667.816	33.47
668.003	33.62
668.19	33.65
668.378	33.63
668.565	33.81
668.752	33.27
668.939	32.81
669.127	32.96
669.314	33.37
669.501	33.6
669.688	34.04
669.875	34.26
670.062	34.06
670.249	34.16
670.436	34.42
670.623	34.12
670.81	34.21
670.997	34.81
671.184	34.15
671.371	34.11
671.558	34.09
671.745	34.22
671.932	33.92
672.119	33.84
672.306	33.82
672.493	33.76
672.68	33.93
672.867	34.18
673.054	33.95
673.24	34.64
673.427	34.57
673.614	34.41
673.801	34.74
673.988	35.02
674.174	35.1
674.361	34.87
674.548	34.67
674.734	34.64
674.921	34.05
675.108	34.13
675.294	33.55
675.481	33.52
675.668	33.3
675.854	32.54
676.041	32.43
676.227	32.76
676.414	33.09
676.601	33.43
676.787	33.56
676.974	34.13
677.16	33.96
677.347	34.3
677.533	34.48
677.719	34.71
677.906	34.89
678.092	34.93
678.279	34.47
678.465	34.14
678.651	33.96
678.838	33.75
679.024	33.5
679.21	33.44
679.397	33.59
679.583	33.38
679.769	33.43
679.955	33.5
680.142	33.6
680.328	34.27
680.514	34.6
680.7	34.37
680.886	34.55
681.073	35.06
681.259	34.95
681.445	35.15
681.631	35.24
681.817	35.35
682.003	35.36
682.189	34.98
682.375	34.75
682.561	34.35
682.747	34.86
682.933	35.17
683.119	34.72
683.305	35.05
683.491	34.8
683.677	34.81
683.863	34.78
684.049	35.12
684.235	35.21
684.42	35.02
684.606	35.04
684.792	34.98
684.978	34.47
685.164	34.66
685.349	34.64
685.535	34.69
685.721	34.3
685.907	34.08
686.092	33.7
686.278	34.03
686.464	34.2
686.649	34.22
686.835	33.96
687.021	34.5
687.206	34.21
687.392	33.89
687.577	33.83
687.763	34.26
687.948	33.94
688.134	34.25
688.319	34.58
688.505	34.86
688.69	35.05
688.876	35.23
689.061	35.01
689.247	35.16
689.432	35.75
689.618	36.02
689.803	36.32
689.988	36.38
690.174	35.98
690.359	35.73
690.544	35.27
690.73	35.49
690.915	35.52
691.1	35.35
691.285	35.37
691.471	34.98
691.656	35.05
691.841	34.82
692.026	35.13
692.211	35.8
692.396	35.86
692.582	36.28
692.767	36.5
692.952	36.39
693.137	36.29
693.322	36.43
693.507	36.57
693.692	36.4
693.877	36.64
694.062	36.67
694.247	36.12
694.432	35.93
694.617	35.85
694.802	35.5
694.987	35.62
695.172	35.88
695.357	35.59
695.541	35.85
695.726	36.05
695.911	36.07
696.096	36.07
696.281	36.42
696.466	36.4
696.65	36.29
696.835	36.62
697.02	36.93
697.204	37.09
697.389	37.39
697.574	36.91
697.759	36.78
697.943	36.47
698.128	36.28
698.312	36.05
698.497	35.86
698.682	36.01
698.866	35.94
699.051	35.76
699.235	35.58
699.42	35.33
699.604	35.39
699.789	35.11
699.973	35.06
700.158	35.5
700.342	35.51
700.527	35.69
700.711	35.75
700.895	35.28
701.08	35.5
701.264	35.6
701.448	35.82
701.633	35.76
701.817	35.83
702.001	36.13
702.186	35.63
702.37	35.72
702.554	35.57
702.738	34.96
702.923	35.09
703.107	35.12
703.291	35.37
703.475	35.68
703.659	35.88
703.843	36.33
704.027	36.27
704.212	36.53
704.396	36.62
704.58	36.74
704.764	37.34
704.948	37.42
705.132	36.98
705.316	36.67
705.5	36.75
705.684	37.02
705.868	36.5
706.052	36.36
706.235	35.95
706.419	35.78
706.603	36.08
706.787	35.24
706.971	35.52
707.155	35.31
707.339	35.1
707.522	34.7
707.706	34.94
707.89	35.13
708.074	34.95
708.257	35.42
708.441	35.64
708.625	36.04
708.808	37.02
708.992	36.99
709.176	37.09
709.359	37.38
709.543	37.55
709.727	37.4
709.91	37.56
710.094	37.53
710.277	37.57
710.461	37.79
710.644	37.04
710.828	36.61
711.011	36.32
711.195	36.18
711.378	36.47
711.562	36.38
711.745	35.98
711.928	35.89
712.112	35.79
712.295	36
712.478	35.23
712.662	35.67
712.845	35.51
713.028	36
713.212	35.97
713.395	35.32
713.578	35.79
713.761	36.33
713.945	36.75
714.128	36.78
714.311	36.75
714.494	37.34
714.677	37.23
714.86	38.09
715.043	38.23
715.227	38.5
715.41	38.86
715.593	38.82
715.776	38.86
715.959	38.77
716.142	39.34
716.325	39.12
716.508	39.18
716.691	39.64
716.874	39.9
717.057	39.94
717.239	39.89
717.422	40.09
717.605	39.48
717.788	39.62
717.971	39
718.154	39.29
718.337	39.65
718.519	39.68
718.702	39.72
718.885	39.02
719.068	38.64
719.25	39.1
719.433	39.14
719.616	39.65
719.798	38.79
719.981	39.95
720.164	39.67
720.346	39.05
720.529	39
720.712	38.79
720.894	38.63
721.077	38.52
721.259	38.18
721.442	37.7
721.624	37.37
721.807	37.32
721.989	36.55
722.172	36.36
722.354	36.23
722.537	36.47
722.719	35.92
722.901	35.9
723.084	36.34
723.266	36.97
723.448	37.71
723.631	37.51
723.813	37.49
723.995	37.26
724.178	37.32
724.36	37.48
724.542	36.98
724.724	37.51
724.907	37.62
725.089	36.48
725.271	36.95
725.453	36.33
725.635	37.21
725.817	37.38
725.999	37.85
726.181	37.9
726.364	38.16
726.546	38.85
726.728	39.16
726.91	39.09
727.092	39.54
727.274	38.21
727.456	38.52
727.638	38.52
727.819	38.18
728.001	38.36
728.183	38.58
728.365	38.28
728.547	38.32
728.729	38.4
728.911	38.32
729.093	38.82
729.274	38.68
729.456	38.35
729.638	36.94
729.82	38.06
730.001	37.91
730.183	37.82
730.365	38.33
730.546	37.83
730.728	37
730.91	36.75
731.091	36.38
731.273	36.18
731.455	35.87
731.636	37.13
731.818	36.93
731.999	37.06
732.181	36.89
732.362	36.51
732.544	37.34
732.725	37.39
732.907	37.83
733.088	39.16
733.27	39.7
733.451	40.57
733.633	41.33
733.814	41.79
733.995	41.46
734.177	41.84
734.358	41.81
734.539	41.57
734.721	41.45
734.902	41.14
735.083	40.18
735.264	40.84
735.446	41.15
735.627	39.73
735.808	38.77
735.989	39.74
736.17	40.59
736.351	40.73
736.533	39.98
736.714	39.61
736.895	40.36
737.076	40.18
737.257	40.13
737.438	39.44
737.619	39.96
737.8	40.06
737.981	39.15
738.162	38.2
738.343	39.04
738.524	38.85
738.705	39.64
738.886	38.8
739.067	38.94
739.247	38.56
739.428	38.9
739.609	38.13
739.79	38.86
739.971	38.75
740.151	38.15
740.332	37.6
740.513	36.83
740.694	37.51
740.874	37.48
741.055	37.49
741.236	37.11
741.417	36.88
741.597	37.3
741.778	36.78
741.958	36.91
742.139	38.09
742.32	38.15
742.5	39.01
742.681	38.42
742.861	38.53
743.042	39.28
743.222	39.54
743.403	39.88
743.583	40.31
743.764	40.25
743.944	39.28
744.124	38.57
744.305	37.93
744.485	38.26
744.666	38.13
744.846	38.32
745.026	37.78
745.207	37.7
745.387	37.23
745.567	38.51
745.747	39.3
745.928	40.36
746.108	39.93
746.288	40.85
746.468	41.19
746.648	41.25
746.829	41.5
747.009	40.91
747.189	41.03
747.369	41.49
747.549	40
747.729	39.16
747.909	39.2
748.089	39.6
748.269	39.44
748.449	39.27
748.629	38.88
748.809	39.35
748.989	40.73
749.169	40.35
749.349	38.83
749.529	39.53
749.709	39.31
749.889	39.85
750.068	39.55
750.248	40.19
750.428	41.37
750.608	41.91
750.788	41.3
750.967	39.55
751.147	40.46
751.327	41.47
751.507	40.23
751.686	40.52
751.866	40.47
752.046	40.91
752.225	40.79
752.405	40.72
752.585	40.61
752.764	40.63
752.944	41.36
753.123	40.88
753.303	41.5
753.482	41.84
753.662	41.62
753.841	40.31
754.021	40.44
754.2	40.22
754.38	39.22
754.559	38.77
754.739	37.8
754.918	37.82
755.097	37.46
755.277	37.33
755.456	38.06
755.635	37.98
755.815	38.33
755.994	37.44
756.173	36.64
756.352	35.66
756.532	35.46
756.711	36.59
756.89	36.03
757.069	37.24
757.248	36.46
757.427	35.73
757.607	36.09
757.786	37.14
757.965	37.16
758.144	37.69
758.323	38.84
758.502	39.53
758.681	39.77
758.86	40.82
759.039	40.4
759.218	41.52
759.397	42.52
759.576	42.35
759.755	41.82
759.934	42.15
760.113	42.3
760.291	42.07
760.47	41.99
760.649	41.18
760.828	41.07
761.007	39.86
761.186	39.86
761.364	39.15
761.543	39.15
761.722	38.87
761.901	39.25
762.079	39.28
762.258	39.03
762.437	39.13
762.615	38.99
762.794	38.83
762.972	38.69
763.151	38.25
763.33	38.55
763.508	38.46
763.687	38.52
763.865	38.92
764.044	38.9
764.222	39.16
764.401	39.37
764.579	39.48
764.758	39.34
764.936	40.14
765.114	40.04
765.293	39.8
765.471	40.03
765.65	39.9
765.828	39.39
766.006	40.32
766.184	40.17
766.363	39.46
766.541	40.02
766.719	41.36
766.898	41.69
767.076	41.97
767.254	42.06
767.432	42.47
767.61	42.87
767.788	42.29
767.967	41.35
768.145	41.23
768.323	41.72
768.501	41.79
768.679	40.72
768.857	39.86
769.035	39.98
769.213	40.44
769.391	40.84
769.569	41.36
769.747	43.07
769.925	42.62
770.103	42.28
770.281	42.6
770.459	43.37
770.636	42.63
770.814	44.35
770.992	42.8
771.17	41.15
771.348	40.04
771.525	41.1
771.703	39.01
771.881	39.37
772.059	40.89
772.236	41.38
772.414	39.97
772.592	41.01
772.769	39.53
772.947	40.06
773.125	41.32
773.302	41.8
773.48	40.45
773.657	41.88
773.835	41.92
774.013	41.51
774.19	42
774.368	42.38
774.545	41.83
774.723	42.54
774.9	41.19
775.077	42.15
775.255	41.12
775.432	41.99
775.61	41.25
775.787	40.71
775.964	40.87
776.142	40.73
776.319	41.81
776.496	40.74
776.674	40.29
776.851	41.94
777.028	39.91
777.205	41.17
777.382	40.18
777.56	40.19
777.737	43.05
777.914	43.14
778.091	41.8
778.268	40.61
778.445	41.47
778.622	40.52
778.8	41.57
778.977	42.51
779.154	45.76
779.331	45.89
779.508	46.28
779.685	44.78
779.862	43.96
780.038	44.38
780.215	44.72
780.392	44.44
780.569	46.52
780.746	47.28
780.923	47.28
781.1	44.02
781.277	42.83
781.453	42.28
781.63	40.82
781.807	41.66
781.984	41.14
782.16	41.96
782.337	43.08
782.514	40.33
782.691	40.59
782.867	40.24
783.044	41.32
783.221	42.86
783.397	44.69
783.574	45.36
783.75	46.44
783.927	45.87
784.103	44.3
784.28	44.38
784.456	44.92
784.633	44.04
784.809	43.53
784.986	41.24
785.162	40.73
785.339	38.84
785.515	37.92
785.692	37.3
785.868	37.84
786.044	39.07
786.221	37.5
786.397	38.4
786.573	37.88
786.749	39.04
786.926	41.18
787.102	42.45
787.278	44.99
787.454	45.97
787.631	45.71
787.807	45.24
787.983	43.45
788.159	43.56
788.335	43.87
788.511	43.61
788.687	44.32
788.863	43.63
789.039	42.38
789.216	40.12
789.392	41.33
789.568	41.55
789.744	43.76
789.919	43.56
790.095	44.12
790.271	43.91
790.447	43.4
790.623	42.25
790.799	42.12
790.975	40.9
791.151	41.76
791.327	41.02
791.502	39.5
791.678	36.67
791.854	37.42
792.03	38.21
792.205	39.14
792.381	40.45
792.557	41.65
792.733	41.67
792.908	43.33
793.084	43.15
793.259	40.57
793.435	41.6
793.611	45.33
793.786	46.38
793.962	44.45
794.137	43.85
794.313	42.75
794.488	41.92
794.664	42.4
794.839	42.39
795.015	43.24
795.19	45.12
795.366	45.69
795.541	42.22
795.716	41.03
795.892	42.06
796.067	41.38
796.242	42.3
796.418	40.59
796.593	39.82
796.768	40.5
796.944	38.29
797.119	36.9
797.294	37.15
797.469	37.16
797.644	38.21
797.82	37.09
797.995	36.93
798.17	35.89
798.345	38.1
798.52	38.18
798.695	38.32
798.87	40.4
799.045	41.75
799.22	43.19
799.395	44.08
799.57	45.53
799.745	46.6
799.92	47.62
800.095	48.64
800.27	48.46
800.445	49.29
800.62	47.25
800.795	48.86
800.97	48.24
801.145	44.98
801.319	46.63
801.494	45.58
801.669	45.77
801.844	45.42
802.018	45.8
802.193	44.82
802.368	43.44
802.543	43.22
802.717	42.17
802.892	42.69
803.067	43.39
803.241	40.44
803.416	39.68
803.59	39.02
803.765	39.24
803.94	39.06
804.114	38.99
804.289	40.24
804.463	42.54
804.638	39.66
804.812	41.53
804.986	40.85
805.161	42.95
805.335	42.71
805.51	43.27
805.684	43.76
805.858	43.25
806.033	43.28
806.207	41.21
806.381	41.7
806.556	41.83
806.73	39.48
806.904	38.33
807.078	38.56
807.253	38
807.427	38.36
807.601	37.38
807.775	38.75
807.949	40.26
808.123	42.51
808.298	43.89
808.472	45.55
808.646	46.86
808.82	48.36
808.994	46.77
809.168	45.98
809.342	45.54
809.516	45.28
809.69	42.94
809.864	42.17
810.038	43.08
810.212	41.22
810.385	39.72
810.559	42.13
810.733	42.76
810.907	42.29
811.081	43.97
811.255	44.19
811.428	44.94
811.602	44.74
811.776	44.28
811.95	42.87
812.123	42.2
812.297	42.94
812.471	39.97
812.644	41.64
812.818	41.68
812.992	41.3
813.165	41.28
813.339	39.95
813.512	38.93
813.686	38.91
813.86	38.83
814.033	40.63
814.207	40.54
814.38	40.48
814.554	37.32
814.727	36.84
814.9	37.59
815.074	38.48
815.247	40.07
815.421	40.17
815.594	40.57
815.767	38.86
815.941	38.56
816.114	37.14
816.287	38.42
816.46	40.07
816.634	41.53
816.807	43.97
816.98	42.65
817.153	40.34
817.327	41.24
817.5	42.55
817.673	46.08
817.846	46.15
818.019	49.56
818.192	48.87
818.365	46.22
818.538	49.21
818.711	46.14
818.884	48.32
819.057	51.96
819.23	50.13
819.403	46.85
819.576	44.82
819.749	42.93
819.922	41.45
820.095	40.2
820.268	43.74
820.441	41.96
820.614	40.57
820.786	38.71
820.959	38.33
821.132	40.31
821.305	40.48
821.477	41.12
821.65	41.74
821.823	41.95
821.996	41.66
822.168	40.51
822.341	40.99
822.514	41.46
822.686	41.5
822.859	40.76
823.031	40.32
823.204	41.05
823.376	41.12
823.549	41.13
823.722	41.07
823.894	41.33
824.067	41.4
824.239	41.42
824.411	41.81
824.584	42.11
824.756	43.52
824.929	43.72
825.101	43.43
825.273	43.32
825.446	42.84
825.618	43.17
825.79	43.57
825.963	43.64
826.135	43.03
826.307	42.36
826.479	42
826.652	40.8
826.824	40.62
826.996	40.56
827.168	39.95
827.34	39.61
827.512	39.08
827.684	38.35
827.856	38.67
828.029	39.45
828.201	40.07
828.373	39.99
828.545	40.67
828.717	41.43
828.889	41.6
829.061	41.94
829.232	43.57
829.404	44.29
829.576	44.74
829.748	44.19
829.92	43.95
830.092	43.21
830.264	43.81
830.436	43.24
830.607	42.83
830.779	42.84
830.951	42.79
831.123	40.95
831.294	39.94
831.466	39.93
831.638	40.37
831.809	38.73
831.981	39.26
832.153	38.01
832.324	36.74
832.496	38.08
832.667	40.23
832.839	40.19
833.011	41.45
833.182	41.03
833.354	41.24
833.525	43.16
833.697	44.01
833.868	44.57
834.039	45.31
834.211	44.75
834.382	44.04
834.554	43.08
834.725	42.21
834.896	42.49
835.068	41.86
835.239	41.38
835.41	40.51
835.581	41.12
835.753	39.56
835.924	38.74
836.095	40.76
836.266	38.95
836.438	36.99
836.609	38.81
836.78	37.09
836.951	39.22
837.122	39.66
837.293	39.99
837.464	39.04
837.635	40.31
837.806	41.65
837.977	41.23
838.148	44.56
838.319	45.42
838.49	44.72
838.661	45.76
838.832	44.52
839.003	43.09
839.174	43.44
839.345	43.95
839.516	42.3
839.687	42.53
839.857	43.03
840.028	40.09
840.199	41.68
840.37	40.82
840.54	42.42
840.711	43.04
840.882	46.23
841.053	44.48
841.223	42.42
841.394	44.73
841.564	43.83
841.735	40.93
841.906	41.66
842.076	35.55
842.247	37.52
842.417	40.05
842.588	39.24
842.758	37.18
842.929	34.66
843.099	39
843.27	41.34
843.44	44.22
843.611	49.7
843.781	47.91
843.951	53.14
844.122	55.16
844.292	53.72
844.462	56.44
844.633	57.93
844.803	61.98
844.973	63.52
845.144	62.79
845.314	62.77
845.484	57.69
845.654	63.33
845.824	60.11
845.995	59.29
846.165	55.58
846.335	55.89
846.505	53.09
846.675	56.11
846.845	53.11
847.015	52.71
847.185	46.49
847.355	49.78
847.525	48.17
847.695	61.93
847.865	62.37
848.035	64.79
848.205	63.01
848.375	71.67
848.545	56.89
848.715	57.37
848.884	56.58
849.054	64.28
849.224	57.8
849.394	59.15
849.564	49.21
849.733	47.21
849.903	53.95
850.073	55.94
850.243	56.4
850.412	64.22
850.582	64.49
850.752	67.95
850.921	63.72
851.091	63.05
851.26	59.76
851.43	58.26
851.599	58.8
851.769	59.13
851.939	55.65
852.108	55.87
852.278	61.24
852.447	61.99
852.616	58.61
852.786	58.69
852.955	64.85
853.125	67.7
853.294	68.42
853.463	64.51
853.633	61.98
853.802	55.19
853.971	57.17
854.141	55.44
854.31	53.56
854.479	48.59
854.648	47.99
854.818	40.99
854.987	37.83
855.156	38.7
855.325	45.44
855.494	39.67
855.663	42.75
855.832	47.58
856.001	47.91
856.171	48.07
856.34	53.3
856.509	59.33
856.678	73.85
856.847	72.88
857.016	66.62
857.185	54.11
857.353	59.16
857.522	73.68
857.691	64.17
857.86	61.56
858.029	60.86
858.198	64.51
858.367	68.84
858.535	62.11
858.704	60.98
858.873	69.18
859.042	79.27
859.21	77.81
859.379	73.86
859.548	64.51
859.717	60.91
859.885	54.41
860.054	50.46
860.222	37.46
860.391	42.95
860.56	42.61
860.728	41.01
860.897	33.31
861.065	28.79
861.234	34.43
861.402	44.52
861.571	53.54
861.739	55.34
861.908	54.02
862.076	60.2
862.244	54.17
862.413	56.93
862.581	58
862.749	60.96
862.918	61.26
863.086	55.12
863.254	43.06
863.423	32.84
863.591	41.43
863.759	44.29
863.927	45.16
864.096	50.58
864.264	51.59
864.432	50.91
864.6	56.67
864.768	57.82
864.936	54.16
865.104	55.46
865.272	62.71
865.44	65.49
865.608	63.67
865.776	62.38
865.944	59.57
866.112	53.52
866.28	54.22
866.448	44.42
866.616	40.88
866.784	44.29
866.952	49.96
867.12	45.91
867.288	44.15
867.455	48.5
867.623	51.52
867.791	52.93
867.959	61.67
868.127	61.22
868.294	70.06
868.462	73.86
868.63	70.85
868.797	62.99
868.965	65.95
869.133	49.89
869.3	43.34
869.468	43.11
869.636	34.08
869.803	31.81
869.971	34.84
870.138	31.63
870.306	26.4
870.473	36.63
870.641	51.1
870.808	51.12
870.975	62.98
871.143	69.39
871.31	70.44
871.478	89.41
871.645	80.85
871.812	71.8
871.98	71.7
872.147	77.08
872.314	77.29
872.482	71.83
872.649	67.72
872.816	56.35
872.983	46.12
873.15	40.42
873.318	31.45
873.485	37.42
873.652	43.77
873.819	43.85
873.986	48.64
874.153	45.43
874.32	32.71
874.487	34.28
874.654	48.4
874.821	54.71
874.988	54.58
875.155	56.89
875.322	54.83
875.489	51.23
875.656	47.76
875.823	38.01
875.99	32.98
876.157	45
876.324	48.02
876.49	49.21
876.657	51.7
876.824	56.43
876.991	65.84
877.157	60.63
877.324	59.35
877.491	53.71
877.658	55.67
877.824	57.08
877.991	55.7
878.157	53.19
878.324	45.14
878.491	41.85
878.657	42.93
878.824	41.98
878.99	45.01
879.157	50.14
879.323	52.11
879.49	53.38
879.656	55.13
879.823	58.11
879.989	58.28
880.156	67.77
880.322	72.05
880.488	65.04
880.655	60.91
880.821	59.8
880.987	59.6
881.154	56.35
881.32	59.01
881.486	57.56
881.652	54.48
881.819	54.59
881.985	46.35
882.151	43.84
882.317	43.2
882.483	41.34
882.649	43.37
882.816	42.89
882.982	43.75
883.148	42.41
883.314	40.31
883.48	40.21
883.646	39.06
883.812	40.66
883.978	39.91
884.144	41.12
884.31	40.13
884.476	39.28
884.642	39.04
884.807	39.75
884.973	39.88
885.139	39.75
885.305	40.63
885.471	41.96
885.637	39.52
885.802	39.33
885.968	39.88
886.134	41.21
886.3	40.3
886.465	39.26
886.631	36.93
886.797	35.39
886.962	39.38
887.128	39.68
887.293	38.5
887.459	43.54
887.625	44.68
887.79	42.71
887.956	42.05
888.121	45.67
888.287	47.37
888.452	50.8
888.618	55.23
888.783	49.04
