Data from LC_158_Reflection_2.txt Node
Date: Mon Nov 16 22:28:41 EST 2015
User: robert
Spectrometer: USB4E03001
Autoset integration time: false
Trigger mode: 4
Integration Time (sec): 1.000000E-1
Scans to average: 15
Electric dark correction enabled: true
Nonlinearity correction enabled: false
Boxcar width: 5
Stray light correction enabled: false
XAxis mode: Wavelengths
Stop averaging: false
Number of Pixels in Spectrum: 3648
>>>>>Begin Spectral Data<<<<<
177.566	4902.41
177.785	382.96
178.005	-4074.79
178.225	253.68
178.445	285.93
178.665	-293.84
178.885	-356.86
179.105	1591.59
179.324	2454.21
179.544	-235.09
179.764	-1471.3
179.984	-512.7
180.204	-432.73
180.423	-474.7
180.643	-562.7
180.863	-375.2
181.083	-310.44
181.302	-423.36
181.522	-263.14
181.742	-225.11
181.961	-402.83
182.181	-312.01
182.401	-421.25
182.621	-1847.96
182.84	-794.41
183.06	-570.41
183.279	-351.69
183.499	-242.88
183.719	-203.11
183.938	-209.19
184.158	-249.68
184.377	-164.23
184.597	-268.61
184.816	-172.06
185.036	-109.91
185.256	-83.59
185.475	-120.67
185.695	-170.41
185.914	-281.18
186.134	-501.01
186.353	-623.09
186.572	-722.8
186.792	-1134.51
187.011	-502.31
187.231	-479.31
187.45	-317.4
187.67	-843.35
187.889	-1974.38
188.108	2983.97
188.328	-783.04
188.547	-309.73
188.766	-601.54
188.986	-759.16
189.205	-500.74
189.424	-278.05
189.644	-821.92
189.863	-967.15
190.082	-594.37
190.302	-1116.65
190.521	-764.39
190.74	801.19
190.959	290.24
191.178	413.24
191.398	393.83
191.617	416.56
191.836	367.5
192.055	882.58
192.274	431.64
192.494	507.42
192.713	520.18
192.932	1263.06
193.151	1139.41
193.37	2166.67
193.589	-1281.35
193.808	-385.69
194.027	-430.73
194.246	-4092.46
194.465	736.24
194.685	1658.1
194.904	713.5
195.123	-1120.58
195.342	-743.62
195.561	-302.58
195.78	-520
195.999	23070.42
196.218	771.53
196.436	764.9
196.655	-2613.47
196.874	-894.9
197.093	-1233.36
197.312	-1190.95
197.531	3086.88
197.75	988.6
197.969	-3411.35
198.188	-681.48
198.407	-179.4
198.625	-257.15
198.844	-205.61
199.063	-206.41
199.282	-428.1
199.501	-302.88
199.719	-217.75
199.938	-133.58
200.157	-124.64
200.376	-142.98
200.594	-233.15
200.813	-449.85
201.032	-312.23
201.251	-299.15
201.469	-296.16
201.688	-220.59
201.907	-385.61
202.125	-546.28
202.344	23941.67
202.563	4046.98
202.781	632.76
203	1775.07
203.218	1438.16
203.437	1255.81
203.656	575.64
203.874	349.88
204.093	348.11
204.311	468.25
204.53	445.11
204.748	605.11
204.967	385.85
205.185	379.09
205.404	424.72
205.622	276.86
205.841	203.95
206.059	240.59
206.278	299.62
206.496	659.26
206.715	373
206.933	315.39
207.151	277.62
207.37	338.93
207.588	363.19
207.806	341.81
208.025	692.5
208.243	-1416.07
208.461	2156.95
208.68	-18903.53
208.898	749.19
209.116	806.96
209.335	764.93
209.553	786.57
209.771	6808.75
209.989	1351.91
210.208	2812.55
210.426	-5412.97
210.644	2853.97
210.862	-2519.65
211.081	1113.86
211.299	-522.33
211.517	1895.83
211.735	-517.63
211.953	-177171.43
212.171	-4080.12
212.39	-11454.05
212.608	-32189.13
212.826	1227.94
213.044	948.23
213.262	719.84
213.48	4275.74
213.698	439.94
213.916	593.24
214.134	408.65
214.352	772
214.57	489.69
214.788	562.87
215.006	435.78
215.224	351.05
215.442	292.57
215.66	260.04
215.878	182.78
216.096	219.26
216.314	208.1
216.532	429.9
216.75	371.18
216.968	336.94
217.185	807.58
217.403	1460.65
217.621	-4281.09
217.839	-1184.55
218.057	-1455.13
218.275	2695.12
218.492	800.74
218.71	1522.62
218.928	432.9
219.146	406.08
219.363	329.06
219.581	263.47
219.799	180.92
220.017	186.99
220.234	160.96
220.452	163.68
220.67	190.68
220.887	197.57
221.105	197.03
221.323	145.21
221.54	130.29
221.758	171.67
221.976	200.02
222.193	206.92
222.411	126.02
222.629	143.8
222.846	143.57
223.064	167.72
223.281	161.48
223.499	147.75
223.716	159.02
223.934	144.73
224.151	127.57
224.369	100.66
224.586	110.39
224.804	127.16
225.021	136.82
225.239	130.15
225.456	117.24
225.674	113.6
225.891	97.03
226.108	108.52
226.326	104.5
226.543	95.04
226.76	100.57
226.978	88.82
227.195	84.39
227.413	70.38
227.63	59.51
227.847	47.77
228.064	43.89
228.282	42.79
228.499	35.42
228.716	31.41
228.934	27.95
229.151	26.26
229.368	26.21
229.585	23.73
229.802	25.36
230.02	24.27
230.237	27.96
230.454	28.2
230.671	27.09
230.888	25.37
231.105	26.79
231.323	28.93
231.54	28.23
231.757	25.92
231.974	27.91
232.191	27.34
232.408	32.14
232.625	24.77
232.842	23.45
233.059	26.34
233.276	28.96
233.493	28.92
233.71	25.61
233.927	31.3
234.144	34.76
234.361	31.62
234.578	29.18
234.795	25.54
235.012	27.18
235.229	29.58
235.446	27.14
235.663	30.87
235.879	31.39
236.096	34.77
236.313	31.79
236.53	33.32
236.747	37.78
236.964	38.93
237.181	46.33
237.397	48.66
237.614	46.42
237.831	45.87
238.048	44.89
238.264	44.2
238.481	41.2
238.698	44.91
238.915	43.53
239.131	42.65
239.348	42.12
239.565	38.62
239.781	37.43
239.998	36.76
240.215	36.76
240.431	35.47
240.648	36.03
240.865	33.65
241.081	29.35
241.298	27.95
241.514	25.94
241.731	23.85
241.947	23.07
242.164	21.54
242.38	19.4
242.597	19.1
242.814	18.7
243.03	16.77
243.246	17.66
243.463	17.22
243.679	17.68
243.896	15.84
244.112	17.93
244.329	17.01
244.545	16.57
244.762	17.57
244.978	18.96
245.194	18.78
245.411	18.03
245.627	17.5
245.843	19.43
246.06	18.04
246.276	19.37
246.492	16.56
246.709	16.35
246.925	16.31
247.141	16.64
247.357	15.5
247.574	15.27
247.79	15.73
248.006	14.92
248.222	14.64
248.439	14.66
248.655	15.11
248.871	16.44
249.087	16.43
249.303	16.36
249.519	17.07
249.736	18.6
249.952	17.51
250.168	18.61
250.384	20.41
250.6	19.82
250.816	20.16
251.032	17.31
251.248	16.88
251.464	16.4
251.68	16.68
251.896	16.38
252.112	16.19
252.328	18.35
252.544	18.57
252.76	20.16
252.976	18.63
253.192	18.9
253.408	19.56
253.624	20.11
253.84	20.74
254.056	24.38
254.272	23.04
254.487	23.13
254.703	23.08
254.919	22.78
255.135	20.23
255.351	24.01
255.567	24.81
255.782	28.01
255.998	26.53
256.214	27.37
256.43	20.93
256.646	21.74
256.861	21.57
257.077	20.13
257.293	20.25
257.508	19.92
257.724	20.77
257.94	19.05
258.155	15.79
258.371	16.35
258.587	14.7
258.802	15.9
259.018	14.98
259.234	14.13
259.449	14.94
259.665	14.29
259.88	14.14
260.096	13.18
260.312	12.53
260.527	12.87
260.743	12.97
260.958	13.24
261.174	12.65
261.389	13.65
261.605	14.3
261.82	14.18
262.036	14.9
262.251	15.77
262.466	15.25
262.682	17.14
262.897	17.84
263.113	16.8
263.328	17.22
263.543	18.59
263.759	17.83
263.974	16.66
264.189	16.1
264.405	14.58
264.62	14.36
264.835	17.23
265.051	17.57
265.266	17.98
265.481	20.54
265.696	21.2
265.912	21.59
266.127	19.8
266.342	19.22
266.557	19.12
266.773	20.04
266.988	19.35
267.203	18.61
267.418	17.25
267.633	16.17
267.848	16.01
268.064	14.21
268.279	13.92
268.494	13.65
268.709	14.06
268.924	14.92
269.139	15.2
269.354	14.85
269.569	13.73
269.784	14.16
269.999	15.09
270.214	13.51
270.429	15.83
270.644	14.55
270.859	13.88
271.074	14.62
271.289	13.97
271.504	12.41
271.719	11.88
271.934	12.29
272.149	11.36
272.363	11.18
272.578	10.27
272.793	9.16
273.008	9.31
273.223	10.1
273.438	9.34
273.653	9.58
273.867	9.86
274.082	10.68
274.297	10.83
274.512	12.14
274.726	11.18
274.941	13.69
275.156	15.11
275.371	16.21
275.585	17.01
275.8	18.37
276.015	17.54
276.229	17.76
276.444	18.31
276.659	19.05
276.873	19.06
277.088	20.63
277.302	20.69
277.517	19.51
277.732	19.97
277.946	18.49
278.161	19
278.375	20.53
278.59	21.13
278.804	20.61
279.019	20.14
279.233	19.73
279.448	19.43
279.662	17.15
279.877	17.97
280.091	17.41
280.306	16.58
280.52	15.66
280.735	12.68
280.949	12.66
281.163	12.9
281.378	12.07
281.592	10.97
281.806	10.93
282.021	10.62
282.235	11.6
282.449	11.22
282.664	12.51
282.878	12.06
283.092	14.3
283.307	13.39
283.521	13.84
283.735	14.05
283.949	15.41
284.164	15.42
284.378	16.16
284.592	13.82
284.806	13.88
285.02	13.87
285.234	12.98
285.449	11.22
285.663	11.27
285.877	10.3
286.091	10.5
286.305	10.03
286.519	9.56
286.733	9.35
286.947	10.65
287.161	10.72
287.375	11.2
287.589	12.16
287.803	13.6
288.017	14.42
288.231	14.59
288.445	14.96
288.659	15.79
288.873	15.88
289.087	17.12
289.301	16.66
289.515	15.75
289.729	15.31
289.943	15.43
290.157	14.89
290.371	15.85
290.584	15.62
290.798	16.25
291.012	16.11
291.226	15.88
291.44	15.86
291.654	15.71
291.867	16.49
292.081	15.89
292.295	15.34
292.509	15.15
292.722	14.55
292.936	14.68
293.15	15.47
293.364	14.46
293.577	14.62
293.791	13.35
294.005	13.97
294.218	14.3
294.432	14.89
294.645	15.62
294.859	15.9
295.073	14.56
295.286	14.7
295.5	12.35
295.713	12.18
295.927	12.14
296.14	12.37
296.354	12.01
296.568	11.3
296.781	11.73
296.994	11.49
297.208	11.47
297.421	11.91
297.635	12.17
297.848	12.73
298.062	13.54
298.275	13.96
298.489	13.95
298.702	14.4
298.915	14.6
299.129	15.1
299.342	14.95
299.555	15.58
299.769	16.24
299.982	16.08
300.195	16.61
300.409	16.32
300.622	16.2
300.835	17.46
301.048	17.29
301.262	17.54
301.475	16.82
301.688	17.36
301.901	17.15
302.115	17.04
302.328	17.53
302.541	17.15
302.754	16.41
302.967	16.48
303.18	15.59
303.393	15.88
303.607	16.81
303.82	18.27
304.033	18.51
304.246	18.25
304.459	18.32
304.672	18.58
304.885	18.73
305.098	19.83
305.311	19.82
305.524	19.91
305.737	19.23
305.95	19.7
306.163	17.7
306.376	16.7
306.589	17.23
306.802	16.28
307.015	16.52
307.228	16.91
307.44	16.79
307.653	16.72
307.866	16.32
308.079	17.89
308.292	17.46
308.505	18.11
308.718	18.8
308.93	17.58
309.143	18.18
309.356	17.42
309.569	16.79
309.781	17.27
309.994	17.15
310.207	17.63
310.42	15.77
310.632	14.11
310.845	14.42
311.058	13.78
311.27	14.54
311.483	14.22
311.696	14.18
311.908	14.47
312.121	13.44
312.333	14.2
312.546	13.83
312.759	14.91
312.971	15.9
313.184	15.54
313.396	15.64
313.609	16.07
313.821	16.03
314.034	16.17
314.246	16.35
314.459	16.25
314.671	16.03
314.884	15.4
315.096	14.37
315.309	13.52
315.521	14.78
315.733	13.7
315.946	12.52
316.158	12.08
316.371	12.05
316.583	11.84
316.795	12.55
317.008	11.9
317.22	12.79
317.432	12.41
317.644	13.81
317.857	11.21
318.069	11.48
318.281	11.53
318.494	12.01
318.706	12.14
318.918	12.46
319.13	13.85
319.342	14.25
319.555	14.11
319.767	15.92
319.979	16.29
320.191	17.61
320.403	19.19
320.615	19.97
320.827	20.99
321.039	20.46
321.252	18.77
321.464	16.73
321.676	15.77
321.888	15.65
322.1	15.28
322.312	13.37
322.524	12.91
322.736	12.56
322.948	11.74
323.16	10.09
323.372	10.92
323.584	11.25
323.796	10.41
324.007	10.7
324.219	10.14
324.431	10.32
324.643	11.48
324.855	11.67
325.067	11.98
325.279	12.45
325.491	12.75
325.702	11.67
325.914	12.7
326.126	15.07
326.338	15.54
326.55	15.89
326.761	15.64
326.973	15.92
327.185	16.93
327.396	16.84
327.608	16.97
327.82	17.66
328.032	18.44
328.243	17.87
328.455	17.48
328.666	16.5
328.878	17.23
329.09	16.89
329.301	16.25
329.513	15.38
329.725	14.21
329.936	13.57
330.148	13.39
330.359	12.97
330.571	13.78
330.782	12.85
330.994	14.31
331.205	14.01
331.417	13.44
331.628	14.05
331.84	13.92
332.051	15.57
332.262	16.32
332.474	15.83
332.685	17.14
332.897	15.45
333.108	15.95
333.319	14.72
333.531	14.63
333.742	14.95
333.953	12.82
334.165	12.61
334.376	11.07
334.587	11.34
334.799	10.97
335.01	9.16
335.221	9.82
335.432	9.7
335.644	10.01
335.855	10.14
336.066	10.98
336.277	12.51
336.488	13.03
336.7	13.42
336.911	13.04
337.122	13.28
337.333	14.35
337.544	15.38
337.755	15.39
337.966	15.82
338.177	15.76
338.388	15.66
338.599	16.16
338.811	15.78
339.022	15.92
339.233	16.27
339.444	16.47
339.655	15.1
339.866	14.9
340.076	15.36
340.287	15.59
340.498	15.69
340.709	14.97
340.92	14.34
341.131	14.31
341.342	14.04
341.553	13.64
341.764	14.14
341.975	14.97
342.185	13.74
342.396	13.36
342.607	13.31
342.818	13.5
343.029	13.82
343.239	13.84
343.45	14.31
343.661	14.02
343.872	13.5
344.082	12.7
344.293	12.83
344.504	13.07
344.714	12.02
344.925	11.12
345.136	10.24
345.346	8.6
345.557	8.75
345.768	8.06
345.978	8.35
346.189	8.91
346.399	8.93
346.61	8.75
346.821	9.41
347.031	10.59
347.242	10.72
347.452	11.17
347.663	12.59
347.873	12.79
348.084	12.91
348.294	13.63
348.504	13.62
348.715	13.87
348.925	13.21
349.136	12.41
349.346	11.36
349.557	11.33
349.767	11.71
349.977	11.44
350.188	10.92
350.398	11.49
350.608	10.54
350.819	10.43
351.029	10.58
351.239	11.21
351.449	11.41
351.66	12.38
351.87	12.69
352.08	11.82
352.29	12.17
352.501	12
352.711	11.52
352.921	12.04
353.131	11.61
353.341	11.3
353.552	11.12
353.762	11.26
353.972	10.51
354.182	10.93
354.392	10.9
354.602	10.85
354.812	11.04
355.022	11.49
355.232	11.04
355.442	11.35
355.652	11.29
355.862	11
356.072	11.07
356.282	11.19
356.492	11
356.702	11.49
356.912	11.96
357.122	12.07
357.332	11.35
357.542	11.59
357.752	11.72
357.962	11.38
358.171	11.71
358.381	11.9
358.591	12.07
358.801	11.83
359.011	12
359.221	11.41
359.43	11.69
359.64	12.18
359.85	12.12
360.06	12.07
360.269	12.12
360.479	11.81
360.689	11.75
360.899	11.21
361.108	11.1
361.318	11.1
361.528	10.54
361.737	10.24
361.947	9.38
362.156	9.5
362.366	9.29
362.576	9.48
362.785	9.63
362.995	9.25
363.204	9.81
363.414	9.44
363.623	9.09
363.833	9.63
364.042	9.58
364.252	9.82
364.461	9.41
364.671	9.32
364.88	9.52
365.09	9.51
365.299	9.91
365.509	9.26
365.718	9.24
365.927	9.07
366.137	9.24
366.346	8.95
366.555	9.12
366.765	8.96
366.974	9.4
367.183	9.27
367.393	8.85
367.602	8.03
367.811	8.44
368.021	8.46
368.23	8.71
368.439	8.4
368.648	8.79
368.857	9.63
369.067	9.38
369.276	9.17
369.485	9.41
369.694	9.62
369.903	10.57
370.112	10.53
370.321	10.51
370.531	10.65
370.74	10.47
370.949	10.14
371.158	9.37
371.367	9.82
371.576	9.43
371.785	8.68
371.994	8.66
372.203	8.44
372.412	8.48
372.621	8.74
372.83	8.6
373.039	8.86
373.248	8.4
373.457	8.6
373.666	8.45
373.874	8.75
374.083	9.41
374.292	9.34
374.501	9
374.71	8.75
374.919	8.93
375.128	8.75
375.336	8.82
375.545	9.32
375.754	8.99
375.963	8.74
376.171	8.06
376.38	7.95
376.589	7.95
376.798	7.85
377.006	8.02
377.215	8.01
377.424	7.92
377.632	7.84
377.841	7.6
378.05	7.74
378.258	7.53
378.467	7.89
378.675	7.73
378.884	7.94
379.093	8.09
379.301	7.45
379.51	7.17
379.718	6.89
379.927	6.94
380.135	6.58
380.344	6.7
380.552	6.97
380.761	6.66
380.969	6.4
381.177	6.41
381.386	6.07
381.594	6.19
381.803	6.41
382.011	6.53
382.219	6.12
382.428	6.14
382.636	5.89
382.845	6.17
383.053	6.34
383.261	6.65
383.469	6.55
383.678	6.91
383.886	7.15
384.094	7.09
384.302	7.09
384.511	7.5
384.719	7.81
384.927	7.63
385.135	7.72
385.343	8.06
385.552	7.61
385.76	7.41
385.968	7.2
386.176	6.78
386.384	6.51
386.592	6.2
386.8	5.72
387.008	5.69
387.216	5.78
387.424	5.5
387.633	5.52
387.841	5.89
388.049	5.91
388.257	6.01
388.465	6.18
388.672	6.43
388.88	6.79
389.088	7.03
389.296	6.85
389.504	7.14
389.712	7.12
389.92	6.66
390.128	6.56
390.336	6.58
390.544	6.62
390.751	6.38
390.959	6.1
391.167	5.87
391.375	5.97
391.583	5.98
391.79	5.79
391.998	5.77
392.206	6.01
392.414	5.81
392.621	5.66
392.829	5.71
393.037	5.99
393.244	6.2
393.452	6.4
393.66	6.22
393.867	6.29
394.075	6.08
394.283	6.26
394.49	5.88
394.698	6.03
394.905	6.03
395.113	5.88
395.32	6.03
395.528	5.8
395.735	5.74
395.943	5.77
396.15	5.83
396.358	6.28
396.565	6.2
396.773	6.58
396.98	6.57
397.188	6.43
397.395	6.23
397.602	6.07
397.81	6.09
398.017	6.04
398.225	5.96
398.432	6.18
398.639	6.15
398.847	6.22
399.054	6.08
399.261	5.99
399.468	6.38
399.676	6.43
399.883	6.52
400.09	6.47
400.297	6.4
400.505	6.43
400.712	6.05
400.919	6.03
401.126	5.94
401.333	6.03
401.54	6.07
401.748	6.14
401.955	6.18
402.162	6.09
402.369	6.11
402.576	6.29
402.783	6.26
402.99	6.49
403.197	6.14
403.404	6.05
403.611	5.87
403.818	5.85
404.025	5.49
404.232	5.4
404.439	5.26
404.646	5.15
404.853	4.87
405.06	4.93
405.267	4.55
405.474	4.6
405.681	4.55
405.887	4.49
406.094	4.44
406.301	4.54
406.508	4.68
406.715	4.9
406.922	5
407.128	5.1
407.335	4.96
407.542	5.04
407.749	5.12
407.955	5.44
408.162	5.5
408.369	5.76
408.575	5.69
408.782	5.58
408.989	5.5
409.195	5.53
409.402	5.56
409.609	5.74
409.815	6.06
410.022	5.95
410.228	5.59
410.435	5.44
410.642	5.18
410.848	5.4
411.055	5.23
411.261	5.05
411.468	5.23
411.674	5.12
411.881	5.04
412.087	5.05
412.294	5.08
412.5	5.07
412.706	5.18
412.913	5.03
413.119	4.69
413.326	4.73
413.532	5.06
413.738	4.93
413.945	5.17
414.151	5.14
414.357	5.12
414.564	5.16
414.77	5.37
414.976	5.39
415.182	5.72
415.389	5.76
415.595	5.83
415.801	5.53
416.007	5.48
416.214	5.4
416.42	5.44
416.626	5.21
416.832	5.03
417.038	4.85
417.244	4.94
417.45	4.66
417.657	4.92
417.863	5.1
418.069	5.31
418.275	5.23
418.481	5.19
418.687	5.14
418.893	5.17
419.099	5.08
419.305	5.23
419.511	5.15
419.717	5.25
419.923	4.97
420.129	4.91
420.335	4.83
420.541	4.93
420.746	4.94
420.952	4.9
421.158	4.91
421.364	4.88
421.57	4.78
421.776	4.74
421.982	4.62
422.187	4.62
422.393	4.57
422.599	4.48
422.805	4.45
423.01	4.46
423.216	4.36
423.422	4.33
423.628	4.42
423.833	4.36
424.039	4.5
424.245	4.53
424.45	4.66
424.656	4.7
424.862	4.73
425.067	4.75
425.273	4.69
425.478	4.83
425.684	4.8
425.889	5.01
426.095	5.1
426.301	4.96
426.506	4.98
426.712	4.98
426.917	4.77
427.123	4.88
427.328	4.66
427.533	4.87
427.739	4.77
427.944	4.82
428.15	4.56
428.355	4.48
428.561	4.6
428.766	4.64
428.971	4.62
429.177	4.78
429.382	4.76
429.587	5.01
429.793	4.74
429.998	4.84
430.203	4.8
430.408	4.85
430.614	4.92
430.819	4.74
431.024	4.86
431.229	4.92
431.434	4.87
431.64	4.67
431.845	4.75
432.05	4.9
432.255	4.81
432.46	4.77
432.665	4.75
432.87	4.65
433.076	4.87
433.281	4.8
433.486	4.69
433.691	4.56
433.896	4.52
434.101	4.43
434.306	4.38
434.511	4.34
434.716	4.36
434.921	4.46
435.126	4.44
435.331	4.21
435.535	4.09
435.74	4.17
435.945	4.44
436.15	4.46
436.355	4.47
436.56	4.42
436.765	4.49
436.97	4.31
437.174	4.18
437.379	4.21
437.584	4.38
437.789	4.55
437.993	4.47
438.198	4.46
438.403	4.77
438.608	4.8
438.812	4.67
439.017	4.66
439.222	4.76
439.426	4.66
439.631	4.73
439.836	4.62
440.04	4.52
440.245	4.47
440.45	4.35
440.654	4.04
440.859	4
441.063	4.04
441.268	3.91
441.472	4.03
441.677	4.11
441.881	3.95
442.086	3.95
442.29	3.96
442.495	4.04
442.699	4.07
442.904	4.33
443.108	4.3
443.312	4.27
443.517	4.37
443.721	4.19
443.925	4.14
444.13	4.26
444.334	4.19
444.538	4.1
444.743	3.94
444.947	3.89
445.151	3.8
445.356	3.79
445.56	3.82
445.764	3.76
445.968	3.82
446.173	3.84
446.377	3.86
446.581	3.93
446.785	3.97
446.989	4.05
447.193	4.06
447.398	4.04
447.602	4.06
447.806	4.23
448.01	4.42
448.214	4.61
448.418	4.58
448.622	4.73
448.826	4.7
449.03	4.73
449.234	4.8
449.438	4.85
449.642	4.97
449.846	5.08
450.05	5
450.254	4.8
450.458	4.73
450.662	4.87
450.866	4.62
451.069	4.64
451.273	4.67
451.477	4.51
451.681	4.48
451.885	4.28
452.089	4.06
452.292	3.92
452.496	4.02
452.7	3.89
452.904	3.82
453.107	4
453.311	3.99
453.515	4.01
453.719	3.99
453.922	4.09
454.126	4.22
454.33	4.38
454.533	4.35
454.737	4.31
454.94	4.36
455.144	4.42
455.348	4.19
455.551	4.19
455.755	4.07
455.958	4.33
456.162	4.21
456.365	4.13
456.569	3.91
456.772	4.01
456.976	3.97
457.179	3.91
457.383	3.82
457.586	4.03
457.79	3.96
457.993	4.07
458.196	3.85
458.4	3.82
458.603	3.94
458.807	3.99
459.01	4.05
459.213	3.96
459.417	3.87
459.62	3.99
459.823	3.91
460.026	3.93
460.23	3.92
460.433	3.93
460.636	3.96
460.839	3.98
461.042	3.98
461.246	4.01
461.449	4.07
461.652	4.21
461.855	4.03
462.058	4.07
462.261	3.96
462.464	3.89
462.668	4.07
462.871	4.22
463.074	4.2
463.277	4.04
463.48	3.97
463.683	4
463.886	4.06
464.089	4.15
464.292	4.25
464.495	4.37
464.698	4.4
464.901	4.36
465.104	4.16
465.306	4.21
465.509	4.3
465.712	4.28
465.915	4.22
466.118	4.16
466.321	4.08
466.524	4.06
466.726	4.24
466.929	4.32
467.132	4.31
467.335	4.36
467.538	4.21
467.74	4.32
467.943	4.41
468.146	4.53
468.348	4.53
468.551	4.67
468.754	4.59
468.956	4.54
469.159	4.51
469.362	4.6
469.564	4.58
469.767	4.61
469.969	4.54
470.172	4.38
470.375	4.39
470.577	4.37
470.78	4.35
470.982	4.23
471.185	4.09
471.387	4.26
471.59	4.14
471.792	4.26
471.995	4.2
472.197	4.22
472.399	4.05
472.602	3.86
472.804	3.77
473.007	3.66
473.209	3.74
473.411	3.86
473.614	3.6
473.816	3.54
474.018	3.46
474.22	3.56
474.423	3.66
474.625	3.81
474.827	3.95
475.03	4.1
475.232	4.22
475.434	4.28
475.636	4.32
475.838	4.46
476.04	4.44
476.243	4.48
476.445	4.4
476.647	4.22
476.849	4.18
477.051	4.12
477.253	4.04
477.455	4.05
477.657	3.84
477.859	3.8
478.061	3.7
478.263	3.63
478.465	3.61
478.667	3.59
478.869	3.65
479.071	3.72
479.273	3.74
479.475	3.63
479.677	3.57
479.879	3.54
480.081	3.48
480.283	3.49
480.485	3.47
480.686	3.33
480.888	3.38
481.09	3.4
481.292	3.3
481.494	3.36
481.695	3.51
481.897	3.46
482.099	3.5
482.301	3.52
482.502	3.44
482.704	3.46
482.906	3.53
483.107	3.55
483.309	3.54
483.511	3.55
483.712	3.5
483.914	3.41
484.115	3.42
484.317	3.45
484.519	3.42
484.72	3.44
484.922	3.41
485.123	3.41
485.325	3.37
485.526	3.38
485.728	3.39
485.929	3.38
486.131	3.47
486.332	3.47
486.534	3.44
486.735	3.44
486.936	3.38
487.138	3.42
487.339	3.35
487.541	3.35
487.742	3.3
487.943	3.27
488.144	3.28
488.346	3.19
488.547	3.25
488.748	3.31
488.95	3.22
489.151	3.3
489.352	3.3
489.553	3.36
489.755	3.36
489.956	3.36
490.157	3.41
490.358	3.43
490.559	3.51
490.76	3.43
490.961	3.34
491.163	3.41
491.364	3.46
491.565	3.43
491.766	3.46
491.967	3.53
492.168	3.58
492.369	3.66
492.57	3.69
492.771	3.69
492.972	3.7
493.173	3.8
493.374	3.82
493.575	3.79
493.776	3.87
493.976	3.94
494.177	3.96
494.378	4.07
494.579	3.91
494.78	3.99
494.981	3.99
495.182	4.03
495.382	3.95
495.583	3.87
495.784	3.94
495.985	4
496.185	3.93
496.386	3.69
496.587	3.69
496.788	3.71
496.988	3.7
497.189	3.79
497.39	3.86
497.59	3.86
497.791	3.98
497.992	3.88
498.192	3.83
498.393	3.77
498.593	3.96
498.794	3.84
498.994	3.91
499.195	3.92
499.395	3.9
499.596	3.96
499.796	3.9
499.997	3.84
500.197	3.98
500.398	4.13
500.598	4.21
500.799	4.11
500.999	4.09
501.199	3.96
501.4	3.85
501.6	3.86
501.801	3.89
502.001	4.02
502.201	4.24
502.402	4.22
502.602	4.14
502.802	4.2
503.002	4.32
503.203	4.5
503.403	4.62
503.603	4.61
503.803	4.56
504.003	4.53
504.204	4.56
504.404	4.45
504.604	4.33
504.804	4.34
505.004	4.33
505.204	4.31
505.404	4.39
505.604	4.42
505.804	4.39
506.005	4.41
506.205	4.28
506.405	4.29
506.605	4.28
506.805	4.4
507.005	4.34
507.204	4.31
507.404	4.34
507.604	4.28
507.804	4.2
508.004	4.36
508.204	4.46
508.404	4.46
508.604	4.35
508.804	4.41
509.003	4.48
509.203	4.56
509.403	4.61
509.603	4.64
509.803	4.7
510.002	4.89
510.202	4.82
510.402	4.76
510.602	4.91
510.801	4.99
511.001	4.93
511.201	4.87
511.4	4.79
511.6	4.88
511.8	4.75
511.999	4.83
512.199	4.69
512.398	4.76
512.598	4.95
512.797	5.05
512.997	5.07
513.197	5.18
513.396	5.27
513.596	5.46
513.795	5.57
513.994	5.63
514.194	5.56
514.393	5.57
514.593	5.57
514.792	5.47
514.992	5.25
515.191	5.33
515.39	5.26
515.59	5.17
515.789	5
515.988	4.81
516.188	4.9
516.387	4.82
516.586	4.78
516.786	4.83
516.985	4.78
517.184	4.89
517.383	4.97
517.582	5.1
517.782	5.2
517.981	5.21
518.18	5.13
518.379	5.22
518.578	5.25
518.777	5.36
518.976	5.28
519.176	5.39
519.375	5.35
519.574	5.27
519.773	5.18
519.972	5.06
520.171	5.12
520.37	5.19
520.569	5.16
520.768	5.13
520.967	5.18
521.166	5.34
521.365	5.23
521.564	5.37
521.762	5.47
521.961	5.53
522.16	5.57
522.359	5.44
522.558	5.55
522.757	5.51
522.956	5.64
523.154	5.45
523.353	5.45
523.552	5.52
523.751	5.47
523.949	5.43
524.148	5.58
524.347	5.7
524.546	5.78
524.744	5.65
524.943	5.71
525.142	5.7
525.34	5.92
525.539	5.86
525.737	5.88
525.936	5.94
526.135	5.91
526.333	5.79
526.532	5.69
526.73	5.79
526.929	5.77
527.127	5.73
527.326	5.66
527.524	5.6
527.723	5.61
527.921	5.59
528.12	5.53
528.318	5.59
528.516	5.62
528.715	5.67
528.913	5.64
529.112	5.7
529.31	5.74
529.508	5.75
529.707	5.76
529.905	5.79
530.103	5.85
530.301	5.85
530.5	5.83
530.698	5.84
530.896	5.95
531.094	6.03
531.293	6.1
531.491	6.14
531.689	6.19
531.887	6.3
532.085	6.38
532.283	6.4
532.481	6.51
532.68	6.59
532.878	6.65
533.076	6.58
533.274	6.46
533.472	6.49
533.67	6.47
533.868	6.48
534.066	6.53
534.264	6.44
534.462	6.46
534.66	6.58
534.858	6.64
535.056	6.7
535.253	6.64
535.451	6.81
535.649	6.78
535.847	6.99
536.045	7
536.243	6.95
536.441	7.06
536.638	7.08
536.836	7
537.034	6.96
537.232	6.9
537.43	7.01
537.627	7.09
537.825	7.16
538.023	7.03
538.22	7.22
538.418	7.27
538.616	7.36
538.813	7.51
539.011	7.71
539.209	7.73
539.406	7.82
539.604	8.03
539.801	8.01
539.999	8.06
540.196	8.12
540.394	8.07
540.591	8.1
540.789	8.05
540.986	8.01
541.184	7.94
541.381	7.95
541.579	7.98
541.776	7.88
541.974	7.86
542.171	7.86
542.368	7.87
542.566	7.92
542.763	7.97
542.96	8.04
543.158	8.11
543.355	8.13
543.552	8.2
543.75	8.24
543.947	8.25
544.144	8.23
544.341	8.31
544.539	8.41
544.736	8.48
544.933	8.42
545.13	8.43
545.327	8.37
545.524	8.35
545.722	8.49
545.919	8.52
546.116	8.69
546.313	8.86
546.51	8.9
546.707	8.93
546.904	8.98
547.101	9.14
547.298	9.23
547.495	9.36
547.692	9.43
547.889	9.3
548.086	9.48
548.283	9.55
548.48	9.68
548.677	9.75
548.874	9.75
549.07	9.85
549.267	9.88
549.464	9.88
549.661	9.97
549.858	10.13
550.055	10.41
550.251	10.31
550.448	10.23
550.645	10.24
550.842	10.41
551.038	10.47
551.235	10.31
551.432	10.29
551.628	10.26
551.825	10.45
552.022	10.5
552.218	10.52
552.415	10.63
552.612	10.68
552.808	10.66
553.005	10.58
553.201	10.84
553.398	10.98
553.594	11.09
553.791	11.26
553.987	11.28
554.184	11.44
554.38	11.59
554.577	11.56
554.773	11.83
554.97	11.99
555.166	12.12
555.362	12.01
555.559	12.2
555.755	12.3
555.952	12.35
556.148	12.35
556.344	12.33
556.541	12.2
556.737	12.46
556.933	12.47
557.129	12.28
557.326	12.26
557.522	12.48
557.718	12.52
557.914	12.34
558.11	12.36
558.307	12.35
558.503	12.37
558.699	12.66
558.895	12.81
559.091	12.74
559.287	12.97
559.483	13.19
559.679	13.3
559.876	13.38
560.072	13.72
560.268	13.72
560.464	13.74
560.66	13.86
560.856	13.78
561.052	13.75
561.247	13.96
561.443	14.07
561.639	14.02
561.835	13.99
562.031	13.92
562.227	13.9
562.423	14.09
562.619	14.2
562.815	14.41
563.01	14.63
563.206	14.77
563.402	14.86
563.598	15
563.793	15.05
563.989	15.12
564.185	15.22
564.381	15.48
564.576	15.5
564.772	15.65
564.968	15.68
565.163	15.45
565.359	15.04
565.555	15
565.75	14.98
565.946	15.26
566.141	15.13
566.337	15.3
566.532	15.28
566.728	15.41
566.923	15.36
567.119	15.12
567.314	15.25
567.51	15.59
567.705	15.72
567.901	15.7
568.096	15.63
568.292	15.9
568.487	15.79
568.682	15.8
568.878	15.72
569.073	15.82
569.268	16.06
569.464	16.33
569.659	16.39
569.854	16.51
570.05	16.72
570.245	16.67
570.44	16.78
570.635	16.97
570.831	16.95
571.026	17.22
571.221	17.33
571.416	17.38
571.611	17.21
571.806	17.34
572.002	17.3
572.197	17.34
572.392	17.45
572.587	17.5
572.782	17.52
572.977	17.7
573.172	17.7
573.367	17.76
573.562	17.87
573.757	18.05
573.952	18.19
574.147	18.4
574.342	18.62
574.537	18.66
574.732	18.6
574.927	18.67
575.121	18.75
575.316	18.67
575.511	18.65
575.706	18.71
575.901	18.81
576.096	18.87
576.29	18.76
576.485	18.62
576.68	18.93
576.875	18.84
577.069	18.96
577.264	18.87
577.459	19.3
577.654	19.46
577.848	19.38
578.043	19.39
578.238	19.43
578.432	19.33
578.627	19.57
578.821	19.42
579.016	19.66
579.21	19.84
579.405	20.06
579.6	19.87
579.794	19.96
579.989	20.05
580.183	20.15
580.378	20.36
580.572	20.67
580.766	20.57
580.961	20.72
581.155	20.74
581.35	20.56
581.544	20.64
581.738	20.87
581.933	21.15
582.127	21.58
582.321	21.61
582.516	21.49
582.71	21.58
582.904	21.8
583.099	21.64
583.293	21.76
583.487	21.88
583.681	22.06
583.875	21.99
584.07	21.93
584.264	21.92
584.458	22.04
584.652	22.06
584.846	21.99
585.04	21.79
585.234	21.95
585.428	22.03
585.623	21.96
585.817	21.89
586.011	21.95
586.205	22.14
586.399	22.04
586.593	22.04
586.787	22.01
586.981	21.85
587.174	21.98
587.368	21.98
587.562	22.11
587.756	22.39
587.95	22.37
588.144	22.25
588.338	22.13
588.532	22.21
588.725	22.37
588.919	22.58
589.113	22.73
589.307	22.79
589.501	22.78
589.694	22.71
589.888	22.76
590.082	22.91
590.275	23.02
590.469	23.04
590.663	22.87
590.856	23.04
591.05	23.03
591.244	23.24
591.437	23.37
591.631	23.5
591.824	23.46
592.018	23.46
592.212	23.52
592.405	23.63
592.599	23.71
592.792	23.79
592.986	23.62
593.179	23.77
593.372	23.79
593.566	23.92
593.759	23.99
593.953	24.07
594.146	24.04
594.339	24.07
594.533	24.27
594.726	24.31
594.92	24.35
595.113	24.4
595.306	24.08
595.499	23.97
595.693	23.84
595.886	23.86
596.079	24.04
596.272	24.07
596.466	24.09
596.659	24.01
596.852	23.95
597.045	24.12
597.238	24.14
597.431	24.31
597.624	24.38
597.818	24.39
598.011	24.62
598.204	24.57
598.397	24.7
598.59	24.5
598.783	24.54
598.976	24.56
599.169	24.53
599.362	24.55
599.555	24.88
599.748	25.27
599.941	25.32
600.134	25.21
600.326	25.42
600.519	25.47
600.712	25.56
600.905	25.51
601.098	25.71
601.291	25.77
601.483	25.89
601.676	25.65
601.869	25.62
602.062	25.73
602.255	25.59
602.447	25.4
602.64	25.44
602.833	25.78
603.025	25.71
603.218	25.74
603.411	25.65
603.603	25.37
603.796	25.4
603.989	25.44
604.181	25.44
604.374	25.54
604.566	25.47
604.759	25.39
604.951	25.21
605.144	25.3
605.336	25.34
605.529	25.32
605.721	25.52
605.914	25.48
606.106	25.42
606.299	25.55
606.491	25.55
606.683	25.75
606.876	25.7
607.068	25.87
607.26	25.92
607.453	25.97
607.645	26.32
607.837	26.29
608.03	26.41
608.222	26.24
608.414	26.23
608.606	26.18
608.799	26.42
608.991	26.42
609.183	26.52
609.375	26.45
609.567	26.4
609.759	26.41
609.952	26.65
610.144	26.69
610.336	26.86
610.528	26.87
610.72	27.03
610.912	26.96
611.104	27.23
611.296	27.12
611.488	27.09
611.68	27.14
611.872	27.11
612.064	27.19
612.256	27.19
612.448	27.22
612.64	27.08
612.832	27.25
613.023	27.1
613.215	26.92
613.407	27.14
613.599	27.49
613.791	27.45
613.983	27.38
614.174	27.21
614.366	27.38
614.558	27.23
614.75	27.09
614.941	26.93
615.133	27.31
615.325	27.67
615.516	27.61
615.708	27.41
615.9	27.43
616.091	27.32
616.283	27.48
616.475	27.21
616.666	27.54
616.858	27.99
617.049	27.88
617.241	27.53
617.432	27.29
617.624	27.37
617.815	27.48
618.007	27.64
618.198	27.86
618.39	27.73
618.581	27.98
618.773	28.15
618.964	28.24
619.155	28.47
619.347	28.62
619.538	28.96
619.729	28.98
619.921	29.07
620.112	29.02
620.303	29.11
620.494	29.09
620.686	28.92
620.877	28.65
621.068	28.72
621.259	28.76
621.451	28.82
621.642	28.49
621.833	28.37
622.024	28.58
622.215	28.67
622.406	28.79
622.597	28.96
622.788	29.28
622.98	29.41
623.171	29.24
623.362	29.25
623.553	29.42
623.744	29.6
623.935	29.91
624.126	29.76
624.317	29.65
624.508	29.54
624.698	29.57
624.889	29.62
625.08	29.67
625.271	29.89
625.462	30.01
625.653	29.74
625.844	29.61
626.034	29.21
626.225	29.01
626.416	28.98
626.607	28.91
626.798	28.95
626.988	28.73
627.179	28.58
627.37	28.29
627.56	28.28
627.751	28.57
627.942	28.67
628.132	28.79
628.323	28.96
628.514	29.04
628.704	29.12
628.895	28.9
629.085	29.01
629.276	29.16
629.466	29.3
629.657	29.14
629.847	28.89
630.038	28.89
630.228	29.17
630.419	29.37
630.609	29.38
630.8	29.28
630.99	29.39
631.181	29.51
631.371	29.43
631.561	29.73
631.752	29.98
631.942	29.93
632.132	30.22
632.323	30.28
632.513	30.1
632.703	30.27
632.893	30.75
633.084	30.63
633.274	30.61
633.464	30.7
633.654	30.54
633.844	30.28
634.034	30.09
634.225	29.87
634.415	29.76
634.605	29.83
634.795	29.68
634.985	29.53
635.175	29.89
635.365	29.83
635.555	30.07
635.745	30.15
635.935	30.15
636.125	30.63
636.315	30.67
636.505	30.65
636.695	30.53
636.885	30.47
637.075	30.29
637.265	30.29
637.455	30.3
637.644	30.24
637.834	30.14
638.024	30.1
638.214	30.05
638.404	30.08
638.593	30.16
638.783	30.72
638.973	31.01
639.163	30.82
639.352	30.73
639.542	30.67
639.732	30.93
639.921	31.08
640.111	31.53
640.301	31.56
640.49	31.55
640.68	31.56
640.87	31.12
641.059	31.16
641.249	31.55
641.438	31.6
641.628	31.66
641.817	31.22
642.007	31.22
642.196	30.86
642.386	31.06
642.575	31.65
642.764	31.39
642.954	31.69
643.143	31.76
643.333	31.99
643.522	32
643.711	32.23
643.901	32.46
644.09	32.41
644.279	32.73
644.469	32.39
644.658	32
644.847	32.19
645.036	32.06
645.226	32
645.415	31.58
645.604	31.46
645.793	31.47
645.982	31.38
646.171	31.52
646.361	31.69
646.55	32.21
646.739	32.33
646.928	32.49
647.117	32.72
647.306	32.74
647.495	33.27
647.684	33.56
647.873	33.71
648.062	33.91
648.251	33.7
648.44	33.78
648.629	33.48
648.818	33.54
649.007	33.14
649.196	32.84
649.384	32.92
649.573	32.38
649.762	32.25
649.951	32.15
650.14	31.85
650.328	32.36
650.517	32.34
650.706	32.84
650.895	32.75
651.083	33.49
651.272	33.31
651.461	33.38
651.65	33.89
651.838	34.06
652.027	33.49
652.216	33.38
652.404	33.26
652.593	33.1
652.781	32.57
652.97	32.68
653.158	32.49
653.347	33.1
653.535	32.87
653.724	32.63
653.912	32.73
654.101	33.65
654.289	33.89
654.478	33.63
654.666	34.02
654.855	34.35
655.043	34.14
655.231	33.78
655.42	33.82
655.608	34.22
655.796	34.19
655.985	33.74
656.173	33.19
656.361	33.36
656.55	33.49
656.738	33.18
656.926	33.22
657.114	33.64
657.302	33.94
657.491	33.19
657.679	32.98
657.867	32.98
658.055	33.25
658.243	33.21
658.431	33.33
658.619	33.3
658.807	33.53
658.996	33.38
659.184	32.99
659.372	33.1
659.56	33.44
659.748	33.29
659.936	33.08
660.124	32.89
660.311	33.15
660.499	33.16
660.687	33.16
660.875	32.99
661.063	32.81
661.251	32.93
661.439	32.85
661.627	33.23
661.814	33.26
662.002	33.46
662.19	33.74
662.378	33.25
662.565	33.05
662.753	33.02
662.941	32.86
663.129	33.11
663.316	33.21
663.504	32.97
663.692	32.38
663.879	32.79
664.067	33.01
664.254	32.85
664.442	33.01
664.63	32.97
664.817	33.3
665.005	33.59
665.192	33.69
665.38	33.5
665.567	33.67
665.755	33.94
665.942	33.72
666.13	33.92
666.317	34.26
666.504	34.74
666.692	35.09
666.879	35.4
667.067	35.13
667.254	35.07
667.441	35.01
667.629	35.17
667.816	35.24
668.003	35.25
668.19	35.11
668.378	34.91
668.565	34.63
668.752	34.35
668.939	34.02
669.127	34.31
669.314	34.3
669.501	34.43
669.688	34.25
669.875	34.03
670.062	34.09
670.249	34.49
670.436	34.62
670.623	34.65
670.81	35
670.997	35.23
671.184	35.24
671.371	35.74
671.558	35.86
671.745	36.08
671.932	36.14
672.119	36.05
672.306	35.49
672.493	35.51
672.68	35.8
672.867	36.04
673.054	35.44
673.24	35.7
673.427	35.24
673.614	35.33
673.801	35.43
673.988	35.53
674.174	35.91
674.361	35.98
674.548	36
674.734	35.86
674.921	35.59
675.108	36.51
675.294	35.64
675.481	35.68
675.668	35.75
675.854	35.29
676.041	35.34
676.227	34.88
676.414	35.15
676.601	35.6
676.787	35.93
676.974	35.93
677.16	35.58
677.347	36.33
677.533	36.39
677.719	36.19
677.906	36.43
678.092	36.86
678.279	37.22
678.465	36.96
678.651	36.48
678.838	36.66
679.024	36.4
679.21	35.99
679.397	35.9
679.583	36.02
679.769	36.24
679.955	36.2
680.142	35.81
680.328	36.03
680.514	35.99
680.7	35.89
680.886	35.54
681.073	35.83
681.259	35.79
681.445	35.95
681.631	35.85
681.817	35.93
682.003	36.19
682.189	36.43
682.375	35.85
682.561	35.93
682.747	36.84
682.933	37.16
683.119	36.87
683.305	37.48
683.491	37.37
683.677	37.42
683.863	37.15
684.049	37.25
684.235	37.06
684.42	37.28
684.606	37.25
684.792	36.6
684.978	36.44
685.164	36.76
685.349	36.74
685.535	36.66
685.721	36.5
685.907	36.36
686.092	36.28
686.278	36.39
686.464	36.48
686.649	36.81
686.835	36.53
687.021	36.71
687.206	36.98
687.392	36.64
687.577	36.73
687.763	37.18
687.948	37.37
688.134	37.55
688.319	37.76
688.505	38.27
688.69	38.3
688.876	38.58
689.061	38.3
689.247	38.02
689.432	38.31
689.618	37.99
689.803	37.95
689.988	38.05
690.174	37.75
690.359	37.64
690.544	36.93
690.73	37.06
690.915	37
691.1	36.96
691.285	37.2
691.471	37.36
691.656	37.94
691.841	37.43
692.026	37.62
692.211	37.97
692.396	38.06
692.582	38.84
692.767	39.23
692.952	39.14
693.137	39.17
693.322	39.23
693.507	39.06
693.692	39.4
693.877	39.69
694.062	39.38
694.247	39.09
694.432	39.67
694.617	39.7
694.802	39.44
694.987	39.62
695.172	40.02
695.357	40.03
695.541	40.06
695.726	40.27
695.911	40.76
696.096	40.6
696.281	40.65
696.466	40.15
696.65	39.71
696.835	39.79
697.02	39.91
697.204	39.58
697.389	39.28
697.574	39.23
697.759	38.74
697.943	38.7
698.128	39.12
698.312	38.99
698.497	38.71
698.682	38.58
698.866	38.56
699.051	38.45
699.235	38.75
699.42	38.87
699.604	38.66
699.789	38.57
699.973	38.41
700.158	38.55
700.342	38.59
700.527	38.85
700.711	39.3
700.895	38.72
701.08	38.94
701.264	38.87
701.448	39.07
701.633	39.47
701.817	39.37
702.001	39.32
702.186	38.89
702.37	39.3
702.554	39.15
702.738	39.11
702.923	39.61
703.107	39.84
703.291	39.76
703.475	39.22
703.659	39.11
703.843	39.3
704.027	39.79
704.212	39.87
704.396	39.17
704.58	38.7
704.764	38.05
704.948	37.83
705.132	37.43
705.316	37.38
705.5	38.16
705.684	38.52
705.868	38.4
706.052	37.78
706.235	37.78
706.419	38.84
706.603	39.22
706.787	39.53
706.971	40
707.155	40.14
707.339	40.86
707.522	40.56
707.706	40.07
707.89	40.08
708.074	40.59
708.257	40.45
708.441	40.45
708.625	41.07
708.808	41.35
708.992	40.89
709.176	40.72
709.359	40.35
709.543	40.17
709.727	40.3
709.91	39.86
710.094	39.57
710.277	40.36
710.461	39.85
710.644	39.61
710.828	39.4
711.011	39.81
711.195	39.95
711.378	40.05
711.562	39.98
711.745	39.79
711.928	40.29
712.112	40.17
712.295	39.7
712.478	40.12
712.662	40.52
712.845	40.28
713.028	40.32
713.212	40.58
713.395	40.52
713.578	41.1
713.761	41.1
713.945	40.75
714.128	40.92
714.311	41.18
714.494	41.01
714.677	40.89
714.86	41.02
715.043	41.21
715.227	40.99
715.41	40.72
715.593	40.52
715.776	40.59
715.959	41.28
716.142	41.58
716.325	41.33
716.508	41.18
716.691	40.87
716.874	41.28
717.057	40.78
717.239	40.59
717.422	40.81
717.605	40.37
717.788	40.89
717.971	40.7
718.154	39.97
718.337	40.08
718.519	40.35
718.702	41.41
718.885	40.89
719.068	41.45
719.25	42.02
719.433	41.52
719.616	41.74
719.798	40.91
719.981	41.19
720.164	41.64
720.346	41.47
720.529	42.02
720.712	40.65
720.894	41.51
721.077	40.74
721.259	40.81
721.442	41.61
721.624	42.11
721.807	42.84
721.989	42.63
722.172	42.68
722.354	42.75
722.537	42.66
722.719	43.11
722.901	42.53
723.084	43.24
723.266	42.87
723.448	43.49
723.631	43.33
723.813	42.69
723.995	42.64
724.178	42.88
724.36	42.72
724.542	41.94
724.724	42.56
724.907	42.93
725.089	42.16
725.271	42.86
725.453	41.57
725.635	41.53
725.817	42.37
725.999	42.78
726.181	41.85
726.364	42.05
726.546	42.89
726.728	42.03
726.91	41.17
727.092	41.95
727.274	41.43
727.456	41.86
727.638	41.57
727.819	40.77
728.001	40.52
728.183	41.66
728.365	41.56
728.547	40.53
728.729	41.27
728.911	42.36
729.093	42.6
729.274	41.8
729.456	41.3
729.638	41.54
729.82	42.16
730.001	42.72
730.183	42.47
730.365	42.47
730.546	42.78
730.728	41.92
730.91	41.61
731.091	41.03
731.273	41.42
731.455	41.65
731.636	41.96
731.818	41.91
731.999	41
732.181	41.29
732.362	41.45
732.544	41.8
732.725	41.91
732.907	41.69
733.088	42.19
733.27	42.49
733.451	42.54
733.633	43
733.814	43.13
733.995	44.11
734.177	43.93
734.358	43.64
734.539	43.83
734.721	44
734.902	43.42
735.083	42.69
735.264	43.49
735.446	44.59
735.627	43.02
735.808	42.2
735.989	41.67
736.17	42.26
736.351	42.26
736.533	41.26
736.714	40.7
736.895	41.5
737.076	42.07
737.257	41.9
737.438	40.56
737.619	41.94
737.8	42.87
737.981	42.64
738.162	42.15
738.343	42.79
738.524	42.88
738.705	44.04
738.886	44.27
739.067	44.45
739.247	43.3
739.428	43.9
739.609	43.05
739.79	43.99
739.971	43.33
740.151	42.87
740.332	42.85
740.513	42.69
740.694	42.14
740.874	41.84
741.055	41.65
741.236	42.29
741.417	42.37
741.597	42.56
741.778	42.85
741.958	43.39
742.139	44.27
742.32	43.59
742.5	43.78
742.681	44.27
742.861	44.1
743.042	44.25
743.222	44.06
743.403	43.39
743.583	44.12
743.764	43.3
743.944	43.28
744.124	43.04
744.305	43.53
744.485	44.59
744.666	43.95
744.846	44.49
745.026	44.9
745.207	44.61
745.387	45.57
745.567	45.71
745.747	44.49
745.928	44.75
746.108	44.88
746.288	44.35
746.468	44.12
746.648	44.65
746.829	44.13
747.009	44.03
747.189	44.68
747.369	44.33
747.549	44.43
747.729	45.37
747.909	44.23
748.089	43.61
748.269	43.38
748.449	43.15
748.629	43.16
748.809	43.29
748.989	42.74
749.169	43.27
749.349	43.14
749.529	42.01
749.709	41.03
749.889	42.89
750.068	42.65
750.248	43.86
750.428	43.74
750.608	44.27
750.788	44.18
750.967	43.79
751.147	43.16
751.327	42.42
751.507	42.19
751.686	42.83
751.866	42.62
752.046	43.12
752.225	42.65
752.405	42.78
752.585	42.43
752.764	42.24
752.944	43.25
753.123	42.33
753.303	43.42
753.482	44.26
753.662	43.51
753.841	42.8
754.021	43.5
754.2	44.54
754.38	44.48
754.559	44.46
754.739	44.58
754.918	43.58
755.097	44.31
755.277	43.78
755.456	44.1
755.635	44.92
755.815	45.08
755.994	44.88
756.173	43.54
756.352	43.18
756.532	43.47
756.711	44.16
756.89	43.73
757.069	44.09
757.248	44.4
757.427	43.72
757.607	44.43
757.786	44.75
757.965	43.94
758.144	44.49
758.323	45.04
758.502	44.68
758.681	44.3
758.86	45.28
759.039	45.37
759.218	45.39
759.397	45.91
759.576	44.83
759.755	45.15
759.934	45.85
760.113	46.43
760.291	45.34
760.47	45.45
760.649	45.81
760.828	46.05
761.007	45.48
761.186	45.48
761.364	44.55
761.543	44.62
761.722	43.08
761.901	42.12
762.079	42.33
762.258	43.25
762.437	43.68
762.615	42.12
762.794	41.87
762.972	41.89
763.151	41.91
763.33	42.33
763.508	42.42
763.687	43.53
763.865	44.08
764.044	43.69
764.222	43.56
764.401	43.33
764.579	43.5
764.758	43.36
764.936	44.12
765.114	43.44
765.293	43.5
765.471	43.41
765.65	43.89
765.828	44.19
766.006	44.18
766.184	44.69
766.363	44.81
766.541	45.5
766.719	46.34
766.898	45.95
767.076	46.25
767.254	46.42
767.432	47.13
767.61	45.79
767.788	45.57
767.967	44.82
768.145	44.87
768.323	44.15
768.501	45.1
768.679	44.16
768.857	43.62
769.035	45.04
769.213	46.27
769.391	46.15
769.569	46.84
769.747	48.03
769.925	49.08
770.103	48.04
770.281	48.56
770.459	48.52
770.636	50.18
770.814	50.88
770.992	50.43
771.17	50.1
771.348	50.48
771.525	50.51
771.703	48.57
771.881	48.3
772.059	49.36
772.236	48.65
772.414	49.05
772.592	48.41
772.769	47.79
772.947	47.48
773.125	46.29
773.302	46.35
773.48	46.63
773.657	47.01
773.835	46.49
774.013	47.02
774.19	48.29
774.368	46.68
774.545	46.03
774.723	46.63
774.9	45.55
775.077	45.62
775.255	45.37
775.432	45.69
775.61	46.42
775.787	47.35
775.964	47.45
776.142	46.76
776.319	47.29
776.496	48.41
776.674	47.99
776.851	49.01
777.028	48.37
777.205	48.7
777.382	48.83
777.56	48.97
777.737	50.25
777.914	47.31
778.091	47.34
778.268	48.89
778.445	47.97
778.622	48.31
778.8	47.53
778.977	48.63
779.154	54.04
779.331	53.04
779.508	53.95
779.685	51.6
779.862	53.82
780.038	52.82
780.215	52.64
780.392	53.28
780.569	53.46
780.746	54.46
780.923	55.06
781.1	49.27
781.277	49.63
781.453	48.32
781.63	47.1
781.807	46.28
781.984	47.43
782.16	46.92
782.337	46.4
782.514	46.11
782.691	49.07
782.867	46.61
783.044	45.94
783.221	45.2
783.397	46.19
783.574	47.21
783.75	49.84
783.927	50.08
784.103	50.38
784.28	51.2
784.456	51.78
784.633	49.94
784.809	52.57
784.986	52.52
785.162	53.49
785.339	53.27
785.515	51.83
785.692	50.02
785.868	49.22
786.044	49.89
786.221	49.02
786.397	48.14
786.573	47.04
786.749	46.66
786.926	48.63
787.102	47.22
787.278	47.38
787.454	50.68
787.631	51.16
787.807	51.85
787.983	50.81
788.159	50.74
788.335	50.61
788.511	49.49
788.687	51.2
788.863	49.97
789.039	51.62
789.216	50.98
789.392	51.47
789.568	52.03
789.744	52.53
789.919	52.45
790.095	51.05
790.271	51.25
790.447	51.97
790.623	49.22
790.799	49.27
790.975	47.28
791.151	47.59
791.327	46.53
791.502	46.12
791.678	45.03
791.854	45
792.03	47.44
792.205	49.1
792.381	48.54
792.557	50.17
792.733	51.44
792.908	52.37
793.084	51.08
793.259	51.93
793.435	51.31
793.611	53.21
793.786	51.98
793.962	52.16
794.137	50.92
794.313	50.91
794.488	50.12
794.664	48.42
794.839	49.09
795.015	49.87
795.19	48.01
795.366	48.57
795.541	47.97
795.716	49.26
795.892	49.53
796.067	49.27
796.242	49.99
796.418	50.3
796.593	51.77
796.768	50.52
796.944	50.16
797.119	51.03
797.294	51.27
797.469	51.09
797.644	51.45
797.82	50.07
797.995	50
798.17	50.8
798.345	51.51
798.52	49.83
798.695	51.49
798.87	51.24
799.045	51.55
799.22	52.4
799.395	52.41
799.57	53.73
799.745	54.22
799.92	53.44
800.095	54.28
800.27	55.67
800.445	56.2
800.62	56.2
800.795	59.09
800.97	59.72
801.145	58.45
801.319	58.95
801.494	56.68
801.669	56.61
801.844	58.43
802.018	57.1
802.193	55.91
802.368	56.32
802.543	56.1
802.717	53.49
802.892	53.37
803.067	53.11
803.241	51.43
803.416	51.59
803.59	51.28
803.765	51.66
803.94	52.29
804.114	49.45
804.289	50.8
804.463	49.75
804.638	49.96
804.812	51.21
804.986	48.41
805.161	48.18
805.335	49.6
805.51	49.76
805.684	49.97
805.858	51.18
806.033	50.46
806.207	48.16
806.381	48.51
806.556	49.26
806.73	48.61
806.904	50.8
807.078	51.02
807.253	52.38
807.427	50.73
807.601	50.07
807.775	47.25
807.949	51.35
808.123	54.91
808.298	56.83
808.472	57.02
808.646	55.83
808.82	54.88
808.994	55.37
809.168	54.6
809.342	57.58
809.516	59.23
809.69	59.78
809.864	58.98
810.038	58.06
810.212	56
810.385	54.72
810.559	56.32
810.733	57.52
810.907	56.35
811.081	53.7
811.255	52.13
811.428	49.34
811.602	52.32
811.776	52.09
811.95	51.24
812.123	53.65
812.297	54.38
812.471	51.74
812.644	50.02
812.818	52.27
812.992	54.08
813.165	55.23
813.339	55.95
813.512	53.63
813.686	52.27
813.86	51.62
814.033	50.32
814.207	52.23
814.38	54.22
814.554	55.95
814.727	55.46
814.9	53.35
815.074	53.49
815.247	53.16
815.421	51.8
815.594	53.22
815.767	52.29
815.941	50.67
816.114	49.65
816.287	51.62
816.46	50.28
816.634	51.65
816.807	57.98
816.98	57.06
817.153	59.04
817.327	57.31
817.5	56.4
817.673	58.77
817.846	60.54
818.019	60.46
818.192	58.3
818.365	59.91
818.538	61.31
818.711	54.45
818.884	53.24
819.057	52.64
819.23	53.46
819.403	51.88
819.576	50.7
819.749	49.82
819.922	49.11
820.095	48.55
820.268	48.44
820.441	46.56
820.614	47.51
820.786	48.15
820.959	47.3
821.132	47.63
821.305	48.06
821.477	47.2
821.65	46.38
821.823	45.9
821.996	45.42
822.168	45.03
822.341	44.78
822.514	45.2
822.686	44.2
822.859	44.13
823.031	43.73
823.204	43.89
823.376	44.32
823.549	45.17
823.722	45.83
823.894	46.04
824.067	46.05
824.239	46.63
824.411	46.33
824.584	47.18
824.756	47.11
824.929	47.66
825.101	47.58
825.273	47.44
825.446	46.97
825.618	46.46
825.79	46.55
825.963	46.3
826.135	46
826.307	45.99
826.479	46.69
826.652	47.38
826.824	47.62
826.996	47.07
827.168	47.11
827.34	47.42
827.512	47.32
827.684	47.38
827.856	48.14
828.029	48.54
828.201	48.47
828.373	47.46
828.545	47.56
828.717	48.03
828.889	48.97
829.061	48.52
829.232	48.17
829.404	48.43
829.576	48.75
829.748	48.54
829.92	49.33
830.092	50.87
830.264	52.02
830.436	52.62
830.607	52.8
830.779	52.99
830.951	55.54
831.123	54.62
831.294	53.33
831.466	54.23
831.638	53.6
831.809	51.88
831.981	52.21
832.153	51.28
832.324	49.5
832.496	48.91
832.667	49.39
832.839	48.21
833.011	50.42
833.182	52.07
833.354	51.32
833.525	55.18
833.697	55.04
833.868	52.42
834.039	53.76
834.211	53.56
834.382	53.95
834.554	55.49
834.725	55.8
834.896	54
835.068	53.63
835.239	53.06
835.41	51.19
835.581	51.65
835.753	52
835.924	51.75
836.095	51.77
836.266	51.51
836.438	49.49
836.609	49.11
836.78	49.96
836.951	50.47
837.122	50.72
837.293	49.7
837.464	49.55
837.635	51.19
837.806	52.13
837.977	54.8
838.148	56.61
838.319	57.57
838.49	58.73
838.661	59.85
838.832	61.35
839.003	59.53
839.174	63.04
839.345	64.39
839.516	65.31
839.687	64.96
839.857	63.46
840.028	61.85
840.199	61.44
840.37	58.72
840.54	60.17
840.711	55.15
840.882	59.26
841.053	57.34
841.223	55.04
841.394	52.72
841.564	57.1
841.735	59.31
841.906	60.7
842.076	52.64
842.247	56.43
842.417	57.02
842.588	64.58
842.758	60.89
842.929	59.9
843.099	62.98
843.27	68.89
843.44	65.06
843.611	60.61
843.781	54.59
843.951	62.86
844.122	63.56
844.292	62.07
844.462	59.43
844.633	62.35
844.803	66.41
844.973	65.94
845.144	62.31
845.314	61.9
845.484	64.11
845.654	73.82
845.824	76.6
845.995	72.29
846.165	75.55
846.335	78.37
846.505	78.26
846.675	79.88
846.845	82.23
847.015	80.72
847.185	77.16
847.355	79.22
847.525	80.68
847.695	84.99
847.865	83.44
848.035	84.26
848.205	78.08
848.375	88.58
848.545	67.77
848.715	63.58
848.884	63.73
849.054	66.57
849.224	71.19
849.394	71.9
849.564	68.9
849.733	76.65
849.903	76.75
850.073	86.02
850.243	79.87
850.412	91.77
850.582	94.61
850.752	100.06
850.921	97.96
851.091	92.74
851.26	90.8
851.43	86.51
851.599	80.9
851.769	83.11
851.939	80.98
852.108	85.14
852.278	91.27
852.447	84.57
852.616	83.55
852.786	82.73
852.955	86.08
853.125	89.4
853.294	89.38
853.463	82.6
853.633	80.07
853.802	79.02
853.971	69.5
854.141	68.68
854.31	74.17
854.479	69.37
854.648	70.92
854.818	67.47
854.987	62.62
855.156	69.12
855.325	73.05
855.494	76.65
855.663	70.02
855.832	80.65
856.001	76.91
856.171	70.37
856.34	70.95
856.509	79.6
856.678	72.46
856.847	90.18
857.016	82.57
857.185	80.87
857.353	78.71
857.522	86.81
857.691	77.06
857.86	84.51
858.029	76.81
858.198	80.12
858.367	79.15
858.535	82.1
858.704	73.12
858.873	74.34
859.042	85.87
859.21	84.72
859.379	82.5
859.548	81.34
859.717	80.26
859.885	81.41
860.054	72.98
860.222	61.89
860.391	70.36
860.56	61.59
860.728	65.28
860.897	54.33
861.065	50.46
861.234	52.58
861.402	58
861.571	54.48
861.739	55.21
861.908	61.86
862.076	73.35
862.244	73.9
862.413	80.14
862.581	81.37
862.749	79.65
862.918	83.16
863.086	81.2
863.254	78.67
863.423	81.69
863.591	90.69
863.759	80.83
863.927	80.33
864.096	80.3
864.264	81.64
864.432	78.21
864.6	84.72
864.768	86.58
864.936	89.66
865.104	89.9
865.272	94.26
865.44	97.05
865.608	103.24
865.776	102.72
865.944	100.52
866.112	100.53
866.28	105.28
866.448	108.84
866.616	106.87
866.784	103.99
866.952	103.2
867.12	96.97
867.288	101.59
867.455	98.68
867.623	100.79
867.791	95.14
867.959	88.8
868.127	78.5
868.294	76.91
868.462	76.32
868.63	74.6
868.797	78.13
868.965	78.34
869.133	69.12
869.3	67.49
869.468	64.01
869.636	50.17
869.803	56.94
869.971	73.02
870.138	71.96
870.306	61.62
870.473	70.12
870.641	69.59
870.808	72.48
870.975	76.04
871.143	81.67
871.31	81.74
871.478	107.03
871.645	95.25
871.812	81.45
871.98	80.27
872.147	87.18
872.314	80.89
872.482	81.98
872.649	75.97
872.816	72.83
872.983	76.38
873.15	80.07
873.318	79.7
873.485	86.55
873.652	87.33
873.819	93.47
873.986	92
874.153	94.09
874.32	93.61
874.487	99.74
874.654	99.77
874.821	94.24
874.988	89.29
875.155	80.71
875.322	85.56
875.489	88.41
875.656	78.9
875.823	76
875.99	79.43
876.157	74.55
876.324	79.73
876.49	77.57
876.657	76.87
876.824	75.38
876.991	84.14
877.157	74.5
877.324	77.22
877.491	81.11
877.658	89.58
877.824	88.42
877.991	92.27
878.157	90.66
878.324	94.78
878.491	100.87
878.657	115.58
878.824	113.36
878.99	115.6
879.157	120.02
879.323	111.86
879.49	104.83
879.656	103.91
879.823	98.99
879.989	94.84
880.156	91.57
880.322	83.68
880.488	79.89
880.655	77.81
880.821	83.65
880.987	79.95
881.154	81.17
881.32	81.84
881.486	78.75
881.652	78.63
881.819	77.96
881.985	73.42
882.151	72.22
882.317	65.86
882.483	64.07
882.649	61.29
882.816	59.09
882.982	56.58
883.148	54.52
883.314	53.64
883.48	54.23
883.646	53.93
883.812	52.75
883.978	52.72
884.144	53.6
884.31	51.62
884.476	51.46
884.642	51.95
884.807	54.49
884.973	55.47
885.139	54.96
885.305	55.43
885.471	53.93
885.637	54.19
885.802	54.47
885.968	54.79
886.134	57.78
886.3	58.41
886.465	59.12
886.631	55.73
886.797	54.85
886.962	57.88
887.128	56.18
887.293	57.91
887.459	61.62
887.625	62.1
887.79	64.81
887.956	61.57
888.121	61.6
888.287	59.86
888.452	64.24
888.618	70.77
888.783	69.26
