Data from LC_189_Reflection_2.txt Node
Date: Tue Nov 17 13:27:57 EST 2015
User: robert
Spectrometer: USB4E03001
Autoset integration time: false
Trigger mode: 4
Integration Time (sec): 1.000000E-1
Scans to average: 15
Electric dark correction enabled: true
Nonlinearity correction enabled: false
Boxcar width: 5
Stray light correction enabled: false
XAxis mode: Wavelengths
Stop averaging: false
Number of Pixels in Spectrum: 3648
>>>>>Begin Spectral Data<<<<<
177.566	143.22
177.785	268.28
178.005	-1366.79
178.225	417.48
178.445	-601.63
178.665	-207.53
178.885	163.43
179.105	-99.41
179.324	320.93
179.544	550.87
179.764	172.67
179.984	103.14
180.204	154.31
180.423	287.3
180.643	377.89
180.863	-1157.28
181.083	-1172.96
181.302	297.25
181.522	121.61
181.742	344.56
181.961	3462.75
182.181	-150.77
182.401	1.16
182.621	-49.82
182.84	-59.59
183.06	-284.53
183.279	592.15
183.499	-3033.61
183.719	-103.84
183.938	-25.54
184.158	-78.9
184.377	-119.07
184.597	-91.94
184.816	179.55
185.036	190.64
185.256	244.13
185.475	162.63
185.695	209.65
185.914	175.91
186.134	210.17
186.353	124.62
186.572	140.11
186.792	116.81
187.011	110.24
187.231	189.43
187.45	686.53
187.67	116.83
187.889	215.92
188.108	83.28
188.328	113.02
188.547	135.19
188.766	-300.38
188.986	461.19
189.205	151.07
189.424	174.09
189.644	202.18
189.863	148.5
190.082	170.9
190.302	183.58
190.521	321.83
190.74	5248.05
190.959	685.92
191.178	215.52
191.398	171.75
191.617	435.25
191.836	362.02
192.055	250.36
192.274	-343.47
192.494	-245.8
192.713	-235.44
192.932	36.71
193.151	352.14
193.37	2325.4
193.589	-265000
193.808	8073.03
194.027	-779.4
194.246	-373.15
194.465	1561.05
194.685	277.57
194.904	179.99
195.123	32645.83
195.342	926.4
195.561	303.46
195.78	248.93
195.999	285.28
196.218	180.79
196.436	175.22
196.655	123.33
196.874	126.53
197.093	146.78
197.312	114.91
197.531	104.63
197.75	90.02
197.969	91.25
198.188	95.82
198.407	74.88
198.625	94.46
198.844	113.37
199.063	102.17
199.282	122.02
199.501	90.25
199.719	152.98
199.938	156.43
200.157	196.06
200.376	486.71
200.594	262.91
200.813	207.22
201.032	242.71
201.251	292.54
201.469	4333.44
201.688	1207.99
201.907	-5952.97
202.125	1528.65
202.344	1504.77
202.563	1271.12
202.781	828.4
203	-957.06
203.218	-158.92
203.437	-247.14
203.656	-84.24
203.874	-113.37
204.093	-288.25
204.311	-129.2
204.53	5331.58
204.748	-91.9
204.967	1066.67
205.185	278.52
205.404	138.78
205.622	129.04
205.841	122.34
206.059	178.18
206.278	150.48
206.496	152.18
206.715	165.27
206.933	165.57
207.151	151.63
207.37	135.86
207.588	173.03
207.806	223.43
208.025	203.04
208.243	176.26
208.461	120.48
208.68	103.69
208.898	-4.58
209.116	47.13
209.335	503.76
209.553	-318.05
209.771	172.92
209.989	71.02
210.208	58.21
210.426	40.96
210.644	93.79
210.862	81.56
211.081	90.22
211.299	86.6
211.517	104.01
211.735	100.19
211.953	108.01
212.171	136.19
212.39	347.73
212.608	294.54
212.826	433.78
213.044	387.97
213.262	385.78
213.48	-17088.06
213.698	-810.66
213.916	396.32
214.134	-895.27
214.352	-233.44
214.57	-276.63
214.788	2401.25
215.006	834.06
215.224	674.18
215.442	432.67
215.66	482.82
215.878	262.94
216.096	119.27
216.314	105.85
216.532	56
216.75	62.62
216.968	46.52
217.185	62.14
217.403	104.28
217.621	106.65
217.839	127.41
218.057	145.5
218.275	141.65
218.492	156.29
218.71	170.66
218.928	209.09
219.146	212.42
219.363	238.47
219.581	171.54
219.799	166.55
220.017	137.77
220.234	102.1
220.452	70.12
220.67	77.4
220.887	93.09
221.105	85.95
221.323	73.45
221.54	60.44
221.758	53.58
221.976	63.68
222.193	51.32
222.411	69.63
222.629	78.73
222.846	85.2
223.064	71.61
223.281	66.54
223.499	66.79
223.716	69.99
223.934	82.1
224.151	81.12
224.369	63.55
224.586	72.48
224.804	62.73
225.021	69.09
225.239	77.01
225.456	74.35
225.674	68.83
225.891	74.31
226.108	86.33
226.326	86.26
226.543	75.2
226.76	77.34
226.978	68.4
227.195	66.95
227.413	58.54
227.63	52.73
227.847	57.44
228.064	52.49
228.282	43.59
228.499	41.77
228.716	37.45
228.934	37.49
229.151	33.72
229.368	29.77
229.585	28.97
229.802	30.96
230.02	30.55
230.237	28.45
230.454	28.22
230.671	32.39
230.888	27.93
231.105	29.98
231.323	27.97
231.54	31.38
231.757	36.38
231.974	39.54
232.191	33.01
232.408	33.48
232.625	31.58
232.842	35.24
233.059	33.97
233.276	36.71
233.493	32.81
233.71	37.4
233.927	35.77
234.144	35.25
234.361	36.49
234.578	43.23
234.795	38.72
235.012	40
235.229	36.78
235.446	33.28
235.663	36.88
235.879	42.17
236.096	40.88
236.313	45.96
236.53	44.11
236.747	38.23
236.964	33.25
237.181	37.21
237.397	36.65
237.614	36.85
237.831	42.21
238.048	38.98
238.264	36.32
238.481	35.19
238.698	25.85
238.915	32.56
239.131	38.3
239.348	40.96
239.565	37.39
239.781	37.49
239.998	34.28
240.215	30.72
240.431	28.06
240.648	24.79
240.865	25.65
241.081	26.29
241.298	21.57
241.514	18.47
241.731	17.76
241.947	16.24
242.164	14.79
242.38	15.7
242.597	17.08
242.814	15.64
243.03	15.12
243.246	14.92
243.463	14.07
243.679	12.34
243.896	13.16
244.112	10.52
244.329	12.4
244.545	13.08
244.762	12.3
244.978	9.16
245.194	13.39
245.411	15.8
245.627	16.08
245.843	15.36
246.06	15.6
246.276	11.67
246.492	13.69
246.709	14.22
246.925	14.74
247.141	15.23
247.357	15.46
247.574	14.82
247.79	13.45
248.006	13.24
248.222	15.8
248.439	17.06
248.655	18.46
248.871	18.52
249.087	17.34
249.303	17.73
249.519	17.38
249.736	17.92
249.952	17.27
250.168	20.84
250.384	20.39
250.6	18.94
250.816	16.35
251.032	16.45
251.248	14.73
251.464	16.6
251.68	14.82
251.896	15.5
252.112	12.4
252.328	14.36
252.544	12.48
252.76	11.3
252.976	10.02
253.192	12.33
253.408	13.61
253.624	15.05
253.84	15.79
254.056	16
254.272	16.96
254.487	21.58
254.703	22.38
254.919	22.96
255.135	26.86
255.351	23.91
255.567	20.12
255.782	15.87
255.998	14.31
256.214	14
256.43	12.3
256.646	10.09
256.861	7.03
257.077	6.41
257.293	8.55
257.508	7.66
257.724	9.78
257.94	9.88
258.155	10.97
258.371	13.71
258.587	10.52
258.802	10.17
259.018	8.9
259.234	10.38
259.449	10.85
259.665	10.13
259.88	9.41
260.096	10.45
260.312	10.74
260.527	10.62
260.743	9.65
260.958	10.75
261.174	11.68
261.389	12.96
261.605	12.91
261.82	11.94
262.036	12.3
262.251	12.5
262.466	10.81
262.682	12.33
262.897	12.68
263.113	11.18
263.328	10.95
263.543	11.05
263.759	10.9
263.974	11.7
264.189	11.91
264.405	12.47
264.62	13.51
264.835	15.13
265.051	13.25
265.266	15.18
265.481	18.08
265.696	18.31
265.912	18.15
266.127	16.81
266.342	14.48
266.557	13.27
266.773	11.81
266.988	11.55
267.203	11
267.418	12.38
267.633	11.31
267.848	9.87
268.064	7.4
268.279	5.56
268.494	6.44
268.709	7.16
268.924	9.23
269.139	10.44
269.354	10.52
269.569	10.27
269.784	9.21
269.999	8.6
270.214	8.88
270.429	11.73
270.644	11.46
270.859	11.49
271.074	11.21
271.289	10.81
271.504	9.07
271.719	8.11
271.934	7.64
272.149	7.04
272.363	7.95
272.578	8.84
272.793	7.33
273.008	8.3
273.223	7.87
273.438	7.81
273.653	8.02
273.867	9.64
274.082	9.89
274.297	10.79
274.512	11.89
274.726	12.05
274.941	11.27
275.156	12.9
275.371	12.56
275.585	14.22
275.8	14.86
276.015	15.07
276.229	13.75
276.444	14.53
276.659	14.83
276.873	12.71
277.088	12.07
277.302	10.6
277.517	9.68
277.732	10.23
277.946	8.9
278.161	10.01
278.375	10.51
278.59	11.54
278.804	11.97
279.019	11.72
279.233	13.07
279.448	13.42
279.662	16.51
279.877	16.89
280.091	15.88
280.306	15.95
280.52	14.8
280.735	14.33
280.949	12.92
281.163	13.24
281.378	13.78
281.592	12.92
281.806	12.03
282.021	10.02
282.235	10.53
282.449	11.12
282.664	12.55
282.878	13
283.092	11.93
283.307	13.21
283.521	12.39
283.735	10.99
283.949	11.32
284.164	11.61
284.378	11.01
284.592	10.88
284.806	10.64
285.02	8.44
285.234	8.49
285.449	7.98
285.663	7.68
285.877	8.01
286.091	8.04
286.305	9.27
286.519	8.68
286.733	9.12
286.947	8.6
287.161	9.23
287.375	10.02
287.589	9.18
287.803	10.45
288.017	10.17
288.231	10.8
288.445	11.02
288.659	9.86
288.873	10.31
289.087	10.89
289.301	11.26
289.515	11.12
289.729	12.12
289.943	12.04
290.157	10.78
290.371	10.77
290.584	10.64
290.798	10.87
291.012	11.04
291.226	12.27
291.44	12.03
291.654	11.88
291.867	11.94
292.081	10.13
292.295	10.07
292.509	10.13
292.722	10.53
292.936	10.41
293.15	10.51
293.364	10.09
293.577	9.12
293.791	8.68
294.005	7.96
294.218	8.15
294.432	9.4
294.645	9.8
294.859	10.96
295.073	10.39
295.286	9.78
295.5	9.03
295.713	8.96
295.927	8.69
296.14	9.99
296.354	10.61
296.568	10.61
296.781	10.75
296.994	11.58
297.208	11.6
297.421	12.03
297.635	12.93
297.848	13.13
298.062	13.92
298.275	13.83
298.489	13.3
298.702	14.15
298.915	14.24
299.129	13.84
299.342	13.58
299.555	13.12
299.769	13.37
299.982	12.77
300.195	12.05
300.409	11.4
300.622	11.27
300.835	10.89
301.048	9.71
301.262	8.78
301.475	8.84
301.688	8.27
301.901	8.91
302.115	8.9
302.328	8.79
302.541	9.25
302.754	9.43
302.967	10.63
303.18	11.56
303.393	11.45
303.607	12.3
303.82	13.23
304.033	12.41
304.246	11.02
304.459	10.21
304.672	10.36
304.885	11.59
305.098	11.48
305.311	11.93
305.524	11.2
305.737	12.45
305.95	13.92
306.163	11.99
306.376	13.44
306.589	14.16
306.802	14.19
307.015	14.43
307.228	15.16
307.44	15.15
307.653	14.07
307.866	14.28
308.079	13.3
308.292	11.38
308.505	12.76
308.718	12.37
308.93	12.64
309.143	13.39
309.356	12.53
309.569	12.05
309.781	12.15
309.994	11.61
310.207	11.81
310.42	10.44
310.632	10.55
310.845	10.41
311.058	10.23
311.27	9.08
311.483	8.61
311.696	9.29
311.908	9.36
312.121	8.9
312.333	9.54
312.546	9.61
312.759	10.86
312.971	11.39
313.184	11.88
313.396	11.97
313.609	13.79
313.821	15.13
314.034	15.51
314.246	15.74
314.459	16.22
314.671	15.49
314.884	15.19
315.096	14.59
315.309	13.72
315.521	13
315.733	13.42
315.946	12.92
316.158	11.58
316.371	10.66
316.583	10.63
316.795	10.9
317.008	12.02
317.22	11.68
317.432	12.58
317.644	12.87
317.857	12.05
318.069	12.45
318.281	13.27
318.494	14.15
318.706	14.47
318.918	13.86
319.13	15.19
319.342	14.5
319.555	13.89
319.767	13.8
319.979	13.92
320.191	15.07
320.403	14.46
320.615	13.49
320.827	12.68
321.039	13.77
321.252	14.24
321.464	13.08
321.676	13.5
321.888	14.19
322.1	14.6
322.312	14.26
322.524	14.56
322.736	15.4
322.948	15.81
323.16	15.32
323.372	14.82
323.584	15.18
323.796	15.99
324.007	15.97
324.219	16.46
324.431	16.69
324.643	17.24
324.855	17.64
325.067	17.45
325.279	17.47
325.491	19.09
325.702	18.3
325.914	17.58
326.126	16.48
326.338	17.74
326.55	17.16
326.761	16.6
326.973	16.07
327.185	15.52
327.396	15.65
327.608	15.47
327.82	14.4
328.032	14.44
328.243	13.91
328.455	13.89
328.666	12.87
328.878	13.12
329.09	12.72
329.301	13.01
329.513	12.68
329.725	11.7
329.936	12.18
330.148	13.54
330.359	14.05
330.571	13.92
330.782	13.95
330.994	12.56
331.205	12.21
331.417	13.16
331.628	12.77
331.84	14.21
332.051	14.9
332.262	14.34
332.474	12.87
332.685	13.03
332.897	14.73
333.108	14.52
333.319	15.36
333.531	14.79
333.742	13.18
333.953	12.16
334.165	11.16
334.376	11.3
334.587	10.43
334.799	10.93
335.01	11.16
335.221	9.94
335.432	10.02
335.644	10.5
335.855	11.07
336.066	12.2
336.277	13.93
336.488	13.69
336.7	13.7
336.911	14.48
337.122	13.89
337.333	12.99
337.544	13.15
337.755	13.22
337.966	12.99
338.177	12.58
338.388	11.83
338.599	11.31
338.811	10.61
339.022	9.86
339.233	8.95
339.444	8.48
339.655	9.76
339.866	9.87
340.076	9.47
340.287	9.68
340.498	9.95
340.709	10.79
340.92	9.84
341.131	10.47
341.342	11.03
341.553	12.3
341.764	12.26
341.975	12.05
342.185	12.24
342.396	13.05
342.607	12.43
342.818	13.58
343.029	12.66
343.239	13.61
343.45	13.37
343.661	13
343.872	12.84
344.082	13.24
344.293	12.97
344.504	14.4
344.714	13.38
344.925	13.48
345.136	12.2
345.346	12.14
345.557	12.05
345.768	12.86
345.978	12.69
346.189	12.88
346.399	12.88
346.61	12.71
346.821	10.84
347.031	11.34
347.242	10.34
347.452	11
347.663	10.98
347.873	10.54
348.084	9.45
348.294	9.97
348.504	9.14
348.715	9.73
348.925	10.1
349.136	10.49
349.346	10.48
349.557	11.26
349.767	10.67
349.977	10.48
350.188	11.43
350.398	12.09
350.608	11.71
350.819	11.43
351.029	11.05
351.239	11.07
351.449	10.74
351.66	11.11
351.87	11.33
352.08	12.25
352.29	13.29
352.501	12.66
352.711	12.73
352.921	12.46
353.131	13.21
353.341	13.06
353.552	12.23
353.762	12.55
353.972	12.09
354.182	12.81
354.392	12.42
354.602	12.5
354.812	12.08
355.022	11.56
355.232	11.27
355.442	10.92
355.652	10.91
355.862	11.41
356.072	11.26
356.282	11.01
356.492	9.78
356.702	9.47
356.912	9.71
357.122	10.23
357.332	9.89
357.542	9.94
357.752	9.68
357.962	9.53
358.171	9.18
358.381	8.99
358.591	9.23
358.801	9.5
359.011	9.49
359.221	9.16
359.43	9.56
359.64	9.23
359.85	9.38
360.06	9.69
360.269	9.29
360.479	8.76
360.689	8.64
360.899	8.28
361.108	8.33
361.318	8.05
361.528	7.69
361.737	7.09
361.947	7.84
362.156	8.1
362.366	7.92
362.576	8.03
362.785	8.68
362.995	8.64
363.204	8.78
363.414	8.33
363.623	8.38
363.833	8.47
364.042	8.5
364.252	7.82
364.461	7.51
364.671	7.46
364.88	7.71
365.09	7.69
365.299	8.05
365.509	8.15
365.718	9.14
365.927	9.33
366.137	9.98
366.346	10.46
366.555	10.74
366.765	10.8
366.974	10.79
367.183	10.48
367.393	10.21
367.602	9.94
367.811	9.99
368.021	9.27
368.23	9.85
368.439	8.98
368.648	8.52
368.857	8.6
369.067	8.58
369.276	9.03
369.485	9.41
369.694	9.09
369.903	9.8
370.112	9.7
370.321	10.04
370.531	8.77
370.74	8.38
370.949	8.1
371.158	8.47
371.367	7.96
371.576	7.88
371.785	7.71
371.994	8.1
372.203	7.6
372.412	7.75
372.621	7.59
372.83	8.23
373.039	8.79
373.248	9.29
373.457	8.73
373.666	8.91
373.874	8.65
374.083	8.61
374.292	8.53
374.501	8.4
374.71	8.41
374.919	8.56
375.128	8.53
375.336	8.34
375.545	7.99
375.754	7.67
375.963	7.31
376.171	7.67
376.38	8.14
376.589	8.26
376.798	7.87
377.006	7.7
377.215	8.07
377.424	8.16
377.632	7.96
377.841	8.06
378.05	8.36
378.258	8.74
378.467	8.35
378.675	7.79
378.884	7.83
379.093	7.96
379.301	8.01
379.51	7.36
379.718	6.93
379.927	7.55
380.135	7.33
380.344	7.46
380.552	7.14
380.761	6.89
380.969	7.47
381.177	7.06
381.386	6.67
381.594	6.44
381.803	6.4
382.011	6.7
382.219	6.39
382.428	6.84
382.636	6.92
382.845	6.95
383.053	7.43
383.261	6.85
383.469	6.86
383.678	7.6
383.886	7.35
384.094	7.11
384.302	7.34
384.511	7.38
384.719	7.32
384.927	7.38
385.135	7.74
385.343	7.71
385.552	7.66
385.76	7.89
385.968	8.03
386.176	8.29
386.384	8.41
386.592	7.93
386.8	8.21
387.008	7.85
387.216	7.71
387.424	7.65
387.633	7.35
387.841	7.17
388.049	7.53
388.257	7.11
388.465	7.23
388.672	7.72
388.88	7.68
389.088	7.31
389.296	7.72
389.504	8.11
389.712	8.36
389.92	8.66
390.128	9.24
390.336	8.88
390.544	8.98
390.751	8.66
390.959	8.3
391.167	8.44
391.375	8.32
391.583	8.11
391.79	7.71
391.998	7.52
392.206	7.35
392.414	6.82
392.621	6.9
392.829	6.53
393.037	6.57
393.244	6.33
393.452	6.42
393.66	6.29
393.867	6.15
394.075	6.11
394.283	6.14
394.49	6.09
394.698	6.25
394.905	6.01
395.113	6.23
395.32	6.37
395.528	6.91
395.735	7.14
395.943	7.17
396.15	7.23
396.358	7.25
396.565	6.89
396.773	6.73
396.98	6.94
397.188	7.17
397.395	7.37
397.602	7.49
397.81	7.46
398.017	7.2
398.225	7.5
398.432	7.43
398.639	7.34
398.847	7.65
399.054	7.65
399.261	7.43
399.468	7.06
399.676	7.05
399.883	6.82
400.09	6.38
400.297	6.51
400.505	6.37
400.712	6.48
400.919	6.64
401.126	6.68
401.333	6.87
401.54	6.9
401.748	7.03
401.955	6.94
402.162	7.02
402.369	7.31
402.576	7.23
402.783	7
402.99	6.94
403.197	6.75
403.404	6.51
403.611	6.32
403.818	6.17
404.025	5.99
404.232	5.88
404.439	5.9
404.646	5.64
404.853	5.62
405.06	5.73
405.267	5.55
405.474	5.4
405.681	5.31
405.887	5.42
406.094	5.74
406.301	6.03
406.508	5.91
406.715	5.79
406.922	5.95
407.128	5.95
407.335	5.96
407.542	6.1
407.749	6.25
407.955	6.47
408.162	6.67
408.369	6.93
408.575	6.87
408.782	6.84
408.989	6.92
409.195	7.16
409.402	7.05
409.609	7
409.815	6.77
410.022	6.8
410.228	6.58
410.435	6.26
410.642	5.79
410.848	5.71
411.055	6
411.261	5.92
411.468	5.93
411.674	5.99
411.881	6.02
412.087	6.4
412.294	6.49
412.5	6.56
412.706	6.78
412.913	6.68
413.119	6.8
413.326	6.64
413.532	6.72
413.738	6.43
413.945	6.18
414.151	6.24
414.357	6.29
414.564	6.23
414.77	6.09
414.976	6.25
415.182	6.44
415.389	6.15
415.595	6.17
415.801	6.09
416.007	6.14
416.214	6.07
416.42	5.76
416.626	5.44
416.832	5.4
417.038	5.49
417.244	5.16
417.45	5.19
417.657	5.16
417.863	5.11
418.069	5.04
418.275	4.75
418.481	4.96
418.687	5.02
418.893	5.19
419.099	5.16
419.305	5.34
419.511	5.39
419.717	5.24
419.923	5.22
420.129	5.18
420.335	5.27
420.541	5.31
420.746	5.24
420.952	5.29
421.158	5.23
421.364	5.24
421.57	5.13
421.776	5.05
421.982	5.08
422.187	5.14
422.393	5.14
422.599	5.05
422.805	5.09
423.01	5.09
423.216	5.16
423.422	5.27
423.628	5.22
423.833	5.2
424.039	5.07
424.245	5.07
424.45	5.05
424.656	5.06
424.862	5.04
425.067	5.06
425.273	5
425.478	4.93
425.684	4.64
425.889	4.7
426.095	4.73
426.301	4.9
426.506	4.98
426.712	4.94
426.917	4.95
427.123	5.11
427.328	5.15
427.533	5.28
427.739	5.22
427.944	5.36
428.15	5.26
428.355	5.18
428.561	5.37
428.766	5.2
428.971	5.27
429.177	5.51
429.382	5.45
429.587	5.49
429.793	5.32
429.998	5.37
430.203	5.34
430.408	5.34
430.614	5.2
430.819	4.99
431.024	4.99
431.229	5.02
431.434	4.85
431.64	4.95
431.845	4.96
432.05	5.08
432.255	5.1
432.46	5.16
432.665	5.25
432.87	5.24
433.076	5.17
433.281	5.29
433.486	5.26
433.691	5.25
433.896	5
434.101	4.88
434.306	4.92
434.511	4.88
434.716	4.88
434.921	4.84
435.126	4.95
435.331	5.01
435.535	4.96
435.74	5.17
435.945	5.08
436.15	5.26
436.355	5.44
436.56	5.34
436.765	5.48
436.97	5.43
437.174	5.29
437.379	5.37
437.584	5.58
437.789	5.53
437.993	5.27
438.198	5.3
438.403	5.19
438.608	5.05
438.812	5
439.017	4.84
439.222	4.85
439.426	4.96
439.631	4.83
439.836	4.65
440.04	4.61
440.245	4.63
440.45	4.44
440.654	4.43
440.859	4.27
441.063	4.42
441.268	4.42
441.472	4.43
441.677	4.49
441.881	4.53
442.086	4.53
442.29	4.49
442.495	4.6
442.699	4.8
442.904	4.83
443.108	4.96
443.312	4.9
443.517	5.03
443.721	5.03
443.925	4.89
444.13	4.86
444.334	4.78
444.538	4.75
444.743	4.57
444.947	4.53
445.151	4.39
445.356	4.49
445.56	4.47
445.764	4.35
445.968	4.31
446.173	4.32
446.377	4.2
446.581	4.27
446.785	4.33
446.989	4.32
447.193	4.34
447.398	4.56
447.602	4.66
447.806	4.63
448.01	4.52
448.214	4.61
448.418	4.65
448.622	4.74
448.826	4.8
449.03	4.87
449.234	4.92
449.438	4.78
449.642	4.68
449.846	4.46
450.05	4.36
450.254	4.4
450.458	4.31
450.662	4.27
450.866	4.26
451.069	4.33
451.273	4.12
451.477	4.15
451.681	4.35
451.885	4.42
452.089	4.3
452.292	4.35
452.496	4.39
452.7	4.34
452.904	4.43
453.107	4.61
453.311	4.45
453.515	4.5
453.719	4.58
453.922	4.54
454.126	4.37
454.33	4.61
454.533	4.7
454.737	4.75
454.94	4.62
455.144	4.57
455.348	4.47
455.551	4.48
455.755	4.75
455.958	4.61
456.162	4.5
456.365	4.53
456.569	4.26
456.772	4.16
456.976	4.24
457.179	4.44
457.383	4.33
457.586	4.47
457.79	4.55
457.993	4.59
458.196	4.62
458.4	4.81
458.603	5.04
458.807	5.1
459.01	5.2
459.213	5.18
459.417	5.11
459.62	5.16
459.823	4.99
460.026	4.91
460.23	4.86
460.433	4.87
460.636	4.69
460.839	4.5
461.042	4.49
461.246	4.37
461.449	4.41
461.652	4.42
461.855	4.49
462.058	4.47
462.261	4.52
462.464	4.3
462.668	4.12
462.871	4.21
463.074	4.29
463.277	4.25
463.48	4.3
463.683	4.17
463.886	4.11
464.089	3.85
464.292	3.95
464.495	3.99
464.698	3.91
464.901	4.18
465.104	4.18
465.306	4.05
465.509	4.11
465.712	4.02
465.915	4.27
466.118	4.37
466.321	4.38
466.524	4.37
466.726	4.3
466.929	4.44
467.132	4.28
467.335	4.32
467.538	4.31
467.74	4.23
467.943	4.32
468.146	4.17
468.348	4.18
468.551	4.19
468.754	4.16
468.956	4.23
469.159	4.29
469.362	4.29
469.564	4.32
469.767	4.45
469.969	4.77
470.172	4.85
470.375	4.72
470.577	4.81
470.78	4.79
470.982	4.82
471.185	4.82
471.387	4.91
471.59	5.03
471.792	4.83
471.995	4.73
472.197	4.46
472.399	4.39
472.602	4.6
472.804	4.61
473.007	4.65
473.209	4.66
473.411	4.56
473.614	4.56
473.816	4.48
474.018	4.64
474.22	4.64
474.423	4.82
474.625	4.71
474.827	4.36
475.03	4.27
475.232	4.3
475.434	4.23
475.636	4.17
475.838	3.96
476.04	4
476.243	3.98
476.445	3.86
476.647	3.69
476.849	3.63
477.051	3.82
477.253	3.8
477.455	3.75
477.657	3.81
477.859	3.72
478.061	3.71
478.263	3.66
478.465	3.66
478.667	3.72
478.869	3.85
479.071	4.01
479.273	4.01
479.475	4.06
479.677	4.15
479.879	4.1
480.081	4.21
480.283	4.36
480.485	4.37
480.686	4.51
480.888	4.7
481.09	4.57
481.292	4.5
481.494	4.44
481.695	4.47
481.897	4.38
482.099	4.26
482.301	4.25
482.502	4.23
482.704	4.26
482.906	4.21
483.107	4.11
483.309	4.09
483.511	4.11
483.712	4.12
483.914	4.09
484.115	4.04
484.317	4.11
484.519	4.07
484.72	4.08
484.922	4.07
485.123	4.05
485.325	4.07
485.526	4.1
485.728	4.08
485.929	4.1
486.131	4.14
486.332	4.2
486.534	4.14
486.735	4.2
486.936	4.18
487.138	4.13
487.339	4.12
487.541	4.13
487.742	4.13
487.943	4.14
488.144	4.15
488.346	4.09
488.547	4.1
488.748	4.2
488.95	4.19
489.151	4.21
489.352	4.21
489.553	4.25
489.755	4.28
489.956	4.2
490.157	4.14
490.358	4.11
490.559	4.09
490.76	4.15
490.961	4.08
491.163	4.13
491.364	4.14
491.565	4.21
491.766	4.14
491.967	4.15
492.168	4.23
492.369	4.28
492.57	4.35
492.771	4.39
492.972	4.46
493.173	4.55
493.374	4.52
493.575	4.57
493.776	4.52
493.976	4.68
494.177	4.66
494.378	4.67
494.579	4.74
494.78	4.7
494.981	4.71
495.182	4.56
495.382	4.45
495.583	4.44
495.784	4.36
495.985	4.39
496.185	4.34
496.386	4.29
496.587	4.34
496.788	4.4
496.988	4.46
497.189	4.41
497.39	4.52
497.59	4.57
497.791	4.66
497.992	4.7
498.192	4.68
498.393	4.63
498.593	4.61
498.794	4.61
498.994	4.6
499.195	4.39
499.395	4.55
499.596	4.53
499.796	4.44
499.997	4.48
500.197	4.53
500.398	4.78
500.598	4.81
500.799	4.95
500.999	5.09
501.199	4.96
501.4	5.25
501.6	5.1
501.801	5.13
502.001	5.2
502.201	5.32
502.402	5.38
502.602	5.13
502.802	5.24
503.002	5.18
503.203	5.22
503.403	5.3
503.603	5.24
503.803	5.31
504.003	5.31
504.204	5.27
504.404	5.29
504.604	5.16
504.804	5.47
505.004	5.43
505.204	5.38
505.404	5.33
505.604	5.24
505.804	5.26
506.005	5.31
506.205	5.32
506.405	5.37
506.605	5.32
506.805	5.43
507.005	5.24
507.204	5.21
507.404	5.35
507.604	5.46
507.804	5.67
508.004	5.85
508.204	5.87
508.404	5.93
508.604	5.92
508.804	5.91
509.003	5.9
509.203	5.86
509.403	6.05
509.603	6.08
509.803	6.05
510.002	5.95
510.202	5.87
510.402	5.9
510.602	5.84
510.801	5.87
511.001	5.96
511.201	5.95
511.4	5.88
511.6	5.7
511.8	5.55
511.999	5.53
512.199	5.6
512.398	5.63
512.598	5.62
512.797	5.8
512.997	5.8
513.197	5.75
513.396	5.9
513.596	6.15
513.795	6.35
513.994	6.59
514.194	6.65
514.393	6.76
514.593	6.6
514.792	6.71
514.992	6.73
515.191	7.11
515.39	7.12
515.59	7.08
515.789	7.14
515.988	7.2
516.188	7.16
516.387	7.24
516.586	7.14
516.786	7.33
516.985	7.34
517.184	7.31
517.383	7.09
517.582	7.06
517.782	7.14
517.981	7.01
518.18	7
518.379	6.99
518.578	6.97
518.777	6.91
518.976	6.91
519.176	6.98
519.375	6.95
519.574	7.01
519.773	7.07
519.972	6.95
520.171	7.04
520.37	7.02
520.569	7.05
520.768	7.13
520.967	7.26
521.166	7.25
521.365	7.21
521.564	7.32
521.762	7.41
521.961	7.45
522.16	7.58
522.359	7.65
522.558	7.71
522.757	7.77
522.956	7.83
523.154	7.83
523.353	7.86
523.552	7.88
523.751	7.84
523.949	7.74
524.148	7.85
524.347	7.89
524.546	7.85
524.744	7.86
524.943	7.86
525.142	7.85
525.34	7.95
525.539	7.91
525.737	7.95
525.936	8.04
526.135	8.03
526.333	8.02
526.532	8.03
526.73	8.06
526.929	8.07
527.127	8.1
527.326	8.12
527.524	8.14
527.723	8.26
527.921	8.32
528.12	8.31
528.318	8.32
528.516	8.34
528.715	8.37
528.913	8.41
529.112	8.36
529.31	8.33
529.508	8.34
529.707	8.37
529.905	8.41
530.103	8.37
530.301	8.35
530.5	8.37
530.698	8.38
530.896	8.39
531.094	8.48
531.293	8.57
531.491	8.72
531.689	8.75
531.887	8.82
532.085	8.78
532.283	8.89
532.481	8.96
532.68	9.01
532.878	9.08
533.076	9.1
533.274	9.15
533.472	9.28
533.67	9.21
533.868	9.29
534.066	9.25
534.264	9.25
534.462	9.23
534.66	9.3
534.858	9.34
535.056	9.37
535.253	9.43
535.451	9.39
535.649	9.4
535.847	9.54
536.045	9.66
536.243	9.72
536.441	9.85
536.638	9.92
536.836	9.97
537.034	10.08
537.232	10.15
537.43	10.2
537.627	10.3
537.825	10.33
538.023	10.4
538.22	10.48
538.418	10.54
538.616	10.53
538.813	10.67
539.011	10.72
539.209	10.82
539.406	10.86
539.604	10.89
539.801	10.94
539.999	11.11
540.196	11.21
540.394	11.21
540.591	11.29
540.789	11.41
540.986	11.34
541.184	11.4
541.381	11.47
541.579	11.52
541.776	11.64
541.974	11.64
542.171	11.59
542.368	11.61
542.566	11.59
542.763	11.6
542.96	11.65
543.158	11.7
543.355	11.72
543.552	11.71
543.75	11.76
543.947	11.77
544.144	11.81
544.341	11.86
544.539	11.91
544.736	11.93
544.933	11.95
545.13	11.97
545.327	12.18
545.524	12.29
545.722	12.48
545.919	12.47
546.116	12.58
546.313	12.64
546.51	12.72
546.707	12.89
546.904	12.98
547.101	13.27
547.298	13.28
547.495	13.21
547.692	13.3
547.889	13.31
548.086	13.53
548.283	13.61
548.48	13.71
548.677	13.74
548.874	13.71
549.07	13.65
549.267	13.84
549.464	14.03
549.661	14.22
549.858	14.25
550.055	14.14
550.251	14.18
550.448	14.19
550.645	14.34
550.842	14.46
551.038	14.73
551.235	15.2
551.432	15.27
551.628	15.29
551.825	15.49
552.022	15.8
552.218	16.07
552.415	16.09
552.612	16.26
552.808	16.27
553.005	16.51
553.201	16.42
553.398	16.38
553.594	16.36
553.791	16.68
553.987	16.53
554.184	16.53
554.38	16.75
554.577	16.89
554.773	16.93
554.97	17.19
555.166	17.29
555.362	17.51
555.559	17.66
555.755	17.63
555.952	17.58
556.148	17.89
556.344	18.05
556.541	17.91
556.737	18.07
556.933	18.24
557.129	18.45
557.326	18.58
557.522	18.68
557.718	18.91
557.914	19.04
558.11	19
558.307	18.98
558.503	18.99
558.699	19.29
558.895	19.38
559.091	19.48
559.287	19.53
559.483	19.64
559.679	19.71
559.876	19.66
560.072	19.85
560.268	20.18
560.464	20.47
560.66	20.58
560.856	20.67
561.052	20.88
561.247	20.85
561.443	21.11
561.639	20.88
561.835	20.88
562.031	21.17
562.227	21.18
562.423	21.28
562.619	21.22
562.815	21.42
563.01	21.58
563.206	21.54
563.402	21.69
563.598	21.71
563.793	22.15
563.989	22.42
564.185	22.55
564.381	22.81
564.576	22.85
564.772	23
564.968	22.97
565.163	23.02
565.359	23.28
565.555	23.36
565.75	23.44
565.946	23.68
566.141	23.79
566.337	23.75
566.532	23.86
566.728	23.99
566.923	24.15
567.119	24.34
567.314	24.39
567.51	24.48
567.705	24.65
567.901	24.57
568.096	24.49
568.292	24.67
568.487	24.86
568.682	25.03
568.878	25.09
569.073	25.15
569.268	25.27
569.464	25.4
569.659	25.41
569.854	25.41
570.05	25.66
570.245	25.65
570.44	25.59
570.635	25.67
570.831	25.85
571.026	26.07
571.221	26.2
571.416	26.23
571.611	26.31
571.806	26.49
572.002	26.85
572.197	26.85
572.392	27.01
572.587	27.2
572.782	27.35
572.977	27.13
573.172	27.1
573.367	27.29
573.562	27.45
573.757	27.67
573.952	27.56
574.147	27.62
574.342	27.87
574.537	28.09
574.732	28.17
574.927	28.26
575.121	28.45
575.316	28.55
575.511	28.58
575.706	28.6
575.901	28.58
576.096	28.69
576.29	28.63
576.485	28.63
576.68	28.75
576.875	28.67
577.069	28.77
577.264	28.98
577.459	29.13
577.654	29.15
577.848	29.33
578.043	29.35
578.238	29.59
578.432	29.82
578.627	29.85
578.821	29.99
579.016	30.26
579.21	30.38
579.405	30.36
579.6	30.58
579.794	30.6
579.989	30.48
580.183	30.58
580.378	30.68
580.572	30.61
580.766	30.85
580.961	30.93
581.155	31.17
581.35	31.02
581.544	31.17
581.738	30.99
581.933	31.12
582.127	31.23
582.321	31.29
582.516	31.09
582.71	31.55
582.904	31.53
583.099	31.18
583.293	31.03
583.487	31.27
583.681	31.29
583.875	31.43
584.07	31.54
584.264	31.76
584.458	32.02
584.652	32.39
584.846	32.25
585.04	32.39
585.234	32.83
585.428	33
585.623	33.17
585.817	33.3
586.011	33.5
586.205	33.84
586.399	34.07
586.593	34.05
586.787	34.05
586.981	33.99
587.174	34.06
587.368	34.01
587.562	34.14
587.756	33.93
587.95	33.97
588.144	33.93
588.338	33.77
588.532	33.7
588.725	33.76
588.919	33.82
589.113	34
589.307	33.82
589.501	33.83
589.694	33.82
589.888	33.86
590.082	33.85
590.275	33.99
590.469	33.86
590.663	33.78
590.856	33.7
591.05	33.78
591.244	33.64
591.437	34.11
591.631	34.26
591.824	34.48
592.018	34.84
592.212	35.13
592.405	35
592.599	35.11
592.792	35.44
592.986	35.58
593.179	35.58
593.372	35.89
593.566	35.71
593.759	35.72
593.953	35.52
594.146	35.43
594.339	35.33
594.533	35.39
594.726	35.78
594.92	35.69
595.113	35.86
595.306	35.99
595.499	36.04
595.693	35.94
595.886	35.9
596.079	35.91
596.272	36
596.466	36.03
596.659	36.26
596.852	36.26
597.045	36.25
597.238	36.14
597.431	35.98
597.624	36.12
597.818	36.11
598.011	36.32
598.204	36.43
598.397	36.43
598.59	36.38
598.783	36.36
598.976	36.25
599.169	36.3
599.362	36.44
599.555	36.77
599.748	36.59
599.941	36.96
600.134	36.92
600.326	36.94
600.519	37
600.712	37.02
600.905	37.1
601.098	37.5
601.291	37.42
601.483	37.32
601.676	37.39
601.869	37.47
602.062	37.4
602.255	37.34
602.447	37.42
602.64	37.47
602.833	37.45
603.025	37.46
603.218	37.37
603.411	37.62
603.603	37.89
603.796	37.87
603.989	37.93
604.181	37.87
604.374	37.94
604.566	37.95
604.759	37.97
604.951	38.2
605.144	38.22
605.336	38.02
605.529	37.92
605.721	37.95
605.914	37.82
606.106	37.92
606.299	38.18
606.491	38.38
606.683	38.64
606.876	38.79
607.068	38.87
607.26	38.96
607.453	39.21
607.645	39.07
607.837	39.05
608.03	39.14
608.222	39.13
608.414	39
608.606	38.92
608.799	38.59
608.991	38.55
609.183	38.48
609.375	38.64
609.567	38.8
609.759	39.01
609.952	38.98
610.144	39.1
610.336	39.01
610.528	38.83
610.72	38.91
610.912	38.98
611.104	38.92
611.296	39.01
611.488	39.04
611.68	38.89
611.872	39.01
612.064	38.9
612.256	38.87
612.448	38.77
612.64	39.1
612.832	39.13
613.023	39.36
613.215	39.52
613.407	39.45
613.599	39.29
613.791	39.38
613.983	39.49
614.174	39.8
614.366	39.71
614.558	39.65
614.75	39.79
614.941	39.89
615.133	39.73
615.325	39.73
615.516	39.98
615.708	39.74
615.9	39.9
616.091	39.75
616.283	39.84
616.475	40.01
616.666	40.14
616.858	40.12
617.049	40.08
617.241	40.14
617.432	40.28
617.624	40.09
617.815	40.42
618.007	40.18
618.198	40.26
618.39	40.21
618.581	40.35
618.773	40.5
618.964	40.3
619.155	40.33
619.347	40.61
619.538	40.58
619.729	40.74
619.921	40.62
620.112	40.54
620.303	40.54
620.494	40.37
620.686	40.34
620.877	40.28
621.068	40.6
621.259	40.47
621.451	40.42
621.642	40.41
621.833	40.2
622.024	40.36
622.215	40.43
622.406	40.12
622.597	40.26
622.788	40.32
622.98	40.55
623.171	40.77
623.362	40.87
623.553	40.86
623.744	40.84
623.935	41.22
624.126	41.31
624.317	41.28
624.508	41.53
624.698	41.43
624.889	41.1
625.08	41.3
625.271	41.01
625.462	40.91
625.653	40.84
625.844	40.86
626.034	40.79
626.225	40.81
626.416	40.92
626.607	41.02
626.798	41.11
626.988	41.33
627.179	41.52
627.37	41.42
627.56	41.37
627.751	41.52
627.942	41.68
628.132	41.67
628.323	41.66
628.514	41.89
628.704	41.69
628.895	41.91
629.085	42.35
629.276	41.89
629.466	42.34
629.657	42.31
629.847	42.16
630.038	41.98
630.228	41.91
630.419	41.8
630.609	41.87
630.8	42.13
630.99	41.81
631.181	41.24
631.371	41.59
631.561	41.49
631.752	41.98
631.942	42.35
632.132	42.29
632.323	42.54
632.513	42.6
632.703	42.63
632.893	42.76
633.084	42.86
633.274	43.4
633.464	43.02
633.654	43.09
633.844	42.72
634.034	42.3
634.225	42.51
634.415	42.31
634.605	42.49
634.795	42.6
634.985	42.85
635.175	42.71
635.365	42.37
635.555	42.5
635.745	42.44
635.935	42.76
636.125	43.38
636.315	43.42
636.505	43.39
636.695	43.35
636.885	42.97
637.075	42.76
637.265	43.5
637.455	43.56
637.644	43.82
637.834	43.68
638.024	43.75
638.214	43.39
638.404	43.12
638.593	43.28
638.783	43.24
638.973	43.43
639.163	43.4
639.352	43.07
639.542	43.13
639.732	43.2
639.921	42.99
640.111	43
640.301	42.95
640.49	43.39
640.68	43.6
640.87	43.65
641.059	43.6
641.249	43.25
641.438	43.04
641.628	42.99
641.817	42.99
642.007	43.27
642.196	43.39
642.386	43.48
642.575	43.65
642.764	43.18
642.954	43.36
643.143	43.25
643.333	43.73
643.522	43.88
643.711	43.83
643.901	43.27
644.09	43.27
644.279	43.25
644.469	43.58
644.658	43.38
644.847	43.74
645.036	43.72
645.226	43.92
645.415	43.81
645.604	43.95
645.793	44.38
645.982	44.76
646.171	44.95
646.361	44.9
646.55	44.8
646.739	44.75
646.928	44.5
647.117	44.52
647.306	44.81
647.495	44.81
647.684	44.61
647.873	44.39
648.062	44.31
648.251	44.03
648.44	43.48
648.629	43.34
648.818	43.59
649.007	43.81
649.196	43.84
649.384	43.59
649.573	43.58
649.762	43.88
649.951	43.74
650.14	44.08
650.328	44.3
650.517	44.94
650.706	45.08
650.895	45.01
651.083	45.03
651.272	45.01
651.461	44.98
651.65	45.22
651.838	44.94
652.027	44.95
652.216	44.89
652.404	44.83
652.593	44.94
652.781	44.85
652.97	44.67
653.158	44.79
653.347	44.96
653.535	45.36
653.724	45.47
653.912	45.51
654.101	45.74
654.289	45.39
654.478	45.25
654.666	44.83
654.855	44.64
655.043	44.48
655.231	44.55
655.42	44.77
655.608	44.39
655.796	44.33
655.985	44.5
656.173	44.33
656.361	44.78
656.55	45.14
656.738	45.36
656.926	45.57
657.114	46.17
657.302	46.03
657.491	45.77
657.679	45.52
657.867	45.46
658.055	45.22
658.243	45.3
658.431	45.13
658.619	45.39
658.807	45.61
658.996	45.58
659.184	45.41
659.372	45.55
659.56	45.34
659.748	45.62
659.936	45.71
660.124	45.93
660.311	46.03
660.499	46.19
660.687	46.02
660.875	45.87
661.063	45.92
661.251	46.08
661.439	46.07
661.627	46.37
661.814	46.48
662.002	46.39
662.19	46.19
662.378	45.99
662.565	46.03
662.753	46.07
662.941	45.94
663.129	45.78
663.316	45.61
663.504	45.6
663.692	45.77
663.879	46.06
664.067	46
664.254	45.99
664.442	46.37
664.63	46.37
664.817	46.09
665.005	46.02
665.192	46.11
665.38	45.99
665.567	46.12
665.755	45.67
665.942	45.57
666.13	45.64
666.317	45.92
666.504	45.62
666.692	45.31
666.879	45.31
667.067	45.76
667.254	46.04
667.441	46.42
667.629	46.55
667.816	46.84
668.003	46.45
668.19	46.44
668.378	46.52
668.565	46.99
668.752	46.95
668.939	47.34
669.127	47.33
669.314	47.25
669.501	46.99
669.688	46.6
669.875	46.66
670.062	46.84
670.249	46.92
670.436	46.78
670.623	46.81
670.81	46.95
670.997	46.75
671.184	46.23
671.371	46.29
671.558	46.67
671.745	46.83
671.932	47.22
672.119	47.21
672.306	46.91
672.493	47.33
672.68	46.68
672.867	46.83
673.054	46.76
673.24	46.96
673.427	47.08
673.614	47.04
673.801	47.02
673.988	46.45
674.174	46.2
674.361	46.22
674.548	46.1
674.734	46.25
674.921	46.94
675.108	47.02
675.294	47.22
675.481	47.13
675.668	47.04
675.854	47.38
676.041	47.08
676.227	47.53
676.414	48.28
676.601	48.35
676.787	48.49
676.974	47.83
677.16	47.73
677.347	47.78
677.533	47.78
677.719	47.52
677.906	47.27
678.092	47.56
678.279	47.6
678.465	47.37
678.651	47.08
678.838	47.32
679.024	47.35
679.21	47.75
679.397	47.5
679.583	47.23
679.769	47.23
679.955	47.3
680.142	47.57
680.328	47.57
680.514	47.6
680.7	47.82
680.886	48.14
681.073	48.3
681.259	48.13
681.445	48.35
681.631	48.53
681.817	48.32
682.003	48.06
682.189	47.87
682.375	47.85
682.561	47.72
682.747	47.8
682.933	47.34
683.119	47.13
683.305	47.24
683.491	47.28
683.677	47.5
683.863	47.8
684.049	48.24
684.235	48.23
684.42	47.86
684.606	47.61
684.792	47.37
684.978	47.67
685.164	47.92
685.349	48
685.535	48.14
685.721	47.92
685.907	47.83
686.092	47.83
686.278	47.79
686.464	48.64
686.649	48.79
686.835	48.75
687.021	48.54
687.206	48.37
687.392	48.22
687.577	48.15
687.763	48.23
687.948	48.42
688.134	48.15
688.319	48.4
688.505	47.89
688.69	48
688.876	48.15
689.061	47.72
689.247	48.18
689.432	48.11
689.618	47.9
689.803	48.14
689.988	48.65
690.174	48.68
690.359	48.57
690.544	48.73
690.73	48.64
690.915	48.61
691.1	49.3
691.285	48.86
691.471	49.26
691.656	49.7
691.841	49.81
692.026	49.32
692.211	49.46
692.396	49.05
692.582	48.99
692.767	49.07
692.952	48.77
693.137	48.91
693.322	48.78
693.507	48.22
693.692	47.95
693.877	47.82
694.062	47.64
694.247	47.62
694.432	48.11
694.617	47.87
694.802	47.4
694.987	47.7
695.172	47.28
695.357	47.29
695.541	47.75
695.726	47.81
695.911	48.11
696.096	48.64
696.281	48.72
696.466	48.73
696.65	48.64
696.835	48.85
697.02	49.34
697.204	49.37
697.389	49.67
697.574	49.56
697.759	49.4
697.943	49.08
698.128	49.02
698.312	49.33
698.497	49.06
698.682	49.62
698.866	49.8
699.051	49.66
699.235	50.13
699.42	50.14
699.604	50.25
699.789	50.46
699.973	50.53
700.158	50.37
700.342	49.98
700.527	49.97
700.711	49.75
700.895	49.66
701.08	49.59
701.264	48.8
701.448	48.69
701.633	48.23
701.817	48.27
702.001	48.42
702.186	48.35
702.37	48.29
702.554	48.91
702.738	49
702.923	49.56
703.107	49.46
703.291	49.62
703.475	49.3
703.659	49.53
703.843	49.1
704.027	49.05
704.212	49.51
704.396	50.26
704.58	50.02
704.764	49.55
704.948	49.13
705.132	49.11
705.316	49.59
705.5	49.21
705.684	49.88
705.868	50.2
706.052	49.99
706.235	49.98
706.419	49.43
706.603	49.35
706.787	49.09
706.971	49.59
707.155	48.82
707.339	48.32
707.522	49.25
707.706	49.27
707.89	49.32
708.074	49.24
708.257	49.32
708.441	49.89
708.625	50.32
708.808	51.19
708.992	50.88
709.176	51.71
709.359	51.62
709.543	51.58
709.727	50.83
709.91	51.09
710.094	51.35
710.277	51.06
710.461	51.19
710.644	51.16
710.828	50.51
711.011	50.28
711.195	50.79
711.378	51.33
711.562	51.35
711.745	51.87
711.928	51.85
712.112	51.61
712.295	51.47
712.478	50.89
712.662	50.84
712.845	50.88
713.028	50.87
713.212	50.54
713.395	50.03
713.578	50.08
713.761	49.42
713.945	49.31
714.128	49.61
714.311	49.97
714.494	49.85
714.677	49.96
714.86	50.28
715.043	49.92
715.227	49.38
715.41	50.18
715.593	50.22
715.776	50.19
715.959	49.87
716.142	49.76
716.325	49.9
716.508	50.18
716.691	49.96
716.874	49.73
717.057	49.77
717.239	50.52
717.422	49.93
717.605	50.01
717.788	50.26
717.971	50.42
718.154	50.29
718.337	50.1
718.519	50.44
718.702	50.52
718.885	50.67
719.068	51.45
719.25	51.19
719.433	51.02
719.616	51.27
719.798	51.06
719.981	51.74
720.164	51.39
720.346	51
720.529	50.07
720.712	49.52
720.894	50.11
721.077	50.14
721.259	50.13
721.442	50.43
721.624	50.09
721.807	49.86
721.989	49
722.172	49.55
722.354	50.08
722.537	50.35
722.719	51.38
722.901	50.84
723.084	50.4
723.266	50.28
723.448	51.11
723.631	51.35
723.813	52.2
723.995	52.22
724.178	52.03
724.36	52.55
724.542	52.81
724.724	52.47
724.907	52.75
725.089	53.2
725.271	53.75
725.453	52.06
725.635	52.04
725.817	51.73
725.999	52.53
726.181	52.75
726.364	51.91
726.546	51.19
726.728	50.03
726.91	50.14
727.092	50.05
727.274	48.87
727.456	50.35
727.638	49.15
727.819	49.37
728.001	48.47
728.183	48.36
728.365	47.96
728.547	48.67
728.729	49.71
728.911	49.27
729.093	49.92
729.274	50.99
729.456	50.59
729.638	51.33
729.82	51.7
730.001	51.91
730.183	51.7
730.365	51.76
730.546	52.04
730.728	52.05
730.91	53.1
731.091	51.83
731.273	51.92
731.455	52.16
731.636	52.29
731.818	52.77
731.999	52.55
732.181	52.78
732.362	53
732.544	52.42
732.725	52.38
732.907	51.66
733.088	52.98
733.27	53.18
733.451	53.29
733.633	53.79
733.814	53.1
733.995	53.7
734.177	54.02
734.358	54.8
734.539	54.89
734.721	54.86
734.902	55.35
735.083	54.55
735.264	53.34
735.446	52.72
735.627	52.7
735.808	52.53
735.989	52.56
736.17	51.85
736.351	51.16
736.533	50.81
736.714	51.09
736.895	50.33
737.076	50.39
737.257	51.17
737.438	51.62
737.619	51.12
737.8	51.31
737.981	50.79
738.162	50.95
738.343	51.31
738.524	51.78
738.705	51.73
738.886	51.81
739.067	52.48
739.247	52.48
739.428	52.04
739.609	51.5
739.79	51.33
739.971	51.37
740.151	51.37
740.332	50.21
740.513	50.86
740.694	50.47
740.874	50.43
741.055	49.78
741.236	49.17
741.417	49.5
741.597	49.59
741.778	49.71
741.958	50.16
742.139	50.94
742.32	51.65
742.5	51.99
742.681	52.73
742.861	52.52
743.042	52.39
743.222	52.82
743.403	53.16
743.583	53.75
743.764	53.65
743.944	54.5
744.124	54.66
744.305	55.16
744.485	54.86
744.666	53.63
744.846	53.54
745.026	54.27
745.207	55.35
745.387	55.96
745.567	55.36
745.747	55.74
745.928	55.37
746.108	55.37
746.288	55.68
746.468	53.88
746.648	55.47
746.829	55.66
747.009	55.34
747.189	54.31
747.369	52.83
747.549	53.16
747.729	52.92
747.909	52.31
748.089	51.52
748.269	51.11
748.449	52.11
748.629	51.89
748.809	52.35
748.989	52.25
749.169	52.42
749.349	52.8
749.529	53.08
749.709	52.24
749.889	51.65
750.068	52.28
750.248	53.16
750.428	52.83
750.608	51.56
750.788	52.08
750.967	52.14
751.147	51.77
751.327	51.38
751.507	50.91
751.686	52.28
751.866	51.79
752.046	51.21
752.225	50.78
752.405	52.08
752.585	53.38
752.764	52.42
752.944	51.87
753.123	52.12
753.303	51.88
753.482	52.58
753.662	51.5
753.841	52.53
754.021	52.38
754.2	52.03
754.38	50.98
754.559	50.27
754.739	49.9
754.918	50.55
755.097	50.23
755.277	50.75
755.456	50.05
755.635	51.61
755.815	52.11
755.994	52.61
756.173	52.72
756.352	52.97
756.532	52.82
756.711	54.28
756.89	54.59
757.069	54.16
757.248	53.9
757.427	53.8
757.607	53.77
757.786	54.37
757.965	54.13
758.144	54.26
758.323	54.35
758.502	54.48
758.681	53.61
758.86	52.97
759.039	53.41
759.218	53.26
759.397	53.35
759.576	51.8
759.755	50.49
759.934	51.21
760.113	51.84
760.291	51.69
760.47	52.05
760.649	52.39
760.828	52.09
761.007	53.53
761.186	53.88
761.364	53.91
761.543	54.26
761.722	54
761.901	53.29
762.079	53.2
762.258	53.74
762.437	53.21
762.615	53.22
762.794	53.36
762.972	52.03
763.151	52.35
763.33	53.2
763.508	53.43
763.687	53.9
763.865	53.6
764.044	52.76
764.222	51.92
764.401	52.05
764.579	51.91
764.758	52.46
764.936	52.7
765.114	52.58
765.293	51.91
765.471	52.04
765.65	50.94
765.828	50.86
766.006	51.91
766.184	53.48
766.363	53.74
766.541	53.15
766.719	53.14
766.898	53.12
767.076	52.91
767.254	53.52
767.432	53.18
767.61	54.41
767.788	56.12
767.967	55.23
768.145	53.95
768.323	54.03
768.501	54.98
768.679	54.84
768.857	54.56
769.035	55.7
769.213	55.63
769.391	56.04
769.569	56.75
769.747	56.37
769.925	57.22
770.103	58.33
770.281	57.84
770.459	57.55
770.636	57.43
770.814	57.52
770.992	57.24
771.17	56.59
771.348	56.14
771.525	55.51
771.703	55.92
771.881	55.67
772.059	55.21
772.236	55.44
772.414	55.59
772.592	56.07
772.769	57.23
772.947	57.53
773.125	57.17
773.302	57.69
773.48	57.34
773.657	55.9
773.835	54.88
774.013	56.57
774.19	56.83
774.368	57.91
774.545	56.83
774.723	56.72
774.9	55.28
775.077	55.64
775.255	55.57
775.432	56.7
775.61	55.65
775.787	56.05
775.964	53.79
776.142	54.4
776.319	55.58
776.496	56.31
776.674	55.29
776.851	56.17
777.028	57.5
777.205	56.02
777.382	55.79
777.56	57.82
777.737	59.97
777.914	60.77
778.091	58.94
778.268	56.19
778.445	55.4
778.622	55.67
778.8	58.23
778.977	56.77
779.154	63.35
779.331	62.82
779.508	61.23
779.685	60.27
779.862	59.66
780.038	61.44
780.215	63
780.392	62.97
780.569	63.34
780.746	61.26
780.923	62.43
781.1	57.26
781.277	58.17
781.453	58.72
781.63	59.04
781.807	60.64
781.984	61.2
782.16	59.41
782.337	58.4
782.514	56.98
782.691	57.97
782.867	57.4
783.044	58.47
783.221	57.68
783.397	56.83
783.574	54.87
783.75	53.17
783.927	51.59
784.103	53.72
784.28	55.11
784.456	56.18
784.633	54.99
784.809	54.32
784.986	52.52
785.162	51.72
785.339	53.76
785.515	53.14
785.692	50.86
785.868	50.59
786.044	49.31
786.221	50.88
786.397	51.3
786.573	50.42
786.749	50.91
786.926	50.91
787.102	51.1
787.278	49.93
787.454	51.46
787.631	53.54
787.807	54.08
787.983	54.97
788.159	55.42
788.335	55.36
788.511	55.08
788.687	55.88
788.863	56.79
789.039	57.7
789.216	57.75
789.392	56.25
789.568	55.83
789.744	57.45
789.919	56.33
790.095	54.76
790.271	55.91
790.447	56.52
790.623	55.91
790.799	55.19
790.975	54.84
791.151	54.45
791.327	56.49
791.502	56.79
791.678	56.75
791.854	57.02
792.03	56.62
792.205	56.98
792.381	54.94
792.557	55
792.733	53.45
792.908	53.47
793.084	54.78
793.259	54.56
793.435	55.39
793.611	53.68
793.786	52.8
793.962	52.15
794.137	49.42
794.313	53.05
794.488	54.53
794.664	57.4
794.839	55.81
795.015	54.68
795.19	52.1
795.366	51.09
795.541	50.93
795.716	51.53
795.892	53.24
796.067	53.77
796.242	54.26
796.418	51.53
796.593	50.33
796.768	50.99
796.944	50.25
797.119	51.86
797.294	53.86
797.469	52.75
797.644	54.05
797.82	53.85
797.995	54.77
798.17	52.01
798.345	54.57
798.52	56.53
798.695	57.39
798.87	59.32
799.045	59.19
799.22	59.31
799.395	60.37
799.57	58.81
799.745	57.24
799.92	57.22
800.095	59.73
800.27	57.07
800.445	56.54
800.62	57.93
800.795	59
800.97	59.58
801.145	57.21
801.319	58.24
801.494	58.79
801.669	59.44
801.844	62.39
802.018	59.55
802.193	60.86
802.368	60.03
802.543	58.42
802.717	57.81
802.892	58.9
803.067	62.19
803.241	61.91
803.416	61.28
803.59	61.54
803.765	58.8
803.94	61.9
804.114	61.64
804.289	63.34
804.463	62.4
804.638	61.44
804.812	59.23
804.986	56.45
805.161	54.5
805.335	54.64
805.51	54.91
805.684	53.49
805.858	53.45
806.033	53.21
806.207	51.41
806.381	52.5
806.556	53.71
806.73	55.19
806.904	55.34
807.078	56.38
807.253	56.43
807.427	55.44
807.601	56.74
807.775	55.9
807.949	54.47
808.123	56.16
808.298	55.34
808.472	55.08
808.646	54.67
808.82	56.19
808.994	55.84
809.168	55.48
809.342	54.79
809.516	55.5
809.69	54.78
809.864	58.26
810.038	57.76
810.212	59.02
810.385	58.23
810.559	61.44
810.733	58.09
810.907	60.9
811.081	61.68
811.255	63.86
811.428	62.28
811.602	64.95
811.776	63.06
811.95	62.7
812.123	61.92
812.297	61.64
812.471	59.09
812.644	62.97
812.818	61.4
812.992	60.91
813.165	61.39
813.339	63
813.512	61.67
813.686	64.91
813.86	64.4
814.033	64.78
814.207	65.26
814.38	64.65
814.554	63.94
814.727	64.46
814.9	65.66
815.074	64.18
815.247	64.87
815.421	61.65
815.594	61.24
815.767	62.03
815.941	62.86
816.114	63.42
816.287	63.45
816.46	61.4
816.634	59.47
816.807	60.3
816.98	61.07
817.153	61.27
817.327	63.47
817.5	63.89
817.673	59.75
817.846	59.77
818.019	55
818.192	58.06
818.365	61.28
818.538	64.34
818.711	62.43
818.884	63.11
819.057	62.94
819.23	62.42
819.403	61.8
819.576	62.57
819.749	62.8
819.922	65.8
820.095	62.99
820.268	63.07
820.441	62.07
820.614	62.62
820.786	59.91
820.959	57.09
821.132	57.19
821.305	55.74
821.477	55.36
821.65	55.14
821.823	54.42
821.996	54.72
822.168	53.87
822.341	53.3
822.514	52.45
822.686	53.02
822.859	53.14
823.031	53.12
823.204	53.36
823.376	53.87
823.549	53.67
823.722	53.75
823.894	53.92
824.067	53.62
824.239	53.73
824.411	53.89
824.584	53.97
824.756	54.37
824.929	53.89
825.101	53.72
825.273	53.04
825.446	52.23
825.618	52.2
825.79	51.52
825.963	51.72
826.135	51.57
826.307	52.16
826.479	52.33
826.652	51.82
826.824	52.4
826.996	52.38
827.168	52.98
827.34	53.57
827.512	53.6
827.684	53.6
827.856	54.16
828.029	54.74
828.201	53.36
828.373	52.9
828.545	53.29
828.717	53.32
828.889	52.35
829.061	51.71
829.232	52.96
829.404	52.78
829.576	52.89
829.748	52.72
829.92	52.62
830.092	55
830.264	55.17
830.436	55.9
830.607	56.27
830.779	57.14
830.951	58.63
831.123	56.91
831.294	58.18
831.466	59.55
831.638	59.57
831.809	59.75
831.981	58.38
832.153	58.47
832.324	58.98
832.496	58.82
832.667	60.43
832.839	62.28
833.011	63.46
833.182	64.24
833.354	65.19
833.525	65.4
833.697	63.53
833.868	61.98
834.039	62.08
834.211	60.34
834.382	59.37
834.554	58.17
834.725	57.14
834.896	56.22
835.068	54.98
835.239	52.8
835.41	52.58
835.581	53.55
835.753	53.33
835.924	52.74
836.095	52.5
836.266	53.93
836.438	53.44
836.609	51.89
836.78	51.41
836.951	51.4
837.122	52.38
837.293	53.25
837.464	52.27
837.635	53.83
837.806	54.7
837.977	56.13
838.148	54.82
838.319	54.58
838.49	56.93
838.661	55.51
838.832	54.91
839.003	54.59
839.174	56.28
839.345	58.04
839.516	57.44
839.687	59.09
839.857	60.1
840.028	61.52
840.199	61.79
840.37	61.19
840.54	66.41
840.711	65.79
840.882	64.28
841.053	59.42
841.223	56.05
841.394	57.17
841.564	56.04
841.735	52.63
841.906	51.62
842.076	53.43
842.247	51.67
842.417	51.58
842.588	51.41
842.758	53.82
842.929	55.67
843.099	63.68
843.27	59.98
843.44	57.89
843.611	56.48
843.781	55.34
843.951	60.05
844.122	60.45
844.292	58.45
844.462	58.47
844.633	54.87
844.803	54.39
844.973	46.48
845.144	49.8
845.314	52.64
845.484	59.03
845.654	60.94
845.824	59.61
845.995	58.27
846.165	63.33
846.335	64.79
846.505	77.88
846.675	80.7
846.845	92.7
847.015	96.05
847.185	99.5
847.355	89.93
847.525	88.18
847.695	79.29
847.865	87.06
848.035	79.98
848.205	81.03
848.375	76.61
848.545	78.01
848.715	69.36
848.884	71.42
849.054	61.75
849.224	66.86
849.394	73.1
849.564	79.84
849.733	78.05
849.903	69.46
850.073	66.75
850.243	67.56
850.412	61.17
850.582	64.93
850.752	64.37
850.921	65.02
851.091	62.8
851.26	58.79
851.43	55.23
851.599	56.29
851.769	57.37
851.939	59.05
852.108	51.97
852.278	54.48
852.447	52.01
852.616	47.81
852.786	51.46
852.955	49.93
853.125	57.04
853.294	66.85
853.463	61.2
853.633	71.31
853.802	71.49
853.971	73.35
854.141	73.48
854.31	79
854.479	78.18
854.648	72.31
854.818	74.12
854.987	67.22
855.156	65.42
855.325	66.24
855.494	64.13
855.663	59.83
855.832	70.37
856.001	72.03
856.171	69.8
856.34	83.08
856.509	84.32
856.678	95.7
856.847	99.65
857.016	87.09
857.185	87.66
857.353	86.22
857.522	103.16
857.691	97.91
857.86	105.32
858.029	104.4
858.198	101.44
858.367	99.52
858.535	100.69
858.704	100.2
858.873	107.19
859.042	100.1
859.21	98.13
859.379	83.38
859.548	82.73
859.717	69.75
859.885	72.59
860.054	73.82
860.222	73.35
860.391	71.43
860.56	68.15
860.728	73.58
860.897	74.06
861.065	72.13
861.234	69.47
861.402	62.94
861.571	69.25
861.739	63.19
861.908	58.58
862.076	54.7
862.244	54.71
862.413	48.17
862.581	31.83
862.749	32.18
862.918	44.21
863.086	51.13
863.254	50.44
863.423	47.92
863.591	55.23
863.759	51.41
863.927	61.54
864.096	64.19
864.264	68.43
864.432	71.99
864.6	69.92
864.768	67.94
864.936	67.87
865.104	73.23
865.272	75.51
865.44	85.29
865.608	87.53
865.776	89.69
865.944	85.13
866.112	89.82
866.28	92.59
866.448	93.15
866.616	92.73
866.784	99.27
866.952	95.07
867.12	102
867.288	97.12
867.455	98.08
867.623	101.1
867.791	102.56
867.959	93.29
868.127	92.43
868.294	99.01
868.462	86.07
868.63	80.13
868.797	87.36
868.965	70.6
869.133	72.89
869.3	73.8
869.468	69.46
869.636	75.82
869.803	79.56
869.971	80.85
870.138	84.03
870.306	86.9
870.473	84.03
870.641	81.35
870.808	93.27
870.975	90.83
871.143	89.05
871.31	85.25
871.478	76.68
871.645	77.24
871.812	77.08
871.98	77.96
872.147	79.64
872.314	82.09
872.482	74.53
872.649	65.84
872.816	66.48
872.983	68.4
873.15	72.03
873.318	72.22
873.485	76.42
873.652	84.28
873.819	89.41
873.986	84.36
874.153	85.42
874.32	89.5
874.487	92
874.654	87.27
874.821	84.5
874.988	83.62
875.155	91.57
875.322	94.07
875.489	91.98
875.656	79.59
875.823	91.73
875.99	91.06
876.157	99.67
876.324	97.99
876.49	99.33
876.657	100.89
876.824	92.1
876.991	85.96
877.157	80.51
877.324	78.73
877.491	72.74
877.658	61.34
877.824	60.31
877.991	54.9
878.157	54.99
878.324	58.73
878.491	62.54
878.657	68.9
878.824	65
878.99	61.45
879.157	60.81
879.323	64.6
879.49	63.93
879.656	69.27
879.823	74.92
879.989	79.05
880.156	80.32
880.322	76.89
880.488	78.72
880.655	82.7
880.821	81
880.987	78.99
881.154	79.25
881.32	81.85
881.486	73.34
881.652	68.1
881.819	66.75
881.985	61.17
882.151	58.86
882.317	56.49
882.483	55.7
882.649	54.45
882.816	51.6
882.982	51.52
883.148	51.61
883.314	53.69
883.48	53.07
883.646	53.75
883.812	54.39
883.978	55.53
884.144	55.97
884.31	55.11
884.476	56.27
884.642	57.37
884.807	59.26
884.973	58.5
885.139	57.99
885.305	58.85
885.471	59.59
885.637	60.26
885.802	59.1
885.968	59.89
886.134	59.52
886.3	60.49
886.465	63.26
886.631	62.58
886.797	64.85
886.962	65.53
887.128	66.7
887.293	63.33
887.459	63
887.625	66.25
887.79	63.8
887.956	73.13
888.121	72.97
888.287	67.74
888.452	66.15
888.618	67.59
888.783	66.02
