Data from LC_157_Reflection_3.txt Node
Date: Mon Nov 16 22:25:10 EST 2015
User: robert
Spectrometer: USB4E03001
Autoset integration time: false
Trigger mode: 4
Integration Time (sec): 1.000000E-1
Scans to average: 15
Electric dark correction enabled: true
Nonlinearity correction enabled: false
Boxcar width: 5
Stray light correction enabled: false
XAxis mode: Wavelengths
Stop averaging: false
Number of Pixels in Spectrum: 3648
>>>>>Begin Spectral Data<<<<<
177.566	6468.67
177.785	520.62
178.005	-4063.87
178.225	286.14
178.445	495.49
178.665	-525.34
178.885	218.49
179.105	1142.06
179.324	1731.31
179.544	-266.39
179.764	-1454.17
179.984	-680.28
180.204	-577.98
180.423	-568.58
180.643	-628.18
180.863	-410.89
181.083	-364.68
181.302	-397.42
181.522	-303.14
181.742	-265.19
181.961	-448.9
182.181	-347.42
182.401	-455.79
182.621	-1871.72
182.84	-725.74
183.06	-589.57
183.279	-363.76
183.499	-262.02
183.719	-240.18
183.938	-221.14
184.158	-265.46
184.377	-186.64
184.597	-349.69
184.816	-251.03
185.036	-184.56
185.256	-153.85
185.475	-169.55
185.695	-277
185.914	-427.12
186.134	-704.48
186.353	-837.3
186.572	-938.28
186.792	-1401.4
187.011	-523.66
187.231	-382.6
187.45	-294.25
187.67	-828.17
187.889	-2197
188.108	3535.23
188.328	-822.57
188.547	-258.57
188.766	-610.45
188.986	-948.38
189.205	-601
189.424	-377.85
189.644	-1017.01
189.863	-1167.07
190.082	-637.94
190.302	-1617.15
190.521	-947.2
190.74	884.33
190.959	427.42
191.178	659.32
191.398	603.67
191.617	590.2
191.836	543.29
192.055	1376.17
192.274	627.38
192.494	798.03
192.713	857.43
192.932	2017.21
193.151	1803.31
193.37	3250.87
193.589	-1842.79
193.808	-516.02
194.027	-806.81
194.246	-6667.04
194.465	1287.09
194.685	2882.87
194.904	1228.31
195.123	-1595.27
195.342	-902.11
195.561	-416.59
195.78	-696.04
195.999	31145.07
196.218	1047.82
196.436	724.12
196.655	-2685.32
196.874	-783.14
197.093	-1125.54
197.312	-886.27
197.531	2498.67
197.75	886.48
197.969	-2584.63
198.188	-536.19
198.407	-110.4
198.625	-166.78
198.844	-138.35
199.063	-153.26
199.282	-434.54
199.501	-282.08
199.719	-219.13
199.938	-146.68
200.157	-133.87
200.376	-180.33
200.594	-260.24
200.813	-533.26
201.032	-362.29
201.251	-334.09
201.469	-310.81
201.688	-203.63
201.907	-402.88
202.125	-627.59
202.344	24901.19
202.563	4571.54
202.781	644.97
203	1842.93
203.218	1466.87
203.437	1338.57
203.656	693.38
203.874	386.59
204.093	391.51
204.311	493.45
204.53	453.04
204.748	589.67
204.967	361.67
205.185	402.82
205.404	434.88
205.622	276.66
205.841	197.48
206.059	181.25
206.278	169.54
206.496	398.69
206.715	253.05
206.933	261.1
207.151	278.9
207.37	388.16
207.588	374.37
207.806	359.84
208.025	695.34
208.243	-1440.58
208.461	2615.55
208.68	-27820
208.898	1042.88
209.116	1158.43
209.335	993.7
209.553	958.28
209.771	8206.25
209.989	1623.38
210.208	3420.53
210.426	-6118.43
210.644	3047.68
210.862	-2340.41
211.081	976.49
211.299	-416.82
211.517	1549.64
211.735	-354.43
211.953	-120342.86
212.171	-2521.69
212.39	-7120.72
212.608	-20997.83
212.826	884.68
213.044	743.71
213.262	664.47
213.48	3735.44
213.698	405.13
213.916	566.23
214.134	404.21
214.352	868.36
214.57	509.15
214.788	663.09
215.006	541.64
215.224	470.3
215.442	350.37
215.66	311.97
215.878	242.64
216.096	246.21
216.314	258.38
216.532	470.42
216.75	401.49
216.968	389.89
217.185	894.37
217.403	1504.02
217.621	-4044.44
217.839	-1155.45
218.057	-1329.5
218.275	2691.16
218.492	963.95
218.71	1420.23
218.928	432.38
219.146	378.03
219.363	318.69
219.581	227
219.799	188.36
220.017	197.13
220.234	195.36
220.452	223.45
220.67	224.36
220.887	208.03
221.105	251.99
221.323	215.47
221.54	217.55
221.758	294.51
221.976	347.78
222.193	297.33
222.411	204.83
222.629	213.7
222.846	200.12
223.064	214.16
223.281	194.02
223.499	181.26
223.716	175.45
223.934	159.44
224.151	143.33
224.369	118.57
224.586	137.14
224.804	158.07
225.021	139.45
225.239	121.68
225.456	112.49
225.674	105.25
225.891	89.32
226.108	108.33
226.326	96.99
226.543	86.71
226.76	79.23
226.978	71.71
227.195	68.01
227.413	57.48
227.63	52.98
227.847	45.73
228.064	44.56
228.282	37.3
228.499	30.18
228.716	27.67
228.934	24.38
229.151	26.51
229.368	23.98
229.585	23.58
229.802	24.35
230.02	23.68
230.237	25.23
230.454	24.88
230.671	29.11
230.888	31.73
231.105	32.74
231.323	36.31
231.54	40.16
231.757	41.35
231.974	43.7
232.191	42.16
232.408	44.41
232.625	41.25
232.842	40.18
233.059	35.85
233.276	32.31
233.493	34.45
233.71	32.67
233.927	31.08
234.144	35.69
234.361	32.18
234.578	40.08
234.795	36.56
235.012	38.27
235.229	38.97
235.446	39.82
235.663	42.1
235.879	44.35
236.096	44.7
236.313	42.71
236.53	35.61
236.747	41.11
236.964	31.38
237.181	33.75
237.397	34.3
237.614	37.13
237.831	34.83
238.048	34.62
238.264	33.39
238.481	30.92
238.698	34.33
238.915	39.96
239.131	38.02
239.348	42.18
239.565	45.02
239.781	46.39
239.998	42.26
240.215	41.25
240.431	38.72
240.648	35.51
240.865	34.91
241.081	30.92
241.298	27.92
241.514	25.94
241.731	24.03
241.947	21.49
242.164	19.36
242.38	18.79
242.597	17.05
242.814	16.96
243.03	15.48
243.246	15.77
243.463	15.05
243.679	16.34
243.896	14.67
244.112	15.4
244.329	15.63
244.545	16.83
244.762	17.63
244.978	20.03
245.194	19.34
245.411	20.8
245.627	20.5
245.843	20.91
246.06	20.68
246.276	21.12
246.492	19.94
246.709	18.59
246.925	17.63
247.141	16.21
247.357	15.57
247.574	15.81
247.79	15.56
248.006	14.1
248.222	14.25
248.439	13.42
248.655	13.72
248.871	13.74
249.087	15.56
249.303	15.93
249.519	18.19
249.736	20.89
249.952	20.32
250.168	22.28
250.384	24.91
250.6	26.23
250.816	26.27
251.032	24.71
251.248	24.7
251.464	21.32
251.68	20.16
251.896	19.35
252.112	17.6
252.328	19.54
252.544	19.84
252.76	19.76
252.976	19.05
253.192	20.12
253.408	22.6
253.624	26.11
253.84	28.09
254.056	30.23
254.272	29.97
254.487	30.84
254.703	30.04
254.919	30.02
255.135	27.42
255.351	27.58
255.567	29.07
255.782	26.48
255.998	20.82
256.214	21.2
256.43	18.17
256.646	19.28
256.861	18.73
257.077	18.58
257.293	17.42
257.508	19.43
257.724	20.95
257.94	18.36
258.155	16.36
258.371	16.66
258.587	14.93
258.802	14.62
259.018	14.65
259.234	13.32
259.449	13.46
259.665	12.23
259.88	12.31
260.096	11.41
260.312	10.49
260.527	10.75
260.743	11.17
260.958	11.78
261.174	11.78
261.389	11.91
261.605	12.59
261.82	12.56
262.036	12.95
262.251	13.87
262.466	14.11
262.682	16.57
262.897	17.19
263.113	15.65
263.328	16.06
263.543	17.93
263.759	17.01
263.974	18.25
264.189	18.65
264.405	20.16
264.62	18.92
264.835	19.6
265.051	18.99
265.266	21.56
265.481	23.85
265.696	24.59
265.912	24.58
266.127	23.78
266.342	21.53
266.557	21.62
266.773	20.9
266.988	20.08
267.203	19.35
267.418	18.54
267.633	15.82
267.848	15.49
268.064	12.52
268.279	12.45
268.494	11.72
268.709	12.74
268.924	11.63
269.139	13.59
269.354	14.08
269.569	13.57
269.784	14.05
269.999	14.98
270.214	14.55
270.429	17.73
270.644	16.05
270.859	16.97
271.074	16.12
271.289	15.6
271.504	15.06
271.719	14.93
271.934	14.71
272.149	14.29
272.363	14.53
272.578	13.21
272.793	12.59
273.008	12.93
273.223	12.31
273.438	11.79
273.653	13.07
273.867	12.73
274.082	12.28
274.297	12.92
274.512	13.39
274.726	13.36
274.941	14.67
275.156	13.63
275.371	14.06
275.585	14.87
275.8	16.55
276.015	15.32
276.229	14.59
276.444	16.36
276.659	16.56
276.873	17.26
277.088	17.03
277.302	17.13
277.517	18.43
277.732	19.02
277.946	17.96
278.161	18.27
278.375	19
278.59	20.26
278.804	18.9
279.019	19.06
279.233	18.14
279.448	18.49
279.662	18.02
279.877	17.19
280.091	16.77
280.306	16.94
280.52	15.49
280.735	14.01
280.949	12.87
281.163	13.35
281.378	12.26
281.592	12.09
281.806	12.28
282.021	11.14
282.235	11.86
282.449	12.27
282.664	13.02
282.878	12.37
283.092	13.39
283.307	13.5
283.521	13.57
283.735	14.04
283.949	14.25
284.164	13.59
284.378	15.16
284.592	13.71
284.806	12.89
285.02	11.88
285.234	11.5
285.449	10.76
285.663	10.49
285.877	10.09
286.091	10.21
286.305	9.64
286.519	8.85
286.733	7.68
286.947	7.84
287.161	7.96
287.375	8.66
287.589	10.12
287.803	11.45
288.017	11.95
288.231	11.9
288.445	12.31
288.659	13.8
288.873	14.6
289.087	15.34
289.301	15.57
289.515	15.44
289.729	15.77
289.943	15.78
290.157	15.1
290.371	16.05
290.584	16.25
290.798	16.41
291.012	16.07
291.226	15.91
291.44	16.16
291.654	15.95
291.867	16.09
292.081	15.04
292.295	14.95
292.509	13.98
292.722	12.95
292.936	12.98
293.15	12.79
293.364	12.91
293.577	13.64
293.791	12.84
294.005	14.11
294.218	14.57
294.432	15.88
294.645	15.49
294.859	16.25
295.073	16.32
295.286	16.91
295.5	16.29
295.713	15.97
295.927	15.99
296.14	16.93
296.354	15.99
296.568	15.43
296.781	15.3
296.994	15.29
297.208	15.02
297.421	14.33
297.635	13.94
297.848	14.27
298.062	13.69
298.275	14.34
298.489	14.96
298.702	15.87
298.915	16.29
299.129	16.8
299.342	16.8
299.555	16.85
299.769	17.53
299.982	16.87
300.195	16.36
300.409	17.17
300.622	16.08
300.835	16.24
301.048	15.12
301.262	15.23
301.475	14.95
301.688	15.6
301.901	17.04
302.115	16.39
302.328	17.66
302.541	17.79
302.754	17.67
302.967	18.14
303.18	16.45
303.393	16.47
303.607	16.54
303.82	15.23
304.033	14.4
304.246	14.39
304.459	15.57
304.672	15.01
304.885	15.36
305.098	15.62
305.311	15.4
305.524	17.08
305.737	17.32
305.95	18.07
306.163	18.76
306.376	18.86
306.589	18.43
306.802	17.15
307.015	17.67
307.228	17.49
307.44	16.54
307.653	15.15
307.866	13.9
308.079	15.82
308.292	15.36
308.505	15.74
308.718	15.94
308.93	15.9
309.143	16.96
309.356	16.14
309.569	16.67
309.781	17.99
309.994	18.57
310.207	18.37
310.42	16.59
310.632	16
310.845	16.47
311.058	16.04
311.27	16.84
311.483	15.88
311.696	15.96
311.908	15.29
312.121	14.42
312.333	15.28
312.546	15.63
312.759	16.91
312.971	16.63
313.184	16.11
313.396	15.82
313.609	15.43
313.821	15.03
314.034	15.43
314.246	15.66
314.459	15.86
314.671	15.65
314.884	15.22
315.096	13.84
315.309	14.24
315.521	14.9
315.733	14.7
315.946	12.12
316.158	13.41
316.371	13.18
316.583	13.68
316.795	14.33
317.008	14.13
317.22	16.51
317.432	17.15
317.644	16.95
317.857	15.73
318.069	16.6
318.281	19.09
318.494	19.23
318.706	19.05
318.918	18.95
319.13	18.9
319.342	19.76
319.555	17.95
319.767	18.52
319.979	19.48
320.191	19.23
320.403	19.26
320.615	18.97
320.827	19.3
321.039	20.32
321.252	21
321.464	20.27
321.676	19.78
321.888	18.98
322.1	18.37
322.312	17.3
322.524	17.58
322.736	18.01
322.948	17.94
323.16	17.51
323.372	16.82
323.584	16.05
323.796	16.26
324.007	15.65
324.219	15.14
324.431	14.94
324.643	15.67
324.855	15.86
325.067	16.29
325.279	16.09
325.491	16.05
325.702	16.07
325.914	16.37
326.126	16.9
326.338	17.06
326.55	17.88
326.761	19.17
326.973	19.46
327.185	19.38
327.396	18.65
327.608	19.34
327.82	19.71
328.032	19.93
328.243	20.13
328.455	20.07
328.666	20.7
328.878	21.12
329.09	19.97
329.301	19.72
329.513	20.5
329.725	20.95
329.936	20.05
330.148	19.74
330.359	19.52
330.571	19.73
330.782	20.86
330.994	21.75
331.205	23.17
331.417	23.89
331.628	24.72
331.84	24.93
332.051	25.93
332.262	27.41
332.474	27.81
332.685	28.69
332.897	27.67
333.108	27.26
333.319	25.96
333.531	25.2
333.742	25.3
333.953	23.69
334.165	24.09
334.376	23.94
334.587	23.58
334.799	23.23
335.01	22.35
335.221	22.68
335.432	22.35
335.644	22
335.855	22.5
336.066	23.01
336.277	23.87
336.488	23.41
336.7	22.96
336.911	22.74
337.122	23.17
337.333	23.91
337.544	24.92
337.755	24.59
337.966	25.08
338.177	24.46
338.388	24.38
338.599	25.31
338.811	25.59
339.022	26.39
339.233	27.7
339.444	28.26
339.655	27.28
339.866	26.35
340.076	27.13
340.287	27.7
340.498	28.24
340.709	27.66
340.92	26.86
341.131	26.42
341.342	25.78
341.553	24.8
341.764	24.22
341.975	25.07
342.185	25.48
342.396	25.28
342.607	25.64
342.818	25.04
343.029	25.21
343.239	24.9
343.45	25.38
343.661	25.58
343.872	24.8
344.082	24.09
344.293	23.65
344.504	23.46
344.714	22.31
344.925	21.34
345.136	21.5
345.346	21.32
345.557	21.47
345.768	20.99
345.978	21.07
346.189	22.13
346.399	22.31
346.61	22.99
346.821	23.28
347.031	24.39
347.242	24.89
347.452	25.24
347.663	25.27
347.873	25.43
348.084	25.81
348.294	25.73
348.504	25.12
348.715	25.43
348.925	25.3
349.136	25.39
349.346	24.87
349.557	24.9
349.767	25.05
349.977	25.22
350.188	25.38
350.398	25.64
350.608	25.14
350.819	25.06
351.029	25.09
351.239	24.75
351.449	24.01
351.66	24.35
351.87	24.67
352.08	23.7
352.29	22.94
352.501	22.11
352.711	22.1
352.921	22.11
353.131	21.69
353.341	22.23
353.552	22.03
353.762	22.88
353.972	22.98
354.182	23.37
354.392	22.8
354.602	23.02
354.812	23.93
355.022	23.99
355.232	24.05
355.442	24.78
355.652	24.12
355.862	24.13
356.072	23.77
356.282	23.39
356.492	23.24
356.702	23.78
356.912	24.44
357.122	24.32
357.332	23.62
357.542	23.03
357.752	22.63
357.962	22.6
358.171	22.86
358.381	22.86
358.591	23.04
358.801	22.16
359.011	22.67
359.221	22.35
359.43	21.93
359.64	21.87
359.85	22.48
360.06	22.44
360.269	22.34
360.479	21.79
360.689	21.27
360.899	21.1
361.108	20.92
361.318	20.35
361.528	19.88
361.737	19.6
361.947	19.51
362.156	19.04
362.366	18.82
362.576	18.93
362.785	19.28
362.995	19.5
363.204	19.79
363.414	20.07
363.623	20.39
363.833	21.23
364.042	21.44
364.252	21.92
364.461	22.3
364.671	22.25
364.88	22.6
365.09	22.74
365.299	23.2
365.509	22.22
365.718	21.93
365.927	21.49
366.137	21.3
366.346	21.74
366.555	21.38
366.765	21.11
366.974	21.72
367.183	21.1
367.393	20.87
367.602	20.25
367.811	20.42
368.021	19.73
368.23	20.06
368.439	19.43
368.648	19.64
368.857	19.81
369.067	20.18
369.276	19.69
369.485	20.05
369.694	19.91
369.903	20.21
370.112	20.65
370.321	21.31
370.531	21.17
370.74	20.95
370.949	20.24
371.158	20.15
371.367	20.01
371.576	19.96
371.785	19.71
371.994	19.9
372.203	20.09
372.412	20.09
372.621	20.57
372.83	20.76
373.039	21.42
373.248	21.24
373.457	21.38
373.666	21.06
373.874	21.21
374.083	21.32
374.292	20.8
374.501	20.21
374.71	19.93
374.919	19.75
375.128	19.46
375.336	18.91
375.545	19.05
375.754	18.55
375.963	18.65
376.171	18.51
376.38	18.55
376.589	18.85
376.798	18.55
377.006	18.59
377.215	18.7
377.424	18.91
377.632	19.32
377.841	19.13
378.05	19.06
378.258	19
378.467	18.89
378.675	18.53
378.884	18.21
379.093	18.56
379.301	18.36
379.51	17.92
379.718	17.5
379.927	17.16
380.135	16.92
380.344	16.78
380.552	16.49
380.761	16.64
380.969	16.9
381.177	16.95
381.386	16.38
381.594	16.54
381.803	16.52
382.011	16.38
382.219	15.87
382.428	15.81
382.636	15.84
382.845	16.4
383.053	16.27
383.261	15.97
383.469	16.27
383.678	16.59
383.886	16.13
384.094	15.97
384.302	16.18
384.511	16.49
384.719	16.7
384.927	16.66
385.135	16.07
385.343	16.37
385.552	16.4
385.76	15.97
385.968	15.87
386.176	15.83
386.384	15.71
386.592	15.37
386.8	15.07
387.008	14.97
387.216	15.31
387.424	15.4
387.633	15.22
387.841	15.24
388.049	15.41
388.257	15.29
388.465	15.65
388.672	15.8
388.88	15.96
389.088	16.13
389.296	16.33
389.504	16.21
389.712	16.17
389.92	15.98
390.128	15.74
390.336	15.81
390.544	16.19
390.751	15.69
390.959	15.85
391.167	15.98
391.375	16.07
391.583	15.7
391.79	15.41
391.998	15.45
392.206	15.61
392.414	15.49
392.621	15.42
392.829	15.15
393.037	15.36
393.244	15.26
393.452	15.39
393.66	15.44
393.867	15.72
394.075	15.64
394.283	15.75
394.49	15.52
394.698	15.92
394.905	15.46
395.113	15.32
395.32	15.39
395.528	14.94
395.735	14.86
395.943	14.69
396.15	14.45
396.358	14.61
396.565	14.5
396.773	14.78
396.98	14.54
397.188	14.58
397.395	14.7
397.602	14.66
397.81	14.62
398.017	14.61
398.225	14.53
398.432	14.77
398.639	14.93
398.847	14.79
399.054	14.29
399.261	14.32
399.468	14.57
399.676	14.14
399.883	14.16
400.09	14.68
400.297	14.6
400.505	15
400.712	14.96
400.919	15.04
401.126	15.28
401.333	15.58
401.54	15.27
401.748	15.54
401.955	15.76
402.162	15.89
402.369	15.56
402.576	15.27
402.783	14.99
402.99	14.92
403.197	14.64
403.404	14.45
403.611	14.5
403.818	14.55
404.025	14.29
404.232	14.22
404.439	14.08
404.646	13.81
404.853	13.79
405.06	13.83
405.267	13.66
405.474	13.59
405.681	13.49
405.887	13.38
406.094	13.43
406.301	13.26
406.508	13.66
406.715	13.82
406.922	14.25
407.128	14.28
407.335	14.15
407.542	14.33
407.749	14.53
407.955	14.76
408.162	14.56
408.369	14.76
408.575	14.88
408.782	14.48
408.989	14.17
409.195	13.81
409.402	13.77
409.609	13.88
409.815	13.96
410.022	14.02
410.228	13.81
410.435	13.95
410.642	13.53
410.848	13.45
411.055	13.57
411.261	13.52
411.468	13.95
411.674	13.83
411.881	13.7
412.087	13.76
412.294	13.62
412.5	13.44
412.706	13.42
412.913	13.61
413.119	13.46
413.326	13.23
413.532	13.36
413.738	12.94
413.945	13.41
414.151	13.47
414.357	13.38
414.564	13.28
414.77	13.48
414.976	13.52
415.182	13.84
415.389	14.12
415.595	14.12
415.801	14.07
416.007	14.18
416.214	14.02
416.42	13.84
416.626	13.62
416.832	13.48
417.038	13.37
417.244	13.32
417.45	12.96
417.657	13.13
417.863	13.3
418.069	13.28
418.275	13.32
418.481	13.11
418.687	13.18
418.893	13.2
419.099	13.3
419.305	13.37
419.511	13.33
419.717	13.42
419.923	13.14
420.129	13.19
420.335	13.18
420.541	13.18
420.746	13.27
420.952	13.21
421.158	13.17
421.364	13.13
421.57	13.14
421.776	13.18
421.982	13.13
422.187	13.11
422.393	12.99
422.599	12.85
422.805	12.8
423.01	12.77
423.216	12.68
423.422	12.7
423.628	12.68
423.833	12.55
424.039	12.62
424.245	12.65
424.45	12.83
424.656	12.77
424.862	12.86
425.067	12.85
425.273	12.75
425.478	12.88
425.684	12.87
425.889	13.1
426.095	13.13
426.301	12.97
426.506	13.03
426.712	13.06
426.917	13.08
427.123	13.21
427.328	13.21
427.533	13.44
427.739	13.45
427.944	13.5
428.15	13.25
428.355	13.34
428.561	13.29
428.766	13.28
428.971	13.13
429.177	13.21
429.382	13.18
429.587	13.33
429.793	13.25
429.998	13.31
430.203	13.34
430.408	13.49
430.614	13.51
430.819	13.66
431.024	13.69
431.229	13.61
431.434	13.88
431.64	13.63
431.845	13.7
432.05	13.73
432.255	13.78
432.46	13.5
432.665	13.24
432.87	13.22
433.076	13.27
433.281	13.12
433.486	13.09
433.691	12.86
433.896	12.77
434.101	12.54
434.306	12.54
434.511	12.33
434.716	12.63
434.921	12.7
435.126	12.45
435.331	12.44
435.535	12.44
435.74	12.37
435.945	12.6
436.15	12.74
436.355	12.86
436.56	12.95
436.765	13.07
436.97	12.85
437.174	12.98
437.379	13.34
437.584	13.37
437.789	13.43
437.993	13.59
438.198	13.47
438.403	13.7
438.608	13.76
438.812	13.53
439.017	13.53
439.222	13.53
439.426	13.32
439.631	13.18
439.836	13.05
440.04	13.06
440.245	12.98
440.45	12.88
440.654	12.71
440.859	12.52
441.063	12.62
441.268	12.54
441.472	12.63
441.677	12.7
441.881	12.62
442.086	12.63
442.29	12.62
442.495	12.69
442.699	12.8
442.904	12.83
443.108	12.98
443.312	13
443.517	13.07
443.721	12.86
443.925	12.85
444.13	13.06
444.334	13.13
444.538	13.14
444.743	13.07
444.947	12.92
445.151	12.91
445.356	12.68
445.56	12.59
445.764	12.61
445.968	12.7
446.173	12.62
446.377	12.57
446.581	12.53
446.785	12.5
446.989	12.5
447.193	12.54
447.398	12.57
447.602	12.72
447.806	12.89
448.01	12.93
448.214	12.92
448.418	13.02
448.622	13.02
448.826	13.01
449.03	13.01
449.234	13.09
449.438	12.98
449.642	12.97
449.846	13.07
450.05	12.98
450.254	12.85
450.458	13.12
450.662	13.05
450.866	12.9
451.069	12.9
451.273	12.9
451.477	12.8
451.681	12.86
451.885	12.82
452.089	12.67
452.292	12.57
452.496	12.67
452.7	12.44
452.904	12.56
453.107	12.68
453.311	12.83
453.515	12.81
453.719	12.71
453.922	12.84
454.126	12.79
454.33	12.81
454.533	12.78
454.737	12.63
454.94	12.87
455.144	12.98
455.348	13.07
455.551	12.88
455.755	12.68
455.958	12.82
456.162	12.76
456.365	12.81
456.569	12.72
456.772	12.87
456.976	12.81
457.179	12.6
457.383	12.4
457.586	12.47
457.79	12.48
457.993	12.7
458.196	12.57
458.4	12.66
458.603	12.55
458.807	12.57
459.01	12.61
459.213	12.46
459.417	12.33
459.62	12.38
459.823	12.22
460.026	12.25
460.23	12.24
460.433	12.4
460.636	12.33
460.839	12.47
461.042	12.58
461.246	12.57
461.449	12.74
461.652	12.94
461.855	12.85
462.058	12.89
462.261	12.66
462.464	12.68
462.668	12.59
462.871	12.52
463.074	12.49
463.277	12.16
463.48	12.2
463.683	12.31
463.886	12.31
464.089	12.27
464.292	12.49
464.495	12.81
464.698	12.75
464.901	12.88
465.104	12.96
465.306	12.98
465.509	13.15
465.712	13.07
465.915	12.99
466.118	12.95
466.321	13.1
466.524	12.96
466.726	13.07
466.929	13.06
467.132	12.91
467.335	12.73
467.538	12.6
467.74	12.61
467.943	12.68
468.146	12.88
468.348	12.81
468.551	12.84
468.754	12.85
468.956	12.64
469.159	12.75
469.362	12.84
469.564	13.02
469.767	13.14
469.969	13.1
470.172	12.89
470.375	12.7
470.577	12.88
470.78	12.75
470.982	12.68
471.185	12.78
471.387	12.81
471.59	12.8
471.792	12.85
471.995	12.82
472.197	12.82
472.399	12.88
472.602	12.79
472.804	12.67
473.007	12.74
473.209	12.75
473.411	12.63
473.614	12.57
473.816	12.46
474.018	12.42
474.22	12.5
474.423	12.57
474.625	12.65
474.827	12.72
475.03	12.81
475.232	12.82
475.434	12.8
475.636	12.84
475.838	12.71
476.04	12.75
476.243	12.73
476.445	12.68
476.647	12.63
476.849	12.63
477.051	12.55
477.253	12.52
477.455	12.52
477.657	12.45
477.859	12.44
478.061	12.37
478.263	12.34
478.465	12.29
478.667	12.28
478.869	12.39
479.071	12.32
479.273	12.43
479.475	12.41
479.677	12.39
479.879	12.43
480.081	12.54
480.283	12.57
480.485	12.53
480.686	12.52
480.888	12.56
481.09	12.51
481.292	12.42
481.494	12.34
481.695	12.3
481.897	12.21
482.099	12.18
482.301	12.15
482.502	12.18
482.704	12.25
482.906	12.24
483.107	12.15
483.309	12.06
483.511	12.1
483.712	12.03
483.914	12.01
484.115	12
484.317	11.99
484.519	11.98
484.72	11.99
484.922	11.95
485.123	11.96
485.325	11.99
485.526	12.04
485.728	11.99
485.929	12
486.131	12.04
486.332	12.08
486.534	12.08
486.735	12.02
486.936	11.95
487.138	11.92
487.339	11.86
487.541	11.87
487.742	11.84
487.943	11.88
488.144	11.89
488.346	11.86
488.547	11.81
488.748	11.85
488.95	11.81
489.151	11.91
489.352	12.01
489.553	12.07
489.755	12.03
489.956	12.01
490.157	12
490.358	12.09
490.559	12.17
490.76	12.16
490.961	12.15
491.163	12.29
491.364	12.22
491.565	12.13
491.766	12.15
491.967	12.21
492.168	12.19
492.369	12.28
492.57	12.23
492.771	12.23
492.972	12.26
493.173	12.33
493.374	12.28
493.575	12.25
493.776	12.39
493.976	12.42
494.177	12.44
494.378	12.58
494.579	12.48
494.78	12.63
494.981	12.61
495.182	12.72
495.382	12.65
495.583	12.63
495.784	12.7
495.985	12.6
496.185	12.65
496.386	12.64
496.587	12.76
496.788	12.77
496.988	12.84
497.189	12.87
497.39	12.83
497.59	12.84
497.791	12.92
497.992	12.91
498.192	12.9
498.393	12.83
498.593	12.87
498.794	12.71
498.994	12.8
499.195	12.69
499.395	12.79
499.596	13.04
499.796	13.1
499.997	13.07
500.197	13.21
500.398	13.25
500.598	13.29
500.799	13.33
500.999	13.4
501.199	13.21
501.4	13.26
501.6	13.01
501.801	12.96
502.001	13.04
502.201	13.15
502.402	13.04
502.602	13.19
502.802	13.29
503.002	13.29
503.203	13.48
503.403	13.59
503.603	13.65
503.803	13.94
504.003	13.86
504.204	13.85
504.404	13.91
504.604	13.98
504.804	13.97
505.004	13.84
505.204	13.87
505.404	13.82
505.604	14.01
505.804	14.04
506.005	14.01
506.205	14.01
506.405	14.12
506.605	14.09
506.805	14.08
507.005	14.15
507.204	14.35
507.404	14.44
507.604	14.51
507.804	14.43
508.004	14.45
508.204	14.45
508.404	14.44
508.604	14.42
508.804	14.54
509.003	14.59
509.203	14.5
509.403	14.46
509.603	14.39
509.803	14.45
510.002	14.64
510.202	14.72
510.402	14.76
510.602	14.86
510.801	14.88
511.001	14.82
511.201	14.87
511.4	14.96
511.6	15.01
511.8	15.07
511.999	15.11
512.199	14.92
512.398	14.91
512.598	14.88
512.797	14.94
512.997	14.95
513.197	14.95
513.396	15.03
513.596	15.07
513.795	15.16
513.994	15.17
514.194	15.07
514.393	15.24
514.593	15.26
514.792	15.27
514.992	15.37
515.191	15.45
515.39	15.45
515.59	15.45
515.789	15.42
515.988	15.41
516.188	15.47
516.387	15.48
516.586	15.38
516.786	15.41
516.985	15.5
517.184	15.48
517.383	15.6
517.582	15.74
517.782	15.83
517.981	15.89
518.18	15.75
518.379	15.8
518.578	15.88
518.777	16.08
518.976	16.05
519.176	16.11
519.375	16.15
519.574	16.1
519.773	16.01
519.972	15.92
520.171	15.99
520.37	16.18
520.569	16.23
520.768	16.32
520.967	16.35
521.166	16.45
521.365	16.43
521.564	16.46
521.762	16.63
521.961	16.76
522.16	16.92
522.359	16.96
522.558	16.93
522.757	17.03
522.956	17.03
523.154	16.95
523.353	17.07
523.552	17.1
523.751	17.13
523.949	17.04
524.148	17.06
524.347	17.09
524.546	17.18
524.744	17.21
524.943	17.2
525.142	17.15
525.34	17.29
525.539	17.26
525.737	17.3
525.936	17.21
526.135	17.09
526.333	17.06
526.532	17.01
526.73	17.06
526.929	17.12
527.127	17.18
527.326	17.24
527.524	17.18
527.723	17.2
527.921	17.21
528.12	17.38
528.318	17.47
528.516	17.55
528.715	17.54
528.913	17.51
529.112	17.49
529.31	17.44
529.508	17.46
529.707	17.47
529.905	17.53
530.103	17.58
530.301	17.54
530.5	17.55
530.698	17.54
530.896	17.62
531.094	17.7
531.293	17.87
531.491	18.02
531.689	18.14
531.887	18.26
532.085	18.3
532.283	18.32
532.481	18.33
532.68	18.41
532.878	18.5
533.076	18.57
533.274	18.52
533.472	18.46
533.67	18.38
533.868	18.32
534.066	18.33
534.264	18.33
534.462	18.42
534.66	18.47
534.858	18.56
535.056	18.55
535.253	18.57
535.451	18.76
535.649	18.8
535.847	18.97
536.045	18.94
536.243	18.99
536.441	19.11
536.638	19.18
536.836	19.27
537.034	19.26
537.232	19.31
537.43	19.35
537.627	19.35
537.825	19.45
538.023	19.51
538.22	19.73
538.418	19.74
538.616	19.89
538.813	19.86
539.011	19.97
539.209	20.01
539.406	20.02
539.604	20.14
539.801	20.25
539.999	20.24
540.196	20.21
540.394	20.27
540.591	20.33
540.789	20.15
540.986	20.13
541.184	20.04
541.381	20.14
541.579	20.18
541.776	20.16
541.974	20.1
542.171	20.11
542.368	20.16
542.566	20.15
542.763	20.21
542.96	20.3
543.158	20.45
543.355	20.59
543.552	20.6
543.75	20.75
543.947	20.68
544.144	20.71
544.341	20.82
544.539	20.97
544.736	21.07
544.933	20.97
545.13	21.06
545.327	21.02
545.524	20.99
545.722	21.11
545.919	21.11
546.116	21.38
546.313	21.39
546.51	21.47
546.707	21.43
546.904	21.54
547.101	21.69
547.298	21.77
547.495	21.86
547.692	21.95
547.889	21.81
548.086	21.92
548.283	22.03
548.48	22.32
548.677	22.41
548.874	22.41
549.07	22.45
549.267	22.58
549.464	22.53
549.661	22.58
549.858	22.75
550.055	23
550.251	22.95
550.448	22.93
550.645	22.79
550.842	22.73
551.038	22.89
551.235	22.75
551.432	22.7
551.628	22.82
551.825	22.91
552.022	22.76
552.218	22.86
552.415	22.94
552.612	22.89
552.808	23.08
553.005	23.07
553.201	23.1
553.398	23.26
553.594	23.33
553.791	23.45
553.987	23.5
554.184	23.76
554.38	23.67
554.577	23.65
554.773	23.78
554.97	23.88
555.166	24.22
555.362	24.35
555.559	24.54
555.755	24.62
555.952	24.6
556.148	24.66
556.344	24.58
556.541	24.7
556.737	24.83
556.933	24.9
557.129	24.72
557.326	24.61
557.522	24.55
557.718	24.63
557.914	24.61
558.11	24.62
558.307	24.55
558.503	24.6
558.699	24.5
558.895	24.62
559.091	24.55
559.287	24.77
559.483	24.76
559.679	24.96
559.876	24.9
560.072	25.11
560.268	25.32
560.464	25.42
560.66	25.45
560.856	25.62
561.052	25.68
561.247	26.04
561.443	26.1
561.639	26.26
561.835	26.36
562.031	26.45
562.227	26.45
562.423	26.32
562.619	26.4
562.815	26.54
563.01	26.7
563.206	26.77
563.402	26.55
563.598	26.59
563.793	26.67
563.989	26.6
564.185	26.59
564.381	26.77
564.576	26.81
564.772	26.86
564.968	26.85
565.163	26.73
565.359	26.6
565.555	26.74
565.75	26.76
565.946	26.74
566.141	26.88
566.337	27.08
566.532	27.23
566.728	27.53
566.923	27.51
567.119	27.57
567.314	27.6
567.51	27.69
567.705	27.74
567.901	27.76
568.096	27.74
568.292	27.75
568.487	27.64
568.682	27.37
568.878	27.31
569.073	27.51
569.268	27.58
569.464	27.88
569.659	28.05
569.854	28.22
570.05	28.46
570.245	28.68
570.44	28.72
570.635	28.89
570.831	29
571.026	29.12
571.221	29.12
571.416	29.17
571.611	29.14
571.806	29.07
572.002	29.07
572.197	29.09
572.392	28.96
572.587	29.08
572.782	29.18
572.977	29.36
573.172	29.39
573.367	29.42
573.562	29.45
573.757	29.4
573.952	29.6
574.147	29.7
574.342	29.77
574.537	29.9
574.732	29.92
574.927	29.63
575.121	29.54
575.316	29.54
575.511	29.49
575.706	29.43
575.901	29.52
576.096	29.57
576.29	29.41
576.485	29.26
576.68	29.42
576.875	29.33
577.069	29.56
577.264	29.68
577.459	29.8
577.654	30
577.848	30.13
578.043	30.2
578.238	30.2
578.432	30.22
578.627	30.31
578.821	30.38
579.016	30.42
579.21	30.65
579.405	30.73
579.6	30.94
579.794	30.95
579.989	30.85
580.183	31.08
580.378	31.2
580.572	31.51
580.766	31.7
580.961	31.52
581.155	31.82
581.35	31.59
581.544	31.41
581.738	31.26
581.933	31.37
582.127	31.82
582.321	31.67
582.516	31.74
582.71	31.73
582.904	31.56
583.099	31.59
583.293	31.45
583.487	31.73
583.681	31.94
583.875	31.82
584.07	31.9
584.264	31.67
584.458	31.68
584.652	31.43
584.846	31.42
585.04	31.55
585.234	31.84
585.428	31.83
585.623	31.9
585.817	31.87
586.011	32.2
586.205	32.16
586.399	32.23
586.593	32.32
586.787	32.6
586.981	32.57
587.174	32.78
587.368	32.78
587.562	32.98
587.756	32.78
587.95	32.93
588.144	32.87
588.338	33.07
588.532	33.18
588.725	33.27
588.919	33.29
589.113	33.22
589.307	32.98
589.501	32.77
589.694	32.62
589.888	32.62
590.082	32.44
590.275	32.42
590.469	32.32
590.663	32.12
590.856	32.2
591.05	32.27
591.244	32.49
591.437	33.05
591.631	33.18
591.824	33.55
592.018	33.92
592.212	34.06
592.405	33.87
592.599	33.88
592.792	33.98
592.986	33.92
593.179	33.97
593.372	34.02
593.566	33.79
593.759	33.91
593.953	33.46
594.146	33.18
594.339	33.51
594.533	33.95
594.726	34.18
594.92	34.31
595.113	34.39
595.306	34.31
595.499	34.13
595.693	33.91
595.886	33.94
596.079	34.16
596.272	34.11
596.466	33.87
596.659	33.81
596.852	33.7
597.045	33.66
597.238	33.68
597.431	33.79
597.624	33.79
597.818	34.03
598.011	33.99
598.204	33.96
598.397	34.23
598.59	34.21
598.783	34.2
598.976	34.35
599.169	34.46
599.362	34.49
599.555	34.66
599.748	34.94
599.941	34.84
600.134	34.95
600.326	35.27
600.519	35.2
600.712	35.48
600.905	35.45
601.098	35.47
601.291	35.58
601.483	35.41
601.676	35.26
601.869	35.19
602.062	35.21
602.255	35.01
602.447	34.77
602.64	34.8
602.833	34.89
603.025	34.71
603.218	34.62
603.411	34.46
603.603	34.6
603.796	34.67
603.989	34.68
604.181	34.73
604.374	34.88
604.566	34.85
604.759	34.82
604.951	34.62
605.144	34.8
605.336	34.94
605.529	35.04
605.721	35
605.914	34.98
606.106	34.99
606.299	34.93
606.491	34.97
606.683	35.05
606.876	35.02
607.068	35.23
607.26	35.37
607.453	35.36
607.645	35.36
607.837	35.54
608.03	35.57
608.222	35.52
608.414	35.83
608.606	35.87
608.799	36.14
608.991	36.25
609.183	36.21
609.375	36.28
609.567	36.09
609.759	36.16
609.952	36.08
610.144	36.15
610.336	36.32
610.528	36.1
610.72	36.04
610.912	36.07
611.104	36.16
611.296	36.18
611.488	36.01
611.68	36.15
611.872	36.3
612.064	36.62
612.256	36.53
612.448	36.74
612.64	36.6
612.832	36.77
613.023	36.58
613.215	36.78
613.407	36.71
613.599	37.19
613.791	37.41
613.983	37.36
614.174	37.42
614.366	37.62
614.558	37.3
614.75	37.45
614.941	37.14
615.133	37.48
615.325	37.49
615.516	37.85
615.708	37.36
615.9	37.09
616.091	37.08
616.283	36.96
616.475	36.77
616.666	36.91
616.858	37.22
617.049	37.35
617.241	37.14
617.432	37.1
617.624	37.01
617.815	37.15
618.007	37.41
618.198	37.52
618.39	37.26
618.581	37.4
618.773	37.57
618.964	37.47
619.155	37.67
619.347	37.61
619.538	37.44
619.729	37.62
619.921	37.7
620.112	37.6
620.303	37.66
620.494	37.83
620.686	37.9
620.877	37.79
621.068	37.76
621.259	37.72
621.451	37.66
621.642	37.94
621.833	37.63
622.024	37.46
622.215	37.5
622.406	37.35
622.597	37.52
622.788	37.5
622.98	37.55
623.171	37.53
623.362	37.92
623.553	38.25
623.744	37.95
623.935	38.16
624.126	38.17
624.317	38.01
624.508	38.11
624.698	37.93
624.889	38.12
625.08	38.31
625.271	38.57
625.462	38.34
625.653	37.98
625.844	38.15
626.034	37.69
626.225	37.84
626.416	37.8
626.607	37.94
626.798	38
626.988	37.61
627.179	37.49
627.37	37.31
627.56	37.34
627.751	37.58
627.942	37.81
628.132	38.08
628.323	38.12
628.514	38.44
628.704	38.39
628.895	38.45
629.085	38.71
629.276	38.67
629.466	38.78
629.657	38.8
629.847	38.87
630.038	38.75
630.228	38.99
630.419	39.11
630.609	39.02
630.8	38.9
630.99	38.77
631.181	39
631.371	39.14
631.561	39.38
631.752	39.24
631.942	39.1
632.132	39.17
632.323	38.93
632.513	38.66
632.703	38.71
632.893	38.86
633.084	39.05
633.274	38.98
633.464	38.79
633.654	38.58
633.844	38.6
634.034	38.47
634.225	38.36
634.415	38.29
634.605	38.4
634.795	38.42
634.985	38.53
635.175	38.49
635.365	38.3
635.555	38.6
635.745	38.75
635.935	38.89
636.125	39.14
636.315	39.35
636.505	39.74
636.695	39.65
636.885	39.72
637.075	39.72
637.265	40.02
637.455	39.91
637.644	39.94
637.834	40.28
638.024	40.35
638.214	40.22
638.404	40.31
638.593	40.53
638.783	40.99
638.973	41.1
639.163	40.78
639.352	40.68
639.542	41.3
639.732	41.27
639.921	41.08
640.111	41.01
640.301	41.12
640.49	40.74
640.68	40.47
640.87	40.54
641.059	40.27
641.249	40.55
641.438	40.35
641.628	39.69
641.817	39.77
642.007	39.5
642.196	39.73
642.386	39.9
642.575	40.45
642.764	40.45
642.954	40.01
643.143	40.53
643.333	40.65
643.522	40.73
643.711	41.24
643.901	41.07
644.09	41.49
644.279	41.41
644.469	41.51
644.658	41.33
644.847	41.27
645.036	41.74
645.226	41.57
645.415	41.66
645.604	41.81
645.793	41.74
645.982	41.72
646.171	41.43
646.361	41.88
646.55	41.95
646.739	41.81
646.928	41.96
647.117	42.07
647.306	42.12
647.495	41.87
647.684	41.72
647.873	41.63
648.062	42.19
648.251	42.29
648.44	42
648.629	41.88
648.818	41.88
649.007	41.64
649.196	41.26
649.384	41.1
649.573	41.04
649.762	40.92
649.951	41.06
650.14	40.69
650.328	40.88
650.517	40.77
650.706	40.91
650.895	41.05
651.083	41.44
651.272	41.7
651.461	41.72
651.65	42.13
651.838	42.38
652.027	42.46
652.216	42.25
652.404	42.09
652.593	42.42
652.781	42.49
652.97	42.77
653.158	42.62
653.347	42.92
653.535	42.96
653.724	42.63
653.912	42.87
654.101	43.04
654.289	43.44
654.478	43.64
654.666	43.58
654.855	43.25
655.043	42.97
655.231	42.92
655.42	42.81
655.608	43.03
655.796	43.07
655.985	43
656.173	42.65
656.361	42.43
656.55	42.15
656.738	41.75
656.926	42.14
657.114	42.47
657.302	42.6
657.491	41.94
657.679	41.63
657.867	41.71
658.055	41.81
658.243	42.19
658.431	42.58
658.619	42.73
658.807	42.94
658.996	42.85
659.184	42.29
659.372	42.3
659.56	42.62
659.748	42.54
659.936	42.65
660.124	42.58
660.311	42.31
660.499	42.03
660.687	42.08
660.875	42.05
661.063	41.85
661.251	42.12
661.439	41.84
661.627	42.08
661.814	42.24
662.002	42.39
662.19	42.16
662.378	41.97
662.565	42.15
662.753	42.24
662.941	42.38
663.129	42.64
663.316	42.99
663.504	43.2
663.692	43.05
663.879	43.1
664.067	42.77
664.254	42.99
664.442	43.15
664.63	42.94
664.817	43.2
665.005	42.89
665.192	42.8
665.38	42.77
665.567	43.05
665.755	43.27
665.942	43.5
666.13	44.05
666.317	44.13
666.504	44.21
666.692	44.78
666.879	44.51
667.067	44.77
667.254	44.91
667.441	44.75
667.629	44.53
667.816	44.27
668.003	44.22
668.19	44.24
668.378	44.19
668.565	44.12
668.752	43.76
668.939	43.28
669.127	43.15
669.314	42.72
669.501	42.69
669.688	42.86
669.875	43.04
670.062	42.92
670.249	42.54
670.436	42.69
670.623	43.22
670.81	42.88
670.997	43.22
671.184	43.46
671.371	44.25
671.558	44.47
671.745	44.71
671.932	44.46
672.119	44.48
672.306	44.8
672.493	44.94
672.68	45.01
672.867	45.97
673.054	45.76
673.24	45.52
673.427	45.28
673.614	45.18
673.801	45.17
673.988	45.38
674.174	45.65
674.361	45.45
674.548	45.27
674.734	45.24
674.921	44.44
675.108	45.24
675.294	45.2
675.481	45.15
675.668	45.63
675.854	44.93
676.041	44.95
676.227	45.06
676.414	45.45
676.601	45.79
676.787	45.46
676.974	45.82
677.16	45.16
677.347	45.43
677.533	45.37
677.719	45.01
677.906	45.18
678.092	45.07
678.279	44.69
678.465	44.31
678.651	43.81
678.838	43.83
679.024	43.87
679.21	44.06
679.397	44.36
679.583	44.45
679.769	44.28
679.955	44.55
680.142	44.52
680.328	45.01
680.514	44.97
680.7	44.61
680.886	45.09
681.073	44.7
681.259	44.3
681.445	44.49
681.631	44.55
681.817	44.73
682.003	44.6
682.189	44.64
682.375	44.08
682.561	44.37
682.747	45.1
682.933	44.81
683.119	45.12
683.305	45.61
683.491	45.14
683.677	44.96
683.863	45.07
684.049	45.23
684.235	45.31
684.42	45.47
684.606	45.1
684.792	44.99
684.978	44.7
685.164	44.85
685.349	45.11
685.535	45.33
685.721	45.18
685.907	45.03
686.092	45.15
686.278	44.88
686.464	45.04
686.649	45.18
686.835	45.29
687.021	45.74
687.206	46.05
687.392	45.52
687.577	45.29
687.763	45.42
687.948	45.59
688.134	45.32
688.319	45.84
688.505	46.12
688.69	46.41
688.876	46.41
689.061	46.21
689.247	45.88
689.432	46.21
689.618	46.25
689.803	46.34
689.988	46.26
690.174	46.32
690.359	46.41
690.544	45.69
690.73	45.81
690.915	45.52
691.1	45.58
691.285	45.78
691.471	45.96
691.656	46.43
691.841	46.65
692.026	46.82
692.211	47.39
692.396	47.25
692.582	47.73
692.767	47.87
692.952	48.02
693.137	48.08
693.322	48.23
693.507	48.38
693.692	48.27
693.877	48.23
694.062	48.36
694.247	48.26
694.432	48.71
694.617	49.14
694.802	48.75
694.987	49.2
695.172	49.21
695.357	49.29
695.541	48.98
695.726	48.92
695.911	49.16
696.096	48.95
696.281	48.92
696.466	48.46
696.65	47.99
696.835	48.44
697.02	48.23
697.204	47.91
697.389	47.69
697.574	47.05
697.759	46.97
697.943	46.52
698.128	46.11
698.312	45.6
698.497	45.34
698.682	45.03
698.866	44.83
699.051	44.48
699.235	44.69
699.42	44.64
699.604	45.27
699.789	44.9
699.973	45.05
700.158	45.45
700.342	45.9
700.527	46.28
700.711	46.9
700.895	47.03
701.08	47.63
701.264	47.64
701.448	47.74
701.633	47.82
701.817	48.16
702.001	48.59
702.186	48.51
702.37	48.89
702.554	48.7
702.738	48.92
702.923	48.24
703.107	48.44
703.291	48.87
703.475	48.75
703.659	48.1
703.843	48.21
704.027	48.48
704.212	48.54
704.396	47.79
704.58	47.83
704.764	47.69
704.948	47.9
705.132	47.48
705.316	47.61
705.5	48.47
705.684	49.07
705.868	49.13
706.052	47.83
706.235	47.55
706.419	48.14
706.603	48.48
706.787	48.2
706.971	48.9
707.155	48.56
707.339	48.35
707.522	47.91
707.706	47.85
707.89	47.79
708.074	48.7
708.257	49.19
708.441	49.23
708.625	49.33
708.808	49.74
708.992	49.29
709.176	50.08
709.359	50.03
709.543	49.61
709.727	50.15
709.91	49.98
710.094	49.53
710.277	49.33
710.461	48.62
710.644	48.46
710.828	48.21
711.011	48.28
711.195	47.92
711.378	48.21
711.562	48.37
711.745	47.55
711.928	47.76
712.112	48.07
712.295	48.41
712.478	48.78
712.662	48.76
712.845	48.39
713.028	48.24
713.212	48.2
713.395	48.12
713.578	48.49
713.761	48.39
713.945	48.53
714.128	48.17
714.311	48.37
714.494	48.36
714.677	47.92
714.86	48.29
715.043	48.57
715.227	48.71
715.41	48.38
715.593	47.79
715.776	48.24
715.959	48.15
716.142	48.47
716.325	47.54
716.508	47.8
716.691	48.6
716.874	48.88
717.057	48.76
717.239	48.84
717.422	48.77
717.605	48.99
717.788	48.71
717.971	49.13
718.154	49.69
718.337	50.42
718.519	50.39
718.702	50.71
718.885	50.42
719.068	50.59
719.25	50.58
719.433	50.6
719.616	50.84
719.798	51.43
719.981	51.71
720.164	51.57
720.346	51.32
720.529	51.63
720.712	51.02
720.894	51.24
721.077	51.06
721.259	51.64
721.442	51.67
721.624	52.23
721.807	51.48
721.989	50.51
722.172	50.09
722.354	50.01
722.537	50.47
722.719	50.2
722.901	50.3
723.084	50.64
723.266	49.43
723.448	49.94
723.631	49.57
723.813	50.34
723.995	50.6
724.178	50.69
724.36	51.32
724.542	50.77
724.724	50.91
724.907	51.39
725.089	51.47
725.271	52.32
725.453	51.75
725.635	51.55
725.817	52.47
725.999	52.26
726.181	52.91
726.364	52.28
726.546	52.27
726.728	52.8
726.91	51.65
727.092	51.39
727.274	51.88
727.456	51.63
727.638	51.54
727.819	50.54
728.001	51.07
728.183	50.51
728.365	50.5
728.547	50.29
728.729	50.02
728.911	50.5
729.093	50.68
729.274	49.38
729.456	50.49
729.638	50.43
729.82	50.7
730.001	49.6
730.183	49.62
730.365	50.14
730.546	50.47
730.728	49.57
730.91	49.67
731.091	49.82
731.273	50.16
731.455	49.29
731.636	49.57
731.818	49.99
731.999	50.25
732.181	50.22
732.362	49.78
732.544	50.18
732.725	51.43
732.907	51.08
733.088	51.65
733.27	52.4
733.451	52.61
733.633	53.11
733.814	52.71
733.995	53.82
734.177	54.42
734.358	54.93
734.539	54.91
734.721	54.19
734.902	54.75
735.083	53.28
735.264	53.08
735.446	53.48
735.627	53
735.808	52.64
735.989	52.56
736.17	52.45
736.351	52.13
736.533	51.91
736.714	51.88
736.895	52.33
737.076	53.9
737.257	54.34
737.438	53.44
737.619	53.64
737.8	54.11
737.981	53.88
738.162	54.08
738.343	54.48
738.524	53.76
738.705	53.77
738.886	53.43
739.067	52.65
739.247	52.16
739.428	53.17
739.609	52.08
739.79	52.2
739.971	51.17
740.151	50.68
740.332	50.72
740.513	50.42
740.694	50.6
740.874	50.08
741.055	50.36
741.236	49.9
741.417	50.19
741.597	51.07
741.778	50.99
741.958	52
742.139	52.25
742.32	52.22
742.5	53.47
742.681	54.2
742.861	53.6
743.042	52.95
743.222	54.01
743.403	54.15
743.583	54.42
743.764	54.63
743.944	54.96
744.124	55.19
744.305	55.31
744.485	54.5
744.666	53.83
744.846	55.12
745.026	56.7
745.207	55.47
745.387	54.91
745.567	55.74
745.747	55.9
745.928	54.47
746.108	54.07
746.288	53.77
746.468	54.01
746.648	54.41
746.829	54.66
747.009	54.26
747.189	54.82
747.369	55.51
747.549	54.31
747.729	54.31
747.909	54.8
748.089	54.12
748.269	54.28
748.449	54.66
748.629	53.88
748.809	53.91
748.989	53.99
749.169	53.3
749.349	52.19
749.529	53.33
749.709	53.11
749.889	54.46
750.068	54.22
750.248	55.47
750.428	54.8
750.608	55.32
750.788	55.1
750.967	54.64
751.147	55.46
751.327	56.15
751.507	54.98
751.686	54.46
751.866	53.95
752.046	54.39
752.225	52.81
752.405	54.04
752.585	54.46
752.764	54.41
752.944	54.79
753.123	54.77
753.303	54.61
753.482	54.69
753.662	55.11
753.841	54.84
754.021	55.44
754.2	55.77
754.38	55.7
754.559	55.41
754.739	54.96
754.918	54.38
755.097	54.56
755.277	54.3
755.456	54.29
755.635	53.61
755.815	53.81
755.994	53.8
756.173	53.98
756.352	52.36
756.532	51.61
756.711	51.98
756.89	51.26
757.069	51.19
757.248	50.42
757.427	50.58
757.607	51.54
757.786	50.87
757.965	50.14
758.144	50.21
758.323	52.12
758.502	53.25
758.681	53.65
758.86	54.25
759.039	54.75
759.218	55.63
759.397	56.91
759.576	55.74
759.755	55.3
759.934	55.87
760.113	55.83
760.291	54.18
760.47	53.37
760.649	53.27
760.828	53.18
761.007	52.65
761.186	52.53
761.364	52.01
761.543	52.65
761.722	52.91
761.901	51.41
762.079	51.57
762.258	51.87
762.437	52.57
762.615	51.2
762.794	51.31
762.972	51.35
763.151	50.56
763.33	50.06
763.508	49.81
763.687	49.9
763.865	51.42
764.044	51.09
764.222	51.25
764.401	51.17
764.579	51.77
764.758	51.55
764.936	51.81
765.114	52.3
765.293	51.53
765.471	52.18
765.65	52.63
765.828	52.91
766.006	53.27
766.184	53.68
766.363	53.12
766.541	52.39
766.719	53.56
766.898	52.89
767.076	52.95
767.254	54.28
767.432	54.53
767.61	53.77
767.788	52.81
767.967	53.03
768.145	52.91
768.323	52.89
768.501	54.5
768.679	52.98
768.857	53.38
769.035	53.68
769.213	53.68
769.391	53.53
769.569	54.73
769.747	56.11
769.925	54.76
770.103	54.85
770.281	55.51
770.459	56.1
770.636	57.53
770.814	58.21
770.992	59.14
771.17	58.1
771.348	57.65
771.525	58.23
771.703	55.7
771.881	58.64
772.059	59.48
772.236	58.72
772.414	58.97
772.592	58.7
772.769	57.96
772.947	57.22
773.125	58.17
773.302	58.57
773.48	57.85
773.657	59.19
773.835	56.2
774.013	55.66
774.19	58.38
774.368	56.58
774.545	57.68
774.723	57.66
774.9	58.53
775.077	59.28
775.255	58.17
775.432	59.48
775.61	60.04
775.787	61.17
775.964	60.58
776.142	60.81
776.319	62.27
776.496	61.54
776.674	61.84
776.851	61.2
777.028	59.79
777.205	59.75
777.382	58.86
777.56	58.31
777.737	58.9
777.914	58.48
778.091	57.09
778.268	57.57
778.445	57.72
778.622	56.7
778.8	57.15
778.977	58.94
779.154	65.48
779.331	65.11
779.508	65.87
779.685	65.35
779.862	65.37
780.038	66.84
780.215	67.4
780.392	67.23
780.569	67.36
780.746	68.07
780.923	66.81
781.1	62.42
781.277	62.74
781.453	61.15
781.63	60.93
781.807	62.05
781.984	60.97
782.16	59.44
782.337	59.77
782.514	60.38
782.691	62.46
782.867	62.68
783.044	60.78
783.221	60.55
783.397	62.46
783.574	63.35
783.75	65.02
783.927	65.53
784.103	65.01
784.28	65.51
784.456	66.95
784.633	64.23
784.809	65.49
784.986	64.7
785.162	65.07
785.339	64.53
785.515	63.37
785.692	60.52
785.868	60.68
786.044	62.05
786.221	62.87
786.397	62.22
786.573	63.91
786.749	63.84
786.926	67.83
787.102	68.44
787.278	68.35
787.454	68.67
787.631	69.7
787.807	68.33
787.983	66.81
788.159	63.61
788.335	63.28
788.511	62.05
788.687	61.93
788.863	59.79
789.039	59.65
789.216	57.13
789.392	59.04
789.568	59.74
789.744	60.41
789.919	60.45
790.095	60.2
790.271	61.45
790.447	60.39
790.623	61.04
790.799	60.36
790.975	58.97
791.151	62.82
791.327	61.46
791.502	60.87
791.678	59.41
791.854	59.73
792.03	63.28
792.205	64.08
792.381	66.34
792.557	65.3
792.733	66.64
792.908	67.92
793.084	65.25
793.259	65.5
793.435	64.51
793.611	67.07
793.786	66.94
793.962	64.29
794.137	62.92
794.313	60.3
794.488	59.66
794.664	59.92
794.839	58.74
795.015	59.48
795.19	58.67
795.366	59.14
795.541	58.59
795.716	58.72
795.892	59.53
796.067	59.42
796.242	59.15
796.418	58.01
796.593	56.57
796.768	58.73
796.944	58.3
797.119	56.93
797.294	58.23
797.469	57.79
797.644	59.21
797.82	58.64
797.995	57.96
798.17	59.54
798.345	60.82
798.52	61.38
798.695	60.58
798.87	60.72
799.045	62.55
799.22	62.34
799.395	61.07
799.57	60.49
799.745	61.89
799.92	61.89
800.095	62.01
800.27	62.52
800.445	62.72
800.62	62.48
800.795	64.19
800.97	65.07
801.145	62.94
801.319	64.6
801.494	65.25
801.669	65.28
801.844	66.77
802.018	65.56
802.193	64.16
802.368	63.37
802.543	63.21
802.717	61.91
802.892	63.76
803.067	63.32
803.241	61.88
803.416	62.34
803.59	59.88
803.765	60.06
803.94	61.28
804.114	60.42
804.289	64.25
804.463	61.97
804.638	63.6
804.812	61.01
804.986	61.69
805.161	61.58
805.335	59.42
805.51	61.81
805.684	59.1
805.858	56.33
806.033	57.01
806.207	54.89
806.381	58.37
806.556	57.42
806.73	58.29
806.904	59.37
807.078	59.6
807.253	60.66
807.427	58.59
807.601	59.15
807.775	61.95
807.949	64.32
808.123	65.89
808.298	65.16
808.472	66.81
808.646	64.02
808.82	62.93
808.994	64.87
809.168	65.02
809.342	67.89
809.516	70.1
809.69	70.54
809.864	70.65
810.038	71.07
810.212	70.17
810.385	67.5
810.559	71.35
810.733	72.53
810.907	72.94
811.081	72.17
811.255	69.18
811.428	65.77
811.602	66.5
811.776	66.55
811.95	64.45
812.123	66.35
812.297	67.74
812.471	65.81
812.644	65.45
812.818	65.03
812.992	64.22
813.165	67.65
813.339	68.24
813.512	64.49
813.686	63.97
813.86	65.05
814.033	62.63
814.207	60.9
814.38	61.81
814.554	63.41
814.727	59.84
814.9	63.51
815.074	61.67
815.247	64.47
815.421	64.43
815.594	67.31
815.767	65.78
815.941	69.37
816.114	69.59
816.287	67.91
816.46	67.86
816.634	70.38
816.807	71.59
816.98	71.49
817.153	71.2
817.327	74.57
817.5	71.48
817.673	75.06
817.846	71.44
818.019	72.4
818.192	73.64
818.365	70.24
818.538	70.83
818.711	67.6
818.884	67.25
819.057	66.68
819.23	64.1
819.403	61.95
819.576	58.25
819.749	57.88
819.922	59.98
820.095	58.6
820.268	60.57
820.441	59.64
820.614	57.7
820.786	56.78
820.959	54.84
821.132	53.69
821.305	53.46
821.477	52.48
821.65	52.1
821.823	50.04
821.996	48.62
822.168	47.38
822.341	46.75
822.514	46.55
822.686	45.69
822.859	45.48
823.031	45.6
823.204	45.67
823.376	45.74
823.549	45.38
823.722	45.32
823.894	45.61
824.067	45.57
824.239	45.81
824.411	45.91
824.584	46.76
824.756	47.36
824.929	47.52
825.101	47.56
825.273	47.96
825.446	48.26
825.618	48.53
825.79	48.25
825.963	48.46
826.135	48.56
826.307	48.23
826.479	48.33
826.652	47.91
826.824	47.42
826.996	47.46
827.168	46.75
827.34	46.69
827.512	46.44
827.684	46.45
827.856	46.39
828.029	46.95
828.201	47.3
828.373	47.04
828.545	47.43
828.717	48.03
828.889	48.18
829.061	49.71
829.232	51.07
829.404	51.78
829.576	52.91
829.748	54.77
829.92	55.19
830.092	56.54
830.264	56.78
830.436	56.99
830.607	58.82
830.779	60.07
830.951	59.1
831.123	57.9
831.294	57.46
831.466	56.61
831.638	55.12
831.809	54.4
831.981	55.25
832.153	56.03
832.324	55.54
832.496	54.53
832.667	55.65
832.839	56.67
833.011	55.53
833.182	56.61
833.354	57.47
833.525	57.47
833.697	56.63
833.868	53.38
834.039	54.41
834.211	53.44
834.382	52.65
834.554	52.28
834.725	51.1
834.896	52.16
835.068	51.93
835.239	51.43
835.41	51.87
835.581	53.08
835.753	54.52
835.924	52.69
836.095	54.76
836.266	56.3
836.438	53.94
836.609	56.4
836.78	55.67
836.951	57.04
837.122	57.52
837.293	58.69
837.464	56.31
837.635	56.53
837.806	59.84
837.977	61.22
838.148	62.26
838.319	64.14
838.49	62.43
838.661	66.39
838.832	65.5
839.003	66.39
839.174	65.28
839.345	69.12
839.516	70.73
839.687	68.32
839.857	64.67
840.028	62.15
840.199	62.86
840.37	64
840.54	66.1
840.711	63.13
840.882	65.47
841.053	67.92
841.223	69.78
841.394	70.1
841.564	74.27
841.735	78.13
841.906	78.02
842.076	71.63
842.247	74.3
842.417	72.66
842.588	73.09
842.758	73.49
842.929	71.34
843.099	72.01
843.27	74.7
843.44	73.53
843.611	74.89
843.781	70.41
843.951	76.86
844.122	78.48
844.292	78.79
844.462	83.26
844.633	82.93
844.803	89.83
844.973	88.91
845.144	91.08
845.314	88
845.484	81.72
845.654	93.58
845.824	96.09
845.995	91.97
846.165	87.58
846.335	93.18
846.505	91.56
846.675	92.64
846.845	96.83
847.015	96.73
847.185	98.72
847.355	104.75
847.525	107.62
847.695	120.05
847.865	116.53
848.035	122.29
848.205	112.52
848.375	119.73
848.545	98.58
848.715	93.6
848.884	98.44
849.054	99.14
849.224	103.16
849.394	101.4
849.564	90.12
849.733	94.63
849.903	101.39
850.073	102.8
850.243	98.29
850.412	106.69
850.582	109.75
850.752	103.2
850.921	100.32
851.091	101.69
851.26	105.98
851.43	104.35
851.599	105.07
851.769	102.36
851.939	103.84
852.108	113.57
852.278	112.71
852.447	103.83
852.616	104.05
852.786	104.4
852.955	100.5
853.125	104.75
853.294	111.05
853.463	110.73
853.633	113.93
853.802	115.93
853.971	114.67
854.141	119.32
854.31	114.77
854.479	107.27
854.648	109.24
854.818	96.04
854.987	91.85
855.156	102.28
855.325	103.25
855.494	106.74
855.663	103.26
855.832	96.26
856.001	101.82
856.171	112.15
856.34	119.16
856.509	125.58
856.678	135.86
856.847	135.88
857.016	119.29
857.185	113.75
857.353	119.77
857.522	125.59
857.691	129.95
857.86	127.66
858.029	122.29
858.198	137.06
858.367	139.58
858.535	157.52
858.704	152.69
858.873	157
859.042	161.4
859.21	152.29
859.379	154.33
859.548	141.86
859.717	142.1
859.885	140.91
860.054	127.4
860.222	115.68
860.391	122.12
860.56	115.85
860.728	114.33
860.897	108.42
861.065	104.57
861.234	93.23
861.402	102.58
861.571	89.73
861.739	87.5
861.908	94.12
862.076	105.37
862.244	98.32
862.413	97.35
862.581	97.76
862.749	104.95
862.918	96.08
863.086	104.98
863.254	99.98
863.423	107.97
863.591	120.78
863.759	111.9
863.927	112.96
864.096	100.72
864.264	107.47
864.432	105.37
864.6	102.82
864.768	107.03
864.936	111.49
865.104	109.87
865.272	110.71
865.44	115.36
865.608	108.69
865.776	105.54
865.944	108.26
866.112	102.94
866.28	106.91
866.448	108.93
866.616	104.48
866.784	98.66
866.952	103
867.12	101.02
867.288	100.8
867.455	98.73
867.623	102.97
867.791	97.14
867.959	97.08
868.127	91.87
868.294	89.38
868.462	83.66
868.63	82.91
868.797	89.08
868.965	85.87
869.133	78.01
869.3	90.88
869.468	91.55
869.636	88.19
869.803	92.49
869.971	91.15
870.138	96.14
870.306	104.68
870.473	107.15
870.641	95.63
870.808	95.12
870.975	101.9
871.143	96.56
871.31	92.05
871.478	107.39
871.645	97.37
871.812	102.43
871.98	95.63
872.147	98.49
872.314	88.95
872.482	91.15
872.649	94.29
872.816	87.37
872.983	83.55
873.15	88.87
873.318	88.57
873.485	96.87
873.652	90.49
873.819	98.74
873.986	108.9
874.153	115.43
874.32	112.7
874.487	119.73
874.654	122.39
874.821	130.03
874.988	121.35
875.155	115.87
875.322	119.72
875.489	129.48
875.656	123.98
875.823	102.93
875.99	96.64
876.157	103.72
876.324	100.18
876.49	97.56
876.657	86.37
876.824	84.94
876.991	88.7
877.157	81.75
877.324	79.49
877.491	85.19
877.658	92.72
877.824	93.29
877.991	86.31
878.157	83.45
878.324	82.49
878.491	84.44
878.657	92.74
878.824	94
878.99	91.62
879.157	96.73
879.323	87.46
879.49	83.6
879.656	87.73
879.823	88.79
879.989	84.92
880.156	82.81
880.322	83.94
880.488	79.49
880.655	77.1
880.821	74.96
880.987	73.83
881.154	73.79
881.32	73.62
881.486	67.89
881.652	66.15
881.819	68.59
881.985	64.85
882.151	65.54
882.317	61.94
882.483	59.13
882.649	61.35
882.816	59.04
882.982	57.49
883.148	57.03
883.314	56.7
883.48	56.08
883.646	53.98
883.812	53.7
883.978	52.16
884.144	53.9
884.31	53.09
884.476	52.63
884.642	52.45
884.807	53.4
884.973	53.23
885.139	52.59
885.305	55.94
885.471	55.48
885.637	54.32
885.802	55.04
885.968	53.9
886.134	55.06
886.3	54.27
886.465	54.69
886.631	53.12
886.797	54.87
886.962	55.68
887.128	53.87
887.293	55.16
887.459	59.8
887.625	59.97
887.79	61.02
887.956	61.68
888.121	63.94
888.287	63.73
888.452	69.24
888.618	67.02
888.783	74.33
