Data from LC_166_Reflection_3.txt Node
Date: Mon Nov 16 23:01:26 EST 2015
User: robert
Spectrometer: USB4E03001
Autoset integration time: false
Trigger mode: 4
Integration Time (sec): 1.000000E-1
Scans to average: 15
Electric dark correction enabled: true
Nonlinearity correction enabled: false
Boxcar width: 5
Stray light correction enabled: false
XAxis mode: Wavelengths
Stop averaging: false
Number of Pixels in Spectrum: 3648
>>>>>Begin Spectral Data<<<<<
177.566	4218.07
177.785	350.56
178.005	-2775.63
178.225	272.86
178.445	308.74
178.665	-539.73
178.885	-295.8
179.105	381.31
179.324	47.2
179.544	-93.76
179.764	-1090.19
179.984	-295.15
180.204	-263.02
180.423	-335.09
180.643	-454.04
180.863	-260.72
181.083	-250.47
181.302	-344.73
181.522	-242.12
181.742	-241.05
181.961	-434.43
182.181	-347.35
182.401	-577.21
182.621	-2396.99
182.84	-1059.5
183.06	-744.71
183.279	-495.8
183.499	-380.12
183.719	-286.37
183.938	-301.99
184.158	-312.05
184.377	-236.56
184.597	-355.75
184.816	-239.67
185.036	-173.95
185.256	-118.58
185.475	-165.48
185.695	-221.89
185.914	-314.31
186.134	-641.37
186.353	-805.52
186.572	-1068.19
186.792	-1414.57
187.011	-600.67
187.231	-498.1
187.45	-347.74
187.67	-1075.48
187.889	-2565.5
188.108	4936.08
188.328	-1265.61
188.547	-435.85
188.766	-763.5
188.986	-1042.43
189.205	-726.06
189.424	-473.37
189.644	-1443.68
189.863	-1588.65
190.082	-1001.86
190.302	-2168.49
190.521	-1251.64
190.74	1234.93
190.959	545.28
191.178	765.51
191.398	731.43
191.617	642.07
191.836	581.55
192.055	1272.34
192.274	595.32
192.494	725.39
192.713	823.13
192.932	1834.33
193.151	1624.57
193.37	3283.53
193.589	-1925.42
193.808	-564.69
194.027	-732.1
194.246	-6949.44
194.465	1283.44
194.685	3117.25
194.904	1258.88
195.123	-1630.91
195.342	-964.81
195.561	-432.24
195.78	-657.57
195.999	30609.86
196.218	1082.86
196.436	1029.84
196.655	-3897.24
196.874	-1332.1
197.093	-1857.04
197.312	-1557.4
197.531	4097.15
197.75	1495.69
197.969	-4532.39
198.188	-884.03
198.407	-259.1
198.625	-272.64
198.844	-200.16
199.063	-144.55
199.282	-314.95
199.501	-198.53
199.719	-126.7
199.938	-82.21
200.157	-65.27
200.376	-95.23
200.594	-159.09
200.813	-341.58
201.032	-267.93
201.251	-253.76
201.469	-315.92
201.688	-281.25
201.907	-508.51
202.125	-798.88
202.344	30329.76
202.563	5749.32
202.781	859.28
203	2480.38
203.218	1833.61
203.437	1563.35
203.656	773.86
203.874	381.25
204.093	353.52
204.311	445.77
204.53	483.12
204.748	696.96
204.967	424.69
205.185	489.36
205.404	526.84
205.622	374.44
205.841	285.58
206.059	314.01
206.278	463.93
206.496	1139.65
206.715	647.17
206.933	501.76
207.151	434.3
207.37	492.21
207.588	423.62
207.806	380.49
208.025	717.31
208.243	-1386.11
208.461	2234.23
208.68	-18410.59
208.898	747.95
209.116	761.27
209.335	760.47
209.553	777.94
209.771	7072.92
209.989	1673.96
210.208	3906.84
210.426	-6884.98
210.644	4082.45
210.862	-3555.47
211.081	1732.77
211.299	-807.85
211.517	3421.38
211.735	-858.22
211.953	-266271.43
212.171	-5504.52
212.39	-13957.66
212.608	-35573.91
212.826	1439.17
213.044	956.24
213.262	772.1
213.48	4220.25
213.698	479.77
213.916	616.41
214.134	435.45
214.352	894.15
214.57	543.21
214.788	691.63
215.006	591.99
215.224	469.7
215.442	359.47
215.66	317.45
215.878	246.69
216.096	285.19
216.314	311.89
216.532	600
216.75	463.19
216.968	432.36
217.185	1016.71
217.403	1852.69
217.621	-5183.92
217.839	-1479.06
218.057	-2007.65
218.275	3822.26
218.492	1123.06
218.71	1833.31
218.928	486.92
219.146	467.46
219.363	403.9
219.581	317.41
219.799	217.85
220.017	243.16
220.234	228.29
220.452	232.61
220.67	246.78
220.887	250.37
221.105	267.93
221.323	211.53
221.54	207.05
221.758	258.01
221.976	286.91
222.193	305.26
222.411	180.27
222.629	185.08
222.846	190.37
223.064	217.78
223.281	184.56
223.499	171.54
223.716	188.12
223.934	157.4
224.151	136.9
224.369	127.61
224.586	126.77
224.804	149.01
225.021	155.88
225.239	115.29
225.456	89.16
225.674	99.39
225.891	84.39
226.108	96.96
226.326	97.04
226.543	87.32
226.76	80.86
226.978	80.29
227.195	76.82
227.413	63.55
227.63	58.25
227.847	57
228.064	44.4
228.282	38.02
228.499	31.34
228.716	25.63
228.934	25.94
229.151	24.14
229.368	20.48
229.585	20.42
229.802	21.94
230.02	21.3
230.237	22.44
230.454	25.52
230.671	26.1
230.888	26.32
231.105	29.34
231.323	28.99
231.54	29.3
231.757	31.52
231.974	30.87
232.191	29.57
232.408	34.17
232.625	28.85
232.842	24.59
233.059	30.57
233.276	31.61
233.493	32.33
233.71	33.46
233.927	37.99
234.144	35.43
234.361	35.2
234.578	36.2
234.795	34.19
235.012	35.28
235.229	37.3
235.446	39.7
235.663	41.32
235.879	39.28
236.096	37.24
236.313	34.49
236.53	36.48
236.747	36.94
236.964	36.14
237.181	37.47
237.397	38.89
237.614	40.12
237.831	32.18
238.048	30.53
238.264	33.18
238.481	31.11
238.698	33.1
238.915	29.89
239.131	28.14
239.348	28.15
239.565	28.84
239.781	27.08
239.998	23.71
240.215	25.91
240.431	25.87
240.648	27.36
240.865	25.67
241.081	20.11
241.298	21.15
241.514	20.54
241.731	17.4
241.947	16.19
242.164	14.37
242.38	14.44
242.597	13.35
242.814	14.06
243.03	11.75
243.246	12.85
243.463	15.2
243.679	15.79
243.896	14.82
244.112	18.23
244.329	18.09
244.545	19.28
244.762	18.92
244.978	21.54
245.194	19.7
245.411	18.62
245.627	17.54
245.843	17.22
246.06	15.09
246.276	15.38
246.492	13.57
246.709	13.77
246.925	12.64
247.141	13.24
247.357	12.12
247.574	11.74
247.79	12.26
248.006	11.43
248.222	10.87
248.439	11.36
248.655	11.85
248.871	12.05
249.087	12.06
249.303	12.75
249.519	12.29
249.736	14.17
249.952	14.22
250.168	16.55
250.384	18.41
250.6	19.33
250.816	18.95
251.032	16.21
251.248	15.71
251.464	14.06
251.68	15.16
251.896	15.19
252.112	14.3
252.328	15.31
252.544	14.17
252.76	13.32
252.976	12.38
253.192	13.33
253.408	16.06
253.624	18.43
253.84	19.45
254.056	20.85
254.272	21.55
254.487	21.37
254.703	21.6
254.919	22.55
255.135	24.36
255.351	25.08
255.567	27.88
255.782	28.66
255.998	24.93
256.214	26.43
256.43	22.75
256.646	23.85
256.861	23.99
257.077	23.28
257.293	21.47
257.508	19.97
257.724	21.61
257.94	17.34
258.155	13.8
258.371	14.6
258.587	12.83
258.802	12.93
259.018	11.75
259.234	10.41
259.449	10.59
259.665	9.64
259.88	10.5
260.096	9.55
260.312	8.83
260.527	9.04
260.743	9.01
260.958	9.4
261.174	9.1
261.389	9.57
261.605	10.2
261.82	10.39
262.036	11.66
262.251	12.59
262.466	12.86
262.682	15.02
262.897	14.98
263.113	15.64
263.328	14.89
263.543	17.23
263.759	16.94
263.974	17.12
264.189	16.84
264.405	17.81
264.62	16.56
264.835	17.52
265.051	16.33
265.266	20.45
265.481	20.4
265.696	21.8
265.912	21.86
266.127	21.18
266.342	19.64
266.557	19.83
266.773	19.11
266.988	18.31
267.203	18.73
267.418	18.55
267.633	16.62
267.848	17.14
268.064	16.05
268.279	14.47
268.494	13.29
268.709	14.84
268.924	15.43
269.139	16.44
269.354	16.3
269.569	13.68
269.784	13.84
269.999	14.39
270.214	12.85
270.429	15.73
270.644	16.42
270.859	16.16
271.074	15.38
271.289	14.39
271.504	13.06
271.719	13.21
271.934	14.63
272.149	15.01
272.363	14.98
272.578	14.36
272.793	12.15
273.008	11.19
273.223	10.59
273.438	9.47
273.653	9.83
273.867	9.86
274.082	9.49
274.297	9.55
274.512	9.8
274.726	7.99
274.941	8.74
275.156	9.21
275.371	10.6
275.585	13.08
275.8	14.1
276.015	12.34
276.229	12.01
276.444	12.67
276.659	12.19
276.873	12.01
277.088	13.8
277.302	14.39
277.517	15.26
277.732	16.27
277.946	15.9
278.161	16.4
278.375	18.22
278.59	18.95
278.804	17.64
279.019	17.58
279.233	17.86
279.448	17.03
279.662	15.25
279.877	14.37
280.091	12.82
280.306	11.94
280.52	11.88
280.735	9.5
280.949	9.28
281.163	9.91
281.378	9.58
281.592	8.57
281.806	9.12
282.021	9.05
282.235	9.85
282.449	10.41
282.664	11.31
282.878	11.3
283.092	13.07
283.307	12.27
283.521	12.76
283.735	12.98
283.949	13.35
284.164	13.3
284.378	13.66
284.592	12.34
284.806	11.85
285.02	11.11
285.234	10.6
285.449	9.96
285.663	10.13
285.877	9.39
286.091	9.38
286.305	9.32
286.519	8.31
286.733	6.93
286.947	7.24
287.161	6.63
287.375	6.46
287.589	6.62
287.803	7.53
288.017	7.7
288.231	7.81
288.445	7.74
288.659	8.4
288.873	8.77
289.087	10.64
289.301	10.04
289.515	9.76
289.729	8.67
289.943	8.96
290.157	7.74
290.371	8.44
290.584	8.6
290.798	8.99
291.012	8.88
291.226	8.64
291.44	9.81
291.654	10.6
291.867	11
292.081	12.5
292.295	12.73
292.509	13.79
292.722	13.26
292.936	13.73
293.15	15.39
293.364	14.49
293.577	15.66
293.791	13.63
294.005	14.72
294.218	15.67
294.432	15.15
294.645	15.06
294.859	14.96
295.073	14.9
295.286	14.56
295.5	12.38
295.713	13.08
295.927	12.63
296.14	13.91
296.354	12.57
296.568	11.98
296.781	12.46
296.994	12.33
297.208	11.89
297.421	11.57
297.635	11.56
297.848	11.79
298.062	11.61
298.275	12.66
298.489	12.06
298.702	12.38
298.915	13.01
299.129	12.93
299.342	13.22
299.555	14.11
299.769	14.8
299.982	14.3
300.195	14.95
300.409	15.55
300.622	14.84
300.835	15.77
301.048	15.65
301.262	15.66
301.475	15.53
301.688	15.59
301.901	15.02
302.115	14.96
302.328	15.99
302.541	16.28
302.754	16.29
302.967	17.07
303.18	16.86
303.393	17.27
303.607	16.48
303.82	17.41
304.033	17.49
304.246	17.98
304.459	17.86
304.672	18.12
304.885	17.95
305.098	17.65
305.311	16.04
305.524	16.17
305.737	15.98
305.95	16.71
306.163	14.76
306.376	14.3
306.589	13.25
306.802	13.17
307.015	13.43
307.228	12.6
307.44	12.41
307.653	13.52
307.866	12.28
308.079	13.64
308.292	14.11
308.505	15.83
308.718	15.86
308.93	15.58
309.143	15.6
309.356	15.04
309.569	15.36
309.781	15.88
309.994	14.81
310.207	15.63
310.42	14.27
310.632	12.61
310.845	12.36
311.058	11.82
311.27	12.15
311.483	12.29
311.696	12.08
311.908	12.1
312.121	11.14
312.333	12.81
312.546	12.7
312.759	13.3
312.971	13.71
313.184	14.3
313.396	14.26
313.609	14.74
313.821	15.18
314.034	16.06
314.246	16.34
314.459	17.03
314.671	16.35
314.884	15.48
315.096	14.82
315.309	14.14
315.521	13.8
315.733	14.06
315.946	13.97
316.158	13.23
316.371	12.54
316.583	12.86
316.795	13.05
317.008	12.56
317.22	14.87
317.432	14.79
317.644	16.69
317.857	15.12
318.069	15.49
318.281	15.21
318.494	15.26
318.706	15.39
318.918	14.57
319.13	14.83
319.342	15.09
319.555	14.32
319.767	15
319.979	15.04
320.191	17.09
320.403	17.25
320.615	17.35
320.827	17.73
321.039	17.15
321.252	18.54
321.464	19.13
321.676	19.41
321.888	18.34
322.1	19.28
322.312	17.68
322.524	15.8
322.736	15.76
322.948	15.01
323.16	13.77
323.372	14.53
323.584	12.42
323.796	11.98
324.007	10.8
324.219	11.11
324.431	11.11
324.643	11.71
324.855	12.22
325.067	12.81
325.279	14.09
325.491	14.5
325.702	12.95
325.914	14.2
326.126	14.67
326.338	15.71
326.55	16.01
326.761	15.47
326.973	15.8
327.185	16.53
327.396	16.97
327.608	17.66
327.82	18.93
328.032	20.76
328.243	20.53
328.455	21.37
328.666	21.78
328.878	22.14
329.09	22.11
329.301	22.59
329.513	22.7
329.725	22.2
329.936	21.3
330.148	21.76
330.359	20.52
330.571	21.17
330.782	19.97
330.994	21.43
331.205	21.27
331.417	21.37
331.628	22.15
331.84	23.34
332.051	23.55
332.262	24.02
332.474	23.4
332.685	25.23
332.897	25.4
333.108	25.98
333.319	24.19
333.531	24.85
333.742	26.54
333.953	25.42
334.165	24.3
334.376	23.88
334.587	23.2
334.799	23.74
335.01	23.92
335.221	23.59
335.432	22.59
335.644	22.55
335.855	22.49
336.066	21.85
336.277	22.4
336.488	22.66
336.7	23.06
336.911	23.96
337.122	23.14
337.333	23.39
337.544	23.75
337.755	25.14
337.966	25.62
338.177	26.08
338.388	25.44
338.599	26.24
338.811	26.15
339.022	26.06
339.233	25.8
339.444	26.74
339.655	25.25
339.866	25.54
340.076	25.73
340.287	25.74
340.498	24.84
340.709	25.04
340.92	24.07
341.131	24.56
341.342	24.15
341.553	24.61
341.764	24.29
341.975	25.32
342.185	24.84
342.396	23.82
342.607	23.48
342.818	23.77
343.029	24.45
343.239	24.69
343.45	24.41
343.661	24.72
343.872	23.58
344.082	23.34
344.293	22.99
344.504	24.71
344.714	24.41
344.925	24.77
345.136	24.9
345.346	22.9
345.557	23
345.768	23.17
345.978	22.67
346.189	23.69
346.399	23.71
346.61	24.02
346.821	22.06
347.031	22.84
347.242	22.46
347.452	22.28
347.663	24.13
347.873	24.5
348.084	23.75
348.294	24.7
348.504	24.47
348.715	24.49
348.925	24.03
349.136	23.98
349.346	22.51
349.557	23.06
349.767	23.42
349.977	23.19
350.188	23.21
350.398	24.18
350.608	23.66
350.819	23.34
351.029	23.15
351.239	23.56
351.449	24.35
351.66	26.12
351.87	26.11
352.08	25.43
352.29	24.77
352.501	23.64
352.711	23.49
352.921	23.87
353.131	23.46
353.341	23.52
353.552	23.05
353.762	22.15
353.972	21.45
354.182	21.47
354.392	21.9
354.602	21.81
354.812	22.32
355.022	22.73
355.232	23.16
355.442	23.72
355.652	24.32
355.862	23.75
356.072	24.97
356.282	24.58
356.492	24.5
356.702	24.33
356.912	25.39
357.122	25.58
357.332	25.22
357.542	24.32
357.752	24.12
357.962	23.17
358.171	23.48
358.381	23.09
358.591	23.49
358.801	23.05
359.011	23.39
359.221	22.68
359.43	22.48
359.64	22.34
359.85	22.02
360.06	22.24
360.269	22.78
360.479	22.72
360.689	21.9
360.899	21.44
361.108	21.69
361.318	21.81
361.528	21.37
361.737	21.28
361.947	21.05
362.156	21.43
362.366	21.43
362.576	21.16
362.785	21.34
362.995	21.4
363.204	21.55
363.414	21.45
363.623	20.8
363.833	21.37
364.042	21.2
364.252	21.11
364.461	20.96
364.671	20.54
364.88	21.06
365.09	20.7
365.299	21.04
365.509	20.87
365.718	20.4
365.927	20.28
366.137	20.41
366.346	20.8
366.555	20.89
366.765	21.15
366.974	21.18
367.183	20.85
367.393	20.55
367.602	20.4
367.811	20.61
368.021	20.78
368.23	20.98
368.439	20.59
368.648	20.73
368.857	21.22
369.067	21.01
369.276	20.59
369.485	20.97
369.694	21.67
369.903	22.03
370.112	21.99
370.321	21.8
370.531	21.55
370.74	21.42
370.949	21.07
371.158	20.41
371.367	20.35
371.576	20.38
371.785	19.88
371.994	19.13
372.203	19.59
372.412	19.71
372.621	20.06
372.83	20.24
373.039	20.23
373.248	19.49
373.457	19.49
373.666	19.3
373.874	19.52
374.083	19.89
374.292	20.25
374.501	19.18
374.71	18.52
374.919	18.4
375.128	18.26
375.336	18.46
375.545	19.11
375.754	18.96
375.963	18.78
376.171	18.3
376.38	18.39
376.589	18.61
376.798	18.18
377.006	18.56
377.215	19.16
377.424	18.86
377.632	18.52
377.841	18.24
378.05	18.08
378.258	18.01
378.467	18.2
378.675	17.83
378.884	17.71
379.093	18.15
379.301	17.75
379.51	17.24
379.718	17.2
379.927	16.81
380.135	16.71
380.344	17.01
380.552	17.56
380.761	17.57
380.969	17.55
381.177	17.36
381.386	16.94
381.594	17.26
381.803	17.18
382.011	17.62
382.219	17.76
382.428	17.25
382.636	16.76
382.845	16.66
383.053	16.61
383.261	15.92
383.469	16.09
383.678	16.66
383.886	16.68
384.094	16.33
384.302	16.15
384.511	16.61
384.719	17.21
384.927	17.2
385.135	17.09
385.343	17.11
385.552	17.25
385.76	16.9
385.968	16.69
386.176	16.28
386.384	16.26
386.592	15.96
386.8	15.73
387.008	15.78
387.216	16.19
387.424	16.14
387.633	16
387.841	15.99
388.049	15.8
388.257	15.63
388.465	15.82
388.672	15.88
388.88	16.19
389.088	16.25
389.296	15.9
389.504	15.69
389.712	15.57
389.92	15.76
390.128	15.9
390.336	16.27
390.544	16.52
390.751	16.1
390.959	15.84
391.167	15.54
391.375	15.51
391.583	15.46
391.79	15.07
391.998	14.67
392.206	14.57
392.414	14.49
392.621	14.74
392.829	14.66
393.037	14.99
393.244	15.18
393.452	15.45
393.66	15.53
393.867	15.82
394.075	15.92
394.283	16.3
394.49	16.22
394.698	16.28
394.905	15.91
395.113	15.85
395.32	15.81
395.528	15.95
395.735	15.6
395.943	15.24
396.15	14.88
396.358	15.19
396.565	15.05
396.773	14.89
396.98	14.94
397.188	14.66
397.395	14.8
397.602	14.81
397.81	14.59
398.017	14.77
398.225	14.84
398.432	15.28
398.639	15.17
398.847	15.36
399.054	15.55
399.261	15.44
399.468	15.7
399.676	15.58
399.883	15.82
400.09	15.88
400.297	15.82
400.505	15.73
400.712	15.42
400.919	15.58
401.126	15.32
401.333	15.42
401.54	15.33
401.748	15.31
401.955	15.37
402.162	15.03
402.369	15.08
402.576	15.03
402.783	15.1
402.99	15.07
403.197	14.88
403.404	14.91
403.611	14.85
403.818	14.81
404.025	14.76
404.232	14.38
404.439	14.07
404.646	13.87
404.853	13.84
405.06	13.89
405.267	13.81
405.474	13.73
405.681	13.63
405.887	13.41
406.094	13.59
406.301	13.6
406.508	14.02
406.715	14.16
406.922	14.07
407.128	13.91
407.335	13.67
407.542	13.59
407.749	13.65
407.955	13.93
408.162	13.73
408.369	13.87
408.575	13.8
408.782	13.53
408.989	13.66
409.195	13.54
409.402	13.79
409.609	14.21
409.815	14.34
410.022	14.34
410.228	14.11
410.435	14.45
410.642	14.1
410.848	14.23
411.055	14.04
411.261	14.28
411.468	14.49
411.674	14.25
411.881	14.09
412.087	14.28
412.294	14.01
412.5	13.88
412.706	13.95
412.913	14.02
413.119	13.79
413.326	13.85
413.532	13.68
413.738	13.44
413.945	13.57
414.151	13.38
414.357	13.25
414.564	13.23
414.77	13.37
414.976	13.18
415.182	13.39
415.389	13.34
415.595	13.28
415.801	13.14
416.007	13.41
416.214	13.53
416.42	13.56
416.626	13.45
416.832	13.8
417.038	13.72
417.244	13.78
417.45	13.5
417.657	13.61
417.863	13.87
418.069	14
418.275	13.84
418.481	13.69
418.687	13.64
418.893	13.59
419.099	13.36
419.305	13.42
419.511	13.28
419.717	13.18
419.923	13.01
420.129	12.8
420.335	12.73
420.541	12.77
420.746	12.73
420.952	12.64
421.158	12.55
421.364	12.45
421.57	12.39
421.776	12.48
421.982	12.43
422.187	12.42
422.393	12.39
422.599	12.23
422.805	12.24
423.01	12.14
423.216	12.06
423.422	12.08
423.628	12.15
423.833	12.14
424.039	12.11
424.245	12.21
424.45	12.28
424.656	12.28
424.862	12.32
425.067	12.34
425.273	12.36
425.478	12.56
425.684	12.58
425.889	12.77
426.095	12.71
426.301	12.71
426.506	12.8
426.712	12.8
426.917	12.78
427.123	12.91
427.328	12.81
427.533	12.91
427.739	12.98
427.944	13.04
428.15	12.72
428.355	12.84
428.561	12.85
428.766	12.73
428.971	12.71
429.177	12.78
429.382	12.74
429.587	12.72
429.793	12.68
429.998	12.48
430.203	12.42
430.408	12.57
430.614	12.65
430.819	12.51
431.024	12.74
431.229	12.86
431.434	12.82
431.64	12.78
431.845	12.89
432.05	12.93
432.255	12.84
432.46	12.78
432.665	12.57
432.87	12.44
433.076	12.54
433.281	12.43
433.486	12.22
433.691	12.18
433.896	12.05
434.101	11.87
434.306	11.97
434.511	12.11
434.716	12.29
434.921	12.4
435.126	12.35
435.331	12.22
435.535	12.22
435.74	12.23
435.945	12.28
436.15	12.36
436.355	12.55
436.56	12.49
436.765	12.56
436.97	12.3
437.174	12.39
437.379	12.54
437.584	12.69
437.789	12.55
437.993	12.68
438.198	12.77
438.403	12.89
438.608	12.75
438.812	12.59
439.017	12.54
439.222	12.59
439.426	12.57
439.631	12.51
439.836	12.33
440.04	12.41
440.245	12.43
440.45	12.27
440.654	12.15
440.859	12.2
441.063	12.25
441.268	12.19
441.472	12.32
441.677	12.36
441.881	12.21
442.086	12.23
442.29	12.17
442.495	12
442.699	12.18
442.904	12.2
443.108	12.23
443.312	12.14
443.517	12.13
443.721	11.88
443.925	11.7
444.13	11.75
444.334	11.92
444.538	11.98
444.743	11.99
444.947	11.89
445.151	11.9
445.356	11.75
445.56	11.91
445.764	11.92
445.968	11.96
446.173	12.06
446.377	12.04
446.581	11.94
446.785	11.9
446.989	11.93
447.193	11.93
447.398	11.9
447.602	11.94
447.806	11.92
448.01	12
448.214	12.05
448.418	12
448.622	12.1
448.826	12.05
449.03	12.16
449.234	12.27
449.438	12.21
449.642	12.19
449.846	12.29
450.05	12.28
450.254	12.13
450.458	12.23
450.662	12.22
450.866	12.01
451.069	12.02
451.273	11.88
451.477	11.71
451.681	11.79
451.885	11.67
452.089	11.76
452.292	11.73
452.496	11.81
452.7	11.67
452.904	11.6
453.107	11.85
453.311	11.95
453.515	11.99
453.719	11.89
453.922	11.88
454.126	12
454.33	11.9
454.533	11.67
454.737	11.49
454.94	11.51
455.144	11.6
455.348	11.36
455.551	11.4
455.755	11.21
455.958	11.33
456.162	11.36
456.365	11.39
456.569	11.12
456.772	11.14
456.976	11.22
457.179	11.35
457.383	11.42
457.586	11.68
457.79	11.54
457.993	11.82
458.196	11.85
458.4	11.86
458.603	11.77
458.807	11.94
459.01	12.14
459.213	11.99
459.417	11.83
459.62	11.81
459.823	11.67
460.026	11.67
460.23	11.54
460.433	11.57
460.636	11.5
460.839	11.54
461.042	11.59
461.246	11.5
461.449	11.61
461.652	11.75
461.855	11.59
462.058	11.59
462.261	11.51
462.464	11.57
462.668	11.55
462.871	11.52
463.074	11.62
463.277	11.34
463.48	11.49
463.683	11.6
463.886	11.64
464.089	11.71
464.292	11.9
464.495	12.16
464.698	12.16
464.901	12.25
465.104	12.4
465.306	12.43
465.509	12.65
465.712	12.59
465.915	12.54
466.118	12.45
466.321	12.45
466.524	12.37
466.726	12.43
466.929	12.38
467.132	12.32
467.335	12.23
467.538	11.99
467.74	12.06
467.943	12.08
468.146	12.08
468.348	12.07
468.551	12.2
468.754	12.24
468.956	11.96
469.159	12.04
469.362	12.14
469.564	12.15
469.767	12.44
469.969	12.33
470.172	12.14
470.375	12.21
470.577	12.23
470.78	12.18
470.982	12.04
471.185	12.28
471.387	12.32
471.59	12.28
471.792	12.41
471.995	12.36
472.197	12.28
472.399	12.35
472.602	12.18
472.804	12.25
473.007	12.3
473.209	12.4
473.411	12.25
473.614	12.07
473.816	11.92
474.018	11.85
474.22	11.88
474.423	12.06
474.625	12.03
474.827	12.21
475.03	12.16
475.232	12.16
475.434	12.23
475.636	12.27
475.838	12.38
476.04	12.58
476.243	12.42
476.445	12.3
476.647	12.36
476.849	12.47
477.051	12.46
477.253	12.44
477.455	12.46
477.657	12.27
477.859	12.25
478.061	12.14
478.263	12.02
478.465	12.17
478.667	12.34
478.869	12.24
479.071	12.19
479.273	12.1
479.475	11.95
479.677	11.94
479.879	11.91
480.081	12.02
480.283	12.07
480.485	11.95
480.686	11.79
480.888	11.71
481.09	11.74
481.292	11.65
481.494	11.52
481.695	11.59
481.897	11.44
482.099	11.51
482.301	11.44
482.502	11.46
482.704	11.54
482.906	11.47
483.107	11.37
483.309	11.29
483.511	11.3
483.712	11.32
483.914	11.27
484.115	11.26
484.317	11.22
484.519	11.17
484.72	11.13
484.922	11.04
485.123	11.1
485.325	11.12
485.526	11.11
485.728	11.11
485.929	11.09
486.131	11.09
486.332	11.17
486.534	11.18
486.735	11.25
486.936	11.26
487.138	11.27
487.339	11.23
487.541	11.2
487.742	11.21
487.943	11.19
488.144	11.18
488.346	11.16
488.547	11.16
488.748	11.12
488.95	11.05
489.151	11.08
489.352	11.11
489.553	11.12
489.755	11.2
489.956	11.13
490.157	11.11
490.358	11.18
490.559	11.33
490.76	11.25
490.961	11.23
491.163	11.36
491.364	11.37
491.565	11.39
491.766	11.35
491.967	11.38
492.168	11.44
492.369	11.52
492.57	11.44
492.771	11.42
492.972	11.49
493.173	11.63
493.374	11.53
493.575	11.52
493.776	11.49
493.976	11.67
494.177	11.71
494.378	11.85
494.579	11.77
494.78	12.04
494.981	12.07
495.182	12.05
495.382	12.18
495.583	12.19
495.784	12.29
495.985	12.44
496.185	12.44
496.386	12.38
496.587	12.47
496.788	12.56
496.988	12.49
497.189	12.55
497.39	12.66
497.59	12.56
497.791	12.61
497.992	12.51
498.192	12.53
498.393	12.44
498.593	12.52
498.794	12.44
498.994	12.51
499.195	12.42
499.395	12.46
499.596	12.58
499.796	12.53
499.997	12.66
500.197	12.82
500.398	12.8
500.598	12.98
500.799	12.92
500.999	12.96
501.199	12.82
501.4	12.88
501.6	12.82
501.801	12.72
502.001	12.89
502.201	12.88
502.402	12.79
502.602	12.82
502.802	12.9
503.002	13.09
503.203	13.1
503.403	13.23
503.603	13.36
503.803	13.42
504.003	13.46
504.204	13.43
504.404	13.46
504.604	13.55
504.804	13.75
505.004	13.77
505.204	13.7
505.404	13.82
505.604	13.97
505.804	13.84
506.005	13.77
506.205	13.72
506.405	13.87
506.605	13.98
506.805	14.15
507.005	14.07
507.204	14.01
507.404	14.04
507.604	14.03
507.804	14.08
508.004	14.28
508.204	14.44
508.404	14.53
508.604	14.34
508.804	14.35
509.003	14.27
509.203	14.32
509.403	14.43
509.603	14.52
509.803	14.68
510.002	14.67
510.202	14.69
510.402	14.72
510.602	14.8
510.801	15
511.001	15.02
511.201	15.03
511.4	14.96
511.6	14.88
511.8	14.88
511.999	14.93
512.199	14.96
512.398	15.04
512.598	15.14
512.797	15.16
512.997	15.26
513.197	15.34
513.396	15.59
513.596	15.78
513.795	15.96
513.994	16.03
514.194	15.87
514.393	16.02
514.593	16.09
514.792	16.09
514.992	16.04
515.191	16.05
515.39	16.15
515.59	15.97
515.789	16.05
515.988	16.26
516.188	16.36
516.387	16.4
516.586	16.29
516.786	16.28
516.985	16.33
517.184	16.42
517.383	16.56
517.582	16.59
517.782	16.68
517.981	16.58
518.18	16.38
518.379	16.49
518.578	16.49
518.777	16.6
518.976	16.5
519.176	16.63
519.375	16.73
519.574	16.66
519.773	16.55
519.972	16.57
520.171	16.66
520.37	16.76
520.569	16.7
520.768	16.85
520.967	16.96
521.166	17.12
521.365	17.07
521.564	17.08
521.762	17.35
521.961	17.59
522.16	17.65
522.359	17.63
522.558	17.68
522.757	17.73
522.956	17.8
523.154	17.7
523.353	17.81
523.552	17.72
523.751	17.83
523.949	17.65
524.148	17.58
524.347	17.69
524.546	17.79
524.744	17.88
524.943	18.01
525.142	17.9
525.34	18.02
525.539	18.05
525.737	18.12
525.936	18.11
526.135	18.09
526.333	18.08
526.532	18.06
526.73	18.13
526.929	18.05
527.127	18.05
527.326	18.12
527.524	18.1
527.723	18.12
527.921	18.15
528.12	18.1
528.318	18.13
528.516	18.16
528.715	18.11
528.913	18.07
529.112	18.11
529.31	18.06
529.508	18.06
529.707	18.1
529.905	18.1
530.103	18.12
530.301	18.21
530.5	18.26
530.698	18.36
530.896	18.49
531.094	18.69
531.293	18.84
531.491	18.93
531.689	19.11
531.887	19.16
532.085	19.23
532.283	19.27
532.481	19.33
532.68	19.28
532.878	19.22
533.076	19.23
533.274	19.15
533.472	19.06
533.67	19.03
533.868	18.97
534.066	18.96
534.264	18.93
534.462	18.97
534.66	18.95
534.858	19.04
535.056	19.11
535.253	19.13
535.451	19.22
535.649	19.35
535.847	19.55
536.045	19.63
536.243	19.75
536.441	19.84
536.638	19.94
536.836	19.98
537.034	20.08
537.232	20.14
537.43	20.26
537.627	20.28
537.825	20.27
538.023	20.26
538.22	20.44
538.418	20.39
538.616	20.47
538.813	20.51
539.011	20.73
539.209	20.81
539.406	20.98
539.604	21.13
539.801	21.33
539.999	21.47
540.196	21.51
540.394	21.5
540.591	21.64
540.789	21.62
540.986	21.55
541.184	21.46
541.381	21.4
541.579	21.34
541.776	21.29
541.974	21.16
542.171	21.14
542.368	21.17
542.566	21.12
542.763	21.07
542.96	21.11
543.158	21.24
543.355	21.33
543.552	21.46
543.75	21.58
543.947	21.53
544.144	21.62
544.341	21.68
544.539	21.8
544.736	21.92
544.933	22.04
545.13	22.16
545.327	22.12
545.524	22.21
545.722	22.31
545.919	22.35
546.116	22.52
546.313	22.62
546.51	22.75
546.707	22.77
546.904	22.88
547.101	22.94
547.298	22.96
547.495	23.03
547.692	23.02
547.889	22.92
548.086	23.03
548.283	23.18
548.48	23.29
548.677	23.27
548.874	23.33
549.07	23.31
549.267	23.23
549.464	23.33
549.661	23.43
549.858	23.74
550.055	23.97
550.251	24.03
550.448	23.96
550.645	23.98
550.842	23.99
551.038	24.05
551.235	24.05
551.432	24.13
551.628	24.17
551.825	24.36
552.022	24.05
552.218	24.14
552.415	24.14
552.612	24.28
552.808	24.21
553.005	24.08
553.201	24.13
553.398	24.25
553.594	24.41
553.791	24.46
553.987	24.3
554.184	24.54
554.38	24.36
554.577	24.37
554.773	24.36
554.97	24.62
555.166	24.94
555.362	24.94
555.559	25.17
555.755	25.26
555.952	25.38
556.148	25.41
556.344	25.34
556.541	25.55
556.737	25.78
556.933	25.99
557.129	25.79
557.326	25.83
557.522	26.14
557.718	26.18
557.914	26.15
558.11	25.96
558.307	26.1
558.503	26.22
558.699	26.28
558.895	26.24
559.091	26.19
559.287	26.32
559.483	26.37
559.679	26.36
559.876	26.17
560.072	26.24
560.268	26.59
560.464	26.55
560.66	26.52
560.856	26.55
561.052	26.62
561.247	26.66
561.443	26.81
561.639	26.89
561.835	26.89
562.031	27.14
562.227	27.1
562.423	27.08
562.619	27.3
562.815	27.59
563.01	27.82
563.206	27.83
563.402	27.88
563.598	27.9
563.793	28.02
563.989	27.94
564.185	27.87
564.381	28.16
564.576	28.2
564.772	28.19
564.968	28.18
565.163	27.89
565.359	27.63
565.555	27.69
565.75	27.73
565.946	27.72
566.141	27.93
566.337	28.05
566.532	28.09
566.728	28.12
566.923	28.2
567.119	28.05
567.314	28.22
567.51	28.58
567.705	28.61
567.901	28.65
568.096	28.87
568.292	28.84
568.487	28.86
568.682	28.97
568.878	29.03
569.073	28.99
569.268	29.15
569.464	29.27
569.659	29.46
569.854	29.59
570.05	29.71
570.245	29.65
570.44	29.77
570.635	29.77
570.831	29.67
571.026	29.79
571.221	29.92
571.416	29.85
571.611	29.87
571.806	29.81
572.002	29.72
572.197	29.67
572.392	29.52
572.587	29.52
572.782	29.67
572.977	29.88
573.172	29.98
573.367	29.98
573.562	30.19
573.757	30.19
573.952	30.14
574.147	30.55
574.342	30.78
574.537	30.92
574.732	30.92
574.927	30.74
575.121	30.79
575.316	30.79
575.511	30.87
575.706	31
575.901	31.26
576.096	31.58
576.29	31.44
576.485	31.39
576.68	31.73
576.875	31.88
577.069	32.17
577.264	32.11
577.459	32.26
577.654	32.35
577.848	32.34
578.043	32.36
578.238	32.37
578.432	32.37
578.627	32.57
578.821	32.66
579.016	32.83
579.21	33.06
579.405	33.05
579.6	33.01
579.794	33.13
579.989	33.14
580.183	33.22
580.378	33.2
580.572	33.4
580.766	33.38
580.961	33.23
581.155	33.34
581.35	33.26
581.544	33.32
581.738	33.34
581.933	33.27
582.127	33.7
582.321	33.79
582.516	33.91
582.71	33.97
582.904	34.06
583.099	34.17
583.293	34.07
583.487	34.36
583.681	34.74
583.875	34.97
584.07	35.43
584.264	35.13
584.458	35.09
584.652	35.04
584.846	34.99
585.04	34.96
585.234	35.04
585.428	35.18
585.623	34.74
585.817	34.47
586.011	34.61
586.205	34.64
586.399	34.78
586.593	34.83
586.787	34.92
586.981	34.91
587.174	35.1
587.368	34.99
587.562	35.02
587.756	35.25
587.95	35.45
588.144	35.35
588.338	35.14
588.532	35.1
588.725	34.98
588.919	34.92
589.113	34.86
589.307	34.65
589.501	34.79
589.694	34.96
589.888	35.05
590.082	35.07
590.275	35.23
590.469	35.22
590.663	35.15
590.856	35.58
591.05	35.7
591.244	35.73
591.437	35.97
591.631	36.04
591.824	35.96
592.018	36.01
592.212	36.09
592.405	35.85
592.599	36.01
592.792	36.24
592.986	36.16
593.179	36.16
593.372	36.38
593.566	36.5
593.759	36.56
593.953	36.61
594.146	36.5
594.339	36.52
594.533	36.88
594.726	36.8
594.92	36.74
595.113	36.77
595.306	36.61
595.499	36.54
595.693	36.39
595.886	36.29
596.079	36.36
596.272	36.34
596.466	36.27
596.659	35.82
596.852	35.94
597.045	35.97
597.238	35.8
597.431	35.89
597.624	35.82
597.818	35.86
598.011	36.04
598.204	35.83
598.397	36.04
598.59	36.03
598.783	36.56
598.976	36.66
599.169	36.81
599.362	37.04
599.555	37.43
599.748	37.85
599.941	38.06
600.134	37.87
600.326	38.01
600.519	38.36
600.712	38.35
600.905	37.97
601.098	37.84
601.291	37.93
601.483	37.83
601.676	37.63
601.869	37.42
602.062	37.44
602.255	37.46
602.447	37.39
602.64	36.93
602.833	37.11
603.025	37.02
603.218	36.99
603.411	36.67
603.603	36.46
603.796	36.5
603.989	36.57
604.181	36.48
604.374	36.44
604.566	36.45
604.759	36.33
604.951	36.23
605.144	36.43
605.336	36.42
605.529	36.54
605.721	36.66
605.914	36.63
606.106	36.75
606.299	36.8
606.491	36.96
606.683	37.13
606.876	37.42
607.068	37.72
607.26	37.9
607.453	38.14
607.645	38.19
607.837	38.33
608.03	38.54
608.222	38.35
608.414	38.51
608.606	38.66
608.799	38.92
608.991	38.91
609.183	39.08
609.375	39.23
609.567	39.48
609.759	40.12
609.952	40.63
610.144	41.31
610.336	42.13
610.528	42.55
610.72	43.01
610.912	43.74
611.104	44.72
611.296	45.26
611.488	45.79
611.68	46.28
611.872	46.31
612.064	46.64
612.256	46.4
612.448	46.37
612.64	46.3
612.832	46.17
613.023	45.82
613.215	45.35
613.407	45.07
613.599	44.94
613.791	44.61
613.983	44.45
614.174	44.21
614.366	43.96
614.558	43.46
614.75	43.16
614.941	43.02
615.133	42.91
615.325	43.01
615.516	42.65
615.708	42.33
615.9	41.91
616.091	41.81
616.283	41.65
616.475	41.41
616.666	41.45
616.858	41.64
617.049	41.46
617.241	41.2
617.432	41.06
617.624	41.48
617.815	41.16
618.007	41.28
618.198	41.32
618.39	41.14
618.581	41.2
618.773	41.22
618.964	41.05
619.155	41.32
619.347	41.03
619.538	40.97
619.729	40.72
619.921	40.79
620.112	40.94
620.303	40.78
620.494	40.7
620.686	40.77
620.877	40.82
621.068	41.02
621.259	41
621.451	41.39
621.642	40.98
621.833	40.82
622.024	41.15
622.215	41.3
622.406	41.73
622.597	41.91
622.788	41.84
622.98	41.67
623.171	41.46
623.362	41.4
623.553	41.57
623.744	41.67
623.935	41.76
624.126	41.62
624.317	41.45
624.508	41.27
624.698	41.26
624.889	41.45
625.08	41.65
625.271	42.09
625.462	42.02
625.653	41.72
625.844	41.73
626.034	41.73
626.225	41.6
626.416	41.47
626.607	41.34
626.798	41.4
626.988	41.15
627.179	41.1
627.37	40.66
627.56	40.74
627.751	40.91
627.942	41.1
628.132	41.2
628.323	41.44
628.514	41.5
628.704	41.82
628.895	41.85
629.085	42.21
629.276	42.11
629.466	42.66
629.657	42.67
629.847	42.61
630.038	42.72
630.228	42.83
630.419	42.92
630.609	43.24
630.8	42.96
630.99	42.84
631.181	42.96
631.371	43.06
631.561	42.68
631.752	43
631.942	42.87
632.132	42.67
632.323	42.42
632.513	42.35
632.703	42.17
632.893	42.34
633.084	42.49
633.274	42.16
633.464	42.04
633.654	41.97
633.844	41.76
634.034	41.87
634.225	41.9
634.415	41.87
634.605	41.92
634.795	41.95
634.985	41.93
635.175	41.72
635.365	41.63
635.555	41.71
635.745	41.92
635.935	41.84
636.125	41.82
636.315	41.75
636.505	42.11
636.695	41.98
636.885	41.78
637.075	41.72
637.265	42.05
637.455	42.27
637.644	42.39
637.834	42.41
638.024	42.43
638.214	42.46
638.404	42.72
638.593	42.66
638.783	42.84
638.973	43.19
639.163	42.97
639.352	43.07
639.542	43.2
639.732	43.43
639.921	43.55
640.111	43.76
640.301	43.87
640.49	43.81
640.68	43.97
640.87	43.82
641.059	43.71
641.249	44.12
641.438	43.96
641.628	43.83
641.817	43.77
642.007	43.54
642.196	43.46
642.386	43.81
642.575	44.02
642.764	43.76
642.954	43.66
643.143	43.82
643.333	44.1
643.522	44.11
643.711	44.21
643.901	44.09
644.09	44.5
644.279	44.61
644.469	44.5
644.658	44.36
644.847	44.45
645.036	44.68
645.226	44.5
645.415	44.13
645.604	44.05
645.793	44
645.982	43.85
646.171	43.54
646.361	44.18
646.55	44.53
646.739	44.48
646.928	44.77
647.117	44.96
647.306	45.15
647.495	45.07
647.684	45.16
647.873	45.14
648.062	45.14
648.251	45.23
648.44	44.64
648.629	44
648.818	44.1
649.007	43.73
649.196	43.71
649.384	43.61
649.573	43.77
649.762	43.71
649.951	43.94
650.14	44.32
650.328	44.38
650.517	44.58
650.706	44.61
650.895	44.89
651.083	45.13
651.272	45.14
651.461	45.56
651.65	45.69
651.838	45.42
652.027	45.21
652.216	45.07
652.404	45.31
652.593	45.24
652.781	45.35
652.97	45.49
653.158	45.42
653.347	45.53
653.535	45.27
653.724	44.99
653.912	45.44
654.101	45.77
654.289	45.64
654.478	45.57
654.666	45.34
654.855	45.38
655.043	44.75
655.231	44.8
655.42	44.75
655.608	44.77
655.796	45.06
655.985	45.17
656.173	45.17
656.361	45.16
656.55	44.77
656.738	44.56
656.926	44.66
657.114	45.29
657.302	45.2
657.491	44.62
657.679	44.01
657.867	43.83
658.055	43.88
658.243	43.56
658.431	43.82
658.619	44.06
658.807	44.24
658.996	44.23
659.184	43.48
659.372	43.38
659.56	43.34
659.748	43.52
659.936	43.59
660.124	43.5
660.311	43.67
660.499	43.58
660.687	43.42
660.875	43.38
661.063	43.35
661.251	43.69
661.439	43.82
661.627	44.29
661.814	44.63
662.002	44.49
662.19	44.79
662.378	44.63
662.565	44.83
662.753	45.2
662.941	45.57
663.129	45.73
663.316	46.22
663.504	46.11
663.692	46.07
663.879	45.93
664.067	46.03
664.254	45.84
664.442	45.92
664.63	45.7
664.817	45.7
665.005	45.52
665.192	45.67
665.38	45.36
665.567	45.6
665.755	45.98
665.942	45.85
666.13	46.24
666.317	46.31
666.504	46.29
666.692	46.69
666.879	46.46
667.067	46.43
667.254	46.39
667.441	46.45
667.629	46.57
667.816	46.46
668.003	46.24
668.19	46.38
668.378	46.37
668.565	46.72
668.752	46.31
668.939	46.15
669.127	46.18
669.314	45.96
669.501	46.07
669.688	46
669.875	45.85
670.062	46.63
670.249	46.55
670.436	46.4
670.623	46.22
670.81	46.51
670.997	46.6
671.184	46.63
671.371	46.96
671.558	46.76
671.745	46.87
671.932	47.07
672.119	46.74
672.306	46.4
672.493	46.57
672.68	46.93
672.867	47.4
673.054	47.75
673.24	47.95
673.427	48.02
673.614	48.6
673.801	48.79
673.988	49.33
674.174	49.54
674.361	49.52
674.548	49.4
674.734	48.99
674.921	48.34
675.108	48.69
675.294	48.22
675.481	47.94
675.668	47.58
675.854	46.96
676.041	46.35
676.227	46.19
676.414	46.75
676.601	47.1
676.787	47.23
676.974	47.39
677.16	46.98
677.347	47.46
677.533	47.51
677.719	47.46
677.906	47.36
678.092	47.44
678.279	46.92
678.465	46.36
678.651	46.02
678.838	46.09
679.024	46.29
679.21	46.03
679.397	45.88
679.583	45.84
679.769	45.94
679.955	45.88
680.142	45.77
680.328	46.45
680.514	46.72
680.7	46.62
680.886	46.73
681.073	46.42
681.259	46.48
681.445	46.48
681.631	46.34
681.817	46.1
682.003	46.37
682.189	46.07
682.375	45.89
682.561	45.96
682.747	46.01
682.933	45.91
683.119	46.3
683.305	46.43
683.491	46.41
683.677	46.39
683.863	46.8
684.049	47.16
684.235	47.51
684.42	47.65
684.606	48.11
684.792	48.93
684.978	48.88
685.164	48.72
685.349	49
685.535	49.3
685.721	49.39
685.907	48.85
686.092	48.25
686.278	48.04
686.464	47.87
686.649	47.59
686.835	47.03
687.021	47.53
687.206	47.51
687.392	47.05
687.577	47.02
687.763	47.3
687.948	47.71
688.134	48.19
688.319	48.8
688.505	49.31
688.69	49.3
688.876	49.3
689.061	49.32
689.247	49.23
689.432	49.49
689.618	49.39
689.803	49.3
689.988	49.34
690.174	49.31
690.359	49.32
690.544	48.7
690.73	49.01
690.915	49.45
691.1	49.38
691.285	49.83
691.471	50.39
691.656	50.87
691.841	50.95
692.026	51.16
692.211	51.66
692.396	51.5
692.582	52.24
692.767	52.29
692.952	51.65
693.137	51.27
693.322	51.23
693.507	51.3
693.692	50.99
693.877	51.36
694.062	51.15
694.247	50.61
694.432	51.08
694.617	50.58
694.802	50.13
694.987	50.63
695.172	50.78
695.357	50.9
695.541	50.85
695.726	51.04
695.911	50.86
696.096	50.77
696.281	51.2
696.466	50.62
696.65	50.44
696.835	50.19
697.02	49.79
697.204	49.48
697.389	48.89
697.574	48.06
697.759	47.69
697.943	47.14
698.128	46.87
698.312	46.25
698.497	45.65
698.682	45.4
698.866	45.33
699.051	45.39
699.235	45.25
699.42	45.58
699.604	45.55
699.789	45.04
699.973	45.53
700.158	45.95
700.342	46.26
700.527	47.01
700.711	47.89
700.895	48.25
701.08	48.6
701.264	49.55
701.448	49.54
701.633	50.09
701.817	51.22
702.001	51.12
702.186	51.13
702.37	51.68
702.554	51.54
702.738	51.49
702.923	51.73
703.107	51.94
703.291	51.63
703.475	51.46
703.659	52.06
703.843	52.09
704.027	53.04
704.212	53.14
704.396	52.67
704.58	52.71
704.764	52.93
704.948	52.43
705.132	52.43
705.316	52.49
705.5	53.27
705.684	53.02
705.868	53.07
706.052	52.62
706.235	52.66
706.419	53.12
706.603	53.65
706.787	53.32
706.971	54.09
707.155	53.96
707.339	53.99
707.522	53.71
707.706	53.92
707.89	54.09
708.074	53.67
708.257	53.56
708.441	53.99
708.625	54.03
708.808	54.17
708.992	53.81
709.176	53.77
709.359	53.44
709.543	52.86
709.727	52.35
709.91	51.66
710.094	51.86
710.277	52.01
710.461	51.36
710.644	51.6
710.828	51.46
711.011	51.4
711.195	51.66
711.378	51.49
711.562	51.79
711.745	52.09
711.928	52.51
712.112	51.88
712.295	51.66
712.478	51.58
712.662	51.53
712.845	51.22
713.028	50.9
713.212	50.36
713.395	50.41
713.578	50.69
713.761	50.58
713.945	50.32
714.128	50.76
714.311	50.83
714.494	50.7
714.677	49.98
714.86	50.14
715.043	50.64
715.227	50.63
715.41	50.71
715.593	50.37
715.776	50.37
715.959	50.24
716.142	50.94
716.325	50.76
716.508	50.28
716.691	51.31
716.874	51.47
717.057	51.71
717.239	51.92
717.422	52.02
717.605	52.27
717.788	52.1
717.971	52.92
718.154	52.53
718.337	52.77
718.519	54.11
718.702	53.91
718.885	52.82
719.068	52.6
719.25	53.33
719.433	53.66
719.616	54.18
719.798	54.08
719.981	54.67
720.164	54.25
720.346	54.24
720.529	54.42
720.712	54.07
720.894	55.69
721.077	55.67
721.259	55.01
721.442	55.48
721.624	55.31
721.807	56.16
721.989	55.32
722.172	56.23
722.354	56.9
722.537	56.83
722.719	56.69
722.901	57.18
723.084	57.76
723.266	57.86
723.448	57.49
723.631	57.29
723.813	56.32
723.995	56.16
724.178	55.5
724.36	54.68
724.542	53.93
724.724	54.77
724.907	53.93
725.089	52.74
725.271	53.68
725.453	53.44
725.635	53.07
725.817	54.37
725.999	54.12
726.181	54.54
726.364	54.23
726.546	54.8
726.728	53.94
726.91	53.69
727.092	54
727.274	52.65
727.456	52.99
727.638	53.52
727.819	52.66
728.001	53.29
728.183	53.59
728.365	54.48
728.547	54.02
728.729	54.38
728.911	54.3
729.093	54.32
729.274	54.4
729.456	54.09
729.638	54.18
729.82	54.21
730.001	53.28
730.183	52.27
730.365	52.63
730.546	52.53
730.728	51.6
730.91	52.08
731.091	51.96
731.273	52.17
731.455	52.18
731.636	51.83
731.818	52.22
731.999	52.19
732.181	52.45
732.362	51.74
732.544	52.57
732.725	53.25
732.907	53.52
733.088	54.49
733.27	54.91
733.451	55.17
733.633	56.43
733.814	56.05
733.995	57.64
734.177	57.76
734.358	58.08
734.539	58.22
734.721	57.86
734.902	57.21
735.083	56.3
735.264	56.52
735.446	56.49
735.627	54.84
735.808	54.03
735.989	53.25
736.17	53.52
736.351	53.88
736.533	53.21
736.714	53.54
736.895	54.3
737.076	54.95
737.257	54.63
737.438	53.88
737.619	55.49
737.8	56.76
737.981	57.42
738.162	57.51
738.343	57.15
738.524	56.69
738.705	56.9
738.886	56.25
739.067	56.35
739.247	56.32
739.428	57.09
739.609	55.95
739.79	55.6
739.971	54.85
740.151	54.72
740.332	55.53
740.513	55.6
740.694	55.58
740.874	55.17
741.055	54.71
741.236	55.15
741.417	55.66
741.597	55.65
741.778	55.97
741.958	56.08
742.139	56.32
742.32	55.97
742.5	56.76
742.681	57.48
742.861	57.77
743.042	58.76
743.222	58.23
743.403	57.73
743.583	58.61
743.764	59.02
743.944	58.96
744.124	58.29
744.305	57.86
744.485	58.51
744.666	57.26
744.846	58.6
745.026	58.35
745.207	57.59
745.387	57.92
745.567	57.7
745.747	57.79
745.928	57.73
746.108	58.83
746.288	58.53
746.468	57.96
746.648	59.09
746.829	58.84
747.009	58.52
747.189	59.96
747.369	59.58
747.549	59.21
747.729	59.53
747.909	59.21
748.089	58.52
748.269	58.09
748.449	58.66
748.629	58.22
748.809	58.56
748.989	59.07
749.169	58.84
749.349	59.22
749.529	58.48
749.709	57.45
749.889	57.8
750.068	58.1
750.248	59.06
750.428	58.12
750.608	57.81
750.788	56.06
750.967	55.24
751.147	54.52
751.327	54.65
751.507	55.29
751.686	55.27
751.866	55.86
752.046	55.86
752.225	56.22
752.405	56.03
752.585	56.09
752.764	57.19
752.944	58.31
753.123	58.96
753.303	58.93
753.482	59.79
753.662	60.91
753.841	59.56
754.021	60.21
754.2	59.76
754.38	60.39
754.559	61.35
754.739	60.38
754.918	59.63
755.097	59.2
755.277	58.32
755.456	58.04
755.635	57.33
755.815	57.74
755.994	56.61
756.173	56.37
756.352	55.78
756.532	55.57
756.711	56
756.89	55.94
757.069	56.64
757.248	56.47
757.427	56.62
757.607	56.6
757.786	57.11
757.965	57.01
758.144	57.38
758.323	58.06
758.502	57.31
758.681	57.9
758.86	57.81
759.039	57.49
759.218	58.83
759.397	58.23
759.576	57.67
759.755	56.63
759.934	57.02
760.113	57.28
760.291	56.19
760.47	57.34
760.649	56.82
760.828	56.22
761.007	56.19
761.186	55.33
761.364	55.29
761.543	55.17
761.722	55.89
761.901	55.16
762.079	54.51
762.258	54.86
762.437	53.29
762.615	53
762.794	52.98
762.972	51.94
763.151	52.14
763.33	51.8
763.508	51.62
763.687	51.43
763.865	52.03
764.044	51.63
764.222	51.13
764.401	51.58
764.579	51.61
764.758	51.65
764.936	52.39
765.114	52.13
765.293	52.49
765.471	52.69
765.65	53.3
765.828	53.03
766.006	53.79
766.184	54.75
766.363	55.05
766.541	54.4
766.719	55.25
766.898	55.34
767.076	55.48
767.254	55.54
767.432	56.1
767.61	55.02
767.788	55.82
767.967	55.22
768.145	56.24
768.323	56.27
768.501	58.17
768.679	57.78
768.857	58
769.035	59.81
769.213	60.76
769.391	61.09
769.569	62.56
769.747	64.19
769.925	65
770.103	63.24
770.281	63.28
770.459	63.13
770.636	63.85
770.814	64.92
770.992	63.27
771.17	62.8
771.348	63.87
771.525	63.44
771.703	61.46
771.881	62.03
772.059	64.17
772.236	65.21
772.414	65.69
772.592	65.15
772.769	64.12
772.947	63.59
773.125	63.18
773.302	62.48
773.48	63.33
773.657	63.95
773.835	61.6
774.013	61.27
774.19	62.22
774.368	61.4
774.545	62.14
774.723	63.68
774.9	65.46
775.077	66.16
775.255	66.71
775.432	67.46
775.61	67.12
775.787	69.51
775.964	70.28
776.142	70.36
776.319	70.73
776.496	71.36
776.674	68.94
776.851	68.45
777.028	67.74
777.205	67.15
777.382	66.59
777.56	66.57
777.737	69.95
777.914	68.79
778.091	67.52
778.268	69.71
778.445	69
778.622	69.96
778.8	69.89
778.977	70
779.154	76.17
779.331	74.99
779.508	76.16
779.685	72.96
779.862	71.61
780.038	72.24
780.215	70.78
780.392	71.44
780.569	71.47
780.746	72.03
780.923	72
781.1	65.64
781.277	65.7
781.453	64.15
781.63	64.17
781.807	65.66
781.984	63.8
782.16	64.83
782.337	63.19
782.514	63.95
782.691	65.16
782.867	65.6
783.044	64.78
783.221	64.89
783.397	66.31
783.574	66.6
783.75	66.97
783.927	67.9
784.103	65.72
784.28	68.73
784.456	68.45
784.633	67.48
784.809	68.12
784.986	68.97
785.162	69.47
785.339	68.83
785.515	69.42
785.692	69.7
785.868	72.13
786.044	73.03
786.221	71.8
786.397	71.14
786.573	70.67
786.749	69.74
786.926	72.1
787.102	72.55
787.278	74.12
787.454	71.67
787.631	71.44
787.807	68.1
787.983	68.49
788.159	66.16
788.335	67.93
788.511	67.11
788.687	67.52
788.863	65.26
789.039	65.87
789.216	63.52
789.392	66.01
789.568	65.07
789.744	67.21
789.919	63.8
790.095	64.16
790.271	63.76
790.447	63.64
790.623	63.49
790.799	64.9
790.975	63.16
791.151	63.84
791.327	62.92
791.502	63.72
791.678	61.03
791.854	63.98
792.03	67.37
792.205	67.92
792.381	68.86
792.557	69.74
792.733	69.7
792.908	71.07
793.084	69.8
793.259	69.55
793.435	67.81
793.611	69.32
793.786	68.87
793.962	66.59
794.137	65.46
794.313	64.28
794.488	64.63
794.664	65.98
794.839	65.3
795.015	66.79
795.19	67.23
795.366	67.1
795.541	68.04
795.716	68.23
795.892	70.13
796.067	68
796.242	68.46
796.418	66.52
796.593	65.3
796.768	66.39
796.944	66.8
797.119	64.97
797.294	66.77
797.469	66.8
797.644	67.24
797.82	66.04
797.995	64.99
798.17	64.61
798.345	66.31
798.52	65.36
798.695	63.81
798.87	63.43
799.045	65.39
799.22	65.66
799.395	64.26
799.57	65.04
799.745	64.44
799.92	67.09
800.095	68.51
800.27	67.83
800.445	68.51
800.62	68.84
800.795	70.52
800.97	71.41
801.145	69.16
801.319	71.62
801.494	71.24
801.669	71.35
801.844	72.47
802.018	72.8
802.193	72.79
802.368	71.72
802.543	71.09
802.717	69.9
802.892	68.27
803.067	68.82
803.241	67.4
803.416	67.27
803.59	65.97
803.765	66.44
803.94	65.74
804.114	63.49
804.289	64.51
804.463	65.33
804.638	63.59
804.812	64.13
804.986	64.44
805.161	64.26
805.335	63.78
805.51	64.91
805.684	62.73
805.858	62.55
806.033	63.11
806.207	62.86
806.381	61.84
806.556	63.28
806.73	62.66
806.904	62.35
807.078	59.85
807.253	59.5
807.427	58.93
807.601	58.42
807.775	60.34
807.949	62.02
808.123	62.47
808.298	65.23
808.472	65.33
808.646	65.52
808.82	64.98
808.994	69.05
809.168	70.33
809.342	73.3
809.516	73.9
809.69	70.1
809.864	69.32
810.038	70.37
810.212	67.57
810.385	66.34
810.559	68.67
810.733	69.52
810.907	68.99
811.081	68.51
811.255	65.64
811.428	66.68
811.602	67.8
811.776	70.11
811.95	68.47
812.123	70.34
812.297	73.38
812.471	69.46
812.644	69.94
812.818	69.5
812.992	68.18
813.165	71.75
813.339	70.41
813.512	70.08
813.686	67.69
813.86	67.69
814.033	65.69
814.207	65.85
814.38	67.92
814.554	64.75
814.727	65.54
814.9	65.51
815.074	65.25
815.247	65.75
815.421	65.1
815.594	68.06
815.767	68.51
815.941	70.13
816.114	69.8
816.287	70.26
816.46	72.67
816.634	70.96
816.807	74.98
816.98	71.47
817.153	73.85
817.327	75.19
817.5	74.11
817.673	77.47
817.846	77.82
818.019	76.03
818.192	74.35
818.365	69.48
818.538	70.42
818.711	66.96
818.884	65.98
819.057	64.76
819.23	63.24
819.403	60.25
819.576	56.26
819.749	56.02
819.922	54.65
820.095	52.14
820.268	56.15
820.441	54.26
820.614	51.95
820.786	52.11
820.959	50.47
821.132	50.16
821.305	49.04
821.477	47.31
821.65	45.98
821.823	46.27
821.996	45.74
822.168	44.7
822.341	44.35
822.514	44.11
822.686	42.92
822.859	42.49
823.031	41.74
823.204	41.83
823.376	42.39
823.549	42.45
823.722	42.11
823.894	42.8
824.067	42.42
824.239	42.82
824.411	43.07
824.584	43.87
824.756	44.16
824.929	44.82
825.101	45.15
825.273	45.29
825.446	45.86
825.618	45.46
825.79	45.26
825.963	46.12
826.135	45.83
826.307	45.61
826.479	46.05
826.652	45.55
826.824	45.79
826.996	45.32
827.168	44.95
827.34	44.55
827.512	44.57
827.684	44.64
827.856	44.71
828.029	45.73
828.201	45.94
828.373	44.93
828.545	46.6
828.717	46.86
828.889	46.66
829.061	47.68
829.232	48.31
829.404	48.63
829.576	49.27
829.748	48.03
829.92	48.3
830.092	49.62
830.264	50.8
830.436	51.5
830.607	51.59
830.779	53.43
830.951	53.25
831.123	52.4
831.294	52.98
831.466	52.09
831.638	53.51
831.809	52.85
831.981	53.86
832.153	54.71
832.324	52.02
832.496	53.41
832.667	55.82
832.839	54.68
833.011	55.15
833.182	56.89
833.354	57.09
833.525	58.11
833.697	55.96
833.868	52.1
834.039	52.31
834.211	51.51
834.382	50.66
834.554	50.11
834.725	50.08
834.896	49.33
835.068	47.77
835.239	47.26
835.41	46.76
835.581	48.42
835.753	49.77
835.924	49.24
836.095	50.34
836.266	49.2
836.438	47.92
836.609	48.6
836.78	48.98
836.951	50.18
837.122	50.32
837.293	50.96
837.464	50.11
837.635	52.8
837.806	55.52
837.977	57.55
838.148	62.95
838.319	65.62
838.49	64.53
838.661	67.24
838.832	69.15
839.003	70.17
839.174	69.09
839.345	71.01
839.516	72.77
839.687	72.32
839.857	70.73
840.028	69
840.199	65.29
840.37	70.56
840.54	73.38
840.711	68.93
840.882	70.05
841.053	72.32
841.223	70.64
841.394	66.15
841.564	68.45
841.735	69.88
841.906	65.23
842.076	58.66
842.247	58.37
842.417	53.23
842.588	58.99
842.758	59
842.929	59.26
843.099	64.32
843.27	66.18
843.44	63.11
843.611	66.33
843.781	64.84
843.951	74.12
844.122	76.57
844.292	80.38
844.462	78.45
844.633	79.26
844.803	79.57
844.973	76.43
845.144	81.34
845.314	82.49
845.484	76.93
845.654	84.42
845.824	83.92
845.995	83.43
846.165	78.71
846.335	82.77
846.505	86.89
846.675	86.27
846.845	94.7
847.015	94.29
847.185	94.6
847.355	101.47
847.525	109.63
847.695	127.58
847.865	126.54
848.035	147.49
848.205	133.07
848.375	145.59
848.545	128.83
848.715	120.04
848.884	114.95
849.054	118.21
849.224	121.24
849.394	115.88
849.564	101.19
849.733	103.17
849.903	97.06
850.073	102.4
850.243	93.3
850.412	98.68
850.582	98.64
850.752	104.55
850.921	99.6
851.091	93.06
851.26	91.67
851.43	94.12
851.599	91.93
851.769	93.76
851.939	90.87
852.108	91.99
852.278	103.44
852.447	97.36
852.616	92.66
852.786	96.23
852.955	97.16
853.125	100.73
853.294	101.94
853.463	98.43
853.633	103.32
853.802	109.8
853.971	110.71
854.141	104.91
854.31	106.16
854.479	101.39
854.648	111.37
854.818	113.37
854.987	109.9
855.156	117.07
855.325	122.58
855.494	128.73
855.663	124.97
855.832	111.77
856.001	122.73
856.171	135.39
856.34	145.36
856.509	140.88
856.678	146.25
856.847	145.14
857.016	134.93
857.185	125.49
857.353	119.18
857.522	133.43
857.691	145.84
857.86	148.56
858.029	134.66
858.198	139.21
858.367	134.68
858.535	134.33
858.704	138.29
858.873	139.06
859.042	140.93
859.21	150.86
859.379	146.86
859.548	129.75
859.717	117.15
859.885	121.48
860.054	113.62
860.222	113.01
860.391	121.64
860.56	113.93
860.728	108.21
860.897	105.42
861.065	82.57
861.234	77.99
861.402	92.77
861.571	89.11
861.739	87.83
861.908	90.32
862.076	95.66
862.244	101.57
862.413	97.5
862.581	99.52
862.749	98.01
862.918	102.39
863.086	101.62
863.254	95.5
863.423	103.39
863.591	106.85
863.759	105.05
863.927	91.27
864.096	78.48
864.264	80.15
864.432	80.72
864.6	85.72
864.768	81.47
864.936	87.6
865.104	85.66
865.272	83.06
865.44	93.46
865.608	87.75
865.776	101.12
865.944	104.31
866.112	105.2
866.28	101.07
866.448	100.38
866.616	105.11
866.784	97.77
866.952	104.44
867.12	107.77
867.288	103.6
867.455	102.2
867.623	108.42
867.791	104.98
867.959	104.85
868.127	104.03
868.294	106.33
868.462	98.61
868.63	104.19
868.797	104.64
868.965	98
869.133	94.7
869.3	98.9
869.468	87.37
869.636	77.76
869.803	80.33
869.971	95.86
870.138	97.35
870.306	96.24
870.473	90.6
870.641	89.46
870.808	91.32
870.975	94.95
871.143	96.55
871.31	92.41
871.478	101.66
871.645	92.05
871.812	85.19
871.98	86.45
872.147	88.66
872.314	86.79
872.482	90.88
872.649	92.09
872.816	95.24
872.983	88.58
873.15	92.33
873.318	100.47
873.485	111.22
873.652	103.84
873.819	114.26
873.986	127.13
874.153	131.02
874.32	130.17
874.487	129.56
874.654	119.03
874.821	134.01
874.988	128.15
875.155	128.33
875.322	126.54
875.489	136.62
875.656	117.53
875.823	104.75
875.99	109.03
876.157	111.99
876.324	108.87
876.49	105.75
876.657	95.19
876.824	101.24
876.991	97.05
877.157	97.21
877.324	101.41
877.491	102.17
877.658	114.32
877.824	111.01
877.991	98.85
878.157	98.34
878.324	94.78
878.491	101.71
878.657	110.3
878.824	105.35
878.99	103.5
879.157	102.3
879.323	104.29
879.49	97.95
879.656	98.05
879.823	100.26
879.989	99.51
880.156	103.08
880.322	93.26
880.488	82.14
880.655	81.58
880.821	81.48
880.987	81.7
881.154	77.43
881.32	74.58
881.486	72.77
881.652	71.95
881.819	70.66
881.985	64
882.151	61.98
882.317	60.54
882.483	56.07
882.649	55.21
882.816	55.5
882.982	53.59
883.148	51.3
883.314	46.89
883.48	49.04
883.646	47.28
883.812	47.74
883.978	49.16
884.144	47.39
884.31	47.05
884.476	46.94
884.642	45.72
884.807	47.43
884.973	47.63
885.139	48.72
885.305	48.16
885.471	48.91
885.637	48.26
885.802	48.45
885.968	51.21
886.134	54.94
886.3	55.64
886.465	54.27
886.631	52.94
886.797	54.46
886.962	56.26
887.128	55.45
887.293	58.69
887.459	63.44
887.625	62.86
887.79	62.46
887.956	58.86
888.121	59.43
888.287	62.1
888.452	65.86
888.618	67.98
888.783	74.25
