Data from LC_156_Reflection_2.txt Node
Date: Mon Nov 16 22:21:58 EST 2015
User: robert
Spectrometer: USB4E03001
Autoset integration time: false
Trigger mode: 4
Integration Time (sec): 1.000000E-1
Scans to average: 15
Electric dark correction enabled: true
Nonlinearity correction enabled: false
Boxcar width: 5
Stray light correction enabled: false
XAxis mode: Wavelengths
Stop averaging: false
Number of Pixels in Spectrum: 3648
>>>>>Begin Spectral Data<<<<<
177.566	3556.63
177.785	301.11
178.005	-1297.48
178.225	173.92
178.445	331.15
178.665	-669.18
178.885	184.59
179.105	1419.63
179.324	2664.95
179.544	-247.67
179.764	-968.23
179.984	-115.89
180.204	-226.51
180.423	-176.46
180.643	-308.3
180.863	-265.96
181.083	-242.79
181.302	-272.28
181.522	-165.14
181.742	-97.12
181.961	-206.92
182.181	-219.04
182.401	-390.42
182.621	-1320.54
182.84	-582.13
183.06	-339.83
183.279	-160.97
183.499	-125.33
183.719	-119.15
183.938	-147.24
184.158	-240.9
184.377	-150.84
184.597	-230.26
184.816	-147.81
185.036	-112.51
185.256	-79.38
185.475	-109.99
185.695	-188.39
185.914	-289.87
186.134	-433.05
186.353	-620.29
186.572	-635.24
186.792	-1178.22
187.011	-460.36
187.231	-440.28
187.45	-315.92
187.67	-945.43
187.889	-2636.88
188.108	4763.08
188.328	-1283.04
188.547	-495.04
188.766	-795.76
188.986	-1155.75
189.205	-758.3
189.424	-560.56
189.644	-1499.63
189.863	-1660.79
190.082	-1091.26
190.302	-2335.2
190.521	-1387.34
190.74	1301.55
190.959	542.29
191.178	878.92
191.398	701.54
191.617	621
191.836	509.18
192.055	1145.31
192.274	443.22
192.494	530.35
192.713	541.29
192.932	1186.82
193.151	922.02
193.37	1932.93
193.589	-1038.65
193.808	-294.06
194.027	-468.34
194.246	-4073.18
194.465	770.67
194.685	2074.42
194.904	900.37
195.123	-1259.7
195.342	-755.45
195.561	-332.99
195.78	-473.37
195.999	21307.04
196.218	871.68
196.436	673.25
196.655	-2273.75
196.874	-871.93
197.093	-1243.9
197.312	-895.56
197.531	2344.68
197.75	745.59
197.969	-2728.13
198.188	-592.02
198.407	-135.12
198.625	-155.37
198.844	-117.81
199.063	-152.94
199.282	-293.19
199.501	-158.01
199.719	-138.13
199.938	-69.41
200.157	-71.24
200.376	-58.02
200.594	-76.17
200.813	-246.48
201.032	-159.96
201.251	-173.47
201.469	-140.07
201.688	-72.32
201.907	-182.32
202.125	-223.12
202.344	11045.24
202.563	2036.65
202.781	350.75
203	1113.59
203.218	746.17
203.437	698.76
203.656	354.5
203.874	236.29
204.093	257.67
204.311	350.71
204.53	378.9
204.748	560.47
204.967	361.32
205.185	374.06
205.404	414.18
205.622	265.36
205.841	205.03
206.059	207.82
206.278	273.14
206.496	686.09
206.715	328.27
206.933	254.54
207.151	215.31
207.37	261.33
207.588	310.24
207.806	260.36
208.025	578.99
208.243	-1064.88
208.461	2074.74
208.68	-16283.53
208.898	612.15
209.116	653.5
209.335	618.93
209.553	668.53
209.771	6314.17
209.989	1180.7
210.208	2695.63
210.426	-5092.15
210.644	2896.36
210.862	-2333.6
211.081	1116.54
211.299	-498.83
211.517	2182.43
211.735	-597.8
211.953	-187885.71
212.171	-3930.12
212.39	-12000.9
212.608	-30569.57
212.826	1129.03
213.044	800.74
213.262	624.41
213.48	3534.39
213.698	446.55
213.916	618.78
214.134	412.22
214.352	937.49
214.57	565.2
214.788	701.83
215.006	580.94
215.224	494.45
215.442	394.01
215.66	377.26
215.878	284.78
216.096	295.33
216.314	288.92
216.532	512.3
216.75	406.31
216.968	381.57
217.185	951.42
217.403	1749.13
217.621	-4882.51
217.839	-1313.79
218.057	-1495.21
218.275	3154.27
218.492	890.1
218.71	1476.3
218.928	426.09
219.146	392.71
219.363	329
219.581	253.62
219.799	200.65
220.017	217.1
220.234	224.92
220.452	232.6
220.67	244.08
220.887	238.32
221.105	269.5
221.323	229.01
221.54	227.68
221.758	277.35
221.976	256.38
222.193	213.54
222.411	120.16
222.629	108.14
222.846	117.54
223.064	122.62
223.281	130.04
223.499	109.73
223.716	109.61
223.934	77.36
224.151	79.66
224.369	58.98
224.586	63.41
224.804	59.41
225.021	55.92
225.239	44.17
225.456	50.75
225.674	60.13
225.891	62.89
226.108	81.13
226.326	77.25
226.543	75.69
226.76	77.66
226.978	66.48
227.195	65.26
227.413	58.08
227.63	51.45
227.847	43.42
228.064	36.69
228.282	32.03
228.499	27.76
228.716	25.35
228.934	21.64
229.151	24.24
229.368	23.18
229.585	24.31
229.802	25.08
230.02	26.53
230.237	27.11
230.454	27.91
230.671	30.67
230.888	32.06
231.105	33.82
231.323	36.45
231.54	36.59
231.757	37.97
231.974	35.77
232.191	33.86
232.408	34.45
232.625	27.98
232.842	28.4
233.059	22.55
233.276	20.4
233.493	20.5
233.71	23.96
233.927	26.3
234.144	29.39
234.361	29.18
234.578	31.37
234.795	30.29
235.012	37.28
235.229	38.75
235.446	40.82
235.663	39.8
235.879	42.79
236.096	38.66
236.313	37.29
236.53	33.99
236.747	37.75
236.964	34.56
237.181	35.46
237.397	35.28
237.614	32.31
237.831	30.08
238.048	34.3
238.264	35.22
238.481	33.12
238.698	30.6
238.915	32.24
239.131	32.67
239.348	35.42
239.565	35.74
239.781	33.81
239.998	30.62
240.215	30.78
240.431	26.4
240.648	25.26
240.865	26.72
241.081	25.57
241.298	25.26
241.514	23.08
241.731	21.84
241.947	21.33
242.164	21.57
242.38	20.79
242.597	20.35
242.814	20.81
243.03	18.97
243.246	18.4
243.463	19.15
243.679	18.11
243.896	17.3
244.112	18.98
244.329	17.51
244.545	16.04
244.762	17.12
244.978	19.23
245.194	18.41
245.411	20.73
245.627	20.23
245.843	18.88
246.06	18.53
246.276	17.98
246.492	16.12
246.709	17.01
246.925	16.21
247.141	16.36
247.357	15.48
247.574	15.75
247.79	14.74
248.006	14.4
248.222	14.39
248.439	14.15
248.655	14.82
248.871	15.7
249.087	16.02
249.303	16.54
249.519	16.87
249.736	17.91
249.952	17.92
250.168	20.69
250.384	21.18
250.6	20.97
250.816	21.48
251.032	18.77
251.248	16.31
251.464	15.43
251.68	15.49
251.896	16.17
252.112	16.03
252.328	17.61
252.544	16.05
252.76	16.84
252.976	17.16
253.192	16.87
253.408	19.13
253.624	23.6
253.84	23.52
254.056	24.19
254.272	22.53
254.487	23.19
254.703	23.26
254.919	23.76
255.135	22.8
255.351	22.49
255.567	26.28
255.782	26.88
255.998	21.1
256.214	21.07
256.43	19.37
256.646	21.94
256.861	20.51
257.077	18.73
257.293	17.69
257.508	17.28
257.724	20.49
257.94	19.85
258.155	17.63
258.371	16.81
258.587	14.77
258.802	14.75
259.018	13.94
259.234	12.61
259.449	12.47
259.665	11.27
259.88	11.69
260.096	10.91
260.312	9.36
260.527	9.57
260.743	10.36
260.958	10.99
261.174	10.89
261.389	11.49
261.605	12.78
261.82	13.45
262.036	14.62
262.251	15.57
262.466	15.31
262.682	17.39
262.897	18.07
263.113	18.22
263.328	18.51
263.543	18.76
263.759	18.04
263.974	17.57
264.189	16.49
264.405	17.79
264.62	17.25
264.835	18.59
265.051	18.65
265.266	20.27
265.481	20.65
265.696	21.62
265.912	21.67
266.127	20.24
266.342	20.57
266.557	20.32
266.773	19.53
266.988	18.72
267.203	17.72
267.418	17.29
267.633	15.29
267.848	15
268.064	14.07
268.279	14.99
268.494	14.53
268.709	14.4
268.924	14.45
269.139	14.9
269.354	14.64
269.569	13.88
269.784	14.46
269.999	16.1
270.214	15.57
270.429	15.73
270.644	14.09
270.859	12.35
271.074	11.53
271.289	12.03
271.504	12.11
271.719	12.53
271.934	12.69
272.149	12.22
272.363	11.91
272.578	10.74
272.793	10.37
273.008	10.63
273.223	11.6
273.438	10.86
273.653	10.87
273.867	10.16
274.082	10.28
274.297	10.17
274.512	11.08
274.726	10.24
274.941	11.47
275.156	11.58
275.371	12.96
275.585	13.8
275.8	13.7
276.015	12.74
276.229	13.12
276.444	13.48
276.659	14.47
276.873	13.08
277.088	13.6
277.302	14.09
277.517	15.5
277.732	15.89
277.946	15.83
278.161	17.46
278.375	18.14
278.59	17.76
278.804	16.84
279.019	16.88
279.233	16.38
279.448	16.94
279.662	15.39
279.877	14.56
280.091	12.22
280.306	11.51
280.52	11.02
280.735	10.27
280.949	10.74
281.163	10.93
281.378	9.35
281.592	8.46
281.806	8.12
282.021	8.67
282.235	8.54
282.449	9.89
282.664	10.66
282.878	10.67
283.092	12.1
283.307	12.05
283.521	11.83
283.735	12.91
283.949	15.3
284.164	14.92
284.378	14.52
284.592	13.59
284.806	13.18
285.02	12.65
285.234	12.42
285.449	11.4
285.663	11.12
285.877	11.32
286.091	11.07
286.305	10.15
286.519	9.78
286.733	9.06
286.947	9.93
287.161	10.05
287.375	10.44
287.589	11.2
287.803	11.63
288.017	12.15
288.231	11.63
288.445	11.33
288.659	12.04
288.873	11.53
289.087	12.72
289.301	12.15
289.515	11.52
289.729	11.09
289.943	10.11
290.157	9.37
290.371	10.35
290.584	10.43
290.798	11.48
291.012	10.97
291.226	11.52
291.44	12.06
291.654	12.55
291.867	13.05
292.081	12.44
292.295	12.57
292.509	12.52
292.722	11.8
292.936	11.94
293.15	11.74
293.364	11.03
293.577	11.54
293.791	11.01
294.005	12.38
294.218	11.65
294.432	12.91
294.645	13.16
294.859	13.56
295.073	13.47
295.286	13.89
295.5	12.73
295.713	13.02
295.927	13.03
296.14	12.88
296.354	10.88
296.568	10.95
296.781	10.87
296.994	10.85
297.208	10.32
297.421	9.72
297.635	9.03
297.848	9.08
298.062	8.68
298.275	8.97
298.489	9.43
298.702	10.15
298.915	10.69
299.129	11.28
299.342	10.91
299.555	11.68
299.769	12.64
299.982	12.75
300.195	13.28
300.409	14.36
300.622	14.17
300.835	14.66
301.048	14.65
301.262	14.52
301.475	13.73
301.688	14.8
301.901	16.1
302.115	15.91
302.328	16.6
302.541	16.82
302.754	16.5
302.967	17.16
303.18	16.49
303.393	16
303.607	15.83
303.82	16.33
304.033	15.77
304.246	15.23
304.459	14.84
304.672	15.11
304.885	15.41
305.098	14.81
305.311	13.55
305.524	13.38
305.737	14.11
305.95	14.72
306.163	13.69
306.376	13
306.589	12.31
306.802	11.99
307.015	11.67
307.228	11.08
307.44	11.63
307.653	11.6
307.866	10.68
308.079	12
308.292	12.07
308.505	12.89
308.718	12.78
308.93	12.21
309.143	11.89
309.356	11.24
309.569	12.23
309.781	12.71
309.994	13.16
310.207	14.37
310.42	12.68
310.632	11.19
310.845	10.63
311.058	10.11
311.27	10.93
311.483	11.89
311.696	12.5
311.908	11.72
312.121	11.45
312.333	11.98
312.546	10.21
312.759	11.64
312.971	13.05
313.184	13.82
313.396	14.74
313.609	14.85
313.821	14.25
314.034	14.47
314.246	15.07
314.459	14.68
314.671	14.71
314.884	16.49
315.096	15.05
315.309	14.62
315.521	14.88
315.733	13.6
315.946	12.33
316.158	12.38
316.371	12.22
316.583	11.69
316.795	12.72
317.008	11.95
317.22	12.97
317.432	12.34
317.644	12.04
317.857	11.21
318.069	12.36
318.281	13.34
318.494	12.24
318.706	12.62
318.918	12.65
319.13	12.34
319.342	12.55
319.555	11.74
319.767	12.9
319.979	12.68
320.191	12.79
320.403	13.61
320.615	12.68
320.827	14.9
321.039	14.35
321.252	14.77
321.464	14.57
321.676	14.39
321.888	13.53
322.1	13.85
322.312	13.75
322.524	12.49
322.736	12.67
322.948	12.68
323.16	11.28
323.372	11.98
323.584	11.75
323.796	11.66
324.007	11.72
324.219	11.45
324.431	11.37
324.643	11.75
324.855	12.59
325.067	11.92
325.279	12.2
325.491	12.53
325.702	11.67
325.914	10.92
326.126	11.52
326.338	11.97
326.55	12.6
326.761	12.51
326.973	12.54
327.185	12.49
327.396	12.89
327.608	13.51
327.82	13.28
328.032	13.5
328.243	14.02
328.455	14.29
328.666	14.07
328.878	14.73
329.09	14.99
329.301	14.75
329.513	15.16
329.725	13.94
329.936	13.17
330.148	14.03
330.359	13.82
330.571	12.9
330.782	12.54
330.994	12.61
331.205	11.92
331.417	12.02
331.628	12.8
331.84	12.93
332.051	13.94
332.262	14.49
332.474	13.13
332.685	13.61
332.897	13.85
333.108	13.83
333.319	12.92
333.531	12.65
333.742	13.08
333.953	11.71
334.165	11.32
334.376	11.46
334.587	11.52
334.799	12.34
335.01	12.56
335.221	12.59
335.432	12.09
335.644	12.07
335.855	12.38
336.066	11.93
336.277	12.04
336.488	12.36
336.7	11.44
336.911	11.4
337.122	11.36
337.333	11.48
337.544	13.01
337.755	13.25
337.966	13.07
338.177	12.63
338.388	12.37
338.599	14.23
338.811	14.11
339.022	14.15
339.233	14.39
339.444	14.54
339.655	13.22
339.866	11.15
340.076	11.47
340.287	12.51
340.498	13.1
340.709	12.96
340.92	11.14
341.131	11.11
341.342	12.12
341.553	11.93
341.764	10.9
341.975	11.38
342.185	12.09
342.396	11.61
342.607	11.68
342.818	11.46
343.029	11.37
343.239	11.67
343.45	11.7
343.661	10.8
343.872	10.59
344.082	10.53
344.293	11.15
344.504	10.84
344.714	9.66
344.925	8.48
345.136	8.38
345.346	8.98
345.557	9.43
345.768	9.31
345.978	9.6
346.189	9.47
346.399	9.67
346.61	9.48
346.821	9.77
347.031	11.6
347.242	11.78
347.452	12.07
347.663	11.58
347.873	11.79
348.084	11.58
348.294	12
348.504	12.1
348.715	12.43
348.925	12.09
349.136	11.11
349.346	9.23
349.557	10.03
349.767	9.85
349.977	9.58
350.188	9.43
350.398	10.44
350.608	10.26
350.819	10.05
351.029	10.35
351.239	9.78
351.449	10.77
351.66	12.22
351.87	11.62
352.08	11.49
352.29	11.56
352.501	10.38
352.711	10.07
352.921	9.82
353.131	9.74
353.341	9.39
353.552	9.87
353.762	9.88
353.972	9.05
354.182	10.41
354.392	9.71
354.602	9.96
354.812	10.48
355.022	10.14
355.232	10.53
355.442	10.91
355.652	11.26
355.862	10.85
356.072	11.29
356.282	11.27
356.492	10.34
356.702	10.77
356.912	10.94
357.122	11.19
357.332	11.31
357.542	11.01
357.752	11.1
357.962	10.31
358.171	11.01
358.381	11.22
358.591	11.03
358.801	10.88
359.011	11.6
359.221	11.54
359.43	11.77
359.64	11.69
359.85	11.67
360.06	11.25
360.269	11.59
360.479	11.47
360.689	10.81
360.899	11.16
361.108	11.18
361.318	10.52
361.528	9.78
361.737	8.88
361.947	8.4
362.156	8.21
362.366	8.19
362.576	8.17
362.785	7.95
362.995	7.65
363.204	7.47
363.414	6.95
363.623	7.05
363.833	7.76
364.042	8.64
364.252	8.8
364.461	8.87
364.671	8.9
364.88	9.24
365.09	9.6
365.299	10.34
365.509	10.1
365.718	10.25
365.927	9.86
366.137	9.88
366.346	9.41
366.555	9.63
366.765	9.22
366.974	9.23
367.183	9.41
367.393	8.3
367.602	7.46
367.811	7.89
368.021	8.27
368.23	8.55
368.439	7.75
368.648	7.96
368.857	8.18
369.067	8.38
369.276	8.28
369.485	8.13
369.694	8.88
369.903	9.64
370.112	9.4
370.321	9
370.531	8.86
370.74	9.12
370.949	8.81
371.158	8.02
371.367	8.58
371.576	8.15
371.785	7.41
371.994	7.42
372.203	7.51
372.412	7.98
372.621	8.46
372.83	8.42
373.039	8.55
373.248	8.23
373.457	8.85
373.666	8.11
373.874	8.2
374.083	8.88
374.292	8.6
374.501	7.9
374.71	7.11
374.919	6.79
375.128	7.16
375.336	7.41
375.545	8.23
375.754	7.53
375.963	8.04
376.171	7.88
376.38	7.75
376.589	7.74
376.798	7.55
377.006	7.87
377.215	8.51
377.424	8.11
377.632	7.94
377.841	7.6
378.05	7.79
378.258	7.46
378.467	7.61
378.675	7.31
378.884	7.42
379.093	7.7
379.301	8.05
379.51	7.38
379.718	7.19
379.927	7.01
380.135	6.6
380.344	6.81
380.552	6.61
380.761	6.66
380.969	6.95
381.177	6.95
381.386	6.72
381.594	6.1
381.803	5.95
382.011	6.16
382.219	6
382.428	5.71
382.636	5.31
382.845	5.79
383.053	6.09
383.261	5.69
383.469	5.74
383.678	6.21
383.886	6.08
384.094	5.78
384.302	5.75
384.511	6.1
384.719	6.5
384.927	6.64
385.135	6.53
385.343	6.72
385.552	6.71
385.76	6.33
385.968	6.12
386.176	6.2
386.384	6.47
386.592	6.46
386.8	5.97
387.008	6.25
387.216	6.25
387.424	6.39
387.633	6.01
387.841	6.1
388.049	6.03
388.257	6.13
388.465	6.23
388.672	6.32
388.88	6.28
389.088	6.72
389.296	6.44
389.504	6.72
389.712	6.34
389.92	6.08
390.128	6.21
390.336	6.45
390.544	6.66
390.751	6.38
390.959	6.32
391.167	6.31
391.375	6.23
391.583	6.05
391.79	5.94
391.998	6.06
392.206	6.32
392.414	6.3
392.621	6.21
392.829	5.96
393.037	6.11
393.244	5.94
393.452	6.04
393.66	6.03
393.867	6.28
394.075	6.15
394.283	6.13
394.49	5.71
394.698	5.61
394.905	5.69
395.113	5.6
395.32	5.53
395.528	5.53
395.735	5.45
395.943	5.15
396.15	5.01
396.358	4.99
396.565	5.03
396.773	5.62
396.98	5.6
397.188	5.34
397.395	5.34
397.602	5.53
397.81	5.46
398.017	5.74
398.225	5.92
398.432	6.14
398.639	6.34
398.847	6.69
399.054	6.27
399.261	6.39
399.468	6.75
399.676	6.57
399.883	6.64
400.09	6.85
400.297	6.55
400.505	6.63
400.712	6.38
400.919	6.47
401.126	6.16
401.333	6.43
401.54	6.16
401.748	6.32
401.955	6.35
402.162	6.25
402.369	6.34
402.576	6.43
402.783	6.5
402.99	6.58
403.197	6.35
403.404	6.18
403.611	5.89
403.818	5.89
404.025	5.53
404.232	5.39
404.439	5.27
404.646	5
404.853	4.77
405.06	4.58
405.267	4.45
405.474	4.49
405.681	4.37
405.887	4.53
406.094	4.54
406.301	4.61
406.508	4.75
406.715	4.73
406.922	4.93
407.128	5.02
407.335	4.89
407.542	4.94
407.749	4.78
407.955	5.05
408.162	4.83
408.369	5
408.575	4.91
408.782	4.79
408.989	4.68
409.195	4.63
409.402	4.66
409.609	4.95
409.815	4.89
410.022	4.8
410.228	4.67
410.435	4.98
410.642	4.75
410.848	4.91
411.055	4.96
411.261	5.13
411.468	5.21
411.674	4.95
411.881	4.83
412.087	5.26
412.294	5.35
412.5	5.14
412.706	5.15
412.913	5.09
413.119	4.99
413.326	4.75
413.532	4.71
413.738	4.47
413.945	4.9
414.151	4.8
414.357	4.51
414.564	4.53
414.77	4.73
414.976	4.37
415.182	4.64
415.389	4.67
415.595	4.86
415.801	4.75
416.007	4.98
416.214	4.81
416.42	4.77
416.626	4.63
416.832	4.8
417.038	4.83
417.244	5
417.45	4.71
417.657	4.81
417.863	4.92
418.069	4.99
418.275	4.93
418.481	5
418.687	4.95
418.893	5.04
419.099	4.86
419.305	4.87
419.511	4.93
419.717	4.95
419.923	4.81
420.129	4.77
420.335	4.79
420.541	4.74
420.746	4.67
420.952	4.74
421.158	4.68
421.364	4.74
421.57	4.74
421.776	4.71
421.982	4.69
422.187	4.6
422.393	4.53
422.599	4.32
422.805	4.35
423.01	4.29
423.216	4.11
423.422	4.08
423.628	4.12
423.833	4.05
424.039	4.06
424.245	4.16
424.45	4.37
424.656	4.44
424.862	4.55
425.067	4.56
425.273	4.56
425.478	4.65
425.684	4.62
425.889	4.77
426.095	4.84
426.301	4.63
426.506	4.68
426.712	4.53
426.917	4.39
427.123	4.5
427.328	4.42
427.533	4.52
427.739	4.55
427.944	4.58
428.15	4.17
428.355	4.13
428.561	4.18
428.766	4.16
428.971	4.17
429.177	4.26
429.382	4.29
429.587	4.49
429.793	4.32
429.998	4.42
430.203	4.51
430.408	4.66
430.614	4.66
430.819	4.61
431.024	4.6
431.229	4.55
431.434	4.59
431.64	4.49
431.845	4.42
432.05	4.65
432.255	4.62
432.46	4.48
432.665	4.41
432.87	4.4
433.076	4.48
433.281	4.51
433.486	4.47
433.691	4.33
433.896	4.21
434.101	4.17
434.306	4.16
434.511	4.03
434.716	4.17
434.921	4.3
435.126	4.19
435.331	4.1
435.535	4.03
435.74	4.08
435.945	4.29
436.15	4.39
436.355	4.3
436.56	4.1
436.765	4.39
436.97	4.25
437.174	4.16
437.379	4.25
437.584	4.43
437.789	4.35
437.993	4.23
438.198	4.21
438.403	4.26
438.608	4.34
438.812	4.29
439.017	4.02
439.222	3.91
439.426	3.84
439.631	3.84
439.836	3.65
440.04	3.82
440.245	3.86
440.45	3.8
440.654	3.74
440.859	3.67
441.063	3.78
441.268	3.73
441.472	3.9
441.677	3.95
441.881	3.81
442.086	3.91
442.29	3.78
442.495	3.77
442.699	3.83
442.904	3.89
443.108	3.9
443.312	3.88
443.517	3.98
443.721	3.79
443.925	3.78
444.13	3.95
444.334	3.94
444.538	3.92
444.743	4.01
444.947	3.88
445.151	3.83
445.356	3.79
445.56	3.68
445.764	3.71
445.968	3.79
446.173	3.76
446.377	3.76
446.581	3.7
446.785	3.69
446.989	3.61
447.193	3.59
447.398	3.61
447.602	3.68
447.806	3.84
448.01	4.03
448.214	4.08
448.418	4.12
448.622	4.23
448.826	4.34
449.03	4.41
449.234	4.52
449.438	4.52
449.642	4.48
449.846	4.46
450.05	4.43
450.254	4.08
450.458	4.25
450.662	4.24
450.866	4.1
451.069	3.95
451.273	3.9
451.477	3.72
451.681	3.85
451.885	3.65
452.089	3.72
452.292	3.65
452.496	3.81
452.7	3.61
452.904	3.62
453.107	3.66
453.311	3.85
453.515	3.79
453.719	3.81
453.922	3.77
454.126	3.94
454.33	3.93
454.533	3.96
454.737	3.86
454.94	3.95
455.144	3.88
455.348	3.88
455.551	3.86
455.755	3.76
455.958	3.86
456.162	3.93
456.365	4.14
456.569	4.11
456.772	4.03
456.976	4.07
457.179	3.99
457.383	4.07
457.586	4.09
457.79	4.01
457.993	4.16
458.196	3.99
458.4	4.02
458.603	3.8
458.807	3.83
459.01	3.93
459.213	3.88
459.417	3.72
459.62	3.71
459.823	3.6
460.026	3.58
460.23	3.57
460.433	3.64
460.636	3.58
460.839	3.62
461.042	3.71
461.246	3.72
461.449	3.72
461.652	3.92
461.855	3.79
462.058	3.84
462.261	3.77
462.464	3.73
462.668	3.83
462.871	3.77
463.074	3.78
463.277	3.38
463.48	3.42
463.683	3.44
463.886	3.35
464.089	3.54
464.292	3.64
464.495	3.82
464.698	3.73
464.901	3.78
465.104	3.85
465.306	3.94
465.509	4.24
465.712	4.13
465.915	4.2
466.118	4.23
466.321	4.17
466.524	4.16
466.726	4.22
466.929	4.32
467.132	4.26
467.335	4.25
467.538	4.09
467.74	4
467.943	4.06
468.146	4.12
468.348	4.14
468.551	4.17
468.754	4.12
468.956	3.94
469.159	4.03
469.362	4.06
469.564	4.02
469.767	4.13
469.969	4.14
470.172	4
470.375	3.9
470.577	3.88
470.78	3.93
470.982	3.93
471.185	3.98
471.387	4.09
471.59	4
471.792	4.1
471.995	4.14
472.197	4.27
472.399	4.17
472.602	4.1
472.804	4.11
473.007	4.06
473.209	3.99
473.411	4
473.614	3.86
473.816	3.87
474.018	3.85
474.22	3.87
474.423	3.83
474.625	4
474.827	4.05
475.03	4.12
475.232	4.18
475.434	4.17
475.636	4.32
475.838	4.24
476.04	4.21
476.243	4.09
476.445	4
476.647	3.86
476.849	3.81
477.051	3.81
477.253	3.79
477.455	3.73
477.657	3.63
477.859	3.57
478.061	3.47
478.263	3.53
478.465	3.59
478.667	3.5
478.869	3.53
479.071	3.42
479.273	3.46
479.475	3.41
479.677	3.35
479.879	3.38
480.081	3.42
480.283	3.47
480.485	3.35
480.686	3.29
480.888	3.42
481.09	3.33
481.292	3.35
481.494	3.28
481.695	3.32
481.897	3.17
482.099	3.18
482.301	3.11
482.502	3.17
482.704	3.22
482.906	3.23
483.107	3.22
483.309	3.22
483.511	3.26
483.712	3.23
483.914	3.18
484.115	3.24
484.317	3.24
484.519	3.26
484.72	3.21
484.922	3.21
485.123	3.22
485.325	3.2
485.526	3.24
485.728	3.23
485.929	3.24
486.131	3.24
486.332	3.32
486.534	3.33
486.735	3.26
486.936	3.26
487.138	3.2
487.339	3.21
487.541	3.18
487.742	3.15
487.943	3.19
488.144	3.21
488.346	3.19
488.547	3.12
488.748	3.14
488.95	3.13
489.151	3.17
489.352	3.27
489.553	3.24
489.755	3.24
489.956	3.2
490.157	3.17
490.358	3.17
490.559	3.31
490.76	3.32
490.961	3.27
491.163	3.31
491.364	3.34
491.565	3.24
491.766	3.28
491.967	3.34
492.168	3.38
492.369	3.44
492.57	3.41
492.771	3.39
492.972	3.45
493.173	3.49
493.374	3.48
493.575	3.53
493.776	3.6
493.976	3.61
494.177	3.54
494.378	3.69
494.579	3.54
494.78	3.74
494.981	3.68
495.182	3.52
495.382	3.5
495.583	3.5
495.784	3.41
495.985	3.5
496.185	3.55
496.386	3.52
496.587	3.47
496.788	3.5
496.988	3.5
497.189	3.54
497.39	3.59
497.59	3.55
497.791	3.69
497.992	3.72
498.192	3.74
498.393	3.72
498.593	3.84
498.794	3.72
498.994	3.75
499.195	3.63
499.395	3.66
499.596	3.81
499.796	3.9
499.997	3.87
500.197	3.92
500.398	3.99
500.598	3.94
500.799	3.92
500.999	4
501.199	3.93
501.4	3.99
501.6	3.92
501.801	3.95
502.001	4.02
502.201	4.14
502.402	4.09
502.602	3.94
502.802	3.97
503.002	4.08
503.203	4.16
503.403	4.18
503.603	4.15
503.803	4.24
504.003	4.09
504.204	4.16
504.404	4.14
504.604	4.06
504.804	4.11
505.004	4.18
505.204	4.14
505.404	4.22
505.604	4.44
505.804	4.35
506.005	4.38
506.205	4.43
506.405	4.47
506.605	4.5
506.805	4.7
507.005	4.83
507.204	4.89
507.404	4.93
507.604	4.82
507.804	4.72
508.004	4.86
508.204	4.83
508.404	4.9
508.604	4.77
508.804	4.78
509.003	4.77
509.203	4.68
509.403	4.66
509.603	4.61
509.803	4.83
510.002	4.89
510.202	4.88
510.402	4.85
510.602	4.88
510.801	4.95
511.001	4.97
511.201	4.96
511.4	4.98
511.6	4.95
511.8	4.91
511.999	4.96
512.199	4.88
512.398	4.97
512.598	5.16
512.797	5.13
512.997	5.18
513.197	5.15
513.396	5.2
513.596	5.3
513.795	5.49
513.994	5.57
514.194	5.45
514.393	5.48
514.593	5.53
514.792	5.52
514.992	5.59
515.191	5.51
515.39	5.5
515.59	5.4
515.789	5.43
515.988	5.34
516.188	5.4
516.387	5.33
516.586	5.28
516.786	5.26
516.985	5.19
517.184	5.09
517.383	5.26
517.582	5.35
517.782	5.54
517.981	5.49
518.18	5.45
518.379	5.55
518.578	5.57
518.777	5.68
518.976	5.6
519.176	5.71
519.375	5.86
519.574	5.8
519.773	5.78
519.972	5.64
520.171	5.71
520.37	5.77
520.569	5.72
520.768	5.71
520.967	5.82
521.166	5.95
521.365	5.88
521.564	5.91
521.762	6.11
521.961	6.04
522.16	6.06
522.359	5.98
522.558	6.03
522.757	5.94
522.956	6.06
523.154	5.99
523.353	6.16
523.552	6.13
523.751	6.15
523.949	6.07
524.148	6.34
524.347	6.48
524.546	6.47
524.744	6.41
524.943	6.47
525.142	6.42
525.34	6.49
525.539	6.42
525.737	6.52
525.936	6.47
526.135	6.39
526.333	6.21
526.532	6.21
526.73	6.28
526.929	6.27
527.127	6.25
527.326	6.29
527.524	6.27
527.723	6.3
527.921	6.24
528.12	6.22
528.318	6.31
528.516	6.38
528.715	6.36
528.913	6.36
529.112	6.43
529.31	6.46
529.508	6.48
529.707	6.45
529.905	6.44
530.103	6.46
530.301	6.5
530.5	6.46
530.698	6.53
530.896	6.58
531.094	6.66
531.293	6.68
531.491	6.77
531.689	6.77
531.887	6.92
532.085	6.97
532.283	7.06
532.481	7.13
532.68	7.07
532.878	7.04
533.076	7.11
533.274	7.06
533.472	7.09
533.67	7.05
533.868	7.09
534.066	7.06
534.264	6.98
534.462	7
534.66	7
534.858	7.18
535.056	7.22
535.253	7.15
535.451	7.26
535.649	7.16
535.847	7.25
536.045	7.28
536.243	7.3
536.441	7.55
536.638	7.58
536.836	7.62
537.034	7.55
537.232	7.6
537.43	7.7
537.627	7.79
537.825	7.89
538.023	7.9
538.22	8.08
538.418	8.1
538.616	8.03
538.813	8.18
539.011	8.33
539.209	8.36
539.406	8.44
539.604	8.54
539.801	8.62
539.999	8.66
540.196	8.8
540.394	8.77
540.591	8.79
540.789	8.7
540.986	8.59
541.184	8.54
541.381	8.56
541.579	8.53
541.776	8.47
541.974	8.38
542.171	8.41
542.368	8.36
542.566	8.3
542.763	8.39
542.96	8.47
543.158	8.56
543.355	8.58
543.552	8.69
543.75	8.82
543.947	8.78
544.144	8.85
544.341	8.95
544.539	8.95
544.736	9.11
544.933	9.04
545.13	9.06
545.327	9.07
545.524	9.15
545.722	9.2
545.919	9.21
546.116	9.48
546.313	9.5
546.51	9.48
546.707	9.58
546.904	9.58
547.101	9.76
547.298	9.92
547.495	9.98
547.692	9.9
547.889	9.71
548.086	9.76
548.283	9.73
548.48	9.85
548.677	9.92
548.874	10.06
549.07	10.14
549.267	10.02
549.464	9.94
549.661	10.11
549.858	10.34
550.055	10.76
550.251	10.73
550.448	10.9
550.645	10.94
550.842	11.04
551.038	11.2
551.235	11.07
551.432	11.1
551.628	11.21
551.825	11.24
552.022	11.23
552.218	11.25
552.415	11.5
552.612	11.43
552.808	11.3
553.005	11.28
553.201	11.25
553.398	11.35
553.594	11.47
553.791	11.61
553.987	11.72
554.184	11.87
554.38	11.86
554.577	11.74
554.773	11.86
554.97	12.17
555.166	12.4
555.362	12.34
555.559	12.44
555.755	12.5
555.952	12.5
556.148	12.44
556.344	12.4
556.541	12.53
556.737	12.65
556.933	12.66
557.129	12.45
557.326	12.43
557.522	12.38
557.718	12.51
557.914	12.54
558.11	12.49
558.307	12.42
558.503	12.65
558.699	12.65
558.895	12.82
559.091	12.91
559.287	13.27
559.483	13.28
559.679	13.59
559.876	13.62
560.072	13.87
560.268	13.97
560.464	14
560.66	13.92
560.856	14
561.052	13.99
561.247	14.07
561.443	14.05
561.639	14.07
561.835	14.02
562.031	14.1
562.227	14.02
562.423	14.22
562.619	14.38
562.815	14.45
563.01	14.67
563.206	14.56
563.402	14.62
563.598	14.58
563.793	14.63
563.989	14.74
564.185	14.67
564.381	14.93
564.576	14.94
564.772	15.05
564.968	15.2
565.163	15.08
565.359	15.01
565.555	15.04
565.75	15.08
565.946	15.14
566.141	15.16
566.337	15.42
566.532	15.3
566.728	15.44
566.923	15.36
567.119	15.17
567.314	14.97
567.51	15.33
567.705	15.35
567.901	15.35
568.096	15.4
568.292	15.58
568.487	15.54
568.682	15.79
568.878	15.69
569.073	16.02
569.268	16.3
569.464	16.65
569.659	16.58
569.854	16.76
570.05	17.04
570.245	17.2
570.44	17.18
570.635	17.25
570.831	16.98
571.026	17.3
571.221	17.19
571.416	17.02
571.611	17.1
571.806	17.31
572.002	17.29
572.197	17.28
572.392	17.2
572.587	17.16
572.782	17.24
572.977	17.5
573.172	17.54
573.367	17.47
573.562	17.64
573.757	17.57
573.952	17.6
574.147	17.8
574.342	18.03
574.537	18.11
574.732	18.29
574.927	18.29
575.121	18.32
575.316	18.18
575.511	18.4
575.706	18.52
575.901	18.72
576.096	18.67
576.29	18.57
576.485	18.49
576.68	18.65
576.875	18.7
577.069	18.76
577.264	18.66
577.459	18.88
577.654	18.93
577.848	19.08
578.043	18.95
578.238	19.01
578.432	18.93
578.627	19.05
578.821	18.96
579.016	18.91
579.21	19.09
579.405	19.3
579.6	19.3
579.794	19.23
579.989	19.14
580.183	19.32
580.378	19.41
580.572	19.72
580.766	19.42
580.961	19.5
581.155	19.73
581.35	19.66
581.544	19.65
581.738	19.49
581.933	19.61
582.127	19.89
582.321	19.96
582.516	20.08
582.71	20.15
582.904	20.4
583.099	20.43
583.293	20.3
583.487	20.48
583.681	20.59
583.875	20.87
584.07	21.22
584.264	21.03
584.458	21.13
584.652	21.02
584.846	20.81
585.04	20.95
585.234	21.04
585.428	21.01
585.623	20.86
585.817	20.75
586.011	20.66
586.205	20.68
586.399	20.85
586.593	20.83
586.787	21.07
586.981	21.3
587.174	21.15
587.368	21.33
587.562	21.52
587.756	21.78
587.95	22.05
588.144	22.15
588.338	22.19
588.532	22.22
588.725	22.34
588.919	22.21
589.113	22.1
589.307	22.34
589.501	22.13
589.694	22.17
589.888	22.18
590.082	22.25
590.275	22.32
590.469	22.39
590.663	22.21
590.856	22.36
591.05	22.52
591.244	22.59
591.437	22.71
591.631	22.91
591.824	22.88
592.018	22.78
592.212	22.81
592.405	22.62
592.599	22.63
592.792	22.83
592.986	22.77
593.179	22.77
593.372	22.95
593.566	23.03
593.759	23.08
593.953	23.17
594.146	23.12
594.339	23.2
594.533	23.5
594.726	23.22
594.92	23.34
595.113	23.45
595.306	23.44
595.499	23.23
595.693	23.1
595.886	23.19
596.079	23.33
596.272	23.55
596.466	23.44
596.659	23.41
596.852	23.69
597.045	23.67
597.238	23.65
597.431	23.61
597.624	23.82
597.818	23.91
598.011	23.83
598.204	23.71
598.397	23.91
598.59	23.97
598.783	24.02
598.976	23.72
599.169	23.74
599.362	23.57
599.555	23.72
599.748	23.7
599.941	23.67
600.134	23.8
600.326	24.02
600.519	24.12
600.712	24.09
600.905	24.08
601.098	24.43
601.291	24.54
601.483	24.7
601.676	24.72
601.869	24.86
602.062	24.92
602.255	24.94
602.447	24.92
602.64	24.49
602.833	24.84
603.025	24.69
603.218	24.76
603.411	24.65
603.603	24.64
603.796	24.63
603.989	24.69
604.181	24.66
604.374	24.6
604.566	24.57
604.759	24.65
604.951	24.41
605.144	24.65
605.336	24.53
605.529	24.66
605.721	24.68
605.914	24.81
606.106	24.88
606.299	25.06
606.491	25.29
606.683	25.41
606.876	25.47
607.068	25.68
607.26	25.67
607.453	25.83
607.645	25.82
607.837	25.92
608.03	25.91
608.222	25.83
608.414	25.71
608.606	25.72
608.799	25.75
608.991	25.86
609.183	25.91
609.375	25.87
609.567	25.91
609.759	25.98
609.952	26
610.144	26.16
610.336	26.26
610.528	26.12
610.72	25.96
610.912	25.92
611.104	26.01
611.296	25.93
611.488	25.95
611.68	26.07
611.872	25.94
612.064	26.24
612.256	26.14
612.448	26.01
612.64	26.07
612.832	26.36
613.023	26.36
613.215	26.25
613.407	26.31
613.599	26.52
613.791	26.48
613.983	26.63
614.174	26.52
614.366	26.47
614.558	26.48
614.75	26.47
614.941	26.48
615.133	26.68
615.325	27.01
615.516	27.07
615.708	26.95
615.9	26.65
616.091	26.59
616.283	26.69
616.475	26.61
616.666	26.7
616.858	27.22
617.049	26.88
617.241	26.9
617.432	26.94
617.624	27.11
617.815	27.1
618.007	27.3
618.198	27.42
618.39	27.22
618.581	27.39
618.773	27.44
618.964	27.36
619.155	27.63
619.347	27.69
619.538	27.43
619.729	27.4
619.921	27.37
620.112	27.45
620.303	27.61
620.494	27.77
620.686	27.68
620.877	27.71
621.068	27.4
621.259	27.53
621.451	27.51
621.642	27.68
621.833	27.67
622.024	28.07
622.215	28.17
622.406	28.22
622.597	28.02
622.788	28.07
622.98	27.91
623.171	28.33
623.362	28.36
623.553	28.74
623.744	28.47
623.935	28.6
624.126	28.4
624.317	28.31
624.508	28.19
624.698	28.43
624.889	28.54
625.08	29.23
625.271	29.23
625.462	29.08
625.653	28.76
625.844	28.91
626.034	28.73
626.225	28.81
626.416	28.74
626.607	28.81
626.798	28.76
626.988	28.76
627.179	28.43
627.37	28.24
627.56	28.4
627.751	28.52
627.942	28.55
628.132	28.65
628.323	28.58
628.514	28.74
628.704	28.66
628.895	28.52
629.085	28.62
629.276	28.5
629.466	28.65
629.657	28.67
629.847	28.58
630.038	28.49
630.228	28.62
630.419	28.86
630.609	28.9
630.8	28.93
630.99	28.88
631.181	29.03
631.371	29.23
631.561	29.29
631.752	29.14
631.942	29.09
632.132	29.21
632.323	29.12
632.513	28.89
632.703	28.79
632.893	29.24
633.084	29.48
633.274	29.16
633.464	29.19
633.654	29.16
633.844	29.36
634.034	29.57
634.225	29.65
634.415	29.69
634.605	29.75
634.795	29.87
634.985	29.85
635.175	29.93
635.365	30.04
635.555	30.06
635.745	29.96
635.935	29.95
636.125	29.76
636.315	29.76
636.505	29.88
636.695	29.85
636.885	29.68
637.075	29.33
637.265	29.55
637.455	29.58
637.644	29.42
637.834	29.78
638.024	29.58
638.214	29.91
638.404	30.12
638.593	30.31
638.783	30.44
638.973	30.87
639.163	30.82
639.352	30.73
639.542	30.93
639.732	31.22
639.921	31.29
640.111	31.69
640.301	31.51
640.49	31.5
640.68	31.22
640.87	31.4
641.059	31.52
641.249	32.05
641.438	32.06
641.628	31.77
641.817	31.52
642.007	31.45
642.196	31.46
642.386	31.89
642.575	31.97
642.764	31.79
642.954	31.74
643.143	31.67
643.333	31.42
643.522	31.56
643.711	31.94
643.901	32.21
644.09	32.09
644.279	31.96
644.469	31.85
644.658	31.6
644.847	31.92
645.036	31.82
645.226	31.63
645.415	31.87
645.604	31.49
645.793	31.3
645.982	30.78
646.171	31.03
646.361	31.49
646.55	31.76
646.739	31.99
646.928	32
647.117	32.15
647.306	32.28
647.495	32.37
647.684	32.63
647.873	33.25
648.062	33.72
648.251	33.53
648.44	33.06
648.629	32.57
648.818	32.79
649.007	32.77
649.196	32.69
649.384	32.66
649.573	32.65
649.762	32.67
649.951	32.31
650.14	32.35
650.328	32.73
650.517	33.01
650.706	33.21
650.895	33.1
651.083	33.23
651.272	33
651.461	33.27
651.65	33.37
651.838	33.49
652.027	33.4
652.216	33.57
652.404	33.63
652.593	33.64
652.781	33.57
652.97	33.38
653.158	33.75
653.347	34.19
653.535	34.01
653.724	33.51
653.912	33.77
654.101	33.72
654.289	33.59
654.478	33.42
654.666	33.43
654.855	33.19
655.043	32.98
655.231	32.43
655.42	32.42
655.608	32.8
655.796	33.01
655.985	32.82
656.173	33.07
656.361	33.25
656.55	32.91
656.738	32.71
656.926	33.2
657.114	33.82
657.302	34.13
657.491	33.72
657.679	33.26
657.867	33.45
658.055	33.21
658.243	33.11
658.431	33.06
658.619	33.39
658.807	33.57
658.996	33.48
659.184	33.19
659.372	33.36
659.56	34.03
659.748	34.02
659.936	34.07
660.124	34.35
660.311	34.5
660.499	34.53
660.687	34.5
660.875	34.5
661.063	34.77
661.251	34.89
661.439	34.79
661.627	34.68
661.814	34.74
662.002	34.72
662.19	34.9
662.378	34.66
662.565	34.79
662.753	34.88
662.941	34.99
663.129	34.71
663.316	35
663.504	34.64
663.692	34.53
663.879	34.67
664.067	34.87
664.254	34.75
664.442	34.86
664.63	34.88
664.817	34.96
665.005	34.92
665.192	35
665.38	34.69
665.567	34.83
665.755	34.84
665.942	34.74
666.13	34.71
666.317	34.84
666.504	35.12
666.692	35.33
666.879	35.27
667.067	35.31
667.254	35.02
667.441	35.05
667.629	34.78
667.816	34.61
668.003	34.65
668.19	34.53
668.378	34.28
668.565	34.14
668.752	33.87
668.939	33.89
669.127	34.01
669.314	34.39
669.501	34.27
669.688	34.55
669.875	34.81
670.062	35.27
670.249	35.41
670.436	35.57
670.623	35.56
670.81	35.77
670.997	35.74
671.184	35.68
671.371	35.78
671.558	36.38
671.745	36.67
671.932	36.57
672.119	36.15
672.306	35.9
672.493	35.76
672.68	36.12
672.867	36.46
673.054	36.61
673.24	36.59
673.427	36.67
673.614	36.28
673.801	36.46
673.988	36.61
674.174	36.95
674.361	37.21
674.548	37.47
674.734	37.14
674.921	36.66
675.108	37.02
675.294	36.57
675.481	36.39
675.668	36.82
675.854	36.29
676.041	35.97
676.227	36.1
676.414	36.3
676.601	36.44
676.787	36.63
676.974	36.98
677.16	36.65
677.347	37.18
677.533	37.11
677.719	36.73
677.906	36.73
678.092	36.85
678.279	36.48
678.465	36.28
678.651	36.22
678.838	36.04
679.024	35.77
679.21	35.68
679.397	36.06
679.583	35.97
679.769	36.25
679.955	36.22
680.142	36.36
680.328	37.03
680.514	37.09
680.7	36.73
680.886	37.05
681.073	37.24
681.259	37.16
681.445	36.89
681.631	37.11
681.817	36.95
682.003	37.11
682.189	37
682.375	36.52
682.561	36.47
682.747	37.02
682.933	37.12
683.119	37.13
683.305	37.23
683.491	37.4
683.677	37.37
683.863	37.57
684.049	37.8
684.235	37.75
684.42	37.59
684.606	37.91
684.792	38.19
684.978	37.92
685.164	37.67
685.349	37.59
685.535	37.76
685.721	37.64
685.907	37.5
686.092	37.62
686.278	38.12
686.464	37.94
686.649	37.71
686.835	37.38
687.021	37.75
687.206	38.35
687.392	38.2
687.577	38.31
687.763	38.52
687.948	38.33
688.134	38.03
688.319	37.78
688.505	38.21
688.69	38.29
688.876	37.76
689.061	37.7
689.247	37.33
689.432	37.77
689.618	37.18
689.803	37.22
689.988	37.42
690.174	37.66
690.359	37.73
690.544	37.66
690.73	38.1
690.915	38.31
691.1	38.29
691.285	38.1
691.471	38.27
691.656	38.56
691.841	38.52
692.026	38.55
692.211	38.87
692.396	38.92
692.582	39.17
692.767	38.82
692.952	38.72
693.137	38.54
693.322	38.51
693.507	38.49
693.692	39.14
693.877	39.33
694.062	39.26
694.247	39.06
694.432	39.51
694.617	39.51
694.802	39.66
694.987	39.54
695.172	40.02
695.357	40.22
695.541	40.03
695.726	39.5
695.911	39.45
696.096	39.5
696.281	39.76
696.466	39.44
696.65	39.17
696.835	39.21
697.02	39.63
697.204	39.32
697.389	39.31
697.574	39.09
697.759	39.03
697.943	39.03
698.128	39.19
698.312	38.9
698.497	38.75
698.682	38.95
698.866	38.92
699.051	38.82
699.235	38.97
699.42	38.97
699.604	39.58
699.789	39.41
699.973	39.34
700.158	39.32
700.342	39.51
700.527	39.65
700.711	39.74
700.895	39.63
701.08	39.82
701.264	39.67
701.448	39.9
701.633	39.46
701.817	39.52
702.001	39.56
702.186	39.69
702.37	39.69
702.554	39.97
702.738	39.89
702.923	40.01
703.107	40.3
703.291	40.22
703.475	40.26
703.659	40.31
703.843	40.83
704.027	41.26
704.212	41.25
704.396	41.47
704.58	41.35
704.764	41.21
704.948	41.31
705.132	40.8
705.316	40.81
705.5	41.73
705.684	41.78
705.868	41.99
706.052	41.48
706.235	41.4
706.419	41.12
706.603	40.78
706.787	40.79
706.971	40.91
707.155	40.77
707.339	41.31
707.522	40.5
707.706	40.82
707.89	40.4
708.074	40.83
708.257	41.11
708.441	41.96
708.625	42.16
708.808	42.46
708.992	42.15
709.176	42.56
709.359	41.87
709.543	41.55
709.727	40.97
709.91	40.94
710.094	40.84
710.277	41.3
710.461	40.25
710.644	40.02
710.828	39.82
711.011	40.36
711.195	40.35
711.378	40.65
711.562	41
711.745	41.39
711.928	41.5
712.112	41.61
712.295	41.38
712.478	41.98
712.662	42.34
712.845	42.4
713.028	42.39
713.212	42.14
713.395	42.4
713.578	42.22
713.761	42.46
713.945	42.04
714.128	42.01
714.311	41.75
714.494	41.56
714.677	41.49
714.86	41.41
715.043	40.94
715.227	41.36
715.41	41.31
715.593	41.76
715.776	41.61
715.959	41.95
716.142	42.13
716.325	41.26
716.508	41.53
716.691	41.42
716.874	41.63
717.057	41.81
717.239	41.35
717.422	41.49
717.605	41.4
717.788	41.18
717.971	41.99
718.154	41.87
718.337	42.93
718.519	42.65
718.702	43.44
718.885	43.04
719.068	43.2
719.25	43.76
719.433	44.28
719.616	44.07
719.798	43.68
719.981	43.25
720.164	43.13
720.346	42.85
720.529	44
720.712	43.01
720.894	43.02
721.077	42.95
721.259	42.8
721.442	42.17
721.624	42.66
721.807	42.71
721.989	43.16
722.172	42.79
722.354	42.84
722.537	42.07
722.719	42.23
722.901	42.08
723.084	42.07
723.266	41.93
723.448	42.63
723.631	42.16
723.813	42.14
723.995	40.76
724.178	40.86
724.36	41.21
724.542	41.08
724.724	41.52
724.907	42.76
725.089	42.75
725.271	43.77
725.453	42.58
725.635	42.57
725.817	43.93
725.999	45.09
726.181	45.81
726.364	45.68
726.546	46.3
726.728	46.26
726.91	45.23
727.092	45.16
727.274	44.24
727.456	44.87
727.638	45.07
727.819	44.39
728.001	43.56
728.183	43.39
728.365	42.8
728.547	42.04
728.729	42.11
728.911	42.5
729.093	42.72
729.274	42.22
729.456	41.68
729.638	41.65
729.82	41.32
730.001	41.61
730.183	41.59
730.365	42.51
730.546	42.63
730.728	42.02
730.91	41.99
731.091	41.73
731.273	41.8
731.455	41.68
731.636	41.69
731.818	42.39
731.999	42.41
732.181	42.38
732.362	42.28
732.544	42.4
732.725	42.98
732.907	42.69
733.088	43.18
733.27	44.47
733.451	44.92
733.633	45.55
733.814	45.58
733.995	45.86
734.177	45.97
734.358	45.48
734.539	46.11
734.721	46.21
734.902	46.33
735.083	45.84
735.264	45.68
735.446	46.14
735.627	45.5
735.808	44.56
735.989	44.05
736.17	44.46
736.351	44.71
736.533	44.18
736.714	43.19
736.895	43.94
737.076	44.23
737.257	44.55
737.438	43.91
737.619	44.29
737.8	45.19
737.981	46.11
738.162	45.86
738.343	46
738.524	45.64
738.705	46.54
738.886	46.39
739.067	45.76
739.247	44.6
739.428	44.47
739.609	43.64
739.79	44.32
739.971	42.77
740.151	42.09
740.332	42.95
740.513	42.85
740.694	43.72
740.874	43.05
741.055	42.97
741.236	43.16
741.417	43.75
741.597	43.87
741.778	43.63
741.958	44.62
742.139	45.58
742.32	45.38
742.5	45.53
742.681	44.81
742.861	44.56
743.042	45.86
743.222	45.49
743.403	45.57
743.583	45.61
743.764	45.9
743.944	46.26
744.124	46.11
744.305	45.78
744.485	45.44
744.666	45.27
744.846	47.02
745.026	47.6
745.207	48.1
745.387	47.22
745.567	48.5
745.747	47.57
745.928	47.2
746.108	47.18
746.288	46.58
746.468	47.36
746.648	47.35
746.829	46.47
747.009	46.78
747.189	46.95
747.369	47.72
747.549	46.66
747.729	47.73
747.909	47.62
748.089	47.48
748.269	47.85
748.449	48.09
748.629	48.1
748.809	48.47
748.989	47.46
749.169	47.89
749.349	47.91
749.529	48.51
749.709	47.29
749.889	48.38
750.068	47.86
750.248	48.3
750.428	47.84
750.608	47.22
750.788	46.07
750.967	45.5
751.147	44.36
751.327	45
751.507	44.2
751.686	45.05
751.866	44.69
752.046	45.42
752.225	45.79
752.405	46.76
752.585	47.04
752.764	47.59
752.944	48.16
753.123	48.55
753.303	48.77
753.482	49.74
753.662	49.9
753.841	49.38
754.021	49.86
754.2	48.3
754.38	47.27
754.559	47.57
754.739	46.89
754.918	46.71
755.097	47.3
755.277	46.11
755.456	45.9
755.635	45.09
755.815	45.01
755.994	44.26
756.173	44.28
756.352	44.05
756.532	43.38
756.711	44.18
756.89	42.66
757.069	43.02
757.248	43.16
757.427	42.28
757.607	42.68
757.786	42.72
757.965	42.79
758.144	44.07
758.323	46.05
758.502	46.46
758.681	46.46
758.86	47.92
759.039	47.33
759.218	47.82
759.397	48.84
759.576	48.09
759.755	48.74
759.934	48.64
760.113	48.28
760.291	46.37
760.47	47.15
760.649	46.88
760.828	47.94
761.007	47.39
761.186	47.01
761.364	47.04
761.543	47.21
761.722	46.62
761.901	46.59
762.079	46.46
762.258	46.33
762.437	45.61
762.615	45.95
762.794	44.93
762.972	44.75
763.151	44.74
763.33	44.36
763.508	44.11
763.687	43.83
763.865	44.32
764.044	43.98
764.222	44.73
764.401	45.05
764.579	44.38
764.758	44.09
764.936	44.65
765.114	44.23
765.293	43.95
765.471	44.16
765.65	44.35
765.828	44.13
766.006	44.45
766.184	44.44
766.363	44.73
766.541	44.49
766.719	45.64
766.898	46.28
767.076	46.72
767.254	47.2
767.432	48.23
767.61	48.59
767.788	47.78
767.967	47.79
768.145	47.5
768.323	46.73
768.501	48.37
768.679	47.77
768.857	47.28
769.035	47.91
769.213	48.23
769.391	47.85
769.569	47.57
769.747	49.68
769.925	50
770.103	48.99
770.281	48.91
770.459	49.57
770.636	50.59
770.814	50.1
770.992	49.96
771.17	49.75
771.348	49.77
771.525	51.32
771.703	50.07
771.881	50.62
772.059	52.54
772.236	53.8
772.414	51.58
772.592	50.71
772.769	51.01
772.947	51.43
773.125	51.82
773.302	51.81
773.48	51.14
773.657	51.02
773.835	50.35
774.013	50.18
774.19	49.35
774.368	49.28
774.545	50.17
774.723	50.8
774.9	50.09
775.077	50.63
775.255	50.66
775.432	51.38
775.61	51.42
775.787	50.36
775.964	50.47
776.142	50.24
776.319	52.46
776.496	51.07
776.674	50.35
776.851	50.79
777.028	49.61
777.205	48.95
777.382	47.93
777.56	45.78
777.737	48.41
777.914	47.63
778.091	48.42
778.268	47.68
778.445	49.26
778.622	49.27
778.8	49.48
778.977	48.39
779.154	54.49
779.331	53.33
779.508	55.96
779.685	55.44
779.862	55.74
780.038	56.36
780.215	58.07
780.392	57.16
780.569	57.99
780.746	58.86
780.923	59.39
781.1	54.79
781.277	55.39
781.453	53.68
781.63	52.24
781.807	53.02
781.984	52.54
782.16	50.46
782.337	50.06
782.514	49.58
782.691	49.78
782.867	49.59
783.044	47.03
783.221	47.87
783.397	50.11
783.574	50.18
783.75	51.13
783.927	50.72
784.103	51.73
784.28	51.9
784.456	51.77
784.633	51.25
784.809	51.95
784.986	52.71
785.162	52.37
785.339	50.94
785.515	51.78
785.692	48.53
785.868	48.38
786.044	49.2
786.221	48.28
786.397	47.58
786.573	47.05
786.749	47.46
786.926	48.73
787.102	48.78
787.278	49.93
787.454	49.67
787.631	51.26
787.807	50.86
787.983	49.67
788.159	49.79
788.335	50.6
788.511	51.14
788.687	51.02
788.863	50.19
789.039	50.85
789.216	49.06
789.392	48.87
789.568	48.85
789.744	50.13
789.919	50.33
790.095	50.94
790.271	52.32
790.447	50.8
790.623	51.38
790.799	51.31
790.975	51.23
791.151	52.73
791.327	53.21
791.502	53.35
791.678	51.31
791.854	50.12
792.03	52.82
792.205	52.87
792.381	54.2
792.557	54.96
792.733	55.2
792.908	55.35
793.084	53.83
793.259	53.5
793.435	52.24
793.611	54.66
793.786	55.28
793.962	53.44
794.137	51.49
794.313	48.81
794.488	48.64
794.664	49.86
794.839	48.26
795.015	49.15
795.19	48.75
795.366	49.96
795.541	47.69
795.716	48.49
795.892	48.99
796.067	49.67
796.242	51.33
796.418	51.52
796.593	50.53
796.768	51.38
796.944	51.21
797.119	50.98
797.294	50.13
797.469	52.33
797.644	54.38
797.82	53.47
797.995	53.25
798.17	53.68
798.345	52.47
798.52	52.82
798.695	53.89
798.87	54.78
799.045	54.93
799.22	57.46
799.395	56.7
799.57	54.98
799.745	54.01
799.92	54.29
800.095	54.97
800.27	56.41
800.445	57.15
800.62	53.76
800.795	55.39
800.97	57.78
801.145	54.79
801.319	55.06
801.494	55.39
801.669	56.31
801.844	56.76
802.018	56.09
802.193	54.75
802.368	51.77
802.543	52.67
802.717	49.87
802.892	49.67
803.067	51.26
803.241	52.06
803.416	54.68
803.59	56.04
803.765	55.65
803.94	57.47
804.114	57.13
804.289	60.61
804.463	61.23
804.638	60.33
804.812	59.75
804.986	57.19
805.161	55.95
805.335	52.91
805.51	50.5
805.684	48.95
805.858	47.83
806.033	45.91
806.207	44.15
806.381	45.73
806.556	47.58
806.73	47.97
806.904	47.84
807.078	48.34
807.253	50.76
807.427	50.5
807.601	50.78
807.775	52.53
807.949	58.02
808.123	59.86
808.298	60.59
808.472	61.89
808.646	60.61
808.82	62.33
808.994	61.48
809.168	60.27
809.342	63.61
809.516	65.24
809.69	64.09
809.864	60.96
810.038	63.47
810.212	60.77
810.385	60.09
810.559	61.38
810.733	63.23
810.907	64.3
811.081	62.54
811.255	60.17
811.428	58.18
811.602	56.86
811.776	56.72
811.95	53.7
812.123	56.83
812.297	58.79
812.471	57.41
812.644	55.32
812.818	55.11
812.992	54.42
813.165	53.51
813.339	55.05
813.512	55.16
813.686	56.83
813.86	56.28
814.033	56.27
814.207	52.76
814.38	52.31
814.554	51.98
814.727	51.36
814.9	51.08
815.074	52.16
815.247	51.54
815.421	51.14
815.594	51.5
815.767	51.51
815.941	49.3
816.114	50.12
816.287	52.29
816.46	53.84
816.634	53.02
816.807	57.3
816.98	56.7
817.153	57.19
817.327	58.78
817.5	57.06
817.673	60.12
817.846	60.53
818.019	61.93
818.192	60.62
818.365	56.84
818.538	57.88
818.711	53.87
818.884	54.57
819.057	54.91
819.23	56.67
819.403	55.92
819.576	55.28
819.749	54.93
819.922	53
820.095	52.62
820.268	55.86
820.441	55.65
820.614	54.32
820.786	53.36
820.959	51.62
821.132	48.73
821.305	47.72
821.477	45.91
821.65	46.07
821.823	45.71
821.996	45.07
822.168	44.14
822.341	44.18
822.514	44.08
822.686	43.77
822.859	43.44
823.031	43.38
823.204	43.75
823.376	43.74
823.549	43.5
823.722	43.65
823.894	44.39
824.067	44.35
824.239	44.48
824.411	44.89
824.584	45.36
824.756	46.33
824.929	46.37
825.101	46.35
825.273	46.71
825.446	46.58
825.618	46.36
825.79	45.31
825.963	45.36
826.135	45.07
826.307	44.51
826.479	45.04
826.652	44.64
826.824	44.63
826.996	44.71
827.168	44.57
827.34	45.74
827.512	46.26
827.684	46.59
827.856	46.75
828.029	47.39
828.201	48.33
828.373	47.05
828.545	47.64
828.717	47.6
828.889	47.03
829.061	47.41
829.232	46.18
829.404	45.89
829.576	45.49
829.748	45.87
829.92	45.87
830.092	46.13
830.264	46.12
830.436	46.55
830.607	48.46
830.779	50.57
830.951	52.54
831.123	52.26
831.294	49.98
831.466	50.69
831.638	50.62
831.809	49.58
831.981	50.55
832.153	52.2
832.324	50.42
832.496	49.51
832.667	50.1
832.839	48.46
833.011	48.64
833.182	51.49
833.354	52.77
833.525	53.75
833.697	54.15
833.868	50.72
834.039	52.19
834.211	52.08
834.382	51.76
834.554	50.32
834.725	49.55
834.896	50.23
835.068	50.36
835.239	48.12
835.41	47.86
835.581	48.28
835.753	48.83
835.924	46.64
836.095	47.47
836.266	46.89
836.438	45.51
836.609	45.59
836.78	46.74
836.951	47.14
837.122	48.95
837.293	47.73
837.464	46.58
837.635	49.07
837.806	52
837.977	51.45
838.148	54.34
838.319	58.28
838.49	58.72
838.661	57.87
838.832	59.75
839.003	59.79
839.174	61.41
839.345	62.72
839.516	63.5
839.687	62.19
839.857	61.77
840.028	58.4
840.199	58.03
840.37	59.5
840.54	62.81
840.711	57.08
840.882	60.71
841.053	61.2
841.223	61
841.394	58.46
841.564	60.68
841.735	60.03
841.906	61.54
842.076	53.71
842.247	56.08
842.417	55.39
842.588	59.86
842.758	58.84
842.929	62.13
843.099	66
843.27	70.52
843.44	68.08
843.611	70.08
843.781	69.38
843.951	75.16
844.122	74.91
844.292	75.24
844.462	75.46
844.633	73.17
844.803	71.79
844.973	66.38
845.144	63.08
845.314	65.73
845.484	64.2
845.654	69.05
845.824	73.73
845.995	70.83
846.165	65.66
846.335	67.51
846.505	75.63
846.675	75.62
846.845	80.64
847.015	82.85
847.185	80.74
847.355	85.94
847.525	87.49
847.695	90.9
847.865	87.89
848.035	98.68
848.205	92.55
848.375	93.94
848.545	75.03
848.715	78.56
848.884	79.14
849.054	78.35
849.224	79.25
849.394	78.14
849.564	72.37
849.733	75.12
849.903	75.67
850.073	82.6
850.243	73.75
850.412	82.53
850.582	78.68
850.752	77.07
850.921	81.1
851.091	82.18
851.26	82.88
851.43	78.47
851.599	77.28
851.769	73.39
851.939	66.26
852.108	72.18
852.278	72.48
852.447	73.63
852.616	76.88
852.786	68.96
852.955	60.87
853.125	58.68
853.294	61.67
853.463	61.21
853.633	67.58
853.802	77.57
853.971	81.33
854.141	79.24
854.31	74.11
854.479	67.95
854.648	75.67
854.818	77.24
854.987	76.56
855.156	77.77
855.325	85.35
855.494	88.63
855.663	83
855.832	71.09
856.001	84.37
856.171	88.1
856.34	91.38
856.509	82.82
856.678	91.23
856.847	93.17
857.016	101
857.185	89.42
857.353	83.21
857.522	95.75
857.691	97.96
857.86	100.19
858.029	93.31
858.198	96.59
858.367	106.93
858.535	111.38
858.704	109.44
858.873	100.3
859.042	106.95
859.21	110.66
859.379	104.67
859.548	104.85
859.717	102.17
859.885	108.95
860.054	97.66
860.222	84.47
860.391	85.96
860.56	82.24
860.728	89.95
860.897	85.7
861.065	75.09
861.234	68.28
861.402	70.22
861.571	63.74
861.739	65.86
861.908	75.28
862.076	87.5
862.244	83.93
862.413	83.22
862.581	78.76
862.749	69.9
862.918	71.37
863.086	72.49
863.254	73.2
863.423	69.56
863.591	64.13
863.759	69.33
863.927	60.95
864.096	64.6
864.264	71.14
864.432	71.66
864.6	85.09
864.768	90.38
864.936	90.45
865.104	85
865.272	94.16
865.44	98.93
865.608	93.61
865.776	96.99
865.944	98.49
866.112	98.25
866.28	100.1
866.448	102.59
866.616	95.47
866.784	91.24
866.952	94.94
867.12	89.71
867.288	88.39
867.455	88.7
867.623	96.59
867.791	88.29
867.959	87.77
868.127	79.32
868.294	75.69
868.462	77.79
868.63	80
868.797	84.64
868.965	90.75
869.133	83.12
869.3	88.64
869.468	82.05
869.636	71.27
869.803	75.29
869.971	83.03
870.138	84.73
870.306	81.82
870.473	84.2
870.641	75.73
870.808	67.2
870.975	74.48
871.143	72.29
871.31	70.48
871.478	90.69
871.645	83.74
871.812	80.04
871.98	80.48
872.147	81.29
872.314	78.52
872.482	82.88
872.649	84.8
872.816	83.91
872.983	77.52
873.15	84.74
873.318	84.37
873.485	89.54
873.652	92.08
873.819	102.05
873.986	125.4
874.153	126.74
874.32	122.2
874.487	129.67
874.654	120.29
874.821	133.08
874.988	126.75
875.155	124.1
875.322	119.47
875.489	119.57
875.656	100.93
875.823	76.6
875.99	64.01
876.157	62.06
876.324	59.97
876.49	57.99
876.657	55.04
876.824	52.22
876.991	44.26
877.157	46.67
877.324	58.78
877.491	64.88
877.658	79.97
877.824	86.33
877.991	86.9
878.157	88.29
878.324	89.92
878.491	92.82
878.657	97.35
878.824	98.15
878.99	95.41
879.157	87.61
879.323	80.85
879.49	74.67
879.656	82.71
879.823	80.15
879.989	79.91
880.156	80.77
880.322	77.41
880.488	71.45
880.655	77.77
880.821	82.3
880.987	81.6
881.154	84.69
881.32	88.68
881.486	80.85
881.652	77.88
881.819	74.82
881.985	65.76
882.151	63.72
882.317	64.31
882.483	58.32
882.649	56.67
882.816	56.85
882.982	54.34
883.148	51.76
883.314	48.98
883.48	48.98
883.646	48.28
883.812	48.84
883.978	49.77
884.144	50.43
884.31	48.62
884.476	49.92
884.642	49.55
884.807	49.9
884.973	50.47
885.139	50.94
885.305	52.07
885.471	53.64
885.637	53.98
885.802	52.27
885.968	51.34
886.134	54.83
886.3	51.72
886.465	51.06
886.631	51.25
886.797	52.37
886.962	51.79
887.128	52.38
887.293	52.43
887.459	57.34
887.625	58.52
887.79	60.08
887.956	58.23
888.121	63.16
888.287	65.19
888.452	68.35
888.618	64.22
888.783	77.49
