Data from LC_163_Reflection_2.txt Node
Date: Mon Nov 16 22:48:35 EST 2015
User: robert
Spectrometer: USB4E03001
Autoset integration time: false
Trigger mode: 4
Integration Time (sec): 1.000000E-1
Scans to average: 15
Electric dark correction enabled: true
Nonlinearity correction enabled: false
Boxcar width: 5
Stray light correction enabled: false
XAxis mode: Wavelengths
Stop averaging: false
Number of Pixels in Spectrum: 3648
>>>>>Begin Spectral Data<<<<<
177.566	50.6
177.785	92.91
178.005	40.34
178.225	45.14
178.445	-6.42
178.665	659.25
178.885	54.9
179.105	-236.45
179.324	-1190.19
179.544	66.39
179.764	-470.28
179.984	-144.42
180.204	-136.79
180.423	-121.5
180.643	-180.54
180.863	-154.17
181.083	-147.09
181.302	-256.21
181.522	-224.55
181.742	-231.98
181.961	-407.01
182.181	-308.26
182.401	-473.3
182.621	-1917.96
182.84	-876.59
183.06	-640.7
183.279	-410.53
183.499	-291.08
183.719	-235.9
183.938	-252.89
184.158	-234.15
184.377	-159.63
184.597	-239.63
184.816	-149.89
185.036	-109.63
185.256	-74.21
185.475	-105.19
185.695	-130.42
185.914	-180.52
186.134	-392.09
186.353	-448.5
186.572	-634.84
186.792	-981.53
187.011	-425.23
187.231	-405.75
187.45	-245.74
187.67	-761.57
187.889	-1870.5
188.108	3642.41
188.328	-935.15
188.547	-282.47
188.766	-494.09
188.986	-761.52
189.205	-475.29
189.424	-298.65
189.644	-958.17
189.863	-1140.98
190.082	-725.91
190.302	-1762.64
190.521	-891.69
190.74	947.43
190.959	459.61
191.178	707.59
191.398	626.87
191.617	511.04
191.836	425.4
192.055	861.33
192.274	480.8
192.494	512.48
192.713	487.42
192.932	1089.74
193.151	817.39
193.37	1305.35
193.589	-624.7
193.808	-136.33
194.027	-208.24
194.246	-2738.27
194.465	563.81
194.685	901.39
194.904	473.21
195.123	-460.41
195.342	-324.38
195.561	-189.83
195.78	-399.51
195.999	18677.46
196.218	749.42
196.436	727.47
196.655	-2532.82
196.874	-986.64
197.093	-1538.77
197.312	-1206
197.531	3373.76
197.75	1023.82
197.969	-3362.41
198.188	-561.15
198.407	-149.71
198.625	-150.47
198.844	-91.8
199.063	-100.63
199.282	-212.88
199.501	-127.05
199.719	-107.61
199.938	-95.66
200.157	-86.77
200.376	-62.27
200.594	-117.9
200.813	-303.45
201.032	-231.35
201.251	-205.67
201.469	-157.28
201.688	-100.1
201.907	-203.22
202.125	-288.34
202.344	8079.76
202.563	1672.71
202.781	410.5
203	1143.29
203.218	878.4
203.437	662.11
203.656	406.62
203.874	287.07
204.093	292.63
204.311	382.48
204.53	391.22
204.748	600.11
204.967	420.56
205.185	450.62
205.404	473.81
205.622	320.92
205.841	261.02
206.059	309.24
206.278	348.08
206.496	866.48
206.715	447.99
206.933	326.4
207.151	269.7
207.37	304.44
207.588	258.75
207.806	241.7
208.025	476.07
208.243	-770.04
208.461	1210.76
208.68	-13628.24
208.898	537.55
209.116	512.78
209.335	607.76
209.553	599.61
209.771	6402.92
209.989	1368.22
210.208	2760.84
210.426	-4339.59
210.644	2524.83
210.862	-2153.09
211.081	1053.22
211.299	-480.99
211.517	2409.42
211.735	-581.22
211.953	-221757.14
212.171	-3872.89
212.39	-10096.4
212.608	-28150
212.826	1307.66
213.044	909.61
213.262	608.14
213.48	3044.51
213.698	340.08
213.916	514.28
214.134	362.25
214.352	701.6
214.57	380.93
214.788	573.95
215.006	462.86
215.224	336.53
215.442	288.62
215.66	289.67
215.878	252.79
216.096	270.2
216.314	264.3
216.532	453.87
216.75	343.49
216.968	386.34
217.185	856.25
217.403	1570.13
217.621	-4407.33
217.839	-1231.55
218.057	-1542.61
218.275	2707.16
218.492	790.02
218.71	1218.35
218.928	380.39
219.146	343.46
219.363	268.07
219.581	186.21
219.799	152.35
220.017	152.31
220.234	138.09
220.452	144.36
220.67	149.9
220.887	138.12
221.105	174.04
221.323	131.95
221.54	153
221.758	211.28
221.976	236.7
222.193	202.62
222.411	131.27
222.629	152.17
222.846	150.67
223.064	171.49
223.281	167.38
223.499	159.66
223.716	161.49
223.934	131.42
224.151	124.44
224.369	91.82
224.586	86.64
224.804	86.74
225.021	73.45
225.239	59.04
225.456	42.71
225.674	38.71
225.891	6.21
226.108	21.44
226.326	29.46
226.543	32.7
226.76	41.87
226.978	41.36
227.195	54.17
227.413	44.37
227.63	40.48
227.847	36.22
228.064	27.85
228.282	30.99
228.499	29.54
228.716	24.71
228.934	21.04
229.151	21.62
229.368	23
229.585	19.25
229.802	21.27
230.02	20.73
230.237	23.89
230.454	27.63
230.671	29.99
230.888	29.77
231.105	32.25
231.323	34.52
231.54	36.97
231.757	35.43
231.974	35.3
232.191	37.88
232.408	42.66
232.625	38
232.842	37.63
233.059	39.51
233.276	37.33
233.493	33.92
233.71	33.54
233.927	35.53
234.144	38.78
234.361	36.53
234.578	36.29
234.795	36.7
235.012	35.51
235.229	35.02
235.446	29.48
235.663	31.8
235.879	36.9
236.096	38.26
236.313	35.68
236.53	35.01
236.747	41.97
236.964	37.85
237.181	40.49
237.397	42.3
237.614	42.6
237.831	43.13
238.048	42.02
238.264	38.75
238.481	35.43
238.698	35.85
238.915	36.94
239.131	34.13
239.348	34.17
239.565	30.05
239.781	31.05
239.998	28.62
240.215	28.24
240.431	24.96
240.648	25.29
240.865	26.51
241.081	23.41
241.298	22.36
241.514	22.7
241.731	20.72
241.947	21.31
242.164	20.43
242.38	19.46
242.597	19.34
242.814	20.29
243.03	19.4
243.246	18.28
243.463	18.64
243.679	18.2
243.896	16.98
244.112	18.47
244.329	16.44
244.545	16.95
244.762	18.1
244.978	19.4
245.194	17.99
245.411	18.52
245.627	19.87
245.843	19.35
246.06	18.79
246.276	18.85
246.492	18.71
246.709	19.23
246.925	18.27
247.141	18.9
247.357	17.93
247.574	18.4
247.79	17.91
248.006	17.23
248.222	17.45
248.439	17.47
248.655	17.88
248.871	17.7
249.087	17.68
249.303	16.98
249.519	16.28
249.736	17.62
249.952	16.51
250.168	17.62
250.384	17.69
250.6	17.89
250.816	19.2
251.032	16.38
251.248	14.71
251.464	13.15
251.68	14.1
251.896	13.34
252.112	11.62
252.328	13.81
252.544	14.63
252.76	16.18
252.976	15.41
253.192	14.73
253.408	15.49
253.624	20.31
253.84	20.24
254.056	23.31
254.272	23.5
254.487	25.49
254.703	24.25
254.919	23.1
255.135	21.34
255.351	22.87
255.567	23.64
255.782	28.05
255.998	23.31
256.214	25.21
256.43	21.98
256.646	24.25
256.861	24.26
257.077	24.76
257.293	22.79
257.508	22.47
257.724	24.25
257.94	23.34
258.155	19.24
258.371	19.27
258.587	18.12
258.802	18.75
259.018	18.12
259.234	16.77
259.449	15.68
259.665	15.1
259.88	15.23
260.096	13.85
260.312	12.39
260.527	13.37
260.743	13.61
260.958	13.75
261.174	12.83
261.389	13.09
261.605	13.13
261.82	13.9
262.036	14.92
262.251	15.52
262.466	15.98
262.682	18.33
262.897	16.89
263.113	16.32
263.328	17.29
263.543	18.76
263.759	17.65
263.974	19.76
264.189	19.17
264.405	18.95
264.62	19.08
264.835	19.54
265.051	19.23
265.266	22.99
265.481	23.27
265.696	24.08
265.912	22.95
266.127	22.22
266.342	19.83
266.557	19.61
266.773	19.2
266.988	19.21
267.203	18.93
267.418	17.99
267.633	15.88
267.848	14.97
268.064	13.3
268.279	13.49
268.494	12.49
268.709	13.11
268.924	13.02
269.139	13.94
269.354	12.61
269.569	12.03
269.784	12.73
269.999	13.32
270.214	14.31
270.429	14.41
270.644	14.11
270.859	12.59
271.074	12.88
271.289	12.56
271.504	11.72
271.719	11.77
271.934	12.01
272.149	11.57
272.363	10.55
272.578	9.48
272.793	9.38
273.008	9.24
273.223	11.3
273.438	9.92
273.653	9.89
273.867	10.29
274.082	9.8
274.297	9.91
274.512	11.48
274.726	12
274.941	12.24
275.156	13.06
275.371	13.37
275.585	13.13
275.8	14.45
276.015	14.79
276.229	14.82
276.444	15.85
276.659	16.31
276.873	15.21
277.088	15.6
277.302	15.85
277.517	16.52
277.732	16.38
277.946	16
278.161	16.4
278.375	16.78
278.59	16.26
278.804	16.78
279.019	16.97
279.233	16.18
279.448	16.44
279.662	15.92
279.877	14.53
280.091	13.96
280.306	13.8
280.52	12.88
280.735	11.77
280.949	12.49
281.163	12.25
281.378	10.84
281.592	10.76
281.806	10.49
282.021	10.7
282.235	12.19
282.449	13.17
282.664	12.91
282.878	12.62
283.092	13.52
283.307	12.77
283.521	12.73
283.735	13.72
283.949	14.27
284.164	14.77
284.378	14.93
284.592	12.63
284.806	11.73
285.02	12.05
285.234	11.63
285.449	11.36
285.663	11.22
285.877	11.33
286.091	10.9
286.305	10.89
286.519	10.58
286.733	9.74
286.947	10.39
287.161	11.16
287.375	11.79
287.589	12.67
287.803	13.71
288.017	14.27
288.231	13.33
288.445	13.96
288.659	14.43
288.873	13.84
289.087	14.94
289.301	14.65
289.515	14.35
289.729	12.96
289.943	12.83
290.157	11.6
290.371	12.64
290.584	12.78
290.798	13.87
291.012	13.8
291.226	13.52
291.44	13.92
291.654	14.64
291.867	14.72
292.081	15.38
292.295	16.56
292.509	17.88
292.722	17.19
292.936	17.58
293.15	17.01
293.364	16.95
293.577	17.22
293.791	17.06
294.005	18.55
294.218	18.06
294.432	18.51
294.645	17.54
294.859	16.71
295.073	16.31
295.286	16.58
295.5	15.79
295.713	15.86
295.927	16.4
296.14	16.46
296.354	14.84
296.568	14.99
296.781	14.76
296.994	14.79
297.208	14.47
297.421	14.41
297.635	14.24
297.848	13.73
298.062	13.52
298.275	14.17
298.489	14.15
298.702	15
298.915	15.38
299.129	15.74
299.342	16.55
299.555	16.78
299.769	17.27
299.982	17.16
300.195	17.9
300.409	17.93
300.622	16.99
300.835	18.52
301.048	17.58
301.262	17.33
301.475	17.15
301.688	17.82
301.901	18.31
302.115	18.57
302.328	19.18
302.541	18.16
302.754	19.41
302.967	19.73
303.18	18.1
303.393	18.07
303.607	17.37
303.82	17.79
304.033	16.33
304.246	16.15
304.459	15.93
304.672	15.3
304.885	17.06
305.098	15.72
305.311	14.79
305.524	15.48
305.737	16.1
305.95	18.25
306.163	16.99
306.376	16.24
306.589	15.99
306.802	15.53
307.015	16.59
307.228	16.08
307.44	16.06
307.653	16.07
307.866	14.59
308.079	16.52
308.292	16.26
308.505	17.26
308.718	17.83
308.93	18.01
309.143	18.96
309.356	18.52
309.569	18.82
309.781	19.73
309.994	20.51
310.207	20.74
310.42	18.11
310.632	16.78
310.845	16.9
311.058	17.05
311.27	17.61
311.483	17.44
311.696	17.11
311.908	16.47
312.121	15.84
312.333	16.11
312.546	16.51
312.759	17.29
312.971	18.07
313.184	18.22
313.396	18.31
313.609	18.8
313.821	18.27
314.034	18.62
314.246	19.8
314.459	19.92
314.671	20.12
314.884	19.32
315.096	18.46
315.309	18.76
315.521	18.91
315.733	17.72
315.946	15.45
316.158	15.2
316.371	15.83
316.583	16.02
316.795	15.3
317.008	15.79
317.22	17.06
317.432	17.68
317.644	16.95
317.857	16.12
318.069	16.93
318.281	18.38
318.494	18.62
318.706	18.76
318.918	18.11
319.13	18.97
319.342	18.21
319.555	18.41
319.767	19.52
319.979	20.35
320.191	21.38
320.403	21.85
320.615	21
320.827	22.86
321.039	22.51
321.252	21.87
321.464	21.51
321.676	21.91
321.888	20.72
322.1	20.95
322.312	19.51
322.524	17.87
322.736	18.02
322.948	18.09
323.16	16.7
323.372	16.52
323.584	16.04
323.796	16.45
324.007	15.93
324.219	16.11
324.431	15.73
324.643	15.54
324.855	16
325.067	15.31
325.279	15.48
325.491	15.01
325.702	14.09
325.914	14.52
326.126	14.4
326.338	14.83
326.55	15.31
326.761	15.53
326.973	16.38
327.185	17
327.396	17.25
327.608	17.7
327.82	18.31
328.032	19.51
328.243	19.53
328.455	20.42
328.666	19.52
328.878	19.8
329.09	18.82
329.301	18.11
329.513	17.66
329.725	17.64
329.936	17.28
330.148	17.48
330.359	16.85
330.571	16.87
330.782	15.9
330.994	17.06
331.205	16.82
331.417	17.16
331.628	18.45
331.84	18.92
332.051	18.86
332.262	19.68
332.474	19.13
332.685	19.73
332.897	19.56
333.108	20.23
333.319	18.77
333.531	18.51
333.742	18.56
333.953	17.12
334.165	16.63
334.376	16.37
334.587	15.35
334.799	15
335.01	14.6
335.221	13.98
335.432	13.76
335.644	13.43
335.855	13.51
336.066	14.95
336.277	15.61
336.488	16.29
336.7	16.23
336.911	16.77
337.122	16.58
337.333	16.8
337.544	18.68
337.755	18.92
337.966	19.61
338.177	19.93
338.388	18.91
338.599	19.48
338.811	18.88
339.022	18.63
339.233	18.63
339.444	18.83
339.655	16.81
339.866	15.59
340.076	15.44
340.287	15.18
340.498	14.89
340.709	14.43
340.92	13.42
341.131	13.87
341.342	14.46
341.553	14.38
341.764	14.68
341.975	16.32
342.185	16.12
342.396	15.4
342.607	16.03
342.818	16.17
343.029	16.56
343.239	16.71
343.45	16.97
343.661	16.44
343.872	16.24
344.082	16.07
344.293	16.49
344.504	16.41
344.714	15.35
344.925	15.23
345.136	15.15
345.346	14.11
345.557	14.43
345.768	13.83
345.978	13.91
346.189	14.28
346.399	14.3
346.61	14.15
346.821	14.52
347.031	15.84
347.242	15.4
347.452	15.76
347.663	16.45
347.873	16.6
348.084	16.8
348.294	17.61
348.504	16.78
348.715	17.05
348.925	15.99
349.136	14.81
349.346	13.93
349.557	14.4
349.767	14.43
349.977	14.63
350.188	14.86
350.398	14.88
350.608	14.15
350.819	14.14
351.029	13.54
351.239	13.84
351.449	14.81
351.66	16.16
351.87	16.51
352.08	16.25
352.29	16.41
352.501	15.4
352.711	15.17
352.921	15.52
353.131	15.93
353.341	16.46
353.552	16.96
353.762	16.78
353.972	16.05
354.182	15.7
354.392	14.93
354.602	14.16
354.812	14.45
355.022	14.24
355.232	13.58
355.442	13.62
355.652	13.66
355.862	13.15
356.072	13.66
356.282	13.29
356.492	13.21
356.702	13.07
356.912	13.33
357.122	13.51
357.332	13.45
357.542	13.65
357.752	13.53
357.962	13.17
358.171	12.91
358.381	13.11
358.591	13.05
358.801	13.04
359.011	13.68
359.221	13.74
359.43	14.21
359.64	14.75
359.85	15.09
360.06	15
360.269	15.44
360.479	15.47
360.689	14.52
360.899	14.77
361.108	14.69
361.318	14.66
361.528	14.36
361.737	13.51
361.947	12.81
362.156	12.58
362.366	12.47
362.576	12.32
362.785	12.26
362.995	12.25
363.204	12.2
363.414	11.76
363.623	11.17
363.833	11.63
364.042	11.78
364.252	12.04
364.461	12.02
364.671	11.84
364.88	11.97
365.09	12.53
365.299	13.05
365.509	12.61
365.718	12.38
365.927	13
366.137	12.6
366.346	13.34
366.555	13.2
366.765	13.3
366.974	13.79
367.183	12.99
367.393	12.24
367.602	11.79
367.811	11.74
368.021	11.41
368.23	10.7
368.439	10.51
368.648	9.9
368.857	10.51
369.067	10.33
369.276	9.98
369.485	10.63
369.694	11.36
369.903	11.7
370.112	12.07
370.321	12.58
370.531	12.56
370.74	12.88
370.949	12.78
371.158	12.09
371.367	12.2
371.576	11.87
371.785	11.24
371.994	10.78
372.203	10.82
372.412	10.96
372.621	11.01
372.83	11.2
373.039	11.07
373.248	10.95
373.457	11.35
373.666	10.71
373.874	10.95
374.083	11.77
374.292	11.62
374.501	10.86
374.71	10.32
374.919	10.3
375.128	9.93
375.336	10.01
375.545	10.41
375.754	9.93
375.963	10.35
376.171	10.07
376.38	9.69
376.589	9.99
376.798	10
377.006	10.2
377.215	10.33
377.424	10.54
377.632	10.52
377.841	10.34
378.05	10.71
378.258	10.51
378.467	10.7
378.675	10.83
378.884	10.86
379.093	11.26
379.301	11.07
379.51	10.97
379.718	10.85
379.927	11.09
380.135	10.28
380.344	9.94
380.552	9.75
380.761	9.91
380.969	9.62
381.177	8.97
381.386	8.42
381.594	8.41
381.803	8.23
382.011	8.29
382.219	7.48
382.428	7.61
382.636	7.27
382.845	7.62
383.053	7.34
383.261	7.12
383.469	7.81
383.678	8.27
383.886	8.48
384.094	8.54
384.302	8.75
384.511	9.45
384.719	9.66
384.927	10.01
385.135	9.94
385.343	10.13
385.552	10.27
385.76	9.9
385.968	9.61
386.176	9.38
386.384	9.36
386.592	8.81
386.8	8.34
387.008	8.68
387.216	8.65
387.424	8.69
387.633	8.41
387.841	8.25
388.049	8.37
388.257	8.46
388.465	8.4
388.672	8.35
388.88	8.7
389.088	8.71
389.296	8.61
389.504	8.9
389.712	8.86
389.92	8.58
390.128	8.73
390.336	8.52
390.544	9.09
390.751	8.92
390.959	9.12
391.167	9.27
391.375	9.5
391.583	9.26
391.79	8.57
391.998	8.48
392.206	8.94
392.414	8.73
392.621	8.66
392.829	8.37
393.037	8.31
393.244	8.31
393.452	8.19
393.66	7.92
393.867	8.17
394.075	8.42
394.283	8.39
394.49	8.18
394.698	8.28
394.905	8.37
395.113	8.21
395.32	8.47
395.528	8.3
395.735	8.06
395.943	8.09
396.15	7.81
396.358	7.98
396.565	7.82
396.773	8.02
396.98	7.95
397.188	7.74
397.395	7.83
397.602	7.83
397.81	7.57
398.017	7.88
398.225	7.79
398.432	8.06
398.639	7.86
398.847	7.96
399.054	7.62
399.261	7.54
399.468	7.83
399.676	7.6
399.883	7.52
400.09	7.84
400.297	7.89
400.505	7.9
400.712	7.57
400.919	7.73
401.126	7.88
401.333	8.03
401.54	8.07
401.748	8.02
401.955	8.02
402.162	8.07
402.369	7.82
402.576	7.65
402.783	7.86
402.99	8.05
403.197	7.88
403.404	7.49
403.611	7.28
403.818	7.49
404.025	7.34
404.232	7.24
404.439	7.02
404.646	6.91
404.853	6.56
405.06	6.5
405.267	6.19
405.474	6.18
405.681	6.2
405.887	6.22
406.094	6.18
406.301	6.26
406.508	6.45
406.715	6.72
406.922	6.69
407.128	6.87
407.335	6.65
407.542	6.82
407.749	7.16
407.955	7.5
408.162	7.55
408.369	7.57
408.575	7.44
408.782	7.2
408.989	7.07
409.195	7.16
409.402	7.4
409.609	7.67
409.815	7.87
410.022	7.75
410.228	7.57
410.435	7.7
410.642	7.36
410.848	7.68
411.055	7.81
411.261	7.69
411.468	7.73
411.674	7.46
411.881	7.44
412.087	7.55
412.294	7.5
412.5	7.3
412.706	7.17
412.913	7.48
413.119	7.36
413.326	7.03
413.532	7.52
413.738	7.3
413.945	7.56
414.151	7.39
414.357	7.2
414.564	7.22
414.77	7.23
414.976	7.02
415.182	7.05
415.389	6.87
415.595	7.03
415.801	6.64
416.007	6.91
416.214	6.8
416.42	6.79
416.626	6.59
416.832	6.56
417.038	6.55
417.244	6.67
417.45	6.4
417.657	6.49
417.863	6.58
418.069	6.67
418.275	6.68
418.481	6.67
418.687	6.65
418.893	6.64
419.099	6.55
419.305	6.69
419.511	6.65
419.717	6.7
419.923	6.56
420.129	6.61
420.335	6.62
420.541	6.56
420.746	6.5
420.952	6.53
421.158	6.61
421.364	6.63
421.57	6.66
421.776	6.68
421.982	6.58
422.187	6.54
422.393	6.42
422.599	6.28
422.805	6.26
423.01	6.28
423.216	6.14
423.422	6.03
423.628	6.06
423.833	5.94
424.039	5.93
424.245	6.01
424.45	6.17
424.656	6.17
424.862	6.21
425.067	6.36
425.273	6.31
425.478	6.45
425.684	6.55
425.889	6.64
426.095	6.66
426.301	6.7
426.506	6.79
426.712	6.77
426.917	6.84
427.123	6.93
427.328	6.77
427.533	6.81
427.739	6.7
427.944	6.6
428.15	6.35
428.355	6.26
428.561	6.28
428.766	6.1
428.971	6.11
429.177	6.14
429.382	6.22
429.587	6.38
429.793	6.39
429.998	6.5
430.203	6.51
430.408	6.59
430.614	6.75
430.819	6.73
431.024	6.87
431.229	6.75
431.434	6.8
431.64	6.6
431.845	6.56
432.05	6.57
432.255	6.56
432.46	6.46
432.665	6.51
432.87	6.5
433.076	6.41
433.281	6.45
433.486	6.36
433.691	6.07
433.896	5.95
434.101	5.94
434.306	6
434.511	6.04
434.716	6.19
434.921	6.26
435.126	6.18
435.331	6.15
435.535	6.08
435.74	6.26
435.945	6.53
436.15	6.67
436.355	6.64
436.56	6.66
436.765	6.68
436.97	6.58
437.174	6.4
437.379	6.45
437.584	6.58
437.789	6.51
437.993	6.47
438.198	6.41
438.403	6.52
438.608	6.52
438.812	6.35
439.017	6.31
439.222	6.23
439.426	6.25
439.631	6.36
439.836	6.25
440.04	6.31
440.245	6.32
440.45	6.36
440.654	6.25
440.859	6.14
441.063	6.21
441.268	6.11
441.472	6.14
441.677	6.09
441.881	5.86
442.086	5.86
442.29	5.77
442.495	5.83
442.699	5.8
442.904	5.84
443.108	5.87
443.312	5.89
443.517	5.99
443.721	6.07
443.925	6.1
444.13	6.21
444.334	6.17
444.538	6.21
444.743	6.07
444.947	6.16
445.151	6
445.356	6.02
445.56	5.86
445.764	5.78
445.968	5.76
446.173	5.76
446.377	5.77
446.581	5.86
446.785	5.91
446.989	5.9
447.193	5.79
447.398	5.89
447.602	5.85
447.806	6.06
448.01	6.33
448.214	6.42
448.418	6.44
448.622	6.52
448.826	6.52
449.03	6.58
449.234	6.65
449.438	6.58
449.642	6.6
449.846	6.76
450.05	6.67
450.254	6.27
450.458	6.37
450.662	6.44
450.866	6.35
451.069	6.1
451.273	5.99
451.477	5.87
451.681	5.94
451.885	5.85
452.089	5.75
452.292	5.73
452.496	5.9
452.7	5.7
452.904	5.64
453.107	5.62
453.311	5.98
453.515	6.09
453.719	6.1
453.922	6.08
454.126	6.16
454.33	6.09
454.533	6
454.737	5.82
454.94	5.76
455.144	5.67
455.348	5.58
455.551	5.4
455.755	5.18
455.958	5.25
456.162	5.22
456.365	5.24
456.569	5.22
456.772	5.31
456.976	5.47
457.179	5.48
457.383	5.46
457.586	5.68
457.79	5.76
457.993	5.76
458.196	5.64
458.4	5.75
458.603	5.75
458.807	5.76
459.01	5.81
459.213	5.73
459.417	5.68
459.62	5.85
459.823	5.73
460.026	5.7
460.23	5.77
460.433	5.85
460.636	5.81
460.839	5.8
461.042	5.86
461.246	5.87
461.449	5.8
461.652	5.96
461.855	5.72
462.058	5.66
462.261	5.54
462.464	5.46
462.668	5.55
462.871	5.55
463.074	5.51
463.277	5.19
463.48	5.2
463.683	5.43
463.886	5.37
464.089	5.49
464.292	5.66
464.495	5.87
464.698	5.86
464.901	5.84
465.104	5.82
465.306	5.93
465.509	6.18
465.712	6.14
465.915	6.15
466.118	6.03
466.321	5.89
466.524	5.88
466.726	5.91
466.929	6.09
467.132	5.94
467.335	5.91
467.538	5.76
467.74	5.82
467.943	5.86
468.146	5.8
468.348	5.94
468.551	6.11
468.754	6.09
468.956	6
469.159	5.97
469.362	6.14
469.564	6.08
469.767	6.15
469.969	6.17
470.172	5.97
470.375	5.9
470.577	5.83
470.78	5.84
470.982	5.83
471.185	5.96
471.387	5.96
471.59	5.84
471.792	6.06
471.995	6.07
472.197	6.08
472.399	6.1
472.602	6.08
472.804	6.07
473.007	6.02
473.209	5.97
473.411	5.79
473.614	5.83
473.816	5.82
474.018	5.62
474.22	5.63
474.423	5.59
474.625	5.56
474.827	5.76
475.03	5.88
475.232	5.88
475.434	5.99
475.636	6.04
475.838	5.87
476.04	5.93
476.243	6
476.445	6.07
476.647	5.98
476.849	6.02
477.051	5.84
477.253	5.77
477.455	5.78
477.657	5.69
477.859	5.65
478.061	5.6
478.263	5.52
478.465	5.58
478.667	5.42
478.869	5.38
479.071	5.37
479.273	5.38
479.475	5.21
479.677	5.22
479.879	5.13
480.081	5.19
480.283	5.12
480.485	5.06
480.686	4.93
480.888	4.97
481.09	4.97
481.292	4.93
481.494	4.92
481.695	5.08
481.897	4.96
482.099	4.98
482.301	4.97
482.502	5.05
482.704	5.12
482.906	5.12
483.107	5.15
483.309	5.18
483.511	5.21
483.712	5.22
483.914	5.17
484.115	5.21
484.317	5.23
484.519	5.23
484.72	5.25
484.922	5.22
485.123	5.28
485.325	5.26
485.526	5.26
485.728	5.24
485.929	5.23
486.131	5.26
486.332	5.29
486.534	5.25
486.735	5.26
486.936	5.21
487.138	5.2
487.339	5.13
487.541	5.14
487.742	5.15
487.943	5.15
488.144	5.13
488.346	5.06
488.547	5.03
488.748	5.12
488.95	5.03
489.151	5.05
489.352	5.11
489.553	5.1
489.755	5.13
489.956	5.11
490.157	5.16
490.358	5.22
490.559	5.33
490.76	5.29
490.961	5.2
491.163	5.32
491.364	5.4
491.565	5.3
491.766	5.35
491.967	5.39
492.168	5.4
492.369	5.4
492.57	5.37
492.771	5.39
492.972	5.44
493.173	5.49
493.374	5.47
493.575	5.38
493.776	5.52
493.976	5.55
494.177	5.56
494.378	5.51
494.579	5.47
494.78	5.62
494.981	5.56
495.182	5.54
495.382	5.49
495.583	5.37
495.784	5.45
495.985	5.5
496.185	5.48
496.386	5.34
496.587	5.56
496.788	5.58
496.988	5.53
497.189	5.56
497.39	5.61
497.59	5.77
497.791	5.81
497.992	5.67
498.192	5.66
498.393	5.7
498.593	5.78
498.794	5.63
498.994	5.81
499.195	5.78
499.395	5.81
499.596	5.92
499.796	5.83
499.997	5.89
500.197	6.11
500.398	6.07
500.598	6.18
500.799	6.17
500.999	6.22
501.199	5.92
501.4	6.03
501.6	6.08
501.801	6.08
502.001	6.09
502.201	6.21
502.402	6.2
502.602	6.08
502.802	6.01
503.002	6.12
503.203	6.22
503.403	6.4
503.603	6.32
503.803	6.24
504.003	6.26
504.204	6.4
504.404	6.37
504.604	6.31
504.804	6.53
505.004	6.44
505.204	6.38
505.404	6.39
505.604	6.55
505.804	6.53
506.005	6.53
506.205	6.38
506.405	6.36
506.605	6.34
506.805	6.45
507.005	6.3
507.204	6.38
507.404	6.42
507.604	6.33
507.804	6.19
508.004	6.26
508.204	6.23
508.404	6.28
508.604	6.16
508.804	6.15
509.003	6.14
509.203	6.21
509.403	6.15
509.603	6.15
509.803	6.28
510.002	6.3
510.202	6.21
510.402	6.22
510.602	6.28
510.801	6.36
511.001	6.46
511.201	6.36
511.4	6.27
511.6	6.28
511.8	6.21
511.999	6.23
512.199	6.14
512.398	6.2
512.598	6.31
512.797	6.42
512.997	6.44
513.197	6.44
513.396	6.46
513.596	6.64
513.795	6.78
513.994	6.8
514.194	6.58
514.393	6.56
514.593	6.67
514.792	6.62
514.992	6.37
515.191	6.32
515.39	6.19
515.59	6.27
515.789	6.23
515.988	6.23
516.188	6.31
516.387	6.42
516.586	6.47
516.786	6.55
516.985	6.66
517.184	6.79
517.383	6.85
517.582	6.99
517.782	6.97
517.981	6.87
518.18	6.77
518.379	6.79
518.578	6.8
518.777	6.85
518.976	6.68
519.176	6.75
519.375	6.76
519.574	6.79
519.773	6.73
519.972	6.71
520.171	6.77
520.37	6.87
520.569	7
520.768	7.05
520.967	7.13
521.166	7.24
521.365	7.07
521.564	7.13
521.762	7.19
521.961	7.23
522.16	7.24
522.359	7.21
522.558	7.16
522.757	7.05
522.956	7.08
523.154	6.97
523.353	6.99
523.552	7.05
523.751	7.07
523.949	6.99
524.148	7.04
524.347	7.18
524.546	7.21
524.744	7.15
524.943	7.16
525.142	7.07
525.34	7.21
525.539	7.18
525.737	7.2
525.936	7.11
526.135	7.02
526.333	6.87
526.532	6.78
526.73	6.88
526.929	6.96
527.127	6.94
527.326	7
527.524	6.94
527.723	6.96
527.921	7.01
528.12	7.06
528.318	7.15
528.516	7.24
528.715	7.26
528.913	7.21
529.112	7.26
529.31	7.28
529.508	7.3
529.707	7.33
529.905	7.37
530.103	7.37
530.301	7.37
530.5	7.39
530.698	7.4
530.896	7.45
531.094	7.53
531.293	7.55
531.491	7.68
531.689	7.75
531.887	7.8
532.085	7.83
532.283	7.88
532.481	7.9
532.68	7.89
532.878	7.86
533.076	7.84
533.274	7.83
533.472	7.9
533.67	7.8
533.868	7.78
534.066	7.76
534.264	7.65
534.462	7.61
534.66	7.65
534.858	7.69
535.056	7.75
535.253	7.73
535.451	7.83
535.649	7.75
535.847	7.95
536.045	7.98
536.243	8.16
536.441	8.37
536.638	8.53
536.836	8.6
537.034	8.66
537.232	8.77
537.43	8.97
537.627	9
537.825	9.1
538.023	8.99
538.22	9.16
538.418	9.12
538.616	9.21
538.813	9.27
539.011	9.39
539.209	9.53
539.406	9.53
539.604	9.64
539.801	9.76
539.999	9.78
540.196	9.91
540.394	9.98
540.591	10.02
540.789	10
540.986	9.93
541.184	9.96
541.381	9.97
541.579	10.01
541.776	9.98
541.974	9.88
542.171	9.93
542.368	9.92
542.566	9.89
542.763	9.91
542.96	9.98
543.158	10.14
543.355	10.23
543.552	10.29
543.75	10.43
543.947	10.33
544.144	10.42
544.341	10.53
544.539	10.63
544.736	10.68
544.933	10.72
545.13	10.68
545.327	10.6
545.524	10.53
545.722	10.59
545.919	10.59
546.116	10.86
546.313	10.96
546.51	10.98
546.707	11.06
546.904	11.23
547.101	11.45
547.298	11.71
547.495	11.8
547.692	11.89
547.889	11.79
548.086	11.98
548.283	12.06
548.48	12.25
548.677	12.22
548.874	12.25
549.07	12.3
549.267	12.28
549.464	12.16
549.661	12.24
549.858	12.36
550.055	12.8
550.251	12.8
550.448	12.68
550.645	12.69
550.842	12.97
551.038	12.97
551.235	12.77
551.432	12.8
551.628	12.98
551.825	13.14
552.022	13.22
552.218	13.03
552.415	13.06
552.612	13.15
552.808	13.25
553.005	13.3
553.201	13.44
553.398	13.69
553.594	13.87
553.791	13.93
553.987	14.05
554.184	14.29
554.38	14.45
554.577	14.53
554.773	14.64
554.97	14.67
555.166	14.77
555.362	14.94
555.559	15.08
555.755	14.93
555.952	15.01
556.148	15.06
556.344	14.96
556.541	15.07
556.737	15.14
556.933	15.35
557.129	15.47
557.326	15.47
557.522	15.47
557.718	15.58
557.914	15.82
558.11	15.79
558.307	15.86
558.503	15.97
558.699	15.98
558.895	16.14
559.091	16.32
559.287	16.29
559.483	16.22
559.679	16.46
559.876	16.44
560.072	16.57
560.268	16.65
560.464	16.63
560.66	16.53
560.856	16.74
561.052	16.74
561.247	16.86
561.443	16.81
561.639	17.24
561.835	17.37
562.031	17.49
562.227	17.43
562.423	17.55
562.619	17.76
562.815	18.05
563.01	18.22
563.206	18.46
563.402	18.32
563.598	18.41
563.793	18.25
563.989	18.2
564.185	18.06
564.381	18.37
564.576	18.47
564.772	18.48
564.968	18.57
565.163	18.4
565.359	18.07
565.555	18.28
565.75	18.49
565.946	18.53
566.141	18.44
566.337	18.62
566.532	18.69
566.728	18.76
566.923	18.7
567.119	18.61
567.314	18.63
567.51	19.03
567.705	18.93
567.901	18.98
568.096	19.2
568.292	19.38
568.487	19.52
568.682	19.48
568.878	19.45
569.073	19.66
569.268	19.85
569.464	20.05
569.659	19.98
569.854	20.28
570.05	20.4
570.245	20.49
570.44	20.58
570.635	20.57
570.831	20.59
571.026	20.83
571.221	20.93
571.416	20.92
571.611	21.05
571.806	21.15
572.002	21.24
572.197	21.23
572.392	21
572.587	21.25
572.782	21.38
572.977	21.51
573.172	21.7
573.367	21.66
573.562	21.73
573.757	21.63
573.952	21.63
574.147	21.69
574.342	21.93
574.537	22.28
574.732	22.22
574.927	22.29
575.121	22.35
575.316	22.19
575.511	22.25
575.706	22.36
575.901	22.49
576.096	22.72
576.29	22.74
576.485	22.75
576.68	22.84
576.875	22.86
577.069	22.99
577.264	22.98
577.459	23.14
577.654	23.21
577.848	23.24
578.043	23.41
578.238	23.41
578.432	23.25
578.627	23.27
578.821	23.32
579.016	23.4
579.21	23.44
579.405	23.43
579.6	23.49
579.794	23.63
579.989	23.67
580.183	23.68
580.378	23.58
580.572	23.89
580.766	23.81
580.961	23.59
581.155	23.68
581.35	23.58
581.544	23.82
581.738	23.8
581.933	24
582.127	24.13
582.321	24.15
582.516	24.29
582.71	24.4
582.904	24.67
583.099	24.88
583.293	24.63
583.487	24.91
583.681	25.07
583.875	24.96
584.07	24.97
584.264	24.9
584.458	24.7
584.652	24.66
584.846	24.48
585.04	24.32
585.234	24.16
585.428	24.39
585.623	24.14
585.817	23.89
586.011	24.15
586.205	24.29
586.399	24.38
586.593	24.5
586.787	24.65
586.981	24.88
587.174	25.05
587.368	25.11
587.562	25.29
587.756	25.47
587.95	25.67
588.144	25.49
588.338	25.41
588.532	25.55
588.725	25.85
588.919	25.82
589.113	25.67
589.307	25.73
589.501	25.77
589.694	25.86
589.888	25.96
590.082	26.06
590.275	26.31
590.469	26.45
590.663	26.32
590.856	26.36
591.05	26.3
591.244	26.36
591.437	26.32
591.631	26.3
591.824	26.18
592.018	25.95
592.212	25.97
592.405	25.77
592.599	25.75
592.792	25.83
592.986	25.94
593.179	26.17
593.372	26.27
593.566	26.34
593.759	26.38
593.953	26.46
594.146	26.63
594.339	26.56
594.533	26.94
594.726	26.88
594.92	26.88
595.113	26.77
595.306	26.7
595.499	26.53
595.693	26.55
595.886	26.6
596.079	26.59
596.272	26.63
596.466	26.76
596.659	26.57
596.852	26.62
597.045	26.69
597.238	26.53
597.431	26.61
597.624	26.62
597.818	26.66
598.011	26.76
598.204	26.72
598.397	26.8
598.59	26.61
598.783	26.59
598.976	26.49
599.169	26.6
599.362	26.85
599.555	26.79
599.748	27.25
599.941	27.15
600.134	27.24
600.326	27.45
600.519	27.34
600.712	27.55
600.905	27.5
601.098	27.58
601.291	27.68
601.483	27.58
601.676	27.83
601.869	27.58
602.062	27.86
602.255	27.72
602.447	27.76
602.64	27.91
602.833	28.01
603.025	27.98
603.218	28.09
603.411	27.92
603.603	27.84
603.796	27.57
603.989	27.56
604.181	27.41
604.374	27.59
604.566	27.36
604.759	27.22
604.951	27.17
605.144	27.28
605.336	27.34
605.529	27.25
605.721	27.35
605.914	27.52
606.106	27.51
606.299	27.59
606.491	27.71
606.683	27.94
606.876	28.07
607.068	28.16
607.26	28.47
607.453	28.52
607.645	28.75
607.837	28.68
608.03	28.73
608.222	28.75
608.414	28.79
608.606	28.66
608.799	28.76
608.991	28.79
609.183	28.74
609.375	28.46
609.567	28.23
609.759	28.29
609.952	28.35
610.144	28.3
610.336	28.28
610.528	28.2
610.72	28.12
610.912	28.23
611.104	28.24
611.296	28.31
611.488	28.4
611.68	28.41
611.872	28.21
612.064	28.55
612.256	28.54
612.448	28.62
612.64	28.7
612.832	28.82
613.023	28.67
613.215	28.64
613.407	28.47
613.599	28.62
613.791	28.88
613.983	28.91
614.174	28.53
614.366	28.33
614.558	28.41
614.75	28.01
614.941	27.87
615.133	28.17
615.325	28.35
615.516	28.33
615.708	28.11
615.9	27.74
616.091	27.78
616.283	27.68
616.475	27.81
616.666	27.77
616.858	28.44
617.049	28.37
617.241	28
617.432	27.86
617.624	28.15
617.815	28.31
618.007	28.55
618.198	28.93
618.39	28.97
618.581	29.14
618.773	29.28
618.964	28.99
619.155	28.97
619.347	28.99
619.538	29.01
619.729	28.91
619.921	28.79
620.112	28.77
620.303	28.6
620.494	28.79
620.686	28.72
620.877	28.69
621.068	28.61
621.259	29.02
621.451	29.11
621.642	29.05
621.833	29.12
622.024	29.26
622.215	29.43
622.406	29.31
622.597	29.38
622.788	29.5
622.98	29.51
623.171	29.88
623.362	29.76
623.553	29.71
623.744	29.55
623.935	29.48
624.126	29.25
624.317	29.13
624.508	29.21
624.698	29.08
624.889	29.02
625.08	29.19
625.271	29.3
625.462	29.17
625.653	29.11
625.844	29.42
626.034	29.1
626.225	29.24
626.416	29.18
626.607	28.97
626.798	29.12
626.988	29.02
627.179	28.75
627.37	28.41
627.56	28.51
627.751	28.49
627.942	28.54
628.132	28.66
628.323	28.88
628.514	29.05
628.704	29.18
628.895	29.16
629.085	29.37
629.276	29.58
629.466	29.71
629.657	29.7
629.847	29.8
630.038	29.69
630.228	29.76
630.419	29.76
630.609	29.66
630.8	29.72
630.99	29.61
631.181	29.63
631.371	29.51
631.561	29.82
631.752	29.98
631.942	29.67
632.132	29.87
632.323	30.01
632.513	29.88
632.703	29.9
632.893	29.96
633.084	30.05
633.274	29.86
633.464	29.57
633.654	29.4
633.844	29.07
634.034	29.19
634.225	28.9
634.415	28.81
634.605	28.75
634.795	28.72
634.985	28.82
635.175	28.59
635.365	28.85
635.555	29.29
635.745	29.17
635.935	29.39
636.125	29.68
636.315	29.96
636.505	30
636.695	29.99
636.885	29.94
637.075	29.73
637.265	30.07
637.455	29.81
637.644	29.79
637.834	29.95
638.024	29.89
638.214	29.74
638.404	29.61
638.593	29.88
638.783	30.02
638.973	30.23
639.163	30.12
639.352	30.01
639.542	30.32
639.732	30.53
639.921	30.33
640.111	30.54
640.301	30.62
640.49	30.53
640.68	30.33
640.87	30.34
641.059	30.31
641.249	30.7
641.438	30.73
641.628	30.37
641.817	30.13
642.007	30.27
642.196	30.02
642.386	30.14
642.575	30.51
642.764	30.49
642.954	30.18
643.143	29.95
643.333	30.19
643.522	30.16
643.711	30.34
643.901	30.49
644.09	30.51
644.279	30.6
644.469	30.44
644.658	30.26
644.847	30.54
645.036	30.7
645.226	30.89
645.415	30.57
645.604	30.52
645.793	30.74
645.982	30.4
646.171	30.64
646.361	30.91
646.55	31.26
646.739	30.93
646.928	30.67
647.117	31.15
647.306	31.12
647.495	30.88
647.684	31.04
647.873	30.87
648.062	31.26
648.251	30.88
648.44	30.69
648.629	30.53
648.818	30.95
649.007	31.13
649.196	30.95
649.384	31.14
649.573	31.06
649.762	30.67
649.951	30.68
650.14	30.71
650.328	30.91
650.517	31.09
650.706	31.15
650.895	31.09
651.083	31.02
651.272	30.97
651.461	31.09
651.65	31.66
651.838	31.73
652.027	31.64
652.216	31.36
652.404	31.65
652.593	31.59
652.781	31.3
652.97	31.46
653.158	31.71
653.347	31.82
653.535	31.7
653.724	31.17
653.912	31.78
654.101	31.85
654.289	32.06
654.478	32.07
654.666	32.01
654.855	32.43
655.043	32.02
655.231	31.45
655.42	31.21
655.608	31.27
655.796	31.32
655.985	31.01
656.173	31.09
656.361	31.01
656.55	30.4
656.738	30.54
656.926	30.61
657.114	30.99
657.302	31.4
657.491	31.02
657.679	30.75
657.867	30.86
658.055	30.77
658.243	30.85
658.431	31.09
658.619	31.42
658.807	31.65
658.996	31.72
659.184	31.6
659.372	31.6
659.56	31.96
659.748	31.68
659.936	31.96
660.124	32.12
660.311	32.27
660.499	32.05
660.687	32.17
660.875	31.96
661.063	31.98
661.251	31.9
661.439	31.71
661.627	32.15
661.814	32.51
662.002	32.16
662.19	32.34
662.378	31.9
662.565	32.12
662.753	31.92
662.941	31.88
663.129	31.54
663.316	31.86
663.504	32
663.692	31.72
663.879	32.01
664.067	32.42
664.254	32.25
664.442	32.18
664.63	31.97
664.817	31.9
665.005	31.96
665.192	32.02
665.38	31.72
665.567	31.85
665.755	31.85
665.942	31.89
666.13	31.62
666.317	31.71
666.504	32.19
666.692	32.27
666.879	32.59
667.067	32.57
667.254	32.39
667.441	32.53
667.629	32.44
667.816	32.12
668.003	31.89
668.19	32.36
668.378	32.39
668.565	31.94
668.752	31.9
668.939	31.58
669.127	31.56
669.314	31.78
669.501	31.76
669.688	31.84
669.875	32.15
670.062	32.48
670.249	32.47
670.436	32.11
670.623	32.22
670.81	32.11
670.997	32.24
671.184	31.99
671.371	32.16
671.558	32.24
671.745	32.36
671.932	31.89
672.119	31.39
672.306	30.67
672.493	30.93
672.68	31.01
672.867	31.89
673.054	31.77
673.24	32.21
673.427	32.01
673.614	32.08
673.801	32.12
673.988	32.34
674.174	32.44
674.361	32.9
674.548	32.66
674.734	32.73
674.921	31.9
675.108	32.12
675.294	31.45
675.481	31.69
675.668	32.05
675.854	31.72
676.041	31.75
676.227	31.89
676.414	32.25
676.601	33.22
676.787	33.2
676.974	33.53
677.16	33.15
677.347	33.6
677.533	33.05
677.719	32.61
677.906	32.53
678.092	32.6
678.279	32.24
678.465	31.58
678.651	30.89
678.838	31.17
679.024	31.06
679.21	31.42
679.397	31.85
679.583	31.9
679.769	32.14
679.955	32.19
680.142	32.19
680.328	33.04
680.514	33.31
680.7	32.95
680.886	32.85
681.073	32.93
681.259	32.55
681.445	32.32
681.631	32.22
681.817	32.12
682.003	32.07
682.189	32.01
682.375	31.48
682.561	31.64
682.747	32.38
682.933	32.26
683.119	32.08
683.305	32.16
683.491	31.89
683.677	32.07
683.863	32.03
684.049	32.3
684.235	32
684.42	32.5
684.606	32.12
684.792	31.94
684.978	31.95
685.164	32.32
685.349	32.7
685.535	33.15
685.721	32.88
685.907	32.65
686.092	32.54
686.278	32.84
686.464	32.26
686.649	32.65
686.835	32.62
687.021	33.28
687.206	32.99
687.392	32.81
687.577	32.55
687.763	32.52
687.948	32.33
688.134	32.12
688.319	32.21
688.505	32.67
688.69	32.29
688.876	32.2
689.061	31.7
689.247	31.8
689.432	31.83
689.618	31.74
689.803	32.21
689.988	32.49
690.174	33.16
690.359	33.19
690.544	32.77
690.73	32.92
690.915	33.02
691.1	33.04
691.285	32.9
691.471	33.16
691.656	33.26
691.841	33.03
692.026	33.29
692.211	33.18
692.396	32.99
692.582	33.09
692.767	33.35
692.952	33.24
693.137	33.27
693.322	33.64
693.507	33.88
693.692	34.25
693.877	34.54
694.062	34.55
694.247	34.48
694.432	35.2
694.617	35.41
694.802	35.47
694.987	35.39
695.172	35.55
695.357	35.35
695.541	35.16
695.726	34.86
695.911	35.36
696.096	34.84
696.281	34.66
696.466	34.15
696.65	34.29
696.835	34.57
697.02	34.57
697.204	34.4
697.389	34.55
697.574	34.2
697.759	34.54
697.943	33.85
698.128	34.42
698.312	34.31
698.497	33.86
698.682	33.33
698.866	32.87
699.051	33.16
699.235	33.13
699.42	33.13
699.604	32.99
699.789	32.6
699.973	32.68
700.158	32.3
700.342	32.42
700.527	33.1
700.711	33.72
700.895	33.69
701.08	33.59
701.264	33.94
701.448	34.06
701.633	34.33
701.817	33.9
702.001	34.24
702.186	34.16
702.37	34.36
702.554	33.96
702.738	33.79
702.923	33.92
703.107	33.92
703.291	34.05
703.475	33.65
703.659	33.97
703.843	34.37
704.027	34.38
704.212	34.1
704.396	33.54
704.58	33.59
704.764	33.79
704.948	33.48
705.132	33.47
705.316	33
705.5	33.71
705.684	33.06
705.868	33.25
706.052	32.8
706.235	33.36
706.419	33.85
706.603	33.98
706.787	33.69
706.971	34.66
707.155	33.63
707.339	33.43
707.522	33.14
707.706	33.93
707.89	34.18
708.074	34.73
708.257	34.3
708.441	34.77
708.625	35
708.808	35.01
708.992	34.67
709.176	35.43
709.359	35.93
709.543	35.43
709.727	35.25
709.91	35.12
710.094	34.65
710.277	35.45
710.461	34.61
710.644	34.47
710.828	33.81
711.011	33.43
711.195	33.33
711.378	33.02
711.562	33.17
711.745	32.97
711.928	32.97
712.112	32.86
712.295	32.68
712.478	33.06
712.662	33.55
712.845	34
713.028	33.92
713.212	33.96
713.395	33.76
713.578	34.13
713.761	34.01
713.945	34.23
714.128	34.55
714.311	34.69
714.494	34.76
714.677	34.28
714.86	34.36
715.043	34.73
715.227	35.02
715.41	35.24
715.593	35.01
715.776	35.08
715.959	34.83
716.142	34.96
716.325	34.39
716.508	34.26
716.691	34.42
716.874	34.34
717.057	34.34
717.239	34.02
717.422	34.29
717.605	34.39
717.788	34.45
717.971	34.89
718.154	34.89
718.337	35.28
718.519	35.37
718.702	35.61
718.885	35.16
719.068	35.18
719.25	35.52
719.433	35.27
719.616	34.96
719.798	34.34
719.981	34.87
720.164	34.89
720.346	34.84
720.529	34.74
720.712	35.29
720.894	36.14
721.077	35.41
721.259	35.78
721.442	36.37
721.624	36.78
721.807	38.02
721.989	37.05
722.172	36.78
722.354	36.73
722.537	36.45
722.719	34.56
722.901	35.68
723.084	36.97
723.266	36.56
723.448	36.69
723.631	36.44
723.813	36.01
723.995	36.15
724.178	36.52
724.36	36.69
724.542	36.9
724.724	37.55
724.907	36.71
725.089	35.51
725.271	35.85
725.453	34.49
725.635	34.39
725.817	35.02
725.999	35.09
726.181	35.46
726.364	34.91
726.546	35.24
726.728	35.24
726.91	34.69
727.092	35.76
727.274	35.51
727.456	36.67
727.638	37.52
727.819	36.87
728.001	36.38
728.183	36.33
728.365	36.4
728.547	36.49
728.729	36.76
728.911	37.23
729.093	36.61
729.274	36.48
729.456	35.55
729.638	34.87
729.82	35.18
730.001	35.14
730.183	35
730.365	35.41
730.546	35.24
730.728	34.87
730.91	34.8
731.091	35.18
731.273	34.75
731.455	34.62
731.636	34.63
731.818	34.87
731.999	35.17
732.181	35.31
732.362	34.96
732.544	34.91
732.725	35.22
732.907	35.06
733.088	34.71
733.27	36.1
733.451	36.36
733.633	36.64
733.814	36.2
733.995	37.03
734.177	36.8
734.358	36.82
734.539	37.2
734.721	36.89
734.902	37.08
735.083	37.19
735.264	36.6
735.446	36.88
735.627	36.48
735.808	35.94
735.989	35.17
736.17	34.99
736.351	34.52
736.533	34.24
736.714	34.15
736.895	34.08
737.076	34.39
737.257	33.84
737.438	32.9
737.619	33.1
737.8	34.2
737.981	33.64
738.162	34.77
738.343	35.38
738.524	34.55
738.705	35.68
738.886	35.32
739.067	34.58
739.247	34.72
739.428	35.37
739.609	35.35
739.79	35.6
739.971	35.48
740.151	34.8
740.332	35.13
740.513	35.22
740.694	35.53
740.874	35.23
741.055	36.04
741.236	36.4
741.417	37.1
741.597	36.63
741.778	35.75
741.958	36.39
742.139	36.07
742.32	36.14
742.5	37.33
742.681	36.53
742.861	36.38
743.042	36.41
743.222	36.52
743.403	35.72
743.583	36.93
743.764	36.39
743.944	36.3
744.124	37.1
744.305	37
744.485	36.7
744.666	35.92
744.846	37.42
745.026	38.43
745.207	38.54
745.387	38.77
745.567	39.5
745.747	40.38
745.928	40.23
746.108	39.71
746.288	39.44
746.468	38.84
746.648	39.81
746.829	39.07
747.009	38.72
747.189	38.94
747.369	39.41
747.549	37.6
747.729	37.67
747.909	37.52
748.089	37.87
748.269	37.74
748.449	38.73
748.629	37.59
748.809	37.64
748.989	37.18
749.169	36.94
749.349	36.54
749.529	37.58
749.709	37.16
749.889	37.91
750.068	37.34
750.248	38.28
750.428	37.85
750.608	38.9
750.788	38.17
750.967	36.84
751.147	35.82
751.327	35.99
751.507	34.62
751.686	34.63
751.866	35.07
752.046	35.34
752.225	34.64
752.405	35.06
752.585	34.87
752.764	34.63
752.944	35.35
753.123	35.5
753.303	35.47
753.482	36.92
753.662	37.11
753.841	36.52
754.021	37.14
754.2	37.83
754.38	37.34
754.559	37.02
754.739	37.1
754.918	37.93
755.097	38.78
755.277	38.57
755.456	38.06
755.635	37.58
755.815	37.54
755.994	36.3
756.173	34.75
756.352	33.55
756.532	33.62
756.711	33.87
756.89	32.59
757.069	33.55
757.248	33.48
757.427	32.56
757.607	33.75
757.786	34.41
757.965	34.44
758.144	35.32
758.323	37.35
758.502	37.6
758.681	38.02
758.86	38.59
759.039	37.28
759.218	38
759.397	38.95
759.576	38.03
759.755	37.34
759.934	37.44
760.113	37.07
760.291	36.28
760.47	36.02
760.649	35.3
760.828	35.98
761.007	35.64
761.186	35.28
761.364	35.26
761.543	35.35
761.722	35.83
761.901	35.41
762.079	35.96
762.258	35.29
762.437	36.09
762.615	36.35
762.794	36.18
762.972	36.06
763.151	35.71
763.33	35.9
763.508	35.58
763.687	35.14
763.865	35.64
764.044	35.08
764.222	35.42
764.401	35
764.579	34.94
764.758	34.43
764.936	35.09
765.114	35.04
765.293	34.67
765.471	35.77
765.65	36.32
765.828	36.67
766.006	37.54
766.184	37.16
766.363	37.38
766.541	37.3
766.719	38.23
766.898	38.26
767.076	38.56
767.254	38.92
767.432	38.46
767.61	37.33
767.788	37.86
767.967	37.61
768.145	37.88
768.323	37.51
768.501	38.55
768.679	38.35
768.857	37.11
769.035	37.32
769.213	36.69
769.391	37.12
769.569	38.82
769.747	38.5
769.925	39.15
770.103	38.77
770.281	38.38
770.459	40.22
770.636	39.93
770.814	41.79
770.992	42.04
771.17	41.9
771.348	41.43
771.525	41.02
771.703	39.43
771.881	38.93
772.059	40.32
772.236	41.19
772.414	39.91
772.592	39.2
772.769	37.22
772.947	36.92
773.125	37.5
773.302	38.63
773.48	39.09
773.657	39.94
773.835	38.5
774.013	38.9
774.19	40.12
774.368	38.05
774.545	38.07
774.723	39.39
774.9	39.2
775.077	39.73
775.255	38.6
775.432	37.9
775.61	38.2
775.787	37.66
775.964	37.71
776.142	36.95
776.319	38.38
776.496	39.65
776.674	39.59
776.851	40.86
777.028	39.43
777.205	40.72
777.382	41.33
777.56	40.94
777.737	45.94
777.914	44.64
778.091	44.94
778.268	43.61
778.445	42.91
778.622	42.05
778.8	41.33
778.977	42.69
779.154	46.52
779.331	44.87
779.508	45.8
779.685	42.69
779.862	42.89
780.038	41.62
780.215	43.62
780.392	42.17
780.569	44.04
780.746	43.88
780.923	44.26
781.1	39.45
781.277	39.94
781.453	39.07
781.63	39.3
781.807	40.65
781.984	41.54
782.16	41.78
782.337	43.23
782.514	40.75
782.691	41.93
782.867	41.4
783.044	40.73
783.221	42.33
783.397	43.24
783.574	42.23
783.75	43.25
783.927	42.57
784.103	41.41
784.28	42.4
784.456	43.07
784.633	42.96
784.809	42.29
784.986	43.68
785.162	41.31
785.339	40.09
785.515	40.1
785.692	36.76
785.868	35.46
786.044	36.58
786.221	35.18
786.397	36.51
786.573	36.75
786.749	36.83
786.926	37.39
787.102	38.17
787.278	39.13
787.454	41.24
787.631	43.06
787.807	43.51
787.983	42.67
788.159	43.45
788.335	44.17
788.511	42.29
788.687	42.76
788.863	40.2
789.039	40.08
789.216	40.62
789.392	39.3
789.568	38.64
789.744	40.77
789.919	41.03
790.095	40.3
790.271	40
790.447	40.91
790.623	40.8
790.799	40.97
790.975	40.68
791.151	40.65
791.327	40.7
791.502	40.82
791.678	38.96
791.854	37.71
792.03	38.28
792.205	38.96
792.381	38.65
792.557	39.89
792.733	41
792.908	41.45
793.084	40.74
793.259	41.49
793.435	40.8
793.611	41.26
793.786	41.59
793.962	40.99
794.137	40.03
794.313	39.99
794.488	37.19
794.664	37.96
794.839	37.33
795.015	37.95
795.19	36.81
795.366	37.73
795.541	37.66
795.716	38.8
795.892	39.83
796.067	37.86
796.242	36.92
796.418	39.35
796.593	37.9
796.768	39.14
796.944	37.12
797.119	35.25
797.294	35.34
797.469	35.88
797.644	36.84
797.82	36.89
797.995	37.13
798.17	37.91
798.345	38.14
798.52	37.82
798.695	37.97
798.87	38.92
799.045	41.88
799.22	42.47
799.395	43.19
799.57	41.17
799.745	40.43
799.92	41.89
800.095	44.83
800.27	45.93
800.445	47.39
800.62	46.79
800.795	47.9
800.97	48.51
801.145	47.63
801.319	46.49
801.494	47.63
801.669	48.55
801.844	47.71
802.018	45.63
802.193	42.85
802.368	41.37
802.543	40.64
802.717	41.14
802.892	40.46
803.067	40.14
803.241	38.66
803.416	38.52
803.59	36.63
803.765	37.38
803.94	37.72
804.114	38.28
804.289	40.66
804.463	40.9
804.638	38.97
804.812	40.36
804.986	39.31
805.161	40.88
805.335	40.17
805.51	41.32
805.684	42.48
805.858	40.66
806.033	38.28
806.207	33.99
806.381	35.12
806.556	35.58
806.73	33.69
806.904	35.95
807.078	35.82
807.253	36.93
807.427	35.48
807.601	34.67
807.775	36.26
807.949	38.68
808.123	43.13
808.298	44.01
808.472	43.86
808.646	43.8
808.82	42.37
808.994	42.81
809.168	45.36
809.342	48.56
809.516	48.81
809.69	47.46
809.864	46.59
810.038	49.01
810.212	48.6
810.385	49.16
810.559	51.69
810.733	52.2
810.907	52.2
811.081	48.68
811.255	47.09
811.428	48.32
811.602	48.67
811.776	51.4
811.95	47.8
812.123	46.42
812.297	47.66
812.471	44.28
812.644	45.2
812.818	46.74
812.992	45.16
813.165	45.82
813.339	43.54
813.512	42.71
813.686	41.27
813.86	42.1
814.033	43.48
814.207	40.32
814.38	41.63
814.554	40.38
814.727	38.45
814.9	39.82
815.074	42.64
815.247	42.25
815.421	41
815.594	41.53
815.767	40.54
815.941	40.2
816.114	43
816.287	44.5
816.46	46.28
816.634	46.64
816.807	50.63
816.98	47.96
817.153	51.01
817.327	51.19
817.5	52.04
817.673	52.66
817.846	51.74
818.019	51.39
818.192	50.83
818.365	47.95
818.538	49.81
818.711	45.89
818.884	46.13
819.057	43.22
819.23	45.46
819.403	43.21
819.576	41.97
819.749	40.69
819.922	39.72
820.095	38.52
820.268	39.81
820.441	38.18
820.614	37.78
820.786	34.83
820.959	35.23
821.132	34.25
821.305	34.36
821.477	34.63
821.65	35.63
821.823	35.38
821.996	34.18
822.168	33.29
822.341	32.81
822.514	32.94
822.686	34.09
822.859	33.84
823.031	33.88
823.204	33.9
823.376	34.29
823.549	34.13
823.722	34.17
823.894	35.02
824.067	35.36
824.239	36.21
824.411	36.75
824.584	36.73
824.756	37.11
824.929	37.2
825.101	37.26
825.273	37.03
825.446	37.11
825.618	37.17
825.79	37.23
825.963	36.74
826.135	35.95
826.307	35.16
826.479	35.25
826.652	34.78
826.824	34.6
826.996	34.19
827.168	33.83
827.34	33.64
827.512	33.65
827.684	33.44
827.856	34.6
828.029	35.34
828.201	36.26
828.373	35.25
828.545	36
828.717	37.12
828.889	38.01
829.061	38.59
829.232	39.11
829.404	39.37
829.576	40.49
829.748	39.72
829.92	41.11
830.092	40.65
830.264	42.45
830.436	43.55
830.607	42.79
830.779	43.87
830.951	45.41
831.123	45.22
831.294	45.06
831.466	42.47
831.638	43.86
831.809	40.95
831.981	42.96
832.153	42.06
832.324	39.93
832.496	40.19
832.667	40.35
832.839	37.22
833.011	36.43
833.182	36.09
833.354	37.98
833.525	39.43
833.697	39.92
833.868	36.88
834.039	38.94
834.211	37.86
834.382	37.55
834.554	38.5
834.725	39.62
834.896	39.77
835.068	38.67
835.239	37.62
835.41	36.3
835.581	38.03
835.753	37.71
835.924	34.49
836.095	36.49
836.266	35.48
836.438	34.06
836.609	33.19
836.78	33.76
836.951	37.21
837.122	37.69
837.293	37.28
837.464	34.24
837.635	36.17
837.806	40.3
837.977	40.19
838.148	40.97
838.319	39.98
838.49	41.08
838.661	43.9
838.832	43.96
839.003	44.48
839.174	45.89
839.345	49.58
839.516	51.48
839.687	51.72
839.857	52.91
840.028	53.05
840.199	54.09
840.37	56.32
840.54	52.66
840.711	46.58
840.882	47.8
841.053	47.14
841.223	44.9
841.394	42.19
841.564	41.88
841.735	41.88
841.906	43.36
842.076	34.74
842.247	35.12
842.417	37.63
842.588	46.22
842.758	45.99
842.929	44.54
843.099	44.93
843.27	49.61
843.44	48.51
843.611	49.56
843.781	45.71
843.951	54.04
844.122	51.5
844.292	53.5
844.462	53.75
844.633	53.89
844.803	63.46
844.973	66.92
845.144	65.82
845.314	68
845.484	62.11
845.654	72.14
845.824	70.48
845.995	73.97
846.165	68.29
846.335	62.88
846.505	64.42
846.675	57.95
846.845	54.29
847.015	58.61
847.185	53.75
847.355	56.55
847.525	54.78
847.695	62.47
847.865	64.6
848.035	66.51
848.205	67.15
848.375	65.94
848.545	59.05
848.715	64.79
848.884	59.15
849.054	68.13
849.224	71.65
849.394	69.43
849.564	61.45
849.733	56.59
849.903	55.85
850.073	61.36
850.243	65.53
850.412	71.04
850.582	67.99
850.752	68.44
850.921	66.27
851.091	68.33
851.26	68.51
851.43	74.44
851.599	74.03
851.769	81.5
851.939	72.63
852.108	74.44
852.278	71.05
852.447	62.39
852.616	61.78
852.786	58.66
852.955	61.69
853.125	67.67
853.294	63.01
853.463	56.53
853.633	51.21
853.802	57.7
853.971	57.62
854.141	58.14
854.31	69
854.479	67.63
854.648	71.61
854.818	59.92
854.987	55.94
855.156	54.05
855.325	62.21
855.494	62.71
855.663	66.34
855.832	56.29
856.001	56.49
856.171	52.96
856.34	57.4
856.509	54.7
856.678	64.68
856.847	61.06
857.016	68.5
857.185	67.62
857.353	76.04
857.522	71.82
857.691	80.31
857.86	80.92
858.029	68.07
858.198	78.01
858.367	74.65
858.535	77.03
858.704	73.62
858.873	62.81
859.042	60.1
859.21	56.77
859.379	51.74
859.548	38.7
859.717	42.34
859.885	50.5
860.054	40.55
860.222	32.53
860.391	39.88
860.56	45.02
860.728	57.09
860.897	58.67
861.065	46.81
861.234	52.28
861.402	64.53
861.571	65.72
861.739	67.59
861.908	70.99
862.076	88.4
862.244	80.8
862.413	71.01
862.581	69.37
862.749	64.84
862.918	68.73
863.086	61.83
863.254	56.07
863.423	51.53
863.591	60.18
863.759	55.95
863.927	45.29
864.096	41.78
864.264	52.59
864.432	49.68
864.6	54.63
864.768	45.25
864.936	52.37
865.104	54.07
865.272	60.26
865.44	59.17
865.608	56.13
865.776	59.62
865.944	62.5
866.112	56.31
866.28	61.3
866.448	62.38
866.616	72.32
866.784	71.3
866.952	78.8
867.12	79.34
867.288	74.57
867.455	76.78
867.623	79.46
867.791	74.81
867.959	79.84
868.127	72.52
868.294	76.63
868.462	66.06
868.63	62.86
868.797	55.42
868.965	52.92
869.133	51.55
869.3	51.66
869.468	47.25
869.636	43
869.803	40.05
869.971	55.42
870.138	49.81
870.306	56.45
870.473	61.87
870.641	55.95
870.808	55.28
870.975	59.19
871.143	58.26
871.31	57.39
871.478	71.05
871.645	63.39
871.812	49.99
871.98	50.7
872.147	54.47
872.314	55.6
872.482	61.57
872.649	60.58
872.816	61.5
872.983	55.36
873.15	61.1
873.318	58.15
873.485	67.54
873.652	72.24
873.819	79.28
873.986	83.07
874.153	82.71
874.32	76.51
874.487	73.52
874.654	71.03
874.821	88.1
874.988	88.14
875.155	81.7
875.322	76.42
875.489	73.49
875.656	60.47
875.823	52.13
875.99	39.45
876.157	40.1
876.324	47.68
876.49	40.71
876.657	38.34
876.824	40.05
876.991	48.61
877.157	52.99
877.324	61.28
877.491	68.43
877.658	69.85
877.824	77.34
877.991	78.07
878.157	78.07
878.324	76.08
878.491	78.87
878.657	83.1
878.824	76.5
878.99	75.1
879.157	72.28
879.323	68.13
879.49	72
879.656	78.01
879.823	83.98
879.989	82.33
880.156	86.19
880.322	78.65
880.488	74.18
880.655	74.97
880.821	75.08
880.987	70.02
881.154	71.09
881.32	71.99
881.486	62.85
881.652	57.36
881.819	54.53
881.985	49.16
882.151	49.13
882.317	48.31
882.483	43.49
882.649	42.49
882.816	44.62
882.982	41.23
883.148	40.23
883.314	39.45
883.48	41.05
883.646	40.22
883.812	40.6
883.978	40.55
884.144	39.55
884.31	38.76
884.476	39.89
884.642	39.1
884.807	39.93
884.973	39.57
885.139	38.83
885.305	37.46
885.471	38.63
885.637	37.44
885.802	37.73
885.968	38.79
886.134	42.05
886.3	38.76
886.465	38.9
886.631	38.99
886.797	39.61
886.962	40.89
887.128	40.63
887.293	39.62
887.459	45.33
887.625	44.93
887.79	46.6
887.956	45.8
888.121	53.21
888.287	53.02
888.452	56.2
888.618	56.13
888.783	64.9
