Data from LC_167_Reflection_3.txt Node
Date: Mon Nov 16 23:04:13 EST 2015
User: robert
Spectrometer: USB4E03001
Autoset integration time: false
Trigger mode: 4
Integration Time (sec): 1.000000E-1
Scans to average: 15
Electric dark correction enabled: true
Nonlinearity correction enabled: false
Boxcar width: 5
Stray light correction enabled: false
XAxis mode: Wavelengths
Stop averaging: false
Number of Pixels in Spectrum: 3648
>>>>>Begin Spectral Data<<<<<
177.566	2245.78
177.785	234.55
178.005	-1921.01
178.225	223
178.445	314.89
178.665	-398.63
178.885	-63.87
179.105	768.22
179.324	1436.45
179.544	-67.37
179.764	-731.77
179.984	-153.03
180.204	-199.02
180.423	-241.57
180.643	-424.95
180.863	-266.27
181.083	-235.73
181.302	-333.09
181.522	-210.04
181.742	-165.61
181.961	-325.87
182.181	-238.42
182.401	-425.71
182.621	-1837.42
182.84	-876.85
183.06	-588.81
183.279	-365.1
183.499	-277.53
183.719	-175.3
183.938	-214.96
184.158	-229.3
184.377	-170.64
184.597	-291.59
184.816	-177.1
185.036	-103.37
185.256	-66.72
185.475	-76.02
185.695	-130.68
185.914	-180.35
186.134	-459.64
186.353	-566.88
186.572	-781.33
186.792	-1136.87
187.011	-506.43
187.231	-395.49
187.45	-296.05
187.67	-837.06
187.889	-2192.88
188.108	3706.54
188.328	-827.49
188.547	-265.85
188.766	-418.55
188.986	-587.92
189.205	-378.08
189.424	-239.38
189.644	-858.1
189.863	-1114.17
190.082	-564.39
190.302	-1302.41
190.521	-738.16
190.74	985.24
190.959	480.09
191.178	805.9
191.398	624.81
191.617	507.49
191.836	418.31
192.055	1049.61
192.274	472.77
192.494	612.87
192.713	627.11
192.932	1362.04
193.151	1138.92
193.37	1934.27
193.589	-1070.52
193.808	-303.6
194.027	-477.78
194.246	-4595.25
194.465	796.93
194.685	1434.61
194.904	681.04
195.123	-978.55
195.342	-521.24
195.561	-199.81
195.78	-271.49
195.999	13338.03
196.218	643.46
196.436	566.21
196.655	-1860.1
196.874	-687.51
197.093	-1227.87
197.312	-787.34
197.531	1933.84
197.75	896.91
197.969	-3295.98
198.188	-728.85
198.407	-155.88
198.625	-149.25
198.844	-93.01
199.063	-95.04
199.282	-250.05
199.501	-179.3
199.719	-161.18
199.938	-98.31
200.157	-70.26
200.376	-80.33
200.594	-129.71
200.813	-354.22
201.032	-272.4
201.251	-290.76
201.469	-281.19
201.688	-208.27
201.907	-335.09
202.125	-496.82
202.344	20296.43
202.563	3640.16
202.781	593.07
203	1859.86
203.218	1406.28
203.437	1253.77
203.656	615.39
203.874	325.37
204.093	326.57
204.311	432.98
204.53	431.85
204.748	639.75
204.967	403.84
205.185	376.15
205.404	386.82
205.622	254.06
205.841	198.67
206.059	169.17
206.278	207.49
206.496	436.04
206.715	219.94
206.933	199.53
207.151	173.5
207.37	212.88
207.588	229.62
207.806	231.32
208.025	428.68
208.243	-720.24
208.461	1786.7
208.68	-17060
208.898	713.98
209.116	857.72
209.335	804.21
209.553	824.8
209.771	7889.17
209.989	1679.03
210.208	3312.93
210.426	-6022.87
210.644	3360.76
210.862	-2524.72
211.081	1211.87
211.299	-490.54
211.517	2047.64
211.735	-400.81
211.953	-159614.29
212.171	-3165.66
212.39	-8098.2
212.608	-25532.61
212.826	1007.44
213.044	617.62
213.262	576.9
213.48	3179.96
213.698	421.32
213.916	562.97
214.134	413.98
214.352	784.66
214.57	500.05
214.788	646.51
215.006	465.66
215.224	383.74
215.442	312.73
215.66	287.18
215.878	229.11
216.096	220.92
216.314	229.63
216.532	468.74
216.75	441.74
216.968	413.06
217.185	986.98
217.403	1953.9
217.621	-5662.41
217.839	-1619.57
218.057	-2001.85
218.275	3657.16
218.492	1127.99
218.71	1959.83
218.928	539.11
219.146	475.13
219.363	406.57
219.581	313.83
219.799	255.32
220.017	266.29
220.234	238.86
220.452	252.58
220.67	258.59
220.887	248.22
221.105	221.52
221.323	200.71
221.54	191.53
221.758	267.62
221.976	274.33
222.193	193.21
222.411	131.33
222.629	149.18
222.846	133.54
223.064	139.36
223.281	127.58
223.499	121.87
223.716	110.86
223.934	89.65
224.151	79.85
224.369	65.79
224.586	73.74
224.804	61.01
225.021	60.6
225.239	54.63
225.456	58.88
225.674	67.91
225.891	60.76
226.108	67.78
226.326	69.86
226.543	67.74
226.76	59.27
226.978	60.14
227.195	68.13
227.413	56.63
227.63	50.18
227.847	48.04
228.064	39.78
228.282	35.52
228.499	31.95
228.716	27.27
228.934	22.7
229.151	25
229.368	23.47
229.585	21.02
229.802	22.89
230.02	22.97
230.237	22.47
230.454	24.66
230.671	26.16
230.888	24.57
231.105	26.85
231.323	27.94
231.54	28.42
231.757	28.57
231.974	29.41
232.191	25.58
232.408	31.85
232.625	29.26
232.842	28.8
233.059	27.3
233.276	29.35
233.493	31.95
233.71	34.09
233.927	34.42
234.144	31.92
234.361	28.81
234.578	32.65
234.795	24.64
235.012	25.14
235.229	22.71
235.446	23.17
235.663	24.1
235.879	24.1
236.096	23.37
236.313	24.98
236.53	28.29
236.747	36.68
236.964	35.12
237.181	38.41
237.397	39.99
237.614	40.72
237.831	38.99
238.048	41.23
238.264	40.02
238.481	34.99
238.698	34.37
238.915	28.31
239.131	23.07
239.348	23.48
239.565	24.72
239.781	26.23
239.998	24.27
240.215	23.35
240.431	19.73
240.648	18.85
240.865	19.42
241.081	17.05
241.298	19.53
241.514	19.93
241.731	19.4
241.947	18.75
242.164	17.77
242.38	17.4
242.597	19.01
242.814	19.05
243.03	18.12
243.246	18.99
243.463	20.82
243.679	21.84
243.896	19.93
244.112	20.07
244.329	18.9
244.545	18.91
244.762	18.99
244.978	19.33
245.194	20.25
245.411	20.47
245.627	19.98
245.843	15.9
246.06	14.86
246.276	15.94
246.492	14.94
246.709	14.62
246.925	14.13
247.141	13.91
247.357	12.45
247.574	12.48
247.79	11.89
248.006	11.71
248.222	12.45
248.439	12.05
248.655	12.4
248.871	12.87
249.087	14.13
249.303	13.84
249.519	14.15
249.736	15.49
249.952	14.68
250.168	17.54
250.384	16.12
250.6	16.86
250.816	16.99
251.032	14.67
251.248	12.73
251.464	10.62
251.68	10.64
251.896	11.34
252.112	11.72
252.328	14.24
252.544	13.73
252.76	15.28
252.976	15.12
253.192	14.24
253.408	15.92
253.624	19.67
253.84	19.93
254.056	23.59
254.272	24.63
254.487	23.28
254.703	21.86
254.919	22.04
255.135	21.98
255.351	21.13
255.567	24.49
255.782	23.63
255.998	21.6
256.214	21.74
256.43	16.26
256.646	17.74
256.861	19.41
257.077	19.62
257.293	17.75
257.508	16.96
257.724	19.24
257.94	17.88
258.155	15.61
258.371	14.71
258.587	14.46
258.802	15.09
259.018	13.61
259.234	12.02
259.449	12.31
259.665	12.2
259.88	12.98
260.096	11.59
260.312	10.99
260.527	11.46
260.743	11.66
260.958	12.48
261.174	12.33
261.389	13.12
261.605	13.89
261.82	13.7
262.036	14.45
262.251	14.55
262.466	15.95
262.682	17.74
262.897	18.32
263.113	18.64
263.328	17.82
263.543	17.97
263.759	17.34
263.974	17.72
264.189	17.99
264.405	18.07
264.62	16.9
264.835	18.17
265.051	18.15
265.266	20.67
265.481	21.1
265.696	22.37
265.912	22.02
266.127	19.85
266.342	19.12
266.557	18.79
266.773	17.31
266.988	16.85
267.203	15.43
267.418	14.15
267.633	11.51
267.848	11.04
268.064	8.97
268.279	9.87
268.494	9.25
268.709	10.29
268.924	9.32
269.139	10.16
269.354	10.58
269.569	9.37
269.784	10.31
269.999	11.06
270.214	10.69
270.429	13.36
270.644	12.44
270.859	12.49
271.074	12.28
271.289	12.75
271.504	12.7
271.719	12.93
271.934	13.28
272.149	12.38
272.363	12.83
272.578	12.06
272.793	9.5
273.008	9.33
273.223	10.15
273.438	8.22
273.653	8.13
273.867	7.81
274.082	6.91
274.297	6.7
274.512	7.7
274.726	6.71
274.941	7.38
275.156	9.23
275.371	10.03
275.585	11.05
275.8	14.16
276.015	12.28
276.229	11.66
276.444	12.56
276.659	12.41
276.873	10.64
277.088	11.39
277.302	11.31
277.517	11.95
277.732	14.22
277.946	13.86
278.161	13.1
278.375	14.18
278.59	14.69
278.804	15.14
279.019	15.79
279.233	15.99
279.448	15.89
279.662	15.75
279.877	15.31
280.091	11.13
280.306	10.29
280.52	9.85
280.735	9.75
280.949	10.06
281.163	8.7
281.378	8.04
281.592	7.81
281.806	8.19
282.021	8.24
282.235	8.58
282.449	9.61
282.664	9.83
282.878	8.98
283.092	9.94
283.307	9.54
283.521	10.22
283.735	10.2
283.949	10.98
284.164	10.61
284.378	10.67
284.592	9.93
284.806	10.47
285.02	10.68
285.234	11.47
285.449	11.56
285.663	11.59
285.877	11.07
286.091	11.15
286.305	10.66
286.519	10.11
286.733	9.43
286.947	9.96
287.161	9.38
287.375	9.4
287.589	9.95
287.803	9.4
288.017	9.42
288.231	9.48
288.445	9.69
288.659	10.05
288.873	10.61
289.087	11.3
289.301	10.11
289.515	9.97
289.729	9.48
289.943	9.13
290.157	9.23
290.371	9.78
290.584	10.07
290.798	10.61
291.012	11.39
291.226	10.89
291.44	11.68
291.654	12.92
291.867	13.33
292.081	12.78
292.295	13.05
292.509	13.16
292.722	13.78
292.936	13.81
293.15	14.02
293.364	12.95
293.577	13.64
293.791	12.91
294.005	12.96
294.218	12.52
294.432	13.93
294.645	12.98
294.859	12.71
295.073	11.58
295.286	11.2
295.5	10.79
295.713	11.43
295.927	10.61
296.14	11.71
296.354	11.01
296.568	11.73
296.781	11.46
296.994	11.93
297.208	12.36
297.421	12.44
297.635	12.06
297.848	12
298.062	11.45
298.275	12.21
298.489	11.49
298.702	11.74
298.915	11.92
299.129	12.6
299.342	11.86
299.555	12.07
299.769	12.89
299.982	13.12
300.195	13.26
300.409	14.04
300.622	13.81
300.835	14.87
301.048	14.05
301.262	13.92
301.475	13.17
301.688	14.72
301.901	14.38
302.115	13.93
302.328	14.78
302.541	14.91
302.754	15.71
302.967	16.08
303.18	15.42
303.393	16.12
303.607	15.54
303.82	15.78
304.033	14.96
304.246	15.18
304.459	16.02
304.672	16.26
304.885	17.18
305.098	16.33
305.311	15.39
305.524	15.68
305.737	15.79
305.95	16.96
306.163	15.51
306.376	14.95
306.589	14.09
306.802	12.63
307.015	13
307.228	12.12
307.44	12.34
307.653	13.27
307.866	11.82
308.079	12.94
308.292	12.7
308.505	14.09
308.718	14.28
308.93	14.77
309.143	14.26
309.356	13.57
309.569	13.26
309.781	13.94
309.994	14.12
310.207	15.39
310.42	13.8
310.632	13.17
310.845	13.11
311.058	13.06
311.27	13.48
311.483	13.81
311.696	14.04
311.908	13.8
312.121	13.3
312.333	13.69
312.546	12.78
312.759	13.1
312.971	12.99
313.184	13.66
313.396	13.88
313.609	13.54
313.821	14.46
314.034	14.69
314.246	16.12
314.459	15.83
314.671	15.7
314.884	15.9
315.096	16
315.309	15.81
315.521	15.37
315.733	13.89
315.946	12.99
316.158	11.78
316.371	11.32
316.583	10.91
316.795	11.31
317.008	10.68
317.22	11.84
317.432	12.25
317.644	12.91
317.857	11.47
318.069	13.01
318.281	13.65
318.494	14.42
318.706	14.89
318.918	13.86
319.13	14.34
319.342	15.38
319.555	15.23
319.767	16.42
319.979	16.78
320.191	17.79
320.403	18.18
320.615	18.53
320.827	19.51
321.039	19.11
321.252	19.15
321.464	19.36
321.676	18.85
321.888	17.94
322.1	16.93
322.312	15.37
322.524	15
322.736	14.72
322.948	14.26
323.16	12.74
323.372	13.75
323.584	13.77
323.796	13.01
324.007	12.76
324.219	13.21
324.431	13.86
324.643	15.17
324.855	15.49
325.067	15.69
325.279	15.7
325.491	15.97
325.702	15.04
325.914	15.34
326.126	15.71
326.338	14.93
326.55	14.5
326.761	13.9
326.973	13.45
327.185	14.08
327.396	14.1
327.608	15.02
327.82	15.86
328.032	16.55
328.243	15.98
328.455	16.13
328.666	17.2
328.878	17.32
329.09	17.24
329.301	16.9
329.513	15.69
329.725	15.24
329.936	14.78
330.148	14.45
330.359	14.67
330.571	15.87
330.782	15.86
330.994	15.89
331.205	16.57
331.417	16.25
331.628	16.25
331.84	16.69
332.051	16.64
332.262	17.04
332.474	16.36
332.685	16.78
332.897	16.24
333.108	16.08
333.319	16.02
333.531	15.45
333.742	16.46
333.953	16.64
334.165	16.26
334.376	16.86
334.587	16.63
334.799	17.08
335.01	15.04
335.221	14.73
335.432	13.86
335.644	11.65
335.855	11.42
336.066	10.98
336.277	10.98
336.488	11.57
336.7	10.96
336.911	10.83
337.122	10.65
337.333	12.46
337.544	13.74
337.755	14.57
337.966	16.08
338.177	16.95
338.388	17.06
338.599	17.83
338.811	17.4
339.022	17.45
339.233	17.49
339.444	17.44
339.655	15.18
339.866	13.81
340.076	14.03
340.287	14.5
340.498	14.45
340.709	14.56
340.92	13.53
341.131	14.34
341.342	15.05
341.553	14.67
341.764	14.8
341.975	15.93
342.185	16.6
342.396	15.91
342.607	15.29
342.818	15.68
343.029	15.73
343.239	16.18
343.45	15.89
343.661	14.75
343.872	14.97
344.082	14.88
344.293	15.22
344.504	16.8
344.714	16.75
344.925	17.24
345.136	15.88
345.346	14.61
345.557	14.95
345.768	14.81
345.978	14.79
346.189	15.05
346.399	14.4
346.61	14.23
346.821	12.7
347.031	13.5
347.242	12.75
347.452	13.83
347.663	14.9
347.873	14.26
348.084	13.73
348.294	14.6
348.504	14.21
348.715	15.12
348.925	14.52
349.136	13.83
349.346	13.12
349.557	13.77
349.767	13.45
349.977	13.06
350.188	13.96
350.398	14.56
350.608	14.36
350.819	14.02
351.029	13.58
351.239	14.49
351.449	14.33
351.66	14.42
351.87	14.91
352.08	13.99
352.29	13.72
352.501	12.5
352.711	12.45
352.921	13.11
353.131	13.19
353.341	13.59
353.552	12.86
353.762	12.54
353.972	12.22
354.182	11.9
354.392	12.01
354.602	12.83
354.812	13.49
355.022	13.97
355.232	13.38
355.442	13.65
355.652	13.78
355.862	13.1
356.072	13.82
356.282	13.62
356.492	13.83
356.702	13.91
356.912	14.03
357.122	13.99
357.332	13.29
357.542	13
357.752	12.87
357.962	12.54
358.171	13.14
358.381	13.65
358.591	13.56
358.801	12.91
359.011	13.55
359.221	13.08
359.43	13.34
359.64	13.76
359.85	13.5
360.06	13.7
360.269	13.6
360.479	13.38
360.689	12.66
360.899	12.58
361.108	12.7
361.318	12.5
361.528	12.37
361.737	11.55
361.947	10.81
362.156	11.2
362.366	11.02
362.576	10.97
362.785	11
362.995	10.99
363.204	11.27
363.414	11.32
363.623	10.76
363.833	10.99
364.042	11.6
364.252	12.05
364.461	11.27
364.671	10.9
364.88	11.06
365.09	12.06
365.299	12.08
365.509	11.42
365.718	11.01
365.927	11.28
366.137	11.48
366.346	11.5
366.555	11.27
366.765	12.1
366.974	12.54
367.183	12.45
367.393	10.73
367.602	10.38
367.811	11.13
368.021	10.76
368.23	11.07
368.439	10.7
368.648	10.75
368.857	11.39
369.067	11.23
369.276	11.19
369.485	11.5
369.694	12.86
369.903	13.3
370.112	13.32
370.321	13.69
370.531	13.1
370.74	12.84
370.949	12.33
371.158	11.88
371.367	11.79
371.576	11.48
371.785	10.88
371.994	10.42
372.203	10.68
372.412	10.27
372.621	11.15
372.83	11.23
373.039	11.73
373.248	11.81
373.457	12.03
373.666	11.93
373.874	12.18
374.083	12.36
374.292	12.51
374.501	12
374.71	11.91
374.919	11.45
375.128	11.79
375.336	11.15
375.545	11.84
375.754	11.37
375.963	11.23
376.171	10.71
376.38	10.76
376.589	10.69
376.798	10.39
377.006	10.56
377.215	10.84
377.424	10.84
377.632	11.24
377.841	10.7
378.05	10.61
378.258	10.78
378.467	11.28
378.675	11.37
378.884	11.51
379.093	11.98
379.301	11.95
379.51	11.32
379.718	10.52
379.927	10.42
380.135	10.04
380.344	10.31
380.552	9.88
380.761	9.51
380.969	9.31
381.177	9.04
381.386	8.71
381.594	8.44
381.803	8.65
382.011	8.96
382.219	8.62
382.428	8.21
382.636	8.07
382.845	8.6
383.053	8.69
383.261	8.73
383.469	8.67
383.678	8.85
383.886	8.86
384.094	8.68
384.302	8.58
384.511	8.99
384.719	9.61
384.927	9.61
385.135	9.64
385.343	9.98
385.552	9.73
385.76	9.59
385.968	9.59
386.176	9.36
386.384	8.96
386.592	8.77
386.8	8.15
387.008	7.99
387.216	7.76
387.424	7.46
387.633	7.35
387.841	7.63
388.049	7.6
388.257	7.06
388.465	7.2
388.672	7.56
388.88	7.82
389.088	8.17
389.296	8.12
389.504	8.59
389.712	8.79
389.92	8.46
390.128	7.93
390.336	7.91
390.544	8.61
390.751	8.27
390.959	8.21
391.167	8.4
391.375	8.3
391.583	8.27
391.79	7.78
391.998	7.66
392.206	7.82
392.414	7.88
392.621	7.88
392.829	7.52
393.037	7.99
393.244	7.87
393.452	7.97
393.66	7.84
393.867	7.99
394.075	7.95
394.283	7.97
394.49	7.67
394.698	7.86
394.905	7.8
395.113	7.79
395.32	7.44
395.528	7.49
395.735	7.39
395.943	7.5
396.15	7.17
396.358	7.31
396.565	7.06
396.773	7.5
396.98	7.37
397.188	7.17
397.395	7.33
397.602	7.37
397.81	7.15
398.017	7.35
398.225	7.35
398.432	7.7
398.639	7.9
398.847	8.07
399.054	7.53
399.261	7.62
399.468	7.75
399.676	7.53
399.883	7.52
400.09	7.79
400.297	7.55
400.505	7.57
400.712	7.68
400.919	7.84
401.126	7.73
401.333	8.13
401.54	8.23
401.748	8.45
401.955	8.39
402.162	8.66
402.369	8.6
402.576	8.47
402.783	8.15
402.99	7.75
403.197	7.56
403.404	7.4
403.611	7.1
403.818	6.92
404.025	6.67
404.232	6.63
404.439	6.41
404.646	6.25
404.853	6.02
405.06	6.28
405.267	6.22
405.474	6.08
405.681	5.98
405.887	6.06
406.094	6.18
406.301	6.37
406.508	6.46
406.715	6.5
406.922	6.77
407.128	6.81
407.335	6.7
407.542	6.68
407.749	6.85
407.955	7.22
408.162	7.19
408.369	7.4
408.575	7.19
408.782	7.05
408.989	7.11
409.195	6.78
409.402	6.98
409.609	7.29
409.815	7.44
410.022	7.36
410.228	7.32
410.435	7.4
410.642	7.02
410.848	7.42
411.055	7.66
411.261	7.51
411.468	7.71
411.674	7.42
411.881	7.15
412.087	7.34
412.294	7.25
412.5	6.95
412.706	6.89
412.913	6.8
413.119	6.48
413.326	6.25
413.532	6.47
413.738	6.43
413.945	6.56
414.151	6.31
414.357	6.22
414.564	5.91
414.77	6.14
414.976	6.1
415.182	6.34
415.389	6.24
415.595	6.03
415.801	5.95
416.007	6.06
416.214	6.25
416.42	6.48
416.626	6.29
416.832	6.56
417.038	6.48
417.244	6.44
417.45	6.32
417.657	6.35
417.863	6.54
418.069	6.57
418.275	6.53
418.481	6.26
418.687	6.17
418.893	6.25
419.099	6.13
419.305	6.24
419.511	6.25
419.717	6.22
419.923	6.17
420.129	6.12
420.335	6.12
420.541	6.1
420.746	6.14
420.952	6.13
421.158	5.98
421.364	5.87
421.57	5.76
421.776	5.73
421.982	5.66
422.187	5.54
422.393	5.48
422.599	5.27
422.805	5.3
423.01	5.23
423.216	5.08
423.422	5.12
423.628	5.24
423.833	5.24
424.039	5.34
424.245	5.44
424.45	5.63
424.656	5.7
424.862	5.75
425.067	5.81
425.273	5.82
425.478	5.99
425.684	6.09
425.889	6.23
426.095	6.25
426.301	6.13
426.506	6.18
426.712	6.17
426.917	6
427.123	6.25
427.328	6.03
427.533	6.1
427.739	6.11
427.944	6.01
428.15	5.77
428.355	5.71
428.561	5.71
428.766	5.39
428.971	5.41
429.177	5.63
429.382	5.59
429.587	5.67
429.793	5.7
429.998	5.5
430.203	5.5
430.408	5.58
430.614	5.59
430.819	5.54
431.024	5.95
431.229	5.85
431.434	5.8
431.64	5.58
431.845	5.57
432.05	5.67
432.255	5.72
432.46	5.58
432.665	5.36
432.87	5.49
433.076	5.64
433.281	5.7
433.486	5.7
433.691	5.62
433.896	5.59
434.101	5.59
434.306	5.57
434.511	5.64
434.716	5.75
434.921	5.91
435.126	5.66
435.331	5.55
435.535	5.24
435.74	5.18
435.945	5.31
436.15	5.37
436.355	5.36
436.56	5.3
436.765	5.35
436.97	5.08
437.174	4.94
437.379	5.13
437.584	5.31
437.789	5.22
437.993	5.26
438.198	5.17
438.403	5.27
438.608	5.32
438.812	5.17
439.017	5.11
439.222	5.34
439.426	5.39
439.631	5.44
439.836	5.2
440.04	5.27
440.245	5.33
440.45	5.33
440.654	5.32
440.859	5.22
441.063	5.29
441.268	5.27
441.472	5.29
441.677	5.35
441.881	5.19
442.086	5.25
442.29	5.32
442.495	5.17
442.699	5.2
442.904	5.23
443.108	5.34
443.312	5.27
443.517	5.29
443.721	5.14
443.925	5.17
444.13	5.34
444.334	5.26
444.538	5.26
444.743	5.24
444.947	5.19
445.151	5.12
445.356	4.96
445.56	5.06
445.764	5
445.968	5.08
446.173	4.99
446.377	4.94
446.581	5.01
446.785	4.96
446.989	5.05
447.193	5.04
447.398	5.03
447.602	5
447.806	5.1
448.01	5.26
448.214	5.3
448.418	5.26
448.622	5.3
448.826	5.27
449.03	5.3
449.234	5.32
449.438	5.19
449.642	5.2
449.846	5.33
450.05	5.27
450.254	5.15
450.458	5.3
450.662	5.4
450.866	5.22
451.069	5.25
451.273	5.21
451.477	5.08
451.681	5.32
451.885	5.19
452.089	5.11
452.292	5.12
452.496	5.17
452.7	5.02
452.904	5.03
453.107	5.08
453.311	5.18
453.515	5.17
453.719	5.12
453.922	5
454.126	5.07
454.33	5.09
454.533	4.85
454.737	4.68
454.94	4.72
455.144	4.83
455.348	4.85
455.551	4.73
455.755	4.49
455.958	4.6
456.162	4.65
456.365	4.74
456.569	4.66
456.772	4.62
456.976	4.75
457.179	4.7
457.383	4.68
457.586	4.78
457.79	4.78
457.993	5.13
458.196	4.99
458.4	5.04
458.603	4.92
458.807	4.96
459.01	5.09
459.213	4.92
459.417	4.88
459.62	4.89
459.823	4.83
460.026	4.81
460.23	4.73
460.433	4.83
460.636	4.82
460.839	4.89
461.042	4.95
461.246	4.99
461.449	4.99
461.652	5.06
461.855	4.9
462.058	4.97
462.261	4.91
462.464	4.89
462.668	4.96
462.871	4.94
463.074	4.95
463.277	4.66
463.48	4.75
463.683	4.94
463.886	4.96
464.089	5.07
464.292	5.1
464.495	5.21
464.698	5.15
464.901	5.29
465.104	5.23
465.306	5.19
465.509	5.47
465.712	5.35
465.915	5.36
466.118	5.15
466.321	5.19
466.524	5.12
466.726	5.18
466.929	5.3
467.132	5.11
467.335	5.12
467.538	5
467.74	4.88
467.943	4.97
468.146	5
468.348	5.09
468.551	5.09
468.754	5.01
468.956	4.81
469.159	4.83
469.362	4.93
469.564	4.84
469.767	4.97
469.969	5.07
470.172	4.92
470.375	4.77
470.577	4.85
470.78	4.78
470.982	4.8
471.185	4.95
471.387	5
471.59	4.82
471.792	4.94
471.995	4.89
472.197	4.94
472.399	4.82
472.602	4.82
472.804	4.78
473.007	4.8
473.209	4.88
473.411	4.92
473.614	4.74
473.816	4.9
474.018	4.97
474.22	5.01
474.423	5.13
474.625	5.26
474.827	5.48
475.03	5.46
475.232	5.65
475.434	5.65
475.636	5.7
475.838	5.72
476.04	5.59
476.243	5.5
476.445	5.47
476.647	5.29
476.849	5.21
477.051	5.06
477.253	5.13
477.455	5.04
477.657	4.89
477.859	4.71
478.061	4.7
478.263	4.73
478.465	4.78
478.667	4.76
478.869	4.75
479.071	4.65
479.273	4.6
479.475	4.48
479.677	4.44
479.879	4.46
480.081	4.58
480.283	4.57
480.485	4.49
480.686	4.36
480.888	4.37
481.09	4.3
481.292	4.33
481.494	4.33
481.695	4.52
481.897	4.36
482.099	4.44
482.301	4.45
482.502	4.48
482.704	4.52
482.906	4.5
483.107	4.49
483.309	4.46
483.511	4.51
483.712	4.47
483.914	4.36
484.115	4.41
484.317	4.38
484.519	4.37
484.72	4.4
484.922	4.35
485.123	4.4
485.325	4.36
485.526	4.42
485.728	4.43
485.929	4.44
486.131	4.52
486.332	4.55
486.534	4.5
486.735	4.48
486.936	4.4
487.138	4.44
487.339	4.42
487.541	4.46
487.742	4.45
487.943	4.44
488.144	4.45
488.346	4.38
488.547	4.37
488.748	4.45
488.95	4.43
489.151	4.47
489.352	4.53
489.553	4.57
489.755	4.59
489.956	4.57
490.157	4.59
490.358	4.64
490.559	4.76
490.76	4.71
490.961	4.67
491.163	4.73
491.364	4.78
491.565	4.69
491.766	4.63
491.967	4.61
492.168	4.63
492.369	4.63
492.57	4.65
492.771	4.63
492.972	4.73
493.173	4.83
493.374	4.76
493.575	4.72
493.776	4.82
493.976	5.01
494.177	5.16
494.378	5.26
494.579	5.26
494.78	5.44
494.981	5.41
495.182	5.4
495.382	5.39
495.583	5.44
495.784	5.53
495.985	5.53
496.185	5.4
496.386	5.19
496.587	5.24
496.788	5.27
496.988	5.17
497.189	5.15
497.39	5.17
497.59	5.2
497.791	5.2
497.992	5.09
498.192	5.08
498.393	5.11
498.593	5.3
498.794	5.25
498.994	5.29
499.195	5.31
499.395	5.44
499.596	5.43
499.796	5.34
499.997	5.44
500.197	5.57
500.398	5.65
500.598	5.68
500.799	5.57
500.999	5.62
501.199	5.56
501.4	5.49
501.6	5.49
501.801	5.55
502.001	5.59
502.201	5.77
502.402	5.66
502.602	5.73
502.802	5.75
503.002	5.92
503.203	5.96
503.403	5.95
503.603	5.97
503.803	5.83
504.003	5.92
504.204	5.97
504.404	5.78
504.604	5.82
504.804	5.89
505.004	5.87
505.204	5.79
505.404	5.8
505.604	5.98
505.804	5.98
506.005	6.13
506.205	5.98
506.405	6.12
506.605	6.16
506.805	6.27
507.005	6.21
507.204	6.25
507.404	6.31
507.604	6.39
507.804	6.31
508.004	6.39
508.204	6.33
508.404	6.47
508.604	6.49
508.804	6.64
509.003	6.54
509.203	6.49
509.403	6.54
509.603	6.51
509.803	6.54
510.002	6.72
510.202	6.66
510.402	6.73
510.602	6.73
510.801	6.72
511.001	6.72
511.201	6.82
511.4	6.9
511.6	6.96
511.8	7.09
511.999	7.24
512.199	7.14
512.398	7.2
512.598	7.36
512.797	7.46
512.997	7.62
513.197	7.66
513.396	7.8
513.596	7.94
513.795	8.13
513.994	8.15
514.194	8.04
514.393	8.2
514.593	8.44
514.792	8.55
514.992	8.49
515.191	8.31
515.39	8.22
515.59	8.1
515.789	8.07
515.988	7.96
516.188	7.96
516.387	7.93
516.586	7.83
516.786	7.82
516.985	7.7
517.184	7.8
517.383	8.06
517.582	8.13
517.782	8.23
517.981	8.27
518.18	8.28
518.379	8.32
518.578	8.36
518.777	8.37
518.976	8.26
519.176	8.44
519.375	8.46
519.574	8.37
519.773	8.48
519.972	8.47
520.171	8.41
520.37	8.49
520.569	8.56
520.768	8.66
520.967	8.94
521.166	9.1
521.365	8.96
521.564	9.19
521.762	9.34
521.961	9.34
522.16	9.35
522.359	9.45
522.558	9.49
522.757	9.54
522.956	9.69
523.154	9.55
523.353	9.67
523.552	9.74
523.751	9.78
523.949	9.73
524.148	9.9
524.347	10.12
524.546	10.18
524.744	10.19
524.943	10.24
525.142	10.24
525.34	10.38
525.539	10.43
525.737	10.43
525.936	10.28
526.135	10.23
526.333	10.2
526.532	10.17
526.73	10.32
526.929	10.32
527.127	10.33
527.326	10.4
527.524	10.34
527.723	10.38
527.921	10.5
528.12	10.61
528.318	10.74
528.516	10.75
528.715	10.78
528.913	10.73
529.112	10.8
529.31	10.79
529.508	10.76
529.707	10.83
529.905	10.82
530.103	10.84
530.301	10.86
530.5	10.89
530.698	10.96
530.896	11.02
531.094	11.13
531.293	11.23
531.491	11.41
531.689	11.57
531.887	11.76
532.085	11.92
532.283	11.94
532.481	12.02
532.68	12
532.878	12.01
533.076	12.04
533.274	12.05
533.472	12.03
533.67	11.98
533.868	12.04
534.066	12.04
534.264	11.99
534.462	12.05
534.66	12.06
534.858	12.2
535.056	12.29
535.253	12.35
535.451	12.44
535.649	12.47
535.847	12.74
536.045	12.7
536.243	12.7
536.441	12.81
536.638	12.89
536.836	12.91
537.034	12.98
537.232	13.1
537.43	13.24
537.627	13.35
537.825	13.49
538.023	13.43
538.22	13.63
538.418	13.74
538.616	13.87
538.813	13.94
539.011	14.1
539.209	14.12
539.406	14.13
539.604	14.26
539.801	14.34
539.999	14.47
540.196	14.6
540.394	14.57
540.591	14.58
540.789	14.56
540.986	14.6
541.184	14.6
541.381	14.62
541.579	14.54
541.776	14.5
541.974	14.44
542.171	14.45
542.368	14.41
542.566	14.46
542.763	14.55
542.96	14.57
543.158	14.62
543.355	14.72
543.552	14.8
543.75	15.05
543.947	14.99
544.144	15.06
544.341	15.14
544.539	15.23
544.736	15.33
544.933	15.36
545.13	15.47
545.327	15.47
545.524	15.53
545.722	15.6
545.919	15.6
546.116	15.87
546.313	16.07
546.51	16.07
546.707	16.08
546.904	16.08
547.101	16.1
547.298	16.28
547.495	16.4
547.692	16.34
547.889	16.37
548.086	16.42
548.283	16.48
548.48	16.38
548.677	16.39
548.874	16.46
549.07	16.63
549.267	16.69
549.464	16.46
549.661	16.62
549.858	16.84
550.055	17.09
550.251	17.26
550.448	17.15
550.645	17.44
550.842	17.63
551.038	17.8
551.235	17.67
551.432	17.77
551.628	17.99
551.825	18.21
552.022	18.19
552.218	18.18
552.415	18.23
552.612	18.52
552.808	18.42
553.005	18.48
553.201	18.67
553.398	18.79
553.594	18.89
553.791	18.97
553.987	18.94
554.184	19.07
554.38	19.01
554.577	18.98
554.773	18.91
554.97	19.04
555.166	19.17
555.362	19.01
555.559	19.24
555.755	19.38
555.952	19.47
556.148	19.31
556.344	19.17
556.541	19.31
556.737	19.47
556.933	19.63
557.129	19.39
557.326	19.32
557.522	19.58
557.718	19.63
557.914	19.66
558.11	19.76
558.307	19.76
558.503	20.04
558.699	20.14
558.895	20.24
559.091	20.31
559.287	20.64
559.483	20.61
559.679	20.59
559.876	20.59
560.072	20.61
560.268	20.43
560.464	20.42
560.66	20.57
560.856	20.64
561.052	20.74
561.247	20.85
561.443	21.03
561.639	21.29
561.835	21.4
562.031	21.3
562.227	21.31
562.423	21.52
562.619	21.82
562.815	21.9
563.01	22.01
563.206	22.04
563.402	22
563.598	22
563.793	21.93
563.989	21.81
564.185	22.06
564.381	22.31
564.576	22.55
564.772	22.46
564.968	22.52
565.163	22.32
565.359	22.1
565.555	22.17
565.75	22.24
565.946	22.51
566.141	22.61
566.337	22.64
566.532	22.66
566.728	22.68
566.923	22.84
567.119	22.78
567.314	23.06
567.51	23.41
567.705	23.42
567.901	23.41
568.096	23.41
568.292	23.61
568.487	23.61
568.682	23.57
568.878	23.47
569.073	23.53
569.268	23.52
569.464	23.59
569.659	23.55
569.854	23.67
570.05	23.68
570.245	23.56
570.44	23.71
570.635	23.86
570.831	23.8
571.026	24.17
571.221	24.19
571.416	24.17
571.611	24.06
571.806	24.04
572.002	24.13
572.197	24.34
572.392	24.4
572.587	24.21
572.782	24.24
572.977	24.44
573.172	24.28
573.367	24.35
573.562	24.55
573.757	24.69
573.952	24.86
574.147	25.03
574.342	25.16
574.537	25.06
574.732	25.11
574.927	25.06
575.121	25.25
575.316	25.23
575.511	25.05
575.706	25.1
575.901	25.08
576.096	25
576.29	24.86
576.485	24.82
576.68	25.18
576.875	25.34
577.069	25.46
577.264	25.34
577.459	25.47
577.654	25.68
577.848	25.56
578.043	25.87
578.238	25.91
578.432	25.71
578.627	25.64
578.821	25.51
579.016	25.39
579.21	25.56
579.405	25.48
579.6	25.7
579.794	25.84
579.989	25.84
580.183	25.59
580.378	25.58
580.572	25.99
580.766	26.03
580.961	26.12
581.155	26.29
581.35	26.24
581.544	26.27
581.738	26.24
581.933	26.28
582.127	26.7
582.321	26.78
582.516	26.83
582.71	26.78
582.904	26.86
583.099	26.89
583.293	26.84
583.487	26.97
583.681	27.34
583.875	27.39
584.07	27.54
584.264	27.49
584.458	27.39
584.652	27.48
584.846	27.43
585.04	27.6
585.234	27.49
585.428	27.69
585.623	27.48
585.817	27.2
586.011	27.11
586.205	27
586.399	26.98
586.593	27.3
586.787	27.41
586.981	27.68
587.174	27.53
587.368	27.6
587.562	27.64
587.756	27.52
587.95	27.63
588.144	27.69
588.338	27.95
588.532	28.07
588.725	28.02
588.919	28.11
589.113	27.89
589.307	27.94
589.501	28.03
589.694	27.92
589.888	28.24
590.082	28.26
590.275	28.36
590.469	28.13
590.663	28.03
590.856	28.03
591.05	28.04
591.244	28.1
591.437	28.24
591.631	28.42
591.824	28.51
592.018	28.44
592.212	28.55
592.405	28.09
592.599	28.22
592.792	28.2
592.986	28.27
593.179	28.38
593.372	28.46
593.566	28.39
593.759	28.27
593.953	28.27
594.146	28.26
594.339	28.25
594.533	28.72
594.726	28.54
594.92	28.63
595.113	28.77
595.306	28.63
595.499	28.57
595.693	28.55
595.886	28.62
596.079	28.69
596.272	28.67
596.466	28.72
596.659	28.69
596.852	28.82
597.045	28.93
597.238	28.83
597.431	28.88
597.624	28.91
597.818	28.98
598.011	28.9
598.204	28.72
598.397	29
598.59	28.99
598.783	28.93
598.976	28.83
599.169	28.68
599.362	28.75
599.555	28.92
599.748	29.22
599.941	29.23
600.134	29.3
600.326	29.59
600.519	29.55
600.712	29.61
600.905	29.52
601.098	29.81
601.291	30.1
601.483	30.14
601.676	30.12
601.869	29.76
602.062	29.75
602.255	29.63
602.447	29.73
602.64	29.63
602.833	29.65
603.025	29.57
603.218	29.65
603.411	29.43
603.603	29.27
603.796	29.09
603.989	29.3
604.181	29.34
604.374	29.64
604.566	29.48
604.759	29.53
604.951	29.4
605.144	29.69
605.336	29.8
605.529	29.77
605.721	29.96
605.914	30.11
606.106	30.12
606.299	30.16
606.491	30.1
606.683	30.27
606.876	30.12
607.068	30.37
607.26	30.37
607.453	30.19
607.645	30.55
607.837	30.39
608.03	30.39
608.222	30.22
608.414	30.46
608.606	30.38
608.799	30.49
608.991	30.51
609.183	30.47
609.375	30.34
609.567	30.14
609.759	30.02
609.952	30.07
610.144	29.94
610.336	30.07
610.528	29.87
610.72	29.89
610.912	29.8
611.104	30.06
611.296	30.1
611.488	30.02
611.68	30.33
611.872	30.24
612.064	30.58
612.256	30.85
612.448	30.87
612.64	30.68
612.832	30.75
613.023	30.72
613.215	30.8
613.407	30.65
613.599	31.11
613.791	30.87
613.983	31.03
614.174	30.71
614.366	30.79
614.558	30.67
614.75	30.93
614.941	30.99
615.133	31.25
615.325	31.33
615.516	31.36
615.708	31.03
615.9	30.96
616.091	30.72
616.283	30.96
616.475	30.81
616.666	31.17
616.858	31.31
617.049	31.03
617.241	30.67
617.432	30.59
617.624	30.81
617.815	31.02
618.007	31.29
618.198	31.65
618.39	31.3
618.581	31.17
618.773	31.2
618.964	31.01
619.155	31.4
619.347	31.65
619.538	31.64
619.729	31.48
619.921	31.37
620.112	31.42
620.303	31.55
620.494	31.95
620.686	32.22
620.877	31.88
621.068	31.97
621.259	31.74
621.451	31.69
621.642	31.6
621.833	31.93
622.024	32.05
622.215	31.97
622.406	31.72
622.597	31.74
622.788	31.62
622.98	31.67
623.171	31.74
623.362	31.82
623.553	31.83
623.744	31.51
623.935	31.48
624.126	31.68
624.317	31.52
624.508	31.65
624.698	31.5
624.889	31.78
625.08	32.14
625.271	32.36
625.462	32.39
625.653	32.33
625.844	32.67
626.034	32.51
626.225	32.45
626.416	32.51
626.607	32.52
626.798	32.65
626.988	32.5
627.179	32.34
627.37	32.07
627.56	32
627.751	32.03
627.942	31.83
628.132	31.7
628.323	31.76
628.514	31.97
628.704	31.9
628.895	31.72
629.085	31.99
629.276	31.96
629.466	31.99
629.657	31.92
629.847	31.99
630.038	32.18
630.228	32.16
630.419	32
630.609	32.1
630.8	32.1
630.99	32
631.181	31.57
631.371	31.72
631.561	31.92
631.752	32.37
631.942	32.32
632.132	32.38
632.323	32.57
632.513	32.83
632.703	32.83
632.893	33.08
633.084	33.21
633.274	33.25
633.464	33.13
633.654	33.05
633.844	32.77
634.034	32.85
634.225	32.7
634.415	32.4
634.605	32.27
634.795	32.04
634.985	31.97
635.175	31.76
635.365	31.98
635.555	32.08
635.745	32.02
635.935	32.13
636.125	32.1
636.315	32.46
636.505	32.9
636.695	32.7
636.885	32.59
637.075	32.44
637.265	32.95
637.455	32.85
637.644	32.93
637.834	33.09
638.024	33.06
638.214	33.04
638.404	33.13
638.593	33.21
638.783	33.57
638.973	33.99
639.163	33.59
639.352	33.16
639.542	33.29
639.732	33.43
639.921	33.69
640.111	33.7
640.301	33.66
640.49	33.31
640.68	33.21
640.87	33.18
641.059	33.26
641.249	33.71
641.438	33.89
641.628	33.59
641.817	33.22
642.007	32.93
642.196	33.27
642.386	33.7
642.575	34.04
642.764	33.9
642.954	33.47
643.143	33.4
643.333	33.87
643.522	33.97
643.711	34.08
643.901	33.87
644.09	34.07
644.279	34.06
644.469	33.73
644.658	33.61
644.847	33.67
645.036	34.21
645.226	33.97
645.415	33.54
645.604	33.45
645.793	33.72
645.982	33.95
646.171	33.69
646.361	33.78
646.55	33.93
646.739	34.15
646.928	34.37
647.117	34.03
647.306	34.43
647.495	34.62
647.684	34.65
647.873	34.5
648.062	34.74
648.251	34.97
648.44	34.49
648.629	34.26
648.818	34.01
649.007	33.64
649.196	33.93
649.384	33.57
649.573	33.42
649.762	33.32
649.951	33.26
650.14	33.6
650.328	33.55
650.517	33.8
650.706	34.14
650.895	34.19
651.083	34.39
651.272	33.89
651.461	34.12
651.65	34.57
651.838	34.54
652.027	34.44
652.216	33.61
652.404	33.46
652.593	33.37
652.781	33.24
652.97	33.12
653.158	33.47
653.347	34.05
653.535	33.73
653.724	32.78
653.912	33.29
654.101	33.65
654.289	33.99
654.478	34.24
654.666	34.26
654.855	34.33
655.043	34.14
655.231	33.52
655.42	33.53
655.608	33.76
655.796	34.17
655.985	34.01
656.173	33.74
656.361	33.63
656.55	33.67
656.738	33.83
656.926	34.04
657.114	34.58
657.302	34.67
657.491	34.22
657.679	33.78
657.867	33.98
658.055	33.92
658.243	34.04
658.431	34.3
658.619	34.49
658.807	34.51
658.996	34.54
659.184	34.07
659.372	34.45
659.56	34.51
659.748	34.57
659.936	34.57
660.124	34.71
660.311	34.89
660.499	34.94
660.687	34.88
660.875	34.88
661.063	34.66
661.251	34.77
661.439	34.43
661.627	34.55
661.814	34.87
662.002	34.8
662.19	34.29
662.378	34.1
662.565	34.36
662.753	34.12
662.941	34.12
663.129	34.28
663.316	34.8
663.504	34.88
663.692	35.13
663.879	35.07
664.067	35.33
664.254	35.98
664.442	36.03
664.63	35.65
664.817	35.84
665.005	36.04
665.192	35.9
665.38	35.29
665.567	35.36
665.755	35.24
665.942	35.61
666.13	35.88
666.317	35.84
666.504	35.5
666.692	35.85
666.879	36.02
667.067	35.79
667.254	35.67
667.441	35.88
667.629	36.06
667.816	36.36
668.003	35.99
668.19	35.47
668.378	35.48
668.565	35.67
668.752	35.31
668.939	35.06
669.127	34.88
669.314	35.31
669.501	35.3
669.688	35.25
669.875	35.09
670.062	35.36
670.249	35.6
670.436	35.52
670.623	35.6
670.81	35.5
670.997	35.61
671.184	35.53
671.371	35.7
671.558	35.61
671.745	35.68
671.932	35.36
672.119	35.15
672.306	35.08
672.493	35.06
672.68	35.11
672.867	35.9
673.054	35.67
673.24	35.81
673.427	35.57
673.614	35.75
673.801	35.94
673.988	36.43
674.174	36.61
674.361	36.6
674.548	36.49
674.734	36.92
674.921	36.23
675.108	37.07
675.294	36.95
675.481	36.56
675.668	36.71
675.854	36.13
676.041	35.79
676.227	35.49
676.414	35.89
676.601	36.38
676.787	35.95
676.974	36.32
677.16	35.8
677.347	36.13
677.533	36.32
677.719	36.14
677.906	36.13
678.092	36.37
678.279	36.37
678.465	35.87
678.651	35.61
678.838	35.91
679.024	35.5
679.21	35.38
679.397	35.34
679.583	35.58
679.769	35.44
679.955	35.15
680.142	35.03
680.328	35.52
680.514	35.69
680.7	35.11
680.886	35.33
681.073	35.47
681.259	35.29
681.445	35.43
681.631	35.1
681.817	35.18
682.003	35.69
682.189	35.51
682.375	34.9
682.561	34.88
682.747	35.47
682.933	35.01
683.119	35.09
683.305	35.34
683.491	35.25
683.677	35.51
683.863	35.51
684.049	35.62
684.235	35.56
684.42	36.18
684.606	36.23
684.792	36.56
684.978	36.55
685.164	36.23
685.349	36.26
685.535	36.1
685.721	35.55
685.907	35.51
686.092	35.48
686.278	35.97
686.464	35.52
686.649	35.28
686.835	34.81
687.021	35.04
687.206	35.24
687.392	35.07
687.577	35.5
687.763	35.65
687.948	35.66
688.134	35.82
688.319	35.76
688.505	36.42
688.69	36.49
688.876	36.42
689.061	36.38
689.247	36.78
689.432	36.75
689.618	36.56
689.803	36.73
689.988	36.8
690.174	36.69
690.359	36.81
690.544	36.35
690.73	37.09
690.915	37.36
691.1	37.66
691.285	37.32
691.471	37.6
691.656	37.5
691.841	37.17
692.026	37.38
692.211	37.74
692.396	37.81
692.582	38.03
692.767	37.55
692.952	37.41
693.137	36.83
693.322	37.13
693.507	37.39
693.692	37.84
693.877	38.29
694.062	38.36
694.247	37.87
694.432	37.93
694.617	37.67
694.802	37.6
694.987	37.8
695.172	38.25
695.357	38.43
695.541	38.3
695.726	38.02
695.911	38.38
696.096	37.98
696.281	38.41
696.466	38.05
696.65	38.09
696.835	38.39
697.02	38.32
697.204	37.97
697.389	37.82
697.574	37.34
697.759	37.28
697.943	37.07
698.128	37.14
698.312	36.87
698.497	36.57
698.682	36.51
698.866	36.09
699.051	35.92
699.235	35.91
699.42	35.97
699.604	35.97
699.789	36.11
699.973	36.15
700.158	36.41
700.342	36.3
700.527	36.61
700.711	37.2
700.895	37.4
701.08	37.87
701.264	38.12
701.448	38.02
701.633	38.06
701.817	37.6
702.001	37.64
702.186	37.44
702.37	37.76
702.554	37.45
702.738	37.12
702.923	36.96
703.107	36.99
703.291	37.09
703.475	36.72
703.659	37.05
703.843	37.64
704.027	37.73
704.212	37.39
704.396	37.14
704.58	37.43
704.764	37.33
704.948	37.29
705.132	36.81
705.316	36.99
705.5	37.45
705.684	37.36
705.868	36.71
706.052	36.66
706.235	37.03
706.419	37.27
706.603	37.56
706.787	37.24
706.971	37.65
707.155	37.79
707.339	37.85
707.522	37.66
707.706	38.34
707.89	38.7
708.074	38.66
708.257	38.61
708.441	38.76
708.625	39.01
708.808	39.19
708.992	39.17
709.176	39.09
709.359	38.78
709.543	38.74
709.727	38.76
709.91	38.62
710.094	38.6
710.277	38.71
710.461	38.53
710.644	38.38
710.828	38.34
711.011	38.2
711.195	38
711.378	38.08
711.562	38.05
711.745	37.56
711.928	37.45
712.112	37.1
712.295	37.25
712.478	37.62
712.662	37.92
712.845	38.13
713.028	38.23
713.212	38.33
713.395	38.17
713.578	37.99
713.761	38.32
713.945	38.33
714.128	38.59
714.311	38.75
714.494	38.68
714.677	38.09
714.86	38.14
715.043	38.6
715.227	38.93
715.41	38.93
715.593	39.24
715.776	39.05
715.959	38.91
716.142	38.99
716.325	38.25
716.508	37.91
716.691	38.79
716.874	38.66
717.057	38.1
717.239	37.98
717.422	38.33
717.605	38.24
717.788	38.07
717.971	39.17
718.154	39.49
718.337	40.17
718.519	41.11
718.702	40.58
718.885	39.82
719.068	39.74
719.25	40.11
719.433	40.24
719.616	40.29
719.798	40
719.981	40.17
720.164	40.35
720.346	39.83
720.529	39.61
720.712	39.6
720.894	40.57
721.077	40.75
721.259	40.71
721.442	41.17
721.624	41.56
721.807	42.39
721.989	41.42
722.172	41.2
722.354	41.59
722.537	41.39
722.719	40.59
722.901	40.15
723.084	40.71
723.266	40.16
723.448	40.49
723.631	40.4
723.813	39.65
723.995	39.36
724.178	38.87
724.36	39.83
724.542	39.73
724.724	40.34
724.907	40.6
725.089	39.6
725.271	40.06
725.453	38.55
725.635	38.58
725.817	39.79
725.999	41.08
726.181	42.23
726.364	40.87
726.546	40.96
726.728	41.37
726.91	41.12
727.092	41.83
727.274	41.12
727.456	41.82
727.638	41.78
727.819	41.13
728.001	40.42
728.183	40.25
728.365	40.41
728.547	39.95
728.729	40.16
728.911	41.17
729.093	40.78
729.274	40.88
729.456	40.77
729.638	41.06
729.82	41.12
730.001	41.2
730.183	40.75
730.365	40.61
730.546	41.1
730.728	40.21
730.91	39.8
731.091	39.67
731.273	39.98
731.455	39.85
731.636	39.57
731.818	40.47
731.999	40.51
732.181	40.78
732.362	41.33
732.544	41.62
732.725	42.38
732.907	42.01
733.088	43.32
733.27	43.39
733.451	43.41
733.633	44.39
733.814	43.12
733.995	43.08
734.177	43.12
734.358	42.92
734.539	42.57
734.721	41.91
734.902	41.14
735.083	40.15
735.264	41.06
735.446	41.24
735.627	39.71
735.808	39.42
735.989	39.17
736.17	39.01
736.351	38.87
736.533	38.44
736.714	38.34
736.895	39.84
737.076	39.82
737.257	38.2
737.438	37.83
737.619	38.58
737.8	39.37
737.981	39.5
738.162	39.82
738.343	40.32
738.524	40.48
738.705	41.03
738.886	40.4
739.067	40.45
739.247	40.66
739.428	40.83
739.609	40.3
739.79	40.64
739.971	40.09
740.151	39.19
740.332	39.42
740.513	39.48
740.694	40.65
740.874	40.98
741.055	41.28
741.236	41.41
741.417	41.72
741.597	42.4
741.778	41.96
741.958	42.38
742.139	42.4
742.32	42.26
742.5	42.37
742.681	41.28
742.861	40.53
743.042	40.08
743.222	40.44
743.403	39.8
743.583	39.62
743.764	39.57
743.944	39.95
744.124	40.18
744.305	39.98
744.485	40.26
744.666	39.57
744.846	41.22
745.026	41.63
745.207	41.17
745.387	42.2
745.567	42.64
745.747	43.51
745.928	42.2
746.108	42.37
746.288	42.35
746.468	41.97
746.648	42.37
746.829	41.13
747.009	41.62
747.189	42.81
747.369	42.02
747.549	42.06
747.729	41.3
747.909	42.09
748.089	42.2
748.269	42.08
748.449	42.17
748.629	42.19
748.809	42.86
748.989	42.38
749.169	42.12
749.349	42.57
749.529	42.84
749.709	42.95
749.889	44.24
750.068	43.65
750.248	43.68
750.428	43.52
750.608	43.73
750.788	43.25
750.967	42.47
751.147	41.97
751.327	41.68
751.507	40.54
751.686	40.81
751.866	40.39
752.046	40.78
752.225	41.29
752.405	42.6
752.585	42.89
752.764	43.26
752.944	44.33
753.123	44.8
753.303	45.34
753.482	45.85
753.662	45.19
753.841	44.3
754.021	44.95
754.2	44.62
754.38	43.77
754.559	42.91
754.739	42.24
754.918	42.02
755.097	40.95
755.277	40.66
755.456	40.74
755.635	41.46
755.815	41.79
755.994	41.54
756.173	41.08
756.352	40.27
756.532	39.91
756.711	40.39
756.89	39.66
757.069	40.71
757.248	40.03
757.427	39.64
757.607	39.91
757.786	39.73
757.965	38.46
758.144	39.4
758.323	40.52
758.502	41.76
758.681	41.84
758.86	41.75
759.039	41.89
759.218	42.57
759.397	43.03
759.576	42.05
759.755	42.49
759.934	43.24
760.113	43.23
760.291	42.2
760.47	41.53
760.649	42.02
760.828	42.13
761.007	41.97
761.186	41.91
761.364	40.83
761.543	41.04
761.722	40.41
761.901	40.19
762.079	39.85
762.258	41.16
762.437	41.8
762.615	40.71
762.794	40.84
762.972	40.33
763.151	39.85
763.33	40.43
763.508	40.5
763.687	40.63
763.865	41.28
764.044	41.04
764.222	40.4
764.401	40.26
764.579	39.98
764.758	40.25
764.936	40.99
765.114	40.96
765.293	41.09
765.471	41.83
765.65	41.62
765.828	41.29
766.006	41.91
766.184	41.94
766.363	41.55
766.541	42.03
766.719	42.71
766.898	42.43
767.076	43.38
767.254	43.23
767.432	43.33
767.61	43.8
767.788	44.2
767.967	44.28
768.145	44.32
768.323	44.49
768.501	45.55
768.679	44.55
768.857	44.11
769.035	44.53
769.213	45.55
769.391	44.86
769.569	45.09
769.747	45.05
769.925	44.73
770.103	43.63
770.281	43.31
770.459	43.73
770.636	43.86
770.814	44.88
770.992	43.61
771.17	42.88
771.348	44.03
771.525	44.65
771.703	44.67
771.881	44.44
772.059	46.19
772.236	46.74
772.414	45.41
772.592	44.76
772.769	43.99
772.947	43.82
773.125	43.32
773.302	41.44
773.48	41.6
773.657	41.62
773.835	41.82
774.013	41.71
774.19	44.25
774.368	44.36
774.545	45.51
774.723	45.25
774.9	46.12
775.077	46.07
775.255	46.79
775.432	47.94
775.61	46.81
775.787	46.72
775.964	46.28
776.142	45.49
776.319	44.81
776.496	45.19
776.674	45.78
776.851	46.38
777.028	46.24
777.205	46.34
777.382	43.97
777.56	45.18
777.737	47.18
777.914	46.09
778.091	45.7
778.268	46.33
778.445	45.46
778.622	44.7
778.8	43.86
778.977	44.4
779.154	49.44
779.331	50.94
779.508	52.09
779.685	49.83
779.862	50.47
780.038	48.32
780.215	49.07
780.392	49.83
780.569	49.13
780.746	49.33
780.923	49.03
781.1	44.7
781.277	44.74
781.453	42.75
781.63	41.56
781.807	42.39
781.984	43.56
782.16	43.27
782.337	43.25
782.514	42.74
782.691	45.25
782.867	45.15
783.044	44.91
783.221	44.28
783.397	45.29
783.574	47.34
783.75	48.36
783.927	47.17
784.103	48.18
784.28	48.17
784.456	48.87
784.633	46.32
784.809	48.05
784.986	46.72
785.162	45.8
785.339	44.11
785.515	43.2
785.692	42.33
785.868	44.36
786.044	44.45
786.221	44.4
786.397	45.69
786.573	46.02
786.749	44.46
786.926	47.43
787.102	48.37
787.278	50.26
787.454	52.34
787.631	50.89
787.807	50.58
787.983	49
788.159	48.27
788.335	49.73
788.511	49.4
788.687	50.98
788.863	50
789.039	49.32
789.216	48.61
789.392	47.92
789.568	48.84
789.744	48.87
789.919	48.09
790.095	47.27
790.271	46.08
790.447	45.99
790.623	44.43
790.799	44.33
790.975	44.19
791.151	44.07
791.327	43.9
791.502	44.82
791.678	42.58
791.854	43.59
792.03	46.39
792.205	46.81
792.381	47.73
792.557	48.7
792.733	48.6
792.908	50.95
793.084	50.56
793.259	50.56
793.435	51.22
793.611	53.2
793.786	54.01
793.962	52.44
794.137	52.44
794.313	51.44
794.488	50.63
794.664	50.97
794.839	49
795.015	51.51
795.19	51.5
795.366	50.51
795.541	48.77
795.716	47
795.892	47.86
796.067	47.71
796.242	46.55
796.418	47.17
796.593	47.87
796.768	49.57
796.944	48.58
797.119	47.97
797.294	47.06
797.469	49.03
797.644	50.89
797.82	50.67
797.995	49.69
798.17	49.85
798.345	49.81
798.52	48.51
798.695	47.73
798.87	48.01
799.045	47.84
799.22	50.09
799.395	50.83
799.57	49.92
799.745	50.3
799.92	51.24
800.095	53.01
800.27	54.32
800.445	55.06
800.62	53.14
800.795	51.33
800.97	51.92
801.145	47.44
801.319	47.66
801.494	48.91
801.669	49.54
801.844	49.22
802.018	48.44
802.193	47.81
802.368	46.4
802.543	46.29
802.717	46.15
802.892	47.22
803.067	49.2
803.241	47.83
803.416	47.55
803.59	45.8
803.765	45.27
803.94	47.27
804.114	45.77
804.289	47.6
804.463	49.73
804.638	51.47
804.812	53.07
804.986	52.13
805.161	51.21
805.335	50.19
805.51	51.08
805.684	50.55
805.858	49.08
806.033	49.45
806.207	46.66
806.381	46.98
806.556	47.7
806.73	44.81
806.904	46.83
807.078	47.22
807.253	48.77
807.427	47.43
807.601	47.21
807.775	46.76
807.949	48.25
808.123	49.42
808.298	49.26
808.472	47.91
808.646	46.68
808.82	46.4
808.994	48.23
809.168	46.79
809.342	50
809.516	52.65
809.69	53.64
809.864	53.81
810.038	56.53
810.212	53.76
810.385	55.44
810.559	58.28
810.733	58.34
810.907	55.69
811.081	54.18
811.255	51.82
811.428	49.72
811.602	48.84
811.776	48.23
811.95	45.23
812.123	50.36
812.297	49.94
812.471	50.07
812.644	49.5
812.818	53.33
812.992	53.8
813.165	53.7
813.339	55.97
813.512	55.1
813.686	55.74
813.86	55.58
814.033	53.36
814.207	53.59
814.38	51.5
814.554	52.51
814.727	48.51
814.9	50.74
815.074	51.36
815.247	50.86
815.421	50.47
815.594	50.99
815.767	50.96
815.941	49.76
816.114	48.65
816.287	50.56
816.46	49.37
816.634	53.14
816.807	55.89
816.98	54.63
817.153	55.71
817.327	56.3
817.5	54.5
817.673	56.41
817.846	55.19
818.019	54.53
818.192	50.91
818.365	49.49
818.538	48.1
818.711	44.4
818.884	47.47
819.057	44.64
819.23	44.49
819.403	43.7
819.576	43.22
819.749	44.93
819.922	44.17
820.095	46.55
820.268	48.02
820.441	48
820.614	47.19
820.786	44.53
820.959	44.56
821.132	44.88
821.305	44.23
821.477	43.75
821.65	43.78
821.823	43.58
821.996	42.77
822.168	41.52
822.341	40.69
822.514	40.95
822.686	41.23
822.859	40.84
823.031	40.71
823.204	40.75
823.376	40.73
823.549	40.54
823.722	40.63
823.894	40.99
824.067	41.18
824.239	42.04
824.411	42.61
824.584	42.61
824.756	43.59
824.929	43.66
825.101	43.73
825.273	43.96
825.446	44.67
825.618	44.28
825.79	44.18
825.963	44.21
826.135	43.47
826.307	42.37
826.479	42.73
826.652	41.93
826.824	42.16
826.996	42.02
827.168	41.33
827.34	40.33
827.512	40.44
827.684	39.99
827.856	40.27
828.029	40.21
828.201	40.17
828.373	39.08
828.545	39.45
828.717	39.74
828.889	40.02
829.061	41.38
829.232	41.82
829.404	42.16
829.576	42.24
829.748	42.89
829.92	43.78
830.092	44.61
830.264	46.15
830.436	46.92
830.607	47.04
830.779	48.83
830.951	49.31
831.123	47.95
831.294	48.33
831.466	48.69
831.638	48.02
831.809	47.21
831.981	50.14
832.153	50.17
832.324	48.14
832.496	49.51
832.667	49.65
832.839	47.73
833.011	48.69
833.182	48.18
833.354	47.52
833.525	49.1
833.697	48.56
833.868	44.65
834.039	46.13
834.211	45.93
834.382	43.51
834.554	42.86
834.725	43.76
834.896	44.18
835.068	43.59
835.239	44.08
835.41	43.88
835.581	43.83
835.753	45.21
835.924	43.89
836.095	43.57
836.266	43.16
836.438	42.71
836.609	42.66
836.78	41.74
836.951	44.11
837.122	42.8
837.293	40.81
837.464	41.74
837.635	42.11
837.806	42.68
837.977	46.41
838.148	49.31
838.319	50.08
838.49	51.32
838.661	54.92
838.832	52.82
839.003	56.29
839.174	59.36
839.345	60.1
839.516	61.84
839.687	60.61
839.857	58.79
840.028	60.15
840.199	58.61
840.37	60.04
840.54	60.04
840.711	57.15
840.882	55.46
841.053	56.7
841.223	55.61
841.394	54.22
841.564	57.41
841.735	55.97
841.906	49.21
842.076	43.63
842.247	43.71
842.417	42.39
842.588	44.76
842.758	47.38
842.929	45.32
843.099	48.66
843.27	49.4
843.44	49.81
843.611	51.49
843.781	53.58
843.951	59.97
844.122	59.49
844.292	59.68
844.462	63.35
844.633	61.44
844.803	65.4
844.973	62.8
845.144	63.01
845.314	61.51
845.484	63.94
845.654	64.13
845.824	64.16
845.995	60.61
846.165	61.47
846.335	64.2
846.505	66.32
846.675	64.2
846.845	68.05
847.015	73.61
847.185	68.88
847.355	69.68
847.525	78.73
847.695	90.77
847.865	89.68
848.035	92.64
848.205	84.69
848.375	94.96
848.545	78.62
848.715	75.02
848.884	68.91
849.054	75.39
849.224	71.58
849.394	71.68
849.564	66.23
849.733	73.1
849.903	71.23
850.073	74.08
850.243	64.98
850.412	71.85
850.582	65.66
850.752	59.93
850.921	57.8
851.091	66.02
851.26	69
851.43	69.2
851.599	66.61
851.769	69.7
851.939	74.32
852.108	88.78
852.278	97.34
852.447	98.67
852.616	107.02
852.786	102.86
852.955	97.59
853.125	95.03
853.294	92.13
853.463	88.59
853.633	92.44
853.802	91.37
853.971	90.13
854.141	85.26
854.31	81.39
854.479	70.14
854.648	80.8
854.818	78.16
854.987	74.96
855.156	84.34
855.325	92.55
855.494	93.69
855.663	92.89
855.832	84.15
856.001	91.28
856.171	99.84
856.34	118.47
856.509	124.85
856.678	133.88
856.847	141.6
857.016	129.04
857.185	120.61
857.353	118.22
857.522	118.64
857.691	122.23
857.86	116.22
858.029	111.26
858.198	108.8
858.367	101.77
858.535	103.48
858.704	84.56
858.873	82.06
859.042	91.79
859.21	93.23
859.379	93.53
859.548	87.69
859.717	86.48
859.885	87.19
860.054	78.39
860.222	67.14
860.391	66.19
860.56	82.39
860.728	81.1
860.897	61.92
861.065	58.46
861.234	59.2
861.402	57.1
861.571	55.96
861.739	61.11
861.908	77.81
862.076	85.78
862.244	89.26
862.413	74.34
862.581	75.75
862.749	81.26
862.918	80.1
863.086	82.53
863.254	89.71
863.423	88.75
863.591	94.57
863.759	80.53
863.927	83.16
864.096	75.35
864.264	76.87
864.432	76.24
864.6	83.11
864.768	82.79
864.936	86.78
865.104	85.93
865.272	94.66
865.44	88.19
865.608	82.74
865.776	77.94
865.944	86.09
866.112	87.65
866.28	86.97
866.448	80.75
866.616	81.93
866.784	80.53
866.952	81.28
867.12	77.46
867.288	87.39
867.455	94.19
867.623	104.94
867.791	91.64
867.959	98.15
868.127	96.32
868.294	102.32
868.462	96.75
868.63	84.69
868.797	83.56
868.965	87.77
869.133	78.16
869.3	74.1
869.468	71.91
869.636	65.14
869.803	68.67
869.971	73.41
870.138	68.2
870.306	68.31
870.473	74.63
870.641	74.75
870.808	72.36
870.975	70.38
871.143	70.59
871.31	71.45
871.478	91.45
871.645	84.55
871.812	86.75
871.98	86.35
872.147	85.79
872.314	83.37
872.482	79.46
872.649	74.63
872.816	81.84
872.983	80.58
873.15	82.76
873.318	75.9
873.485	77.5
873.652	67.36
873.819	76.5
873.986	86.05
874.153	105.99
874.32	112.51
874.487	121.99
874.654	103.55
874.821	107.37
874.988	94.54
875.155	90.86
875.322	86.34
875.489	98.32
875.656	83.92
875.823	77.3
875.99	63.45
876.157	61.25
876.324	68.96
876.49	76.81
876.657	79.14
876.824	89.99
876.991	95.21
877.157	98.49
877.324	95.98
877.491	100.69
877.658	105.11
877.824	96.19
877.991	87.23
878.157	88.59
878.324	84.14
878.491	83.33
878.657	79.26
878.824	77.49
878.99	74.72
879.157	77.6
879.323	79.6
879.49	74.3
879.656	84.92
879.823	85.95
879.989	79.65
880.156	80.62
880.322	75.5
880.488	71.45
880.655	73.65
880.821	73.69
880.987	69.4
881.154	61.87
881.32	59.27
881.486	55.97
881.652	58.56
881.819	57.86
881.985	55.41
882.151	55.27
882.317	54.72
882.483	51.35
882.649	52.84
882.816	53.66
882.982	53.7
883.148	52.86
883.314	51.14
883.48	52.62
883.646	50.99
883.812	50.16
883.978	51.65
884.144	52.05
884.31	51.37
884.476	51.08
884.642	50.5
884.807	52.02
884.973	52.82
885.139	53.53
885.305	52.43
885.471	53.22
885.637	53.07
885.802	51.24
885.968	51.8
886.134	53.34
886.3	51.57
886.465	52.48
886.631	49.6
886.797	51.42
886.962	51.76
887.128	53.32
887.293	53.58
887.459	59.96
887.625	62.69
887.79	62.39
887.956	61.35
888.121	65.21
888.287	64.97
888.452	71.37
888.618	71.1
888.783	76.4
