Data from LC_164_Reflection_1.txt Node
Date: Mon Nov 16 22:50:57 EST 2015
User: robert
Spectrometer: USB4E03001
Autoset integration time: false
Trigger mode: 4
Integration Time (sec): 1.000000E-1
Scans to average: 15
Electric dark correction enabled: true
Nonlinearity correction enabled: false
Boxcar width: 5
Stray light correction enabled: false
XAxis mode: Wavelengths
Stop averaging: false
Number of Pixels in Spectrum: 3648
>>>>>Begin Spectral Data<<<<<
177.566	591.57
177.785	194.82
178.005	-193.28
178.225	-82.72
178.445	-224.45
178.665	467.12
178.885	-18.49
179.105	-431.78
179.324	-1640.65
179.544	100.98
179.764	-251.1
179.984	-62.99
180.204	-159.19
180.423	-115.06
180.643	-129.13
180.863	-136.26
181.083	-195.96
181.302	-252.19
181.522	-246.02
181.742	-254.38
181.961	-441.2
182.181	-331.73
182.401	-451.92
182.621	-1670.32
182.84	-817.92
183.06	-533.52
183.279	-330.56
183.499	-206.79
183.719	-180.46
183.938	-132.39
184.158	-86.19
184.377	-32.15
184.597	-104.16
184.816	-88.58
185.036	-47.45
185.256	-20.28
185.475	-34.6
185.695	-27.7
185.914	-95.44
186.134	-209.12
186.353	-320.74
186.572	-652.22
186.792	-967.03
187.011	-416.45
187.231	-371.78
187.45	-263.55
187.67	-741.68
187.889	-2036
188.108	3795.57
188.328	-812.63
188.547	-279.32
188.766	-463.37
188.986	-566.06
189.205	-415.73
189.424	-263.93
189.644	-648.96
189.863	-900.08
190.082	-478.4
190.302	-878.65
190.521	-455.35
190.74	511.52
190.959	252.87
191.178	446.63
191.398	318.95
191.617	273.83
191.836	200
192.055	395
192.274	133.71
192.494	213.42
192.713	301.17
192.932	697.63
193.151	722.15
193.37	1355.56
193.589	-896.97
193.808	-269.26
194.027	-401.2
194.246	-4088.55
194.465	713.9
194.685	1936.34
194.904	884.14
195.123	-1216.88
195.342	-783.69
195.561	-296.09
195.78	-454.06
195.999	16935.21
196.218	608.57
196.436	515.77
196.655	-2096.89
196.874	-893.08
197.093	-1223.58
197.312	-1073.27
197.531	2525.67
197.75	842.05
197.969	-3165.25
198.188	-722.94
198.407	-194.12
198.625	-212.87
198.844	-188.94
199.063	-155.96
199.282	-312.19
199.501	-175.83
199.719	-126.53
199.938	-74.77
200.157	-61.77
200.376	-59.1
200.594	-88.35
200.813	-294.28
201.032	-233.33
201.251	-193.59
201.469	-202.86
201.688	-124.5
201.907	-265.25
202.125	-406.93
202.344	16016.67
202.563	3240.94
202.781	524.28
203	1407.56
203.218	985.02
203.437	833.93
203.656	462
203.874	273.42
204.093	283.92
204.311	373.19
204.53	358.79
204.748	550.5
204.967	313.02
205.185	389.85
205.404	423.54
205.622	277.79
205.841	238.65
206.059	256.48
206.278	286.54
206.496	682.69
206.715	393.81
206.933	311.16
207.151	253.27
207.37	291.1
207.588	253.63
207.806	237.03
208.025	473.15
208.243	-674.4
208.461	1053.06
208.68	-11224.71
208.898	495.35
209.116	449.91
209.335	434.2
209.553	487.88
209.771	4224.58
209.989	985.19
210.208	2053.61
210.426	-3646.76
210.644	2061.75
210.862	-1990.02
211.081	940.58
211.299	-393.45
211.517	1594.2
211.735	-445.95
211.953	-146514.29
212.171	-3997.59
212.39	-10469.37
212.608	-26280.43
212.826	936.76
213.044	612.01
213.262	416
213.48	2377.64
213.698	281.13
213.916	420.54
214.134	263.89
214.352	508.8
214.57	267.63
214.788	359.53
215.006	354.61
215.224	338.37
215.442	270.51
215.66	254.1
215.878	196.07
216.096	215.92
216.314	203.72
216.532	445.71
216.75	358.46
216.968	356.94
217.185	740.44
217.403	1229.95
217.621	-3374.23
217.839	-1073.72
218.057	-1341.43
218.275	2687.04
218.492	881.73
218.71	1537.57
218.928	404.42
219.146	413.08
219.363	360.52
219.581	288.52
219.799	240.35
220.017	228.1
220.234	190.95
220.452	201.37
220.67	234.94
220.887	208.54
221.105	235.65
221.323	202.03
221.54	178.19
221.758	208.32
221.976	236.89
222.193	193.53
222.411	132.81
222.629	164.87
222.846	165.88
223.064	162.23
223.281	159.42
223.499	140.48
223.716	142.95
223.934	114.28
224.151	106.03
224.369	92.02
224.586	110.79
224.804	127.72
225.021	129.85
225.239	108.59
225.456	110.22
225.674	101.69
225.891	85.7
226.108	101.24
226.326	100.71
226.543	86.85
226.76	84.06
226.978	74.58
227.195	76.83
227.413	61.53
227.63	56.26
227.847	46.38
228.064	40.44
228.282	38.65
228.499	34.58
228.716	30.23
228.934	28.81
229.151	28.18
229.368	26.2
229.585	22.97
229.802	26.41
230.02	26.79
230.237	27.92
230.454	30.4
230.671	30.2
230.888	31.12
231.105	35.07
231.323	36.46
231.54	37.11
231.757	35.59
231.974	38.55
232.191	34.84
232.408	38.57
232.625	34.67
232.842	36.8
233.059	37.08
233.276	31.66
233.493	33.49
233.71	35.1
233.927	36.9
234.144	39.45
234.361	34.3
234.578	37.99
234.795	39.07
235.012	41.13
235.229	38.22
235.446	40.29
235.663	39.83
235.879	39.88
236.096	37.2
236.313	34.49
236.53	34.6
236.747	37.2
236.964	34.78
237.181	30.87
237.397	32.54
237.614	37.31
237.831	38.51
238.048	37.59
238.264	37.68
238.481	39.29
238.698	40.02
238.915	40.62
239.131	40.76
239.348	40.9
239.565	41.3
239.781	40.78
239.998	37.14
240.215	33.74
240.431	33.8
240.648	31.95
240.865	28.61
241.081	27.93
241.298	26.79
241.514	27.08
241.731	25.75
241.947	25.99
242.164	24.57
242.38	23.01
242.597	22.94
242.814	23.13
243.03	22.22
243.246	23.73
243.463	23.76
243.679	23.69
243.896	22.22
244.112	22.72
244.329	20.88
244.545	21.37
244.762	19.82
244.978	19.95
245.194	20.35
245.411	18.92
245.627	18.36
245.843	18.81
246.06	18.12
246.276	18.49
246.492	17.72
246.709	18.24
246.925	17.75
247.141	19.63
247.357	18.91
247.574	18.99
247.79	19.05
248.006	18.6
248.222	18.02
248.439	18.59
248.655	18.91
248.871	20.04
249.087	20.13
249.303	20.07
249.519	19.89
249.736	22.29
249.952	21.86
250.168	24.73
250.384	25.81
250.6	26.92
250.816	26.01
251.032	25.18
251.248	22.01
251.464	20.65
251.68	20.89
251.896	20.38
252.112	16.8
252.328	17.58
252.544	16.75
252.76	16.54
252.976	16
253.192	16.09
253.408	18.36
253.624	21.17
253.84	22.41
254.056	23.53
254.272	24.5
254.487	27.9
254.703	27.13
254.919	27.15
255.135	28.84
255.351	29.45
255.567	31.98
255.782	30.68
255.998	29.2
256.214	27.66
256.43	25.96
256.646	25.74
256.861	24.46
257.077	26.75
257.293	25.93
257.508	22.93
257.724	24.61
257.94	23.6
258.155	20.78
258.371	19.61
258.587	18.9
258.802	19
259.018	18.42
259.234	17.69
259.449	16.56
259.665	16.92
259.88	17.72
260.096	17.12
260.312	16.06
260.527	16.15
260.743	16.67
260.958	17.68
261.174	17.84
261.389	18.17
261.605	18.41
261.82	18.82
262.036	18.44
262.251	18.5
262.466	18.47
262.682	20.22
262.897	21.43
263.113	21.07
263.328	20.8
263.543	20.61
263.759	20.36
263.974	21.94
264.189	23.17
264.405	23.68
264.62	24.06
264.835	23.45
265.051	23.44
265.266	24.3
265.481	24.41
265.696	25.19
265.912	24.21
266.127	21.92
266.342	19.53
266.557	19.16
266.773	18.84
266.988	19.09
267.203	19.79
267.418	18.48
267.633	17.21
267.848	17.8
268.064	15.98
268.279	17.21
268.494	17.43
268.709	17.68
268.924	17.96
269.139	18.23
269.354	17
269.569	15.22
269.784	15.28
269.999	15.87
270.214	15.23
270.429	15.65
270.644	14.68
270.859	14.76
271.074	16.02
271.289	14.22
271.504	13.84
271.719	14.19
271.934	15.17
272.149	16.31
272.363	16.82
272.578	15.95
272.793	15.25
273.008	15.11
273.223	14.52
273.438	13.28
273.653	14.45
273.867	14.11
274.082	14.18
274.297	14.08
274.512	13.13
274.726	11.12
274.941	10.38
275.156	11.84
275.371	11.32
275.585	13.48
275.8	14.62
276.015	14.19
276.229	14.77
276.444	15.15
276.659	15.3
276.873	15.89
277.088	18
277.302	19.51
277.517	19.33
277.732	21.18
277.946	19.87
278.161	20.61
278.375	20.02
278.59	19.79
278.804	19.81
279.019	20.33
279.233	19.32
279.448	18.26
279.662	17.75
279.877	17.18
280.091	16.01
280.306	15.54
280.52	14.81
280.735	14.24
280.949	14.04
281.163	13.81
281.378	12.07
281.592	12.2
281.806	11.96
282.021	12.32
282.235	12.67
282.449	13.12
282.664	14.75
282.878	14.4
283.092	15.73
283.307	16.22
283.521	16.49
283.735	17.26
283.949	18.19
284.164	18
284.378	18.72
284.592	18.67
284.806	18.72
285.02	17.89
285.234	18.32
285.449	17.74
285.663	16.76
285.877	16.34
286.091	16.03
286.305	15.49
286.519	15.61
286.733	13.53
286.947	13.42
287.161	13.17
287.375	13.83
287.589	13.46
287.803	14.21
288.017	14.77
288.231	14.55
288.445	14.47
288.659	15.11
288.873	14.49
289.087	15.97
289.301	16.25
289.515	15.66
289.729	14.36
289.943	14.3
290.157	13.93
290.371	15.67
290.584	15.9
290.798	16.3
291.012	15.88
291.226	16.04
291.44	16.13
291.654	16.12
291.867	16.91
292.081	16.77
292.295	18.11
292.509	17.7
292.722	16.8
292.936	16.78
293.15	17.68
293.364	17.62
293.577	18.64
293.791	18.32
294.005	18.68
294.218	18.77
294.432	19.6
294.645	18.58
294.859	18.25
295.073	17.19
295.286	17.64
295.5	16.76
295.713	17.18
295.927	17.53
296.14	17.93
296.354	17.36
296.568	16.55
296.781	16.66
296.994	16.8
297.208	16.89
297.421	17.17
297.635	16.96
297.848	17.26
298.062	16.7
298.275	16.5
298.489	16.17
298.702	16.12
298.915	16.52
299.129	16.66
299.342	16
299.555	17.47
299.769	18.52
299.982	18.38
300.195	18.74
300.409	19.99
300.622	19.94
300.835	21.74
301.048	22.06
301.262	22.73
301.475	21.18
301.688	22.35
301.901	22
302.115	21.49
302.328	21.95
302.541	21.26
302.754	21.08
302.967	21.42
303.18	21.27
303.393	21.61
303.607	20.46
303.82	21.65
304.033	21.53
304.246	21.36
304.459	21.53
304.672	21.55
304.885	22.16
305.098	20.63
305.311	20.82
305.524	20.98
305.737	20.56
305.95	22.2
306.163	21.14
306.376	20.32
306.589	20.05
306.802	19.06
307.015	19.57
307.228	19.84
307.44	20.57
307.653	19.94
307.866	18.57
308.079	20.56
308.292	20.42
308.505	21.72
308.718	21.74
308.93	21.37
309.143	21.87
309.356	21.57
309.569	21.25
309.781	21.94
309.994	21.27
310.207	21.41
310.42	18.89
310.632	17.65
310.845	18.05
311.058	16.96
311.27	17.52
311.483	17.16
311.696	16.66
311.908	16.36
312.121	15.94
312.333	17.54
312.546	17.19
312.759	17.98
312.971	18.38
313.184	18.9
313.396	19.92
313.609	19.8
313.821	20.08
314.034	20.38
314.246	21.08
314.459	20.56
314.671	19.74
314.884	19.84
315.096	18.05
315.309	18.17
315.521	17.44
315.733	16.92
315.946	15.38
316.158	15.92
316.371	15.65
316.583	14.86
316.795	15.45
317.008	14.97
317.22	15.72
317.432	18.16
317.644	18.29
317.857	18.18
318.069	19.78
318.281	20.74
318.494	20.07
318.706	20.5
318.918	20.23
319.13	20.92
319.342	21.32
319.555	21.95
319.767	21.66
319.979	21.53
320.191	21.18
320.403	20.93
320.615	21.44
320.827	21.68
321.039	21.58
321.252	22.05
321.464	20.7
321.676	20.88
321.888	19.63
322.1	19.97
322.312	18.59
322.524	18.9
322.736	18.51
322.948	17.15
323.16	16.66
323.372	16.76
323.584	16.56
323.796	16.86
324.007	16.18
324.219	16.33
324.431	16.04
324.643	16.23
324.855	16.17
325.067	15.76
325.279	16.4
325.491	17.34
325.702	16.74
325.914	16.75
326.126	17.57
326.338	18.39
326.55	18.86
326.761	19.64
326.973	20.24
327.185	20.85
327.396	21.95
327.608	21.93
327.82	21.13
328.032	22.6
328.243	22.45
328.455	22.73
328.666	22.84
328.878	22.27
329.09	21.01
329.301	20.93
329.513	20.09
329.725	19.43
329.936	19.53
330.148	19.84
330.359	18.13
330.571	18.66
330.782	17.63
330.994	18.1
331.205	17.72
331.417	18.33
331.628	19.03
331.84	19.69
332.051	19.67
332.262	19.7
332.474	19.41
332.685	20.54
332.897	19.43
333.108	20.65
333.319	19.13
333.531	18.99
333.742	19.64
333.953	18.4
334.165	17.98
334.376	17.65
334.587	18.06
334.799	18.04
335.01	16.59
335.221	17.29
335.432	16.42
335.644	16.6
335.855	16.93
336.066	16.92
336.277	17.92
336.488	18.22
336.7	18.1
336.911	18.35
337.122	18.26
337.333	19.58
337.544	19.64
337.755	19.22
337.966	19.39
338.177	19.3
338.388	18.81
338.599	18.77
338.811	18.38
339.022	17.84
339.233	17.56
339.444	18.1
339.655	16.32
339.866	17.01
340.076	18.01
340.287	18.29
340.498	17.64
340.709	17.24
340.92	17.02
341.131	17.18
341.342	17.56
341.553	17.15
341.764	16.7
341.975	17.92
342.185	17.11
342.396	16.99
342.607	16.65
342.818	16.76
343.029	16.98
343.239	17.34
343.45	16.92
343.661	16.89
343.872	16.46
344.082	16.59
344.293	16.65
344.504	16.64
344.714	15.4
344.925	15.14
345.136	15.55
345.346	14.22
345.557	14.2
345.768	14.54
345.978	15
346.189	15.75
346.399	15.24
346.61	14.94
346.821	15.42
347.031	16.87
347.242	16.25
347.452	17.03
347.663	18.34
347.873	18.58
348.084	18.46
348.294	18.25
348.504	17.99
348.715	19.02
348.925	18.82
349.136	17.69
349.346	16.53
349.557	17.38
349.767	16.72
349.977	15.78
350.188	15.86
350.398	16.18
350.608	15.71
350.819	15.4
351.029	14.37
351.239	14.43
351.449	14.62
351.66	15.14
351.87	15.25
352.08	14.81
352.29	15.67
352.501	14.78
352.711	14.18
352.921	14.7
353.131	15.38
353.341	15.87
353.552	15.69
353.762	16.16
353.972	16
354.182	16.41
354.392	17.04
354.602	16.69
354.812	17.01
355.022	17.25
355.232	17.02
355.442	16.44
355.652	15.86
355.862	15.59
356.072	15.49
356.282	15.14
356.492	15.09
356.702	14.23
356.912	14.73
357.122	14.95
357.332	14.99
357.542	15.26
357.752	15.59
357.962	15.91
358.171	15.87
358.381	16.37
358.591	16.29
358.801	15.83
359.011	16.1
359.221	15.68
359.43	15.62
359.64	15.63
359.85	15.17
360.06	14.93
360.269	15.07
360.479	14.85
360.689	13.98
360.899	14.18
361.108	14.16
361.318	14.28
361.528	14.17
361.737	13.52
361.947	13.08
362.156	13.08
362.366	12.98
362.576	12.62
362.785	12.99
362.995	13.16
363.204	13.52
363.414	13.26
363.623	12.96
363.833	13.7
364.042	13.74
364.252	14.11
364.461	13.93
364.671	13.85
364.88	14.43
365.09	14.73
365.299	15.19
365.509	14.61
365.718	14.34
365.927	14.24
366.137	14.11
366.346	14.56
366.555	14.22
366.765	14.61
366.974	15
367.183	14.11
367.393	13.55
367.602	12.94
367.811	12.76
368.021	12.94
368.23	13.19
368.439	12.49
368.648	12.35
368.857	12.68
369.067	12.46
369.276	12.14
369.485	12.6
369.694	12.66
369.903	13.13
370.112	13.34
370.321	13.59
370.531	13.17
370.74	13.16
370.949	13.21
371.158	12.8
371.367	13.26
371.576	13.02
371.785	12.99
371.994	13.04
372.203	13.01
372.412	13.24
372.621	13.48
372.83	13.71
373.039	13.88
373.248	13.5
373.457	13.9
373.666	13.14
373.874	12.97
374.083	12.89
374.292	12.96
374.501	12.26
374.71	11.55
374.919	11.48
375.128	11.61
375.336	11.5
375.545	12.05
375.754	11.36
375.963	11.2
376.171	11.38
376.38	11.48
376.589	11.62
376.798	11.48
377.006	12.11
377.215	12.52
377.424	12.33
377.632	12.19
377.841	12.16
378.05	12.39
378.258	12.48
378.467	12.26
378.675	12.22
378.884	12.19
379.093	12.42
379.301	11.78
379.51	10.9
379.718	10.68
379.927	10.91
380.135	10.28
380.344	10.22
380.552	10.11
380.761	10.28
380.969	9.81
381.177	9.56
381.386	9.51
381.594	9.83
381.803	9.95
382.011	10.12
382.219	9.3
382.428	9.05
382.636	8.73
382.845	9.14
383.053	9.14
383.261	9.43
383.469	9.65
383.678	9.85
383.886	9.59
384.094	9.24
384.302	9.19
384.511	9.88
384.719	10.1
384.927	10.39
385.135	10.43
385.343	10.34
385.552	10.33
385.76	9.91
385.968	9.81
386.176	9.9
386.384	9.96
386.592	9.95
386.8	9.66
387.008	10.04
387.216	10.22
387.424	9.95
387.633	9.86
387.841	9.49
388.049	9.38
388.257	9.48
388.465	9.33
388.672	9.78
388.88	10.02
389.088	10.02
389.296	9.71
389.504	9.64
389.712	9.96
389.92	9.92
390.128	9.93
390.336	10.19
390.544	10.25
390.751	10.31
390.959	9.8
391.167	9.64
391.375	9.86
391.583	9.78
391.79	9.47
391.998	9.18
392.206	9.47
392.414	9.6
392.621	9.59
392.829	9.77
393.037	9.54
393.244	9.53
393.452	9.76
393.66	9.82
393.867	9.87
394.075	9.93
394.283	9.93
394.49	9.79
394.698	9.79
394.905	9.55
395.113	9.29
395.32	9.6
395.528	9.94
395.735	9.69
395.943	9.36
396.15	9.42
396.358	9.22
396.565	9.21
396.773	9.1
396.98	9.1
397.188	9.23
397.395	9.2
397.602	9
397.81	8.77
398.017	8.86
398.225	8.9
398.432	8.95
398.639	9.24
398.847	9.13
399.054	8.94
399.261	8.94
399.468	9.2
399.676	9.11
399.883	9.2
400.09	9.25
400.297	9.25
400.505	9.53
400.712	9.3
400.919	9.42
401.126	9.57
401.333	9.93
401.54	9.92
401.748	9.57
401.955	9.59
402.162	9.81
402.369	9.83
402.576	9.72
402.783	9.23
402.99	9.36
403.197	9.12
403.404	9.06
403.611	8.79
403.818	8.84
404.025	8.8
404.232	8.72
404.439	8.49
404.646	8.22
404.853	8.1
405.06	8.12
405.267	7.79
405.474	7.83
405.681	7.63
405.887	7.72
406.094	7.56
406.301	7.9
406.508	8.01
406.715	8.15
406.922	8.37
407.128	8.27
407.335	8.58
407.542	9.01
407.749	9.11
407.955	9.63
408.162	9.51
408.369	9.86
408.575	9.58
408.782	9.38
408.989	9.21
409.195	9.31
409.402	9.54
409.609	9.58
409.815	9.65
410.022	9.43
410.228	9.15
410.435	9.37
410.642	8.87
410.848	8.82
411.055	8.85
411.261	8.85
411.468	8.88
411.674	8.68
411.881	8.2
412.087	8.34
412.294	8.31
412.5	8.06
412.706	7.88
412.913	8.12
413.119	8.17
413.326	8.1
413.532	8.21
413.738	7.77
413.945	8.07
414.151	7.97
414.357	7.88
414.564	7.89
414.77	7.97
414.976	7.91
415.182	8.04
415.389	7.96
415.595	7.95
415.801	7.73
416.007	8.04
416.214	7.95
416.42	8.33
416.626	8.02
416.832	7.96
417.038	8.03
417.244	8.01
417.45	7.83
417.657	7.98
417.863	8.25
418.069	8.39
418.275	8.29
418.481	8.24
418.687	8.25
418.893	8.39
419.099	8.43
419.305	8.46
419.511	8.47
419.717	8.53
419.923	8.42
420.129	8.2
420.335	8.25
420.541	8.34
420.746	8.37
420.952	8.3
421.158	8.22
421.364	8.27
421.57	8.34
421.776	8.38
421.982	8.31
422.187	8.21
422.393	8.19
422.599	8.04
422.805	7.96
423.01	7.9
423.216	7.85
423.422	7.79
423.628	7.79
423.833	7.6
424.039	7.72
424.245	7.76
424.45	7.88
424.656	7.94
424.862	7.98
425.067	8
425.273	7.91
425.478	7.94
425.684	7.97
425.889	7.99
426.095	8.14
426.301	7.96
426.506	8
426.712	8.09
426.917	8.09
427.123	8.15
427.328	8.17
427.533	8.38
427.739	8.41
427.944	8.55
428.15	8.38
428.355	8.41
428.561	8.47
428.766	8.43
428.971	8.34
429.177	8.41
429.382	8.45
429.587	8.58
429.793	8.3
429.998	8.38
430.203	8.17
430.408	8.34
430.614	8.2
430.819	8.12
431.024	8.07
431.229	7.99
431.434	7.97
431.64	7.74
431.845	7.67
432.05	7.84
432.255	7.83
432.46	7.84
432.665	7.72
432.87	7.71
433.076	7.71
433.281	7.86
433.486	7.91
433.691	7.79
433.896	7.76
434.101	7.71
434.306	7.77
434.511	7.61
434.716	7.76
434.921	7.88
435.126	7.8
435.331	7.84
435.535	7.63
435.74	7.64
435.945	7.74
436.15	7.86
436.355	8.09
436.56	8.22
436.765	8.46
436.97	8.19
437.174	8.1
437.379	8.29
437.584	8.45
437.789	8.41
437.993	8.46
438.198	8.5
438.403	8.72
438.608	8.58
438.812	8.38
439.017	8.25
439.222	8.37
439.426	8.32
439.631	8.24
439.836	7.96
440.04	8.01
440.245	7.92
440.45	7.92
440.654	7.84
440.859	7.71
441.063	7.74
441.268	7.73
441.472	7.79
441.677	7.75
441.881	7.61
442.086	7.79
442.29	7.72
442.495	7.71
442.699	7.7
442.904	7.55
443.108	7.67
443.312	7.56
443.517	7.55
443.721	7.42
443.925	7.54
444.13	7.55
444.334	7.51
444.538	7.58
444.743	7.66
444.947	7.63
445.151	7.59
445.356	7.44
445.56	7.65
445.764	7.6
445.968	7.56
446.173	7.65
446.377	7.79
446.581	7.65
446.785	7.61
446.989	7.57
447.193	7.53
447.398	7.56
447.602	7.63
447.806	7.57
448.01	7.76
448.214	7.84
448.418	7.73
448.622	7.69
448.826	7.89
449.03	7.9
449.234	8.03
449.438	8.05
449.642	8.1
449.846	8.01
450.05	7.92
450.254	7.56
450.458	7.78
450.662	7.84
450.866	7.73
451.069	7.65
451.273	7.72
451.477	7.46
451.681	7.36
451.885	7.27
452.089	7.43
452.292	7.4
452.496	7.6
452.7	7.37
452.904	7.31
453.107	7.41
453.311	7.54
453.515	7.45
453.719	7.45
453.922	7.61
454.126	7.6
454.33	7.65
454.533	7.52
454.737	7.42
454.94	7.43
455.144	7.42
455.348	7.54
455.551	7.4
455.755	7.27
455.958	7.31
456.162	7.16
456.365	7.16
456.569	6.94
456.772	7.03
456.976	7.06
457.179	7.11
457.383	6.96
457.586	7
457.79	6.95
457.993	7.18
458.196	7.04
458.4	7.02
458.603	7.02
458.807	7.17
459.01	7.23
459.213	7.14
459.417	6.99
459.62	7.11
459.823	6.94
460.026	6.94
460.23	6.83
460.433	7.03
460.636	7.09
460.839	7.15
461.042	7.17
461.246	7.26
461.449	7.25
461.652	7.36
461.855	7.31
462.058	7.23
462.261	7.06
462.464	7.12
462.668	7.18
462.871	7.2
463.074	7.2
463.277	6.83
463.48	6.8
463.683	6.94
463.886	6.94
464.089	6.89
464.292	7.15
464.495	7.34
464.698	7.25
464.901	6.97
465.104	6.89
465.306	6.7
465.509	6.96
465.712	6.87
465.915	6.84
466.118	6.81
466.321	6.92
466.524	6.97
466.726	7.07
466.929	7.17
467.132	7.3
467.335	7.38
467.538	7.45
467.74	7.41
467.943	7.58
468.146	7.64
468.348	7.69
468.551	7.78
468.754	7.63
468.956	7.54
469.159	7.7
469.362	7.74
469.564	7.62
469.767	7.64
469.969	7.72
470.172	7.41
470.375	7.24
470.577	7.31
470.78	7.2
470.982	7.14
471.185	7.24
471.387	7.12
471.59	6.95
471.792	7.05
471.995	7.02
472.197	7
472.399	6.97
472.602	6.86
472.804	6.81
473.007	6.88
473.209	6.95
473.411	6.82
473.614	6.79
473.816	6.93
474.018	6.95
474.22	7.08
474.423	7.1
474.625	7.15
474.827	7.52
475.03	7.6
475.232	7.55
475.434	7.67
475.636	7.8
475.838	7.74
476.04	7.6
476.243	7.55
476.445	7.45
476.647	7.44
476.849	7.4
477.051	7.2
477.253	7.2
477.455	7.25
477.657	7.1
477.859	7.1
478.061	7.1
478.263	7.07
478.465	7.16
478.667	7.07
478.869	6.99
479.071	7.02
479.273	7.1
479.475	6.95
479.677	6.86
479.879	6.83
480.081	6.79
480.283	6.82
480.485	6.9
480.686	6.82
480.888	6.97
481.09	6.99
481.292	7.02
481.494	7
481.695	7.02
481.897	6.87
482.099	6.83
482.301	6.81
482.502	6.78
482.704	6.76
482.906	6.78
483.107	6.75
483.309	6.73
483.511	6.75
483.712	6.66
483.914	6.6
484.115	6.64
484.317	6.62
484.519	6.57
484.72	6.55
484.922	6.54
485.123	6.57
485.325	6.53
485.526	6.55
485.728	6.52
485.929	6.54
486.131	6.64
486.332	6.64
486.534	6.66
486.735	6.73
486.936	6.67
487.138	6.63
487.339	6.51
487.541	6.52
487.742	6.53
487.943	6.5
488.144	6.5
488.346	6.4
488.547	6.39
488.748	6.43
488.95	6.35
489.151	6.43
489.352	6.48
489.553	6.53
489.755	6.53
489.956	6.46
490.157	6.52
490.358	6.52
490.559	6.68
490.76	6.68
490.961	6.62
491.163	6.72
491.364	6.75
491.565	6.69
491.766	6.65
491.967	6.71
492.168	6.71
492.369	6.7
492.57	6.67
492.771	6.66
492.972	6.72
493.173	6.81
493.374	6.73
493.575	6.77
493.776	6.85
493.976	6.93
494.177	6.94
494.378	7.06
494.579	7.05
494.78	7.25
494.981	7.22
495.182	7.18
495.382	7.11
495.583	7.11
495.784	7.04
495.985	7.01
496.185	7.04
496.386	6.98
496.587	7.07
496.788	7.1
496.988	7.05
497.189	7.09
497.39	7.17
497.59	7.18
497.791	7.25
497.992	7.24
498.192	7.25
498.393	7.28
498.593	7.39
498.794	7.3
498.994	7.47
499.195	7.51
499.395	7.61
499.596	7.68
499.796	7.72
499.997	7.8
500.197	7.97
500.398	8.19
500.598	8.13
500.799	8.11
500.999	8.09
501.199	7.95
501.4	7.94
501.6	7.68
501.801	7.58
502.001	7.6
502.201	7.68
502.402	7.57
502.602	7.37
502.802	7.43
503.002	7.4
503.203	7.54
503.403	7.57
503.603	7.51
503.803	7.65
504.003	7.73
504.204	7.73
504.404	7.58
504.604	7.45
504.804	7.61
505.004	7.6
505.204	7.67
505.404	7.55
505.604	7.67
505.804	7.69
506.005	7.62
506.205	7.52
506.405	7.68
506.605	7.74
506.805	7.89
507.005	7.98
507.204	7.98
507.404	7.99
507.604	7.97
507.804	7.9
508.004	7.95
508.204	8
508.404	8.12
508.604	8.08
508.804	8.1
509.003	8.17
509.203	8.05
509.403	8.14
509.603	8.08
509.803	8.33
510.002	8.35
510.202	8.34
510.402	8.34
510.602	8.34
510.801	8.35
511.001	8.39
511.201	8.3
511.4	8.24
511.6	8.26
511.8	8.24
511.999	8.22
512.199	8.18
512.398	8.26
512.598	8.45
512.797	8.57
512.997	8.6
513.197	8.65
513.396	8.72
513.596	8.88
513.795	9.01
513.994	9.11
514.194	8.98
514.393	9.08
514.593	9.13
514.792	9.12
514.992	8.98
515.191	8.97
515.39	8.88
515.59	8.9
515.789	8.89
515.988	8.74
516.188	8.72
516.387	8.76
516.586	8.68
516.786	8.73
516.985	8.69
517.184	8.74
517.383	8.82
517.582	8.84
517.782	8.9
517.981	8.86
518.18	8.88
518.379	8.98
518.578	8.98
518.777	9.09
518.976	9.03
519.176	9.12
519.375	9.14
519.574	9.14
519.773	9.28
519.972	9.2
520.171	9.22
520.37	9.37
520.569	9.4
520.768	9.44
520.967	9.57
521.166	9.65
521.365	9.57
521.564	9.63
521.762	9.67
521.961	9.7
522.16	9.8
522.359	9.84
522.558	9.79
522.757	9.79
522.956	9.91
523.154	9.79
523.353	9.83
523.552	9.79
523.751	9.93
523.949	9.97
524.148	10
524.347	10.05
524.546	10.17
524.744	10.07
524.943	10.09
525.142	9.98
525.34	10.11
525.539	10.05
525.737	10.13
525.936	10.05
526.135	9.97
526.333	9.84
526.532	9.8
526.73	9.8
526.929	9.84
527.127	9.96
527.326	10
527.524	10
527.723	10.03
527.921	10.1
528.12	10.15
528.318	10.2
528.516	10.26
528.715	10.26
528.913	10.21
529.112	10.23
529.31	10.15
529.508	10.21
529.707	10.15
529.905	10.21
530.103	10.22
530.301	10.24
530.5	10.28
530.698	10.35
530.896	10.46
531.094	10.61
531.293	10.71
531.491	10.81
531.689	10.82
531.887	10.97
532.085	11.03
532.283	10.98
532.481	11.02
532.68	11
532.878	11.04
533.076	11.06
533.274	11
533.472	11.06
533.67	10.97
533.868	11.03
534.066	11.02
534.264	11.02
534.462	11.08
534.66	11.08
534.858	11.12
535.056	11.13
535.253	11.1
535.451	11.3
535.649	11.27
535.847	11.58
536.045	11.54
536.243	11.62
536.441	11.79
536.638	11.85
536.836	11.89
537.034	11.97
537.232	11.95
537.43	12.05
537.627	12.06
537.825	12.11
538.023	12
538.22	12.3
538.418	12.34
538.616	12.27
538.813	12.36
539.011	12.63
539.209	12.66
539.406	12.8
539.604	13.09
539.801	13.15
539.999	13.27
540.196	13.35
540.394	13.31
540.591	13.32
540.789	13.35
540.986	13.29
541.184	13.21
541.381	13.27
541.579	13.27
541.776	13.18
541.974	13.14
542.171	13.15
542.368	13.14
542.566	13.11
542.763	13.19
542.96	13.2
543.158	13.33
543.355	13.42
543.552	13.46
543.75	13.57
543.947	13.54
544.144	13.57
544.341	13.66
544.539	13.72
544.736	13.84
544.933	13.87
545.13	13.97
545.327	13.76
545.524	13.71
545.722	13.81
545.919	13.85
546.116	14.03
546.313	14.13
546.51	14.13
546.707	14.27
546.904	14.23
547.101	14.31
547.298	14.37
547.495	14.63
547.692	14.69
547.889	14.64
548.086	14.75
548.283	14.71
548.48	14.91
548.677	14.91
548.874	14.9
549.07	15.08
549.267	15.14
549.464	15.12
549.661	15.22
549.858	15.41
550.055	15.7
550.251	15.64
550.448	15.79
550.645	15.66
550.842	15.78
551.038	15.92
551.235	15.86
551.432	15.78
551.628	15.96
551.825	16.14
552.022	16.11
552.218	16.12
552.415	16.28
552.612	16.17
552.808	16.26
553.005	16.42
553.201	16.55
553.398	16.66
553.594	16.76
553.791	16.91
553.987	16.96
554.184	17.12
554.38	17.08
554.577	17.12
554.773	17.34
554.97	17.58
555.166	17.78
555.362	17.72
555.559	17.94
555.755	18.05
555.952	17.92
556.148	17.85
556.344	17.93
556.541	18.04
556.737	18.12
556.933	18.2
557.129	18.06
557.326	17.92
557.522	18.18
557.718	18.25
557.914	18.17
558.11	18.21
558.307	18.25
558.503	18.26
558.699	18.28
558.895	18.45
559.091	18.43
559.287	18.61
559.483	18.73
559.679	18.85
559.876	18.64
560.072	18.94
560.268	19.13
560.464	19.14
560.66	19.07
560.856	19.34
561.052	19.34
561.247	19.41
561.443	19.47
561.639	19.46
561.835	19.47
562.031	19.65
562.227	19.6
562.423	19.39
562.619	19.62
562.815	19.86
563.01	19.95
563.206	20.08
563.402	20.1
563.598	20.11
563.793	20.13
563.989	19.9
564.185	19.95
564.381	20.05
564.576	20.46
564.772	20.53
564.968	20.66
565.163	20.48
565.359	20.42
565.555	20.6
565.75	20.72
565.946	20.89
566.141	21.04
566.337	21.2
566.532	21.38
566.728	21.38
566.923	21.38
567.119	21.17
567.314	21.22
567.51	21.32
567.705	21.35
567.901	21.36
568.096	21.43
568.292	21.62
568.487	21.72
568.682	21.68
568.878	21.57
569.073	21.74
569.268	22.05
569.464	22.21
569.659	22.29
569.854	22.4
570.05	22.5
570.245	22.53
570.44	22.52
570.635	22.48
570.831	22.35
571.026	22.65
571.221	22.61
571.416	22.53
571.611	22.56
571.806	22.62
572.002	22.63
572.197	22.67
572.392	22.54
572.587	22.58
572.782	22.66
572.977	22.88
573.172	22.96
573.367	22.99
573.562	23.17
573.757	23.06
573.952	23.13
574.147	23.33
574.342	23.52
574.537	23.72
574.732	23.79
574.927	23.75
575.121	23.97
575.316	23.98
575.511	23.96
575.706	23.95
575.901	24.23
576.096	24.34
576.29	24.25
576.485	24.31
576.68	24.53
576.875	24.54
577.069	24.58
577.264	24.45
577.459	24.5
577.654	24.74
577.848	24.86
578.043	24.9
578.238	24.87
578.432	24.78
578.627	24.56
578.821	24.58
579.016	24.55
579.21	24.77
579.405	24.64
579.6	24.64
579.794	24.62
579.989	24.53
580.183	24.91
580.378	25.08
580.572	25.4
580.766	25.64
580.961	25.35
581.155	25.47
581.35	25.5
581.544	25.74
581.738	25.8
581.933	26.06
582.127	26.37
582.321	26.09
582.516	25.84
582.71	25.71
582.904	25.83
583.099	26.02
583.293	25.94
583.487	26.04
583.681	26.32
583.875	26.36
584.07	26.43
584.264	26.16
584.458	26.1
584.652	26.16
584.846	26.24
585.04	26.08
585.234	26.03
585.428	26.32
585.623	26.06
585.817	25.78
586.011	25.69
586.205	25.66
586.399	25.84
586.593	25.94
586.787	26.12
586.981	26.19
587.174	26.28
587.368	26.37
587.562	26.49
587.756	26.73
587.95	26.86
588.144	27
588.338	27.06
588.532	27.12
588.725	27.18
588.919	27.2
589.113	27.2
589.307	27.35
589.501	27.49
589.694	27.44
589.888	27.39
590.082	27.62
590.275	27.66
590.469	27.66
590.663	27.49
590.856	27.61
591.05	27.64
591.244	27.54
591.437	27.65
591.631	27.61
591.824	27.75
592.018	27.84
592.212	27.82
592.405	27.75
592.599	27.75
592.792	27.78
592.986	27.76
593.179	28.08
593.372	28.41
593.566	28.47
593.759	28.6
593.953	28.47
594.146	28.5
594.339	28.57
594.533	28.79
594.726	28.7
594.92	28.89
595.113	28.99
595.306	28.73
595.499	28.57
595.693	28.41
595.886	28.7
596.079	28.88
596.272	29.04
596.466	28.98
596.659	28.92
596.852	29.09
597.045	29.13
597.238	29.09
597.431	29.22
597.624	29.36
597.818	29.48
598.011	29.35
598.204	29.29
598.397	29.26
598.59	29.14
598.783	29.21
598.976	29.12
599.169	29.11
599.362	29.24
599.555	29.54
599.748	29.78
599.941	29.71
600.134	29.84
600.326	30.11
600.519	30.3
600.712	30.41
600.905	30.42
601.098	30.55
601.291	30.92
601.483	30.97
601.676	30.87
601.869	30.48
602.062	30.79
602.255	30.58
602.447	30.52
602.64	30.38
602.833	30.6
603.025	30.47
603.218	30.69
603.411	30.47
603.603	30.4
603.796	30.33
603.989	30.55
604.181	30.34
604.374	30.62
604.566	30.55
604.759	30.62
604.951	30.66
605.144	30.71
605.336	30.69
605.529	30.67
605.721	30.73
605.914	30.81
606.106	30.84
606.299	31.1
606.491	31.11
606.683	31.19
606.876	31.06
607.068	31.09
607.26	31.2
607.453	31.2
607.645	31.36
607.837	31.26
608.03	31.34
608.222	31.26
608.414	31.25
608.606	31.15
608.799	31.18
608.991	31.37
609.183	31.42
609.375	31.64
609.567	31.61
609.759	31.62
609.952	31.75
610.144	31.76
610.336	31.87
610.528	31.72
610.72	31.56
610.912	31.64
611.104	31.77
611.296	31.57
611.488	31.41
611.68	31.41
611.872	31.47
612.064	31.89
612.256	31.83
612.448	31.83
612.64	31.72
612.832	31.85
613.023	31.98
613.215	32.01
613.407	32.14
613.599	32.38
613.791	32.25
613.983	32.24
614.174	31.87
614.366	32.07
614.558	31.99
614.75	32.27
614.941	32.36
615.133	32.45
615.325	32.42
615.516	32.29
615.708	32.03
615.9	32.1
616.091	31.98
616.283	32.01
616.475	31.78
616.666	31.93
616.858	32.24
617.049	32.13
617.241	31.98
617.432	31.9
617.624	32.27
617.815	32.44
618.007	32.59
618.198	33.03
618.39	32.9
618.581	32.96
618.773	32.93
618.964	32.78
619.155	33.02
619.347	32.99
619.538	33.35
619.729	33.22
619.921	33.36
620.112	33.43
620.303	33.28
620.494	33.41
620.686	33.55
620.877	33.38
621.068	33.27
621.259	33.3
621.451	33.42
621.642	33.08
621.833	32.98
622.024	33.16
622.215	33.22
622.406	33.28
622.597	33.34
622.788	33.27
622.98	33.48
623.171	33.46
623.362	33.53
623.553	33.67
623.744	33.67
623.935	34.11
624.126	33.87
624.317	33.86
624.508	33.92
624.698	33.76
624.889	33.96
625.08	34.29
625.271	34.74
625.462	34.76
625.653	34.47
625.844	34.48
626.034	34.15
626.225	34.05
626.416	33.91
626.607	33.88
626.798	34.26
626.988	34.19
627.179	34.2
627.37	33.87
627.56	33.92
627.751	33.96
627.942	34.01
628.132	34
628.323	34.17
628.514	34.52
628.704	34.53
628.895	34.3
629.085	34.01
629.276	33.74
629.466	33.86
629.657	33.78
629.847	33.79
630.038	33.8
630.228	33.91
630.419	33.97
630.609	33.71
630.8	33.58
630.99	33.48
631.181	34.14
631.371	34.3
631.561	34.49
631.752	34.72
631.942	34.76
632.132	34.71
632.323	34.64
632.513	34.76
632.703	34.8
632.893	35.03
633.084	35.17
633.274	34.81
633.464	34.63
633.654	34.6
633.844	34.36
634.034	34.26
634.225	34.27
634.415	34.54
634.605	34.43
634.795	34.5
634.985	34.53
635.175	34.52
635.365	34.5
635.555	34.81
635.745	34.55
635.935	34.85
636.125	34.83
636.315	35.35
636.505	35.4
636.695	35.54
636.885	35.27
637.075	35.2
637.265	35.21
637.455	35.19
637.644	35.1
637.834	35.41
638.024	35.2
638.214	35.6
638.404	35.33
638.593	35.46
638.783	35.46
638.973	35.89
639.163	35.62
639.352	35.57
639.542	35.78
639.732	36.04
639.921	36.04
640.111	36.17
640.301	36.07
640.49	35.9
640.68	35.51
640.87	35.45
641.059	35.33
641.249	35.87
641.438	35.91
641.628	35.7
641.817	35.09
642.007	35.07
642.196	34.91
642.386	35.01
642.575	35.37
642.764	34.9
642.954	34.88
643.143	35.11
643.333	35.05
643.522	35.44
643.711	35.44
643.901	35.68
644.09	35.65
644.279	35.77
644.469	35.35
644.658	35.17
644.847	36
645.036	35.92
645.226	35.52
645.415	35.1
645.604	34.86
645.793	35.16
645.982	35.63
646.171	35.52
646.361	35.78
646.55	36.35
646.739	36.27
646.928	36.1
647.117	36.02
647.306	36.13
647.495	36.52
647.684	36.64
647.873	36.87
648.062	37
648.251	37.17
648.44	36.96
648.629	36.75
648.818	36.71
649.007	36.56
649.196	36.72
649.384	36.87
649.573	36.52
649.762	36.48
649.951	36.07
650.14	35.9
650.328	35.96
650.517	36.13
650.706	36.16
650.895	36.57
651.083	37
651.272	37.02
651.461	36.98
651.65	37.56
651.838	37.3
652.027	37.31
652.216	36.74
652.404	36.6
652.593	36.6
652.781	36.74
652.97	36.6
653.158	36.6
653.347	36.97
653.535	37.04
653.724	36.54
653.912	37.04
654.101	37.57
654.289	37.88
654.478	38
654.666	38.12
654.855	38.08
655.043	37.67
655.231	37.46
655.42	37.64
655.608	37.84
655.796	38.02
655.985	37.95
656.173	37.93
656.361	37.91
656.55	37.7
656.738	37.39
656.926	37.48
657.114	37.86
657.302	38.09
657.491	37.38
657.679	37.13
657.867	37
658.055	37.01
658.243	36.97
658.431	37.07
658.619	37.53
658.807	37.98
658.996	38.07
659.184	37.85
659.372	37.72
659.56	37.91
659.748	37.78
659.936	38.03
660.124	38.17
660.311	38.14
660.499	38.22
660.687	38.14
660.875	38.22
661.063	38
661.251	38.23
661.439	38.2
661.627	38.37
661.814	38.58
662.002	38.25
662.19	37.83
662.378	37.71
662.565	37.82
662.753	37.73
662.941	37.32
663.129	37.32
663.316	37.54
663.504	37.36
663.692	37.49
663.879	37.6
664.067	38.07
664.254	38.31
664.442	38.22
664.63	38.13
664.817	38.2
665.005	38.16
665.192	38.48
665.38	38.2
665.567	38.69
665.755	38.78
665.942	38.73
666.13	39.07
666.317	38.92
666.504	39.15
666.692	39.54
666.879	39.71
667.067	39.79
667.254	39.6
667.441	39.71
667.629	39.46
667.816	39.32
668.003	39.4
668.19	38.88
668.378	38.85
668.565	38.75
668.752	38.45
668.939	38.31
669.127	38.67
669.314	38.33
669.501	38.04
669.688	38.22
669.875	38.3
670.062	38.23
670.249	38.44
670.436	38.78
670.623	38.82
670.81	38.67
670.997	38.45
671.184	38.02
671.371	38.59
671.558	39.02
671.745	38.78
671.932	38.62
672.119	38.39
672.306	37.99
672.493	38.12
672.68	38.04
672.867	38.61
673.054	38.91
673.24	38.91
673.427	38.95
673.614	39.01
673.801	39.75
673.988	40.24
674.174	40.87
674.361	41.45
674.548	41.11
674.734	41.6
674.921	41.1
675.108	41.34
675.294	40.98
675.481	40.75
675.668	40.8
675.854	40.17
676.041	39.72
676.227	39.29
676.414	39.34
676.601	39.97
676.787	39.76
676.974	39.69
677.16	39.48
677.347	39.86
677.533	39.86
677.719	39.53
677.906	39.36
678.092	39.86
678.279	39.81
678.465	39.32
678.651	38.87
678.838	38.95
679.024	39.21
679.21	38.96
679.397	39.15
679.583	38.97
679.769	39.25
679.955	39.16
680.142	39.01
680.328	39.69
680.514	39.8
680.7	39.44
680.886	39.28
681.073	39.45
681.259	39.4
681.445	39.76
681.631	39.95
681.817	39.72
682.003	40.14
682.189	39.92
682.375	39.18
682.561	39.26
682.747	40.17
682.933	40.02
683.119	39.99
683.305	40.17
683.491	39.76
683.677	39.88
683.863	40.32
684.049	40.36
684.235	40.15
684.42	40.06
684.606	39.95
684.792	39.68
684.978	39.77
685.164	39.68
685.349	40.04
685.535	40.28
685.721	40.17
685.907	39.8
686.092	39.49
686.278	39.83
686.464	40.02
686.649	40.45
686.835	40.09
687.021	40.63
687.206	40.62
687.392	39.95
687.577	39.61
687.763	39.43
687.948	39.05
688.134	39.01
688.319	39.11
688.505	39.64
688.69	39.65
688.876	40.08
689.061	39.91
689.247	40.06
689.432	40.5
689.618	40.55
689.803	40.79
689.988	41.15
690.174	41.55
690.359	41.56
690.544	41.01
690.73	41.22
690.915	40.61
691.1	40.6
691.285	40.67
691.471	40.76
691.656	40.77
691.841	40.62
692.026	40.81
692.211	40.95
692.396	41.11
692.582	41
692.767	40.99
692.952	41.39
693.137	41.01
693.322	40.77
693.507	40.58
693.692	40.49
693.877	40.68
694.062	40.74
694.247	40.33
694.432	40.53
694.617	41.09
694.802	40.32
694.987	40.23
695.172	40.4
695.357	40.48
695.541	41.03
695.726	40.98
695.911	41.71
696.096	41.06
696.281	41.43
696.466	41.07
696.65	41
696.835	41.53
697.02	41.73
697.204	41.88
697.389	42.04
697.574	41.36
697.759	41.7
697.943	41.23
698.128	41.67
698.312	41.56
698.497	41.16
698.682	41.13
698.866	41.02
699.051	41.03
699.235	40.97
699.42	40.89
699.604	41.21
699.789	41.08
699.973	41.01
700.158	40.99
700.342	40.89
700.527	41.24
700.711	41.27
700.895	41.19
701.08	41.72
701.264	41.99
701.448	41.85
701.633	41.85
701.817	41.8
702.001	41.9
702.186	41.96
702.37	42.39
702.554	42.25
702.738	42.56
702.923	42.7
703.107	41.98
703.291	42.15
703.475	42.76
703.659	42.9
703.843	43.48
704.027	44.31
704.212	44.38
704.396	44.33
704.58	44.31
704.764	43.8
704.948	43.76
705.132	43.79
705.316	43.89
705.5	43.64
705.684	43.46
705.868	43.17
706.052	42.14
706.235	42.13
706.419	42.02
706.603	42.37
706.787	42.43
706.971	43.01
707.155	42.99
707.339	42.65
707.522	42.19
707.706	42.33
707.89	42.13
708.074	42.44
708.257	42.66
708.441	42.94
708.625	43.08
708.808	43.61
708.992	43.5
709.176	43.46
709.359	43.45
709.543	43.62
709.727	43.68
709.91	43.4
710.094	43.14
710.277	43.01
710.461	42.81
710.644	42.96
710.828	42.23
711.011	41.89
711.195	41.95
711.378	41.37
711.562	41.53
711.745	41.2
711.928	41.4
712.112	40.94
712.295	41
712.478	41.36
712.662	41.06
712.845	41.84
713.028	41.69
713.212	41.3
713.395	41.33
713.578	41.28
713.761	41.39
713.945	41.58
714.128	42.45
714.311	42.44
714.494	41.73
714.677	42.16
714.86	41.91
715.043	42.07
715.227	42.37
715.41	42.98
715.593	43.02
715.776	43.37
715.959	43.45
716.142	43.47
716.325	43.05
716.508	43.53
716.691	43.63
716.874	43.59
717.057	43.73
717.239	44.16
717.422	43.76
717.605	43.56
717.788	43.08
717.971	43.54
718.154	43.41
718.337	44.45
718.519	44.84
718.702	44.56
718.885	43.94
719.068	44.26
719.25	44.43
719.433	44.77
719.616	45.34
719.798	45.32
719.981	45.64
720.164	45.83
720.346	45.14
720.529	44.42
720.712	45
720.894	45.46
721.077	45.16
721.259	45.07
721.442	45.77
721.624	46
721.807	46
721.989	45.09
722.172	45.55
722.354	45.14
722.537	45.72
722.719	44.51
722.901	45.52
723.084	45.91
723.266	45.06
723.448	44.78
723.631	44.1
723.813	43.89
723.995	43.4
724.178	43.24
724.36	43.97
724.542	43.52
724.724	44.35
724.907	43.78
725.089	43.18
725.271	44.64
725.453	43.86
725.635	44.06
725.817	45.08
725.999	45.96
726.181	46.4
726.364	46.4
726.546	46.27
726.728	46.27
726.91	45.89
727.092	45.74
727.274	45
727.456	45.68
727.638	45.84
727.819	45.55
728.001	45.87
728.183	44.52
728.365	44.38
728.547	44.58
728.729	44.45
728.911	44.69
729.093	44.84
729.274	43.83
729.456	43.54
729.638	43.58
729.82	43.89
730.001	43.47
730.183	43.86
730.365	43.7
730.546	43.41
730.728	42.93
730.91	42.78
731.091	43.37
731.273	43.78
731.455	43.72
731.636	43.76
731.818	43.98
731.999	43.76
732.181	43.94
732.362	44.59
732.544	45.48
732.725	46.08
732.907	46.31
733.088	46.29
733.27	47.36
733.451	47.29
733.633	48.9
733.814	48.59
733.995	48.32
734.177	48.18
734.358	47.11
734.539	46.72
734.721	46.2
734.902	45.73
735.083	45.21
735.264	44.78
735.446	44.82
735.627	42.63
735.808	41.75
735.989	42.19
736.17	42.28
736.351	43.09
736.533	42.95
736.714	42.44
736.895	43.21
737.076	43.61
737.257	43.26
737.438	43.33
737.619	43.58
737.8	44.19
737.981	44.28
738.162	44.85
738.343	45.21
738.524	45.34
738.705	46.44
738.886	45.75
739.067	45.35
739.247	45.91
739.428	46.04
739.609	45.53
739.79	46.19
739.971	45.96
740.151	45.58
740.332	46.14
740.513	46.07
740.694	45.92
740.874	46.44
741.055	46.4
741.236	45.92
741.417	46.28
741.597	47.07
741.778	46.81
741.958	46.86
742.139	47.6
742.32	46.5
742.5	46.68
742.681	47.15
742.861	46.66
743.042	47.14
743.222	47.86
743.403	47.81
743.583	47.52
743.764	47.74
743.944	47.46
744.124	46.39
744.305	46.56
744.485	46.98
744.666	45.39
744.846	46.74
745.026	47.02
745.207	46.69
745.387	46.87
745.567	47.85
745.747	47.58
745.928	47.83
746.108	48.14
746.288	47.73
746.468	46.85
746.648	47.9
746.829	47.56
747.009	47.8
747.189	47.9
747.369	46.72
747.549	45.22
747.729	45.7
747.909	45.86
748.089	46.04
748.269	46.01
748.449	45.64
748.629	45.82
748.809	45.51
748.989	44.46
749.169	44.22
749.349	44.24
749.529	45.19
749.709	44.54
749.889	44.63
750.068	43.89
750.248	44.33
750.428	44.85
750.608	44.36
750.788	43.54
750.967	43.5
751.147	43.48
751.327	43.51
751.507	43.66
751.686	43.49
751.866	43.5
752.046	44.28
752.225	44.76
752.405	45.78
752.585	45.55
752.764	46.63
752.944	46.77
753.123	46.46
753.303	47.72
753.482	47.81
753.662	48.12
753.841	48.09
754.021	47.95
754.2	47.54
754.38	46.74
754.559	46.77
754.739	45.36
754.918	45.63
755.097	45.39
755.277	44.76
755.456	44.94
755.635	45.78
755.815	46.46
755.994	45.69
756.173	45.01
756.352	44.85
756.532	44.77
756.711	45.29
756.89	45.21
757.069	46.18
757.248	46.54
757.427	45.96
757.607	45.37
757.786	45.05
757.965	45.49
758.144	46.3
758.323	47.01
758.502	47.53
758.681	47.72
758.86	48.2
759.039	47.72
759.218	47.68
759.397	48.18
759.576	47.48
759.755	46.69
759.934	46.68
760.113	47.78
760.291	47.18
760.47	47.65
760.649	47.05
760.828	47.38
761.007	47.64
761.186	47.44
761.364	46.99
761.543	47.07
761.722	47.31
761.901	46.95
762.079	46.14
762.258	46.38
762.437	46.23
762.615	46.13
762.794	45.76
762.972	45.45
763.151	45.54
763.33	45.41
763.508	45.33
763.687	45.13
763.865	45.49
764.044	45.29
764.222	44.76
764.401	44.71
764.579	45.36
764.758	45.22
764.936	45.32
765.114	44.57
765.293	44.34
765.471	44.8
765.65	46.03
765.828	46.5
766.006	46.84
766.184	47.38
766.363	46.92
766.541	46.19
766.719	46.91
766.898	47.46
767.076	47.55
767.254	48.62
767.432	49.51
767.61	48.62
767.788	48.47
767.967	47.11
768.145	47.23
768.323	46.93
768.501	47.86
768.679	47.37
768.857	46.4
769.035	47.06
769.213	47.59
769.391	47.1
769.569	46.74
769.747	45.94
769.925	47.92
770.103	48.06
770.281	48.91
770.459	49.7
770.636	49.62
770.814	51.25
770.992	52.04
771.17	49.33
771.348	49.53
771.525	49.87
771.703	49
771.881	48.07
772.059	48.15
772.236	48.32
772.414	47.2
772.592	47.08
772.769	45.81
772.947	45.29
773.125	46.11
773.302	44.8
773.48	44.13
773.657	44.91
773.835	45.27
774.013	46.2
774.19	47.04
774.368	47.35
774.545	47.31
774.723	47.57
774.9	47.7
775.077	48.2
775.255	48.52
775.432	51.23
775.61	52.58
775.787	52.48
775.964	51.65
776.142	50.78
776.319	52.13
776.496	52.46
776.674	51.67
776.851	50.81
777.028	49.81
777.205	50.03
777.382	49.02
777.56	48.89
777.737	51.04
777.914	50.18
778.091	51.1
778.268	50.7
778.445	51.24
778.622	51.57
778.8	52.02
778.977	52.84
779.154	58.91
779.331	57.39
779.508	58.53
779.685	54.92
779.862	54.24
780.038	53.84
780.215	53.23
780.392	51.17
780.569	51.94
780.746	54.03
780.923	53.24
781.1	47.92
781.277	47.79
781.453	45.39
781.63	47.09
781.807	47.45
781.984	45.61
782.16	44.72
782.337	45.88
782.514	44.58
782.691	44.51
782.867	45.56
783.044	45.2
783.221	44.62
783.397	46.16
783.574	44.25
783.75	45.63
783.927	48.5
784.103	49.69
784.28	49.71
784.456	49.77
784.633	47.75
784.809	46.55
784.986	46.42
785.162	47.49
785.339	46.74
785.515	46.65
785.692	45.33
785.868	46.04
786.044	47.19
786.221	48.57
786.397	49.98
786.573	51.2
786.749	51.79
786.926	54.4
787.102	53.99
787.278	53.3
787.454	54.98
787.631	55.52
787.807	51.92
787.983	50.03
788.159	49.55
788.335	49.56
788.511	49.15
788.687	51.47
788.863	49.86
789.039	50.63
789.216	50.89
789.392	51.66
789.568	52.89
789.744	55.59
789.919	54.45
790.095	52.24
790.271	53.41
790.447	53.3
790.623	51.11
790.799	51.5
790.975	51.58
791.151	51.62
791.327	51.82
791.502	51.2
791.678	49.37
791.854	50.64
792.03	51.44
792.205	50.47
792.381	51.84
792.557	52.69
792.733	52.57
792.908	53.28
793.084	52.4
793.259	51.03
793.435	49.7
793.611	50.31
793.786	50.68
793.962	52.82
794.137	51.05
794.313	49.24
794.488	49.11
794.664	49.43
794.839	47.9
795.015	49.57
795.19	50.15
795.366	51.19
795.541	49.77
795.716	49.53
795.892	49.13
796.067	49.65
796.242	48.75
796.418	48.69
796.593	46.95
796.768	46.67
796.944	47
797.119	47.55
797.294	47.57
797.469	49.93
797.644	50.87
797.82	52.38
797.995	51.71
798.17	51.43
798.345	51.28
798.52	51.26
798.695	52.58
798.87	51.9
799.045	53.34
799.22	55.01
799.395	53.86
799.57	54.64
799.745	53.84
799.92	54.17
800.095	56.82
800.27	56.47
800.445	57.06
800.62	55.14
800.795	57.3
800.97	55.99
801.145	52.8
801.319	53.79
801.494	52.21
801.669	49.65
801.844	51.4
802.018	50.34
802.193	52.48
802.368	51.86
802.543	52.02
802.717	50.17
802.892	48.04
803.067	49.9
803.241	48.78
803.416	49.34
803.59	54.38
803.765	53.25
803.94	54.42
804.114	51.5
804.289	53.32
804.463	52.95
804.638	51.62
804.812	53.45
804.986	50.07
805.161	48.86
805.335	47.97
805.51	44.75
805.684	45.34
805.858	44.45
806.033	42.45
806.207	40.14
806.381	41.19
806.556	42.59
806.73	42.6
806.904	44.87
807.078	46.22
807.253	47.67
807.427	47.16
807.601	46.06
807.775	46.13
807.949	49.55
808.123	51.47
808.298	53.88
808.472	53.85
808.646	52.65
808.82	51.08
808.994	50.29
809.168	50.94
809.342	51.79
809.516	54.21
809.69	53.65
809.864	54.05
810.038	55.49
810.212	54.11
810.385	53.14
810.559	56.17
810.733	57.15
810.907	57.72
811.081	55.29
811.255	54.18
811.428	52.85
811.602	53.22
811.776	53.67
811.95	50.2
812.123	50.2
812.297	52.67
812.471	50
812.644	49.83
812.818	51.39
812.992	50.95
813.165	51.96
813.339	52
813.512	48.21
813.686	48.85
813.86	51.32
814.033	51.46
814.207	51.48
814.38	49.11
814.554	48.56
814.727	46.81
814.9	49.98
815.074	52.18
815.247	51.14
815.421	54.76
815.594	56.66
815.767	56.06
815.941	56.14
816.114	55.55
816.287	58.91
816.46	59.09
816.634	59.83
816.807	60.52
816.98	57.5
817.153	60.14
817.327	60.69
817.5	58.55
817.673	59.5
817.846	60.34
818.019	59.46
818.192	56.6
818.365	56.72
818.538	57.64
818.711	52.42
818.884	50.8
819.057	47.93
819.23	48.74
819.403	45.97
819.576	44.73
819.749	44.06
819.922	44.95
820.095	46.44
820.268	47.14
820.441	46.94
820.614	48.4
820.786	49.91
820.959	49.68
821.132	48.21
821.305	48.44
821.477	48.43
821.65	47.53
821.823	46.61
821.996	45.43
822.168	45.26
822.341	44.59
822.514	44.96
822.686	44.32
822.859	44.58
823.031	44.39
823.204	44.55
823.376	44.67
823.549	44.88
823.722	44.95
823.894	45.89
824.067	45.9
824.239	46.47
824.411	46.74
824.584	47.36
824.756	47.82
824.929	48.29
825.101	49.02
825.273	49.03
825.446	49.44
825.618	49.11
825.79	48.92
825.963	49.35
826.135	49.13
826.307	48.46
826.479	48.69
826.652	47.49
826.824	47.68
826.996	46.71
827.168	46.84
827.34	46.89
827.512	47.18
827.684	47.04
827.856	46.32
828.029	46.64
828.201	45.99
828.373	44.99
828.545	46.17
828.717	46.48
828.889	46.6
829.061	46.34
829.232	47.21
829.404	47.69
829.576	47.65
829.748	47.94
829.92	48.59
830.092	50.58
830.264	51.34
830.436	51.1
830.607	51.25
830.779	53.18
830.951	54.86
831.123	52.32
831.294	51.44
831.466	50.55
831.638	50.25
831.809	49.47
831.981	50.33
832.153	51.59
832.324	52.7
832.496	52.01
832.667	51.65
832.839	51.51
833.011	51.7
833.182	52.81
833.354	53.47
833.525	56.46
833.697	55.25
833.868	51.84
834.039	53.52
834.211	51.28
834.382	49.87
834.554	49.36
834.725	47.68
834.896	47.27
835.068	46.79
835.239	45.06
835.41	44.14
835.581	44.88
835.753	45.68
835.924	44.09
836.095	45.37
836.266	45.37
836.438	45.13
836.609	45.62
836.78	46.64
836.951	49.06
837.122	52.31
837.293	53
837.464	52.53
837.635	54.37
837.806	55.47
837.977	55.58
838.148	58.65
838.319	57.89
838.49	59.2
838.661	62.72
838.832	61.68
839.003	60.29
839.174	57.64
839.345	59.43
839.516	59.58
839.687	59.17
839.857	58.34
840.028	57.91
840.199	58.08
840.37	58.54
840.54	58.03
840.711	53.33
840.882	57.28
841.053	59.22
841.223	59.14
841.394	58.02
841.564	60.4
841.735	62
841.906	60.45
842.076	54.97
842.247	56.43
842.417	54.72
842.588	61.26
842.758	59.49
842.929	56.22
843.099	56.09
843.27	58.34
843.44	53.39
843.611	50.14
843.781	48.07
843.951	52.42
844.122	50.54
844.292	49.09
844.462	44.11
844.633	44.09
844.803	48.35
844.973	46.87
845.144	46.75
845.314	54.96
845.484	54.67
845.654	60.36
845.824	69.54
845.995	73.29
846.165	72.99
846.335	74.39
846.505	74.39
846.675	74.81
846.845	80.39
847.015	80.46
847.185	75.7
847.355	85.54
847.525	90.22
847.695	93.25
847.865	87.53
848.035	96.37
848.205	95.47
848.375	101
848.545	84.47
848.715	83.91
848.884	81.06
849.054	80.43
849.224	72.71
849.394	71.17
849.564	66.75
849.733	72.6
849.903	72.21
850.073	81
850.243	74.71
850.412	75.29
850.582	77.1
850.752	80.88
850.921	79.39
851.091	86.52
851.26	93.38
851.43	93.6
851.599	90.61
851.769	87.25
851.939	82.17
852.108	87.77
852.278	102.28
852.447	91.46
852.616	92.79
852.786	91.98
852.955	84.79
853.125	81.22
853.294	82.41
853.463	76.67
853.633	81.55
853.802	78.08
853.971	76.6
854.141	75.52
854.31	76.37
854.479	68.04
854.648	69.59
854.818	67.83
854.987	55.98
855.156	54.23
855.325	57.98
855.494	49.42
855.663	50.99
855.832	52.38
856.001	46.82
856.171	44.95
856.34	48.69
856.509	58.81
856.678	64.07
856.847	79.61
857.016	86.58
857.185	85.5
857.353	92.36
857.522	100.08
857.691	99.68
857.86	104.72
858.029	99.27
858.198	105.45
858.367	98.9
858.535	92.03
858.704	86.18
858.873	83.9
859.042	87.6
859.21	96.1
859.379	98.63
859.548	87.38
859.717	91.46
859.885	91.2
860.054	85.09
860.222	84.98
860.391	94.55
860.56	97.36
860.728	92.96
860.897	84.42
861.065	68.12
861.234	62.13
861.402	64.98
861.571	60.99
861.739	67.06
861.908	67.46
862.076	68.98
862.244	63.85
862.413	57.72
862.581	64.49
862.749	70.23
862.918	73.95
863.086	72.75
863.254	76.48
863.423	74.89
863.591	76.9
863.759	77.16
863.927	73.56
864.096	78.21
864.264	82.09
864.432	75.42
864.6	74.86
864.768	71.89
864.936	79
865.104	83.75
865.272	81.81
865.44	84.76
865.608	81.23
865.776	83.59
865.944	86.11
866.112	84.34
866.28	85.58
866.448	84.43
866.616	79.55
866.784	77.75
866.952	75.34
867.12	74.24
867.288	69.74
867.455	64.25
867.623	64.26
867.791	62.28
867.959	62.77
868.127	56.42
868.294	64.9
868.462	65.97
868.63	65.01
868.797	70.39
868.965	79.68
869.133	79.1
869.3	89.62
869.468	86.74
869.636	76.95
869.803	85.78
869.971	97.27
870.138	90.33
870.306	92.48
870.473	89.97
870.641	83.57
870.808	76.53
870.975	73.83
871.143	67.66
871.31	67.22
871.478	80.98
871.645	68.02
871.812	64.63
871.98	65.57
872.147	71.82
872.314	67.06
872.482	61.61
872.649	65.45
872.816	69.34
872.983	61.97
873.15	66.57
873.318	66.38
873.485	82.76
873.652	83.81
873.819	94.66
873.986	96.46
874.153	102.48
874.32	105.69
874.487	101.46
874.654	96.27
874.821	108.11
874.988	103.14
875.155	100.35
875.322	91.73
875.489	93.38
875.656	92.04
875.823	79.46
875.99	73.37
876.157	83.76
876.324	82.88
876.49	85.98
876.657	80.69
876.824	82.85
876.991	85.26
877.157	77
877.324	79.14
877.491	75.34
877.658	87.42
877.824	83.42
877.991	72.22
878.157	74.05
878.324	68.11
878.491	67.04
878.657	70.28
878.824	68.82
878.99	71.6
879.157	74.75
879.323	65.49
879.49	64.96
879.656	71.18
879.823	71.95
879.989	64.42
880.156	67.98
880.322	69.47
880.488	63.28
880.655	66.56
880.821	70.99
880.987	69.83
881.154	73.23
881.32	65.57
881.486	65.52
881.652	68.38
881.819	69.65
881.985	62.54
882.151	60.24
882.317	59.57
882.483	55.86
882.649	55.51
882.816	54.78
882.982	52.69
883.148	52.32
883.314	49.71
883.48	50.84
883.646	50.48
883.812	51.87
883.978	51.59
884.144	52.89
884.31	51.67
884.476	52.77
884.642	52.08
884.807	54.37
884.973	53.88
885.139	54.92
885.305	53.25
885.471	53.54
885.637	52.93
885.802	53.77
885.968	51.78
886.134	54.1
886.3	50.79
886.465	51.15
886.631	50.25
886.797	52.19
886.962	52.7
887.128	56.37
887.293	57.48
887.459	62.32
887.625	64.41
887.79	69.67
887.956	67.76
888.121	72.57
888.287	73.37
888.452	75.84
888.618	82.29
888.783	89.9
