Data from LC_196_Reflection_3.txt Node
Date: Tue Nov 17 13:50:01 EST 2015
User: robert
Spectrometer: USB4E03001
Autoset integration time: false
Trigger mode: 4
Integration Time (sec): 1.000000E-1
Scans to average: 15
Electric dark correction enabled: true
Nonlinearity correction enabled: false
Boxcar width: 5
Stray light correction enabled: false
XAxis mode: Wavelengths
Stop averaging: false
Number of Pixels in Spectrum: 3648
>>>>>Begin Spectral Data<<<<<
177.566	112.5
177.785	201.52
178.005	-1069.4
178.225	229.35
178.445	-405.79
178.665	-154.12
178.885	151.92
179.105	-5.91
179.324	271.48
179.544	678.48
179.764	202.38
179.984	132.3
180.204	206.86
180.423	438.49
180.643	611.19
180.863	-2354.98
181.083	-3968.37
181.302	862.1
181.522	393.55
181.742	1258.3
181.961	14626.47
182.181	-741.98
182.401	-143.73
182.621	-383.66
182.84	-476.74
183.06	-1414.98
183.279	1653.86
183.499	-7096.64
183.719	-683.22
183.938	-248.76
184.158	-383.65
184.377	-550.15
184.597	-628.75
184.816	612.61
185.036	585.44
185.256	620.75
185.475	382.6
185.695	570.9
185.914	444.79
186.134	472.66
186.353	289.43
186.572	335.16
186.792	253.3
187.011	226.49
187.231	806.94
187.45	3111.29
187.67	614.92
187.889	678.94
188.108	445.24
188.328	435.63
188.547	469.35
188.766	-2148.85
188.986	1894.68
189.205	567.33
189.424	680.65
189.644	422.2
189.863	286.57
190.082	284.63
190.302	327.98
190.521	426.62
190.74	9712.99
190.959	1199.38
191.178	327.46
191.398	277.25
191.617	708.7
191.836	473.12
192.055	385.3
192.274	-899.21
192.494	-508.63
192.713	-1411.81
192.932	-728.17
193.151	1282.21
193.37	19677.78
193.589	-743350
193.808	20341.57
194.027	-2810.38
194.246	-1343.95
194.465	5780.39
194.685	689.02
194.904	488.77
195.123	79604.17
195.342	1889.4
195.561	590.01
195.78	434.32
195.999	522.29
196.218	314.37
196.436	296.71
196.655	220.69
196.874	244.13
197.093	251.57
197.312	228.6
197.531	192.71
197.75	167.33
197.969	180.33
198.188	194.06
198.407	186.8
198.625	215.85
198.844	197.03
199.063	161.48
199.282	175.77
199.501	164.39
199.719	210.78
199.938	255.16
200.157	330.22
200.376	1055.14
200.594	543.65
200.813	328.91
201.032	462.67
201.251	459.53
201.469	6401.86
201.688	2032.61
201.907	-8916.1
202.125	2756.89
202.344	2408.45
202.563	2211.97
202.781	1464.58
203	-1659.34
203.218	-346.09
203.437	-524.7
203.656	-350.86
203.874	-882.64
204.093	-1177.8
204.311	-1251.18
204.53	26352.63
204.748	-1092.97
204.967	4128.48
205.185	818.16
205.404	399.54
205.622	368.41
205.841	287.65
206.059	341.8
206.278	268.69
206.496	283.13
206.715	273.06
206.933	289.5
207.151	265.08
207.37	242.45
207.588	259.82
207.806	332.02
208.025	313.28
208.243	327.5
208.461	352.35
208.68	501.83
208.898	-696.95
209.116	-977.36
209.335	2333.86
209.553	-1586.62
209.771	795.77
209.989	300.77
210.208	362.16
210.426	357.71
210.644	315.87
210.862	244
211.081	187.42
211.299	129.86
211.517	153.9
211.735	146.14
211.953	151.73
212.171	169.56
212.39	440.03
212.608	446.58
212.826	589.45
213.044	560.58
213.262	487.55
213.48	-19356.72
213.698	-1029.62
213.916	515.51
214.134	-1050.5
214.352	-224.13
214.57	-289.96
214.788	2744.64
215.006	826.01
215.224	700.74
215.442	578.04
215.66	586.38
215.878	409.16
216.096	192.01
216.314	218.9
216.532	163.44
216.75	127.22
216.968	133.19
217.185	166.11
217.403	189.4
217.621	188.33
217.839	199
218.057	227.74
218.275	230.18
218.492	251.36
218.71	265.62
218.928	287.57
219.146	332.84
219.363	344.45
219.581	242.41
219.799	236.16
220.017	228.34
220.234	222.55
220.452	174.67
220.67	159.8
220.887	188.6
221.105	197.52
221.323	184.81
221.54	173.88
221.758	148.38
221.976	152.37
222.193	128.07
222.411	127.05
222.629	131.39
222.846	138.38
223.064	129.55
223.281	123.85
223.499	109.82
223.716	115.62
223.934	124.73
224.151	124.11
224.369	114.11
224.586	134.9
224.804	136.09
225.021	139.92
225.239	127.8
225.456	125.25
225.674	109.52
225.891	101.58
226.108	85.83
226.326	66.04
226.543	54.94
226.76	55.91
226.978	54.73
227.195	46.57
227.413	38.55
227.63	39.11
227.847	38.21
228.064	36.7
228.282	37.41
228.499	40.11
228.716	40.04
228.934	43.45
229.151	42.53
229.368	38.96
229.585	36.92
229.802	39.1
230.02	40.92
230.237	39.14
230.454	40
230.671	43.67
230.888	44.5
231.105	46.21
231.323	42.9
231.54	43.29
231.757	47.18
231.974	49.16
232.191	46.44
232.408	45.89
232.625	48.63
232.842	53.23
233.059	48.9
233.276	50.16
233.493	54.32
233.71	58.54
233.927	59.61
234.144	61.15
234.361	58.93
234.578	61.28
234.795	53.82
235.012	58.76
235.229	54.73
235.446	50.98
235.663	50.81
235.879	46.2
236.096	49.71
236.313	49.91
236.53	41.94
236.747	49.68
236.964	47.23
237.181	54.64
237.397	51.32
237.614	54.21
237.831	55.62
238.048	57.73
238.264	57.38
238.481	52.62
238.698	45.95
238.915	47.77
239.131	43.35
239.348	42.97
239.565	40.25
239.781	41.54
239.998	38.69
240.215	39.55
240.431	32.83
240.648	30.15
240.865	29.27
241.081	28.38
241.298	28.39
241.514	27.08
241.731	25.77
241.947	21
242.164	17.59
242.38	14.98
242.597	14.81
242.814	16.7
243.03	16.61
243.246	17.8
243.463	18.88
243.679	18.78
243.896	18.49
244.112	19.24
244.329	23.52
244.545	25.23
244.762	26.05
244.978	24.22
245.194	22.4
245.411	22.92
245.627	21.69
245.843	19.83
246.06	18.94
246.276	16.18
246.492	14.74
246.709	13.75
246.925	14.51
247.141	15.34
247.357	15.23
247.574	15.25
247.79	14.63
248.006	13.09
248.222	13.99
248.439	13.36
248.655	13.8
248.871	13.32
249.087	13.18
249.303	12.4
249.519	12.1
249.736	11.73
249.952	10.44
250.168	14.25
250.384	15.85
250.6	14.03
250.816	14.61
251.032	15.18
251.248	17.5
251.464	17.15
251.68	17.18
251.896	16.68
252.112	16.06
252.328	17.41
252.544	14.75
252.76	15.37
252.976	15.06
253.192	16.87
253.408	17.07
253.624	14.76
253.84	16.67
254.056	17.19
254.272	15.71
254.487	17.7
254.703	18.56
254.919	20.5
255.135	21.59
255.351	22.49
255.567	20.26
255.782	18.46
255.998	22.44
256.214	20.28
256.43	19.01
256.646	23.51
256.861	20.46
257.077	18.98
257.293	16.31
257.508	16.89
257.724	16.43
257.94	14.67
258.155	14.66
258.371	15.49
258.587	13.27
258.802	13.2
259.018	10.47
259.234	11.83
259.449	12.56
259.665	11.32
259.88	10.46
260.096	10.75
260.312	10.73
260.527	10.51
260.743	9.97
260.958	11
261.174	11.36
261.389	12.37
261.605	12.09
261.82	11.99
262.036	13.41
262.251	13.11
262.466	11.79
262.682	14.06
262.897	15.41
263.113	13.9
263.328	12.23
263.543	13.64
263.759	13.57
263.974	13.47
264.189	11.99
264.405	12.11
264.62	13.4
264.835	16.28
265.051	14.01
265.266	15.01
265.481	18.22
265.696	20.9
265.912	20.35
266.127	20.38
266.342	17.84
266.557	17.3
266.773	17.1
266.988	16.96
267.203	15.07
267.418	16.38
267.633	14.89
267.848	13.34
268.064	10.64
268.279	8.02
268.494	7.93
268.709	9.6
268.924	10.75
269.139	9.53
269.354	11.03
269.569	12.47
269.784	10.73
269.999	11.42
270.214	12.17
270.429	14.18
270.644	13.94
270.859	13.29
271.074	13.93
271.289	14.37
271.504	14.37
271.719	13.85
271.934	13.86
272.149	13.47
272.363	14.2
272.578	14.38
272.793	13.63
273.008	14.16
273.223	14.18
273.438	13.46
273.653	13.11
273.867	14.19
274.082	14.17
274.297	14.07
274.512	15.43
274.726	15.63
274.941	15.13
275.156	17.22
275.371	16.64
275.585	18.93
275.8	19.08
276.015	19.7
276.229	18.03
276.444	15.94
276.659	15.77
276.873	15.5
277.088	14.33
277.302	14.22
277.517	12.23
277.732	12.61
277.946	11.58
278.161	13.48
278.375	12.34
278.59	13.94
278.804	14.77
279.019	15.34
279.233	13.96
279.448	13.53
279.662	13.64
279.877	15.28
280.091	14.98
280.306	14.24
280.52	13.48
280.735	13.76
280.949	12.75
281.163	11.86
281.378	12.34
281.592	12.76
281.806	12.69
282.021	13.29
282.235	12.13
282.449	12.62
282.664	13.09
282.878	12.98
283.092	12.71
283.307	13.89
283.521	13.15
283.735	11.82
283.949	11.88
284.164	12.3
284.378	10.35
284.592	9.57
284.806	9.32
285.02	8.9
285.234	8.5
285.449	8.63
285.663	8.43
285.877	9.87
286.091	10.6
286.305	10.67
286.519	10.43
286.733	11.19
286.947	12.17
287.161	12.19
287.375	11.43
287.589	12
287.803	11.71
288.017	10.69
288.231	10.35
288.445	9.71
288.659	9.77
288.873	9.43
289.087	10.53
289.301	10.88
289.515	11.85
289.729	12.65
289.943	12.15
290.157	12.21
290.371	11.69
290.584	11.65
290.798	12.27
291.012	13.31
291.226	14.73
291.44	14.48
291.654	14.43
291.867	13.48
292.081	12.94
292.295	12.69
292.509	12.62
292.722	14.08
292.936	14.1
293.15	13.44
293.364	11.82
293.577	11.42
293.791	11.06
294.005	11.2
294.218	11.57
294.432	12.05
294.645	12.88
294.859	13.01
295.073	12.72
295.286	12.1
295.5	11.27
295.713	11.19
295.927	10.83
296.14	10.22
296.354	8.99
296.568	9.62
296.781	9.89
296.994	9.49
297.208	9.56
297.421	9.07
297.635	10.4
297.848	10.06
298.062	10.01
298.275	10.42
298.489	10.97
298.702	11.95
298.915	12.07
299.129	12.22
299.342	12.29
299.555	12.21
299.769	13.21
299.982	12.97
300.195	13.92
300.409	13.85
300.622	13.67
300.835	14.18
301.048	14.02
301.262	13.23
301.475	12.4
301.688	13.3
301.901	13.63
302.115	14.1
302.328	12.91
302.541	12.62
302.754	13.31
302.967	13.68
303.18	13.64
303.393	12.94
303.607	13.35
303.82	14.77
304.033	13.31
304.246	12.87
304.459	12.94
304.672	14.11
304.885	15.34
305.098	15.82
305.311	15.84
305.524	15.37
305.737	16.12
305.95	17.02
306.163	15.59
306.376	16.25
306.589	16.73
306.802	16.62
307.015	17.44
307.228	17.74
307.44	16.64
307.653	15.66
307.866	15.77
308.079	16.08
308.292	14.95
308.505	15.39
308.718	15.64
308.93	14.74
309.143	14.87
309.356	13.25
309.569	12.34
309.781	13.34
309.994	11.95
310.207	11.93
310.42	10.37
310.632	10.71
310.845	11.06
311.058	10.84
311.27	10.35
311.483	10.12
311.696	10.24
311.908	10.55
312.121	9.91
312.333	10.99
312.546	11.14
312.759	11.97
312.971	11.9
313.184	12.86
313.396	13.18
313.609	15.08
313.821	15.94
314.034	17.74
314.246	18.38
314.459	19.41
314.671	19.15
314.884	19.24
315.096	20.05
315.309	19.56
315.521	18.56
315.733	18.47
315.946	17.23
316.158	16.8
316.371	16.71
316.583	16.75
316.795	16.02
317.008	17.74
317.22	18.02
317.432	18.96
317.644	18.15
317.857	18.47
318.069	19.62
318.281	20.72
318.494	20
318.706	18.69
318.918	17.91
319.13	18.65
319.342	18.05
319.555	17.63
319.767	17.26
319.979	18.08
320.191	18.07
320.403	17.12
320.615	16.88
320.827	17.16
321.039	18.77
321.252	19.43
321.464	19.56
321.676	19.68
321.888	20.21
322.1	19.41
322.312	19.98
322.524	20.91
322.736	20.99
322.948	21.28
323.16	21.1
323.372	20.19
323.584	20.11
323.796	21.08
324.007	21.78
324.219	22.19
324.431	23.5
324.643	23.92
324.855	23.97
325.067	24.37
325.279	24.62
325.491	25.39
325.702	25.07
325.914	25.06
326.126	24.07
326.338	23.44
326.55	22.85
326.761	22.45
326.973	23.16
327.185	22.3
327.396	22.35
327.608	21.92
327.82	21.44
328.032	22.8
328.243	22.34
328.455	22.78
328.666	23.93
328.878	24.48
329.09	24.41
329.301	23.33
329.513	23.86
329.725	24.05
329.936	25.26
330.148	26.73
330.359	26.22
330.571	27.45
330.782	27.89
330.994	28.13
331.205	28.24
331.417	27.97
331.628	28.84
331.84	30.38
332.051	30.52
332.262	30.52
332.474	29.63
332.685	30.38
332.897	30.64
333.108	31.6
333.319	31.17
333.531	31.89
333.742	32.33
333.953	31.9
334.165	30.77
334.376	31.8
334.587	32.3
334.799	32.3
335.01	32.61
335.221	31.76
335.432	31.04
335.644	31.55
335.855	31.85
336.066	32.64
336.277	34.03
336.488	34.8
336.7	34.35
336.911	34.45
337.122	35.35
337.333	35.55
337.544	37.37
337.755	37.02
337.966	36.86
338.177	36.41
338.388	36.27
338.599	36
338.811	35.05
339.022	34.49
339.233	33.14
339.444	32.2
339.655	32.3
339.866	32.16
340.076	32.37
340.287	32.48
340.498	32.48
340.709	32.95
340.92	32.78
341.131	33.3
341.342	33
341.553	33.7
341.764	34.36
341.975	33.91
342.185	33.58
342.396	33.27
342.607	33.63
342.818	34.62
343.029	34.26
343.239	34.36
343.45	34.44
343.661	35.5
343.872	36.14
344.082	36.47
344.293	36.92
344.504	38.17
344.714	37.87
344.925	37.21
345.136	36.35
345.346	35.73
345.557	34.98
345.768	35.63
345.978	35.54
346.189	35.38
346.399	34.93
346.61	33.87
346.821	31.68
347.031	32.73
347.242	33.04
347.452	32.97
347.663	33.22
347.873	33.96
348.084	32.75
348.294	32.67
348.504	32.13
348.715	33.1
348.925	33.65
349.136	33.76
349.346	32.68
349.557	32.06
349.767	32.01
349.977	31.76
350.188	31.79
350.398	32.68
350.608	32.43
350.819	32.29
351.029	31.36
351.239	32.77
351.449	33.3
351.66	34.45
351.87	35.37
352.08	36.02
352.29	36.47
352.501	36.53
352.711	37.16
352.921	36.87
353.131	36.84
353.341	36.26
353.552	33.79
353.762	34.34
353.972	33.7
354.182	33.94
354.392	33.79
354.602	34.32
354.812	34.02
355.022	33.39
355.232	33.29
355.442	33.78
355.652	34.36
355.862	35.49
356.072	34.71
356.282	34.88
356.492	34.29
356.702	33.73
356.912	32.88
357.122	33.09
357.332	32.61
357.542	32.37
357.752	32.22
357.962	31.91
358.171	31.46
358.381	32.05
358.591	31.67
358.801	31.99
359.011	31.69
359.221	31.86
359.43	32.22
359.64	31.92
359.85	32
360.06	31.54
360.269	31.6
360.479	31.67
360.689	30.93
360.899	31.02
361.108	30.58
361.318	30.95
361.528	30.86
361.737	30.15
361.947	30.73
362.156	30.73
362.366	30.59
362.576	30.34
362.785	30.55
362.995	30.53
363.204	30.6
363.414	30.68
363.623	30.54
363.833	30.73
364.042	30.99
364.252	30.31
364.461	30.43
364.671	30.89
364.88	30.86
365.09	30.84
365.299	31.18
365.509	30.82
365.718	30.62
365.927	30.33
366.137	30.42
366.346	30.6
366.555	30.48
366.765	30.5
366.974	30.35
367.183	31.06
367.393	30.48
367.602	30.08
367.811	30.55
368.021	30.35
368.23	31.09
368.439	30.74
368.648	30.28
368.857	30.5
369.067	30.15
369.276	30.19
369.485	29.85
369.694	30.19
369.903	30.48
370.112	30.33
370.321	30.67
370.531	29.62
370.74	29.09
370.949	28.44
371.158	28.68
371.367	28.65
371.576	28.75
371.785	28.22
371.994	28.35
372.203	28
372.412	28.16
372.621	27.69
372.83	28.51
373.039	29.24
373.248	29.73
373.457	29.66
373.666	29.41
373.874	29.12
374.083	29.54
374.292	28.84
374.501	28.83
374.71	28.68
374.919	28.74
375.128	28.2
375.336	28.43
375.545	28.94
375.754	28.56
375.963	28.52
376.171	28.33
376.38	28.41
376.589	28.82
376.798	28.7
377.006	28.46
377.215	29
377.424	29.03
377.632	28.37
377.841	27.88
378.05	28.06
378.258	28.19
378.467	28.15
378.675	27.61
378.884	27.61
379.093	27.6
379.301	27.89
379.51	27.58
379.718	27.62
379.927	27.85
380.135	27.79
380.344	27.84
380.552	27.97
380.761	28.07
380.969	28.16
381.177	28.16
381.386	28.29
381.594	27.6
381.803	27.46
382.011	27.23
382.219	26.58
382.428	26.72
382.636	26.37
382.845	26.44
383.053	26.44
383.261	26.36
383.469	26.28
383.678	26.48
383.886	26.56
384.094	26.29
384.302	25.84
384.511	26.06
384.719	25.74
384.927	25.91
385.135	26.12
385.343	26.23
385.552	26.2
385.76	26.18
385.968	25.85
386.176	25.97
386.384	25.93
386.592	26.31
386.8	26.61
387.008	26.47
387.216	26.42
387.424	26.07
387.633	25.85
387.841	25.81
388.049	25.64
388.257	25.71
388.465	25.74
388.672	25.98
388.88	25.82
389.088	25.77
389.296	26.04
389.504	26.15
389.712	26.47
389.92	26.3
390.128	26.37
390.336	26.33
390.544	26.32
390.751	26.03
390.959	25.76
391.167	25.7
391.375	25.63
391.583	25.53
391.79	25.21
391.998	25.01
392.206	25.24
392.414	25.07
392.621	24.86
392.829	24.75
393.037	25.03
393.244	24.94
393.452	25.03
393.66	24.71
393.867	24.73
394.075	24.68
394.283	24.53
394.49	24.26
394.698	24.46
394.905	24.51
395.113	24.37
395.32	23.93
395.528	24.19
395.735	24.37
395.943	24.36
396.15	24.22
396.358	24.46
396.565	24.07
396.773	24.05
396.98	23.82
397.188	23.82
397.395	23.59
397.602	23.83
397.81	23.72
398.017	23.47
398.225	23.57
398.432	23.58
398.639	23.61
398.847	24.16
399.054	23.78
399.261	23.66
399.468	23.4
399.676	23.78
399.883	23.43
400.09	23.44
400.297	23.76
400.505	23.42
400.712	23.43
400.919	23.36
401.126	23.15
401.333	23.76
401.54	23.77
401.748	24.05
401.955	23.76
402.162	24.16
402.369	24.2
402.576	24.01
402.783	23.93
402.99	23.78
403.197	23.55
403.404	23.4
403.611	23.31
403.818	23.14
404.025	22.88
404.232	22.74
404.439	22.42
404.646	22.19
404.853	22.2
405.06	22.59
405.267	22.46
405.474	22.32
405.681	22.11
405.887	21.95
406.094	22.28
406.301	22.57
406.508	22.58
406.715	22.87
406.922	22.8
407.128	22.62
407.335	22.09
407.542	22.2
407.749	22.39
407.955	22.71
408.162	22.67
408.369	22.66
408.575	22.55
408.782	22.46
408.989	22.25
409.195	22.42
409.402	22.34
409.609	22.53
409.815	22.44
410.022	22.33
410.228	22.16
410.435	22.07
410.642	21.68
410.848	21.58
411.055	21.7
411.261	21.87
411.468	21.88
411.674	21.75
411.881	21.84
412.087	22.1
412.294	22.21
412.5	22.27
412.706	22.47
412.913	22.45
413.119	22.63
413.326	22.77
413.532	22.45
413.738	22.21
413.945	21.92
414.151	21.91
414.357	21.92
414.564	21.7
414.77	21.52
414.976	21.6
415.182	21.92
415.389	21.64
415.595	21.42
415.801	21.31
416.007	21.41
416.214	21.72
416.42	21.54
416.626	21.26
416.832	21.39
417.038	21.35
417.244	20.98
417.45	20.86
417.657	20.65
417.863	20.68
418.069	20.71
418.275	20.36
418.481	20.39
418.687	20.37
418.893	20.49
419.099	20.24
419.305	20.33
419.511	20.35
419.717	20.24
419.923	20.24
420.129	19.9
420.335	19.88
420.541	19.87
420.746	19.74
420.952	19.59
421.158	19.35
421.364	19.35
421.57	19.24
421.776	19.15
421.982	19.07
422.187	18.95
422.393	19.16
422.599	19.06
422.805	19.07
423.01	18.96
423.216	19.06
423.422	19.12
423.628	19.12
423.833	19.07
424.039	18.8
424.245	18.81
424.45	18.96
424.656	18.86
424.862	18.88
425.067	18.92
425.273	19.08
425.478	19.05
425.684	18.96
425.889	19.15
426.095	19.15
426.301	19.51
426.506	19.66
426.712	19.57
426.917	19.63
427.123	19.78
427.328	19.89
427.533	19.63
427.739	19.65
427.944	19.64
428.15	19.46
428.355	19.56
428.561	19.51
428.766	19.11
428.971	19.28
429.177	19.25
429.382	19.11
429.587	19.01
429.793	19.36
429.998	19.32
430.203	19.52
430.408	19.44
430.614	19.31
430.819	19.24
431.024	19.43
431.229	19.33
431.434	19.44
431.64	19.55
431.845	19.76
432.05	19.72
432.255	19.61
432.46	19.49
432.665	19.74
432.87	19.77
433.076	19.76
433.281	19.87
433.486	19.93
433.691	19.79
433.896	19.57
434.101	19.32
434.306	19.24
434.511	19.32
434.716	19.21
434.921	19
435.126	19.07
435.331	19.18
435.535	19.08
435.74	19.07
435.945	19.26
436.15	19.31
436.355	19.34
436.56	19.33
436.765	19.65
436.97	19.88
437.174	19.75
437.379	19.65
437.584	19.81
437.789	19.73
437.993	19.57
438.198	19.56
438.403	19.6
438.608	19.68
438.812	19.51
439.017	19.14
439.222	19.06
439.426	18.99
439.631	19.01
439.836	18.85
440.04	18.72
440.245	18.85
440.45	18.71
440.654	18.68
440.859	18.61
441.063	18.64
441.268	18.66
441.472	18.76
441.677	18.98
441.881	18.97
442.086	19.04
442.29	19.1
442.495	19.12
442.699	19.17
442.904	19.23
443.108	19.15
443.312	19.21
443.517	19.27
443.721	19.22
443.925	19.17
444.13	19.16
444.334	19.03
444.538	19.08
444.743	18.93
444.947	18.87
445.151	18.63
445.356	18.64
445.56	18.61
445.764	18.65
445.968	18.6
446.173	18.47
446.377	18.41
446.581	18.43
446.785	18.38
446.989	18.39
447.193	18.49
447.398	18.71
447.602	18.85
447.806	18.98
448.01	18.92
448.214	18.88
448.418	18.92
448.622	18.95
448.826	18.88
449.03	18.96
449.234	19.03
449.438	18.84
449.642	18.83
449.846	18.77
450.05	18.52
450.254	18.45
450.458	18.3
450.662	18.17
450.866	17.98
451.069	18.09
451.273	17.85
451.477	17.78
451.681	18.11
451.885	18.19
452.089	18.15
452.292	18.15
452.496	18.18
452.7	18.17
452.904	18.45
453.107	18.73
453.311	18.72
453.515	18.93
453.719	18.95
453.922	18.66
454.126	18.47
454.33	18.44
454.533	18.41
454.737	18.41
454.94	18.25
455.144	18.07
455.348	18
455.551	17.84
455.755	17.86
455.958	17.76
456.162	17.92
456.365	17.81
456.569	17.65
456.772	17.84
456.976	18.03
457.179	18.35
457.383	18.23
457.586	18.34
457.79	18.58
457.993	18.79
458.196	18.8
458.4	18.8
458.603	18.85
458.807	18.83
459.01	18.8
459.213	18.59
459.417	18.46
459.62	18.56
459.823	18.41
460.026	18.16
460.23	17.98
460.433	17.97
460.636	17.84
460.839	17.81
461.042	17.89
461.246	17.75
461.449	17.88
461.652	17.88
461.855	17.87
462.058	17.86
462.261	18
462.464	17.91
462.668	17.85
462.871	17.94
463.074	18.05
463.277	17.91
463.48	18.11
463.683	17.93
463.886	18.13
464.089	18.14
464.292	18.27
464.495	18.42
464.698	18.4
464.901	18.66
465.104	18.6
465.306	18.63
465.509	18.72
465.712	18.59
465.915	18.75
466.118	18.53
466.321	18.49
466.524	18.3
466.726	18.11
466.929	18.31
467.132	18.14
467.335	18.27
467.538	18.16
467.74	18.16
467.943	18.19
468.146	18.07
468.348	18.22
468.551	18.21
468.754	18.42
468.956	18.56
469.159	18.42
469.362	18.53
469.564	18.41
469.767	18.52
469.969	18.57
470.172	18.81
470.375	18.85
470.577	18.87
470.78	18.79
470.982	18.59
471.185	18.54
471.387	18.65
471.59	18.72
471.792	18.71
471.995	18.65
472.197	18.69
472.399	18.4
472.602	18.62
472.804	18.61
473.007	18.67
473.209	18.7
473.411	18.73
473.614	18.74
473.816	18.79
474.018	18.9
474.22	18.89
474.423	18.91
474.625	18.96
474.827	18.66
475.03	18.57
475.232	18.63
475.434	18.65
475.636	18.74
475.838	18.74
476.04	18.51
476.243	18.56
476.445	18.57
476.647	18.5
476.849	18.46
477.051	18.46
477.253	18.61
477.455	18.58
477.657	18.37
477.859	18.28
478.061	18.18
478.263	18.19
478.465	17.98
478.667	18.01
478.869	17.9
479.071	18.09
479.273	18.16
479.475	18.11
479.677	18.17
479.879	18.36
480.081	18.41
480.283	18.4
480.485	18.31
480.686	18.49
480.888	18.41
481.09	18.31
481.292	18.1
481.494	18.08
481.695	18.06
481.897	18
482.099	18.04
482.301	18.05
482.502	17.96
482.704	18.01
482.906	17.94
483.107	17.81
483.309	17.85
483.511	17.85
483.712	17.81
483.914	17.7
484.115	17.65
484.317	17.61
484.519	17.5
484.72	17.53
484.922	17.47
485.123	17.45
485.325	17.49
485.526	17.5
485.728	17.48
485.929	17.48
486.131	17.55
486.332	17.63
486.534	17.56
486.735	17.63
486.936	17.57
487.138	17.54
487.339	17.45
487.541	17.46
487.742	17.46
487.943	17.43
488.144	17.41
488.346	17.45
488.547	17.39
488.748	17.47
488.95	17.45
489.151	17.48
489.352	17.53
489.553	17.69
489.755	17.71
489.956	17.63
490.157	17.68
490.358	17.73
490.559	17.65
490.76	17.69
490.961	17.68
491.163	17.73
491.364	17.74
491.565	17.74
491.766	17.68
491.967	17.72
492.168	17.82
492.369	17.81
492.57	17.86
492.771	17.95
492.972	17.95
493.173	17.99
493.374	18.09
493.575	18.18
493.776	18.21
493.976	18.37
494.177	18.46
494.378	18.46
494.579	18.6
494.78	18.63
494.981	18.66
495.182	18.72
495.382	18.75
495.583	18.66
495.784	18.72
495.985	18.83
496.185	18.74
496.386	18.64
496.587	18.75
496.788	18.82
496.988	18.68
497.189	18.76
497.39	18.78
497.59	18.86
497.791	19
497.992	19.03
498.192	19.09
498.393	19.1
498.593	19.17
498.794	18.99
498.994	19
499.195	19.01
499.395	19
499.596	19.05
499.796	18.84
499.997	18.78
500.197	18.75
500.398	18.68
500.598	18.83
500.799	18.83
500.999	19.11
501.199	18.98
501.4	19.36
501.6	19.4
501.801	19.42
502.001	19.69
502.201	19.84
502.402	19.97
502.602	20.01
502.802	20.02
503.002	20.19
503.203	20.18
503.403	20.31
503.603	20.18
503.803	20.18
504.003	20.2
504.204	20.19
504.404	20.13
504.604	20.19
504.804	20.53
505.004	20.43
505.204	20.32
505.404	20.49
505.604	20.44
505.804	20.49
506.005	20.59
506.205	20.65
506.405	20.69
506.605	20.93
506.805	20.91
507.005	20.77
507.204	20.83
507.404	20.92
507.604	21.02
507.804	21.32
508.004	21.5
508.204	21.51
508.404	21.77
508.604	21.85
508.804	21.94
509.003	22.13
509.203	22.31
509.403	22.52
509.603	22.74
509.803	22.84
510.002	22.86
510.202	22.93
510.402	23.07
510.602	22.97
510.801	23.14
511.001	23.09
511.201	23.11
511.4	22.95
511.6	23.06
511.8	23.01
511.999	22.97
512.199	23
512.398	23.12
512.598	23.31
512.797	23.52
512.997	23.59
513.197	23.75
513.396	23.95
513.596	24.15
513.795	24.23
513.994	24.5
514.194	24.72
514.393	24.93
514.593	25.03
514.792	25.08
514.992	25.29
515.191	25.61
515.39	25.63
515.59	25.55
515.789	25.81
515.988	25.89
516.188	26.06
516.387	26.05
516.586	26.09
516.786	26.21
516.985	26.17
517.184	26.29
517.383	26.23
517.582	26.3
517.782	26.5
517.981	26.52
518.18	26.62
518.379	26.58
518.578	26.75
518.777	26.78
518.976	26.95
519.176	27.21
519.375	27.14
519.574	27.28
519.773	27.44
519.972	27.44
520.171	27.58
520.37	27.77
520.569	27.9
520.768	28.08
520.967	28.18
521.166	28.11
521.365	28.17
521.564	28.57
521.762	28.65
521.961	28.82
522.16	29.12
522.359	29.33
522.558	29.25
522.757	29.42
522.956	29.56
523.154	29.73
523.353	29.89
523.552	30.06
523.751	30.07
523.949	30.26
524.148	30.37
524.347	30.51
524.546	30.54
524.744	30.77
524.943	30.92
525.142	30.93
525.34	31.06
525.539	31.13
525.737	31.19
525.936	31.32
526.135	31.42
526.333	31.46
526.532	31.5
526.73	31.61
526.929	31.68
527.127	31.75
527.326	31.87
527.524	32.01
527.723	32.11
527.921	32.2
528.12	32.19
528.318	32.19
528.516	32.29
528.715	32.28
528.913	32.35
529.112	32.37
529.31	32.39
529.508	32.44
529.707	32.47
529.905	32.59
530.103	32.63
530.301	32.72
530.5	32.83
530.698	32.88
530.896	33.06
531.094	33.24
531.293	33.48
531.491	33.7
531.689	33.84
531.887	34
532.085	34.09
532.283	34.19
532.481	34.24
532.68	34.32
532.878	34.51
533.076	34.61
533.274	34.53
533.472	34.58
533.67	34.53
533.868	34.55
534.066	34.6
534.264	34.6
534.462	34.64
534.66	34.76
534.858	34.88
535.056	34.82
535.253	34.89
535.451	35.1
535.649	35.16
535.847	35.37
536.045	35.58
536.243	35.66
536.441	35.83
536.638	35.95
536.836	36
537.034	36.06
537.232	36.26
537.43	36.27
537.627	36.28
537.825	36.34
538.023	36.37
538.22	36.36
538.418	36.36
538.616	36.39
538.813	36.42
539.011	36.66
539.209	36.65
539.406	36.65
539.604	36.93
539.801	37.22
539.999	37.3
540.196	37.42
540.394	37.56
540.591	37.6
540.789	37.59
540.986	37.66
541.184	37.62
541.381	37.67
541.579	37.66
541.776	37.56
541.974	37.42
542.171	37.51
542.368	37.48
542.566	37.46
542.763	37.44
542.96	37.48
543.158	37.44
543.355	37.35
543.552	37.47
543.75	37.58
543.947	37.69
544.144	37.8
544.341	37.83
544.539	37.95
544.736	37.82
544.933	38.01
545.13	38.11
545.327	38.42
545.524	38.61
545.722	38.41
545.919	38.35
546.116	38.39
546.313	38.32
546.51	38.29
546.707	38.5
546.904	38.77
547.101	38.85
547.298	38.86
547.495	38.61
547.692	38.65
547.889	38.83
548.086	39.05
548.283	39.12
548.48	39.25
548.677	39.27
548.874	39.21
549.07	38.99
549.267	39.18
549.464	39.4
549.661	39.69
549.858	39.79
550.055	40.03
550.251	40.02
550.448	39.95
550.645	40.09
550.842	40.27
551.038	40.23
551.235	40.52
551.432	40.39
551.628	40.28
551.825	40.27
552.022	40.22
552.218	40.01
552.415	40
552.612	40.1
552.808	40.04
553.005	40.14
553.201	40.05
553.398	40.12
553.594	40.33
553.791	40.53
553.987	40.39
554.184	40.42
554.38	40.68
554.577	40.81
554.773	40.92
554.97	41.26
555.166	41.28
555.362	41.43
555.559	41.72
555.755	41.57
555.952	41.51
556.148	41.83
556.344	41.99
556.541	41.98
556.737	42
556.933	42.02
557.129	42.02
557.326	41.89
557.522	42.04
557.718	41.98
557.914	41.92
558.11	41.9
558.307	41.83
558.503	41.89
558.699	41.99
558.895	42
559.091	42.15
559.287	41.92
559.483	42.07
559.679	42.03
559.876	41.77
560.072	41.89
560.268	42.19
560.464	42.32
560.66	42.31
560.856	42.25
561.052	42.38
561.247	42.31
561.443	42.63
561.639	42.58
561.835	42.56
562.031	42.74
562.227	42.73
562.423	42.57
562.619	42.61
562.815	42.81
563.01	43.01
563.206	43.02
563.402	42.92
563.598	42.76
563.793	42.7
563.989	42.89
564.185	42.96
564.381	42.98
564.576	42.94
564.772	42.97
564.968	42.81
565.163	42.62
565.359	42.66
565.555	42.87
565.75	42.99
565.946	43.28
566.141	43.28
566.337	43.33
566.532	43.51
566.728	43.61
566.923	43.61
567.119	43.84
567.314	44.11
567.51	44.16
567.705	44.02
567.901	44.06
568.096	43.96
568.292	44.07
568.487	44.17
568.682	44.13
568.878	44.04
569.073	44
569.268	43.79
569.464	43.85
569.659	43.95
569.854	44.06
570.05	43.87
570.245	44.1
570.44	44.02
570.635	44.08
570.831	44.4
571.026	44.67
571.221	44.86
571.416	44.97
571.611	44.76
571.806	44.83
572.002	44.9
572.197	45.04
572.392	44.81
572.587	44.98
572.782	44.95
572.977	44.79
573.172	44.72
573.367	44.77
573.562	44.94
573.757	45.14
573.952	45.03
574.147	45.33
574.342	45.42
574.537	45.65
574.732	45.51
574.927	45.59
575.121	45.6
575.316	45.67
575.511	45.68
575.706	45.61
575.901	45.71
576.096	45.78
576.29	45.54
576.485	45.61
576.68	45.76
576.875	45.94
577.069	46.16
577.264	46.32
577.459	46.28
577.654	46.16
577.848	46.21
578.043	46.24
578.238	46.34
578.432	46.34
578.627	46.21
578.821	45.93
579.016	46.01
579.21	45.76
579.405	45.59
579.6	45.72
579.794	45.88
579.989	45.81
580.183	45.55
580.378	45.45
580.572	45.46
580.766	45.6
580.961	45.88
581.155	45.68
581.35	45.86
581.544	46.08
581.738	46
581.933	46.09
582.127	46.21
582.321	46.38
582.516	46.58
582.71	46.84
582.904	47.03
583.099	46.8
583.293	47.02
583.487	46.85
583.681	46.74
583.875	47.05
584.07	47.14
584.264	47.22
584.458	47.41
584.652	47.38
584.846	47.32
585.04	47.18
585.234	47.54
585.428	47.63
585.623	47.86
585.817	47.91
586.011	48.03
586.205	47.91
586.399	48.05
586.593	47.95
586.787	48.01
586.981	47.94
587.174	48.28
587.368	48.25
587.562	48.2
587.756	47.93
587.95	48.24
588.144	48.01
588.338	48.2
588.532	47.93
588.725	48.12
588.919	48.09
589.113	48.36
589.307	48.16
589.501	48.2
589.694	48.43
589.888	48.69
590.082	48.44
590.275	48.48
590.469	48.51
590.663	48.58
590.856	48.3
591.05	48.61
591.244	48.59
591.437	48.87
591.631	48.84
591.824	48.65
592.018	48.64
592.212	48.72
592.405	48.7
592.599	48.87
592.792	49.21
592.986	49.44
593.179	49.21
593.372	49.15
593.566	48.98
593.759	49.09
593.953	49.12
594.146	49.15
594.339	49.26
594.533	49.41
594.726	49.27
594.92	49.27
595.113	49.32
595.306	49.43
595.499	49.29
595.693	49.19
595.886	49.05
596.079	48.96
596.272	48.78
596.466	48.64
596.659	48.49
596.852	48.56
597.045	48.45
597.238	48.46
597.431	48.25
597.624	48.51
597.818	48.58
598.011	48.59
598.204	48.59
598.397	48.78
598.59	48.81
598.783	48.89
598.976	48.57
599.169	48.64
599.362	48.6
599.555	48.91
599.748	48.94
599.941	48.9
600.134	49.07
600.326	49.25
600.519	49.47
600.712	49.41
600.905	49.34
601.098	49.64
601.291	49.67
601.483	49.8
601.676	49.83
601.869	49.71
602.062	49.53
602.255	49.22
602.447	49.05
602.64	48.77
602.833	48.83
603.025	49.01
603.218	49.25
603.411	49.26
603.603	49.21
603.796	49.15
603.989	49.01
604.181	49.21
604.374	49.32
604.566	49.38
604.759	49.39
604.951	49.42
605.144	49.39
605.336	49.21
605.529	49.14
605.721	49.13
605.914	49.03
606.106	49.2
606.299	49.18
606.491	49.34
606.683	49.49
606.876	49.72
607.068	49.83
607.26	49.93
607.453	50.08
607.645	50.1
607.837	49.99
608.03	50.17
608.222	50.13
608.414	50.18
608.606	50.09
608.799	50.13
608.991	50.02
609.183	50.11
609.375	50.25
609.567	50.28
609.759	50.24
609.952	50.2
610.144	50
610.336	50.09
610.528	50
610.72	50.27
610.912	50.22
611.104	50.32
611.296	50.19
611.488	50.39
611.68	50.26
611.872	50.03
612.064	50.29
612.256	50.49
612.448	50.26
612.64	50.67
612.832	50.44
613.023	50.67
613.215	50.52
613.407	50.55
613.599	50.21
613.791	50.25
613.983	50.64
614.174	50.94
614.366	50.9
614.558	51.17
614.75	50.81
614.941	50.78
615.133	50.53
615.325	50.54
615.516	50.72
615.708	50.49
615.9	50.59
616.091	50.45
616.283	50.13
616.475	50.13
616.666	50.13
616.858	50.6
617.049	50.72
617.241	50.62
617.432	50.62
617.624	50.66
617.815	50.94
618.007	50.75
618.198	51.1
618.39	51.19
618.581	51.23
618.773	51.31
618.964	50.98
619.155	51.06
619.347	51.23
619.538	51.49
619.729	51.56
619.921	51.64
620.112	51.64
620.303	51.52
620.494	51.5
620.686	51.66
620.877	51.46
621.068	51.48
621.259	51.24
621.451	51.25
621.642	51.25
621.833	51.24
622.024	51.12
622.215	51.36
622.406	51.39
622.597	51.29
622.788	51.24
622.98	51.49
623.171	52.12
623.362	52.29
623.553	52.58
623.744	52.85
623.935	52.94
624.126	52.71
624.317	52.51
624.508	52.58
624.698	52.46
624.889	52.18
625.08	52.44
625.271	51.92
625.462	51.78
625.653	51.63
625.844	51.15
626.034	51.07
626.225	51.48
626.416	51.52
626.607	51.39
626.798	51.45
626.988	51.54
627.179	51.36
627.37	51.16
627.56	51.43
627.751	51.46
627.942	51.4
628.132	51.34
628.323	51.18
628.514	51.27
628.704	51.25
628.895	51.41
629.085	51.65
629.276	51.57
629.466	51.87
629.657	51.61
629.847	51.44
630.038	51.52
630.228	51.57
630.419	51.75
630.609	51.65
630.8	51.8
630.99	51.56
631.181	51.41
631.371	51.52
631.561	51.45
631.752	51.7
631.942	51.86
632.132	51.81
632.323	51.87
632.513	51.55
632.703	51.54
632.893	51.6
633.084	51.68
633.274	52.07
633.464	51.87
633.654	52.04
633.844	51.87
634.034	51.9
634.225	52.18
634.415	51.96
634.605	51.98
634.795	52.08
634.985	52.09
635.175	52.22
635.365	51.7
635.555	51.43
635.745	51.3
635.935	51.31
636.125	51.31
636.315	51.22
636.505	51.15
636.695	51.3
636.885	51.15
637.075	51.01
637.265	51.28
637.455	51.5
637.644	51.99
637.834	51.91
638.024	51.73
638.214	51.69
638.404	51.57
638.593	51.83
638.783	51.65
638.973	51.91
639.163	52
639.352	52.16
639.542	52.05
639.732	52.4
639.921	52.43
640.111	52.63
640.301	52.89
640.49	53.33
640.68	53.61
640.87	53.73
641.059	53.5
641.249	53.52
641.438	53
641.628	52.92
641.817	52.72
642.007	52.84
642.196	52.59
642.386	52.31
642.575	52.11
642.764	51.87
642.954	51.73
643.143	51.79
643.333	52.08
643.522	52.07
643.711	52.28
643.901	51.6
644.09	51.39
644.279	52.05
644.469	51.94
644.658	51.67
644.847	51.49
645.036	51.95
645.226	51.81
645.415	51.43
645.604	51.66
645.793	51.68
645.982	52.28
646.171	52.7
646.361	52.59
646.55	52.8
646.739	52.81
646.928	52.95
647.117	52.31
647.306	52.65
647.495	52.62
647.684	52.76
647.873	52.85
648.062	52.93
648.251	52.64
648.44	52.13
648.629	52.06
648.818	52.22
649.007	52.41
649.196	52.63
649.384	52.57
649.573	52.79
649.762	52.76
649.951	52.83
650.14	52.85
650.328	52.78
650.517	52.84
650.706	53.09
650.895	53.11
651.083	53.13
651.272	53.5
651.461	53.53
651.65	53.46
651.838	53.23
652.027	52.93
652.216	52.59
652.404	52.55
652.593	53.07
652.781	52.95
652.97	53.13
653.158	52.81
653.347	53.08
653.535	53.17
653.724	52.81
653.912	52.78
654.101	53.01
654.289	53.27
654.478	53.6
654.666	53.24
654.855	53
655.043	52.9
655.231	53.27
655.42	53.3
655.608	53.66
655.796	54.16
655.985	54.14
656.173	53.97
656.361	53.79
656.55	53.54
656.738	53.82
656.926	53.99
657.114	54.06
657.302	54.06
657.491	53.78
657.679	53.32
657.867	53.26
658.055	53.4
658.243	53.63
658.431	53.89
658.619	54.12
658.807	54.13
658.996	54.4
659.184	54.5
659.372	54.55
659.56	54.41
659.748	54.24
659.936	54.32
660.124	54.27
660.311	54.18
660.499	54.05
660.687	54.05
660.875	53.88
661.063	53.57
661.251	53.57
661.439	53.46
661.627	53.56
661.814	53.99
662.002	54.01
662.19	54.14
662.378	54
662.565	54.18
662.753	54.33
662.941	54.88
663.129	54.69
663.316	54.66
663.504	54.35
663.692	54.29
663.879	54.45
664.067	54.48
664.254	54.28
664.442	54.8
664.63	54.97
664.817	55.03
665.005	54.55
665.192	55.12
665.38	54.91
665.567	55.06
665.755	54.97
665.942	54.73
666.13	54.87
666.317	55.16
666.504	54.6
666.692	54.11
666.879	53.73
667.067	53.68
667.254	53.43
667.441	53.51
667.629	53.74
667.816	53.65
668.003	53.6
668.19	53.07
668.378	52.89
668.565	53.1
668.752	52.98
668.939	52.9
669.127	53
669.314	52.77
669.501	52.64
669.688	52.64
669.875	52.3
670.062	52.33
670.249	52.84
670.436	52.99
670.623	53.39
670.81	53.77
670.997	54.14
671.184	54.17
671.371	54.4
671.558	54.54
671.745	54.34
671.932	55.35
672.119	55.45
672.306	55.3
672.493	55.01
672.68	54.49
672.867	54.31
673.054	54.02
673.24	53.85
673.427	53.71
673.614	54.35
673.801	54.38
673.988	53.53
674.174	53.55
674.361	53.35
674.548	53.95
674.734	54.46
674.921	54.65
675.108	54.77
675.294	54.74
675.481	54.47
675.668	54.17
675.854	54.49
676.041	54.68
676.227	54.63
676.414	55.08
676.601	55.51
676.787	55.25
676.974	54.75
677.16	54.68
677.347	54.97
677.533	55.49
677.719	54.95
677.906	54.56
678.092	54.96
678.279	54.9
678.465	54.81
678.651	53.79
678.838	54.24
679.024	54.6
679.21	54.29
679.397	53.89
679.583	53.37
679.769	53.65
679.955	53.67
680.142	53.46
680.328	53.95
680.514	53.33
680.7	53.73
680.886	53.26
681.073	53.56
681.259	53.43
681.445	53.79
681.631	54.07
681.817	53.96
682.003	54.22
682.189	54.27
682.375	53.95
682.561	54.76
682.747	54.64
682.933	54.62
683.119	54.54
683.305	55.11
683.491	55.17
683.677	55.23
683.863	55.49
684.049	55.42
684.235	55.13
684.42	55.09
684.606	54.69
684.792	54.98
684.978	55.32
685.164	54.75
685.349	54.87
685.535	54.48
685.721	54.42
685.907	54.43
686.092	54.61
686.278	54.65
686.464	54.87
686.649	55.18
686.835	54.32
687.021	54.55
687.206	54.75
687.392	54.74
687.577	55.64
687.763	55.82
687.948	55.54
688.134	55.21
688.319	55.44
688.505	55.04
688.69	54.78
688.876	55.1
689.061	54.37
689.247	54.97
689.432	54.99
689.618	54.18
689.803	54.32
689.988	54.79
690.174	55.15
690.359	55.62
690.544	55.97
690.73	56.13
690.915	56.7
691.1	56.89
691.285	56.42
691.471	56.17
691.656	56.4
691.841	56.3
692.026	55.55
692.211	55.67
692.396	54.71
692.582	54.62
692.767	55.1
692.952	55.04
693.137	55.32
693.322	55.12
693.507	55.26
693.692	55.23
693.877	55.33
694.062	54.98
694.247	54.56
694.432	55.32
694.617	54.99
694.802	54.01
694.987	53.24
695.172	53.28
695.357	53.41
695.541	53.79
695.726	53.75
695.911	53.79
696.096	54.22
696.281	55.05
696.466	55.1
696.65	55.04
696.835	55.08
697.02	55.26
697.204	55.09
697.389	55.37
697.574	55.21
697.759	55.28
697.943	54.95
698.128	55.06
698.312	54.74
698.497	54.3
698.682	54.73
698.866	54.85
699.051	55.22
699.235	55.33
699.42	55.5
699.604	55.63
699.789	55.41
699.973	55.46
700.158	55.34
700.342	55.37
700.527	55.41
700.711	55.33
700.895	55.56
701.08	55.31
701.264	55.36
701.448	54.84
701.633	54.38
701.817	54.98
702.001	55.66
702.186	55.86
702.37	55.44
702.554	55.78
702.738	55.98
702.923	55.28
703.107	55.78
703.291	55.48
703.475	54.58
703.659	55.38
703.843	54.86
704.027	55.05
704.212	55.37
704.396	55.53
704.58	55.54
704.764	55.11
704.948	55.8
705.132	55.38
705.316	55.77
705.5	56.88
705.684	56.54
705.868	57.14
706.052	57.1
706.235	56.95
706.419	57.2
706.603	57.36
706.787	57.42
706.971	57.73
707.155	57
707.339	57.14
707.522	57.11
707.706	57.29
707.89	56.68
708.074	56.13
708.257	56.31
708.441	56.58
708.625	56.52
708.808	56.87
708.992	56.6
709.176	57.22
709.359	57.03
709.543	56.68
709.727	56.14
709.91	56.5
710.094	56.43
710.277	56.19
710.461	56.23
710.644	56.82
710.828	56.34
711.011	56.48
711.195	56.51
711.378	56.18
711.562	56.46
711.745	56.77
711.928	57.09
712.112	56.91
712.295	56.87
712.478	56.23
712.662	55.64
712.845	55.47
713.028	55.16
713.212	55.25
713.395	55.74
713.578	56.35
713.761	55.59
713.945	55.29
714.128	55.84
714.311	56.11
714.494	55.65
714.677	55.71
714.86	55.9
715.043	56.18
715.227	55.84
715.41	55.54
715.593	55.18
715.776	55.29
715.959	55.15
716.142	55.29
716.325	54.98
716.508	54.96
716.691	55.21
716.874	55.42
717.057	54.85
717.239	55.38
717.422	55.61
717.605	55.53
717.788	56.1
717.971	56.83
718.154	56.87
718.337	57.61
718.519	58.19
718.702	58.17
718.885	57.53
719.068	58.39
719.25	58.3
719.433	58.4
719.616	58.19
719.798	57.8
719.981	57.06
720.164	56.46
720.346	56.35
720.529	56.71
720.712	55.74
720.894	56.62
721.077	56.17
721.259	56.39
721.442	56.51
721.624	57.21
721.807	57.52
721.989	57.52
722.172	57.55
722.354	57.11
722.537	57.18
722.719	58.44
722.901	58.9
723.084	58.6
723.266	58.05
723.448	58.57
723.631	58.74
723.813	59.05
723.995	59.6
724.178	59.42
724.36	60.01
724.542	60.46
724.724	59.82
724.907	58.59
725.089	59.64
725.271	60.38
725.453	59.19
725.635	58.23
725.817	58.82
725.999	58.19
726.181	58.93
726.364	58.58
726.546	57.75
726.728	58.25
726.91	58.86
727.092	58.03
727.274	57.35
727.456	57.71
727.638	57.72
727.819	56.77
728.001	57.63
728.183	56.53
728.365	55.86
728.547	55.37
728.729	55.46
728.911	55.28
729.093	54.77
729.274	55.1
729.456	55.24
729.638	55.32
729.82	56.39
730.001	55.51
730.183	56.09
730.365	56
730.546	56.84
730.728	56.31
730.91	57.55
731.091	58.58
731.273	58.02
731.455	58.39
731.636	58.75
731.818	58.33
731.999	57.88
732.181	58.44
732.362	58.19
732.544	59.01
732.725	58.97
732.907	58.29
733.088	58.14
733.27	59.57
733.451	59.07
733.633	58.81
733.814	58.49
733.995	59.44
734.177	59.07
734.358	59.82
734.539	58.69
734.721	59.07
734.902	58.56
735.083	58.77
735.264	57.56
735.446	57.5
735.627	57.89
735.808	57.74
735.989	57.24
736.17	57.11
736.351	56.59
736.533	56.46
736.714	56.4
736.895	56.49
737.076	56.01
737.257	56.06
737.438	55.51
737.619	55.56
737.8	55.79
737.981	56.03
738.162	55.83
738.343	56.66
738.524	57.14
738.705	57.85
738.886	57.88
739.067	58.62
739.247	59.47
739.428	59.41
739.609	59.56
739.79	60.67
739.971	60.76
740.151	61.05
740.332	61.01
740.513	60.93
740.694	60.23
740.874	59.96
741.055	59.54
741.236	58.25
741.417	58.66
741.597	57.65
741.778	56.94
741.958	56.72
742.139	57.13
742.32	56.91
742.5	57.06
742.681	57.02
742.861	57.56
743.042	57.28
743.222	58.03
743.403	58.62
743.583	59.26
743.764	58.61
743.944	58.84
744.124	58.46
744.305	58.7
744.485	58.98
744.666	58.53
744.846	59.12
745.026	58.22
745.207	58.19
745.387	58.29
745.567	58.27
745.747	58.26
745.928	58.66
746.108	58.73
746.288	58.67
746.468	56.76
746.648	57.59
746.829	56.6
747.009	57.38
747.189	57.31
747.369	55.86
747.549	55.68
747.729	55.81
747.909	55.3
748.089	54.41
748.269	54.18
748.449	55.84
748.629	55.33
748.809	55.26
748.989	54.97
749.169	54.44
749.349	56.05
749.529	56.5
749.709	56.15
749.889	55.85
750.068	57.32
750.248	57.25
750.428	57.41
750.608	56.53
750.788	56.82
750.967	57.02
751.147	57.46
751.327	57.15
751.507	56.47
751.686	57.71
751.866	57.12
752.046	56.6
752.225	56.81
752.405	56.54
752.585	58.68
752.764	59.52
752.944	58.7
753.123	59.42
753.303	58.77
753.482	60.4
753.662	59.12
753.841	60.74
754.021	60.54
754.2	60.44
754.38	61.05
754.559	60.74
754.739	59.74
754.918	60.64
755.097	58.99
755.277	58.96
755.456	58.26
755.635	58.88
755.815	58.63
755.994	58.78
756.173	58.81
756.352	58.17
756.532	57.09
756.711	57.72
756.89	58.13
757.069	58.48
757.248	57.37
757.427	57.48
757.607	57.42
757.786	57.91
757.965	56.59
758.144	56.92
758.323	55.84
758.502	56.28
758.681	55.55
758.86	54.9
759.039	55.54
759.218	56.69
759.397	55.79
759.576	54.67
759.755	53.38
759.934	54.48
760.113	54.89
760.291	55.55
760.47	55.59
760.649	55.87
760.828	56.04
761.007	56.16
761.186	57.25
761.364	57.49
761.543	58.67
761.722	58.47
761.901	58.39
762.079	57.44
762.258	57.4
762.437	56.76
762.615	57.27
762.794	58.02
762.972	57.45
763.151	56.95
763.33	57.12
763.508	56.18
763.687	55.76
763.865	55.38
764.044	54.59
764.222	54.2
764.401	54.55
764.579	54.21
764.758	53.63
764.936	54.11
765.114	54.44
765.293	54.42
765.471	55.2
765.65	55.89
765.828	56.68
766.006	58.15
766.184	59.88
766.363	59.8
766.541	59.62
766.719	60.31
766.898	60.26
767.076	60.02
767.254	60.2
767.432	60.01
767.61	59.97
767.788	60.37
767.967	60.31
768.145	59.14
768.323	58.82
768.501	60.64
768.679	59.58
768.857	59.94
769.035	60.64
769.213	60.93
769.391	60.39
769.569	60.55
769.747	61.68
769.925	61.82
770.103	62.71
770.281	62.37
770.459	61.05
770.636	62.43
770.814	61.73
770.992	62.01
771.17	60.99
771.348	60.87
771.525	61.36
771.703	59.4
771.881	59.42
772.059	59.1
772.236	60.03
772.414	60.25
772.592	60.38
772.769	61.64
772.947	61.91
773.125	64.17
773.302	66.28
773.48	66.02
773.657	66.66
773.835	66.99
774.013	67.44
774.19	68.63
774.368	69.5
774.545	69.05
774.723	68.65
774.9	67.71
775.077	66.21
775.255	66.09
775.432	67.69
775.61	67.55
775.787	68.15
775.964	65.66
776.142	65.77
776.319	64.97
776.496	64.08
776.674	63.19
776.851	63.09
777.028	62.48
777.205	60.33
777.382	58.18
777.56	57.69
777.737	58.7
777.914	60.49
778.091	60.1
778.268	58.65
778.445	59.6
778.622	59.59
778.8	59.26
778.977	60.79
779.154	68.86
779.331	69.27
779.508	69.44
779.685	69.22
779.862	69.62
780.038	69.27
780.215	71.61
780.392	70.97
780.569	72.07
780.746	70.57
780.923	70.21
781.1	64.43
781.277	66.09
781.453	65.92
781.63	65.73
781.807	66.01
781.984	65.84
782.16	63.9
782.337	64.41
782.514	65.8
782.691	69.28
782.867	70.94
783.044	69.04
783.221	67.62
783.397	67.87
783.574	66.24
783.75	65.27
783.927	64.78
784.103	66.15
784.28	66.12
784.456	64.87
784.633	63.07
784.809	61.63
784.986	62.25
785.162	61.91
785.339	62.04
785.515	63.15
785.692	63.19
785.868	64.2
786.044	62.79
786.221	62.18
786.397	61.34
786.573	60.52
786.749	59.89
786.926	60.35
787.102	61.1
787.278	60.54
787.454	59.79
787.631	60.9
787.807	58.84
787.983	59.91
788.159	61.08
788.335	60.31
788.511	60.47
788.687	60.2
788.863	61.45
789.039	61.05
789.216	61.11
789.392	61.06
789.568	60.01
789.744	61.43
789.919	60.21
790.095	58.54
790.271	60.98
790.447	60.77
790.623	61.15
790.799	60.71
790.975	60.92
791.151	61.95
791.327	61.94
791.502	61.44
791.678	62.29
791.854	63.14
792.03	62.19
792.205	62.76
792.381	63.12
792.557	65.31
792.733	63.3
792.908	63.86
793.084	66.61
793.259	67.46
793.435	68.41
793.611	67.44
793.786	67.12
793.962	69.32
794.137	67.68
794.313	68.39
794.488	66.3
794.664	67.95
794.839	68.45
795.015	64.01
795.19	61.97
795.366	61.84
795.541	61.93
795.716	62.28
795.892	61.63
796.067	61.77
796.242	62.03
796.418	61.44
796.593	61.46
796.768	59.24
796.944	60.24
797.119	59.56
797.294	62.07
797.469	63.51
797.644	63.23
797.82	63.34
797.995	63.57
798.17	63.54
798.345	65.12
798.52	63.73
798.695	63.36
798.87	62.61
799.045	67.46
799.22	64.92
799.395	63.75
799.57	64.46
799.745	64.68
799.92	62.62
800.095	63.86
800.27	58.83
800.445	59.09
800.62	61.03
800.795	61.14
800.97	58.86
801.145	57.81
801.319	57.22
801.494	56.88
801.669	57.38
801.844	60.8
802.018	58.44
802.193	62.42
802.368	61.95
802.543	62.79
802.717	67.44
802.892	66.27
803.067	68.34
803.241	69.51
803.416	67.52
803.59	68.84
803.765	66.09
803.94	67.82
804.114	67.57
804.289	69.31
804.463	68.35
804.638	64.22
804.812	63.17
804.986	61.24
805.161	60.36
805.335	61.91
805.51	61.8
805.684	60.84
805.858	59.01
806.033	58.73
806.207	57.87
806.381	57.29
806.556	58.86
806.73	58.93
806.904	60.2
807.078	60.17
807.253	62.89
807.427	61.77
807.601	65.03
807.775	66.19
807.949	65.33
808.123	64.43
808.298	64.58
808.472	66.16
808.646	67.42
808.82	67.62
808.994	67.8
809.168	66.4
809.342	65.86
809.516	65.99
809.69	69.07
809.864	72.24
810.038	77.04
810.212	76.05
810.385	72.86
810.559	74.26
810.733	72.42
810.907	71.36
811.081	69.2
811.255	71.95
811.428	73.48
811.602	67.92
811.776	65.63
811.95	64.22
812.123	64.71
812.297	63.74
812.471	60.25
812.644	61.47
812.818	63.04
812.992	62.44
813.165	59.51
813.339	59.14
813.512	60.59
813.686	59.56
813.86	57.8
814.033	60.49
814.207	61.71
814.38	67.02
814.554	67.48
814.727	66.31
814.9	68.04
815.074	68.23
815.247	68.17
815.421	66.73
815.594	69.92
815.767	70.53
815.941	68.74
816.114	70.69
816.287	68.89
816.46	69.74
816.634	70.81
816.807	71.96
816.98	72.46
817.153	71.18
817.327	72.35
817.5	73.74
817.673	73.1
817.846	76.95
818.019	75.05
818.192	79.36
818.365	79.72
818.538	80.33
818.711	76.33
818.884	78.67
819.057	78.09
819.23	79.62
819.403	77.02
819.576	76.61
819.749	73.45
819.922	72.13
820.095	66.94
820.268	66.41
820.441	64.21
820.614	66.26
820.786	63.85
820.959	63.27
821.132	61.6
821.305	59.24
821.477	57.56
821.65	55.97
821.823	55.91
821.996	56.33
822.168	55.93
822.341	56.05
822.514	54.84
822.686	54.63
822.859	54
823.031	53.52
823.204	54
823.376	53.64
823.549	53.93
823.722	54.16
823.894	54.35
824.067	54.65
824.239	54.04
824.411	54.25
824.584	54.09
824.756	54.05
824.929	53.92
825.101	54.06
825.273	54.73
825.446	54.39
825.618	53.74
825.79	53.36
825.963	52.43
826.135	52.65
826.307	53.29
826.479	54.09
826.652	54.3
826.824	56.06
826.996	56.53
827.168	56.7
827.34	57.96
827.512	58.14
827.684	58.44
827.856	59.01
828.029	60.58
828.201	60.53
828.373	60.08
828.545	61.28
828.717	60.83
828.889	60.2
829.061	59.7
829.232	60.33
829.404	61.95
829.576	61.48
829.748	61.6
829.92	61.64
830.092	62.38
830.264	62.57
830.436	62.14
830.607	63.2
830.779	63.42
830.951	66.83
831.123	63.99
831.294	63.81
831.466	64.4
831.638	63.75
831.809	62.22
831.981	62.14
832.153	62.49
832.324	61.91
832.496	58.89
832.667	60.22
832.839	60.35
833.011	62.77
833.182	63.42
833.354	67.28
833.525	70.16
833.697	69.02
833.868	68.63
834.039	70.02
834.211	69.49
834.382	68.76
834.554	68.04
834.725	67.91
834.896	66.51
835.068	63.22
835.239	59.76
835.41	59.85
835.581	62.61
835.753	60.96
835.924	59.32
836.095	58.09
836.266	60.27
836.438	59.12
836.609	57.66
836.78	59.52
836.951	63.84
837.122	64.93
837.293	64.94
837.464	63.34
837.635	67.15
837.806	68.56
837.977	71.45
838.148	69.27
838.319	71.82
838.49	71.22
838.661	68.91
838.832	65.1
839.003	66.89
839.174	67.87
839.345	70.02
839.516	65.34
839.687	68.26
839.857	69.16
840.028	66.33
840.199	67.9
840.37	69.9
840.54	73.6
840.711	73.76
840.882	71.96
841.053	65.55
841.223	63.76
841.394	63.88
841.564	62.57
841.735	62.21
841.906	68.35
842.076	68.06
842.247	69.3
842.417	70
842.588	70.65
842.758	71.35
842.929	76.17
843.099	76.99
843.27	78.58
843.44	79.35
843.611	77.96
843.781	72.99
843.951	67.77
844.122	68.63
844.292	67.22
844.462	68.19
844.633	68.27
844.803	69.18
844.973	66.55
845.144	66.58
845.314	64.58
845.484	63.31
845.654	68.95
845.824	78.69
845.995	76.81
846.165	77.67
846.335	78.24
846.505	92.09
846.675	97.73
846.845	98.45
847.015	100.93
847.185	109.8
847.355	115.61
847.525	116.7
847.695	113.65
847.865	109.25
848.035	103.27
848.205	113.76
848.375	100.98
848.545	92.3
848.715	91.79
848.884	88.46
849.054	82.16
849.224	80.75
849.394	82.84
849.564	85.04
849.733	85.41
849.903	90.84
850.073	84.09
850.243	73.27
850.412	74.43
850.582	72.2
850.752	76.42
850.921	76.19
851.091	78.43
851.26	75.42
851.43	70.03
851.599	68.92
851.769	64.73
851.939	69.44
852.108	72.94
852.278	73.29
852.447	77.95
852.616	84.1
852.786	79.84
852.955	79.05
853.125	80.97
853.294	84.97
853.463	82.24
853.633	85.45
853.802	80.12
853.971	88.85
854.141	93.06
854.31	98.27
854.479	88.75
854.648	86.6
854.818	84.44
854.987	80.38
855.156	87.95
855.325	107.81
855.494	117.32
855.663	115.48
855.832	115.06
856.001	117.51
856.171	118.07
856.34	124.08
856.509	136.02
856.678	139.37
856.847	147.15
857.016	129.9
857.185	115.81
857.353	111.53
857.522	116.35
857.691	106.45
857.86	110.12
858.029	111.77
858.198	114.79
858.367	110
858.535	115.91
858.704	118.06
858.873	123.71
859.042	121.08
859.21	132.01
859.379	125.7
859.548	135.58
859.717	130.28
859.885	128
860.054	119.41
860.222	115.02
860.391	113.72
860.56	108.46
860.728	111.01
860.897	110.02
861.065	97.74
861.234	97.45
861.402	96.73
861.571	99.36
861.739	99.49
861.908	108.61
862.076	118.68
862.244	123.21
862.413	130.48
862.581	117.4
862.749	120.26
862.918	125.09
863.086	124.68
863.254	104.5
863.423	98.66
863.591	91.92
863.759	89.87
863.927	84.76
864.096	89.59
864.264	91.26
864.432	95.35
864.6	91.6
864.768	90.67
864.936	90.3
865.104	103.12
865.272	107.87
865.44	118.74
865.608	105.36
865.776	110.52
865.944	93.09
866.112	91.22
866.28	98.15
866.448	104.02
866.616	109.6
866.784	119.71
866.952	112.13
867.12	107.97
867.288	103.97
867.455	110.23
867.623	108.95
867.791	122.26
867.959	116.45
868.127	111.56
868.294	112.49
868.462	92.68
868.63	71.91
868.797	69.06
868.965	67.67
869.133	61.12
869.3	67.07
869.468	70.79
869.636	73.48
869.803	73.35
869.971	73.06
870.138	83.26
870.306	88.66
870.473	91.79
870.641	93.22
870.808	103.94
870.975	102.51
871.143	96.24
871.31	96.65
871.478	87.9
871.645	91.07
871.812	92.22
871.98	92.49
872.147	89.44
872.314	91.8
872.482	87.06
872.649	81.51
872.816	89
872.983	92.89
873.15	91.58
873.318	98.01
873.485	98.49
873.652	103.72
873.819	107.99
873.986	99.26
874.153	100.48
874.32	94.75
874.487	91.22
874.654	81.48
874.821	80.24
874.988	79.25
875.155	76.52
875.322	80.51
875.489	75.51
875.656	72.95
875.823	89.29
875.99	84.65
876.157	98.16
876.324	99.82
876.49	108.25
876.657	106.41
876.824	107.45
876.991	105.82
877.157	108.06
877.324	110.47
877.491	110.98
877.658	105.09
877.824	104.3
877.991	107.55
878.157	114.76
878.324	116
878.491	112.19
878.657	112.64
878.824	104.32
878.99	96.39
879.157	92.96
879.323	83.77
879.49	77.94
879.656	82.03
879.823	81.28
879.989	79.11
880.156	77.88
880.322	77.17
880.488	73.45
880.655	80.7
880.821	80.33
880.987	79.72
881.154	82.03
881.32	88.31
881.486	89.03
881.652	83.01
881.819	84.33
881.985	84.38
882.151	79.31
882.317	76.54
882.483	72.34
882.649	68.36
882.816	66.47
882.982	64.03
883.148	61.87
883.314	60.21
883.48	61.8
883.646	58.19
883.812	56.91
883.978	59.3
884.144	60.28
884.31	60.63
884.476	60.64
884.642	59.37
884.807	61.39
884.973	60.76
885.139	60.31
885.305	59.88
885.471	60.92
885.637	60.51
885.802	59.08
885.968	59.74
886.134	60.47
886.3	63.53
886.465	67.26
886.631	66.37
886.797	71.8
886.962	74.85
887.128	76.76
887.293	79.67
887.459	83.97
887.625	84.73
887.79	82.54
887.956	85.34
888.121	83.87
888.287	81.72
888.452	81.97
888.618	77.26
888.783	71.84
