Data from LC_187_Reflection_1.txt Node
Date: Tue Nov 17 13:20:21 EST 2015
User: robert
Spectrometer: USB4E03001
Autoset integration time: false
Trigger mode: 4
Integration Time (sec): 1.000000E-1
Scans to average: 15
Electric dark correction enabled: true
Nonlinearity correction enabled: false
Boxcar width: 5
Stray light correction enabled: false
XAxis mode: Wavelengths
Stop averaging: false
Number of Pixels in Spectrum: 3648
>>>>>Begin Spectral Data<<<<<
177.566	120.28
177.785	240.6
178.005	-1077.61
178.225	359.53
178.445	-507.43
178.665	-84.76
178.885	-35.81
179.105	-165.75
179.324	495.72
179.544	696.14
179.764	163.37
179.984	113.79
180.204	176.9
180.423	380.07
180.643	561.44
180.863	-1831.8
181.083	-1732.91
181.302	353.63
181.522	191.01
181.742	522
181.961	6341.18
182.181	-342.41
182.401	-20.94
182.621	-128.66
182.84	-128.53
183.06	-365.04
183.279	396.69
183.499	-3206.72
183.719	-220.87
183.938	-89.61
184.158	-139.69
184.377	-167.56
184.597	-120.76
184.816	140.42
185.036	131.2
185.256	167.22
185.475	89.19
185.695	136.58
185.914	77.56
186.134	143.91
186.353	69.95
186.572	88.91
186.792	109.19
187.011	118.79
187.231	433.24
187.45	1566.53
187.67	296
187.889	345.49
188.108	222.39
188.328	254.15
188.547	217.87
188.766	-961.76
188.986	864.13
189.205	230.25
189.424	300
189.644	199.64
189.863	146.64
190.082	148.74
190.302	194.83
190.521	349.69
190.74	6707.14
190.959	909.12
191.178	220.46
191.398	168.24
191.617	472.57
191.836	293.36
192.055	233.86
192.274	-580.05
192.494	-351.79
192.713	-1053.84
192.932	-297.68
193.151	781.16
193.37	10555.56
193.589	-581450
193.808	16104.49
194.027	-2020.45
194.246	-831.53
194.465	3704.42
194.685	433.04
194.904	310.45
195.123	49429.17
195.342	1288.15
195.561	376.65
195.78	323.11
195.999	360.77
196.218	218.07
196.436	189.69
196.655	143.65
196.874	139
197.093	136.92
197.312	115.27
197.531	89.73
197.75	78.01
197.969	107.09
198.188	106.39
198.407	88.56
198.625	92.1
198.844	87.49
199.063	61.29
199.282	73.73
199.501	48.2
199.719	72.82
199.938	101.98
200.157	125.39
200.376	103.63
200.594	121.4
200.813	106.94
201.032	178.89
201.251	240.53
201.469	3688.85
201.688	1147.93
201.907	-6100.85
202.125	1784.44
202.344	1752.75
202.563	1546.14
202.781	1013.82
203	-1231.66
203.218	-246.41
203.437	-333.34
203.656	-152.59
203.874	-409.09
204.093	-772.35
204.311	-633.23
204.53	15147.37
204.748	-561.76
204.967	2687.64
205.185	562.1
205.404	236.43
205.622	212.53
205.841	171.05
206.059	210.05
206.278	161.28
206.496	135.59
206.715	118.98
206.933	101.03
207.151	71.89
207.37	49.42
207.588	49.93
207.806	56.58
208.025	94.5
208.243	97.51
208.461	90.94
208.68	158.66
208.898	-209.05
209.116	-375.9
209.335	930.69
209.553	-736.09
209.771	345.96
209.989	156.55
210.208	163.31
210.426	122.71
210.644	146.26
210.862	119.74
211.081	62.25
211.299	46.42
211.517	64.4
211.735	62.76
211.953	86.33
212.171	100.19
212.39	235.54
212.608	218.31
212.826	305.61
213.044	267.55
213.262	270.85
213.48	-14446.27
213.698	-755.49
213.916	388.58
214.134	-837.63
214.352	-191.74
214.57	-257.05
214.788	2880.55
215.006	1161.73
215.224	1101.31
215.442	697.71
215.66	727.73
215.878	440.82
216.096	203.13
216.314	219.93
216.532	137.36
216.75	117.25
216.968	111.85
217.185	123.88
217.403	113.14
217.621	107.61
217.839	123.5
218.057	131.55
218.275	147.05
218.492	163.18
218.71	153.99
218.928	178.92
219.146	190.62
219.363	180.54
219.581	138.68
219.799	172.77
220.017	199.62
220.234	186.47
220.452	140.96
220.67	124.07
220.887	138.25
221.105	163.74
221.323	149.2
221.54	139.75
221.758	139.28
221.976	144.26
222.193	122.53
222.411	94.41
222.629	97.45
222.846	106.54
223.064	95.58
223.281	97.34
223.499	85.8
223.716	100.94
223.934	86.33
224.151	75.31
224.369	51.22
224.586	50.07
224.804	83.25
225.021	89.13
225.239	85.63
225.456	76.43
225.674	63.7
225.891	66.07
226.108	54.18
226.326	57.71
226.543	58.88
226.76	65.95
226.978	59.26
227.195	51.37
227.413	41.2
227.63	40.35
227.847	45.07
228.064	41.14
228.282	35.62
228.499	38.33
228.716	36.55
228.934	39.71
229.151	40.08
229.368	37.55
229.585	37.09
229.802	38.3
230.02	38.5
230.237	39.73
230.454	41.12
230.671	44.07
230.888	40.76
231.105	42.12
231.323	40.85
231.54	39.46
231.757	43.95
231.974	42.62
232.191	39.75
232.408	36.76
232.625	29.35
232.842	31.67
233.059	32.2
233.276	34.8
233.493	33.37
233.71	32.72
233.927	32.03
234.144	29.99
234.361	31.08
234.578	36.34
234.795	35.12
235.012	38.04
235.229	37.52
235.446	33.18
235.663	40.68
235.879	41.85
236.096	40.88
236.313	39.96
236.53	41.08
236.747	34.88
236.964	32.62
237.181	42.87
237.397	40.23
237.614	45.3
237.831	51.15
238.048	44.57
238.264	45.51
238.481	43.49
238.698	40.49
238.915	40.17
239.131	47.18
239.348	48.33
239.565	39.97
239.781	44.39
239.998	41.84
240.215	38.8
240.431	34.94
240.648	31.2
240.865	32.44
241.081	32.46
241.298	30.81
241.514	28.28
241.731	26.51
241.947	25.5
242.164	22.19
242.38	19.09
242.597	19.06
242.814	19.27
243.03	18.28
243.246	16.49
243.463	15.52
243.679	15.52
243.896	13.71
244.112	12.6
244.329	12.48
244.545	12.88
244.762	14.09
244.978	12.3
245.194	12.86
245.411	15.15
245.627	16.49
245.843	16.15
246.06	15.45
246.276	14.28
246.492	14.33
246.709	15.47
246.925	16.22
247.141	17.18
247.357	17.53
247.574	18.05
247.79	16.82
248.006	16.9
248.222	17.91
248.439	18.24
248.655	19.09
248.871	19.82
249.087	19.49
249.303	19.6
249.519	18.99
249.736	19.79
249.952	19.1
250.168	22.18
250.384	21.39
250.6	21.87
250.816	20.89
251.032	19.86
251.248	19.32
251.464	18.88
251.68	19.35
251.896	18.53
252.112	14.71
252.328	15.87
252.544	13.9
252.76	14.32
252.976	13.99
253.192	13.84
253.408	15.48
253.624	16.9
253.84	17.19
254.056	16.05
254.272	16.67
254.487	19.28
254.703	19.79
254.919	21.29
255.135	22.83
255.351	22.64
255.567	22.82
255.782	20.6
255.998	17.7
256.214	16.94
256.43	16.84
256.646	16.82
256.861	16.29
257.077	16.3
257.293	16.9
257.508	15.74
257.724	16.77
257.94	16.58
258.155	17.16
258.371	17.04
258.587	15.8
258.802	14.94
259.018	14.19
259.234	15.1
259.449	15.06
259.665	14.38
259.88	13.98
260.096	13.83
260.312	14.21
260.527	13.95
260.743	14.12
260.958	14.29
261.174	14.87
261.389	14.84
261.605	14.21
261.82	13.88
262.036	13.85
262.251	13.13
262.466	11.45
262.682	12.26
262.897	12.98
263.113	11.89
263.328	11.81
263.543	10.93
263.759	10.88
263.974	11.62
264.189	11.85
264.405	12.38
264.62	14.94
264.835	17.72
265.051	15.83
265.266	15.07
265.481	17
265.696	18.44
265.912	20.79
266.127	19.49
266.342	16.59
266.557	14.3
266.773	14.66
266.988	13.95
267.203	12.91
267.418	14.02
267.633	14.36
267.848	13.09
268.064	11.41
268.279	10.1
268.494	10.89
268.709	12.98
268.924	14.33
269.139	13.85
269.354	15.58
269.569	15.32
269.784	14.2
269.999	13.93
270.214	12.98
270.429	14.56
270.644	12.61
270.859	12.94
271.074	13.45
271.289	14.08
271.504	13.23
271.719	11.93
271.934	11.91
272.149	11.47
272.363	13.23
272.578	14.24
272.793	13.73
273.008	15.35
273.223	15.85
273.438	14.56
273.653	13.22
273.867	14.73
274.082	14.52
274.297	15.27
274.512	16.42
274.726	14.12
274.941	12.92
275.156	13.62
275.371	12.61
275.585	12.4
275.8	13.68
276.015	14.75
276.229	13.99
276.444	12.8
276.659	12.75
276.873	12.68
277.088	13.2
277.302	14.09
277.517	12.9
277.732	12.76
277.946	12.44
278.161	13.08
278.375	13.9
278.59	13.87
278.804	14.76
279.019	14.05
279.233	13.06
279.448	13.76
279.662	15.56
279.877	15.61
280.091	16.41
280.306	17.1
280.52	16.72
280.735	16.74
280.949	16.26
281.163	15.95
281.378	17.36
281.592	18.08
281.806	16.76
282.021	15.83
282.235	16.36
282.449	15.55
282.664	15.29
282.878	16.21
283.092	15.53
283.307	16.3
283.521	16.66
283.735	15.21
283.949	14.28
284.164	14.48
284.378	13.49
284.592	13.64
284.806	14.31
285.02	12.93
285.234	11.4
285.449	11.32
285.663	10.83
285.877	11.41
286.091	11.18
286.305	11.07
286.519	11.31
286.733	12.25
286.947	11.73
287.161	11.8
287.375	12.48
287.589	12.55
287.803	13.13
288.017	13.52
288.231	13.04
288.445	14.17
288.659	13.96
288.873	13.56
289.087	13.77
289.301	14.4
289.515	14.5
289.729	15.41
289.943	15.35
290.157	14.11
290.371	13.49
290.584	13.44
290.798	12.93
291.012	14.07
291.226	14.85
291.44	13.42
291.654	13.75
291.867	12.84
292.081	12.32
292.295	12.49
292.509	12.31
292.722	12.55
292.936	12.72
293.15	13.31
293.364	12.21
293.577	12.72
293.791	12.31
294.005	11.11
294.218	11.88
294.432	12.13
294.645	12.58
294.859	13.68
295.073	14.01
295.286	12.96
295.5	12.16
295.713	12.59
295.927	11.54
296.14	12.63
296.354	12.77
296.568	13.08
296.781	12.8
296.994	12.58
297.208	12.47
297.421	12.42
297.635	13.07
297.848	13.57
298.062	13.86
298.275	13.93
298.489	13.87
298.702	13.85
298.915	13.61
299.129	13.07
299.342	13.02
299.555	12.83
299.769	12.75
299.982	12.69
300.195	12
300.409	11.04
300.622	10.66
300.835	11.28
301.048	11.41
301.262	11.28
301.475	11.85
301.688	11.64
301.901	11.64
302.115	12.53
302.328	12.25
302.541	12.5
302.754	13.25
302.967	13.71
303.18	13.28
303.393	13.17
303.607	13.73
303.82	14.27
304.033	13.89
304.246	14.28
304.459	13.66
304.672	14.34
304.885	14.64
305.098	14.15
305.311	15.23
305.524	15.54
305.737	16.11
305.95	16.34
306.163	15.05
306.376	15.33
306.589	14.64
306.802	13.93
307.015	12.71
307.228	13.91
307.44	14.83
307.653	13.8
307.866	13.05
308.079	12.21
308.292	11.68
308.505	12.42
308.718	13.46
308.93	13.8
309.143	14.6
309.356	14.25
309.569	13.9
309.781	13.74
309.994	12.86
310.207	12.75
310.42	11.57
310.632	10.94
310.845	11.13
311.058	9.66
311.27	9.15
311.483	8.35
311.696	9.1
311.908	8.24
312.121	8.04
312.333	8.47
312.546	8.77
312.759	10.22
312.971	10.81
313.184	11.83
313.396	12.23
313.609	12.95
313.821	13.5
314.034	14.3
314.246	15.35
314.459	15.53
314.671	15.94
314.884	15.9
315.096	16.84
315.309	16.36
315.521	15.04
315.733	16.05
315.946	15.68
316.158	16.48
316.371	15.73
316.583	16.03
316.795	16.05
317.008	15.17
317.22	13.93
317.432	13.68
317.644	13.21
317.857	13.29
318.069	13.69
318.281	13.63
318.494	13.09
318.706	13.37
318.918	12.48
319.13	13.49
319.342	14.55
319.555	14.74
319.767	14.66
319.979	15.35
320.191	15.65
320.403	15.51
320.615	15.79
320.827	15.01
321.039	15.23
321.252	14.54
321.464	13.86
321.676	14.85
321.888	15.66
322.1	15.78
322.312	15.34
322.524	14.76
322.736	14.72
322.948	14.35
323.16	15.29
323.372	14.21
323.584	15.53
323.796	16.42
324.007	15.72
324.219	16.8
324.431	16.85
324.643	17.65
324.855	18.38
325.067	18.52
325.279	18.96
325.491	19.15
325.702	20.34
325.914	19.71
326.126	18.57
326.338	19.24
326.55	17.09
326.761	16.41
326.973	15.18
327.185	14.87
327.396	14.12
327.608	13.84
327.82	13.12
328.032	13.08
328.243	12.17
328.455	11.98
328.666	11.29
328.878	12.48
329.09	12.7
329.301	13.63
329.513	13.51
329.725	13.25
329.936	14.02
330.148	15.39
330.359	14.93
330.571	15.64
330.782	15.6
330.994	16.02
331.205	15.84
331.417	15.68
331.628	15.75
331.84	17.28
332.051	17.76
332.262	16.76
332.474	15.62
332.685	15.55
332.897	15.57
333.108	16.14
333.319	14.73
333.531	14.24
333.742	13.62
333.953	13.04
334.165	11.17
334.376	11.56
334.587	11.84
334.799	11.91
335.01	11.85
335.221	11.37
335.432	9.89
335.644	10.64
335.855	11.19
336.066	11.87
336.277	12.11
336.488	12.1
336.7	11.53
336.911	11.42
337.122	10.83
337.333	10.77
337.544	11.23
337.755	12.13
337.966	11.8
338.177	11.94
338.388	11.34
338.599	11.33
338.811	11.24
339.022	11.08
339.233	9.77
339.444	9.27
339.655	10.12
339.866	10.38
340.076	9.89
340.287	10.36
340.498	10.16
340.709	11.72
340.92	11.76
341.131	11.21
341.342	11.71
341.553	12.67
341.764	13.54
341.975	12.56
342.185	12.54
342.396	12.41
342.607	12.73
342.818	13.08
343.029	11.8
343.239	12.1
343.45	13.06
343.661	12.98
343.872	13.52
344.082	13.14
344.293	13.73
344.504	13.13
344.714	13.52
344.925	12.68
345.136	12.47
345.346	12.55
345.557	11.78
345.768	11.87
345.978	11.73
346.189	11.9
346.399	12.46
346.61	12.42
346.821	12.28
347.031	12.39
347.242	11.76
347.452	11.96
347.663	11.92
347.873	12.5
348.084	10.99
348.294	11.2
348.504	10.52
348.715	10.56
348.925	10.46
349.136	10.58
349.346	10.74
349.557	11.67
349.767	11.17
349.977	10.67
350.188	10.58
350.398	11.28
350.608	11.09
350.819	11.18
351.029	10.82
351.239	11.03
351.449	11.08
351.66	11.63
351.87	11.99
352.08	12.3
352.29	12.93
352.501	12.55
352.711	13.25
352.921	12.94
353.131	13.01
353.341	12.87
353.552	11.77
353.762	11.57
353.972	10.35
354.182	11.05
354.392	11.22
354.602	11.25
354.812	11.43
355.022	11.3
355.232	10.79
355.442	10.56
355.652	10.65
355.862	10.91
356.072	11.46
356.282	11.62
356.492	10.34
356.702	10.34
356.912	9.97
357.122	10.04
357.332	9.91
357.542	10.43
357.752	10.3
357.962	9.97
358.171	10.08
358.381	9.62
358.591	8.88
358.801	9.05
359.011	8.62
359.221	9.34
359.43	9.1
359.64	8.79
359.85	8.73
360.06	8.8
360.269	8.7
360.479	8.34
360.689	8.38
360.899	9
361.108	8.83
361.318	8.67
361.528	8.1
361.737	8.43
361.947	8.7
362.156	8.99
362.366	8.98
362.576	9.15
362.785	9.4
362.995	9.55
363.204	9.27
363.414	9.19
363.623	9.19
363.833	9.43
364.042	9.05
364.252	8.49
364.461	7.95
364.671	8.18
364.88	8
365.09	8.03
365.299	7.65
365.509	7.67
365.718	8.57
365.927	8.31
366.137	8.3
366.346	8.83
366.555	9.13
366.765	9.31
366.974	9.22
367.183	9.68
367.393	9.32
367.602	9.21
367.811	9.14
368.021	8.36
368.23	9.69
368.439	10.27
368.648	9.88
368.857	9.47
369.067	9.78
369.276	9.68
369.485	9.93
369.694	10.08
369.903	10.38
370.112	10.76
370.321	11.15
370.531	9.97
370.74	8.97
370.949	8.52
371.158	9.49
371.367	8.58
371.576	8.78
371.785	8.7
371.994	8.84
372.203	8.82
372.412	8.62
372.621	8.19
372.83	8.42
373.039	8.85
373.248	9.38
373.457	9.08
373.666	9.99
373.874	9.56
374.083	9.09
374.292	9.26
374.501	9.33
374.71	9.57
374.919	9.73
375.128	9.52
375.336	9.3
375.545	9.27
375.754	8.67
375.963	7.69
376.171	8.07
376.38	8.64
376.589	8.54
376.798	8.32
377.006	7.98
377.215	8.24
377.424	8.32
377.632	8.22
377.841	8.3
378.05	8.95
378.258	9.37
378.467	9.14
378.675	8.39
378.884	8.48
379.093	8.8
379.301	9.33
379.51	9.01
379.718	8.84
379.927	8.69
380.135	8.32
380.344	8.29
380.552	8.42
380.761	8.55
380.969	9
381.177	8.94
381.386	8.13
381.594	7.73
381.803	7.63
382.011	7.46
382.219	7.64
382.428	8.03
382.636	7.86
382.845	7.65
383.053	7.47
383.261	7.06
383.469	7.09
383.678	7.88
383.886	7.65
384.094	7.32
384.302	7.36
384.511	7.35
384.719	7.19
384.927	7.17
385.135	7.43
385.343	7.48
385.552	7.45
385.76	7.58
385.968	7.26
386.176	7.6
386.384	8.11
386.592	8.27
386.8	8.4
387.008	8.26
387.216	8.31
387.424	7.74
387.633	7.61
387.841	7.92
388.049	7.88
388.257	7.8
388.465	7.94
388.672	7.69
388.88	7.57
389.088	7.7
389.296	7.88
389.504	8.07
389.712	8.28
389.92	8.48
390.128	8.4
390.336	8.07
390.544	8
390.751	7.76
390.959	7.71
391.167	7.87
391.375	7.56
391.583	6.99
391.79	6.48
391.998	6.61
392.206	6.64
392.414	6.44
392.621	6.52
392.829	6.7
393.037	6.65
393.244	6.72
393.452	6.65
393.66	6.49
393.867	6.95
394.075	7.22
394.283	7.36
394.49	7.18
394.698	7.31
394.905	7.15
395.113	7.05
395.32	7.07
395.528	7.06
395.735	7.22
395.943	7.14
396.15	7.05
396.358	6.99
396.565	6.65
396.773	6.58
396.98	6.6
397.188	6.76
397.395	6.69
397.602	6.65
397.81	6.92
398.017	6.8
398.225	7.31
398.432	7.35
398.639	7.44
398.847	8.03
399.054	7.82
399.261	7.88
399.468	7.58
399.676	7.61
399.883	7.66
400.09	7.29
400.297	7.42
400.505	7.09
400.712	7.05
400.919	7.02
401.126	6.51
401.333	6.79
401.54	6.8
401.748	6.92
401.955	7.12
402.162	7.26
402.369	7.36
402.576	7.18
402.783	7.03
402.99	6.97
403.197	6.99
403.404	6.84
403.611	6.59
403.818	6.35
404.025	6.14
404.232	5.72
404.439	5.53
404.646	5.75
404.853	5.76
405.06	5.91
405.267	5.75
405.474	5.33
405.681	5.41
405.887	5.8
406.094	6.06
406.301	6.19
406.508	6.33
406.715	6.19
406.922	5.94
407.128	6.04
407.335	5.92
407.542	6.18
407.749	6.48
407.955	6.6
408.162	6.43
408.369	6.3
408.575	6.59
408.782	6.78
408.989	7.1
409.195	7.36
409.402	7.17
409.609	7.19
409.815	7.06
410.022	7.07
410.228	6.76
410.435	6.69
410.642	6.41
410.848	6.34
411.055	6.33
411.261	5.98
411.468	5.92
411.674	5.85
411.881	5.89
412.087	6.09
412.294	6.24
412.5	6.56
412.706	6.52
412.913	6.64
413.119	6.76
413.326	6.67
413.532	6.85
413.738	6.56
413.945	6.45
414.151	6.44
414.357	6.3
414.564	6.11
414.77	6.13
414.976	6.4
415.182	6.45
415.389	5.95
415.595	5.96
415.801	5.99
416.007	6.19
416.214	6.45
416.42	6.46
416.626	6.43
416.832	6.34
417.038	6.38
417.244	6.07
417.45	6.25
417.657	6.37
417.863	6.32
418.069	5.99
418.275	5.75
418.481	5.69
418.687	5.67
418.893	5.66
419.099	5.66
419.305	5.58
419.511	5.71
419.717	5.5
419.923	5.58
420.129	5.56
420.335	5.72
420.541	5.61
420.746	5.55
420.952	5.43
421.158	5.37
421.364	5.35
421.57	5.31
421.776	5.16
421.982	5.15
422.187	5.07
422.393	5.01
422.599	4.98
422.805	5.02
423.01	4.99
423.216	5.03
423.422	5.13
423.628	5.17
423.833	5.14
424.039	5.08
424.245	5.05
424.45	5.11
424.656	5.13
424.862	5.1
425.067	5.09
425.273	5.19
425.478	5.31
425.684	5.06
425.889	5.12
426.095	5.09
426.301	5.16
426.506	5.38
426.712	5.38
426.917	5.39
427.123	5.59
427.328	5.72
427.533	5.75
427.739	5.74
427.944	5.95
428.15	5.78
428.355	5.92
428.561	5.91
428.766	5.45
428.971	5.54
429.177	5.73
429.382	5.73
429.587	5.74
429.793	5.75
429.998	5.55
430.203	5.54
430.408	5.51
430.614	5.44
430.819	5.58
431.024	5.88
431.229	5.72
431.434	5.61
431.64	5.55
431.845	5.53
432.05	5.47
432.255	5.69
432.46	5.75
432.665	5.85
432.87	5.84
433.076	5.64
433.281	5.56
433.486	5.49
433.691	5.62
433.896	5.54
434.101	5.63
434.306	5.72
434.511	5.66
434.716	5.62
434.921	5.56
435.126	5.55
435.331	5.72
435.535	5.76
435.74	5.77
435.945	5.55
436.15	5.47
436.355	5.38
436.56	5.29
436.765	5.33
436.97	5.24
437.174	5.15
437.379	5.01
437.584	4.9
437.789	4.77
437.993	4.76
438.198	4.81
438.403	5.03
438.608	5
438.812	4.78
439.017	4.57
439.222	4.48
439.426	4.58
439.631	4.66
439.836	4.68
440.04	4.68
440.245	4.74
440.45	4.63
440.654	4.45
440.859	4.37
441.063	4.51
441.268	4.51
441.472	4.66
441.677	4.71
441.881	4.83
442.086	5
442.29	5.1
442.495	5.21
442.699	5.3
442.904	5.42
443.108	5.43
443.312	5.49
443.517	5.51
443.721	5.5
443.925	5.41
444.13	5.14
444.334	4.92
444.538	4.93
444.743	4.7
444.947	4.78
445.151	4.58
445.356	4.65
445.56	4.56
445.764	4.7
445.968	4.67
446.173	4.68
446.377	4.77
446.581	4.86
446.785	4.75
446.989	4.78
447.193	4.82
447.398	4.98
447.602	5.08
447.806	5.14
448.01	5.03
448.214	5.02
448.418	4.95
448.622	4.86
448.826	4.84
449.03	4.96
449.234	5
449.438	4.85
449.642	4.92
449.846	4.66
450.05	4.54
450.254	4.47
450.458	4.28
450.662	4.26
450.866	4.42
451.069	4.42
451.273	4.2
451.477	4.25
451.681	4.34
451.885	4.21
452.089	4.31
452.292	4.37
452.496	4.4
452.7	4.62
452.904	4.65
453.107	4.77
453.311	4.68
453.515	4.84
453.719	4.88
453.922	4.78
454.126	4.8
454.33	4.95
454.533	4.93
454.737	5.02
454.94	4.75
455.144	4.81
455.348	4.67
455.551	4.63
455.755	4.65
455.958	4.61
456.162	4.53
456.365	4.44
456.569	4.31
456.772	4.54
456.976	4.45
457.179	4.72
457.383	4.68
457.586	4.76
457.79	4.86
457.993	5.01
458.196	4.97
458.4	5.16
458.603	5.41
458.807	5.29
459.01	5.22
459.213	5.26
459.417	5.13
459.62	5.21
459.823	5.11
460.026	5.05
460.23	5.01
460.433	5.03
460.636	4.92
460.839	4.86
461.042	4.92
461.246	4.84
461.449	4.85
461.652	4.97
461.855	5.03
462.058	4.96
462.261	5.06
462.464	4.98
462.668	4.81
462.871	4.86
463.074	4.75
463.277	4.68
463.48	4.78
463.683	4.8
463.886	4.82
464.089	4.72
464.292	4.82
464.495	4.71
464.698	4.74
464.901	4.83
465.104	4.81
465.306	4.73
465.509	4.98
465.712	4.8
465.915	4.93
466.118	4.92
466.321	4.67
466.524	4.55
466.726	4.67
466.929	4.79
467.132	4.92
467.335	5
467.538	5.02
467.74	4.83
467.943	4.93
468.146	4.65
468.348	4.66
468.551	4.71
468.754	4.98
468.956	4.8
469.159	4.7
469.362	4.63
469.564	4.49
469.767	4.52
469.969	4.64
470.172	4.68
470.375	4.65
470.577	4.65
470.78	4.68
470.982	4.5
471.185	4.62
471.387	4.56
471.59	4.63
471.792	4.69
471.995	4.88
472.197	4.91
472.399	4.84
472.602	5.08
472.804	5.14
473.007	5.1
473.209	5.1
473.411	5.05
473.614	5.13
473.816	5.07
474.018	5.22
474.22	4.91
474.423	5
474.625	4.96
474.827	4.88
475.03	4.75
475.232	4.87
475.434	4.91
475.636	5
475.838	4.96
476.04	4.87
476.243	4.68
476.445	4.68
476.647	4.6
476.849	4.59
477.051	4.54
477.253	4.72
477.455	4.82
477.657	4.7
477.859	4.62
478.061	4.57
478.263	4.69
478.465	4.81
478.667	4.91
478.869	4.96
479.071	5.06
479.273	5.11
479.475	4.95
479.677	4.86
479.879	4.99
480.081	5
480.283	5.06
480.485	4.9
480.686	4.76
480.888	4.76
481.09	4.56
481.292	4.34
481.494	4.3
481.695	4.38
481.897	4.3
482.099	4.26
482.301	4.33
482.502	4.28
482.704	4.27
482.906	4.32
483.107	4.28
483.309	4.3
483.511	4.35
483.712	4.36
483.914	4.29
484.115	4.29
484.317	4.29
484.519	4.24
484.72	4.24
484.922	4.27
485.123	4.26
485.325	4.24
485.526	4.29
485.728	4.27
485.929	4.24
486.131	4.26
486.332	4.24
486.534	4.23
486.735	4.24
486.936	4.22
487.138	4.18
487.339	4.16
487.541	4.24
487.742	4.18
487.943	4.18
488.144	4.2
488.346	4.25
488.547	4.26
488.748	4.31
488.95	4.28
489.151	4.35
489.352	4.37
489.553	4.41
489.755	4.36
489.956	4.38
490.157	4.38
490.358	4.4
490.559	4.27
490.76	4.36
490.961	4.28
491.163	4.33
491.364	4.31
491.565	4.35
491.766	4.3
491.967	4.34
492.168	4.35
492.369	4.43
492.57	4.53
492.771	4.62
492.972	4.62
493.173	4.68
493.374	4.8
493.575	4.79
493.776	4.78
493.976	4.86
494.177	4.78
494.378	4.81
494.579	4.8
494.78	4.72
494.981	4.7
495.182	4.74
495.382	4.72
495.583	4.61
495.784	4.72
495.985	4.73
496.185	4.76
496.386	4.81
496.587	4.75
496.788	4.78
496.988	4.73
497.189	4.73
497.39	4.69
497.59	4.73
497.791	4.79
497.992	4.76
498.192	4.74
498.393	4.61
498.593	4.71
498.794	4.67
498.994	4.74
499.195	4.71
499.395	4.87
499.596	4.85
499.796	4.7
499.997	4.59
500.197	4.66
500.398	4.78
500.598	4.9
500.799	4.96
500.999	5.07
501.199	4.9
501.4	5.03
501.6	4.83
501.801	4.92
502.001	5.16
502.201	5.38
502.402	5.32
502.602	5.22
502.802	5.29
503.002	5.27
503.203	5.3
503.403	5.23
503.603	5.25
503.803	5.18
504.003	5.08
504.204	5.05
504.404	5.07
504.604	5.23
504.804	5.42
505.004	5.39
505.204	5.4
505.404	5.44
505.604	5.49
505.804	5.42
506.005	5.55
506.205	5.59
506.405	5.6
506.605	5.47
506.805	5.35
507.005	5.25
507.204	5.1
507.404	4.99
507.604	5.08
507.804	5.22
508.004	5.32
508.204	5.35
508.404	5.44
508.604	5.46
508.804	5.51
509.003	5.48
509.203	5.45
509.403	5.64
509.603	5.79
509.803	5.78
510.002	5.73
510.202	5.8
510.402	5.84
510.602	5.76
510.801	5.66
511.001	5.68
511.201	5.72
511.4	5.65
511.6	5.47
511.8	5.29
511.999	5.28
512.199	5.23
512.398	5.29
512.598	5.39
512.797	5.47
512.997	5.57
513.197	5.58
513.396	5.68
513.596	5.82
513.795	6.04
513.994	6.19
514.194	6.24
514.393	6.41
514.593	6.29
514.792	6.3
514.992	6.4
515.191	6.59
515.39	6.62
515.59	6.44
515.789	6.56
515.988	6.6
516.188	6.74
516.387	6.82
516.586	6.66
516.786	6.75
516.985	6.65
517.184	6.73
517.383	6.72
517.582	6.62
517.782	6.8
517.981	6.76
518.18	6.7
518.379	6.63
518.578	6.57
518.777	6.66
518.976	6.63
519.176	6.76
519.375	6.73
519.574	6.81
519.773	6.89
519.972	6.87
520.171	6.92
520.37	7.07
520.569	7.1
520.768	7.07
520.967	7.12
521.166	7.24
521.365	7.11
521.564	7.09
521.762	6.87
521.961	6.96
522.16	7
522.359	7.07
522.558	7.02
522.757	7.1
522.956	7.32
523.154	7.31
523.353	7.28
523.552	7.33
523.751	7.37
523.949	7.48
524.148	7.54
524.347	7.64
524.546	7.63
524.744	7.72
524.943	7.74
525.142	7.63
525.34	7.61
525.539	7.59
525.737	7.63
525.936	7.79
526.135	7.9
526.333	7.83
526.532	7.83
526.73	7.77
526.929	7.71
527.127	7.68
527.326	7.69
527.524	7.76
527.723	7.79
527.921	7.88
528.12	7.83
528.318	7.78
528.516	7.82
528.715	7.8
528.913	7.86
529.112	7.85
529.31	7.87
529.508	7.89
529.707	7.94
529.905	8.02
530.103	7.98
530.301	7.94
530.5	7.96
530.698	8
530.896	8.06
531.094	8.13
531.293	8.22
531.491	8.39
531.689	8.49
531.887	8.61
532.085	8.59
532.283	8.67
532.481	8.75
532.68	8.77
532.878	8.88
533.076	8.89
533.274	8.91
533.472	8.92
533.67	8.87
533.868	8.92
534.066	8.87
534.264	8.94
534.462	8.9
534.66	8.93
534.858	9.01
535.056	8.94
535.253	9.06
535.451	9.17
535.649	9.18
535.847	9.21
536.045	9.22
536.243	9.35
536.441	9.41
536.638	9.52
536.836	9.66
537.034	9.74
537.232	9.86
537.43	9.83
537.627	9.8
537.825	9.94
538.023	9.99
538.22	10.2
538.418	10.13
538.616	10.15
538.813	10.24
539.011	10.3
539.209	10.42
539.406	10.62
539.604	10.73
539.801	10.84
539.999	10.86
540.196	11.06
540.394	10.98
540.591	11.06
540.789	11.19
540.986	11.24
541.184	11.22
541.381	11.28
541.579	11.19
541.776	11.2
541.974	11.21
542.171	11.24
542.368	11.18
542.566	11.24
542.763	11.29
542.96	11.24
543.158	11.17
543.355	11.26
543.552	11.27
543.75	11.36
543.947	11.46
544.144	11.55
544.341	11.67
544.539	11.77
544.736	11.69
544.933	11.69
545.13	11.78
545.327	12.14
545.524	12.28
545.722	12.37
545.919	12.42
546.116	12.61
546.313	12.71
546.51	12.77
546.707	13.06
546.904	13.36
547.101	13.53
547.298	13.63
547.495	13.56
547.692	13.54
547.889	13.62
548.086	13.83
548.283	13.81
548.48	13.83
548.677	13.93
548.874	13.9
549.07	13.77
549.267	13.98
549.464	14.21
549.661	14.44
549.858	14.73
550.055	14.72
550.251	14.78
550.448	14.9
550.645	15.06
550.842	15.23
551.038	15.37
551.235	15.63
551.432	15.61
551.628	15.52
551.825	15.54
552.022	15.65
552.218	15.8
552.415	15.87
552.612	15.98
552.808	16.11
553.005	16.19
553.201	16.09
553.398	16.18
553.594	16.27
553.791	16.42
553.987	16.32
554.184	16.25
554.38	16.42
554.577	16.59
554.773	16.64
554.97	16.68
555.166	16.77
555.362	16.89
555.559	16.94
555.755	17.03
555.952	17.19
556.148	17.51
556.344	17.85
556.541	17.87
556.737	18.08
556.933	18.3
557.129	18.52
557.326	18.58
557.522	18.91
557.718	19.1
557.914	19.23
558.11	19.23
558.307	19.18
558.503	19.04
558.699	19.16
558.895	19.07
559.091	19.02
559.287	18.93
559.483	19.18
559.679	19.17
559.876	19.25
560.072	19.52
560.268	19.69
560.464	19.9
560.66	20.05
560.856	20.08
561.052	20.25
561.247	20.25
561.443	20.49
561.639	20.54
561.835	20.49
562.031	20.52
562.227	20.34
562.423	20.53
562.619	20.7
562.815	20.79
563.01	20.83
563.206	20.8
563.402	21.03
563.598	20.99
563.793	20.99
563.989	21.2
564.185	21.34
564.381	21.51
564.576	21.46
564.772	21.35
564.968	21.44
565.163	21.55
565.359	21.56
565.555	21.57
565.75	21.78
565.946	21.82
566.141	21.87
566.337	22
566.532	22.15
566.728	22.29
566.923	22.44
567.119	22.45
567.314	22.75
567.51	22.93
567.705	23.02
567.901	22.91
568.096	22.88
568.292	23.01
568.487	23.13
568.682	23.13
568.878	23.16
569.073	23.39
569.268	23.43
569.464	23.4
569.659	23.47
569.854	23.6
570.05	23.87
570.245	24.06
570.44	24.09
570.635	24.14
570.831	24.37
571.026	24.59
571.221	24.59
571.416	24.82
571.611	24.68
571.806	24.83
572.002	24.83
572.197	24.78
572.392	24.72
572.587	24.8
572.782	24.9
572.977	24.88
573.172	24.87
573.367	24.84
573.562	24.7
573.757	24.82
573.952	24.67
574.147	24.81
574.342	24.76
574.537	25.14
574.732	25.13
574.927	25.08
575.121	25.19
575.316	25.19
575.511	25.36
575.706	25.55
575.901	25.73
576.096	25.82
576.29	26
576.485	26.34
576.68	26.19
576.875	26.38
577.069	26.55
577.264	26.46
577.459	26.65
577.654	26.57
577.848	26.67
578.043	26.52
578.238	26.61
578.432	26.45
578.627	26.39
578.821	26.44
579.016	26.42
579.21	26.4
579.405	26.56
579.6	26.43
579.794	26.62
579.989	26.68
580.183	26.78
580.378	27.02
580.572	27.03
580.766	27.19
580.961	27.47
581.155	27.51
581.35	27.53
581.544	27.71
581.738	27.55
581.933	27.59
582.127	27.55
582.321	27.69
582.516	27.46
582.71	27.7
582.904	27.51
583.099	27.3
583.293	27.47
583.487	27.4
583.681	27.22
583.875	27.65
584.07	27.6
584.264	27.74
584.458	27.8
584.652	27.97
584.846	27.96
585.04	28.1
585.234	28.3
585.428	28.42
585.623	28.59
585.817	28.86
586.011	28.86
586.205	29.1
586.399	29.22
586.593	29.3
586.787	29.29
586.981	29.08
587.174	29.3
587.368	29.58
587.562	29.66
587.756	29.79
587.95	29.79
588.144	29.8
588.338	29.88
588.532	29.75
588.725	29.96
588.919	30.12
589.113	30.42
589.307	30.28
589.501	29.91
589.694	29.77
589.888	29.53
590.082	29.52
590.275	29.5
590.469	29.42
590.663	29.45
590.856	29.13
591.05	29.28
591.244	29.41
591.437	29.78
591.631	30.09
591.824	30.23
592.018	30.48
592.212	30.61
592.405	30.72
592.599	30.83
592.792	31.15
592.986	31.32
593.179	31.28
593.372	31.17
593.566	31
593.759	31.16
593.953	30.99
594.146	31.04
594.339	30.92
594.533	30.9
594.726	30.93
594.92	30.68
595.113	30.79
595.306	30.75
595.499	30.71
595.693	30.85
595.886	30.72
596.079	30.68
596.272	30.71
596.466	30.83
596.659	30.97
596.852	30.98
597.045	31.26
597.238	31.09
597.431	31.16
597.624	31.3
597.818	31.22
598.011	31.27
598.204	31.46
598.397	31.54
598.59	31.45
598.783	31.4
598.976	31.35
599.169	31.07
599.362	31.36
599.555	31.6
599.748	31.63
599.941	31.57
600.134	31.52
600.326	31.46
600.519	31.69
600.712	31.64
600.905	31.49
601.098	31.75
601.291	31.95
601.483	31.99
601.676	31.84
601.869	31.67
602.062	31.44
602.255	31.65
602.447	31.77
602.64	31.64
602.833	31.77
603.025	31.87
603.218	31.82
603.411	31.91
603.603	31.96
603.796	32.11
603.989	32.24
604.181	32.48
604.374	32.2
604.566	32.29
604.759	32.2
604.951	32.29
605.144	32.34
605.336	32.31
605.529	32.14
605.721	32.12
605.914	32.03
606.106	32.11
606.299	32.15
606.491	32.49
606.683	32.57
606.876	32.74
607.068	32.73
607.26	32.86
607.453	32.96
607.645	32.87
607.837	32.7
608.03	32.8
608.222	32.77
608.414	32.84
608.606	32.8
608.799	32.65
608.991	32.67
609.183	32.66
609.375	32.79
609.567	32.68
609.759	32.88
609.952	32.94
610.144	32.96
610.336	32.96
610.528	33
610.72	33.05
610.912	33.09
611.104	33.23
611.296	33.35
611.488	33.41
611.68	33.61
611.872	33.82
612.064	33.93
612.256	33.89
612.448	33.96
612.64	33.99
612.832	34.01
613.023	34.15
613.215	34.02
613.407	33.98
613.599	33.73
613.791	33.81
613.983	33.84
614.174	33.92
614.366	33.81
614.558	33.62
614.75	33.71
614.941	34.01
615.133	34.1
615.325	33.91
615.516	33.96
615.708	33.87
615.9	33.89
616.091	33.68
616.283	33.59
616.475	33.87
616.666	34.07
616.858	34.28
617.049	33.73
617.241	33.51
617.432	33.89
617.624	34.31
617.815	34.35
618.007	34.24
618.198	34.34
618.39	34.37
618.581	34.2
618.773	34.42
618.964	34.19
619.155	34.47
619.347	34.44
619.538	34.43
619.729	34.16
619.921	34.3
620.112	34.26
620.303	34.1
620.494	34.55
620.686	34.71
620.877	34.6
621.068	34.58
621.259	34.4
621.451	34.56
621.642	34.71
621.833	34.44
622.024	34.63
622.215	34.67
622.406	34.74
622.597	34.48
622.788	34.5
622.98	34.28
623.171	34.61
623.362	34.81
623.553	34.97
623.744	34.79
623.935	35.2
624.126	34.89
624.317	34.97
624.508	35.02
624.698	34.95
624.889	34.59
625.08	35.04
625.271	34.83
625.462	34.8
625.653	34.66
625.844	34.66
626.034	34.32
626.225	34.57
626.416	34.42
626.607	34.62
626.798	34.64
626.988	34.97
627.179	35.12
627.37	35.16
627.56	35.19
627.751	35.24
627.942	35.24
628.132	35.38
628.323	35.3
628.514	35.53
628.704	35.39
628.895	35.41
629.085	35.41
629.276	35.01
629.466	35.18
629.657	35.1
629.847	35.04
630.038	35.04
630.228	35.26
630.419	35.47
630.609	35.41
630.8	35.58
630.99	35.42
631.181	35.44
631.371	35.32
631.561	35.01
631.752	35.04
631.942	35.13
632.132	35.07
632.323	35.08
632.513	35.03
632.703	35.09
632.893	34.97
633.084	35.12
633.274	35.12
633.464	35.26
633.654	35.31
633.844	35.11
634.034	35.07
634.225	35.35
634.415	35.03
634.605	35.05
634.795	34.86
634.985	34.8
635.175	34.89
635.365	34.82
635.555	34.75
635.745	34.62
635.935	34.9
636.125	35.14
636.315	35.05
636.505	35.27
636.695	35.15
636.885	35.2
637.075	35.55
637.265	35.77
637.455	35.71
637.644	35.91
637.834	35.84
638.024	36.06
638.214	35.83
638.404	35.83
638.593	35.96
638.783	36.07
638.973	36.26
639.163	35.89
639.352	35.92
639.542	35.95
639.732	36.09
639.921	36.52
640.111	36.64
640.301	36.88
640.49	36.71
640.68	36.95
640.87	37.11
641.059	36.98
641.249	37.09
641.438	37
641.628	37.17
641.817	37.1
642.007	37.16
642.196	36.75
642.386	36.44
642.575	36.85
642.764	36.55
642.954	36.48
643.143	36.59
643.333	36.49
643.522	36.56
643.711	36.59
643.901	36.7
644.09	36.51
644.279	37
644.469	37.22
644.658	37.11
644.847	36.92
645.036	37.03
645.226	37.51
645.415	37.46
645.604	37.55
645.793	37.53
645.982	37.57
646.171	37.84
646.361	37.55
646.55	37.5
646.739	37.6
646.928	37.7
647.117	37.46
647.306	37.18
647.495	37.59
647.684	37.26
647.873	37.48
648.062	37.35
648.251	37.1
648.44	36.83
648.629	36.85
648.818	36.77
649.007	36.89
649.196	37.1
649.384	37.15
649.573	36.93
649.762	37.55
649.951	37.18
650.14	37.19
650.328	37.17
650.517	37.43
650.706	37.6
650.895	37.83
651.083	37.77
651.272	37.6
651.461	37.36
651.65	37.16
651.838	36.66
652.027	36.67
652.216	36.53
652.404	36.67
652.593	36.96
652.781	36.89
652.97	36.98
653.158	37.17
653.347	37.3
653.535	37.42
653.724	37.59
653.912	37.71
654.101	37.76
654.289	37.91
654.478	38.15
654.666	37.86
654.855	37.47
655.043	37.01
655.231	36.61
655.42	36.75
655.608	36.74
655.796	36.93
655.985	36.69
656.173	37.18
656.361	37.42
656.55	37.11
656.738	37.32
656.926	37.58
657.114	37.66
657.302	38.16
657.491	38.17
657.679	38
657.867	38
658.055	38.06
658.243	37.83
658.431	37.78
658.619	38.08
658.807	38.03
658.996	38.17
659.184	38.26
659.372	37.92
659.56	37.66
659.748	37.71
659.936	37.66
660.124	37.61
660.311	37.41
660.499	37.22
660.687	37.29
660.875	37.37
661.063	36.94
661.251	36.79
661.439	37.04
661.627	37.18
661.814	37.42
662.002	37.58
662.19	37.92
662.378	37.96
662.565	37.9
662.753	37.75
662.941	37.53
663.129	37.85
663.316	37.83
663.504	37.93
663.692	37.94
663.879	37.8
664.067	37.96
664.254	37.83
664.442	38.21
664.63	38.62
664.817	38.29
665.005	38.16
665.192	38.45
665.38	38.46
665.567	38.25
665.755	37.97
665.942	37.44
666.13	37.29
666.317	37.2
666.504	37.12
666.692	36.78
666.879	36.77
667.067	37.07
667.254	36.86
667.441	37.22
667.629	37.53
667.816	37.85
668.003	38.31
668.19	38.2
668.378	38.15
668.565	38.39
668.752	38.32
668.939	38.68
669.127	38.82
669.314	39.09
669.501	38.63
669.688	38.41
669.875	38.22
670.062	38.52
670.249	38.81
670.436	38.9
670.623	38.65
670.81	38.98
670.997	38.42
671.184	37.98
671.371	38
671.558	38.56
671.745	38.46
671.932	38.69
672.119	38.51
672.306	38.01
672.493	38.18
672.68	37.97
672.867	38.12
673.054	38.42
673.24	38.76
673.427	38.83
673.614	38.9
673.801	39.07
673.988	38.98
674.174	38.7
674.361	39.1
674.548	38.9
674.734	39.31
674.921	39.21
675.108	39.25
675.294	39.54
675.481	39.38
675.668	39.04
675.854	38.96
676.041	38.91
676.227	39.61
676.414	39.46
676.601	40.19
676.787	40.33
676.974	40.19
677.16	40.5
677.347	40.06
677.533	39.76
677.719	39.74
677.906	40.24
678.092	40.26
678.279	39.66
678.465	39.85
678.651	39.38
678.838	39.05
679.024	39.18
679.21	38.72
679.397	38.71
679.583	38.5
679.769	38.66
679.955	38.34
680.142	38.53
680.328	38.67
680.514	38.7
680.7	38.74
680.886	38.56
681.073	38.62
681.259	38.59
681.445	38.65
681.631	38.95
681.817	38.28
682.003	38.26
682.189	38.41
682.375	38.51
682.561	38.33
682.747	38.39
682.933	38.45
683.119	38.24
683.305	38.64
683.491	38.67
683.677	38.4
683.863	38.86
684.049	39.01
684.235	38.63
684.42	38.76
684.606	38.41
684.792	38.49
684.978	39.13
685.164	39.4
685.349	39.38
685.535	39.63
685.721	39.76
685.907	40.03
686.092	39.77
686.278	40
686.464	39.78
686.649	39.96
686.835	39.94
687.021	39.58
687.206	39.29
687.392	39.2
687.577	38.95
687.763	39.3
687.948	39.02
688.134	39.11
688.319	38.82
688.505	38.67
688.69	38.66
688.876	38.57
689.061	38.36
689.247	38.99
689.432	39.07
689.618	38.91
689.803	39.09
689.988	39.54
690.174	39.93
690.359	40.36
690.544	40.46
690.73	40.21
690.915	40.32
691.1	40.88
691.285	40.48
691.471	40.58
691.656	40.85
691.841	40.82
692.026	40.35
692.211	39.71
692.396	39.57
692.582	39.5
692.767	40.36
692.952	39.86
693.137	40.07
693.322	39.99
693.507	39.85
693.692	39.76
693.877	39.37
694.062	39.85
694.247	39.98
694.432	39.67
694.617	39.76
694.802	38.65
694.987	38.69
695.172	38.18
695.357	38.56
695.541	38.87
695.726	39.08
695.911	39.53
696.096	39.42
696.281	39.97
696.466	39.95
696.65	39.92
696.835	40.28
697.02	41.16
697.204	40.54
697.389	40.69
697.574	40.82
697.759	40.86
697.943	40.59
698.128	40.57
698.312	40.27
698.497	40.36
698.682	40.57
698.866	40.68
699.051	40.37
699.235	41.13
699.42	40.65
699.604	40.58
699.789	40.76
699.973	40.83
700.158	40.55
700.342	40.91
700.527	40.57
700.711	40.52
700.895	40.54
701.08	40.61
701.264	40.06
701.448	40.66
701.633	40.09
701.817	40.02
702.001	40.24
702.186	40.72
702.37	40.32
702.554	40.73
702.738	40.96
702.923	41.06
703.107	41.08
703.291	41.32
703.475	40.27
703.659	40.59
703.843	40.51
704.027	40.66
704.212	40.45
704.396	40.94
704.58	41.75
704.764	41.57
704.948	41.61
705.132	41.14
705.316	40.97
705.5	41.51
705.684	41.73
705.868	41.79
706.052	42.16
706.235	42.33
706.419	42.41
706.603	42.19
706.787	42.49
706.971	41.96
707.155	41.74
707.339	42.02
707.522	42.35
707.706	42.59
707.89	42.11
708.074	41.63
708.257	41.31
708.441	40.64
708.625	40.67
708.808	40.51
708.992	41.17
709.176	41.51
709.359	41.3
709.543	41.77
709.727	41.06
709.91	41.03
710.094	40.74
710.277	41.15
710.461	41.62
710.644	41.76
710.828	41.82
711.011	42.27
711.195	42.58
711.378	42.53
711.562	42.34
711.745	42.78
711.928	43.61
712.112	43.86
712.295	43.32
712.478	43.43
712.662	43.43
712.845	43.27
713.028	42.36
713.212	42.07
713.395	42.25
713.578	42.14
713.761	42.2
713.945	42.19
714.128	42.43
714.311	43.35
714.494	42.85
714.677	42.95
714.86	43.36
715.043	43.91
715.227	43.54
715.41	43.9
715.593	43.43
715.776	43.24
715.959	42.67
716.142	42.58
716.325	41.89
716.508	41.94
716.691	41.47
716.874	41.23
717.057	41.38
717.239	41.85
717.422	41.8
717.605	42.18
717.788	43.03
717.971	42.72
718.154	42.51
718.337	42.9
718.519	43.05
718.702	43.1
718.885	43.01
719.068	43.29
719.25	44.02
719.433	44.32
719.616	44.06
719.798	42.78
719.981	43.64
720.164	43.82
720.346	43.96
720.529	43.42
720.712	43.6
720.894	43.55
721.077	43.37
721.259	42.2
721.442	41.33
721.624	42.14
721.807	42.47
721.989	42.3
722.172	42.12
722.354	42.16
722.537	43.08
722.719	43.76
722.901	43.9
723.084	43.15
723.266	43.61
723.448	44.27
723.631	44.2
723.813	44.17
723.995	43.82
724.178	43.48
724.36	43.36
724.542	42.84
724.724	42.36
724.907	42.79
725.089	43.19
725.271	43.88
725.453	44.21
725.635	44.04
725.817	44.7
725.999	44.97
726.181	45.33
726.364	45.56
726.546	45.07
726.728	45.33
726.91	45.51
727.092	45.74
727.274	44.6
727.456	44.25
727.638	43.67
727.819	42.64
728.001	42.43
728.183	42.78
728.365	41.85
728.547	41.66
728.729	41.38
728.911	40.82
729.093	40.56
729.274	41.76
729.456	41.65
729.638	41.6
729.82	42.61
730.001	42.52
730.183	41.75
730.365	41.98
730.546	42.99
730.728	42.81
730.91	43.77
731.091	43.73
731.273	42.83
731.455	42.93
731.636	44.27
731.818	44.6
731.999	44.36
732.181	45.24
732.362	45.86
732.544	46.3
732.725	46.71
732.907	46.14
733.088	46.87
733.27	47.57
733.451	47.93
733.633	46.5
733.814	46.24
733.995	47.85
734.177	47.88
734.358	48.08
734.539	47.49
734.721	47.42
734.902	47.29
735.083	46.89
735.264	47.33
735.446	46.52
735.627	47.61
735.808	46.89
735.989	45.53
736.17	45.25
736.351	44.54
736.533	44.5
736.714	44.31
736.895	43.97
737.076	43.9
737.257	43.41
737.438	43.53
737.619	42.89
737.8	42.7
737.981	42.42
738.162	42.08
738.343	42.38
738.524	42.42
738.705	43.12
738.886	43.29
739.067	43.59
739.247	43.85
739.428	44.77
739.609	45.57
739.79	45.97
739.971	46.03
740.151	46.98
740.332	46.96
740.513	46.61
740.694	45.99
740.874	45.91
741.055	45.34
741.236	44.52
741.417	43.81
741.597	43.23
741.778	44.06
741.958	45.05
742.139	44.69
742.32	45.71
742.5	45.98
742.681	46.35
742.861	47.07
743.042	47.78
743.222	48.33
743.403	48.44
743.583	49.18
743.764	49.36
743.944	48.5
744.124	48.61
744.305	47.87
744.485	48.78
744.666	48.46
744.846	48.04
745.026	48.03
745.207	48.09
745.387	48.38
745.567	46.97
745.747	46.52
745.928	47.36
746.108	48.01
746.288	48.34
746.468	47.13
746.648	47.97
746.829	48.44
747.009	48.02
747.189	47.69
747.369	46.97
747.549	48.36
747.729	48.48
747.909	48.37
748.089	47.09
748.269	46.96
748.449	47.8
748.629	47.14
748.809	47.51
748.989	47.83
749.169	47.34
749.349	47.99
749.529	47.5
749.709	46.68
749.889	46.22
750.068	48.14
750.248	48.34
750.428	47.38
750.608	46.73
750.788	45.7
750.967	45.35
751.147	46.39
751.327	45.39
751.507	45.23
751.686	45.96
751.866	45.15
752.046	43.88
752.225	43.17
752.405	44.37
752.585	45.14
752.764	44.79
752.944	45.04
753.123	45.21
753.303	44.98
753.482	45.63
753.662	44.98
753.841	46.81
754.021	46.74
754.2	47.12
754.38	46.71
754.559	46.11
754.739	46.68
754.918	47.14
755.097	46.17
755.277	46.3
755.456	45.31
755.635	45.83
755.815	45.79
755.994	45.5
756.173	45.47
756.352	45.76
756.532	45.88
756.711	47.15
756.89	46.76
757.069	46.83
757.248	47.3
757.427	47.34
757.607	47.09
757.786	46.82
757.965	46.74
758.144	47.24
758.323	46.92
758.502	47.15
758.681	44.7
758.86	44.09
759.039	44.47
759.218	44.63
759.397	44.71
759.576	44.33
759.755	43.64
759.934	44.3
760.113	44.07
760.291	44.09
760.47	44.27
760.649	44.93
760.828	45.23
761.007	45.17
761.186	45.31
761.364	44.97
761.543	45.32
761.722	45.45
761.901	44.47
762.079	44.17
762.258	43.95
762.437	43.92
762.615	44.37
762.794	44.86
762.972	44.73
763.151	44.82
763.33	45.04
763.508	45.2
763.687	45.06
763.865	44.92
764.044	44.51
764.222	43.63
764.401	42.78
764.579	42.55
764.758	42.02
764.936	42.2
765.114	42.29
765.293	42.37
765.471	42.27
765.65	42.33
765.828	42.69
766.006	43.35
766.184	46.2
766.363	46.95
766.541	47.21
766.719	47.97
766.898	48.14
767.076	47.78
767.254	48.38
767.432	48.67
767.61	50.19
767.788	51.51
767.967	51.04
768.145	49.78
768.323	49.86
768.501	50.24
768.679	50.35
768.857	50.04
769.035	50.5
769.213	49.99
769.391	50.27
769.569	49.41
769.747	48.42
769.925	49.78
770.103	49.46
770.281	50.13
770.459	49.96
770.636	50.3
770.814	49.38
770.992	50.34
771.17	51.09
771.348	50.46
771.525	50.68
771.703	50.88
771.881	49.39
772.059	49.28
772.236	48.28
772.414	49.93
772.592	49.51
772.769	50.96
772.947	51.82
773.125	52.08
773.302	53.11
773.48	51.98
773.657	52.22
773.835	53.16
774.013	53.72
774.19	55.76
774.368	55.38
774.545	55.28
774.723	54.88
774.9	53.02
775.077	52.22
775.255	51.92
775.432	52.89
775.61	52.72
775.787	54.16
775.964	53.25
776.142	52.02
776.319	50.86
776.496	49.78
776.674	50.91
776.851	51.04
777.028	50.14
777.205	50.07
777.382	49.82
777.56	49.33
777.737	49.38
777.914	49.18
778.091	49.48
778.268	49.1
778.445	49.4
778.622	47.81
778.8	48.96
778.977	49.38
779.154	52.91
779.331	53.01
779.508	52.74
779.685	51.69
779.862	53.17
780.038	55.23
780.215	55.66
780.392	56.71
780.569	57.06
780.746	55.27
780.923	56.7
781.1	55.06
781.277	55.53
781.453	55.51
781.63	55.94
781.807	56.49
781.984	54.56
782.16	54.63
782.337	54.38
782.514	55.82
782.691	57.67
782.867	56.87
783.044	55.11
783.221	54.82
783.397	55.39
783.574	55.11
783.75	53.73
783.927	53.98
784.103	53.77
784.28	52.72
784.456	52.53
784.633	51.34
784.809	52.43
784.986	51.81
785.162	49.82
785.339	51.25
785.515	50.35
785.692	51.73
785.868	51
786.044	51.82
786.221	51.85
786.397	50.76
786.573	50.77
786.749	49.3
786.926	48.88
787.102	49.68
787.278	46.99
787.454	46.34
787.631	46.29
787.807	45.49
787.983	45.86
788.159	47.27
788.335	47.4
788.511	47.12
788.687	47.65
788.863	47.8
789.039	48.09
789.216	49.73
789.392	50.43
789.568	48.31
789.744	49.53
789.919	48.45
790.095	47.14
790.271	47.56
790.447	47.93
790.623	48.54
790.799	48.66
790.975	47.99
791.151	48.32
791.327	49.5
791.502	50.14
791.678	50.49
791.854	50.88
792.03	52.78
792.205	52.61
792.381	51.35
792.557	51.26
792.733	51.18
792.908	53.63
793.084	53.76
793.259	53.84
793.435	54.34
793.611	55.09
793.786	54.93
793.962	53.05
794.137	53.71
794.313	55.45
794.488	55.68
794.664	57.08
794.839	57.2
795.015	55.04
795.19	52.45
795.366	51.77
795.541	51.16
795.716	50.98
795.892	51.97
796.067	51.06
796.242	50.69
796.418	48.69
796.593	47.02
796.768	45.17
796.944	45.64
797.119	46.4
797.294	46.54
797.469	46.23
797.644	46.54
797.82	45.06
797.995	45.89
798.17	47.35
798.345	49.73
798.52	50.4
798.695	51.27
798.87	51.54
799.045	53.29
799.22	55.16
799.395	55.31
799.57	56.41
799.745	58.53
799.92	57.53
800.095	57.36
800.27	55.42
800.445	57.39
800.62	57.5
800.795	58.99
800.97	58.72
801.145	57.4
801.319	57.46
801.494	56.88
801.669	55.43
801.844	59.11
802.018	57.58
802.193	58.46
802.368	55.42
802.543	56.34
802.717	55.39
802.892	54.32
803.067	55.11
803.241	54.89
803.416	54.71
803.59	54.4
803.765	51.59
803.94	52.74
804.114	52.2
804.289	54.8
804.463	54.82
804.638	55.56
804.812	55.38
804.986	55.12
805.161	56.43
805.335	54.48
805.51	56.3
805.684	55.89
805.858	54.29
806.033	55.59
806.207	54.58
806.381	54.36
806.556	53.57
806.73	55.76
806.904	55.77
807.078	54.72
807.253	56.12
807.427	53.31
807.601	55.18
807.775	58.91
807.949	56.02
808.123	56.94
808.298	54.67
808.472	55.31
808.646	55.25
808.82	52.8
808.994	51.71
809.168	53.34
809.342	53.61
809.516	52.57
809.69	51.81
809.864	56.52
810.038	56.64
810.212	60.59
810.385	60.92
810.559	60.8
810.733	62.61
810.907	62.75
811.081	62.99
811.255	66.13
811.428	65
811.602	63.59
811.776	63.07
811.95	61.86
812.123	60.38
812.297	60.28
812.471	57.86
812.644	58.98
812.818	61.2
812.992	60.14
813.165	55.47
813.339	58.21
813.512	58.07
813.686	56.52
813.86	56.5
814.033	55.39
814.207	52.99
814.38	55.15
814.554	56.01
814.727	56.49
814.9	55.94
815.074	59.3
815.247	58.46
815.421	57.29
815.594	57.84
815.767	58.89
815.941	57.96
816.114	60.82
816.287	60.86
816.46	56.99
816.634	54
816.807	54.44
816.98	52.3
817.153	51.94
817.327	51.65
817.5	52.14
817.673	50.61
817.846	55.15
818.019	52.97
818.192	54.67
818.365	56.56
818.538	58.91
818.711	56.01
818.884	58.59
819.057	56.41
819.23	57.43
819.403	56.58
819.576	54.54
819.749	50.81
819.922	50.75
820.095	47.98
820.268	49.06
820.441	48.41
820.614	49.9
820.786	49.22
820.959	49.55
821.132	47.54
821.305	46.49
821.477	46.21
821.65	45.67
821.823	44.81
821.996	44.39
822.168	43.68
822.341	43.5
822.514	42.58
822.686	42.29
822.859	41.97
823.031	42.13
823.204	42.15
823.376	42.4
823.549	42.08
823.722	42.23
823.894	42.76
824.067	42.63
824.239	42.49
824.411	42.84
824.584	42.98
824.756	42.91
824.929	42.95
825.101	42.77
825.273	42.38
825.446	42.75
825.618	42.61
825.79	42.03
825.963	42.42
826.135	42
826.307	42.8
826.479	42.54
826.652	42.62
826.824	42.51
826.996	42.54
827.168	43.3
827.34	44.21
827.512	44.29
827.684	44.1
827.856	44.24
828.029	44.6
828.201	43.52
828.373	42.69
828.545	43.13
828.717	44.6
828.889	46.15
829.061	46.43
829.232	45.89
829.404	46.32
829.576	46.3
829.748	45.5
829.92	45.83
830.092	47.53
830.264	49.72
830.436	50.33
830.607	49.47
830.779	46.9
830.951	46.95
831.123	46.87
831.294	46.96
831.466	47.93
831.638	49.89
831.809	50.96
831.981	50.52
832.153	50.61
832.324	48.9
832.496	47.2
832.667	48.3
832.839	49.48
833.011	50.05
833.182	51.47
833.354	51.97
833.525	50.95
833.697	49.33
833.868	48.55
834.039	47.56
834.211	47.22
834.382	47.36
834.554	46.5
834.725	45.51
834.896	44.74
835.068	43.22
835.239	43.59
835.41	44.07
835.581	46.2
835.753	46.23
835.924	46.22
836.095	48.22
836.266	48.37
836.438	49.89
836.609	49.5
836.78	49.99
836.951	52.22
837.122	51.93
837.293	52.36
837.464	52.04
837.635	52.07
837.806	52.24
837.977	50.58
838.148	49.93
838.319	48.47
838.49	48.71
838.661	46.35
838.832	42.48
839.003	43.02
839.174	44.02
839.345	43.69
839.516	43.99
839.687	47.48
839.857	48.93
840.028	54.76
840.199	56.57
840.37	52.73
840.54	57.75
840.711	62.41
840.882	62.04
841.053	58.5
841.223	57.2
841.394	57.92
841.564	55.21
841.735	54.96
841.906	52.45
842.076	51.84
842.247	58.9
842.417	56.54
842.588	53.85
842.758	53.48
842.929	55.41
843.099	55.49
843.27	52.14
843.44	56.92
843.611	58.11
843.781	53.75
843.951	52.58
844.122	50.95
844.292	50.66
844.462	49.82
844.633	51.15
844.803	55.66
844.973	53.77
845.144	55.97
845.314	52.63
845.484	54.07
845.654	58.83
845.824	65.98
845.995	60.19
846.165	62.61
846.335	68.97
846.505	72.79
846.675	65.48
846.845	62.4
847.015	62.58
847.185	66.47
847.355	61.6
847.525	64.49
847.695	63.13
847.865	72.1
848.035	71.2
848.205	66.45
848.375	66.77
848.545	57.91
848.715	62.46
848.884	61.73
849.054	53.76
849.224	49.58
849.394	50.03
849.564	47.12
849.733	46.81
849.903	51.71
850.073	50.24
850.243	50.38
850.412	55.31
850.582	64.35
850.752	69.1
850.921	69.63
851.091	74.13
851.26	75.05
851.43	73.56
851.599	76.52
851.769	73.05
851.939	77.47
852.108	81.45
852.278	87.08
852.447	76.93
852.616	69.74
852.786	73.69
852.955	72.96
853.125	75.12
853.294	77.26
853.463	76.67
853.633	70.52
853.802	67.61
853.971	66.79
854.141	65.1
854.31	72.2
854.479	80.4
854.648	68.6
854.818	63.68
854.987	56.95
855.156	61.25
855.325	58.32
855.494	66.4
855.663	69.6
855.832	74.11
856.001	70.23
856.171	60.36
856.34	60.57
856.509	71.28
856.678	78.94
856.847	91.54
857.016	82.6
857.185	77.9
857.353	80.56
857.522	84.36
857.691	76.21
857.86	81.98
858.029	95.06
858.198	97.59
858.367	98.32
858.535	109.94
858.704	106.56
858.873	110.98
859.042	106.38
859.21	104.98
859.379	96.49
859.548	102.12
859.717	100.96
859.885	94.63
860.054	86.13
860.222	84.79
860.391	78.65
860.56	71.78
860.728	70.13
860.897	71.88
861.065	66.56
861.234	68.94
861.402	58.91
861.571	58.28
861.739	61.81
861.908	61.9
862.076	66.63
862.244	54.7
862.413	61.16
862.581	48.17
862.749	43.68
862.918	32.98
863.086	32.45
863.254	38.98
863.423	41.74
863.591	46.2
863.759	45.37
863.927	44.18
864.096	60.39
864.264	61.77
864.432	64.33
864.6	65.6
864.768	71.83
864.936	74.75
865.104	81.13
865.272	78.87
865.44	77.23
865.608	83.8
865.776	92.15
865.944	78.39
866.112	82.02
866.28	85.41
866.448	88.55
866.616	88.72
866.784	93.87
866.952	89.07
867.12	101.78
867.288	96.05
867.455	89.05
867.623	78.16
867.791	81.7
867.959	79.61
868.127	73.82
868.294	74.05
868.462	64.76
868.63	62.24
868.797	59.25
868.965	45.82
869.133	53.57
869.3	52.04
869.468	63.11
869.636	68.03
869.803	67.49
869.971	69.09
870.138	66.23
870.306	63.02
870.473	64.87
870.641	65.99
870.808	70.48
870.975	66.35
871.143	72.47
871.31	73.35
871.478	63.46
871.645	61.8
871.812	65.82
871.98	70.04
872.147	78.63
872.314	68.75
872.482	64.84
872.649	62.19
872.816	66.9
872.983	64.79
873.15	63.97
873.318	76.1
873.485	77.95
873.652	82.94
873.819	87.61
873.986	87.22
874.153	96.68
874.32	94.59
874.487	94.14
874.654	91
874.821	91.87
874.988	91.96
875.155	81.74
875.322	86.22
875.489	80.93
875.656	67.1
875.823	68.87
875.99	65.63
876.157	69.37
876.324	73.29
876.49	72.58
876.657	63.77
876.824	59.04
876.991	57.94
877.157	66.85
877.324	70.75
877.491	75.08
877.658	70.99
877.824	74.24
877.991	76.53
878.157	66.39
878.324	70.37
878.491	84.17
878.657	83.63
878.824	83.29
878.99	67.63
879.157	70.99
879.323	73.74
879.49	68.13
879.656	65.16
879.823	67.96
879.989	73.44
880.156	71.66
880.322	65.93
880.488	65.26
880.655	64.38
880.821	71.09
880.987	61.81
881.154	59.88
881.32	63.34
881.486	63.3
881.652	61.6
881.819	58.43
881.985	55.55
882.151	53.84
882.317	53.27
882.483	53.96
882.649	50.12
882.816	47.01
882.982	45
883.148	44.24
883.314	43.68
883.48	41.14
883.646	43.18
883.812	42.31
883.978	42.63
884.144	42.08
884.31	41.25
884.476	41.86
884.642	43.14
884.807	46.17
884.973	46.35
885.139	47.21
885.305	47.97
885.471	46.08
885.637	47.98
885.802	46.04
885.968	46.61
886.134	48.41
886.3	50.59
886.465	52.72
886.631	51.24
886.797	54.38
886.962	57.13
887.128	62.3
887.293	61.62
887.459	57.71
887.625	60.54
887.79	59.65
887.956	60.68
888.121	57.69
888.287	56.57
888.452	55.61
888.618	49.49
888.783	37.61
