Data from LC_166_Reflection_1.txt Node
Date: Mon Nov 16 23:01:04 EST 2015
User: robert
Spectrometer: USB4E03001
Autoset integration time: false
Trigger mode: 4
Integration Time (sec): 1.000000E-1
Scans to average: 15
Electric dark correction enabled: true
Nonlinearity correction enabled: false
Boxcar width: 5
Stray light correction enabled: false
XAxis mode: Wavelengths
Stop averaging: false
Number of Pixels in Spectrum: 3648
>>>>>Begin Spectral Data<<<<<
177.566	5173.49
177.785	419.9
178.005	-3922.69
178.225	236.14
178.445	392.21
178.665	-343.84
178.885	-117.37
179.105	928.04
179.324	2270.56
179.544	-291.79
179.764	-1602.2
179.984	-622.85
180.204	-491.54
180.423	-457.08
180.643	-603.86
180.863	-465.15
181.083	-429.15
181.302	-530.29
181.522	-374.52
181.742	-283.63
181.961	-512.82
182.181	-385.38
182.401	-544.8
182.621	-2297.74
182.84	-1092.49
183.06	-631.22
183.279	-362.48
183.499	-227.21
183.719	-160.72
183.938	-157.63
184.158	-171.66
184.377	-115.78
184.597	-208.76
184.816	-136.96
185.036	-66.97
185.256	-39.97
185.475	-44.95
185.695	-41.81
185.914	-67.42
186.134	-182.36
186.353	-303.25
186.572	-463.17
186.792	-656.95
187.011	-234.28
187.231	-177.53
187.45	-162.26
187.67	-562.74
187.889	-1829.38
188.108	3822.57
188.328	-902.98
188.547	-300.05
188.766	-433.76
188.986	-565.17
189.205	-315.38
189.424	-193.79
189.644	-753.12
189.863	-806.76
190.082	-399.7
190.302	-1068.36
190.521	-480.84
190.74	661.21
190.959	347.84
191.178	578.08
191.398	439.17
191.617	398.73
191.836	418.06
192.055	791.95
192.274	361.37
192.494	454.48
192.713	408.28
192.932	1019.65
193.151	719.32
193.37	1426.64
193.589	-933.07
193.808	-277.83
194.027	-432.8
194.246	-3641.34
194.465	819.99
194.685	1951.16
194.904	917.49
195.123	-1220.82
195.342	-759.52
195.561	-393.41
195.78	-548.33
195.999	25080.28
196.218	926.47
196.436	777.45
196.655	-2824.01
196.874	-941.84
197.093	-1228.24
197.312	-919.16
197.531	2550
197.75	652.74
197.969	-1640.43
198.188	-361.68
198.407	-67.54
198.625	-89.79
198.844	-66.08
199.063	-107.97
199.282	-250.97
199.501	-172.46
199.719	-135.98
199.938	-84.04
200.157	-102.75
200.376	-134.24
200.594	-214.29
200.813	-455.23
201.032	-299.28
201.251	-267.45
201.469	-226.15
201.688	-180.07
201.907	-357.73
202.125	-543.1
202.344	19511.9
202.563	3435.67
202.781	560.86
203	1754.91
203.218	1235.2
203.437	1047.53
203.656	506.36
203.874	281.53
204.093	279.47
204.311	356.05
204.53	339.28
204.748	547.93
204.967	385.79
205.185	417.85
205.404	399.4
205.622	262.32
205.841	238.35
206.059	284.52
206.278	352.08
206.496	796.5
206.715	407.29
206.933	315.64
207.151	274.23
207.37	290.77
207.588	248.76
207.806	237.24
208.025	531.43
208.243	-809.62
208.461	1299.55
208.68	-14434.12
208.898	639.9
209.116	668.94
209.335	732.82
209.553	752.44
209.771	7370.83
209.989	1811.31
210.208	3899.43
210.426	-6130.72
210.644	3111.75
210.862	-2848.81
211.081	1392.34
211.299	-640.54
211.517	2875
211.735	-698.75
211.953	-212414.29
212.171	-4478.61
212.39	-13688.29
212.608	-34556.52
212.826	1468.56
213.044	1151.09
213.262	806.52
213.48	4247.68
213.698	410.42
213.916	494.69
214.134	350.17
214.352	713.83
214.57	476.22
214.788	509.6
215.006	432.03
215.224	357.98
215.442	277.04
215.66	243.8
215.878	183.8
216.096	215.72
216.314	266.2
216.532	518.59
216.75	419.89
216.968	366.23
217.185	905.92
217.403	1602.35
217.621	-4366.43
217.839	-1312.92
218.057	-1594.71
218.275	2952.29
218.492	941.15
218.71	1457.59
218.928	410.07
219.146	432.87
219.363	326.47
219.581	236.28
219.799	187.11
220.017	192.3
220.234	167.66
220.452	184.49
220.67	211.36
220.887	217.93
221.105	247.03
221.323	173.9
221.54	143.97
221.758	190.07
221.976	203.04
222.193	197.59
222.411	139.88
222.629	144.86
222.846	148.81
223.064	153.55
223.281	133.41
223.499	109.74
223.716	133.53
223.934	108.35
224.151	107.97
224.369	100.86
224.586	93.72
224.804	96.89
225.021	107.18
225.239	84.01
225.456	83.2
225.674	94.51
225.891	90.67
226.108	96.64
226.326	96.79
226.543	86.89
226.76	75.06
226.978	63.79
227.195	67.9
227.413	54.13
227.63	52.59
227.847	46.22
228.064	42.67
228.282	36.83
228.499	30.21
228.716	27.59
228.934	22.09
229.151	23.07
229.368	24.19
229.585	23.18
229.802	24.3
230.02	22.78
230.237	24.82
230.454	23.24
230.671	23.89
230.888	24.5
231.105	26.23
231.323	28.51
231.54	31.14
231.757	33.03
231.974	31.6
232.191	30.67
232.408	36.66
232.625	32.79
232.842	34.51
233.059	37.8
233.276	35.76
233.493	34.85
233.71	36.71
233.927	34.5
234.144	34.55
234.361	29.29
234.578	31.28
234.795	27.19
235.012	31.96
235.229	32.51
235.446	32.6
235.663	34.22
235.879	36.56
236.096	36.28
236.313	36.98
236.53	34.57
236.747	39.78
236.964	39.13
237.181	39.46
237.397	37.38
237.614	33.88
237.831	30.84
238.048	30.07
238.264	30.6
238.481	24.89
238.698	24.16
238.915	25.2
239.131	23.89
239.348	21.96
239.565	24.74
239.781	25.7
239.998	26.77
240.215	27.93
240.431	26.79
240.648	24.34
240.865	26.09
241.081	24.51
241.298	24.35
241.514	26.3
241.731	25.54
241.947	23.67
242.164	22.51
242.38	20.72
242.597	20.61
242.814	20.28
243.03	19.13
243.246	20.03
243.463	20.39
243.679	21.32
243.896	18.68
244.112	20.7
244.329	20.74
244.545	20.03
244.762	21.1
244.978	21.81
245.194	21.74
245.411	22.72
245.627	21.22
245.843	20.72
246.06	18.94
246.276	19.32
246.492	17.22
246.709	17.44
246.925	16.25
247.141	15.99
247.357	15.05
247.574	14.75
247.79	14.74
248.006	13.87
248.222	13.84
248.439	14.39
248.655	14.07
248.871	14.74
249.087	14.3
249.303	15.12
249.519	16.02
249.736	17.15
249.952	18.12
250.168	20
250.384	21.19
250.6	22.22
250.816	21.21
251.032	20.01
251.248	18.5
251.464	18.64
251.68	17.79
251.896	17.01
252.112	16.14
252.328	16.89
252.544	15.86
252.76	15.97
252.976	14.81
253.192	13.26
253.408	14.79
253.624	17.61
253.84	17.09
254.056	19.32
254.272	18.04
254.487	20.7
254.703	18.44
254.919	16.25
255.135	15.91
255.351	15.09
255.567	17.4
255.782	18.24
255.998	15.91
256.214	16.4
256.43	14.29
256.646	16.91
256.861	15.37
257.077	17.49
257.293	17.41
257.508	18.7
257.724	20.65
257.94	18.79
258.155	16.05
258.371	15.03
258.587	14.25
258.802	12.58
259.018	12.59
259.234	10.9
259.449	10.28
259.665	9.6
259.88	10.65
260.096	10.27
260.312	9.7
260.527	10.36
260.743	11.03
260.958	12.02
261.174	13.08
261.389	13.17
261.605	14.16
261.82	14.8
262.036	16.31
262.251	15.8
262.466	15.7
262.682	19.03
262.897	20
263.113	19.81
263.328	18.9
263.543	18.23
263.759	17.53
263.974	17.52
264.189	17.53
264.405	17.29
264.62	18.14
264.835	19.56
265.051	17.02
265.266	17.45
265.481	17.29
265.696	18.58
265.912	18.73
266.127	18.47
266.342	17.59
266.557	18.33
266.773	18.65
266.988	16.74
267.203	16.7
267.418	15.57
267.633	14.47
267.848	15.04
268.064	13.15
268.279	13.48
268.494	12.46
268.709	12.8
268.924	12.55
269.139	13.63
269.354	14.71
269.569	13.76
269.784	14.22
269.999	13.82
270.214	12.64
270.429	15.27
270.644	15.05
270.859	15.75
271.074	15.92
271.289	14.92
271.504	13.64
271.719	13
271.934	13.19
272.149	13.12
272.363	14.09
272.578	13.6
272.793	12.4
273.008	12.01
273.223	11.48
273.438	11.11
273.653	11.4
273.867	11.69
274.082	11.76
274.297	12.48
274.512	13.34
274.726	11.91
274.941	12.86
275.156	13.21
275.371	13.68
275.585	15.49
275.8	17.07
276.015	17.16
276.229	17.42
276.444	17.35
276.659	16.61
276.873	17.53
277.088	18.84
277.302	19.18
277.517	18.67
277.732	20.64
277.946	19.73
278.161	19.72
278.375	19.19
278.59	19.16
278.804	17.99
279.019	17.85
279.233	16.64
279.448	16.75
279.662	15.92
279.877	16.54
280.091	14.24
280.306	13.77
280.52	12.63
280.735	12.15
280.949	11.19
281.163	12.55
281.378	10.23
281.592	10.59
281.806	10.44
282.021	9.25
282.235	9.04
282.449	9.65
282.664	10.4
282.878	10.37
283.092	11.57
283.307	10.89
283.521	10.48
283.735	11.61
283.949	11.71
284.164	11.18
284.378	12.76
284.592	11.04
284.806	10.83
285.02	10.68
285.234	10.92
285.449	10.15
285.663	10.98
285.877	10.88
286.091	12
286.305	12.25
286.519	11.19
286.733	9.67
286.947	10.2
287.161	10.24
287.375	10.35
287.589	11.22
287.803	11.74
288.017	11.31
288.231	10.82
288.445	10.13
288.659	9.88
288.873	11.29
289.087	12.03
289.301	12.29
289.515	11.64
289.729	10.64
289.943	9.27
290.157	9.14
290.371	10.89
290.584	12.02
290.798	12.39
291.012	12.18
291.226	11.97
291.44	13.28
291.654	13.9
291.867	14.4
292.081	14.88
292.295	15.78
292.509	15.79
292.722	15.03
292.936	14.48
293.15	15.18
293.364	15.25
293.577	16.21
293.791	14.15
294.005	15.35
294.218	14.95
294.432	15.39
294.645	15.25
294.859	14.87
295.073	14.05
295.286	14.57
295.5	13.63
295.713	13.84
295.927	13.31
296.14	13.93
296.354	12.38
296.568	12.19
296.781	11.72
296.994	12.13
297.208	12.07
297.421	12.37
297.635	11.38
297.848	10.99
298.062	10.42
298.275	9.61
298.489	9.38
298.702	9.79
298.915	10.35
299.129	11.21
299.342	10.01
299.555	10.71
299.769	10.41
299.982	11.05
300.195	11.97
300.409	13.11
300.622	14.01
300.835	15.47
301.048	15.23
301.262	14.98
301.475	14.46
301.688	15.92
301.901	15.47
302.115	15.68
302.328	16.42
302.541	15.86
302.754	15.87
302.967	16.65
303.18	16.21
303.393	16.25
303.607	15.88
303.82	16.01
304.033	14.83
304.246	15.63
304.459	15.74
304.672	15.08
304.885	16.02
305.098	14.27
305.311	12.27
305.524	12.77
305.737	13.19
305.95	15.09
306.163	14.45
306.376	15.56
306.589	15.39
306.802	14.99
307.015	16.67
307.228	16.42
307.44	17.37
307.653	19.29
307.866	17.75
308.079	18.8
308.292	18.08
308.505	18.69
308.718	18.67
308.93	17.78
309.143	18.27
309.356	16.49
309.569	16.14
309.781	17.08
309.994	17.17
310.207	17.68
310.42	16.1
310.632	15.21
310.845	15.08
311.058	14.34
311.27	14.75
311.483	14.66
311.696	14.35
311.908	14.52
312.121	13.91
312.333	14.07
312.546	13.98
312.759	13.91
312.971	13.99
313.184	14.49
313.396	14.27
313.609	15.27
313.821	14.82
314.034	15.93
314.246	16.3
314.459	16.01
314.671	15.94
314.884	16.08
315.096	15.56
315.309	15.9
315.521	15.92
315.733	16.5
315.946	13.92
316.158	14.16
316.371	14.53
316.583	14.89
316.795	14.91
317.008	14.72
317.22	15.5
317.432	16.14
317.644	16.25
317.857	15.35
318.069	15.21
318.281	16.31
318.494	15.96
318.706	15.05
318.918	13.87
319.13	14.43
319.342	14.39
319.555	14.04
319.767	14.93
319.979	14.65
320.191	15.88
320.403	16.35
320.615	16.98
320.827	18.04
321.039	17.61
321.252	17.99
321.464	18.4
321.676	18.34
321.888	16.8
322.1	17.55
322.312	16.16
322.524	14.26
322.736	13.57
322.948	12.8
323.16	11.62
323.372	12.25
323.584	11.95
323.796	10.36
324.007	9.55
324.219	10.45
324.431	9.74
324.643	9.86
324.855	10.3
325.067	10.12
325.279	9.99
325.491	10.31
325.702	9.97
325.914	9.94
326.126	11.34
326.338	12.1
326.55	12.01
326.761	12.47
326.973	13.5
327.185	13.97
327.396	14.34
327.608	15.14
327.82	15.45
328.032	15.49
328.243	14.91
328.455	15.18
328.666	14.83
328.878	15.04
329.09	13.83
329.301	13.75
329.513	12.79
329.725	12.26
329.936	12.23
330.148	12.99
330.359	12.2
330.571	13.13
330.782	12.19
330.994	13.55
331.205	13.8
331.417	13.97
331.628	13.32
331.84	14.02
332.051	14.77
332.262	15.18
332.474	13.33
332.685	14.98
332.897	14.91
333.108	15.33
333.319	12.62
333.531	11.31
333.742	12.23
333.953	12.01
334.165	11.56
334.376	10.85
334.587	10.17
334.799	10.96
335.01	9.72
335.221	9.37
335.432	8.51
335.644	9.18
335.855	9.89
336.066	10.7
336.277	10.71
336.488	11.15
336.7	10.82
336.911	11.03
337.122	10.97
337.333	11.82
337.544	12.26
337.755	13.18
337.966	13.06
338.177	13.1
338.388	11.76
338.599	12.29
338.811	11.5
339.022	11.73
339.233	10.92
339.444	11.31
339.655	9.38
339.866	9.1
340.076	8.97
340.287	10.02
340.498	10.4
340.709	10.25
340.92	9.53
341.131	10.71
341.342	10.62
341.553	11.11
341.764	11.05
341.975	12.91
342.185	12.45
342.396	11.84
342.607	11.46
342.818	10.72
343.029	10.99
343.239	11.6
343.45	11.23
343.661	10.6
343.872	9.77
344.082	9.51
344.293	9.36
344.504	11.15
344.714	10.57
344.925	9.49
345.136	8.88
345.346	8
345.557	8.19
345.768	7.76
345.978	7.77
346.189	9.12
346.399	8.27
346.61	8.25
346.821	7.07
347.031	8.61
347.242	8.61
347.452	9.88
347.663	10.47
347.873	11
348.084	10.78
348.294	11.33
348.504	9.82
348.715	10.8
348.925	9.98
349.136	9.22
349.346	7.87
349.557	8.83
349.767	9.1
349.977	9.39
350.188	8.52
350.398	9.53
350.608	9.88
350.819	10.2
351.029	9.64
351.239	10.11
351.449	10.01
351.66	10.43
351.87	11.05
352.08	9.64
352.29	9.56
352.501	9.02
352.711	8.55
352.921	8.81
353.131	8.41
353.341	8.51
353.552	8.1
353.762	8.67
353.972	8.33
354.182	8.37
354.392	8.63
354.602	7.93
354.812	8.45
355.022	9
355.232	8.54
355.442	9.48
355.652	9.31
355.862	9.69
356.072	9.48
356.282	9.19
356.492	8.68
356.702	8.61
356.912	9.36
357.122	9.7
357.332	9.02
357.542	8.81
357.752	8.59
357.962	8.68
358.171	8.63
358.381	9.22
358.591	9.34
358.801	8.85
359.011	9.27
359.221	8.93
359.43	9.06
359.64	9.36
359.85	9.47
360.06	9.67
360.269	10.06
360.479	9.71
360.689	8.92
360.899	9.47
361.108	9.79
361.318	9.8
361.528	9.75
361.737	9
361.947	8.38
362.156	8.72
362.366	8.51
362.576	8.08
362.785	8.31
362.995	8.36
363.204	8
363.414	8.22
363.623	8.08
363.833	8.42
364.042	8.74
364.252	9.04
364.461	9.03
364.671	9.15
364.88	9.5
365.09	9.6
365.299	10.3
365.509	10.23
365.718	9.41
365.927	9.56
366.137	9.36
366.346	9.36
366.555	9.43
366.765	8.91
366.974	8.71
367.183	8.57
367.393	7.72
367.602	6.94
367.811	7.24
368.021	7.26
368.23	7.11
368.439	6.47
368.648	6.65
368.857	6.84
369.067	7.19
369.276	7.01
369.485	7.62
369.694	8.25
369.903	9.15
370.112	9.03
370.321	9.67
370.531	9.62
370.74	10.02
370.949	9.75
371.158	9.5
371.367	9.46
371.576	9.5
371.785	8.9
371.994	9.16
372.203	8.7
372.412	8.78
372.621	8.55
372.83	8.92
373.039	8.92
373.248	8.16
373.457	8.61
373.666	8.06
373.874	7.98
374.083	8.43
374.292	7.9
374.501	7.37
374.71	6.97
374.919	7.1
375.128	6.68
375.336	6.75
375.545	7.74
375.754	6.62
375.963	6.49
376.171	6.39
376.38	5.98
376.589	6.46
376.798	6.4
377.006	6.41
377.215	6.91
377.424	6.6
377.632	6.71
377.841	6.54
378.05	7.28
378.258	7.74
378.467	8.12
378.675	8.25
378.884	8.15
379.093	8.44
379.301	8.36
379.51	7.94
379.718	8.19
379.927	8.27
380.135	8.15
380.344	7.97
380.552	8.04
380.761	8.06
380.969	8.18
381.177	8.22
381.386	7.61
381.594	7.42
381.803	7.02
382.011	6.85
382.219	6.25
382.428	5.75
382.636	5.55
382.845	5.52
383.053	5.34
383.261	4.48
383.469	4.67
383.678	5.46
383.886	5.57
384.094	5.61
384.302	5.99
384.511	6.31
384.719	6.48
384.927	6.34
385.135	6.35
385.343	6.28
385.552	6.58
385.76	5.84
385.968	5.39
386.176	5.25
386.384	5.18
386.592	4.87
386.8	4.82
387.008	5.22
387.216	5.64
387.424	5.44
387.633	5.59
387.841	6.01
388.049	6.33
388.257	6.48
388.465	6.72
388.672	6.87
388.88	6.9
389.088	6.84
389.296	6.6
389.504	6.6
389.712	6.74
389.92	6.24
390.128	5.84
390.336	5.85
390.544	6
390.751	5.39
390.959	5.46
391.167	5.32
391.375	5.44
391.583	5.35
391.79	5.16
391.998	4.87
392.206	5.32
392.414	5.29
392.621	5.28
392.829	5.29
393.037	5.68
393.244	5.56
393.452	5.78
393.66	5.8
393.867	5.88
394.075	5.86
394.283	6.18
394.49	5.89
394.698	6.2
394.905	6.16
395.113	6.03
395.32	6.33
395.528	6.49
395.735	6.53
395.943	6.42
396.15	6.47
396.358	6.56
396.565	6.17
396.773	6.62
396.98	6.37
397.188	6.38
397.395	6.57
397.602	6.11
397.81	5.95
398.017	6.21
398.225	6.24
398.432	6.4
398.639	6.37
398.847	6.61
399.054	6.3
399.261	6.07
399.468	6.22
399.676	6.13
399.883	6.47
400.09	6.46
400.297	6.06
400.505	5.96
400.712	5.63
400.919	5.78
401.126	5.95
401.333	5.91
401.54	6.37
401.748	6.23
401.955	6.11
402.162	6.11
402.369	6.26
402.576	6.12
402.783	6.28
402.99	6.37
403.197	6.17
403.404	5.88
403.611	5.95
403.818	5.71
404.025	5.72
404.232	5.68
404.439	5.51
404.646	5.23
404.853	5.16
405.06	5.08
405.267	5.03
405.474	5.07
405.681	4.98
405.887	4.93
406.094	5.26
406.301	5.43
406.508	5.36
406.715	5.49
406.922	5.68
407.128	6.01
407.335	6.07
407.542	5.87
407.749	6.01
407.955	6.45
408.162	6.33
408.369	6.2
408.575	6.03
408.782	6.07
408.989	5.93
409.195	5.66
409.402	5.7
409.609	5.91
409.815	6.19
410.022	6.07
410.228	5.74
410.435	5.98
410.642	5.69
410.848	5.9
411.055	5.74
411.261	5.92
411.468	6.3
411.674	5.87
411.881	5.48
412.087	5.75
412.294	5.67
412.5	5.41
412.706	5.28
412.913	5.27
413.119	4.83
413.326	4.81
413.532	4.71
413.738	4.44
413.945	4.66
414.151	4.59
414.357	4.35
414.564	4.12
414.77	4.36
414.976	4.27
415.182	4.47
415.389	4.53
415.595	4.59
415.801	4.65
416.007	4.72
416.214	4.74
416.42	4.81
416.626	4.68
416.832	4.87
417.038	4.98
417.244	5.09
417.45	5
417.657	5.24
417.863	5.42
418.069	5.57
418.275	5.59
418.481	5.58
418.687	5.5
418.893	5.44
419.099	5.27
419.305	5.29
419.511	5.18
419.717	5.14
419.923	4.9
420.129	4.79
420.335	4.65
420.541	4.6
420.746	4.62
420.952	4.69
421.158	4.65
421.364	4.65
421.57	4.62
421.776	4.64
421.982	4.61
422.187	4.57
422.393	4.53
422.599	4.35
422.805	4.34
423.01	4.22
423.216	3.99
423.422	4
423.628	4.18
423.833	4.09
424.039	4.24
424.245	4.3
424.45	4.53
424.656	4.63
424.862	4.69
425.067	4.71
425.273	4.71
425.478	4.98
425.684	5.11
425.889	5.14
426.095	5.22
426.301	5.1
426.506	5.13
426.712	5.13
426.917	5.01
427.123	5.16
427.328	5.23
427.533	5.41
427.739	5.42
427.944	5.47
428.15	5.3
428.355	5.35
428.561	5.24
428.766	5.18
428.971	5.12
429.177	5.2
429.382	5.27
429.587	5.25
429.793	5.14
429.998	5.11
430.203	5.01
430.408	5.2
430.614	5.32
430.819	5.27
431.024	5.43
431.229	5.38
431.434	5.48
431.64	5.2
431.845	5.27
432.05	5.22
432.255	5.2
432.46	5.04
432.665	4.73
432.87	4.5
433.076	4.56
433.281	4.4
433.486	4.39
433.691	4.08
433.896	3.98
434.101	3.97
434.306	4.07
434.511	3.97
434.716	4.01
434.921	4.27
435.126	4.25
435.331	4.16
435.535	3.99
435.74	4.01
435.945	4.2
436.15	4.46
436.355	4.44
436.56	4.38
436.765	4.47
436.97	4.35
437.174	4.21
437.379	4.3
437.584	4.46
437.789	4.6
437.993	4.45
438.198	4.46
438.403	4.49
438.608	4.44
438.812	4.29
439.017	4.16
439.222	4.18
439.426	4.18
439.631	4.19
439.836	4
440.04	4.18
440.245	4.24
440.45	4.26
440.654	4.18
440.859	4.03
441.063	4.1
441.268	4.08
441.472	4.06
441.677	4.18
441.881	4.07
442.086	4.11
442.29	3.84
442.495	3.79
442.699	3.88
442.904	3.88
443.108	3.99
443.312	3.93
443.517	4
443.721	4.03
443.925	3.98
444.13	4.02
444.334	3.97
444.538	4.03
444.743	4.1
444.947	3.93
445.151	3.81
445.356	3.8
445.56	3.87
445.764	3.77
445.968	3.75
446.173	3.67
446.377	3.67
446.581	3.68
446.785	3.69
446.989	3.6
447.193	3.63
447.398	3.66
447.602	3.7
447.806	3.72
448.01	3.93
448.214	4.09
448.418	4.06
448.622	4.13
448.826	4.28
449.03	4.37
449.234	4.41
449.438	4.4
449.642	4.48
449.846	4.47
450.05	4.46
450.254	4.32
450.458	4.39
450.662	4.44
450.866	4.26
451.069	4.05
451.273	4.05
451.477	3.94
451.681	4.03
451.885	3.9
452.089	3.87
452.292	3.83
452.496	3.84
452.7	3.65
452.904	3.75
453.107	3.9
453.311	4.01
453.515	3.95
453.719	3.93
453.922	3.92
454.126	3.88
454.33	3.85
454.533	3.74
454.737	3.61
454.94	3.6
455.144	3.43
455.348	3.32
455.551	3.38
455.755	3.16
455.958	3.3
456.162	3.21
456.365	3.38
456.569	3.28
456.772	3.24
456.976	3.44
457.179	3.52
457.383	3.45
457.586	3.64
457.79	3.51
457.993	3.74
458.196	3.6
458.4	3.66
458.603	3.51
458.807	3.62
459.01	3.85
459.213	3.71
459.417	3.62
459.62	3.72
459.823	3.62
460.026	3.62
460.23	3.59
460.433	3.77
460.636	3.74
460.839	3.81
461.042	3.81
461.246	3.72
461.449	3.67
461.652	3.65
461.855	3.53
462.058	3.54
462.261	3.46
462.464	3.38
462.668	3.41
462.871	3.5
463.074	3.56
463.277	3.25
463.48	3.42
463.683	3.48
463.886	3.54
464.089	3.66
464.292	3.74
464.495	3.9
464.698	3.91
464.901	3.74
465.104	3.74
465.306	3.75
465.509	3.94
465.712	3.87
465.915	3.91
466.118	3.92
466.321	3.77
466.524	3.69
466.726	3.71
466.929	3.82
467.132	3.89
467.335	3.74
467.538	3.52
467.74	3.56
467.943	3.67
468.146	3.83
468.348	3.88
468.551	4.06
468.754	4.08
468.956	4.04
469.159	3.97
469.362	4.04
469.564	4.09
469.767	4.29
469.969	4.24
470.172	3.98
470.375	3.83
470.577	3.73
470.78	3.67
470.982	3.64
471.185	3.68
471.387	3.69
471.59	3.44
471.792	3.43
471.995	3.38
472.197	3.33
472.399	3.28
472.602	3.3
472.804	3.37
473.007	3.33
473.209	3.2
473.411	3.02
473.614	3.02
473.816	3.11
474.018	2.99
474.22	3
474.423	3.15
474.625	3.18
474.827	3.42
475.03	3.41
475.232	3.55
475.434	3.7
475.636	3.87
475.838	3.79
476.04	3.77
476.243	3.7
476.445	3.75
476.647	3.68
476.849	3.63
477.051	3.28
477.253	3.36
477.455	3.2
477.657	3.1
477.859	3.15
478.061	3.15
478.263	3.14
478.465	3.26
478.667	3.2
478.869	3.2
479.071	3.25
479.273	3.36
479.475	3.24
479.677	3.25
479.879	3.23
480.081	3.25
480.283	3.28
480.485	3.24
480.686	3.25
480.888	3.25
481.09	3.26
481.292	3.2
481.494	3.23
481.695	3.24
481.897	3.17
482.099	3.14
482.301	3.08
482.502	3.02
482.704	3.14
482.906	3.07
483.107	3.06
483.309	3.01
483.511	3.06
483.712	3.01
483.914	2.98
484.115	2.98
484.317	2.98
484.519	3.01
484.72	3.04
484.922	3.01
485.123	3.06
485.325	3.06
485.526	3.11
485.728	3.06
485.929	3.04
486.131	3.06
486.332	3.1
486.534	3.11
486.735	3.08
486.936	2.99
487.138	2.96
487.339	2.9
487.541	2.85
487.742	2.84
487.943	2.87
488.144	2.86
488.346	2.85
488.547	2.88
488.748	2.89
488.95	2.82
489.151	2.89
489.352	2.91
489.553	2.9
489.755	2.95
489.956	2.93
490.157	2.89
490.358	3.01
490.559	3.06
490.76	3.06
490.961	3.07
491.163	3.16
491.364	3.22
491.565	3.12
491.766	3.17
491.967	3.2
492.168	3.2
492.369	3.23
492.57	3.17
492.771	3.18
492.972	3.14
493.173	3.16
493.374	3.08
493.575	3.06
493.776	3.16
493.976	3.18
494.177	3.23
494.378	3.28
494.579	3.26
494.78	3.49
494.981	3.45
495.182	3.42
495.382	3.37
495.583	3.38
495.784	3.27
495.985	3.3
496.185	3.22
496.386	3.12
496.587	3.35
496.788	3.35
496.988	3.3
497.189	3.27
497.39	3.41
497.59	3.41
497.791	3.41
497.992	3.5
498.192	3.5
498.393	3.55
498.593	3.63
498.794	3.39
498.994	3.52
499.195	3.5
499.395	3.68
499.596	3.69
499.796	3.72
499.997	3.85
500.197	3.93
500.398	4
500.598	4.01
500.799	3.97
500.999	4.1
501.199	3.91
501.4	3.9
501.6	3.75
501.801	3.77
502.001	3.84
502.201	3.99
502.402	3.87
502.602	3.72
502.802	3.8
503.002	3.79
503.203	3.85
503.403	3.81
503.603	3.76
503.803	3.75
504.003	3.71
504.204	3.76
504.404	3.74
504.604	3.69
504.804	3.96
505.004	3.88
505.204	4.01
505.404	4.04
505.604	4.23
505.804	4.2
506.005	4.26
506.205	4.3
506.405	4.3
506.605	4.23
506.805	4.31
507.005	4.31
507.204	4.34
507.404	4.25
507.604	4.22
507.804	4.21
508.004	4.34
508.204	4.4
508.404	4.32
508.604	4.26
508.804	4.26
509.003	4.31
509.203	4.22
509.403	4.23
509.603	4.23
509.803	4.37
510.002	4.47
510.202	4.4
510.402	4.31
510.602	4.39
510.801	4.45
511.001	4.45
511.201	4.42
511.4	4.46
511.6	4.49
511.8	4.5
511.999	4.46
512.199	4.33
512.398	4.4
512.598	4.56
512.797	4.61
512.997	4.68
513.197	4.78
513.396	4.86
513.596	4.91
513.795	5.14
513.994	5.24
514.194	5.13
514.393	5.18
514.593	5.26
514.792	5.25
514.992	5.22
515.191	5.04
515.39	4.95
515.59	4.92
515.789	4.9
515.988	4.92
516.188	4.81
516.387	4.83
516.586	4.78
516.786	4.89
516.985	4.83
517.184	4.92
517.383	5.22
517.582	5.33
517.782	5.32
517.981	5.3
518.18	5.13
518.379	5.26
518.578	5.28
518.777	5.4
518.976	5.19
519.176	5.26
519.375	5.26
519.574	5.19
519.773	5.12
519.972	5.06
520.171	5.05
520.37	5.16
520.569	5.17
520.768	5.23
520.967	5.15
521.166	5.21
521.365	5.12
521.564	5.16
521.762	5.22
521.961	5.27
522.16	5.46
522.359	5.4
522.558	5.32
522.757	5.26
522.956	5.3
523.154	5.24
523.353	5.45
523.552	5.53
523.751	5.47
523.949	5.37
524.148	5.41
524.347	5.32
524.546	5.48
524.744	5.52
524.943	5.58
525.142	5.57
525.34	5.77
525.539	5.69
525.737	5.68
525.936	5.71
526.135	5.63
526.333	5.59
526.532	5.69
526.73	5.72
526.929	5.7
527.127	5.68
527.326	5.69
527.524	5.69
527.723	5.68
527.921	5.75
528.12	5.82
528.318	5.94
528.516	5.99
528.715	5.95
528.913	5.97
529.112	6
529.31	6.07
529.508	6.07
529.707	6.08
529.905	6.16
530.103	6.2
530.301	6.16
530.5	6.18
530.698	6.2
530.896	6.25
531.094	6.35
531.293	6.42
531.491	6.41
531.689	6.54
531.887	6.64
532.085	6.71
532.283	6.72
532.481	6.85
532.68	6.86
532.878	6.92
533.076	7.01
533.274	6.97
533.472	7.04
533.67	7.03
533.868	7.05
534.066	7.07
534.264	7
534.462	7.04
534.66	7.09
534.858	7.24
535.056	7.31
535.253	7.28
535.451	7.44
535.649	7.44
535.847	7.6
536.045	7.55
536.243	7.65
536.441	7.86
536.638	7.97
536.836	7.94
537.034	7.93
537.232	7.98
537.43	8.11
537.627	8.17
537.825	8.27
538.023	8.39
538.22	8.61
538.418	8.68
538.616	8.69
538.813	8.81
539.011	9.04
539.209	9.04
539.406	9.1
539.604	9.29
539.801	9.41
539.999	9.47
540.196	9.45
540.394	9.53
540.591	9.52
540.789	9.54
540.986	9.49
541.184	9.43
541.381	9.51
541.579	9.51
541.776	9.46
541.974	9.41
542.171	9.47
542.368	9.53
542.566	9.54
542.763	9.62
542.96	9.61
543.158	9.75
543.355	9.83
543.552	9.91
543.75	10.06
543.947	10.07
544.144	10.14
544.341	10.19
544.539	10.26
544.736	10.33
544.933	10.28
545.13	10.46
545.327	10.5
545.524	10.59
545.722	10.75
545.919	10.8
546.116	11.05
546.313	11.18
546.51	11.19
546.707	11.25
546.904	11.32
547.101	11.51
547.298	11.61
547.495	11.63
547.692	11.7
547.889	11.69
548.086	11.9
548.283	12
548.48	12.06
548.677	12.16
548.874	12.19
549.07	12.32
549.267	12.49
549.464	12.4
549.661	12.54
549.858	12.75
550.055	12.94
550.251	12.82
550.448	12.92
550.645	12.97
550.842	13.12
551.038	13.4
551.235	13.37
551.432	13.23
551.628	13.4
551.825	13.64
552.022	13.69
552.218	13.68
552.415	13.84
552.612	13.87
552.808	13.88
553.005	13.99
553.201	13.93
553.398	14
553.594	14.24
553.791	14.35
553.987	14.3
554.184	14.4
554.38	14.49
554.577	14.46
554.773	14.54
554.97	14.7
555.166	14.84
555.362	14.99
555.559	15.22
555.755	15.37
555.952	15.62
556.148	15.63
556.344	15.55
556.541	15.57
556.737	15.79
556.933	15.95
557.129	15.78
557.326	15.8
557.522	15.89
557.718	16.11
557.914	15.97
558.11	15.84
558.307	15.91
558.503	16.21
558.699	16.28
558.895	16.52
559.091	16.51
559.287	16.8
559.483	16.97
559.679	17.16
559.876	17.15
560.072	17.44
560.268	17.45
560.464	17.48
560.66	17.48
560.856	17.71
561.052	17.73
561.247	17.86
561.443	18.08
561.639	18.05
561.835	18.16
562.031	18.26
562.227	18.22
562.423	18.42
562.619	18.67
562.815	18.87
563.01	18.95
563.206	18.85
563.402	18.93
563.598	18.94
563.793	19.15
563.989	19.01
564.185	18.88
564.381	19.17
564.576	19.39
564.772	19.47
564.968	19.54
565.163	19.44
565.359	19.43
565.555	19.52
565.75	19.62
565.946	19.63
566.141	19.8
566.337	20.05
566.532	20.15
566.728	20.22
566.923	20.21
567.119	20.09
567.314	20.17
567.51	20.4
567.705	20.46
567.901	20.44
568.096	20.51
568.292	20.71
568.487	20.64
568.682	20.61
568.878	20.6
569.073	20.81
569.268	20.97
569.464	21.22
569.659	21.22
569.854	21.32
570.05	21.52
570.245	21.67
570.44	21.61
570.635	21.82
570.831	21.75
571.026	22.01
571.221	22.14
571.416	22.09
571.611	21.95
571.806	22.06
572.002	22.16
572.197	22.08
572.392	22.01
572.587	22.1
572.782	22.04
572.977	22.28
573.172	22.19
573.367	22.08
573.562	22.29
573.757	22.36
573.952	22.51
574.147	22.76
574.342	23.19
574.537	23.36
574.732	23.38
574.927	23.52
575.121	23.61
575.316	23.7
575.511	23.82
575.706	23.78
575.901	23.99
576.096	24.02
576.29	23.82
576.485	23.7
576.68	23.84
576.875	23.88
577.069	23.87
577.264	23.88
577.459	24.14
577.654	24.26
577.848	24.44
578.043	24.55
578.238	24.61
578.432	24.69
578.627	24.74
578.821	24.81
579.016	24.76
579.21	25.03
579.405	25.08
579.6	24.97
579.794	24.96
579.989	24.93
580.183	24.95
580.378	24.86
580.572	24.92
580.766	24.81
580.961	24.75
581.155	24.99
581.35	24.95
581.544	24.84
581.738	24.81
581.933	25.03
582.127	25.44
582.321	25.47
582.516	25.64
582.71	25.84
582.904	26.18
583.099	26.31
583.293	26.34
583.487	26.35
583.681	26.72
583.875	26.71
584.07	26.85
584.264	26.63
584.458	26.62
584.652	26.42
584.846	26.2
585.04	26.13
585.234	26.12
585.428	26.07
585.623	26.18
585.817	25.93
586.011	25.97
586.205	25.91
586.399	26.03
586.593	26.21
586.787	26.39
586.981	26.55
587.174	26.45
587.368	26.31
587.562	26.44
587.756	26.51
587.95	26.68
588.144	26.81
588.338	27.01
588.532	27
588.725	27.15
588.919	27.17
589.113	27.22
589.307	27.26
589.501	27.48
589.694	27.6
589.888	27.72
590.082	27.67
590.275	27.62
590.469	27.57
590.663	27.32
590.856	27.27
591.05	27.44
591.244	27.7
591.437	28.06
591.631	28.03
591.824	27.98
592.018	27.89
592.212	27.94
592.405	28.07
592.599	28.03
592.792	28.21
592.986	28.32
593.179	28.26
593.372	28.14
593.566	28.04
593.759	28
593.953	27.97
594.146	27.89
594.339	28.1
594.533	28.11
594.726	28.04
594.92	28.09
595.113	28.04
595.306	28.05
595.499	27.93
595.693	27.83
595.886	28.04
596.079	28.2
596.272	28.22
596.466	28.19
596.659	28.18
596.852	28.26
597.045	28.43
597.238	28.39
597.431	28.5
597.624	28.44
597.818	28.56
598.011	28.57
598.204	28.36
598.397	28.58
598.59	28.41
598.783	28.52
598.976	28.68
599.169	28.63
599.362	28.63
599.555	28.64
599.748	29.1
599.941	29.06
600.134	28.9
600.326	29.22
600.519	29.3
600.712	29.52
600.905	29.59
601.098	29.53
601.291	29.56
601.483	29.64
601.676	29.72
601.869	29.53
602.062	29.67
602.255	29.6
602.447	29.47
602.64	29.29
602.833	29.48
603.025	29.44
603.218	29.49
603.411	29.44
603.603	29.3
603.796	29.31
603.989	29.38
604.181	29.33
604.374	29.49
604.566	29.49
604.759	29.43
604.951	29.32
605.144	29.27
605.336	29.25
605.529	29.31
605.721	29.42
605.914	29.38
606.106	29.37
606.299	29.44
606.491	29.56
606.683	29.79
606.876	29.81
607.068	29.86
607.26	30.05
607.453	30.24
607.645	30.32
607.837	30.16
608.03	30.18
608.222	30.06
608.414	30.02
608.606	29.94
608.799	29.97
608.991	30.08
609.183	30.16
609.375	30.02
609.567	29.8
609.759	29.97
609.952	30.03
610.144	30.17
610.336	30.34
610.528	30.26
610.72	30.2
610.912	30.14
611.104	30.34
611.296	30.21
611.488	30.38
611.68	30.61
611.872	30.39
612.064	30.85
612.256	30.87
612.448	30.81
612.64	30.77
612.832	30.9
613.023	30.9
613.215	30.72
613.407	30.87
613.599	30.93
613.791	30.84
613.983	30.74
614.174	30.46
614.366	30.47
614.558	30.53
614.75	30.47
614.941	30.45
615.133	30.54
615.325	30.91
615.516	31
615.708	30.81
615.9	30.8
616.091	30.99
616.283	31.17
616.475	30.95
616.666	30.98
616.858	31.44
617.049	31.4
617.241	31.17
617.432	30.99
617.624	31.03
617.815	31.12
618.007	31.11
618.198	31.21
618.39	31.27
618.581	31.49
618.773	31.52
618.964	31.4
619.155	31.43
619.347	31.9
619.538	31.91
619.729	31.77
619.921	31.67
620.112	31.77
620.303	31.58
620.494	31.38
620.686	31.29
620.877	31.18
621.068	30.94
621.259	31.13
621.451	30.86
621.642	30.8
621.833	30.8
622.024	30.95
622.215	30.99
622.406	31.26
622.597	31.45
622.788	31.48
622.98	31.52
623.171	31.73
623.362	31.55
623.553	31.99
623.744	31.86
623.935	32.06
624.126	32.01
624.317	31.93
624.508	31.73
624.698	31.57
624.889	31.71
625.08	31.98
625.271	32.3
625.462	32.49
625.653	32.13
625.844	32.33
626.034	32.13
626.225	32.1
626.416	32.17
626.607	32.36
626.798	32.46
626.988	32.46
627.179	32.5
627.37	32.13
627.56	32.23
627.751	32.34
627.942	32.35
628.132	32.25
628.323	32.32
628.514	32.24
628.704	32.12
628.895	31.94
629.085	31.81
629.276	31.55
629.466	31.62
629.657	31.43
629.847	31.23
630.038	31.12
630.228	31.35
630.419	31.54
630.609	31.68
630.8	31.86
630.99	32.02
631.181	32.25
631.371	32.35
631.561	32.64
631.752	32.81
631.942	32.87
632.132	33.05
632.323	32.98
632.513	32.83
632.703	32.98
632.893	33
633.084	33.06
633.274	32.82
633.464	32.58
633.654	32.71
633.844	32.4
634.034	32.39
634.225	32.24
634.415	32.24
634.605	32.44
634.795	32.06
634.985	32.21
635.175	32.2
635.365	32.26
635.555	32.54
635.745	32.29
635.935	32.48
636.125	32.45
636.315	32.61
636.505	32.64
636.695	32.32
636.885	32.52
637.075	32.34
637.265	32.63
637.455	32.68
637.644	32.62
637.834	32.61
638.024	32.59
638.214	32.74
638.404	32.76
638.593	32.95
638.783	33.28
638.973	33.53
639.163	33.23
639.352	32.84
639.542	33.13
639.732	33.28
639.921	33.31
640.111	33.33
640.301	33.33
640.49	32.91
640.68	32.83
640.87	32.42
641.059	32.38
641.249	32.8
641.438	32.89
641.628	32.43
641.817	32.32
642.007	32.28
642.196	32.31
642.386	32.58
642.575	33.17
642.764	32.91
642.954	33.1
643.143	33.18
643.333	33.3
643.522	33.51
643.711	33.64
643.901	33.41
644.09	33.5
644.279	33.62
644.469	33.44
644.658	33.37
644.847	33.62
645.036	33.88
645.226	33.52
645.415	33.05
645.604	33.09
645.793	33.5
645.982	33.42
646.171	33.47
646.361	33.67
646.55	34.24
646.739	34.08
646.928	34.08
647.117	33.66
647.306	33.7
647.495	34.12
647.684	34.09
647.873	34.14
648.062	34.5
648.251	34.44
648.44	33.95
648.629	33.2
648.818	33.39
649.007	33.02
649.196	33.52
649.384	33.42
649.573	33.07
649.762	33.01
649.951	32.79
650.14	33.02
650.328	33.47
650.517	33.69
650.706	34.11
650.895	34.2
651.083	34.77
651.272	34.51
651.461	34.77
651.65	35.25
651.838	34.82
652.027	34.66
652.216	34.18
652.404	34.03
652.593	34.28
652.781	34.09
652.97	34.06
653.158	34.26
653.347	34.56
653.535	34.37
653.724	33.83
653.912	34.69
654.101	34.74
654.289	35.28
654.478	35.04
654.666	34.96
654.855	35.05
655.043	34.56
655.231	34.32
655.42	34.51
655.608	34.62
655.796	34.51
655.985	34.22
656.173	34.28
656.361	33.83
656.55	33.93
656.738	33.38
656.926	33.49
657.114	34.14
657.302	34.09
657.491	33.52
657.679	33.31
657.867	33.54
658.055	33.44
658.243	33.62
658.431	33.84
658.619	33.91
658.807	34.25
658.996	34.41
659.184	33.88
659.372	34.4
659.56	34.59
659.748	34.48
659.936	34.59
660.124	34.74
660.311	34.87
660.499	34.9
660.687	34.93
660.875	35.28
661.063	34.93
661.251	35.36
661.439	34.97
661.627	35.29
661.814	35.78
662.002	35.77
662.19	35.6
662.378	35.34
662.565	35.58
662.753	35.51
662.941	35.52
663.129	35.68
663.316	35.6
663.504	35.27
663.692	34.94
663.879	35.16
664.067	35.32
664.254	35.12
664.442	35.16
664.63	35.12
664.817	35.36
665.005	34.98
665.192	35.25
665.38	35.23
665.567	35.05
665.755	35.27
665.942	34.93
666.13	35.05
666.317	35.45
666.504	35.67
666.692	35.56
666.879	35.79
667.067	35.88
667.254	35.39
667.441	35.42
667.629	35.76
667.816	35.62
668.003	35.48
668.19	35.51
668.378	35.3
668.565	35.04
668.752	35.13
668.939	34.55
669.127	34.33
669.314	34.48
669.501	34.43
669.688	34.6
669.875	34.64
670.062	35.12
670.249	34.88
670.436	35.21
670.623	35.12
670.81	34.95
670.997	35.07
671.184	35.13
671.371	35.66
671.558	35.85
671.745	35.53
671.932	35.33
672.119	35.09
672.306	35.23
672.493	35.18
672.68	35.37
672.867	35.84
673.054	35.52
673.24	35.73
673.427	35.54
673.614	35.54
673.801	35.88
673.988	36.32
674.174	36.55
674.361	36.25
674.548	36.01
674.734	36.04
674.921	35.43
675.108	36.42
675.294	35.88
675.481	35.8
675.668	36.02
675.854	35.7
676.041	35.38
676.227	35
676.414	35.76
676.601	35.95
676.787	35.74
676.974	35.96
677.16	35.44
677.347	35.95
677.533	35.65
677.719	35.21
677.906	35.42
678.092	35.69
678.279	35.31
678.465	34.75
678.651	34.69
678.838	34.93
679.024	35.01
679.21	35.01
679.397	35.16
679.583	35.21
679.769	35.52
679.955	35.27
680.142	35.39
680.328	36.1
680.514	35.92
680.7	35.59
680.886	35.89
681.073	35.97
681.259	35.67
681.445	35.72
681.631	35.64
681.817	35.72
682.003	35.93
682.189	35.65
682.375	35.32
682.561	35.6
682.747	36.08
682.933	35.88
683.119	35.53
683.305	35.79
683.491	35.57
683.677	35.81
683.863	35.73
684.049	35.74
684.235	35.75
684.42	35.66
684.606	35.73
684.792	35.78
684.978	35.6
685.164	35.82
685.349	35.77
685.535	36.04
685.721	35.78
685.907	35.5
686.092	35.69
686.278	35.78
686.464	36
686.649	36.29
686.835	36.17
687.021	36.62
687.206	36.91
687.392	36.89
687.577	36.74
687.763	36.76
687.948	36.56
688.134	36.22
688.319	36.29
688.505	36.14
688.69	35.48
688.876	35.18
689.061	34.82
689.247	34.57
689.432	34.72
689.618	34.67
689.803	34.78
689.988	35.04
690.174	35.49
690.359	35.41
690.544	35.41
690.73	36.08
690.915	36.47
691.1	36.45
691.285	36.85
691.471	36.97
691.656	37.22
691.841	37.61
692.026	37.85
692.211	37.96
692.396	38.21
692.582	38.2
692.767	38.27
692.952	37.89
693.137	37.43
693.322	36.9
693.507	37.08
693.692	36.88
693.877	36.34
694.062	36.27
694.247	35.87
694.432	36.3
694.617	36.93
694.802	36.55
694.987	37.21
695.172	37.31
695.357	37.29
695.541	37.02
695.726	37.47
695.911	38.23
696.096	37.62
696.281	37.85
696.466	37.19
696.65	36.84
696.835	37.17
697.02	36.98
697.204	37.48
697.389	37.63
697.574	37.46
697.759	37.26
697.943	36.85
698.128	37.11
698.312	36.91
698.497	36.43
698.682	36.23
698.866	36.02
699.051	35.87
699.235	35.95
699.42	36.19
699.604	36.45
699.789	36.1
699.973	36.09
700.158	36.3
700.342	36.39
700.527	36.95
700.711	37.39
700.895	37.39
701.08	37.92
701.264	37.85
701.448	37.62
701.633	37.73
701.817	37.7
702.001	37.94
702.186	37.47
702.37	37.13
702.554	37.3
702.738	37.27
702.923	37.18
703.107	36.97
703.291	37.67
703.475	37.65
703.659	37.11
703.843	37.46
704.027	37.37
704.212	37.86
704.396	37.91
704.58	37.95
704.764	37.47
704.948	37.68
705.132	37.53
705.316	36.56
705.5	36.76
705.684	37.12
705.868	37.21
706.052	36.83
706.235	36.85
706.419	37.39
706.603	36.83
706.787	36.48
706.971	36.73
707.155	36.53
707.339	36.85
707.522	36.36
707.706	36.25
707.89	36.37
708.074	36.87
708.257	36.79
708.441	36.81
708.625	37.21
708.808	37.87
708.992	38.15
709.176	38.45
709.359	37.98
709.543	37.93
709.727	38.28
709.91	37.84
710.094	36.95
710.277	37.56
710.461	37.02
710.644	36.76
710.828	36.31
711.011	35.94
711.195	35.43
711.378	35.74
711.562	36.33
711.745	36.14
711.928	36.66
712.112	37.36
712.295	37.32
712.478	37.82
712.662	38.56
712.845	39.12
713.028	39.09
713.212	39.58
713.395	39.45
713.578	38.92
713.761	38.62
713.945	38.08
714.128	38.72
714.311	38.27
714.494	38.07
714.677	37.59
714.86	37.86
715.043	38.68
715.227	38.38
715.41	38.51
715.593	39.02
715.776	39.25
715.959	39.48
716.142	39.06
716.325	38.77
716.508	39.17
716.691	39.57
716.874	39.28
717.057	38.39
717.239	38.37
717.422	37.98
717.605	38.04
717.788	38.2
717.971	39.06
718.154	38.73
718.337	39.24
718.519	39.25
718.702	39.4
718.885	39.11
719.068	39.3
719.25	39.95
719.433	40.3
719.616	39.39
719.798	38.67
719.981	38.85
720.164	39.13
720.346	38.92
720.529	38.67
720.712	38.48
720.894	38.79
721.077	38.91
721.259	38.5
721.442	38.57
721.624	39.58
721.807	39.68
721.989	39.07
722.172	39.48
722.354	40.1
722.537	40.64
722.719	39.81
722.901	40.11
723.084	40.3
723.266	39.91
723.448	41.09
723.631	40.52
723.813	40.5
723.995	39.67
724.178	39.25
724.36	38.64
724.542	38.28
724.724	39.36
724.907	38.94
725.089	38.3
725.271	39.81
725.453	38.75
725.635	39.74
725.817	41.1
725.999	41.49
726.181	42.04
726.364	41.75
726.546	41.99
726.728	41.49
726.91	41.72
727.092	42.15
727.274	41.43
727.456	41.96
727.638	41.27
727.819	39.96
728.001	39.82
728.183	39.55
728.365	39.49
728.547	38.89
728.729	39.19
728.911	39.29
729.093	39.13
729.274	38.11
729.456	37.67
729.638	37.91
729.82	39.02
730.001	38.74
730.183	38.86
730.365	39.15
730.546	39.46
730.728	38.29
730.91	38.22
731.091	38.01
731.273	38.23
731.455	38.23
731.636	38.34
731.818	37.71
731.999	38.01
732.181	37.76
732.362	37.62
732.544	37.77
732.725	38.67
732.907	38.55
733.088	39.17
733.27	40.4
733.451	40.38
733.633	40.71
733.814	40.69
733.995	40.78
734.177	41.23
734.358	41.71
734.539	41.96
734.721	41.82
734.902	41.57
735.083	41.18
735.264	41.15
735.446	41.37
735.627	40.18
735.808	39.5
735.989	39.89
736.17	39.73
736.351	39.61
736.533	39.05
736.714	38.95
736.895	39.5
737.076	39.21
737.257	38.39
737.438	37.82
737.619	38.34
737.8	39.74
737.981	39.84
738.162	39.08
738.343	39.02
738.524	38.42
738.705	38.21
738.886	37.17
739.067	38.15
739.247	38.01
739.428	38.83
739.609	38.88
739.79	38.92
739.971	37.95
740.151	37.62
740.332	38.62
740.513	39.39
740.694	40.03
740.874	40.64
741.055	39.37
741.236	39.39
741.417	38.82
741.597	38.67
741.778	39
741.958	39.75
742.139	40.23
742.32	39.32
742.5	39.62
742.681	40.16
742.861	39.97
743.042	40.17
743.222	40.62
743.403	40.57
743.583	40.73
743.764	39.4
743.944	39.54
744.124	40.19
744.305	40.04
744.485	40.49
744.666	38.94
744.846	39.58
745.026	40.87
745.207	40.44
745.387	40.13
745.567	40.22
745.747	41.18
745.928	40.98
746.108	40.61
746.288	40.38
746.468	39.92
746.648	40.36
746.829	40.46
747.009	40.15
747.189	41.06
747.369	41.7
747.549	41.02
747.729	40.37
747.909	39.77
748.089	39.68
748.269	39.7
748.449	40.03
748.629	40.17
748.809	40.11
748.989	39.21
749.169	39.66
749.349	39.35
749.529	39.8
749.709	39.59
749.889	40.25
750.068	40.3
750.248	41.84
750.428	41.29
750.608	41.21
750.788	39.38
750.967	40.08
751.147	39.35
751.327	39.3
751.507	38.84
751.686	38.98
751.866	39.93
752.046	39.23
752.225	38.11
752.405	39.17
752.585	39.41
752.764	40.89
752.944	40.65
753.123	40.26
753.303	40.67
753.482	41.07
753.662	40.69
753.841	39.23
754.021	40.78
754.2	40.65
754.38	39.41
754.559	40.01
754.739	39.65
754.918	39.08
755.097	39.33
755.277	39.26
755.456	39.46
755.635	41.15
755.815	42.37
755.994	41.59
756.173	41.42
756.352	41.24
756.532	39.48
756.711	39.83
756.89	39.47
757.069	39.8
757.248	39.77
757.427	39.65
757.607	38.34
757.786	38.15
757.965	37.98
758.144	37.94
758.323	39.55
758.502	40.17
758.681	40.28
758.86	41.53
759.039	41.03
759.218	40.82
759.397	41.22
759.576	40.67
759.755	40.06
759.934	40.18
760.113	40.91
760.291	39.64
760.47	39.95
760.649	40.42
760.828	40.1
761.007	40.19
761.186	40.51
761.364	39.97
761.543	40.6
761.722	40.16
761.901	39.86
762.079	39.48
762.258	38.94
762.437	39.34
762.615	38.36
762.794	38.53
762.972	38.1
763.151	38.36
763.33	38.49
763.508	37.89
763.687	37.94
763.865	38.62
764.044	38.83
764.222	39.25
764.401	38.7
764.579	38.93
764.758	38.64
764.936	39.37
765.114	38.12
765.293	38.45
765.471	39.13
765.65	39.79
765.828	39.8
766.006	39.99
766.184	40.11
766.363	40.44
766.541	40.14
766.719	40.91
766.898	40.65
767.076	41.63
767.254	41.71
767.432	42.52
767.61	42.64
767.788	42.31
767.967	42.44
768.145	41.95
768.323	42.52
768.501	43.24
768.679	42.74
768.857	42.15
769.035	42.53
769.213	41.93
769.391	41.36
769.569	40.72
769.747	41.64
769.925	40.07
770.103	38.76
770.281	37.66
770.459	38.42
770.636	37.96
770.814	39.18
770.992	39.54
771.17	39.87
771.348	38.76
771.525	39.54
771.703	38.44
771.881	40.06
772.059	43.1
772.236	43.68
772.414	43.01
772.592	43.54
772.769	42.78
772.947	41.32
773.125	40.87
773.302	42.57
773.48	43.37
773.657	43.72
773.835	42.36
774.013	41.71
774.19	42.66
774.368	41.71
774.545	41.12
774.723	41.91
774.9	42.11
775.077	43.69
775.255	42.88
775.432	42.52
775.61	43.56
775.787	44.51
775.964	44.35
776.142	44.61
776.319	45.18
776.496	44.96
776.674	43.35
776.851	45.7
777.028	44.67
777.205	44.69
777.382	45.31
777.56	43.44
777.737	44.95
777.914	44.24
778.091	44.32
778.268	44.92
778.445	46.2
778.622	46.77
778.8	45.47
778.977	44.64
779.154	51.35
779.331	50.92
779.508	51.93
779.685	49.59
779.862	49.58
780.038	48.33
780.215	50.15
780.392	49.92
780.569	49.89
780.746	49.7
780.923	50.53
781.1	44.25
781.277	43.32
781.453	43.08
781.63	43.45
781.807	43.14
781.984	42.86
782.16	40.76
782.337	41.41
782.514	41.26
782.691	42.55
782.867	41.31
783.044	39.64
783.221	40.66
783.397	41.12
783.574	40.24
783.75	40.78
783.927	40.08
784.103	40.25
784.28	38.8
784.456	40.63
784.633	41.68
784.809	43.69
784.986	44.54
785.162	43.12
785.339	42.34
785.515	43.91
785.692	45.69
785.868	48.77
786.044	47.7
786.221	47.91
786.397	46.02
786.573	44.13
786.749	45.14
786.926	47.08
787.102	47.08
787.278	46.98
787.454	46.93
787.631	47.31
787.807	46.25
787.983	46.36
788.159	47.03
788.335	48.02
788.511	48.17
788.687	45.07
788.863	44.26
789.039	43.93
789.216	43.43
789.392	45
789.568	45.08
789.744	45.86
789.919	46.25
790.095	46.17
790.271	44.63
790.447	45.47
790.623	47.64
790.799	47.98
790.975	48.73
791.151	50.6
791.327	48.38
791.502	47.9
791.678	46.58
791.854	46.37
792.03	47.1
792.205	49.64
792.381	50.46
792.557	49.81
792.733	48.83
792.908	48.6
793.084	46.91
793.259	47.99
793.435	46.99
793.611	47.78
793.786	48.31
793.962	47.18
794.137	45.73
794.313	44.18
794.488	43.5
794.664	45.14
794.839	44.21
795.015	44.33
795.19	44.7
795.366	45.62
795.541	44.64
795.716	45.1
795.892	46.23
796.067	45.24
796.242	46.06
796.418	46.02
796.593	44.79
796.768	45.65
796.944	45.54
797.119	42.92
797.294	41.13
797.469	42.33
797.644	43.74
797.82	43.67
797.995	43.25
798.17	40.99
798.345	41.51
798.52	41.85
798.695	43.3
798.87	43.95
799.045	46.4
799.22	47.59
799.395	48.7
799.57	48.71
799.745	47.68
799.92	50.21
800.095	53.81
800.27	54.06
800.445	52.92
800.62	50.01
800.795	49.83
800.97	50.01
801.145	49.15
801.319	47.92
801.494	45.88
801.669	46.82
801.844	48.1
802.018	45.56
802.193	44.9
802.368	46.2
802.543	46.05
802.717	46.14
802.892	45.24
803.067	46.46
803.241	44.65
803.416	46.77
803.59	46.24
803.765	44.52
803.94	47.19
804.114	47.14
804.289	49.67
804.463	51.9
804.638	49.39
804.812	50.93
804.986	48.7
805.161	49.94
805.335	49.08
805.51	49.45
805.684	47.14
805.858	45.61
806.033	45.96
806.207	42.96
806.381	42.89
806.556	45.1
806.73	44.11
806.904	45.27
807.078	45.15
807.253	45.88
807.427	45.92
807.601	46.13
807.775	47.45
807.949	49.84
808.123	51.61
808.298	51.14
808.472	50.87
808.646	49.6
808.82	47.97
808.994	47.39
809.168	47.57
809.342	46.4
809.516	48.9
809.69	46.54
809.864	45.14
810.038	47.89
810.212	48.03
810.385	46.05
810.559	48.17
810.733	51.05
810.907	51.99
811.081	52.02
811.255	52.27
811.428	49.32
811.602	49.86
811.776	49.69
811.95	45.9
812.123	46.98
812.297	51.15
812.471	50.63
812.644	48.07
812.818	49.24
812.992	48.16
813.165	48.65
813.339	48.6
813.512	47.32
813.686	49.35
813.86	49.82
814.033	47.15
814.207	44.34
814.38	41.51
814.554	43.22
814.727	40.13
814.9	41.38
815.074	42.57
815.247	43.98
815.421	45.46
815.594	43.01
815.767	39.51
815.941	41.72
816.114	44.65
816.287	46.58
816.46	45.17
816.634	46.68
816.807	47.83
816.98	46.13
817.153	48.27
817.327	47.18
817.5	48.23
817.673	52.33
817.846	53.42
818.019	50.85
818.192	51.97
818.365	53.02
818.538	53.5
818.711	49.46
818.884	49.46
819.057	46.22
819.23	44.93
819.403	43.08
819.576	41.89
819.749	40.06
819.922	41.94
820.095	40.87
820.268	40.58
820.441	41.57
820.614	41.12
820.786	41.32
820.959	42.13
821.132	42.67
821.305	42.04
821.477	40.56
821.65	40.45
821.823	40.24
821.996	39.64
822.168	39.39
822.341	38.77
822.514	39.01
822.686	38.44
822.859	38.52
823.031	38.46
823.204	38.93
823.376	39.41
823.549	39.41
823.722	39.35
823.894	40.07
824.067	40.17
824.239	40.43
824.411	40.59
824.584	41.42
824.756	41.28
824.929	41.44
825.101	41.21
825.273	41.56
825.446	41.69
825.618	41.63
825.79	41.4
825.963	41.21
826.135	41.01
826.307	40.5
826.479	39.97
826.652	39.68
826.824	39.22
826.996	39.12
827.168	38.77
827.34	38.7
827.512	38.81
827.684	38.46
827.856	39.19
828.029	39.7
828.201	39.6
828.373	39.58
828.545	40.99
828.717	41.53
828.889	41.58
829.061	42.8
829.232	44.4
829.404	44.68
829.576	45.38
829.748	45.1
829.92	45.16
830.092	46.36
830.264	47.41
830.436	47.78
830.607	48.92
830.779	50.81
830.951	50.26
831.123	46.74
831.294	45.74
831.466	45.37
831.638	46.33
831.809	45.7
831.981	47.38
832.153	47.48
832.324	46.98
832.496	47.6
832.667	49.46
832.839	47.56
833.011	49.56
833.182	48.96
833.354	49.49
833.525	49.72
833.697	49.61
833.868	46.21
834.039	46.56
834.211	45.4
834.382	44.27
834.554	42.73
834.725	44.88
834.896	44.08
835.068	44.2
835.239	43.68
835.41	44.54
835.581	45.99
835.753	47.45
835.924	46.79
836.095	47.6
836.266	45.4
836.438	46.92
836.609	45.99
836.78	46.77
836.951	46.52
837.122	47.4
837.293	47.15
837.464	45
837.635	44.2
837.806	46.26
837.977	45.98
838.148	51.05
838.319	47.5
838.49	46.69
838.661	49.26
838.832	51.18
839.003	48.43
839.174	45.9
839.345	46.23
839.516	51.88
839.687	51.05
839.857	51.93
840.028	51.49
840.199	54.7
840.37	57.43
840.54	59.09
840.711	56.3
840.882	60.41
841.053	59.6
841.223	59.93
841.394	57.32
841.564	62.08
841.735	61.04
841.906	60.52
842.076	56.99
842.247	57.33
842.417	56.91
842.588	61.64
842.758	58.77
842.929	58.72
843.099	60.92
843.27	61.62
843.44	55.59
843.611	60.41
843.781	58.69
843.951	59.62
844.122	59.83
844.292	56.38
844.462	58.37
844.633	60.29
844.803	65.49
844.973	67.78
845.144	67.93
845.314	72.88
845.484	63.23
845.654	64.69
845.824	68.24
845.995	68.95
846.165	73.01
846.335	74.29
846.505	74.24
846.675	78.08
846.845	76.66
847.015	78.28
847.185	74.43
847.355	79.72
847.525	83.58
847.695	91.71
847.865	88.02
848.035	92.47
848.205	87.26
848.375	94.64
848.545	73.72
848.715	74.77
848.884	74.15
849.054	72.33
849.224	71.69
849.394	73.72
849.564	69
849.733	74.15
849.903	69.47
850.073	71
850.243	66.44
850.412	75.61
850.582	72.66
850.752	74.75
850.921	72.84
851.091	76.65
851.26	75.29
851.43	72.46
851.599	69.13
851.769	70.14
851.939	69.48
852.108	79.13
852.278	83.95
852.447	83.1
852.616	79.93
852.786	86.63
852.955	86.71
853.125	88.59
853.294	90.05
853.463	89.44
853.633	92.15
853.802	80.93
853.971	76.64
854.141	69.88
854.31	70.73
854.479	68.53
854.648	70.01
854.818	61.81
854.987	59.95
855.156	61.17
855.325	66.82
855.494	72.33
855.663	78.15
855.832	71.99
856.001	81.43
856.171	78.46
856.34	80.95
856.509	78.23
856.678	90.23
856.847	104.12
857.016	104.15
857.185	92.32
857.353	87.57
857.522	104.06
857.691	105.66
857.86	107.55
858.029	93.04
858.198	99.44
858.367	100.02
858.535	95.77
858.704	73.49
858.873	74.67
859.042	75.86
859.21	70.18
859.379	59.29
859.548	53.24
859.717	52.83
859.885	64.09
860.054	56.22
860.222	39.51
860.391	45.86
860.56	46.9
860.728	40.63
860.897	25.8
861.065	21.92
861.234	31.52
861.402	40.28
861.571	32.19
861.739	42.72
861.908	52.78
862.076	63.16
862.244	58.07
862.413	61.39
862.581	67.25
862.749	77.95
862.918	84.82
863.086	85.5
863.254	80.69
863.423	87.91
863.591	94.04
863.759	77.48
863.927	77.24
864.096	76.76
864.264	86.16
864.432	81.2
864.6	80.87
864.768	84.76
864.936	88.05
865.104	91.1
865.272	94.35
865.44	93.16
865.608	91.42
865.776	95.68
865.944	97.11
866.112	94.55
866.28	87.78
866.448	90.03
866.616	81.9
866.784	77.1
866.952	78.43
867.12	77.86
867.288	71.79
867.455	73.86
867.623	78.12
867.791	73.35
867.959	73.27
868.127	77.19
868.294	82.74
868.462	83.45
868.63	83.17
868.797	85.13
868.965	85.72
869.133	88.34
869.3	86.37
869.468	76.94
869.636	69.03
869.803	72.25
869.971	75.66
870.138	71.25
870.306	74.07
870.473	71.03
870.641	62.76
870.808	56.82
870.975	50.96
871.143	52.86
871.31	56.81
871.478	76.69
871.645	71.92
871.812	72.4
871.98	71.92
872.147	73.66
872.314	70.33
872.482	73.97
872.649	73.5
872.816	69.01
872.983	68.8
873.15	63.38
873.318	63.64
873.485	66.61
873.652	69.95
873.819	73.48
873.986	70.5
874.153	71.31
874.32	76.76
874.487	81.81
874.654	88.36
874.821	86.81
874.988	90.48
875.155	81.87
875.322	83.67
875.489	80.4
875.656	73.03
875.823	61.07
875.99	61.61
876.157	55.68
876.324	53.46
876.49	48.21
876.657	54.18
876.824	57.66
876.991	64.9
877.157	60.54
877.324	62.54
877.491	65.25
877.658	74.95
877.824	80.09
877.991	79.86
878.157	79.61
878.324	78.73
878.491	81.28
878.657	83.13
878.824	76.53
878.99	77.78
879.157	77.07
879.323	73.97
879.49	73.35
879.656	73.75
879.823	75.98
879.989	76.79
880.156	74.12
880.322	67.73
880.488	63.15
880.655	65.14
880.821	68.22
880.987	68.38
881.154	69.38
881.32	65.71
881.486	64.07
881.652	59.43
881.819	57.62
881.985	55.4
882.151	56.4
882.317	56.02
882.483	51.06
882.649	48.46
882.816	47.46
882.982	44.82
883.148	45.17
883.314	44.45
883.48	46.35
883.646	45.63
883.812	46.34
883.978	46.76
884.144	46.87
884.31	46.99
884.476	47.95
884.642	49.23
884.807	52.19
884.973	52.62
885.139	52.34
885.305	52.29
885.471	53.03
885.637	53.29
885.802	52.77
885.968	53.31
886.134	55.65
886.3	53.57
886.465	53.11
886.631	50.04
886.797	51.72
886.962	51.52
887.128	52.32
887.293	52.54
887.459	52.53
887.625	52.22
887.79	52.22
887.956	48.17
888.121	51.86
888.287	49.92
888.452	52.35
888.618	47.36
888.783	50.11
