Data from LC_162_Reflection_2.txt Node
Date: Mon Nov 16 22:41:08 EST 2015
User: robert
Spectrometer: USB4E03001
Autoset integration time: false
Trigger mode: 4
Integration Time (sec): 1.000000E-1
Scans to average: 15
Electric dark correction enabled: true
Nonlinearity correction enabled: false
Boxcar width: 5
Stray light correction enabled: false
XAxis mode: Wavelengths
Stop averaging: false
Number of Pixels in Spectrum: 3648
>>>>>Begin Spectral Data<<<<<
177.566	4253.01
177.785	380.33
178.005	-2014.29
178.225	163.4
178.445	130.05
178.665	546.92
178.885	210.64
179.105	217.76
179.324	381.78
179.544	-116.17
179.764	-936.16
179.984	-282.77
180.204	-317.16
180.423	-261.4
180.643	-325.5
180.863	-281.84
181.083	-257.82
181.302	-358.81
181.522	-340.06
181.742	-293.82
181.961	-515.41
182.181	-422.84
182.401	-615.61
182.621	-2338.39
182.84	-1052.15
183.06	-741.31
183.279	-432.48
183.499	-291.69
183.719	-252.05
183.938	-231.88
184.158	-225.15
184.377	-167.8
184.597	-297.11
184.816	-183.67
185.036	-124.29
185.256	-111.98
185.475	-129
185.695	-165.54
185.914	-299.79
186.134	-518.88
186.353	-604.55
186.572	-855.35
186.792	-1293.16
187.011	-507.47
187.231	-538.97
187.45	-394.34
187.67	-900.66
187.889	-2672.88
188.108	4947.26
188.328	-1150.12
188.547	-410.45
188.766	-773.56
188.986	-1026.4
189.205	-623.01
189.424	-363.7
189.644	-1042.94
189.863	-1192.03
190.082	-803.53
190.302	-1755.65
190.521	-973.77
190.74	894.24
190.959	429.21
191.178	643.34
191.398	631.22
191.617	600.44
191.836	612.69
192.055	1416.64
192.274	619.53
192.494	712.42
192.713	694.74
192.932	1585.08
193.151	1432.64
193.37	2697.19
193.589	-1533.94
193.808	-437.37
194.027	-612.85
194.246	-5395.53
194.465	951.44
194.685	2145.37
194.904	1038.39
195.123	-1479.26
195.342	-799.69
195.561	-351.22
195.78	-468.47
195.999	21877.46
196.218	767.52
196.436	671.13
196.655	-2054.06
196.874	-870.32
197.093	-1321.62
197.312	-998.36
197.531	2950.57
197.75	1234.58
197.969	-4305.2
198.188	-919.37
198.407	-248.83
198.625	-300.59
198.844	-198.82
199.063	-289.18
199.282	-518.97
199.501	-325.86
199.719	-209.63
199.938	-128.99
200.157	-105.47
200.376	-102.45
200.594	-179.13
200.813	-437.77
201.032	-293.74
201.251	-324.85
201.469	-248.45
201.688	-185.56
201.907	-365.95
202.125	-654.77
202.344	22964.29
202.563	4087.13
202.781	619.78
203	1711.7
203.218	1410.21
203.437	1162.48
203.656	545.29
203.874	305.39
204.093	267.4
204.311	299.41
204.53	260.92
204.748	403.95
204.967	271.73
205.185	315.24
205.404	379.39
205.622	201.89
205.841	174.55
206.059	202.67
206.278	202.97
206.496	571.58
206.715	341.86
206.933	272.04
207.151	218.93
207.37	175.93
207.588	202.52
207.806	151.99
208.025	344.46
208.243	-456.35
208.461	1010.16
208.68	-12661.18
208.898	546.85
209.116	551.42
209.335	607.63
209.553	689.01
209.771	7414.58
209.989	1432.86
210.208	3155.7
210.426	-5257
210.644	2810.6
210.862	-2171.16
211.081	1081.85
211.299	-456.37
211.517	2182.79
211.735	-627.17
211.953	-163028.57
212.171	-3084.94
212.39	-9847.75
212.608	-27860.87
212.826	1016.34
213.044	687.81
213.262	476.82
213.48	2684.6
213.698	324.76
213.916	468.39
214.134	341.32
214.352	725.14
214.57	468.27
214.788	516.99
215.006	433.73
215.224	386.27
215.442	302.28
215.66	311.94
215.878	244.13
216.096	273.31
216.314	286.99
216.532	482.15
216.75	455.13
216.968	459.27
217.185	1115.86
217.403	1977.94
217.621	-5525.3
217.839	-1744.77
218.057	-1992.44
218.275	3624.24
218.492	1015.43
218.71	1650.22
218.928	441.4
219.146	412.09
219.363	339.78
219.581	266.18
219.799	206.35
220.017	212.19
220.234	182.54
220.452	181.62
220.67	202.68
220.887	212.37
221.105	237.92
221.323	191.4
221.54	192.03
221.758	216.18
221.976	249.16
222.193	245.51
222.411	180.14
222.629	201.57
222.846	225.52
223.064	228.06
223.281	191.58
223.499	159.22
223.716	166.31
223.934	130.08
224.151	121.01
224.369	103.58
224.586	107.14
224.804	99.66
225.021	102.58
225.239	82.67
225.456	72.34
225.674	79.61
225.891	73.75
226.108	84.65
226.326	87.43
226.543	80.01
226.76	77.08
226.978	68.75
227.195	70.71
227.413	54.2
227.63	46.18
227.847	42.28
228.064	40.97
228.282	40.91
228.499	36.74
228.716	32.62
228.934	30.06
229.151	30.87
229.368	29.73
229.585	29.38
229.802	32.62
230.02	32.1
230.237	33.36
230.454	32.74
230.671	34.91
230.888	35.14
231.105	38.07
231.323	40.42
231.54	40.81
231.757	41.48
231.974	42.95
232.191	40.25
232.408	46.69
232.625	45.5
232.842	44.54
233.059	41.37
233.276	44.4
233.493	41.02
233.71	41.28
233.927	40
234.144	44.43
234.361	40.73
234.578	41.73
234.795	37.21
235.012	40.48
235.229	45.16
235.446	41.83
235.663	38.87
235.879	40.88
236.096	36.88
236.313	35.49
236.53	30.15
236.747	33.29
236.964	35.87
237.181	38.57
237.397	35.92
237.614	32.78
237.831	34.88
238.048	38.73
238.264	38.64
238.481	43.23
238.698	45.57
238.915	44.04
239.131	43.74
239.348	41.55
239.565	41.85
239.781	43.59
239.998	44.21
240.215	43.61
240.431	40.86
240.648	36.35
240.865	32.87
241.081	30.79
241.298	30.09
241.514	28.52
241.731	26.5
241.947	25.84
242.164	23.52
242.38	21.78
242.597	20.84
242.814	21.37
243.03	22.19
243.246	22.8
243.463	22.77
243.679	24.18
243.896	22.64
244.112	24
244.329	22.52
244.545	23.71
244.762	24.48
244.978	25.62
245.194	26.16
245.411	25.01
245.627	24.28
245.843	25.26
246.06	22.01
246.276	22.34
246.492	21.03
246.709	20.93
246.925	20.06
247.141	19.78
247.357	18.66
247.574	18.4
247.79	18.67
248.006	17.9
248.222	17.09
248.439	18.16
248.655	18.6
248.871	19.07
249.087	19.11
249.303	19.54
249.519	19.32
249.736	20.86
249.952	19.75
250.168	21.3
250.384	22.49
250.6	22.15
250.816	20.87
251.032	20.46
251.248	18.38
251.464	19.63
251.68	19.33
251.896	18.74
252.112	18.55
252.328	19.2
252.544	18.57
252.76	19.92
252.976	19.89
253.192	20.54
253.408	20.03
253.624	23.93
253.84	22.93
254.056	24.65
254.272	25.43
254.487	25.22
254.703	24.64
254.919	23.15
255.135	19.72
255.351	20.3
255.567	20.7
255.782	21.6
255.998	16.89
256.214	19.05
256.43	16.75
256.646	18.41
256.861	18.14
257.077	18.26
257.293	18.82
257.508	20.35
257.724	23.12
257.94	23.11
258.155	22.32
258.371	22.07
258.587	20.42
258.802	19.76
259.018	19.96
259.234	19.02
259.449	18.5
259.665	17.44
259.88	17.87
260.096	16.76
260.312	15.67
260.527	15.92
260.743	16.27
260.958	16.13
261.174	16.94
261.389	16.86
261.605	17.12
261.82	17.91
262.036	18.51
262.251	18.79
262.466	18.69
262.682	20.33
262.897	20.15
263.113	20.37
263.328	21.14
263.543	20.6
263.759	20.94
263.974	22.41
264.189	22.64
264.405	23.88
264.62	23.85
264.835	25.8
265.051	26.58
265.266	26.47
265.481	26.82
265.696	26.78
265.912	24.83
266.127	22.27
266.342	20.83
266.557	19.72
266.773	19.77
266.988	17.83
267.203	17.37
267.418	15.82
267.633	14.1
267.848	13.92
268.064	13.64
268.279	14.57
268.494	15.28
268.709	16.05
268.924	16.49
269.139	15.7
269.354	16.81
269.569	15.42
269.784	16.42
269.999	18.44
270.214	18.04
270.429	18.74
270.644	18.18
270.859	16.48
271.074	16.24
271.289	14.42
271.504	14.51
271.719	13.89
271.934	14.32
272.149	13.44
272.363	12.9
272.578	11.58
272.793	10.62
273.008	10.32
273.223	10.79
273.438	9.85
273.653	11.41
273.867	11.43
274.082	11.3
274.297	11.48
274.512	12.37
274.726	12.71
274.941	13.95
275.156	13.68
275.371	15.03
275.585	16.85
275.8	16.8
276.015	16.93
276.229	16.33
276.444	17.42
276.659	18.03
276.873	17.35
277.088	17.43
277.302	17.58
277.517	20.14
277.732	20.86
277.946	20.12
278.161	22.01
278.375	21.53
278.59	22.57
278.804	22.38
279.019	22.35
279.233	22.89
279.448	21.65
279.662	21.56
279.877	19.76
280.091	18.76
280.306	17.72
280.52	16.49
280.735	15.08
280.949	15.47
281.163	14.26
281.378	13.38
281.592	13.01
281.806	13.89
282.021	13.61
282.235	13.95
282.449	14.24
282.664	15.65
282.878	16.08
283.092	17.53
283.307	16.99
283.521	18.17
283.735	18.11
283.949	19.01
284.164	19.14
284.378	18.88
284.592	19.3
284.806	19.1
285.02	17.9
285.234	17.88
285.449	17.38
285.663	17.43
285.877	16.05
286.091	15.71
286.305	14.04
286.519	12.99
286.733	12.76
286.947	11.91
287.161	11.54
287.375	12.23
287.589	12.28
287.803	11.97
288.017	12.1
288.231	13.05
288.445	14.66
288.659	16.7
288.873	16.78
289.087	17.7
289.301	17.5
289.515	17.64
289.729	16.89
289.943	16.38
290.157	16.45
290.371	16.6
290.584	16.59
290.798	15.84
291.012	16
291.226	16.47
291.44	16.89
291.654	17.85
291.867	17.59
292.081	17.58
292.295	17.72
292.509	18.75
292.722	18.09
292.936	18.4
293.15	18.05
293.364	17.66
293.577	17.62
293.791	16.79
294.005	16.96
294.218	16.91
294.432	17.3
294.645	17.57
294.859	16.81
295.073	17.5
295.286	17.52
295.5	16.51
295.713	15.86
295.927	15.97
296.14	15.96
296.354	15.32
296.568	15.21
296.781	15.58
296.994	15.4
297.208	15.36
297.421	14.99
297.635	14.24
297.848	14.9
298.062	15.06
298.275	14.67
298.489	14.2
298.702	13.84
298.915	13.8
299.129	13.85
299.342	13.51
299.555	13.78
299.769	14.03
299.982	14.14
300.195	13.65
300.409	13.57
300.622	14.72
300.835	16.17
301.048	16.28
301.262	15.98
301.475	15.68
301.688	16.39
301.901	17.22
302.115	16.67
302.328	16.83
302.541	17.44
302.754	17.55
302.967	16.73
303.18	16.8
303.393	18.23
303.607	18.71
303.82	18.39
304.033	17.73
304.246	16.23
304.459	17.37
304.672	17.21
304.885	18.06
305.098	17.54
305.311	16.92
305.524	16.75
305.737	15.87
305.95	17.03
306.163	16.36
306.376	16.32
306.589	16.71
306.802	15.18
307.015	16.13
307.228	15.82
307.44	16.1
307.653	17.1
307.866	15.46
308.079	16.74
308.292	16.16
308.505	18.12
308.718	18.19
308.93	18.06
309.143	18.35
309.356	17.58
309.569	16.69
309.781	17.22
309.994	17.21
310.207	18.33
310.42	16.7
310.632	15.77
310.845	14.83
311.058	14.31
311.27	15.08
311.483	15.24
311.696	15.1
311.908	15.33
312.121	15.38
312.333	15.54
312.546	14.5
312.759	14.74
312.971	15.83
313.184	16.02
313.396	16.07
313.609	15.59
313.821	15.14
314.034	16.83
314.246	17.61
314.459	17.3
314.671	16.92
314.884	16.31
315.096	15.21
315.309	14.03
315.521	15.49
315.733	15.62
315.946	14.92
316.158	15.37
316.371	13.78
316.583	13.34
316.795	13.18
317.008	13.61
317.22	16.61
317.432	17.65
317.644	17.63
317.857	16.89
318.069	17.25
318.281	17.75
318.494	17.39
318.706	18.08
318.918	17.47
319.13	18.01
319.342	19.1
319.555	18.06
319.767	18.25
319.979	18.73
320.191	18.66
320.403	18.29
320.615	17.48
320.827	18.57
321.039	18.29
321.252	19.59
321.464	18.91
321.676	18.69
321.888	18.53
322.1	18.29
322.312	16.82
322.524	15.8
322.736	16.2
322.948	16.9
323.16	16.56
323.372	16.59
323.584	15.56
323.796	13.96
324.007	12.73
324.219	12.39
324.431	12.84
324.643	13.89
324.855	13.92
325.067	14.09
325.279	13.41
325.491	12.76
325.702	12.05
325.914	11.68
326.126	13.13
326.338	13.33
326.55	13.17
326.761	12.61
326.973	12.05
327.185	12.5
327.396	12.2
327.608	13.09
327.82	13.84
328.032	14.78
328.243	14.49
328.455	14.94
328.666	13.87
328.878	13.94
329.09	13.94
329.301	14.65
329.513	14.19
329.725	14.32
329.936	13.84
330.148	13.2
330.359	11.77
330.571	12.09
330.782	11.39
330.994	13.56
331.205	14.03
331.417	14.7
331.628	14.23
331.84	14.29
332.051	15.39
332.262	16.07
332.474	16.07
332.685	17.63
332.897	17.51
333.108	17.58
333.319	16.48
333.531	16.4
333.742	16.53
333.953	16.18
334.165	15.55
334.376	14.73
334.587	13.87
334.799	13.53
335.01	12.56
335.221	12.9
335.432	13.11
335.644	12.76
335.855	12.53
336.066	12.9
336.277	14.19
336.488	15.42
336.7	15
336.911	16.16
337.122	15.99
337.333	16.75
337.544	17.5
337.755	17.74
337.966	17.98
338.177	17.97
338.388	17.71
338.599	17.16
338.811	16.93
339.022	17.26
339.233	17.01
339.444	17.36
339.655	15.75
339.866	15.14
340.076	15.44
340.287	16.22
340.498	16.18
340.709	15.4
340.92	14.82
341.131	14.23
341.342	13.7
341.553	13.35
341.764	13.4
341.975	14.52
342.185	13.83
342.396	12.99
342.607	12.89
342.818	13.34
343.029	13.77
343.239	14.8
343.45	14.77
343.661	14.53
343.872	14.21
344.082	14.11
344.293	13.9
344.504	14.73
344.714	13.84
344.925	12.65
345.136	12.52
345.346	11.03
345.557	10.59
345.768	11.01
345.978	11.43
346.189	12.12
346.399	12
346.61	12.44
346.821	11.74
347.031	13.19
347.242	13.64
347.452	13.94
347.663	15.02
347.873	15.29
348.084	14.75
348.294	15.33
348.504	14.8
348.715	14.78
348.925	14.23
349.136	14.07
349.346	13.05
349.557	13.1
349.767	13.34
349.977	13.06
350.188	12.65
350.398	13.59
350.608	13.06
350.819	12.48
351.029	12.98
351.239	13.11
351.449	12.78
351.66	13.08
351.87	13.97
352.08	13.18
352.29	13.29
352.501	12.88
352.711	11.52
352.921	11.86
353.131	11.91
353.341	11.47
353.552	11.3
353.762	11.48
353.972	12.06
354.182	11.67
354.392	11.55
354.602	12.01
354.812	12.33
355.022	12.67
355.232	12.09
355.442	12.85
355.652	13.05
355.862	12.35
356.072	13.17
356.282	12.28
356.492	12.03
356.702	11.51
356.912	11.3
357.122	10.86
357.332	11.31
357.542	11.08
357.752	10.81
357.962	10.48
358.171	11.03
358.381	11.14
358.591	11.66
358.801	11.7
359.011	12.58
359.221	12.67
359.43	13.17
359.64	12.86
359.85	12.91
360.06	12.32
360.269	12.64
360.479	12.35
360.689	11.66
360.899	11.1
361.108	10.65
361.318	10.31
361.528	9.65
361.737	9.45
361.947	9.15
362.156	9.33
362.366	9.6
362.576	9.57
362.785	9.05
362.995	8.83
363.204	9.16
363.414	9.09
363.623	9.09
363.833	9.8
364.042	9.66
364.252	10.32
364.461	10.01
364.671	9.54
364.88	9.61
365.09	10.36
365.299	11.04
365.509	10.38
365.718	10.79
365.927	10.44
366.137	11.06
366.346	11.11
366.555	10.53
366.765	10.56
366.974	10.98
367.183	10.87
367.393	10.29
367.602	9.56
367.811	10.18
368.021	9.69
368.23	10.12
368.439	9.24
368.648	9.84
368.857	9.97
369.067	10.22
369.276	10.12
369.485	10
369.694	10.22
369.903	11.31
370.112	11.29
370.321	11.38
370.531	11.23
370.74	11.16
370.949	10.37
371.158	10.37
371.367	10.36
371.576	10.11
371.785	9.86
371.994	9.77
372.203	9.48
372.412	9.42
372.621	9.68
372.83	9.87
373.039	10.36
373.248	10.48
373.457	10.69
373.666	10.46
373.874	10.36
374.083	10.8
374.292	11.14
374.501	10.64
374.71	10.25
374.919	10.19
375.128	9.74
375.336	9.2
375.545	9.66
375.754	8.82
375.963	8.67
376.171	8.89
376.38	8.87
376.589	9.29
376.798	8.75
377.006	9.01
377.215	9.06
377.424	8.88
377.632	8.91
377.841	8.37
378.05	8.88
378.258	8.97
378.467	8.53
378.675	8.27
378.884	7.86
379.093	8.45
379.301	8.16
379.51	7.84
379.718	7.9
379.927	8.08
380.135	7.58
380.344	7.64
380.552	7.63
380.761	8.16
380.969	8
381.177	7.94
381.386	7.03
381.594	7.16
381.803	6.99
382.011	7.08
382.219	6.46
382.428	6.35
382.636	5.92
382.845	6.15
383.053	6.26
383.261	6.05
383.469	5.77
383.678	6.57
383.886	6.5
384.094	6.47
384.302	6.52
384.511	7.22
384.719	7.9
384.927	7.89
385.135	7.64
385.343	7.38
385.552	7.64
385.76	7.75
385.968	7.65
386.176	7.47
386.384	7.65
386.592	7.4
386.8	6.97
387.008	7
387.216	7.15
387.424	7.23
387.633	7.3
387.841	7.3
388.049	7.21
388.257	7.16
388.465	7.23
388.672	7.17
388.88	7.25
389.088	7.38
389.296	7.17
389.504	7.17
389.712	7.02
389.92	6.73
390.128	6.5
390.336	6.42
390.544	6.88
390.751	6.57
390.959	6.56
391.167	6.64
391.375	6.81
391.583	6.83
391.79	6.43
391.998	6.11
392.206	6.27
392.414	6.22
392.621	6.27
392.829	6.02
393.037	6.35
393.244	6.52
393.452	6.43
393.66	6.29
393.867	6.26
394.075	6.38
394.283	6.73
394.49	6.43
394.698	6.58
394.905	6.71
395.113	6.48
395.32	6.35
395.528	6.4
395.735	6.36
395.943	6.09
396.15	6.2
396.358	6.32
396.565	6.3
396.773	6.82
396.98	6.84
397.188	6.7
397.395	6.67
397.602	6.88
397.81	6.38
398.017	6.76
398.225	6.69
398.432	6.55
398.639	6.83
398.847	6.9
399.054	6.64
399.261	6.56
399.468	6.71
399.676	6.57
399.883	6.39
400.09	6.79
400.297	6.45
400.505	6.8
400.712	6.68
400.919	6.77
401.126	6.64
401.333	6.79
401.54	6.78
401.748	6.8
401.955	6.97
402.162	6.87
402.369	6.76
402.576	6.78
402.783	6.51
402.99	6.53
403.197	6.19
403.404	5.91
403.611	5.88
403.818	6
404.025	5.81
404.232	5.73
404.439	5.78
404.646	5.53
404.853	5.33
405.06	5.44
405.267	5.37
405.474	5.3
405.681	5.37
405.887	5.18
406.094	5.08
406.301	5.38
406.508	5.31
406.715	5.62
406.922	5.83
407.128	5.77
407.335	5.79
407.542	5.81
407.749	6.04
407.955	6.35
408.162	6.21
408.369	6.43
408.575	6.15
408.782	6.34
408.989	5.98
409.195	6.02
409.402	6.31
409.609	6.39
409.815	6.62
410.022	6.47
410.228	6.33
410.435	6.77
410.642	6.47
410.848	6.67
411.055	6.48
411.261	6.6
411.468	6.69
411.674	6.68
411.881	6.55
412.087	6.68
412.294	6.77
412.5	6.5
412.706	6.37
412.913	6.19
413.119	5.81
413.326	5.87
413.532	6
413.738	5.69
413.945	5.78
414.151	5.74
414.357	5.55
414.564	5.36
414.77	5.52
414.976	5.28
415.182	5.77
415.389	5.91
415.595	5.84
415.801	5.51
416.007	5.73
416.214	5.74
416.42	5.86
416.626	5.73
416.832	5.88
417.038	5.73
417.244	5.89
417.45	5.61
417.657	5.68
417.863	5.88
418.069	6.04
418.275	6.01
418.481	5.94
418.687	5.82
418.893	5.77
419.099	5.61
419.305	5.85
419.511	5.86
419.717	5.91
419.923	5.72
420.129	5.61
420.335	5.57
420.541	5.55
420.746	5.46
420.952	5.47
421.158	5.48
421.364	5.52
421.57	5.56
421.776	5.44
421.982	5.32
422.187	5.19
422.393	5.18
422.599	5.01
422.805	5
423.01	4.95
423.216	4.88
423.422	4.82
423.628	4.86
423.833	4.7
424.039	4.76
424.245	4.83
424.45	5.14
424.656	5.18
424.862	5.36
425.067	5.43
425.273	5.39
425.478	5.45
425.684	5.46
425.889	5.5
426.095	5.71
426.301	5.78
426.506	5.89
426.712	5.8
426.917	5.68
427.123	5.68
427.328	5.64
427.533	5.94
427.739	6.01
427.944	6.18
428.15	6.2
428.355	6.09
428.561	5.85
428.766	5.81
428.971	5.91
429.177	6.17
429.382	6.3
429.587	6.38
429.793	6.27
429.998	6.31
430.203	6.13
430.408	6.07
430.614	6.1
430.819	6
431.024	6.07
431.229	5.87
431.434	5.98
431.64	5.81
431.845	5.86
432.05	5.76
432.255	5.72
432.46	5.63
432.665	5.5
432.87	5.41
433.076	5.64
433.281	5.77
433.486	5.78
433.691	5.42
433.896	5.18
434.101	5.04
434.306	5.2
434.511	5.22
434.716	5.45
434.921	5.44
435.126	5.32
435.331	5.2
435.535	4.94
435.74	5.02
435.945	5.31
436.15	5.54
436.355	5.62
436.56	5.59
436.765	5.56
436.97	5.39
437.174	5.43
437.379	5.59
437.584	5.61
437.789	5.69
437.993	5.76
438.198	5.65
438.403	5.68
438.608	5.67
438.812	5.48
439.017	5.49
439.222	5.44
439.426	5.48
439.631	5.55
439.836	5.52
440.04	5.54
440.245	5.51
440.45	5.54
440.654	5.49
440.859	5.39
441.063	5.4
441.268	5.35
441.472	5.51
441.677	5.46
441.881	5.22
442.086	5.31
442.29	5.22
442.495	5.01
442.699	5.02
442.904	4.98
443.108	5.04
443.312	5.03
443.517	4.98
443.721	4.84
443.925	4.87
444.13	5.08
444.334	5.05
444.538	5.19
444.743	5.33
444.947	5.24
445.151	5.17
445.356	5.03
445.56	5.13
445.764	5.14
445.968	5.16
446.173	5.27
446.377	5.23
446.581	5.25
446.785	5.13
446.989	5.13
447.193	5.11
447.398	5.15
447.602	5.27
447.806	5.37
448.01	5.48
448.214	5.61
448.418	5.49
448.622	5.58
448.826	5.55
449.03	5.69
449.234	5.8
449.438	5.88
449.642	6.05
449.846	5.92
450.05	5.91
450.254	5.69
450.458	5.81
450.662	5.85
450.866	5.73
451.069	5.75
451.273	5.65
451.477	5.45
451.681	5.3
451.885	5.16
452.089	5.22
452.292	5.08
452.496	5.26
452.7	5.09
452.904	5.06
453.107	5.08
453.311	5.19
453.515	5.14
453.719	5.18
453.922	5.33
454.126	5.39
454.33	5.44
454.533	5.28
454.737	5.14
454.94	5.11
455.144	5.19
455.348	5.16
455.551	5.06
455.755	4.9
455.958	4.99
456.162	4.82
456.365	4.82
456.569	4.59
456.772	4.78
456.976	4.96
457.179	5.03
457.383	4.99
457.586	5.05
457.79	5.06
457.993	5.17
458.196	4.92
458.4	5.01
458.603	4.86
458.807	5.13
459.01	5.16
459.213	4.93
459.417	4.81
459.62	4.81
459.823	4.73
460.026	4.77
460.23	4.9
460.433	5.09
460.636	5.1
460.839	5.23
461.042	5.19
461.246	5.2
461.449	5.33
461.652	5.41
461.855	5.36
462.058	5.36
462.261	5.15
462.464	5.15
462.668	5.13
462.871	5.11
463.074	5.01
463.277	4.88
463.48	4.93
463.683	4.92
463.886	4.88
464.089	5.02
464.292	5.22
464.495	5.48
464.698	5.33
464.901	5.13
465.104	5.18
465.306	5.3
465.509	5.47
465.712	5.37
465.915	5.39
466.118	5.42
466.321	5.24
466.524	5.15
466.726	5.2
466.929	5.24
467.132	5.33
467.335	5.3
467.538	5.07
467.74	4.89
467.943	5.08
468.146	5.18
468.348	5.16
468.551	5.31
468.754	5.3
468.956	5.02
469.159	5.06
469.362	5.14
469.564	5.08
469.767	5.4
469.969	5.4
470.172	5.03
470.375	4.92
470.577	5
470.78	5.04
470.982	5
471.185	5.1
471.387	5.17
471.59	5.13
471.792	5.2
471.995	5.01
472.197	5.05
472.399	5.07
472.602	4.97
472.804	4.89
473.007	4.68
473.209	4.66
473.411	4.66
473.614	4.52
473.816	4.55
474.018	4.56
474.22	4.65
474.423	4.81
474.625	4.9
474.827	5.1
475.03	5.08
475.232	5.31
475.434	5.22
475.636	5.43
475.838	5.37
476.04	5.34
476.243	5.3
476.445	5.37
476.647	5.28
476.849	5.22
477.051	5.01
477.253	5.1
477.455	5.06
477.657	5.05
477.859	4.95
478.061	4.92
478.263	4.85
478.465	4.9
478.667	4.82
478.869	4.66
479.071	4.68
479.273	4.8
479.475	4.78
479.677	4.62
479.879	4.63
480.081	4.58
480.283	4.61
480.485	4.54
480.686	4.49
480.888	4.43
481.09	4.49
481.292	4.41
481.494	4.36
481.695	4.36
481.897	4.44
482.099	4.47
482.301	4.5
482.502	4.5
482.704	4.6
482.906	4.55
483.107	4.56
483.309	4.52
483.511	4.54
483.712	4.46
483.914	4.42
484.115	4.38
484.317	4.38
484.519	4.38
484.72	4.39
484.922	4.33
485.123	4.37
485.325	4.37
485.526	4.39
485.728	4.4
485.929	4.46
486.131	4.5
486.332	4.53
486.534	4.45
486.735	4.4
486.936	4.35
487.138	4.36
487.339	4.33
487.541	4.31
487.742	4.25
487.943	4.25
488.144	4.23
488.346	4.17
488.547	4.18
488.748	4.27
488.95	4.26
489.151	4.32
489.352	4.32
489.553	4.28
489.755	4.3
489.956	4.4
490.157	4.51
490.358	4.53
490.559	4.61
490.76	4.6
490.961	4.54
491.163	4.64
491.364	4.61
491.565	4.58
491.766	4.63
491.967	4.66
492.168	4.57
492.369	4.57
492.57	4.56
492.771	4.62
492.972	4.63
493.173	4.7
493.374	4.69
493.575	4.76
493.776	4.84
493.976	4.96
494.177	5.02
494.378	5.23
494.579	5.17
494.78	5.37
494.981	5.21
495.182	5.27
495.382	5.29
495.583	5.15
495.784	5.14
495.985	5.2
496.185	5.05
496.386	4.98
496.587	5.02
496.788	5.01
496.988	5
497.189	5.1
497.39	5.18
497.59	5.14
497.791	5.2
497.992	5.13
498.192	5.07
498.393	5.17
498.593	5.13
498.794	4.91
498.994	5.01
499.195	5.03
499.395	5.13
499.596	5.09
499.796	5.05
499.997	5.03
500.197	5.21
500.398	5.34
500.598	5.35
500.799	5.37
500.999	5.57
501.199	5.43
501.4	5.34
501.6	5.19
501.801	5.24
502.001	5.36
502.201	5.57
502.402	5.48
502.602	5.37
502.802	5.45
503.002	5.65
503.203	5.73
503.403	5.67
503.603	5.78
503.803	5.82
504.003	5.72
504.204	5.73
504.404	5.65
504.604	5.48
504.804	5.67
505.004	5.61
505.204	5.59
505.404	5.7
505.604	5.89
505.804	5.65
506.005	5.67
506.205	5.69
506.405	5.73
506.605	5.72
506.805	5.94
507.005	5.93
507.204	5.83
507.404	5.88
507.604	5.69
507.804	5.61
508.004	5.77
508.204	5.74
508.404	5.76
508.604	5.76
508.804	5.78
509.003	5.71
509.203	5.57
509.403	5.61
509.603	5.61
509.803	5.74
510.002	5.81
510.202	5.79
510.402	5.83
510.602	5.91
510.801	5.89
511.001	5.96
511.201	6
511.4	6.13
511.6	6.22
511.8	6.15
511.999	6.19
512.199	6.22
512.398	6.36
512.598	6.57
512.797	6.65
512.997	6.65
513.197	6.64
513.396	6.73
513.596	6.76
513.795	6.96
513.994	6.97
514.194	6.89
514.393	6.97
514.593	6.93
514.792	6.77
514.992	6.68
515.191	6.68
515.39	6.55
515.59	6.33
515.789	6.24
515.988	6.07
516.188	6.02
516.387	5.98
516.586	5.9
516.786	6.06
516.985	6.06
517.184	6.06
517.383	6.21
517.582	6.35
517.782	6.48
517.981	6.49
518.18	6.38
518.379	6.48
518.578	6.43
518.777	6.46
518.976	6.27
519.176	6.41
519.375	6.47
519.574	6.44
519.773	6.45
519.972	6.43
520.171	6.35
520.37	6.53
520.569	6.55
520.768	6.62
520.967	6.71
521.166	6.81
521.365	6.65
521.564	6.75
521.762	6.8
521.961	6.83
522.16	6.9
522.359	6.99
522.558	6.91
522.757	6.91
522.956	6.97
523.154	6.94
523.353	7.01
523.552	7.09
523.751	7.09
523.949	6.96
524.148	6.98
524.347	7.04
524.546	7.07
524.744	7.07
524.943	7.16
525.142	7.12
525.34	7.2
525.539	7.26
525.737	7.28
525.936	7.2
526.135	7.17
526.333	7.16
526.532	7.13
526.73	7.11
526.929	7.05
527.127	7.03
527.326	7.03
527.524	6.88
527.723	6.78
527.921	6.77
528.12	6.76
528.318	6.83
528.516	6.83
528.715	6.84
528.913	6.9
529.112	6.95
529.31	6.92
529.508	6.96
529.707	7.02
529.905	7.07
530.103	7.1
530.301	7.11
530.5	7.15
530.698	7.16
530.896	7.17
531.094	7.19
531.293	7.24
531.491	7.28
531.689	7.31
531.887	7.38
532.085	7.43
532.283	7.4
532.481	7.47
532.68	7.4
532.878	7.42
533.076	7.48
533.274	7.42
533.472	7.49
533.67	7.49
533.868	7.48
534.066	7.54
534.264	7.47
534.462	7.49
534.66	7.56
534.858	7.67
535.056	7.74
535.253	7.67
535.451	7.72
535.649	7.6
535.847	7.82
536.045	7.77
536.243	7.72
536.441	7.92
536.638	7.99
536.836	7.92
537.034	7.99
537.232	7.98
537.43	8.09
537.627	8.18
537.825	8.27
538.023	8.12
538.22	8.37
538.418	8.41
538.616	8.4
538.813	8.46
539.011	8.59
539.209	8.57
539.406	8.55
539.604	8.75
539.801	8.85
539.999	8.94
540.196	8.97
540.394	8.93
540.591	9
540.789	8.98
540.986	8.91
541.184	8.87
541.381	8.91
541.579	8.93
541.776	8.87
541.974	8.85
542.171	8.83
542.368	8.83
542.566	8.82
542.763	8.82
542.96	8.84
543.158	8.94
543.355	9.04
543.552	9.09
543.75	9.22
543.947	9.14
544.144	9.14
544.341	9.21
544.539	9.32
544.736	9.38
544.933	9.4
545.13	9.44
545.327	9.39
545.524	9.41
545.722	9.49
545.919	9.45
546.116	9.72
546.313	9.82
546.51	9.95
546.707	9.91
546.904	9.97
547.101	10.05
547.298	10.17
547.495	10.23
547.692	10.17
547.889	10.12
548.086	10.25
548.283	10.21
548.48	10.36
548.677	10.25
548.874	10.38
549.07	10.46
549.267	10.52
549.464	10.4
549.661	10.66
549.858	10.92
550.055	11.21
550.251	11.14
550.448	11.25
550.645	11.27
550.842	11.44
551.038	11.53
551.235	11.38
551.432	11.35
551.628	11.54
551.825	11.49
552.022	11.41
552.218	11.33
552.415	11.47
552.612	11.62
552.808	11.47
553.005	11.46
553.201	11.46
553.398	11.59
553.594	11.69
553.791	11.78
553.987	11.84
554.184	12.08
554.38	12.13
554.577	12.12
554.773	12.13
554.97	12.43
555.166	12.62
555.362	12.67
555.559	12.89
555.755	13.01
555.952	13.15
556.148	13.23
556.344	12.99
556.541	12.99
556.737	13.15
556.933	13.19
557.129	13.06
557.326	13.04
557.522	13.19
557.718	13.18
557.914	13.19
558.11	13.14
558.307	13.16
558.503	13.48
558.699	13.72
558.895	13.84
559.091	13.92
559.287	14.06
559.483	14.16
559.679	14.33
559.876	14.5
560.072	14.57
560.268	14.77
560.464	14.8
560.66	14.89
560.856	14.85
561.052	14.98
561.247	15.01
561.443	15.2
561.639	15.34
561.835	15.27
562.031	15.16
562.227	15.27
562.423	15.38
562.619	15.53
562.815	15.6
563.01	15.71
563.206	15.58
563.402	15.67
563.598	15.57
563.793	15.62
563.989	15.66
564.185	15.63
564.381	15.89
564.576	15.81
564.772	15.8
564.968	15.88
565.163	15.85
565.359	15.7
565.555	15.74
565.75	15.84
565.946	15.91
566.141	15.87
566.337	16.1
566.532	16.11
566.728	16.4
566.923	16.56
567.119	16.5
567.314	16.5
567.51	16.79
567.705	16.87
567.901	16.92
568.096	17.02
568.292	17.36
568.487	17.52
568.682	17.51
568.878	17.28
569.073	17.44
569.268	17.55
569.464	17.7
569.659	17.76
569.854	17.96
570.05	18.04
570.245	18.05
570.44	17.98
570.635	18
570.831	17.98
571.026	18.22
571.221	18.25
571.416	18.25
571.611	18.35
571.806	18.5
572.002	18.41
572.197	18.51
572.392	18.43
572.587	18.47
572.782	18.53
572.977	18.77
573.172	18.8
573.367	18.71
573.562	18.84
573.757	18.76
573.952	18.86
574.147	19.06
574.342	19.22
574.537	19.43
574.732	19.53
574.927	19.51
575.121	19.5
575.316	19.52
575.511	19.57
575.706	19.66
575.901	19.8
576.096	20.03
576.29	20.15
576.485	20.12
576.68	20.34
576.875	20.35
577.069	20.49
577.264	20.47
577.459	20.7
577.654	20.89
577.848	21
578.043	21.37
578.238	21.06
578.432	20.97
578.627	21.17
578.821	21.13
579.016	21.21
579.21	21.41
579.405	21.55
579.6	21.64
579.794	21.63
579.989	21.54
580.183	21.39
580.378	21.53
580.572	21.75
580.766	21.63
580.961	21.62
581.155	21.84
581.35	21.95
581.544	21.83
581.738	21.72
581.933	22.15
582.127	22.54
582.321	22.53
582.516	22.39
582.71	22.24
582.904	22.34
583.099	22.35
583.293	22.45
583.487	22.47
583.681	22.91
583.875	22.86
584.07	22.71
584.264	22.53
584.458	22.56
584.652	22.8
584.846	22.67
585.04	22.72
585.234	22.84
585.428	22.75
585.623	22.81
585.817	22.43
586.011	22.49
586.205	22.78
586.399	23.02
586.593	23.12
586.787	23.12
586.981	23.29
587.174	23.46
587.368	23.25
587.562	23.41
587.756	23.36
587.95	23.71
588.144	23.86
588.338	24
588.532	23.95
588.725	24.04
588.919	24.18
589.113	24.49
589.307	24.45
589.501	24.79
589.694	24.9
589.888	24.98
590.082	25.11
590.275	25.15
590.469	25.02
590.663	24.74
590.856	24.92
591.05	25.04
591.244	25
591.437	25.08
591.631	24.97
591.824	24.78
592.018	24.81
592.212	24.86
592.405	24.69
592.599	24.67
592.792	24.86
592.986	24.89
593.179	25.09
593.372	25.25
593.566	25.25
593.759	25.49
593.953	25.7
594.146	25.6
594.339	25.57
594.533	25.89
594.726	26.07
594.92	26.28
595.113	26.25
595.306	26.06
595.499	25.81
595.693	25.87
595.886	25.91
596.079	25.94
596.272	25.98
596.466	25.91
596.659	25.88
596.852	25.71
597.045	25.82
597.238	25.85
597.431	25.96
597.624	26.03
597.818	25.98
598.011	25.98
598.204	26.06
598.397	26.22
598.59	26.15
598.783	26.24
598.976	26.31
599.169	26.13
599.362	26.18
599.555	26.43
599.748	26.81
599.941	26.87
600.134	26.8
600.326	27.06
600.519	27.18
600.712	27.4
600.905	27.34
601.098	27.61
601.291	27.98
601.483	27.96
601.676	27.94
601.869	27.76
602.062	28.16
602.255	28.12
602.447	27.87
602.64	27.77
602.833	27.93
603.025	27.75
603.218	27.52
603.411	27.35
603.603	27.32
603.796	27.27
603.989	27.35
604.181	27.22
604.374	27.43
604.566	27.6
604.759	27.7
604.951	27.8
605.144	28.03
605.336	28.23
605.529	28.17
605.721	28.34
605.914	28.28
606.106	28.35
606.299	28.38
606.491	28.36
606.683	28.24
606.876	28.09
607.068	27.85
607.26	28.07
607.453	28.24
607.645	28.4
607.837	28.44
608.03	28.64
608.222	28.56
608.414	28.71
608.606	28.76
608.799	28.88
608.991	28.88
609.183	29.05
609.375	28.82
609.567	28.59
609.759	28.73
609.952	28.6
610.144	28.64
610.336	28.67
610.528	28.56
610.72	28.48
610.912	28.44
611.104	28.74
611.296	28.7
611.488	28.84
611.68	29.01
611.872	28.78
612.064	29.22
612.256	29.16
612.448	29.3
612.64	29.15
612.832	29.4
613.023	29.45
613.215	29.34
613.407	29.44
613.599	29.67
613.791	29.86
613.983	30.03
614.174	29.66
614.366	29.76
614.558	29.81
614.75	29.95
614.941	29.85
615.133	30.01
615.325	30.25
615.516	30.25
615.708	30.04
615.9	29.71
616.091	29.62
616.283	29.81
616.475	29.8
616.666	29.75
616.858	30.1
617.049	29.92
617.241	29.77
617.432	29.59
617.624	29.94
617.815	30.04
618.007	30.2
618.198	30.86
618.39	30.95
618.581	31.11
618.773	31.03
618.964	31.01
619.155	31.41
619.347	31.5
619.538	31.64
619.729	31.29
619.921	31.2
620.112	31.27
620.303	31.3
620.494	31.24
620.686	31.15
620.877	31.26
621.068	31.03
621.259	31.01
621.451	31
621.642	31.11
621.833	31.22
622.024	31.54
622.215	31.66
622.406	31.17
622.597	31.22
622.788	31.34
622.98	31.51
623.171	31.72
623.362	31.72
623.553	31.95
623.744	31.79
623.935	31.99
624.126	31.69
624.317	31.55
624.508	31.85
624.698	31.78
624.889	32.01
625.08	32.09
625.271	32.13
625.462	32.04
625.653	32.02
625.844	32.18
626.034	32
626.225	32.19
626.416	32.14
626.607	31.98
626.798	32.23
626.988	31.9
627.179	31.97
627.37	31.8
627.56	31.8
627.751	31.84
627.942	31.87
628.132	31.71
628.323	31.77
628.514	31.96
628.704	31.97
628.895	31.81
629.085	32.01
629.276	31.75
629.466	31.86
629.657	31.94
629.847	31.85
630.038	31.8
630.228	32.03
630.419	32.07
630.609	32.04
630.8	32.02
630.99	31.96
631.181	32.08
631.371	32.16
631.561	32.28
631.752	32.56
631.942	32.37
632.132	32.37
632.323	32.32
632.513	32.42
632.703	32.72
632.893	32.86
633.084	33.1
633.274	32.86
633.464	32.95
633.654	32.7
633.844	32.44
634.034	32.45
634.225	32.45
634.415	32.73
634.605	32.76
634.795	32.3
634.985	32.31
635.175	32.32
635.365	32.47
635.555	32.6
635.745	32.9
635.935	33.25
636.125	33.24
636.315	33.38
636.505	33.29
636.695	32.97
636.885	33.21
637.075	33.22
637.265	33.33
637.455	33.24
637.644	33.27
637.834	33.38
638.024	33.07
638.214	33.65
638.404	33.59
638.593	33.84
638.783	33.99
638.973	34.34
639.163	34.4
639.352	34.25
639.542	34.38
639.732	34.56
639.921	34.66
640.111	34.87
640.301	34.49
640.49	34.36
640.68	34.23
640.87	34.47
641.059	34.16
641.249	34.3
641.438	34.4
641.628	34.18
641.817	33.78
642.007	33.73
642.196	33.47
642.386	33.84
642.575	34.15
642.764	33.86
642.954	33.71
643.143	33.98
643.333	33.95
643.522	34.06
643.711	34.46
643.901	34.65
644.09	34.93
644.279	35.53
644.469	35.22
644.658	35.34
644.847	35.69
645.036	35.61
645.226	35.48
645.415	35.27
645.604	34.9
645.793	34.84
645.982	34.86
646.171	34.51
646.361	34.27
646.55	34.74
646.739	34.78
646.928	34.62
647.117	34.65
647.306	34.7
647.495	34.84
647.684	35.27
647.873	35.57
648.062	35.82
648.251	36.14
648.44	36.09
648.629	35.84
648.818	35.69
649.007	35.37
649.196	35.63
649.384	35.93
649.573	35.88
649.762	35.54
649.951	35.3
650.14	35.18
650.328	35.27
650.517	35.42
650.706	35.45
650.895	35.7
651.083	36.29
651.272	36.15
651.461	35.95
651.65	36.58
651.838	36.27
652.027	36.17
652.216	35.89
652.404	35.77
652.593	35.77
652.781	35.7
652.97	35.61
653.158	35.4
653.347	35.82
653.535	35.72
653.724	34.99
653.912	35.64
654.101	35.74
654.289	36.19
654.478	36.23
654.666	36.44
654.855	36.42
655.043	36.35
655.231	36.36
655.42	36.19
655.608	36.54
655.796	36.74
655.985	36.86
656.173	37.04
656.361	36.72
656.55	36.79
656.738	36.39
656.926	36.29
657.114	36.69
657.302	36.78
657.491	36.32
657.679	35.96
657.867	36.2
658.055	36.16
658.243	35.92
658.431	36.03
658.619	35.89
658.807	36.11
658.996	36.37
659.184	36.19
659.372	36.32
659.56	36.59
659.748	36.4
659.936	36.36
660.124	36.41
660.311	36.55
660.499	36.65
660.687	36.67
660.875	36.73
661.063	36.79
661.251	36.6
661.439	36.32
661.627	36.4
661.814	36.74
662.002	36.58
662.19	36.51
662.378	36.24
662.565	36.51
662.753	36.4
662.941	36.43
663.129	36.31
663.316	36.93
663.504	37.15
663.692	37.11
663.879	37.08
664.067	37.26
664.254	37.22
664.442	37.46
664.63	37.04
664.817	37.46
665.005	37.31
665.192	37.51
665.38	37.27
665.567	37.26
665.755	37.51
665.942	37.58
666.13	37.85
666.317	38.11
666.504	38.51
666.692	38.98
666.879	38.91
667.067	38.6
667.254	38.27
667.441	38.32
667.629	38.24
667.816	37.99
668.003	37.86
668.19	37.8
668.378	37.94
668.565	37.95
668.752	37.71
668.939	37.74
669.127	37.95
669.314	38.15
669.501	37.89
669.688	38.36
669.875	38.7
670.062	39.01
670.249	39.24
670.436	38.97
670.623	38.61
670.81	38.23
670.997	38.22
671.184	38.62
671.371	39.11
671.558	39.32
671.745	39.44
671.932	39.09
672.119	38.83
672.306	38.63
672.493	38.77
672.68	39.03
672.867	39.82
673.054	39.8
673.24	39.54
673.427	39.36
673.614	39.58
673.801	39.38
673.988	39.96
674.174	40.4
674.361	40.5
674.548	40.07
674.734	40.37
674.921	39.87
675.108	40.44
675.294	40.09
675.481	39.84
675.668	39.6
675.854	39.21
676.041	38.81
676.227	38.71
676.414	38.58
676.601	39.49
676.787	39.03
676.974	39.45
677.16	39.1
677.347	39.17
677.533	39.11
677.719	38.92
677.906	38.99
678.092	38.99
678.279	38.58
678.465	38.41
678.651	38.3
678.838	38.78
679.024	38.56
679.21	38.38
679.397	38.71
679.583	39.03
679.769	39.26
679.955	39.22
680.142	39.42
680.328	39.85
680.514	40.03
680.7	39.6
680.886	39.7
681.073	39.69
681.259	39.55
681.445	39.61
681.631	39.42
681.817	39.13
682.003	39.41
682.189	39.35
682.375	39.01
682.561	39.02
682.747	39.52
682.933	39.27
683.119	39.31
683.305	39.4
683.491	39.65
683.677	39.71
683.863	40.28
684.049	40.09
684.235	40.03
684.42	40.28
684.606	40.29
684.792	40.32
684.978	40.37
685.164	40.55
685.349	40.72
685.535	40.91
685.721	40.43
685.907	40.09
686.092	40.15
686.278	40.1
686.464	40
686.649	40.59
686.835	40.26
687.021	40.37
687.206	40.7
687.392	40.32
687.577	40.14
687.763	40.7
687.948	40.73
688.134	40.78
688.319	41.06
688.505	41.6
688.69	41.22
688.876	41.41
689.061	41.58
689.247	41.36
689.432	41.7
689.618	41.21
689.803	41.82
689.988	42.24
690.174	42.33
690.359	42.45
690.544	41.76
690.73	42.17
690.915	42.09
691.1	41.83
691.285	41.7
691.471	42.12
691.656	42.65
691.841	41.7
692.026	41.55
692.211	41.78
692.396	41.49
692.582	42.34
692.767	42.24
692.952	42.29
693.137	41.83
693.322	41.91
693.507	41.82
693.692	41.96
693.877	42.4
694.062	42.54
694.247	42.19
694.432	42.52
694.617	42.62
694.802	42.61
694.987	42.71
695.172	43.49
695.357	43.31
695.541	43.29
695.726	43.14
695.911	43.43
696.096	43.35
696.281	43.74
696.466	43.4
696.65	42.78
696.835	42.23
697.02	42.06
697.204	41.74
697.389	41.83
697.574	41.44
697.759	41.7
697.943	41.65
698.128	41.54
698.312	41.05
698.497	40.94
698.682	41.08
698.866	41.35
699.051	41.36
699.235	41.47
699.42	41.73
699.604	42.08
699.789	41.72
699.973	41.49
700.158	41.64
700.342	41.89
700.527	42.55
700.711	42.86
700.895	42.72
701.08	43.07
701.264	43.35
701.448	43.33
701.633	43.31
701.817	43.29
702.001	43.89
702.186	43.91
702.37	44.48
702.554	43.64
702.738	43.38
702.923	43.88
703.107	43.8
703.291	43.71
703.475	43.44
703.659	43.19
703.843	43.54
704.027	42.53
704.212	42.66
704.396	42.55
704.58	42.59
704.764	42.95
704.948	42.23
705.132	41.81
705.316	41.36
705.5	41.62
705.684	41.8
705.868	41.52
706.052	42.31
706.235	42.11
706.419	42.33
706.603	43.02
706.787	42.61
706.971	43.09
707.155	42.95
707.339	43.53
707.522	43.5
707.706	43.87
707.89	44.08
708.074	43.68
708.257	43.56
708.441	43.93
708.625	43.88
708.808	44.02
708.992	44.11
709.176	44.27
709.359	43.76
709.543	43.77
709.727	43.83
709.91	43.8
710.094	44.19
710.277	44.69
710.461	43.52
710.644	43.13
710.828	42.89
711.011	42.75
711.195	42.92
711.378	43.33
711.562	43.2
711.745	43.02
711.928	43.16
712.112	42.66
712.295	42.5
712.478	43.02
712.662	43.64
712.845	43.5
713.028	43.62
713.212	43.75
713.395	43.85
713.578	44.2
713.761	44.13
713.945	43.95
714.128	44.45
714.311	44.65
714.494	44.78
714.677	44.83
714.86	45.06
715.043	45.27
715.227	45.28
715.41	45.07
715.593	45.05
715.776	45.22
715.959	45.51
716.142	45.62
716.325	45.04
716.508	44.68
716.691	44.73
716.874	44.73
717.057	44.39
717.239	44.65
717.422	44.42
717.605	44.22
717.788	43.86
717.971	44.22
718.154	44.3
718.337	45.08
718.519	45.82
718.702	45.79
718.885	45.32
719.068	45.23
719.25	44.93
719.433	44.76
719.616	45.35
719.798	44.95
719.981	45.02
720.164	44.61
720.346	43.75
720.529	44.04
720.712	43.71
720.894	44.11
721.077	44.25
721.259	44.52
721.442	45.53
721.624	45.64
721.807	46.51
721.989	45.79
722.172	46.79
722.354	47.34
722.537	46.97
722.719	46.74
722.901	47.11
723.084	47.93
723.266	47.63
723.448	47.39
723.631	47.46
723.813	47.07
723.995	47.22
724.178	46.34
724.36	46.05
724.542	45.88
724.724	46.26
724.907	46.65
725.089	45.14
725.271	45.83
725.453	45.38
725.635	44.78
725.817	46.23
725.999	46.94
726.181	47.49
726.364	47.29
726.546	47.91
726.728	47.7
726.91	47.32
727.092	48.9
727.274	48.34
727.456	48.89
727.638	48.86
727.819	47.81
728.001	47.02
728.183	46.73
728.365	47.09
728.547	46.43
728.729	46.7
728.911	47.03
729.093	46.2
729.274	45.54
729.456	45.42
729.638	45.52
729.82	45.78
730.001	45.65
730.183	45.41
730.365	45.16
730.546	45.42
730.728	44.7
730.91	44.89
731.091	45.58
731.273	45.53
731.455	45.99
731.636	46.26
731.818	46.7
731.999	46.89
732.181	47.03
732.362	47.36
732.544	47.34
732.725	48.1
732.907	47.64
733.088	48.07
733.27	49.53
733.451	48.48
733.633	49.2
733.814	48.16
733.995	48.71
734.177	49.43
734.358	49.27
734.539	49.14
734.721	49.09
734.902	48.86
735.083	47.59
735.264	47.11
735.446	47.71
735.627	46.33
735.808	46.6
735.989	46.75
736.17	46.33
736.351	45.82
736.533	45.26
736.714	44.77
736.895	45.12
737.076	45.53
737.257	45.25
737.438	44.57
737.619	45.83
737.8	45.99
737.981	45.85
738.162	46.09
738.343	47.09
738.524	47.43
738.705	47.54
738.886	47.22
739.067	46.99
739.247	47.07
739.428	47.39
739.609	46.19
739.79	47.08
739.971	45.6
740.151	45.14
740.332	45.11
740.513	45.02
740.694	46
740.874	46.07
741.055	45.71
741.236	45.63
741.417	46.24
741.597	46.83
741.778	46.44
741.958	47.25
742.139	48.03
742.32	47.69
742.5	48.56
742.681	48.35
742.861	48.28
743.042	49.78
743.222	50.59
743.403	50.28
743.583	50.57
743.764	50.45
743.944	50.32
744.124	49.98
744.305	49.65
744.485	49.48
744.666	49.01
744.846	49.85
745.026	49.91
745.207	48.89
745.387	49.22
745.567	49.1
745.747	48.26
745.928	48.27
746.108	48.06
746.288	47.49
746.468	46.34
746.648	46.34
746.829	45.61
747.009	44.84
747.189	45.22
747.369	44.73
747.549	44.72
747.729	45.76
747.909	45.87
748.089	46.24
748.269	46.59
748.449	48.18
748.629	48.49
748.809	48.51
748.989	48.45
749.169	49.06
749.349	49.4
749.529	49.82
749.709	48.77
749.889	49.2
750.068	47.71
750.248	48.44
750.428	48.4
750.608	48.29
750.788	49.32
750.967	49.05
751.147	48.13
751.327	47.73
751.507	46.62
751.686	46.83
751.866	47.84
752.046	48.86
752.225	48.75
752.405	48.99
752.585	49.34
752.764	48.17
752.944	48.17
753.123	48.34
753.303	48.86
753.482	49.94
753.662	49.71
753.841	48.88
754.021	49.68
754.2	50.31
754.38	49.66
754.559	49.2
754.739	49
754.918	48.94
755.097	48.59
755.277	48.48
755.456	47.9
755.635	48.71
755.815	48.17
755.994	47.1
756.173	46.92
756.352	46.05
756.532	45.33
756.711	46.49
756.89	45.95
757.069	47
757.248	46.75
757.427	46.45
757.607	46.03
757.786	46.39
757.965	46.08
758.144	46.03
758.323	47.56
758.502	48.43
758.681	47.99
758.86	49.13
759.039	48.74
759.218	49.37
759.397	48.98
759.576	49.04
759.755	48.11
759.934	48.87
760.113	48.84
760.291	47.24
760.47	47.52
760.649	47.33
760.828	47.15
761.007	47.11
761.186	45.86
761.364	46.12
761.543	46.17
761.722	46.76
761.901	45.77
762.079	46.17
762.258	46.4
762.437	46.42
762.615	46.1
762.794	46.57
762.972	46.24
763.151	47.01
763.33	46.91
763.508	46.96
763.687	46.66
763.865	46.83
764.044	46.4
764.222	46.54
764.401	46.2
764.579	45.92
764.758	45.17
764.936	45.82
765.114	45.48
765.293	45.52
765.471	46.11
765.65	46.9
765.828	47.78
766.006	48.25
766.184	48.64
766.363	48.6
766.541	48.88
766.719	50.23
766.898	49.91
767.076	50.24
767.254	50.92
767.432	51.56
767.61	51.12
767.788	50.95
767.967	50.15
768.145	49.59
768.323	49.77
768.501	50.21
768.679	49.74
768.857	48.78
769.035	50.16
769.213	50.82
769.391	48.99
769.569	49.54
769.747	49.98
769.925	50.78
770.103	50.23
770.281	50.28
770.459	51.08
770.636	50.69
770.814	51.15
770.992	49.85
771.17	48.61
771.348	49.48
771.525	50.09
771.703	48.85
771.881	48.92
772.059	51.22
772.236	51.12
772.414	50.53
772.592	50.94
772.769	52.22
772.947	51.84
773.125	52.19
773.302	51.51
773.48	50.73
773.657	52.33
773.835	50.98
774.013	50.13
774.19	51.34
774.368	50.57
774.545	51.29
774.723	51.31
774.9	53.2
775.077	53.38
775.255	54.11
775.432	54
775.61	53.72
775.787	54.13
775.964	53.32
776.142	54.26
776.319	56.58
776.496	54.73
776.674	52.83
776.851	50.83
777.028	50.55
777.205	51.15
777.382	51.67
777.56	50.47
777.737	52.51
777.914	52.71
778.091	50.81
778.268	48.83
778.445	48.65
778.622	50.68
778.8	50.58
778.977	50.53
779.154	54.98
779.331	54.29
779.508	56.27
779.685	55.05
779.862	55.59
780.038	55.49
780.215	57.81
780.392	58.24
780.569	57.53
780.746	58.93
780.923	59.93
781.1	54.79
781.277	54.67
781.453	53.13
781.63	51.35
781.807	51.28
781.984	51.31
782.16	50.5
782.337	51.48
782.514	51.9
782.691	53.52
782.867	53.14
783.044	51.64
783.221	54.42
783.397	55.09
783.574	56.79
783.75	58.53
783.927	60.14
784.103	60.38
784.28	61.46
784.456	59.91
784.633	56.75
784.809	56.11
784.986	55.72
785.162	52.5
785.339	51.45
785.515	51.01
785.692	49.22
785.868	48.91
786.044	47.95
786.221	45.58
786.397	47.04
786.573	48.06
786.749	46.93
786.926	50.04
787.102	49.78
787.278	49.34
787.454	49.39
787.631	50.39
787.807	48.29
787.983	46.98
788.159	47.04
788.335	47.08
788.511	47.88
788.687	49
788.863	47.97
789.039	48.82
789.216	49.86
789.392	50.08
789.568	50.22
789.744	51.88
789.919	52.26
790.095	52.95
790.271	54.05
790.447	53.92
790.623	54.11
790.799	55.32
790.975	54.24
791.151	54.21
791.327	55.05
791.502	55
791.678	54.16
791.854	55.7
792.03	57.15
792.205	57.57
792.381	57.66
792.557	57.96
792.733	57.02
792.908	57.28
793.084	56.76
793.259	56.09
793.435	55.94
793.611	56.91
793.786	56.14
793.962	53.69
794.137	52.92
794.313	50.77
794.488	51.65
794.664	52.14
794.839	52.06
795.015	53.79
795.19	54.3
795.366	55.11
795.541	54.28
795.716	53.5
795.892	55.75
796.067	54.35
796.242	55.67
796.418	54.31
796.593	53.37
796.768	54.34
796.944	53.92
797.119	52.39
797.294	51.86
797.469	54.15
797.644	55.01
797.82	54.12
797.995	53.82
798.17	51.66
798.345	51.33
798.52	50.74
798.695	51.59
798.87	51.1
799.045	53.3
799.22	54.96
799.395	54.21
799.57	54.97
799.745	55.68
799.92	57.36
800.095	61.08
800.27	63.03
800.445	63.94
800.62	62.35
800.795	64.57
800.97	62.95
801.145	59.64
801.319	60.15
801.494	60.88
801.669	60.68
801.844	61.61
802.018	58.89
802.193	58.21
802.368	57.12
802.543	58.11
802.717	56.75
802.892	58.66
803.067	60.28
803.241	58.4
803.416	59.71
803.59	57.5
803.765	56.45
803.94	59.02
804.114	57.67
804.289	59.65
804.463	58.8
804.638	57.27
804.812	57.44
804.986	55.05
805.161	53.57
805.335	51.09
805.51	52.02
805.684	49.16
805.858	47.07
806.033	46.62
806.207	46.66
806.381	48.72
806.556	48.89
806.73	46.46
806.904	48
807.078	47.81
807.253	47.94
807.427	48.01
807.601	48.59
807.775	49.88
807.949	52.84
808.123	52.58
808.298	52.95
808.472	53
808.646	53.15
808.82	54.09
808.994	57.44
809.168	58.45
809.342	60.85
809.516	64.26
809.69	65.32
809.864	62.95
810.038	66.7
810.212	66.69
810.385	67.49
810.559	69.98
810.733	69.86
810.907	67.13
811.081	65.49
811.255	63.34
811.428	60.5
811.602	60.3
811.776	61.88
811.95	58.96
812.123	57.55
812.297	58.22
812.471	59.32
812.644	56.5
812.818	59.95
812.992	60.78
813.165	60.88
813.339	59.6
813.512	56.24
813.686	55.85
813.86	55.14
814.033	57.01
814.207	56.71
814.38	52.04
814.554	54.3
814.727	51.71
814.9	51.28
815.074	52.05
815.247	54.12
815.421	54.7
815.594	57.65
815.767	57.6
815.941	55.45
816.114	55.7
816.287	60.14
816.46	59.26
816.634	58.22
816.807	61.93
816.98	61.53
817.153	61.34
817.327	63.33
817.5	58.16
817.673	60.45
817.846	60.94
818.019	60.22
818.192	58.85
818.365	57.38
818.538	58.84
818.711	53.49
818.884	53.11
819.057	52.61
819.23	53.1
819.403	54.43
819.576	51.82
819.749	51.39
819.922	51.31
820.095	50.25
820.268	52.7
820.441	53.16
820.614	52.85
820.786	51.48
820.959	51.63
821.132	52.34
821.305	50.91
821.477	49.43
821.65	49
821.823	48.83
821.996	48.18
822.168	48
822.341	47.3
822.514	47.26
822.686	47.31
822.859	47.17
823.031	46.39
823.204	46.87
823.376	47.77
823.549	47.63
823.722	47.08
823.894	47.65
824.067	46.99
824.239	47.65
824.411	47.94
824.584	48.27
824.756	48.45
824.929	48.36
825.101	48.38
825.273	48.51
825.446	48.58
825.618	48.93
825.79	48.76
825.963	49.34
826.135	48.72
826.307	49.36
826.479	49.61
826.652	49.14
826.824	49.14
826.996	48.79
827.168	48.56
827.34	49.02
827.512	49.5
827.684	49.39
827.856	49.74
828.029	50.27
828.201	50.14
828.373	49.05
828.545	49.44
828.717	50.89
828.889	51.24
829.061	51.05
829.232	51.57
829.404	51.43
829.576	52.03
829.748	51.2
829.92	52.39
830.092	52.99
830.264	54.47
830.436	55.36
830.607	54.11
830.779	56.04
830.951	55.09
831.123	54.07
831.294	54.2
831.466	54.04
831.638	55.51
831.809	53.39
831.981	53.98
832.153	55.82
832.324	55.08
832.496	55.72
832.667	55.54
832.839	56.87
833.011	55.49
833.182	56.12
833.354	55.6
833.525	56.83
833.697	56.76
833.868	53.21
834.039	52.17
834.211	51.92
834.382	51.55
834.554	52.22
834.725	51.08
834.896	50.5
835.068	49.52
835.239	49.33
835.41	49.66
835.581	49.93
835.753	51.04
835.924	50.7
836.095	52.21
836.266	52.99
836.438	50.65
836.609	51.56
836.78	54
836.951	55.67
837.122	55.59
837.293	53.42
837.464	53.53
837.635	54.81
837.806	54.22
837.977	53.86
838.148	55.73
838.319	57.15
838.49	58.18
838.661	58.66
838.832	58.16
839.003	58.38
839.174	59.19
839.345	62.29
839.516	62.99
839.687	66.32
839.857	67.68
840.028	66.87
840.199	66.78
840.37	65.93
840.54	67.43
840.711	66.01
840.882	67.39
841.053	68.14
841.223	65.86
841.394	63.91
841.564	66.08
841.735	62.54
841.906	60.23
842.076	54.95
842.247	59.74
842.417	58.7
842.588	64.41
842.758	66.66
842.929	66.44
843.099	68.89
843.27	69.4
843.44	66.87
843.611	67.44
843.781	62.95
843.951	68.84
844.122	69.2
844.292	68.69
844.462	65.38
844.633	63.69
844.803	65.02
844.973	63.74
845.144	66.13
845.314	61.72
845.484	59.54
845.654	66.57
845.824	68.87
845.995	62.75
846.165	65.06
846.335	65.34
846.505	68.31
846.675	69.57
846.845	64.33
847.015	64.02
847.185	66.86
847.355	74.1
847.525	76.19
847.695	78.9
847.865	81.63
848.035	87.49
848.205	83.53
848.375	84.61
848.545	72.31
848.715	77.75
848.884	75.62
849.054	77.98
849.224	78.33
849.394	75.14
849.564	71.87
849.733	72.11
849.903	67.92
850.073	75.59
850.243	71.46
850.412	70.64
850.582	74.18
850.752	79.7
850.921	76.5
851.091	75.86
851.26	83.36
851.43	79.12
851.599	77.4
851.769	79.07
851.939	75.29
852.108	88.06
852.278	100.29
852.447	90.64
852.616	91.27
852.786	94.92
852.955	91.54
853.125	88.91
853.294	89.12
853.463	88.91
853.633	94.1
853.802	90.86
853.971	86.69
854.141	87.96
854.31	85.82
854.479	78.28
854.648	76.79
854.818	76.07
854.987	74.51
855.156	84.86
855.325	90.16
855.494	89.05
855.663	96.98
855.832	86.76
856.001	85.72
856.171	97.69
856.34	103.08
856.509	99.43
856.678	115.99
856.847	115.71
857.016	103.16
857.185	98.4
857.353	100.6
857.522	100.08
857.691	103.1
857.86	108.54
858.029	98.36
858.198	107.08
858.367	123.58
858.535	115.69
858.704	120.98
858.873	117.45
859.042	122.16
859.21	132.53
859.379	128.34
859.548	124.04
859.717	121.3
859.885	130.25
860.054	123.76
860.222	106.57
860.391	115.94
860.56	102.3
860.728	110.3
860.897	109
861.065	89.33
861.234	88.59
861.402	93.13
861.571	85.51
861.739	89.68
861.908	92.19
862.076	103.24
862.244	94.25
862.413	96.14
862.581	96.53
862.749	89.7
862.918	90.76
863.086	99.53
863.254	101.79
863.423	110.19
863.591	108.38
863.759	93.02
863.927	90.72
864.096	90.83
864.264	93.43
864.432	83.59
864.6	94.79
864.768	97.92
864.936	102.22
865.104	92.51
865.272	100.02
865.44	96.44
865.608	96.59
865.776	101.08
865.944	105.7
866.112	106.17
866.28	120.9
866.448	118.19
866.616	109.09
866.784	100.78
866.952	105.29
867.12	97.24
867.288	99.27
867.455	101.54
867.623	98.45
867.791	98.53
867.959	92.87
868.127	76.86
868.294	75.46
868.462	73.51
868.63	68.35
868.797	64.41
868.965	62.65
869.133	58.63
869.3	55.09
869.468	57.96
869.636	45.18
869.803	54.49
869.971	72.65
870.138	74.61
870.306	67.56
870.473	73.48
870.641	77.72
870.808	82.23
870.975	87.34
871.143	91.64
871.31	93.81
871.478	105.12
871.645	98.96
871.812	88.02
871.98	87.95
872.147	99.75
872.314	94.94
872.482	84.42
872.649	76.51
872.816	77.68
872.983	77.57
873.15	68.77
873.318	77.6
873.485	82.47
873.652	86.12
873.819	86.73
873.986	90.31
874.153	94.41
874.32	107.67
874.487	119.66
874.654	114.16
874.821	118.09
874.988	118.42
875.155	104.71
875.322	100.91
875.489	98.79
875.656	94.51
875.823	82.86
875.99	74.24
876.157	75.34
876.324	75.39
876.49	77.2
876.657	72.9
876.824	78.73
876.991	85.07
877.157	77.56
877.324	87.31
877.491	93.42
877.658	98.22
877.824	97.34
877.991	91.66
878.157	90.42
878.324	82.79
878.491	89.96
878.657	92.22
878.824	86.64
878.99	89.08
879.157	84.32
879.323	76.79
879.49	73.02
879.656	80.36
879.823	81.61
879.989	79.63
880.156	80.5
880.322	72.18
880.488	66.82
880.655	71.73
880.821	71.45
880.987	67.41
881.154	65.94
881.32	65.6
881.486	60.13
881.652	58.17
881.819	57.19
881.985	56.21
882.151	57.51
882.317	56.14
882.483	51.5
882.649	53.39
882.816	56.1
882.982	56.56
883.148	56.08
883.314	53.91
883.48	55.25
883.646	54.92
883.812	54.56
883.978	55.61
884.144	55.94
884.31	54.71
884.476	54.46
884.642	54.16
884.807	55.12
884.973	56.54
885.139	58.26
885.305	58.09
885.471	58.5
885.637	59.44
885.802	58.81
885.968	59.44
886.134	62.04
886.3	60.93
886.465	60.98
886.631	60.55
886.797	60.86
886.962	61.43
887.128	61.08
887.293	59.9
887.459	63.59
887.625	64.75
887.79	66.22
887.956	65.35
888.121	69.88
888.287	68.23
888.452	69.55
888.618	69.44
888.783	72.69
