Data from LC_194_Reflection_3.txt Node
Date: Tue Nov 17 13:43:45 EST 2015
User: robert
Spectrometer: USB4E03001
Autoset integration time: false
Trigger mode: 4
Integration Time (sec): 1.000000E-1
Scans to average: 15
Electric dark correction enabled: true
Nonlinearity correction enabled: false
Boxcar width: 5
Stray light correction enabled: false
XAxis mode: Wavelengths
Stop averaging: false
Number of Pixels in Spectrum: 3648
>>>>>Begin Spectral Data<<<<<
177.566	311.43
177.785	444.64
178.005	-2351.12
178.225	584.58
178.445	-914.86
178.665	-347.29
178.885	-54.73
179.105	-489.96
179.324	1231.46
179.544	1125.25
179.764	388.56
179.984	219.88
180.204	287.66
180.423	703.34
180.643	976.57
180.863	-3688.12
181.083	-4596.17
181.302	905.94
181.522	452.79
181.742	1395.95
181.961	18645.1
182.181	-1061.03
182.401	-240.91
182.621	-670.98
182.84	-642.75
183.06	-1972.84
183.279	2290.08
183.499	-15992.44
183.719	-1656.93
183.938	-502.68
184.158	-661.77
184.377	-828.54
184.597	-768.99
184.816	691.97
185.036	652.49
185.256	735.76
185.475	417.13
185.695	543.65
185.914	382.19
186.134	392.56
186.353	236.71
186.572	307.77
186.792	250.22
187.011	225.46
187.231	687.31
187.45	2574.06
187.67	490.52
187.889	574.91
188.108	485.66
188.328	477.4
188.547	479.9
188.766	-2084.53
188.986	1782.94
189.205	519.97
189.424	697.77
189.644	573.46
189.863	425.87
190.082	465.54
190.302	534.81
190.521	651.34
190.74	14223.38
190.959	2013.82
191.178	528.18
191.398	488.67
191.617	1429.37
191.836	856.49
192.055	526.76
192.274	-1313.3
192.494	-733.74
192.713	-2243.61
192.932	-1113.66
193.151	2162.04
193.37	37553.97
193.589	-1324000
193.808	32907.87
194.027	-4241.95
194.246	-2035.47
194.465	8632.87
194.685	929.35
194.904	731.06
195.123	118512.5
195.342	2750.19
195.561	840.08
195.78	611.92
195.999	761.11
196.218	487.57
196.436	403.95
196.655	295.71
196.874	343.43
197.093	369.67
197.312	283.11
197.531	244.65
197.75	236.65
197.969	249.58
198.188	273.69
198.407	268.42
198.625	337.64
198.844	334.34
199.063	307.89
199.282	335.97
199.501	305.28
199.719	498.01
199.938	540.14
200.157	633.31
200.376	2001.96
200.594	949.53
200.813	557.06
201.032	736.57
201.251	700.83
201.469	9643.03
201.688	2988.44
201.907	-13836.86
202.125	3692.15
202.344	3209.3
202.563	2686.65
202.781	1934.21
203	-2042.94
203.218	-432.81
203.437	-646.55
203.656	-476.48
203.874	-1023.93
204.093	-1450.69
204.311	-1416.58
204.53	28051.32
204.748	-1334.01
204.967	5483.89
205.185	1029.01
205.404	496.79
205.622	485.97
205.841	383.73
206.059	441.28
206.278	321.71
206.496	305.53
206.715	288.09
206.933	360.96
207.151	303.19
207.37	286
207.588	335.26
207.806	465.4
208.025	386.63
208.243	374.84
208.461	423.48
208.68	831.75
208.898	-1274.63
209.116	-2342.18
209.335	4540.79
209.553	-3012.33
209.771	1291.73
209.989	459.76
210.208	531.45
210.426	456.56
210.644	424.22
210.862	284.87
211.081	195.89
211.299	126.98
211.517	160.43
211.735	177.58
211.953	198.57
212.171	216.21
212.39	537.84
212.608	519.79
212.826	781.09
213.044	810.44
213.262	785.27
213.48	-31761.19
213.698	-1884.72
213.916	791.45
214.134	-1429.01
214.352	-346.6
214.57	-419.96
214.788	4084.54
215.006	1400.09
215.224	1408.61
215.442	883.3
215.66	961.82
215.878	657.89
216.096	281.88
216.314	326.77
216.532	220.01
216.75	184.02
216.968	209.57
217.185	230.75
217.403	243.92
217.621	216.34
217.839	257.46
218.057	270.32
218.275	263.58
218.492	315.48
218.71	351.36
218.928	405.03
219.146	419.31
219.363	416.26
219.581	326.32
219.799	329.03
220.017	380.13
220.234	366.16
220.452	290.15
220.67	267.52
220.887	248.12
221.105	238.48
221.323	210.42
221.54	206.43
221.758	183.22
221.976	181.38
222.193	159.74
222.411	138.21
222.629	133.75
222.846	155.36
223.064	154.89
223.281	169.21
223.499	171.7
223.716	186
223.934	193.86
224.151	200.66
224.369	182.26
224.586	211.63
224.804	193.72
225.021	195.11
225.239	181.63
225.456	174.68
225.674	157.48
225.891	143.5
226.108	158.4
226.326	147.09
226.543	123.61
226.76	123.59
226.978	104.74
227.195	96.4
227.413	78.57
227.63	74.67
227.847	63.71
228.064	58.64
228.282	51.24
228.499	45.9
228.716	41.23
228.934	43.87
229.151	40.77
229.368	36.38
229.585	37.69
229.802	39.37
230.02	38.62
230.237	40.77
230.454	43.55
230.671	48.24
230.888	46.95
231.105	48.97
231.323	49.8
231.54	57.07
231.757	65.63
231.974	66.64
232.191	65.7
232.408	67.23
232.625	67.1
232.842	66.77
233.059	65.97
233.276	66.94
233.493	68.75
233.71	64.09
233.927	55.82
234.144	55.3
234.361	56.86
234.578	62.38
234.795	62.14
235.012	59.81
235.229	59.01
235.446	56.92
235.663	66.9
235.879	70.67
236.096	77.33
236.313	74.45
236.53	73.46
236.747	71.18
236.964	65.78
237.181	63.54
237.397	68.82
237.614	68.15
237.831	70.65
238.048	62.34
238.264	55.79
238.481	48.92
238.698	53.67
238.915	52.78
239.131	50.23
239.348	55.12
239.565	55.81
239.781	59.7
239.998	57.52
240.215	52.71
240.431	50.68
240.648	47.92
240.865	48.22
241.081	45.09
241.298	41.62
241.514	40.43
241.731	36.91
241.947	34.52
242.164	28.6
242.38	24.74
242.597	24.52
242.814	25.39
243.03	24.44
243.246	22.88
243.463	22.15
243.679	21.97
243.896	21.53
244.112	19.99
244.329	21.8
244.545	23.82
244.762	26.15
244.978	26.52
245.194	25.2
245.411	29.91
245.627	31.75
245.843	30.01
246.06	27.88
246.276	24.36
246.492	23.72
246.709	22.07
246.925	20.9
247.141	20.89
247.357	20.22
247.574	20.01
247.79	18.2
248.006	16.99
248.222	17.83
248.439	18.59
248.655	18.2
248.871	18.87
249.087	19.49
249.303	20.82
249.519	21.01
249.736	22.98
249.952	23.87
250.168	28.79
250.384	31.23
250.6	30.71
250.816	30.59
251.032	34.01
251.248	34.12
251.464	31.65
251.68	29.45
251.896	29.12
252.112	25.23
252.328	25.36
252.544	22.93
252.76	22.1
252.976	22.66
253.192	22.96
253.408	24.01
253.624	21.93
253.84	22.55
254.056	23.14
254.272	23.11
254.487	26.34
254.703	24.41
254.919	25.79
255.135	26.43
255.351	25.62
255.567	27.45
255.782	24.08
255.998	26.06
256.214	27.84
256.43	25.78
256.646	27.74
256.861	25.88
257.077	25.53
257.293	24.74
257.508	26.24
257.724	25.88
257.94	23.4
258.155	23.78
258.371	23.67
258.587	20.05
258.802	19.99
259.018	18.08
259.234	17.87
259.449	17.73
259.665	16.66
259.88	16.09
260.096	16.44
260.312	16.68
260.527	16.03
260.743	16.11
260.958	16.89
261.174	17.16
261.389	16.76
261.605	17.37
261.82	17.84
262.036	17.81
262.251	16.85
262.466	15.73
262.682	16.04
262.897	17.8
263.113	15.35
263.328	16.54
263.543	18.93
263.759	21.73
263.974	21.68
264.189	21.03
264.405	23.65
264.62	26.41
264.835	29.46
265.051	28.89
265.266	29.31
265.481	32.16
265.696	31.32
265.912	29.26
266.127	27.06
266.342	26.91
266.557	25.32
266.773	23.75
266.988	23.39
267.203	22.18
267.418	22.82
267.633	20.9
267.848	19.57
268.064	17.11
268.279	16.07
268.494	15.77
268.709	15.6
268.924	17.2
269.139	17.38
269.354	17.58
269.569	16.82
269.784	14.68
269.999	16.24
270.214	16.8
270.429	18.76
270.644	18.29
270.859	19.11
271.074	18.65
271.289	19.22
271.504	17.71
271.719	16.74
271.934	16.02
272.149	16.66
272.363	17.27
272.578	17.28
272.793	17.58
273.008	17.7
273.223	18.13
273.438	18.15
273.653	17.41
273.867	17.74
274.082	17.22
274.297	18.22
274.512	19.16
274.726	17.94
274.941	17.23
275.156	17.53
275.371	17.83
275.585	18.31
275.8	19.2
276.015	19.19
276.229	19.32
276.444	19.42
276.659	19.59
276.873	18.68
277.088	19.19
277.302	20.86
277.517	20.02
277.732	19.92
277.946	18.62
278.161	18.21
278.375	18.2
278.59	19.64
278.804	19.81
279.019	19.77
279.233	20.69
279.448	19.78
279.662	19.15
279.877	19.5
280.091	19.46
280.306	19
280.52	19.02
280.735	18.69
280.949	17.06
281.163	16.51
281.378	16.72
281.592	16.16
281.806	16.48
282.021	15.7
282.235	14.76
282.449	15.37
282.664	16.48
282.878	17.24
283.092	17.43
283.307	18.04
283.521	18.12
283.735	16.89
283.949	15.94
284.164	15.41
284.378	15.1
284.592	15.28
284.806	15.43
285.02	14.19
285.234	12.52
285.449	12
285.663	12.07
285.877	12.99
286.091	13.72
286.305	14.87
286.519	14.79
286.733	15.26
286.947	15.4
287.161	14.46
287.375	15.42
287.589	16.2
287.803	16.34
288.017	15.81
288.231	15.69
288.445	15.5
288.659	14.98
288.873	15.1
289.087	15.79
289.301	16.53
289.515	17.54
289.729	17.51
289.943	17.13
290.157	17.05
290.371	17.33
290.584	17.54
290.798	17.58
291.012	18.32
291.226	19.12
291.44	18.87
291.654	18.7
291.867	17.85
292.081	17.18
292.295	17.96
292.509	17.48
292.722	18.32
292.936	17.24
293.15	17.93
293.364	17.68
293.577	17.07
293.791	15.64
294.005	16.24
294.218	17.08
294.432	17.75
294.645	16.51
294.859	16.92
295.073	16.46
295.286	16.01
295.5	14.39
295.713	13.55
295.927	13.46
296.14	14.11
296.354	12.6
296.568	12.26
296.781	12.41
296.994	12.76
297.208	12.71
297.421	12.65
297.635	13.24
297.848	13.42
298.062	13.7
298.275	13.84
298.489	13.92
298.702	16.28
298.915	16.97
299.129	17.62
299.342	18.28
299.555	17.82
299.769	18.71
299.982	19.3
300.195	18.35
300.409	18.67
300.622	18.66
300.835	19.78
301.048	18.14
301.262	17.4
301.475	16.68
301.688	16.6
301.901	18.48
302.115	18.73
302.328	18.99
302.541	20.05
302.754	19.75
302.967	20.05
303.18	19.48
303.393	18.96
303.607	19.12
303.82	18.38
304.033	18.04
304.246	17.23
304.459	17.6
304.672	16.95
304.885	17.97
305.098	17.96
305.311	18.03
305.524	17.09
305.737	17.66
305.95	19.06
306.163	18.34
306.376	17.82
306.589	18.01
306.802	15.89
307.015	16.35
307.228	16.97
307.44	17.68
307.653	17.11
307.866	17.03
308.079	15.93
308.292	14.69
308.505	15.6
308.718	15.92
308.93	15.53
309.143	15.5
309.356	14.65
309.569	13.57
309.781	14.61
309.994	13.51
310.207	14.07
310.42	13.86
310.632	13.08
310.845	13.45
311.058	13.25
311.27	12.72
311.483	12.92
311.696	13.07
311.908	13.13
312.121	11.86
312.333	13.18
312.546	13.25
312.759	13.75
312.971	14.62
313.184	15.34
313.396	15.77
313.609	17.32
313.821	18.71
314.034	20.32
314.246	21.59
314.459	21.71
314.671	21.32
314.884	21.72
315.096	22.61
315.309	22.33
315.521	22.21
315.733	21.88
315.946	20.37
316.158	20.33
316.371	19.37
316.583	19.31
316.795	19.6
317.008	20.34
317.22	19.94
317.432	21.8
317.644	22.16
317.857	21.34
318.069	22.59
318.281	24.89
318.494	24.29
318.706	23.69
318.918	22.69
319.13	23.34
319.342	23.57
319.555	23.2
319.767	21.47
319.979	21.07
320.191	20.84
320.403	20.74
320.615	19.81
320.827	18.71
321.039	20.27
321.252	20.93
321.464	20.55
321.676	21.12
321.888	21.64
322.1	21.78
322.312	22.59
322.524	23.17
322.736	22.29
322.948	21.64
323.16	21.66
323.372	20.64
323.584	21.11
323.796	21.57
324.007	20.56
324.219	20.81
324.431	21.21
324.643	20.55
324.855	20.89
325.067	21.73
325.279	21.98
325.491	23.31
325.702	23.23
325.914	24.19
326.126	23.89
326.338	25.43
326.55	24.59
326.761	23.88
326.973	24.24
327.185	24.17
327.396	23.76
327.608	24.32
327.82	23.94
328.032	24.96
328.243	23.54
328.455	24.17
328.666	23.57
328.878	24.63
329.09	25.1
329.301	25.89
329.513	26.28
329.725	27.51
329.936	27.96
330.148	29.77
330.359	30.15
330.571	30.79
330.782	30.58
330.994	30.17
331.205	30.25
331.417	29.99
331.628	30.42
331.84	30.88
332.051	31.01
332.262	31.29
332.474	30.17
332.685	31.69
332.897	30.92
333.108	31.72
333.319	31.66
333.531	33.04
333.742	33.04
333.953	32.89
334.165	32.92
334.376	32.75
334.587	33.38
334.799	33.87
335.01	33.04
335.221	33
335.432	32.34
335.644	33.52
335.855	32.33
336.066	33.69
336.277	33.86
336.488	34.43
336.7	34.61
336.911	34.61
337.122	34.66
337.333	34.77
337.544	36.66
337.755	37.19
337.966	36.44
338.177	37.42
338.388	37.02
338.599	37.52
338.811	36.54
339.022	36.47
339.233	35.47
339.444	35.56
339.655	35.38
339.866	34.59
340.076	34.22
340.287	35.14
340.498	34.49
340.709	35.34
340.92	33.96
341.131	33.59
341.342	33.11
341.553	34.03
341.764	34.64
341.975	35.12
342.185	35.06
342.396	35.56
342.607	35.5
342.818	36.59
343.029	35.65
343.239	37.15
343.45	38.08
343.661	38.92
343.872	38.66
344.082	38.65
344.293	38.04
344.504	39.55
344.714	38.4
344.925	37.88
345.136	36.51
345.346	36.31
345.557	35.28
345.768	35.47
345.978	34.98
346.189	35.41
346.399	34.97
346.61	35.35
346.821	33.85
347.031	34.75
347.242	34.43
347.452	34.92
347.663	35.37
347.873	36.85
348.084	36.23
348.294	37.13
348.504	36.25
348.715	36.36
348.925	35.76
349.136	35.49
349.346	35.52
349.557	36.05
349.767	36.02
349.977	35.97
350.188	35.3
350.398	36.23
350.608	35.18
350.819	35.68
351.029	35.39
351.239	36.33
351.449	36.52
351.66	36.45
351.87	36.33
352.08	36.75
352.29	37.2
352.501	36.95
352.711	37.12
352.921	37.12
353.131	37.22
353.341	37.02
353.552	35.87
353.762	36.12
353.972	35.26
354.182	35.98
354.392	36.39
354.602	36.45
354.812	36.29
355.022	35.61
355.232	35.75
355.442	35.01
355.652	35.17
355.862	35.67
356.072	35.51
356.282	36.4
356.492	35.6
356.702	34.72
356.912	34.2
357.122	34.44
357.332	34.39
357.542	33.86
357.752	34.39
357.962	34.65
358.171	34.57
358.381	34.83
358.591	33.87
358.801	34.39
359.011	34.12
359.221	34.33
359.43	34.23
359.64	33.8
359.85	34.11
360.06	33.75
360.269	33.51
360.479	32.95
360.689	32.22
360.899	32.67
361.108	31.84
361.318	31.9
361.528	31.32
361.737	31.33
361.947	31.74
362.156	31.73
362.366	31.92
362.576	31.51
362.785	32.05
362.995	32.52
363.204	32.43
363.414	32.98
363.623	33.28
363.833	33.77
364.042	33.58
364.252	32.89
364.461	32.85
364.671	32.45
364.88	32.56
365.09	32.53
365.299	32.4
365.509	32.48
365.718	32.12
365.927	31.5
366.137	31.41
366.346	31.82
366.555	32.24
366.765	32.62
366.974	32.78
367.183	33.11
367.393	32.64
367.602	32.21
367.811	32.06
368.021	31.71
368.23	32.57
368.439	32.42
368.648	31.89
368.857	32.2
369.067	31.72
369.276	31.85
369.485	31.97
369.694	31.65
369.903	32.07
370.112	32.05
370.321	32.75
370.531	31.79
370.74	31.59
370.949	31.14
371.158	30.62
371.367	30.78
371.576	30.46
371.785	29.74
371.994	30.23
372.203	29.81
372.412	30.01
372.621	29.75
372.83	29.73
373.039	30.07
373.248	30.38
373.457	30.62
373.666	30.49
373.874	30.49
374.083	30.48
374.292	30.24
374.501	30.56
374.71	30.64
374.919	30.11
375.128	30.27
375.336	30.13
375.545	29.98
375.754	29.85
375.963	29.35
376.171	29.44
376.38	30.13
376.589	30.05
376.798	29.49
377.006	29.15
377.215	29.74
377.424	29.56
377.632	28.85
377.841	28.9
378.05	29.3
378.258	29.3
378.467	29.44
378.675	28.79
378.884	29.05
379.093	29.47
379.301	29.46
379.51	29.09
379.718	29.31
379.927	29.88
380.135	29.61
380.344	29.3
380.552	29.76
380.761	29.65
380.969	29.99
381.177	29.9
381.386	29.87
381.594	29.52
381.803	29.48
382.011	29.53
382.219	29.23
382.428	29.62
382.636	29.54
382.845	29.35
383.053	29.11
383.261	28.98
383.469	29.04
383.678	29.13
383.886	28.78
384.094	28.78
384.302	28.58
384.511	28.84
384.719	28.53
384.927	28.63
385.135	28.33
385.343	28.63
385.552	28.65
385.76	28.1
385.968	27.6
386.176	27.68
386.384	27.41
386.592	27.2
386.8	27.14
387.008	27.25
387.216	26.77
387.424	26.8
387.633	26.3
387.841	25.99
388.049	26.31
388.257	26.53
388.465	27.01
388.672	27.11
388.88	27.08
389.088	26.9
389.296	26.52
389.504	26.68
389.712	26.66
389.92	26.62
390.128	26.53
390.336	26.09
390.544	25.36
390.751	24.9
390.959	24.5
391.167	24.32
391.375	24.13
391.583	24.19
391.79	23.73
391.998	24.1
392.206	24.36
392.414	24.06
392.621	24.2
392.829	24.58
393.037	24.79
393.244	24.79
393.452	25.04
393.66	25.02
393.867	24.85
394.075	24.88
394.283	24.44
394.49	24.24
394.698	24.37
394.905	24.26
395.113	24.34
395.32	24.15
395.528	24.5
395.735	24.45
395.943	24.38
396.15	24.58
396.358	24.61
396.565	24.43
396.773	24.1
396.98	24.39
397.188	24.26
397.395	24.18
397.602	24.47
397.81	24.42
398.017	24.35
398.225	24.58
398.432	24.48
398.639	24.56
398.847	25.13
399.054	25.3
399.261	24.88
399.468	24.74
399.676	24.91
399.883	24.37
400.09	24.25
400.297	24.36
400.505	24.21
400.712	24.23
400.919	24.12
401.126	23.78
401.333	23.95
401.54	24.01
401.748	24.05
401.955	23.73
402.162	24.14
402.369	24.27
402.576	24.15
402.783	23.85
402.99	23.85
403.197	24.12
403.404	23.68
403.611	23.35
403.818	23.44
404.025	23.37
404.232	23.12
404.439	22.95
404.646	22.63
404.853	22.57
405.06	22.95
405.267	22.71
405.474	22.24
405.681	22.25
405.887	22.47
406.094	22.49
406.301	22.77
406.508	22.86
406.715	23.15
406.922	23.42
407.128	23.45
407.335	23.04
407.542	23.19
407.749	23.7
407.955	24.19
408.162	24.41
408.369	24.38
408.575	24.43
408.782	24.51
408.989	24.37
409.195	24.44
409.402	24.52
409.609	24.56
409.815	24.46
410.022	24.24
410.228	23.97
410.435	23.61
410.642	23.49
410.848	23.11
411.055	23.16
411.261	22.95
411.468	22.96
411.674	22.77
411.881	22.81
412.087	23.22
412.294	23.23
412.5	23.33
412.706	23.34
412.913	23.48
413.119	23.9
413.326	23.75
413.532	23.76
413.738	23.61
413.945	23.31
414.151	23.44
414.357	23.26
414.564	23.07
414.77	22.76
414.976	22.7
415.182	22.73
415.389	22.37
415.595	22.48
415.801	22.52
416.007	22.5
416.214	22.67
416.42	22.36
416.626	22.22
416.832	22.04
417.038	22.23
417.244	22.21
417.45	22.1
417.657	21.79
417.863	21.8
418.069	21.57
418.275	21.38
418.481	21.37
418.687	21.32
418.893	21.29
419.099	21.32
419.305	21.27
419.511	21.2
419.717	21.12
419.923	21.14
420.129	20.96
420.335	20.96
420.541	20.87
420.746	20.81
420.952	20.86
421.158	20.73
421.364	20.75
421.57	20.67
421.776	20.53
421.982	20.47
422.187	20.49
422.393	20.55
422.599	20.57
422.805	20.54
423.01	20.59
423.216	20.54
423.422	20.69
423.628	20.72
423.833	20.72
424.039	20.56
424.245	20.42
424.45	20.49
424.656	20.49
424.862	20.48
425.067	20.53
425.273	20.52
425.478	20.51
425.684	20.28
425.889	20.46
426.095	20.55
426.301	20.82
426.506	21.04
426.712	20.97
426.917	20.99
427.123	20.96
427.328	21.01
427.533	20.9
427.739	20.92
427.944	21.04
428.15	20.64
428.355	20.43
428.561	20.4
428.766	20.18
428.971	20.27
429.177	20.28
429.382	20.48
429.587	20.44
429.793	20.63
429.998	20.54
430.203	20.54
430.408	20.58
430.614	20.72
430.819	20.83
431.024	20.99
431.229	20.98
431.434	20.76
431.64	20.7
431.845	20.92
432.05	20.89
432.255	20.95
432.46	20.91
432.665	21.11
432.87	21.11
433.076	20.92
433.281	21.02
433.486	20.96
433.691	21.03
433.896	20.89
434.101	20.7
434.306	20.72
434.511	20.86
434.716	20.86
434.921	20.8
435.126	20.97
435.331	20.99
435.535	21.06
435.74	21.11
435.945	21.11
436.15	21.19
436.355	21.48
436.56	21.45
436.765	21.57
436.97	21.53
437.174	21.22
437.379	20.98
437.584	21.32
437.789	21.09
437.993	21.11
438.198	21.14
438.403	21.17
438.608	20.82
438.812	20.57
439.017	20.31
439.222	20.34
439.426	20.4
439.631	20.33
439.836	20.02
440.04	20
440.245	20.04
440.45	19.84
440.654	19.77
440.859	19.79
441.063	19.88
441.268	19.97
441.472	20.09
441.677	20.27
441.881	20.51
442.086	20.55
442.29	20.62
442.495	20.54
442.699	20.7
442.904	20.83
443.108	20.82
443.312	20.87
443.517	20.83
443.721	20.68
443.925	20.51
444.13	20.24
444.334	20.3
444.538	20.24
444.743	20.12
444.947	20.18
445.151	19.93
445.356	19.91
445.56	19.91
445.764	20.01
445.968	20.02
446.173	20.04
446.377	20.03
446.581	20.05
446.785	20.04
446.989	20.14
447.193	20.12
447.398	20.28
447.602	20.24
447.806	20.24
448.01	20.04
448.214	19.92
448.418	19.86
448.622	19.78
448.826	19.75
449.03	19.8
449.234	19.83
449.438	19.68
449.642	19.6
449.846	19.6
450.05	19.6
450.254	19.64
450.458	19.71
450.662	19.81
450.866	19.92
451.069	20
451.273	19.81
451.477	19.87
451.681	20.06
451.885	20.08
452.089	20.21
452.292	20.29
452.496	20.19
452.7	20.2
452.904	20.2
453.107	20.41
453.311	20.2
453.515	20.28
453.719	20.09
453.922	19.96
454.126	19.83
454.33	19.8
454.533	19.61
454.737	19.59
454.94	19.54
455.144	19.45
455.348	19.16
455.551	19.3
455.755	19.35
455.958	19.47
456.162	19.59
456.365	19.57
456.569	19.56
456.772	19.79
456.976	19.87
457.179	19.91
457.383	19.84
457.586	20.04
457.79	20.01
457.993	20.06
458.196	19.9
458.4	19.92
458.603	20.17
458.807	20
459.01	19.87
459.213	19.94
459.417	19.94
459.62	20.02
459.823	19.85
460.026	19.76
460.23	19.71
460.433	19.86
460.636	19.77
460.839	19.59
461.042	19.69
461.246	19.69
461.449	19.68
461.652	19.71
461.855	19.7
462.058	19.78
462.261	19.88
462.464	19.81
462.668	19.52
462.871	19.52
463.074	19.65
463.277	19.6
463.48	19.6
463.683	19.63
463.886	19.52
464.089	19.61
464.292	19.69
464.495	19.67
464.698	19.59
464.901	19.79
465.104	19.75
465.306	19.75
465.509	19.89
465.712	19.78
465.915	19.91
466.118	19.98
466.321	19.98
466.524	19.65
466.726	19.72
466.929	19.95
467.132	19.8
467.335	19.81
467.538	19.77
467.74	19.67
467.943	19.77
468.146	19.47
468.348	19.28
468.551	19.2
468.754	19.5
468.956	19.46
469.159	19.35
469.362	19.5
469.564	19.49
469.767	19.52
469.969	19.59
470.172	19.85
470.375	19.93
470.577	20.08
470.78	20.14
470.982	20.17
471.185	20.15
471.387	20.23
471.59	20.27
471.792	20.32
471.995	20.24
472.197	20.18
472.399	19.97
472.602	20.16
472.804	20.24
473.007	20.1
473.209	20.07
473.411	20.17
473.614	20.26
473.816	20.24
474.018	20.22
474.22	20.34
474.423	20.26
474.625	20.16
474.827	19.98
475.03	20.07
475.232	20.3
475.434	20.27
475.636	20.02
475.838	19.94
476.04	19.9
476.243	19.88
476.445	19.67
476.647	19.82
476.849	19.71
477.051	19.74
477.253	19.62
477.455	19.38
477.657	19.33
477.859	19.33
478.061	19.13
478.263	19.06
478.465	19.22
478.667	19.29
478.869	19.33
479.071	19.54
479.273	19.55
479.475	19.48
479.677	19.6
479.879	19.58
480.081	19.72
480.283	19.84
480.485	19.78
480.686	19.68
480.888	19.86
481.09	19.6
481.292	19.42
481.494	19.28
481.695	19.3
481.897	19.2
482.099	19.11
482.301	19.07
482.502	19.04
482.704	19.01
482.906	18.92
483.107	18.72
483.309	18.7
483.511	18.73
483.712	18.73
483.914	18.65
484.115	18.65
484.317	18.67
484.519	18.66
484.72	18.65
484.922	18.64
485.123	18.63
485.325	18.62
485.526	18.7
485.728	18.66
485.929	18.64
486.131	18.76
486.332	18.82
486.534	18.79
486.735	18.71
486.936	18.7
487.138	18.7
487.339	18.68
487.541	18.73
487.742	18.66
487.943	18.69
488.144	18.75
488.346	18.71
488.547	18.71
488.748	18.77
488.95	18.78
489.151	18.8
489.352	18.86
489.553	18.95
489.755	18.97
489.956	18.98
490.157	18.93
490.358	18.92
490.559	18.9
490.76	18.79
490.961	18.73
491.163	18.78
491.364	18.74
491.565	18.7
491.766	18.66
491.967	18.71
492.168	18.79
492.369	18.87
492.57	18.9
492.771	18.98
492.972	19.07
493.173	19.18
493.374	19.4
493.575	19.5
493.776	19.65
493.976	19.74
494.177	19.87
494.378	20
494.579	20.04
494.78	20
494.981	19.88
495.182	19.88
495.382	19.95
495.583	19.74
495.784	19.82
495.985	19.77
496.185	19.77
496.386	19.63
496.587	19.48
496.788	19.59
496.988	19.65
497.189	19.7
497.39	19.72
497.59	19.64
497.791	19.61
497.992	19.66
498.192	19.7
498.393	19.7
498.593	19.77
498.794	19.74
498.994	19.84
499.195	19.7
499.395	19.83
499.596	19.85
499.796	19.86
499.997	19.96
500.197	19.88
500.398	19.93
500.598	20.02
500.799	19.99
500.999	20.19
501.199	19.98
501.4	20.2
501.6	20.19
501.801	20.26
502.001	20.28
502.201	20.39
502.402	20.5
502.602	20.49
502.802	20.55
503.002	20.59
503.203	20.52
503.403	20.62
503.603	20.64
503.803	20.52
504.003	20.41
504.204	20.51
504.404	20.65
504.604	20.69
504.804	20.9
505.004	20.93
505.204	21.03
505.404	21.11
505.604	21.13
505.804	21.01
506.005	21.25
506.205	21.13
506.405	21.11
506.605	20.86
506.805	20.93
507.005	20.75
507.204	20.61
507.404	20.5
507.604	20.71
507.804	20.83
508.004	21.18
508.204	21.2
508.404	21.6
508.604	21.7
508.804	21.82
509.003	21.86
509.203	21.93
509.403	22.14
509.603	22.27
509.803	22.25
510.002	22.33
510.202	22.23
510.402	22.32
510.602	22.29
510.801	22.37
511.001	22.36
511.201	22.3
511.4	22.25
511.6	22.2
511.8	22.08
511.999	22.15
512.199	22.19
512.398	22.32
512.598	22.33
512.797	22.46
512.997	22.42
513.197	22.64
513.396	22.84
513.596	23.03
513.795	23.27
513.994	23.57
514.194	23.72
514.393	23.87
514.593	23.86
514.792	24.02
514.992	24.12
515.191	24.47
515.39	24.35
515.59	24.26
515.789	24.41
515.988	24.47
516.188	24.55
516.387	24.56
516.586	24.53
516.786	24.68
516.985	24.7
517.184	24.68
517.383	24.59
517.582	24.75
517.782	24.91
517.981	24.93
518.18	24.96
518.379	25.04
518.578	25.02
518.777	25.09
518.976	25.09
519.176	25.22
519.375	25.3
519.574	25.46
519.773	25.66
519.972	25.64
520.171	25.73
520.37	25.89
520.569	25.93
520.768	26.1
520.967	26.2
521.166	26.37
521.365	26.44
521.564	26.65
521.762	26.7
521.961	26.75
522.16	27.01
522.359	27.18
522.558	27.2
522.757	27.34
522.956	27.5
523.154	27.63
523.353	27.65
523.552	27.79
523.751	27.89
523.949	27.95
524.148	27.99
524.347	28.13
524.546	28.12
524.744	28.24
524.943	28.37
525.142	28.41
525.34	28.45
525.539	28.59
525.737	28.63
525.936	28.65
526.135	28.77
526.333	28.8
526.532	28.73
526.73	28.88
526.929	28.95
527.127	29.02
527.326	29.09
527.524	29.23
527.723	29.24
527.921	29.33
528.12	29.38
528.318	29.35
528.516	29.45
528.715	29.54
528.913	29.61
529.112	29.62
529.31	29.64
529.508	29.76
529.707	29.81
529.905	29.95
530.103	30.04
530.301	30.1
530.5	30.24
530.698	30.3
530.896	30.46
531.094	30.63
531.293	30.8
531.491	31
531.689	31.06
531.887	31.2
532.085	31.34
532.283	31.4
532.481	31.46
532.68	31.52
532.878	31.67
533.076	31.73
533.274	31.7
533.472	31.8
533.67	31.82
533.868	31.88
534.066	31.9
534.264	31.98
534.462	32.06
534.66	32.24
534.858	32.4
535.056	32.49
535.253	32.63
535.451	32.87
535.649	33.03
535.847	33.16
536.045	33.25
536.243	33.44
536.441	33.44
536.638	33.52
536.836	33.57
537.034	33.54
537.232	33.64
537.43	33.65
537.627	33.66
537.825	33.64
538.023	33.73
538.22	33.86
538.418	33.89
538.616	34.01
538.813	34.2
539.011	34.47
539.209	34.64
539.406	34.67
539.604	34.9
539.801	35.17
539.999	35.3
540.196	35.33
540.394	35.42
540.591	35.5
540.789	35.51
540.986	35.43
541.184	35.36
541.381	35.37
541.579	35.4
541.776	35.33
541.974	35.24
542.171	35.33
542.368	35.37
542.566	35.38
542.763	35.25
542.96	35.33
543.158	35.35
543.355	35.38
543.552	35.54
543.75	35.7
543.947	35.76
544.144	35.84
544.341	35.87
544.539	35.96
544.736	35.89
544.933	36.07
545.13	36.07
545.327	36.22
545.524	36.18
545.722	36.25
545.919	36.2
546.116	36.37
546.313	36.43
546.51	36.45
546.707	36.72
546.904	36.9
547.101	37.1
547.298	37.23
547.495	37.18
547.692	37.29
547.889	37.41
548.086	37.66
548.283	37.77
548.48	37.89
548.677	37.81
548.874	37.82
549.07	37.77
549.267	37.97
549.464	38.02
549.661	38.3
549.858	38.73
550.055	38.6
550.251	38.56
550.448	38.4
550.645	38.55
550.842	38.8
551.038	38.73
551.235	39.05
551.432	38.83
551.628	38.9
551.825	38.96
552.022	38.91
552.218	39.04
552.415	39.08
552.612	39.36
552.808	39.35
553.005	39.41
553.201	39.49
553.398	39.5
553.594	39.63
553.791	39.92
553.987	39.9
554.184	39.88
554.38	40.24
554.577	40.49
554.773	40.52
554.97	40.8
555.166	40.87
555.362	40.9
555.559	41.01
555.755	41.11
555.952	40.96
556.148	41.34
556.344	41.56
556.541	41.19
556.737	41.14
556.933	41.21
557.129	41.3
557.326	41.21
557.522	41.4
557.718	41.42
557.914	41.34
558.11	41.35
558.307	41.16
558.503	41.1
558.699	41.47
558.895	41.32
559.091	41.36
559.287	41.2
559.483	41.56
559.679	41.46
559.876	41.44
560.072	41.69
560.268	41.94
560.464	42.17
560.66	42.19
560.856	42.08
561.052	42.36
561.247	42.34
561.443	42.39
561.639	42.28
561.835	42.42
562.031	42.61
562.227	42.64
562.423	42.6
562.619	42.49
562.815	42.61
563.01	42.79
563.206	42.81
563.402	42.84
563.598	42.78
563.793	42.65
563.989	42.66
564.185	42.69
564.381	42.68
564.576	42.56
564.772	42.32
564.968	42.22
565.163	42.07
565.359	42.02
565.555	42.07
565.75	42.4
565.946	42.77
566.141	42.82
566.337	42.78
566.532	42.9
566.728	43.01
566.923	43.4
567.119	43.57
567.314	43.83
567.51	43.84
567.705	43.93
567.901	43.83
568.096	43.73
568.292	43.85
568.487	43.91
568.682	44.11
568.878	44.17
569.073	44
569.268	43.81
569.464	43.91
569.659	44.24
569.854	44.42
570.05	44.4
570.245	44.58
570.44	44.77
570.635	44.88
570.831	44.82
571.026	44.84
571.221	45
571.416	45.22
571.611	45.13
571.806	44.95
572.002	45
572.197	45.03
572.392	44.9
572.587	44.85
572.782	44.97
572.977	44.94
573.172	45.13
573.367	45.26
573.562	45.38
573.757	45.39
573.952	45.46
574.147	45.59
574.342	45.59
574.537	45.81
574.732	45.62
574.927	45.62
575.121	45.61
575.316	45.57
575.511	45.38
575.706	45.16
575.901	45.25
576.096	45.2
576.29	45.01
576.485	45.19
576.68	45.13
576.875	45.4
577.069	45.52
577.264	45.59
577.459	45.72
577.654	46.09
577.848	46.29
578.043	46.24
578.238	46.61
578.432	46.64
578.627	46.55
578.821	46.57
579.016	46.73
579.21	46.9
579.405	47.24
579.6	47.17
579.794	47.01
579.989	47.15
580.183	47.62
580.378	47.64
580.572	47.8
580.766	47.89
580.961	48.14
581.155	47.96
581.35	47.67
581.544	47.44
581.738	47.51
581.933	47.5
582.127	47.67
582.321	47.28
582.516	46.91
582.71	47.13
582.904	47.14
583.099	46.94
583.293	47.04
583.487	47.27
583.681	47.34
583.875	47.36
584.07	47.74
584.264	47.76
584.458	47.97
584.652	48.28
584.846	48.28
585.04	48.35
585.234	48.55
585.428	48.42
585.623	48.51
585.817	48.73
586.011	48.82
586.205	48.65
586.399	48.5
586.593	48.5
586.787	48.59
586.981	48.31
587.174	48.55
587.368	48.53
587.562	49.05
587.756	49.09
587.95	48.96
588.144	48.76
588.338	48.93
588.532	48.79
588.725	48.95
588.919	48.96
589.113	49.26
589.307	49.15
589.501	49.26
589.694	49.15
589.888	48.96
590.082	49
590.275	49.15
590.469	49
590.663	49.23
590.856	48.93
591.05	48.96
591.244	48.97
591.437	49
591.631	48.8
591.824	48.81
592.018	48.87
592.212	49.06
592.405	49.28
592.599	49.34
592.792	49.61
592.986	50.06
593.179	50.16
593.372	49.95
593.566	50.05
593.759	50.48
593.953	50.32
594.146	50.38
594.339	50.18
594.533	49.96
594.726	50.19
594.92	49.94
595.113	49.86
595.306	49.82
595.499	50
595.693	49.73
595.886	49.56
596.079	49.74
596.272	49.69
596.466	49.79
596.659	50.02
596.852	49.81
597.045	49.94
597.238	49.85
597.431	49.88
597.624	49.94
597.818	50.06
598.011	50.11
598.204	49.91
598.397	50.11
598.59	50.06
598.783	49.91
598.976	49.88
599.169	49.9
599.362	50.06
599.555	50.15
599.748	50.19
599.941	50.32
600.134	50.43
600.326	51.01
600.519	51.04
600.712	50.97
600.905	50.99
601.098	51.37
601.291	51.45
601.483	51.29
601.676	51.22
601.869	51.06
602.062	50.93
602.255	50.83
602.447	50.49
602.64	50.28
602.833	50.45
603.025	50.86
603.218	50.67
603.411	50.78
603.603	50.91
603.796	50.88
603.989	50.91
604.181	50.99
604.374	50.9
604.566	50.81
604.759	50.92
604.951	51.01
605.144	50.65
605.336	50.76
605.529	50.41
605.721	50.55
605.914	50.56
606.106	50.7
606.299	50.86
606.491	50.98
606.683	51.2
606.876	51.34
607.068	51.35
607.26	51.6
607.453	51.71
607.645	51.86
607.837	51.37
608.03	51.52
608.222	51.6
608.414	51.57
608.606	51.64
608.799	51.43
608.991	51.42
609.183	51.46
609.375	51.45
609.567	51.48
609.759	51.46
609.952	51.73
610.144	51.56
610.336	51.39
610.528	51.18
610.72	51
610.912	51.11
611.104	50.98
611.296	50.95
611.488	51.03
611.68	50.96
611.872	51.09
612.064	51.21
612.256	51.41
612.448	51.35
612.64	51.59
612.832	51.98
613.023	52.17
613.215	52.27
613.407	52.31
613.599	52.23
613.791	52.4
613.983	52.52
614.174	52.24
614.366	52.04
614.558	52.26
614.75	52.25
614.941	52.14
615.133	52.06
615.325	52.18
615.516	52.11
615.708	51.94
615.9	51.84
616.091	51.82
616.283	52
616.475	51.93
616.666	51.96
616.858	52.24
617.049	52.24
617.241	52.02
617.432	51.97
617.624	52.2
617.815	52.27
618.007	52.18
618.198	52.44
618.39	52.54
618.581	52.58
618.773	52.54
618.964	52.23
619.155	52.18
619.347	52.47
619.538	52.62
619.729	52.5
619.921	52.71
620.112	52.59
620.303	52.28
620.494	52.24
620.686	52.42
620.877	52.21
621.068	52.47
621.259	52.33
621.451	52.36
621.642	52.33
621.833	52.21
622.024	52.05
622.215	52.13
622.406	52.2
622.597	52.25
622.788	52.1
622.98	52.43
623.171	52.64
623.362	53.02
623.553	52.97
623.744	53.32
623.935	53.57
624.126	53.5
624.317	53.24
624.508	53.41
624.698	53.13
624.889	53.05
625.08	53.15
625.271	52.83
625.462	52.57
625.653	52.63
625.844	52.19
626.034	52.06
626.225	52.12
626.416	52.32
626.607	52.19
626.798	52.24
626.988	52.07
627.179	52.25
627.37	52.19
627.56	52.42
627.751	52.3
627.942	52.29
628.132	52.28
628.323	52.46
628.514	52.65
628.704	52.69
628.895	52.88
629.085	53.45
629.276	52.92
629.466	53.39
629.657	53.02
629.847	52.95
630.038	53.05
630.228	53.29
630.419	53.43
630.609	53.39
630.8	53.46
630.99	53.3
631.181	53.13
631.371	53.61
631.561	53.25
631.752	53.66
631.942	54.22
632.132	54.17
632.323	53.94
632.513	53.71
632.703	53.58
632.893	53.68
633.084	53.49
633.274	53.53
633.464	53.45
633.654	53.53
633.844	53.29
634.034	52.96
634.225	53.01
634.415	52.89
634.605	52.95
634.795	53.16
634.985	53.27
635.175	53.61
635.365	53.4
635.555	53.39
635.745	53.35
635.935	53.66
636.125	53.81
636.315	53.95
636.505	54.15
636.695	54.13
636.885	53.87
637.075	54
637.265	54.09
637.455	54.41
637.644	54.58
637.834	54.71
638.024	54.3
638.214	54.04
638.404	53.93
638.593	53.99
638.783	54.13
638.973	54.63
639.163	54.1
639.352	54.12
639.542	54.08
639.732	53.95
639.921	53.76
640.111	54.1
640.301	54.33
640.49	54.45
640.68	54.82
640.87	54.86
641.059	54.4
641.249	54.61
641.438	54.65
641.628	54.81
641.817	54.99
642.007	55.12
642.196	54.99
642.386	54.87
642.575	54.91
642.764	54.77
642.954	54.34
643.143	54.5
643.333	54.63
643.522	54.46
643.711	54.22
643.901	53.96
644.09	53.62
644.279	53.91
644.469	54.06
644.658	53.69
644.847	53.39
645.036	53.82
645.226	53.93
645.415	54.03
645.604	54.01
645.793	54.15
645.982	54.25
646.171	54.56
646.361	54.55
646.55	54.46
646.739	55.1
646.928	55.24
647.117	55.24
647.306	55.11
647.495	54.81
647.684	54.81
647.873	54.88
648.062	54.92
648.251	54.97
648.44	54.41
648.629	54.39
648.818	54.1
649.007	53.88
649.196	53.78
649.384	53.83
649.573	53.98
649.762	54.02
649.951	53.99
650.14	54.1
650.328	54.01
650.517	54.41
650.706	54.91
650.895	54.96
651.083	55.41
651.272	55.15
651.461	55.74
651.65	55.46
651.838	55.33
652.027	54.97
652.216	54.8
652.404	54.6
652.593	54.66
652.781	54.28
652.97	54.08
653.158	53.96
653.347	54.32
653.535	53.92
653.724	54.07
653.912	54.38
654.101	54.71
654.289	54.45
654.478	54.82
654.666	54.86
654.855	54.69
655.043	54.65
655.231	54.33
655.42	54.86
655.608	54.93
655.796	55.26
655.985	55.16
656.173	55.24
656.361	55.49
656.55	55.26
656.738	55.37
656.926	55.57
657.114	56.02
657.302	56.29
657.491	55.28
657.679	54.88
657.867	54.74
658.055	54.97
658.243	54.97
658.431	54.98
658.619	55.08
658.807	55.01
658.996	54.98
659.184	54.88
659.372	54.71
659.56	55.17
659.748	55.24
659.936	55.3
660.124	54.79
660.311	54.55
660.499	54.4
660.687	54.73
660.875	54.87
661.063	54.47
661.251	54.36
661.439	54.5
661.627	54.39
661.814	54.56
662.002	54.42
662.19	54.79
662.378	54.97
662.565	55.34
662.753	55.34
662.941	55.24
663.129	55.7
663.316	55.75
663.504	55.74
663.692	55.73
663.879	55.73
664.067	55.82
664.254	56.21
664.442	56.62
664.63	56.57
664.817	56.12
665.005	56.05
665.192	56.13
665.38	56.17
665.567	55.77
665.755	55.73
665.942	55.28
666.13	55.27
666.317	55.18
666.504	54.86
666.692	54.76
666.879	54.89
667.067	55.12
667.254	55.32
667.441	55.54
667.629	55.64
667.816	55.74
668.003	55.7
668.19	55.38
668.378	55.06
668.565	55.09
668.752	55.19
668.939	55.28
669.127	55.23
669.314	55.11
669.501	54.67
669.688	55.02
669.875	54.83
670.062	55.34
670.249	55.81
670.436	55.75
670.623	55.99
670.81	55.71
670.997	55.79
671.184	55.46
671.371	55.66
671.558	56.2
671.745	56.01
671.932	56.51
672.119	56.27
672.306	56.41
672.493	56.53
672.68	56.1
672.867	56.88
673.054	56.72
673.24	56.98
673.427	56.83
673.614	57.04
673.801	57.17
673.988	56.55
674.174	56.6
674.361	56.12
674.548	56.6
674.734	56.84
674.921	56.39
675.108	56.25
675.294	55.75
675.481	55.87
675.668	55.16
675.854	55.38
676.041	55.47
676.227	55.42
676.414	55.59
676.601	55.78
676.787	55.45
676.974	55.7
677.16	55.67
677.347	56.08
677.533	56.31
677.719	56.39
677.906	55.91
678.092	56.33
678.279	56.31
678.465	56.15
678.651	55.42
678.838	56.01
679.024	55.32
679.21	55.25
679.397	55
679.583	54.39
679.769	54.18
679.955	54.66
680.142	54.47
680.328	54.73
680.514	54.88
680.7	55.38
680.886	55.38
681.073	55.78
681.259	55.94
681.445	56.2
681.631	56.4
681.817	56.76
682.003	56.71
682.189	56.63
682.375	56.71
682.561	56.98
682.747	56.45
682.933	55.96
683.119	56.21
683.305	56.2
683.491	56.01
683.677	56.28
683.863	56.2
684.049	55.96
684.235	56.06
684.42	55.69
684.606	55.2
684.792	55.74
684.978	55.91
685.164	55.69
685.349	55.68
685.535	56.11
685.721	55.58
685.907	55.39
686.092	55.48
686.278	56.11
686.464	56.99
686.649	57.54
686.835	57.36
687.021	57.62
687.206	57.62
687.392	57.81
687.577	57.71
687.763	58.03
687.948	58.23
688.134	58.08
688.319	57.45
688.505	56.78
688.69	56.79
688.876	56.35
689.061	56.07
689.247	56.63
689.432	56.52
689.618	56.25
689.803	56.3
689.988	56.68
690.174	57
690.359	57.15
690.544	57.25
690.73	57.03
690.915	57.48
691.1	57.75
691.285	57.35
691.471	57.01
691.656	57.2
691.841	57.19
692.026	56.31
692.211	55.95
692.396	55.36
692.582	55.81
692.767	56.1
692.952	55.82
693.137	56.11
693.322	56.16
693.507	56.78
693.692	56.62
693.877	56.59
694.062	57.4
694.247	57.89
694.432	58.41
694.617	57.27
694.802	56.15
694.987	56
695.172	55.77
695.357	55.57
695.541	55.2
695.726	55.28
695.911	56.25
696.096	55.48
696.281	55.37
696.466	55.36
696.65	55.67
696.835	56.03
697.02	56.22
697.204	56.27
697.389	56.48
697.574	56.51
697.759	56.46
697.943	55.58
698.128	55.99
698.312	56.02
698.497	55.54
698.682	55.43
698.866	55.33
699.051	55.52
699.235	55.49
699.42	55.37
699.604	55.63
699.789	55.86
699.973	55.98
700.158	55.82
700.342	55.94
700.527	56.41
700.711	56.85
700.895	57.18
701.08	57.31
701.264	56.83
701.448	56.55
701.633	56.39
701.817	56.03
702.001	56.15
702.186	56.35
702.37	55.94
702.554	56.55
702.738	56.71
702.923	57.12
703.107	57.3
703.291	57.93
703.475	58.23
703.659	58.46
703.843	58.69
704.027	58.79
704.212	58.41
704.396	58.69
704.58	58.05
704.764	57.83
704.948	57.37
705.132	56.9
705.316	56.9
705.5	57.52
705.684	57.43
705.868	57.32
706.052	57.5
706.235	57.7
706.419	57.72
706.603	58.09
706.787	57.91
706.971	58.3
707.155	58.11
707.339	57.49
707.522	56.29
707.706	56.45
707.89	56.67
708.074	56.36
708.257	56.42
708.441	56.56
708.625	56.77
708.808	56.95
708.992	57.23
709.176	57.83
709.359	58.08
709.543	58.64
709.727	58.03
709.91	58.1
710.094	57.78
710.277	58.16
710.461	58.24
710.644	58.68
710.828	58.02
711.011	58.14
711.195	57.83
711.378	57.84
711.562	58.53
711.745	58.54
711.928	58.93
712.112	59.3
712.295	58.64
712.478	58.29
712.662	58.03
712.845	58.56
713.028	57.69
713.212	58.13
713.395	58.14
713.578	57.62
713.761	57.38
713.945	57.04
714.128	57.03
714.311	57.38
714.494	56.89
714.677	56.87
714.86	56.93
715.043	57.22
715.227	56.54
715.41	57.34
715.593	57.25
715.776	57.38
715.959	57.05
716.142	57.17
716.325	57.38
716.508	57.74
716.691	57.36
716.874	57.58
717.057	57.03
717.239	57.85
717.422	57.25
717.605	57.22
717.788	57.19
717.971	58.59
718.154	58.34
718.337	59.21
718.519	59.76
718.702	59.69
718.885	59.73
719.068	60.81
719.25	60.66
719.433	61.5
719.616	61.4
719.798	61.58
719.981	61.04
720.164	61.13
720.346	60.38
720.529	60
720.712	60.5
720.894	60.6
721.077	59.7
721.259	59.28
721.442	58.82
721.624	59.04
721.807	59.59
721.989	58.87
722.172	59.14
722.354	59.68
722.537	60.85
722.719	60.8
722.901	60.68
723.084	60.74
723.266	60.1
723.448	60.06
723.631	60.16
723.813	60.05
723.995	60.65
724.178	60.44
724.36	60.18
724.542	59.24
724.724	59.27
724.907	60.15
725.089	61.06
725.271	62.65
725.453	61.61
725.635	62.07
725.817	62.53
725.999	63
726.181	62.94
726.364	62.3
726.546	61.32
726.728	61.29
726.91	59.95
727.092	59.21
727.274	58.37
727.456	59.04
727.638	57.87
727.819	57.11
728.001	55.42
728.183	55.42
728.365	55.51
728.547	56.2
728.729	56.09
728.911	56.74
729.093	56.84
729.274	56.69
729.456	56.88
729.638	57.46
729.82	58.47
730.001	59.56
730.183	59.77
730.365	59.56
730.546	59.24
730.728	59.08
730.91	59.64
731.091	59.66
731.273	60.28
731.455	60.75
731.636	61.35
731.818	61.09
731.999	60.25
732.181	60.75
732.362	61.22
732.544	62.25
732.725	61.68
732.907	61.07
733.088	61.81
733.27	61.96
733.451	61.21
733.633	61.11
733.814	60.88
733.995	61.15
734.177	61.07
734.358	61.07
734.539	60.46
734.721	61.68
734.902	61.69
735.083	61.04
735.264	60.37
735.446	60.23
735.627	60.21
735.808	60.18
735.989	60.36
736.17	60.39
736.351	60.39
736.533	60.21
736.714	59.83
736.895	60.14
737.076	60.5
737.257	60.56
737.438	61.09
737.619	59.89
737.8	59.02
737.981	59.08
738.162	58.45
738.343	58.47
738.524	58.42
738.705	58.07
738.886	57.91
739.067	57.69
739.247	58.47
739.428	58.79
739.609	59.77
739.79	60.78
739.971	59.9
740.151	60.09
740.332	59.39
740.513	59.71
740.694	59.67
740.874	59.67
741.055	59.87
741.236	58.88
741.417	58.17
741.597	58.11
741.778	58.74
741.958	59.19
742.139	58.88
742.32	59.48
742.5	60.11
742.681	60.9
742.861	60.26
743.042	60.32
743.222	60.06
743.403	60.45
743.583	61.02
743.764	60.48
743.944	61.51
744.124	62.39
744.305	62.49
744.485	62.25
744.666	61.26
744.846	62.28
745.026	62.42
745.207	63.11
745.387	63.85
745.567	63.2
745.747	62.71
745.928	62.03
746.108	62.9
746.288	62.92
746.468	61.61
746.648	62.29
746.829	62.52
747.009	62.71
747.189	61.96
747.369	60.13
747.549	59.92
747.729	59.69
747.909	59.99
748.089	58.42
748.269	58.56
748.449	59.97
748.629	60.82
748.809	59.73
748.989	59.42
749.169	59.85
749.349	61.14
749.529	61.27
749.709	61.91
749.889	61.36
750.068	62.65
750.248	63.39
750.428	62.15
750.608	61.01
750.788	61.74
750.967	61.19
751.147	62.41
751.327	62.41
751.507	62.49
751.686	62.56
751.866	62.82
752.046	62.24
752.225	61.48
752.405	62.68
752.585	63.9
752.764	63.41
752.944	63.38
753.123	63.54
753.303	63.04
753.482	63.69
753.662	63.84
753.841	64.14
754.021	64.1
754.2	64.74
754.38	64.68
754.559	64.29
754.739	64.02
754.918	64.39
755.097	62.76
755.277	63.56
755.456	63.57
755.635	63.4
755.815	64.07
755.994	64.14
756.173	63.27
756.352	62.99
756.532	62.35
756.711	62.64
756.89	63.35
757.069	62.79
757.248	61.96
757.427	61.49
757.607	62.38
757.786	62.78
757.965	61.31
758.144	62.12
758.323	61.75
758.502	61.75
758.681	61.46
758.86	61.3
759.039	63.05
759.218	63.17
759.397	63.35
759.576	62.28
759.755	61.77
759.934	62.56
760.113	62.56
760.291	62.77
760.47	62.82
760.649	62.19
760.828	62.02
761.007	61.09
761.186	61.54
761.364	61.1
761.543	61.15
761.722	59.88
761.901	58.79
762.079	58.55
762.258	58.82
762.437	58.88
762.615	60.13
762.794	60.49
762.972	60.23
763.151	59.45
763.33	59.42
763.508	59.42
763.687	59.55
763.865	59.64
764.044	58.89
764.222	58.05
764.401	57.68
764.579	56.83
764.758	56.59
764.936	56.75
765.114	57.75
765.293	58.38
765.471	58.32
765.65	58.48
765.828	59.68
766.006	59.67
766.184	61.45
766.363	61.4
766.541	62.14
766.719	62.92
766.898	62.85
767.076	62.68
767.254	61.6
767.432	61.97
767.61	63.21
767.788	63.31
767.967	64.79
768.145	64.64
768.323	65.71
768.501	66.66
768.679	65.68
768.857	66.37
769.035	66.29
769.213	67.18
769.391	67.23
769.569	66.02
769.747	66.64
769.925	66.02
770.103	66.36
770.281	66.48
770.459	65.94
770.636	65.88
770.814	65.92
770.992	66.05
771.17	66.56
771.348	67.34
771.525	68.26
771.703	68.07
771.881	68.38
772.059	66.83
772.236	66.17
772.414	66.72
772.592	68.01
772.769	69.27
772.947	69.55
773.125	69.46
773.302	68.08
773.48	68.7
773.657	68.65
773.835	69.43
774.013	71.51
774.19	71.42
774.368	72.33
774.545	72.7
774.723	72.54
774.9	73.58
775.077	72.63
775.255	72.63
775.432	72.52
775.61	71.73
775.787	71.79
775.964	70.17
776.142	71.84
776.319	71.24
776.496	70.12
776.674	68.56
776.851	66
777.028	66.42
777.205	67.06
777.382	66.3
777.56	67.58
777.737	70.95
777.914	71.09
778.091	70.16
778.268	69.56
778.445	67.71
778.622	68.42
778.8	70.66
778.977	71.33
779.154	78.39
779.331	77.33
779.508	76.13
779.685	72.12
779.862	73.22
780.038	73.14
780.215	73.56
780.392	75.42
780.569	75.93
780.746	73.14
780.923	73.91
781.1	68.28
781.277	68.68
781.453	69.31
781.63	69.18
781.807	69.75
781.984	68.76
782.16	68.3
782.337	66.99
782.514	66.27
782.691	68.3
782.867	69.54
783.044	67.3
783.221	67.89
783.397	67.32
783.574	67.43
783.75	65.61
783.927	66.23
784.103	67.11
784.28	67.98
784.456	68.94
784.633	70.46
784.809	69.57
784.986	69.27
785.162	67.94
785.339	68.58
785.515	68.85
785.692	68.24
785.868	69.25
786.044	68.29
786.221	67.87
786.397	65.83
786.573	63.5
786.749	61.93
786.926	62.51
787.102	63.77
787.278	61.86
787.454	61.89
787.631	65.18
787.807	62.46
787.983	63.32
788.159	65.08
788.335	65.5
788.511	65.84
788.687	65.83
788.863	66.07
789.039	66.87
789.216	68.41
789.392	67.53
789.568	66.11
789.744	69.73
789.919	68.54
790.095	67.85
790.271	69.61
790.447	69.14
790.623	68.78
790.799	68.82
790.975	68.09
791.151	67.97
791.327	67.63
791.502	66.17
791.678	65.19
791.854	64.31
792.03	64.84
792.205	65.21
792.381	67.36
792.557	70.14
792.733	69.26
792.908	70.65
793.084	72.66
793.259	73.59
793.435	75.42
793.611	75.38
793.786	77.64
793.962	76.7
794.137	77.28
794.313	75.52
794.488	73.97
794.664	76.02
794.839	76.14
795.015	73.38
795.19	72.13
795.366	70.72
795.541	71.17
795.716	70.19
795.892	70.23
796.067	68.34
796.242	69.76
796.418	67.48
796.593	65.86
796.768	65.13
796.944	64.62
797.119	65.92
797.294	67.11
797.469	66.94
797.644	67.24
797.82	66.54
797.995	65.82
798.17	65.39
798.345	67.25
798.52	68.98
798.695	67.42
798.87	67.83
799.045	67.72
799.22	68.63
799.395	67.98
799.57	68.92
799.745	68.85
799.92	69.18
800.095	70.33
800.27	69.74
800.445	68.88
800.62	70.28
800.795	71.36
800.97	72.74
801.145	70.6
801.319	70.34
801.494	68.94
801.669	71.35
801.844	72.94
802.018	69.3
802.193	70.15
802.368	69.54
802.543	70.07
802.717	72.22
802.892	72.07
803.067	73.22
803.241	74.07
803.416	72.72
803.59	72.5
803.765	72.3
803.94	75.5
804.114	77.12
804.289	77.76
804.463	76.81
804.638	75.58
804.812	73.71
804.986	72.8
805.161	71.2
805.335	72.52
805.51	69.49
805.684	69.09
805.858	67.8
806.033	64.32
806.207	64.06
806.381	64.12
806.556	62.8
806.73	64.55
806.904	64.95
807.078	66.21
807.253	68.5
807.427	70.31
807.601	70.39
807.775	72.01
807.949	73.6
808.123	73.17
808.298	74.5
808.472	74.29
808.646	74.84
808.82	75.08
808.994	74.49
809.168	74.13
809.342	74.59
809.516	76.18
809.69	75.77
809.864	78.08
810.038	81.87
810.212	79.76
810.385	81.55
810.559	82.82
810.733	82.33
810.907	85.44
811.081	80.87
811.255	82.15
811.428	82.37
811.602	81.26
811.776	81.99
811.95	77.52
812.123	79.43
812.297	80.42
812.471	76.31
812.644	78.36
812.818	77.97
812.992	80.53
813.165	78.79
813.339	77.99
813.512	77.64
813.686	74.49
813.86	76.97
814.033	77
814.207	73.81
814.38	76.43
814.554	76.01
814.727	75.69
814.9	76.82
815.074	76.61
815.247	77.3
815.421	73.92
815.594	77.09
815.767	76.83
815.941	76.99
816.114	78.06
816.287	79.22
816.46	76.99
816.634	75.6
816.807	74.42
816.98	75.38
817.153	74.22
817.327	76.63
817.5	78.06
817.673	76.52
817.846	78.64
818.019	76.02
818.192	77.08
818.365	79.66
818.538	81.26
818.711	81.29
818.884	82.8
819.057	82.29
819.23	85.31
819.403	81.68
819.576	81.56
819.749	76.13
819.922	74.63
820.095	72.94
820.268	72.77
820.441	70.44
820.614	70.17
820.786	69.02
820.959	68.01
821.132	65.49
821.305	63.55
821.477	62.48
821.65	62.95
821.823	62.8
821.996	62.42
822.168	61.47
822.341	60.47
822.514	59.2
822.686	58.13
822.859	58.05
823.031	57.89
823.204	57.92
823.376	57.84
823.549	57.21
823.722	57.96
823.894	57.49
824.067	57.67
824.239	58.12
824.411	58.67
824.584	59.32
824.756	59.63
824.929	59.4
825.101	59.76
825.273	60.21
825.446	60.33
825.618	60.2
825.79	60.05
825.963	59.73
826.135	59.55
826.307	60.01
826.479	59.92
826.652	58.8
826.824	59.35
826.996	59.99
827.168	60.31
827.34	61.02
827.512	60.12
827.684	60.55
827.856	60.62
828.029	62.22
828.201	61.55
828.373	60.85
828.545	62.14
828.717	62.79
828.889	62.15
829.061	62.48
829.232	63.19
829.404	65.03
829.576	65.95
829.748	66.85
829.92	66.33
830.092	68.27
830.264	70.36
830.436	70.71
830.607	71.47
830.779	72.48
830.951	72.02
831.123	72.49
831.294	72.19
831.466	74.18
831.638	75.02
831.809	75.43
831.981	73.6
832.153	73.48
832.324	71.92
832.496	69.28
832.667	70.16
832.839	71.51
833.011	72
833.182	73.02
833.354	70.26
833.525	69.56
833.697	68.05
833.868	68.39
834.039	67.9
834.211	68.27
834.382	68.21
834.554	67.58
834.725	67.5
834.896	65.92
835.068	63.72
835.239	63.5
835.41	63.08
835.581	64.59
835.753	63.82
835.924	63.97
836.095	63.95
836.266	65.38
836.438	65.36
836.609	63.51
836.78	63.68
836.951	66.02
837.122	66.18
837.293	67.81
837.464	68.84
837.635	70.06
837.806	71.37
837.977	70.72
838.148	73.83
838.319	72.27
838.49	74.95
838.661	75.76
838.832	74.77
839.003	75.77
839.174	78.18
839.345	75.3
839.516	76.11
839.687	79.01
839.857	86.03
840.028	81.54
840.199	86.98
840.37	88.07
840.54	90.92
840.711	91.2
840.882	92.57
841.053	85.78
841.223	85.26
841.394	90.02
841.564	89.47
841.735	87.74
841.906	85.77
842.076	86.03
842.247	85.52
842.417	85.32
842.588	85.16
842.758	85.6
842.929	92.69
843.099	93.05
843.27	89.28
843.44	87.52
843.611	87.95
843.781	88.44
843.951	84.21
844.122	83.96
844.292	80.96
844.462	81.75
844.633	78.59
844.803	75.93
844.973	78.84
845.144	80.88
845.314	81.82
845.484	79.21
845.654	85.77
845.824	94.66
845.995	99.69
846.165	105.91
846.335	108.06
846.505	124.96
846.675	132.29
846.845	126.38
847.015	126.7
847.185	133.29
847.355	139.8
847.525	134.66
847.695	134.38
847.865	121.11
848.035	113.55
848.205	121.49
848.375	114.41
848.545	108.83
848.715	113.06
848.884	115.87
849.054	115.44
849.224	114.8
849.394	124.43
849.564	126.01
849.733	128.06
849.903	129.5
850.073	122.71
850.243	113.94
850.412	109.36
850.582	109.39
850.752	111.38
850.921	110.46
851.091	107.92
851.26	97.07
851.43	91.75
851.599	93.72
851.769	93.82
851.939	98.8
852.108	99.53
852.278	102.89
852.447	95.87
852.616	93.9
852.786	87.79
852.955	91.51
853.125	97.4
853.294	96.83
853.463	88.66
853.633	87.84
853.802	82.77
853.971	89.36
854.141	84.1
854.31	92.6
854.479	92.36
854.648	91.94
854.818	87.01
854.987	89.07
855.156	97.04
855.325	115.38
855.494	122.78
855.663	121.2
855.832	117.08
856.001	129.23
856.171	128.29
856.34	123.1
856.509	124.28
856.678	131.06
856.847	129.09
857.016	115.25
857.185	107.65
857.353	117.65
857.522	128.14
857.691	125.01
857.86	127.41
858.029	139.99
858.198	153.32
858.367	156.22
858.535	161.1
858.704	167.62
858.873	187.17
859.042	168.15
859.21	159.97
859.379	150.03
859.548	162.94
859.717	159.15
859.885	154.76
860.054	140.04
860.222	131.61
860.391	132.02
860.56	125.75
860.728	121.81
860.897	123.45
861.065	111.59
861.234	110.21
861.402	107.53
861.571	112.9
861.739	112.52
861.908	129.08
862.076	142.44
862.244	144.96
862.413	149.45
862.581	137.31
862.749	142.27
862.918	172.9
863.086	159.35
863.254	133.91
863.423	124.8
863.591	122.34
863.759	111.39
863.927	107.95
864.096	110.14
864.264	108.11
864.432	110.43
864.6	110.07
864.768	106.9
864.936	104.96
865.104	116.48
865.272	119.17
865.44	121.9
865.608	122.09
865.776	126.87
865.944	105.03
866.112	107.14
866.28	119.03
866.448	121.99
866.616	115.52
866.784	129.18
866.952	125.93
867.12	129.75
867.288	125.57
867.455	124.7
867.623	117.88
867.791	144
867.959	143.48
868.127	139.08
868.294	147.25
868.462	141.49
868.63	120.16
868.797	121.44
868.965	116.22
869.133	117.42
869.3	130.76
869.468	123.82
869.636	121.84
869.803	124.89
869.971	121.66
870.138	123.26
870.306	122.89
870.473	128.13
870.641	124.38
870.808	123.88
870.975	119.08
871.143	108.88
871.31	112.06
871.478	107.25
871.645	98.52
871.812	98.86
871.98	104.92
872.147	107.5
872.314	109.19
872.482	104.11
872.649	102.52
872.816	109.73
872.983	115.98
873.15	124.88
873.318	129.93
873.485	140.17
873.652	143.57
873.819	139.21
873.986	135.62
874.153	132.91
874.32	125.39
874.487	129.31
874.654	119.35
874.821	116.48
874.988	104.57
875.155	94.69
875.322	86.79
875.489	87.42
875.656	91.85
875.823	100.1
875.99	103.4
876.157	124.64
876.324	128.18
876.49	138.15
876.657	130.3
876.824	137.32
876.991	140.84
877.157	153.32
877.324	152.57
877.491	150.73
877.658	144.49
877.824	141.35
877.991	139.12
878.157	129.68
878.324	137.4
878.491	132.67
878.657	125.69
878.824	118.79
878.99	98.36
879.157	98.56
879.323	93.98
879.49	86.9
879.656	86.37
879.823	88.32
879.989	92
880.156	84.42
880.322	90.72
880.488	87.98
880.655	89.37
880.821	104.23
880.987	96.27
881.154	94.08
881.32	101.94
881.486	103.75
881.652	99.15
881.819	98.41
881.985	97.03
882.151	90.16
882.317	85.65
882.483	84.14
882.649	78.85
882.816	77.92
882.982	74.99
883.148	71.93
883.314	68.58
883.48	68.67
883.646	65.78
883.812	63.34
883.978	63.33
884.144	64.63
884.31	63.93
884.476	64.63
884.642	64.48
884.807	66.96
884.973	67.15
885.139	68.08
885.305	68.34
885.471	69.32
885.637	70.94
885.802	70.84
885.968	70.68
886.134	71.57
886.3	71.84
886.465	73
886.631	74.44
886.797	78.76
886.962	83.31
887.128	83.35
887.293	86.64
887.459	89.93
887.625	95.66
887.79	95.87
887.956	104.45
888.121	109.18
888.287	110.74
888.452	106.06
888.618	103.37
888.783	95.29
