Data from LC_163_Reflection_3.txt Node
Date: Mon Nov 16 22:48:42 EST 2015
User: robert
Spectrometer: USB4E03001
Autoset integration time: false
Trigger mode: 4
Integration Time (sec): 1.000000E-1
Scans to average: 15
Electric dark correction enabled: true
Nonlinearity correction enabled: false
Boxcar width: 5
Stray light correction enabled: false
XAxis mode: Wavelengths
Stop averaging: false
Number of Pixels in Spectrum: 3648
>>>>>Begin Spectral Data<<<<<
177.566	2912.05
177.785	226.75
178.005	-373.95
178.225	94.28
178.445	24.04
178.665	437.67
178.885	-290.2
179.105	184.11
179.324	287.38
179.544	-51.3
179.764	-683.89
179.984	-215.12
180.204	-175.22
180.423	-81.84
180.643	-60.34
180.863	-50.02
181.083	-57
181.302	-161.89
181.522	-90.01
181.742	-62.99
181.961	-182.48
182.181	-154.79
182.401	-158.31
182.621	-1009.68
182.84	-550.91
183.06	-500.79
183.279	-311.07
183.499	-230.63
183.719	-210.78
183.938	-232.17
184.158	-286.27
184.377	-176.94
184.597	-288.61
184.816	-217.26
185.036	-176.08
185.256	-131.97
185.475	-165.55
185.695	-238.92
185.914	-342.16
186.134	-589.09
186.353	-701.34
186.572	-892.53
186.792	-1441.87
187.011	-530.33
187.231	-475.96
187.45	-330.59
187.67	-858.73
187.889	-2251.13
188.108	3884.39
188.328	-1072.92
188.547	-368.11
188.766	-638.47
188.986	-884.27
189.205	-584.18
189.424	-415.29
189.644	-1338.93
189.863	-1463.61
190.082	-935.37
190.302	-2157.81
190.521	-1416.86
190.74	1230.85
190.959	573.21
191.178	841.44
191.398	737.46
191.617	651.78
191.836	626.6
192.055	1260.7
192.274	502.34
192.494	561.23
192.713	582.23
192.932	1168.98
193.151	1070.6
193.37	1852.21
193.589	-1239.2
193.808	-315.15
194.027	-429.56
194.246	-4634.64
194.465	799.77
194.685	1816.55
194.904	889.86
195.123	-1082.97
195.342	-715.07
195.561	-290.05
195.78	-461.46
195.999	17784.51
196.218	747.62
196.436	655.96
196.655	-1976.51
196.874	-965.88
197.093	-1454.24
197.312	-1182.73
197.531	2934.41
197.75	1017.32
197.969	-3439.95
198.188	-669.93
198.407	-211.98
198.625	-249.86
198.844	-214.22
199.063	-227.74
199.282	-398.05
199.501	-257.76
199.719	-188
199.938	-125.86
200.157	-107.84
200.376	-128.47
200.594	-192.56
200.813	-412.8
201.032	-279.19
201.251	-256.01
201.469	-238.64
201.688	-194.03
201.907	-374.57
202.125	-568.39
202.344	22646.43
202.563	4062.96
202.781	637.18
203	1891.27
203.218	1316.43
203.437	1189.37
203.656	549.92
203.874	290.15
204.093	277.18
204.311	362.42
204.53	331.24
204.748	498.92
204.967	287.63
205.185	300.59
205.404	346.14
205.622	244.88
205.841	192.18
206.059	206.86
206.278	286.64
206.496	559.09
206.715	249.87
206.933	293.19
207.151	257.47
207.37	367.03
207.588	346.74
207.806	363.08
208.025	766.91
208.243	-1478.37
208.461	2386.85
208.68	-19902.35
208.898	915.05
209.116	1006.58
209.335	887.61
209.553	846.82
209.771	7698.75
209.989	1557.74
210.208	3072.81
210.426	-5893.52
210.644	3272.19
210.862	-3226.94
211.081	1480.47
211.299	-642.02
211.517	2944.57
211.735	-728.37
211.953	-234985.71
212.171	-4355.42
212.39	-13472.07
212.608	-35758.7
212.826	1222.54
213.044	939.53
213.262	596.28
213.48	3261.81
213.698	393.96
213.916	502.74
214.134	310.93
214.352	696.1
214.57	436.83
214.788	500
215.006	410.51
215.224	357.32
215.442	236.03
215.66	252.4
215.878	223.64
216.096	203.22
216.314	226.32
216.532	440.69
216.75	377.91
216.968	358.15
217.185	932.1
217.403	1501.36
217.621	-4042.32
217.839	-1281.52
218.057	-1467.48
218.275	2547.1
218.492	804.88
218.71	1175.36
218.928	346.82
219.146	327.07
219.363	273.59
219.581	197.01
219.799	147.78
220.017	146.18
220.234	126.23
220.452	108.89
220.67	114.36
220.887	162.92
221.105	193.04
221.323	146.19
221.54	122.97
221.758	139.56
221.976	169.79
222.193	159.09
222.411	118.83
222.629	129.66
222.846	155.85
223.064	163.08
223.281	134.02
223.499	114.42
223.716	127.92
223.934	110.42
224.151	103.75
224.369	77.56
224.586	94.41
224.804	111.78
225.021	108.26
225.239	92.69
225.456	92.29
225.674	90.37
225.891	84.09
226.108	88.51
226.326	78.97
226.543	71.17
226.76	75.41
226.978	64.7
227.195	63.69
227.413	58.17
227.63	50.53
227.847	41.92
228.064	37.18
228.282	33.15
228.499	25.68
228.716	23.75
228.934	20.71
229.151	21.61
229.368	20.9
229.585	17.1
229.802	16.68
230.02	16.95
230.237	18.09
230.454	18.55
230.671	20.74
230.888	23.28
231.105	26.7
231.323	28.05
231.54	26.05
231.757	27.92
231.974	31.55
232.191	31.59
232.408	35
232.625	31.74
232.842	32.29
233.059	32.08
233.276	31.46
233.493	28.26
233.71	25.77
233.927	33.26
234.144	34.79
234.361	32.35
234.578	36.54
234.795	35.57
235.012	36.84
235.229	38.28
235.446	39.38
235.663	40.51
235.879	40.89
236.096	44.92
236.313	42.13
236.53	40.84
236.747	45.81
236.964	40.37
237.181	39.38
237.397	37.44
237.614	35.64
237.831	32.61
238.048	34.31
238.264	36.3
238.481	34.49
238.698	32.49
238.915	28.71
239.131	24.98
239.348	26.22
239.565	26.84
239.781	30.8
239.998	30.43
240.215	30.54
240.431	26.91
240.648	24.54
240.865	23.09
241.081	20.86
241.298	22.65
241.514	23.13
241.731	21.91
241.947	21.45
242.164	20.14
242.38	18.54
242.597	17.09
242.814	17.55
243.03	17.66
243.246	18.27
243.463	18.66
243.679	18.74
243.896	16.99
244.112	17.87
244.329	17.34
244.545	16.62
244.762	17.05
244.978	19.38
245.194	18.25
245.411	15.55
245.627	15.96
245.843	15.46
246.06	14.96
246.276	15.58
246.492	14.12
246.709	13.06
246.925	12.34
247.141	11.86
247.357	10.93
247.574	11.65
247.79	11.78
248.006	11.35
248.222	11.63
248.439	11.09
248.655	11.34
248.871	11.4
249.087	11.82
249.303	12.63
249.519	13.33
249.736	14.63
249.952	14.45
250.168	17.71
250.384	18.8
250.6	19.46
250.816	20.06
251.032	18.29
251.248	19.18
251.464	20.01
251.68	19.77
251.896	20.07
252.112	18.78
252.328	18.2
252.544	17.25
252.76	17.6
252.976	17.15
253.192	17.96
253.408	19.54
253.624	22.02
253.84	21.66
254.056	23.29
254.272	23.28
254.487	23.87
254.703	24.36
254.919	23.36
255.135	20.42
255.351	19.06
255.567	20.04
255.782	20.24
255.998	16.51
256.214	16.75
256.43	13.35
256.646	16.11
256.861	17.89
257.077	17.46
257.293	16.48
257.508	18.19
257.724	20.43
257.94	18.57
258.155	15.97
258.371	14.67
258.587	13.87
258.802	13.77
259.018	12.86
259.234	10.98
259.449	10.46
259.665	9.82
259.88	9.66
260.096	9.18
260.312	8.57
260.527	8.4
260.743	9.08
260.958	9.35
261.174	10.12
261.389	9.76
261.605	11.04
261.82	11.86
262.036	12.55
262.251	13.76
262.466	13.29
262.682	14.18
262.897	15.94
263.113	16.37
263.328	16.36
263.543	16.48
263.759	16.99
263.974	17.51
264.189	17.73
264.405	18.51
264.62	18.21
264.835	19.27
265.051	18.44
265.266	19.61
265.481	19.72
265.696	20.63
265.912	20.07
266.127	18.96
266.342	16.85
266.557	17.5
266.773	17.84
266.988	16.56
267.203	16.74
267.418	16.99
267.633	16.16
267.848	16.17
268.064	15.19
268.279	14.37
268.494	13.81
268.709	14.14
268.924	13.43
269.139	13.2
269.354	13.02
269.569	11.79
269.784	11.9
269.999	12.73
270.214	12.01
270.429	11.99
270.644	11.23
270.859	11.37
271.074	11.89
271.289	10.93
271.504	10.44
271.719	11.04
271.934	11.1
272.149	10.72
272.363	9.82
272.578	8.72
272.793	8.72
273.008	8.94
273.223	8.62
273.438	8.17
273.653	8.79
273.867	8.57
274.082	7.17
274.297	7.05
274.512	7.14
274.726	7.6
274.941	8.68
275.156	9.55
275.371	10.5
275.585	12.33
275.8	12.61
276.015	12.73
276.229	13.21
276.444	14.96
276.659	14.81
276.873	14.45
277.088	13.68
277.302	14.13
277.517	14.97
277.732	16.5
277.946	15.42
278.161	15.72
278.375	14.76
278.59	15.11
278.804	13.89
279.019	14.23
279.233	14.42
279.448	14.91
279.662	13.3
279.877	10.9
280.091	9.1
280.306	7.83
280.52	7.91
280.735	6.98
280.949	6.85
281.163	7.36
281.378	6.97
281.592	6.98
281.806	7.05
282.021	7.2
282.235	9.06
282.449	9.48
282.664	10.92
282.878	10.11
283.092	11.52
283.307	10.92
283.521	11.61
283.735	12.22
283.949	13.15
284.164	12.95
284.378	13.7
284.592	12.28
284.806	11.81
285.02	11.24
285.234	10.65
285.449	9.5
285.663	9.47
285.877	8.99
286.091	8.55
286.305	7.68
286.519	7.3
286.733	6.13
286.947	6.38
287.161	6.52
287.375	6.85
287.589	7.25
287.803	8.86
288.017	9.01
288.231	9.18
288.445	9.48
288.659	10.32
288.873	10.53
289.087	11.61
289.301	11.48
289.515	10.71
289.729	9.6
289.943	11.12
290.157	10.77
290.371	12.03
290.584	11.37
290.798	11.01
291.012	11.74
291.226	11.66
291.44	12.38
291.654	13.32
291.867	13.98
292.081	14.03
292.295	14.01
292.509	13.48
292.722	12.45
292.936	13.03
293.15	15.03
293.364	13.36
293.577	13.93
293.791	13.23
294.005	13.27
294.218	12.99
294.432	14.54
294.645	15.01
294.859	14.43
295.073	15.15
295.286	15.03
295.5	13.39
295.713	14.48
295.927	13.58
296.14	13.47
296.354	13.34
296.568	13
296.781	12.95
296.994	12.27
297.208	13.05
297.421	12.59
297.635	12.56
297.848	12.43
298.062	11.26
298.275	11.84
298.489	12.24
298.702	11.79
298.915	12.16
299.129	12.66
299.342	12.1
299.555	12.38
299.769	13.32
299.982	13.93
300.195	14.84
300.409	16.5
300.622	16.94
300.835	17.76
301.048	17.64
301.262	17.88
301.475	16.34
301.688	17.83
301.901	17.72
302.115	16.24
302.328	16.7
302.541	16.09
302.754	16.43
302.967	16.09
303.18	16.01
303.393	15.9
303.607	15.93
303.82	16.83
304.033	16.04
304.246	16.6
304.459	17.58
304.672	17.31
304.885	18.4
305.098	17.21
305.311	17.1
305.524	16.73
305.737	17.31
305.95	17.27
306.163	16.27
306.376	15.39
306.589	15.36
306.802	15.86
307.015	15.95
307.228	15.8
307.44	15.2
307.653	15.4
307.866	14.85
308.079	15.71
308.292	16.32
308.505	17.5
308.718	18.11
308.93	16.37
309.143	16.01
309.356	16.2
309.569	15.83
309.781	17.25
309.994	17.28
310.207	18.2
310.42	17.21
310.632	16.67
310.845	16.51
311.058	15.43
311.27	16.18
311.483	15.52
311.696	14.94
311.908	15.57
312.121	14.95
312.333	14.89
312.546	14.04
312.759	14.32
312.971	15.01
313.184	15.45
313.396	16.5
313.609	17.04
313.821	17.75
314.034	18.45
314.246	17.29
314.459	17.58
314.671	17.77
314.884	17.63
315.096	17.02
315.309	16.04
315.521	16.13
315.733	14.88
315.946	13.53
316.158	13.56
316.371	12.61
316.583	13.26
316.795	13.08
317.008	13.92
317.22	15.68
317.432	16.68
317.644	16.33
317.857	14.79
318.069	16.04
318.281	16.74
318.494	16.8
318.706	18.26
318.918	18
319.13	19.06
319.342	19.24
319.555	17.57
319.767	17.48
319.979	18.35
320.191	20.15
320.403	19.92
320.615	20.73
320.827	21.08
321.039	20.23
321.252	19.97
321.464	18.78
321.676	18.26
321.888	18.48
322.1	18.46
322.312	17.17
322.524	15.68
322.736	16.3
322.948	15.76
323.16	15.23
323.372	16.1
323.584	16.59
323.796	16.64
324.007	15.71
324.219	15.13
324.431	15.95
324.643	16.89
324.855	17.48
325.067	17.19
325.279	17.5
325.491	17.91
325.702	16.95
325.914	17.01
326.126	17.57
326.338	18
326.55	18.37
326.761	18.4
326.973	18.78
327.185	19.91
327.396	20.52
327.608	21.24
327.82	20.88
328.032	21.52
328.243	20.68
328.455	21.52
328.666	22.82
328.878	23.56
329.09	23.17
329.301	22.46
329.513	22.2
329.725	22.61
329.936	22.26
330.148	23.04
330.359	22.64
330.571	24.43
330.782	23.91
330.994	23.94
331.205	24.17
331.417	24.35
331.628	25.85
331.84	26.2
332.051	26.12
332.262	26.13
332.474	25.99
332.685	27.37
332.897	27.17
333.108	28.42
333.319	27.21
333.531	27.46
333.742	27.97
333.953	27.07
334.165	26.72
334.376	26.73
334.587	26.2
334.799	26.79
335.01	25.98
335.221	25.57
335.432	23.69
335.644	23.39
335.855	23.36
336.066	23.49
336.277	23.7
336.488	23.77
336.7	23.63
336.911	24.45
337.122	24.04
337.333	24.51
337.544	24.88
337.755	25.25
337.966	26.21
338.177	26.1
338.388	25.61
338.599	26.18
338.811	25.61
339.022	25.99
339.233	26.3
339.444	26.77
339.655	25.56
339.866	25.35
340.076	26.63
340.287	26.96
340.498	27.07
340.709	27.09
340.92	26.18
341.131	26.36
341.342	26.48
341.553	25.76
341.764	25.24
341.975	26.15
342.185	26.09
342.396	24.52
342.607	24.23
342.818	24.11
343.029	24.34
343.239	24.7
343.45	24.97
343.661	24.22
343.872	23.92
344.082	24.22
344.293	23.82
344.504	24.29
344.714	24.28
344.925	23.7
345.136	23.44
345.346	22.27
345.557	22.75
345.768	23.03
345.978	22.41
346.189	23.1
346.399	22.55
346.61	23.03
346.821	23.03
347.031	23.4
347.242	23.45
347.452	23.45
347.663	24.82
347.873	24.67
348.084	23.68
348.294	25.48
348.504	25.18
348.715	25.8
348.925	25.23
349.136	24.72
349.346	24.48
349.557	24.95
349.767	25.65
349.977	24.9
350.188	25.33
350.398	25.9
350.608	24.76
350.819	24.97
351.029	24.79
351.239	24.69
351.449	25.18
351.66	25.62
351.87	26.41
352.08	25.66
352.29	25.83
352.501	24.81
352.711	24.73
352.921	25.31
353.131	24.53
353.341	23.92
353.552	24.34
353.762	23.98
353.972	23.77
354.182	23.02
354.392	23.32
354.602	23.95
354.812	24.48
355.022	24.94
355.232	24.45
355.442	25.3
355.652	25.19
355.862	24.86
356.072	24.96
356.282	24.8
356.492	24.84
356.702	24.93
356.912	24.78
357.122	24.62
357.332	24.29
357.542	24.35
357.752	23.82
357.962	24.29
358.171	24.82
358.381	24.59
358.591	24.6
358.801	23.92
359.011	23.94
359.221	23.24
359.43	23.82
359.64	24.16
359.85	24.23
360.06	24.15
360.269	24.13
360.479	23.6
360.689	23.34
360.899	23.75
361.108	23.92
361.318	23.98
361.528	24.23
361.737	23.59
361.947	22.75
362.156	22.36
362.366	22.39
362.576	22.45
362.785	22.45
362.995	22.7
363.204	22.11
363.414	22.27
363.623	21.75
363.833	21.84
364.042	21.73
364.252	21.88
364.461	21.68
364.671	21.94
364.88	21.97
365.09	21.93
365.299	22.54
365.509	22.48
365.718	22.34
365.927	22.12
366.137	22.62
366.346	22.96
366.555	22.76
366.765	23.13
366.974	22.81
367.183	22.35
367.393	22.08
367.602	21.23
367.811	21.87
368.021	21.59
368.23	21.9
368.439	20.86
368.648	20.8
368.857	21.03
369.067	21.15
369.276	21.12
369.485	21.39
369.694	21.95
369.903	22.77
370.112	22.05
370.321	22.18
370.531	22.02
370.74	22.47
370.949	21.95
371.158	22.19
371.367	22.5
371.576	22.65
371.785	22.42
371.994	21.59
372.203	21
372.412	21.32
372.621	21.39
372.83	21.75
373.039	21.57
373.248	21.17
373.457	21.21
373.666	20.39
373.874	20.29
374.083	21.09
374.292	21.29
374.501	20.96
374.71	20.77
374.919	21.41
375.128	20.6
375.336	20.84
375.545	21.49
375.754	21.08
375.963	21.13
376.171	21.16
376.38	20.51
376.589	20.91
376.798	20.63
377.006	20.74
377.215	20.5
377.424	20.74
377.632	20.51
377.841	20.51
378.05	20.83
378.258	20.95
378.467	20.78
378.675	20.56
378.884	20.26
379.093	20.38
379.301	20.21
379.51	19.58
379.718	19.73
379.927	19.79
380.135	19.24
380.344	19.05
380.552	19.02
380.761	19.39
380.969	19.26
381.177	19.3
381.386	18.95
381.594	18.93
381.803	18.7
382.011	18.78
382.219	18.15
382.428	18.01
382.636	17.65
382.845	17.43
383.053	16.84
383.261	16.71
383.469	16.59
383.678	16.94
383.886	16.85
384.094	16.75
384.302	16.77
384.511	17.25
384.719	17.49
384.927	17.31
385.135	17.68
385.343	17.7
385.552	18.24
385.76	18.34
385.968	18.59
386.176	18.39
386.384	18.69
386.592	18.55
386.8	18.16
387.008	18.54
387.216	19.04
387.424	18.67
387.633	18.94
387.841	18.56
388.049	18.49
388.257	18.15
388.465	18.12
388.672	18.15
388.88	17.79
389.088	17.95
389.296	17.75
389.504	17.82
389.712	17.99
389.92	17.73
390.128	17.65
390.336	17.68
390.544	18.06
390.751	17.87
390.959	17.76
391.167	18.01
391.375	18.04
391.583	17.91
391.79	17.55
391.998	17.53
392.206	17.78
392.414	17.57
392.621	17.71
392.829	17.64
393.037	18.04
393.244	18.15
393.452	18.26
393.66	18.26
393.867	18.27
394.075	18.44
394.283	18.41
394.49	17.87
394.698	18.19
394.905	17.84
395.113	17.68
395.32	17.59
395.528	17.33
395.735	16.95
395.943	16.91
396.15	16.93
396.358	16.86
396.565	16.73
396.773	17.16
396.98	17.2
397.188	17.25
397.395	17.21
397.602	16.96
397.81	16.79
398.017	17.45
398.225	17.29
398.432	17.32
398.639	17.18
398.847	17.33
399.054	17.16
399.261	16.91
399.468	16.92
399.676	16.92
399.883	17.05
400.09	17.46
400.297	17.3
400.505	17.38
400.712	17.22
400.919	17.64
401.126	17.74
401.333	17.89
401.54	18.03
401.748	18.18
401.955	18.21
402.162	18.14
402.369	18.21
402.576	17.97
402.783	17.95
402.99	18.05
403.197	17.54
403.404	17.2
403.611	17.15
403.818	17.03
404.025	16.99
404.232	16.89
404.439	16.82
404.646	16.57
404.853	16.22
405.06	16.45
405.267	16.31
405.474	16.65
405.681	16.54
405.887	16.66
406.094	16.8
406.301	16.72
406.508	16.63
406.715	16.95
406.922	16.99
407.128	17.14
407.335	16.75
407.542	16.83
407.749	16.92
407.955	17.3
408.162	16.94
408.369	17.08
408.575	17.05
408.782	17.38
408.989	17.3
409.195	17.24
409.402	17.55
409.609	17.65
409.815	17.69
410.022	17.55
410.228	17.17
410.435	17.34
410.642	16.95
410.848	17.21
411.055	16.96
411.261	16.87
411.468	16.96
411.674	16.63
411.881	16.7
412.087	16.85
412.294	16.69
412.5	16.55
412.706	16.55
412.913	16.49
413.119	16.06
413.326	15.81
413.532	16.06
413.738	15.86
413.945	16.12
414.151	15.92
414.357	15.96
414.564	15.96
414.77	16.52
414.976	16.34
415.182	16.87
415.389	16.94
415.595	17.03
415.801	16.58
416.007	16.95
416.214	16.77
416.42	16.94
416.626	16.61
416.832	16.63
417.038	16.4
417.244	16.54
417.45	16.2
417.657	16.18
417.863	16.24
418.069	16.35
418.275	16.15
418.481	16.1
418.687	15.93
418.893	15.98
419.099	15.92
419.305	16.01
419.511	15.86
419.717	15.84
419.923	15.76
420.129	15.77
420.335	15.75
420.541	15.73
420.746	15.86
420.952	15.85
421.158	15.82
421.364	15.77
421.57	15.79
421.776	15.78
421.982	15.65
422.187	15.6
422.393	15.49
422.599	15.39
422.805	15.41
423.01	15.43
423.216	15.39
423.422	15.37
423.628	15.39
423.833	15.27
424.039	15.37
424.245	15.4
424.45	15.56
424.656	15.58
424.862	15.55
425.067	15.52
425.273	15.33
425.478	15.37
425.684	15.37
425.889	15.49
426.095	15.48
426.301	15.32
426.506	15.35
426.712	15.18
426.917	15.18
427.123	15.39
427.328	15.27
427.533	15.33
427.739	15.3
427.944	15.26
428.15	15.05
428.355	15.05
428.561	15.14
428.766	15.18
428.971	15.27
429.177	15.35
429.382	15.33
429.587	15.51
429.793	15.48
429.998	15.7
430.203	15.67
430.408	15.69
430.614	15.93
430.819	15.89
431.024	16.07
431.229	16.04
431.434	16.04
431.64	15.88
431.845	15.92
432.05	16.04
432.255	15.85
432.46	15.82
432.665	15.81
432.87	15.65
433.076	15.74
433.281	15.58
433.486	15.62
433.691	15.53
433.896	15.42
434.101	15.3
434.306	15.38
434.511	15.32
434.716	15.34
434.921	15.3
435.126	15.13
435.331	15.1
435.535	15.22
435.74	15.15
435.945	15.25
436.15	15.4
436.355	15.4
436.56	15.21
436.765	15.25
436.97	15.34
437.174	15.39
437.379	15.6
437.584	15.73
437.789	15.59
437.993	15.67
438.198	15.72
438.403	15.8
438.608	15.87
438.812	15.73
439.017	15.87
439.222	15.78
439.426	15.74
439.631	15.72
439.836	15.51
440.04	15.62
440.245	15.56
440.45	15.44
440.654	15.33
440.859	15.27
441.063	15.35
441.268	15.25
441.472	15.42
441.677	15.49
441.881	15.28
442.086	15.36
442.29	15.25
442.495	15.28
442.699	15.41
442.904	15.39
443.108	15.35
443.312	15.26
443.517	15.3
443.721	15.01
443.925	14.85
444.13	14.99
444.334	14.93
444.538	14.97
444.743	14.86
444.947	14.75
445.151	14.74
445.356	14.68
445.56	14.69
445.764	14.66
445.968	14.78
446.173	14.93
446.377	15.01
446.581	14.91
446.785	14.9
446.989	14.94
447.193	14.93
447.398	15.05
447.602	15.15
447.806	15.3
448.01	15.49
448.214	15.47
448.418	15.41
448.622	15.38
448.826	15.5
449.03	15.52
449.234	15.54
449.438	15.48
449.642	15.4
449.846	15.37
450.05	15.38
450.254	15.13
450.458	15.3
450.662	15.29
450.866	15.22
451.069	15.29
451.273	15.4
451.477	15.27
451.681	15.22
451.885	15.13
452.089	15.21
452.292	15.01
452.496	15.06
452.7	14.79
452.904	14.89
453.107	14.98
453.311	15.02
453.515	14.68
453.719	14.63
453.922	14.76
454.126	14.79
454.33	14.81
454.533	14.8
454.737	14.78
454.94	14.9
455.144	14.81
455.348	14.62
455.551	14.47
455.755	14.58
455.958	14.79
456.162	14.68
456.365	14.61
456.569	14.55
456.772	14.63
456.976	14.57
457.179	14.48
457.383	14.51
457.586	14.71
457.79	14.69
457.993	14.85
458.196	14.8
458.4	14.93
458.603	14.94
458.807	14.97
459.01	15.07
459.213	14.99
459.417	14.86
459.62	14.83
459.823	14.76
460.026	14.74
460.23	14.66
460.433	14.72
460.636	14.68
460.839	14.7
461.042	14.66
461.246	14.68
461.449	14.79
461.652	14.93
461.855	14.85
462.058	14.89
462.261	14.84
462.464	14.84
462.668	14.88
462.871	14.94
463.074	15.22
463.277	15.01
463.48	15.2
463.683	15.22
463.886	15.37
464.089	15.51
464.292	15.57
464.495	15.64
464.698	15.59
464.901	15.67
465.104	15.67
465.306	15.36
465.509	15.52
465.712	15.27
465.915	15.2
466.118	15.1
466.321	14.94
466.524	15.05
466.726	15.22
466.929	15.24
467.132	15.19
467.335	15.09
467.538	15.13
467.74	15.21
467.943	15.2
468.146	15.38
468.348	15.39
468.551	15.43
468.754	15.28
468.956	15.24
469.159	15.37
469.362	15.32
469.564	15.24
469.767	15.17
469.969	15.24
470.172	15.17
470.375	15.07
470.577	14.97
470.78	15.04
470.982	15.12
471.185	15.17
471.387	15.22
471.59	15.19
471.792	15.33
471.995	15.36
472.197	15.24
472.399	15.34
472.602	15.24
472.804	15.35
473.007	15.36
473.209	15.35
473.411	15.22
473.614	15.19
473.816	15.15
474.018	15.23
474.22	15.35
474.423	15.52
474.625	15.5
474.827	15.65
475.03	15.64
475.232	15.68
475.434	15.6
475.636	15.7
475.838	15.69
476.04	15.73
476.243	15.6
476.445	15.61
476.647	15.44
476.849	15.37
477.051	15.22
477.253	15.34
477.455	15.27
477.657	15.2
477.859	15.1
478.061	15
478.263	15.01
478.465	15.16
478.667	15.13
478.869	15.17
479.071	15.11
479.273	15.16
479.475	14.91
479.677	14.94
479.879	14.86
480.081	14.87
480.283	14.83
480.485	14.67
480.686	14.6
480.888	14.61
481.09	14.45
481.292	14.45
481.494	14.43
481.695	14.56
481.897	14.46
482.099	14.55
482.301	14.55
482.502	14.53
482.704	14.6
482.906	14.59
483.107	14.58
483.309	14.58
483.511	14.61
483.712	14.54
483.914	14.49
484.115	14.48
484.317	14.44
484.519	14.43
484.72	14.43
484.922	14.39
485.123	14.4
485.325	14.35
485.526	14.34
485.728	14.26
485.929	14.28
486.131	14.32
486.332	14.37
486.534	14.38
486.735	14.42
486.936	14.34
487.138	14.36
487.339	14.31
487.541	14.31
487.742	14.35
487.943	14.42
488.144	14.39
488.346	14.33
488.547	14.32
488.748	14.4
488.95	14.31
489.151	14.4
489.352	14.44
489.553	14.45
489.755	14.47
489.956	14.45
490.157	14.45
490.358	14.52
490.559	14.64
490.76	14.56
490.961	14.49
491.163	14.6
491.364	14.64
491.565	14.57
491.766	14.6
491.967	14.6
492.168	14.68
492.369	14.69
492.57	14.7
492.771	14.67
492.972	14.72
493.173	14.79
493.374	14.69
493.575	14.73
493.776	14.77
493.976	14.89
494.177	14.93
494.378	14.95
494.579	14.91
494.78	15.13
494.981	15.01
495.182	15.05
495.382	15.06
495.583	15.15
495.784	15.03
495.985	15.04
496.185	14.99
496.386	14.94
496.587	15.02
496.788	14.97
496.988	14.8
497.189	14.87
497.39	14.95
497.59	14.92
497.791	14.99
497.992	15.06
498.192	15.16
498.393	15.22
498.593	15.26
498.794	15.07
498.994	15.18
499.195	15.26
499.395	15.39
499.596	15.34
499.796	15.38
499.997	15.3
500.197	15.41
500.398	15.4
500.598	15.37
500.799	15.36
500.999	15.49
501.199	15.52
501.4	15.58
501.6	15.53
501.801	15.76
502.001	15.78
502.201	15.95
502.402	15.94
502.602	15.95
502.802	15.92
503.002	16.01
503.203	16.02
503.403	16.04
503.603	15.98
503.803	16.1
504.003	16.01
504.204	16.17
504.404	16.16
504.604	16.06
504.804	16.23
505.004	16.23
505.204	16.25
505.404	16.36
505.604	16.51
505.804	16.47
506.005	16.42
506.205	16.3
506.405	16.25
506.605	16.33
506.805	16.41
507.005	16.27
507.204	16.31
507.404	16.34
507.604	16.34
507.804	16.25
508.004	16.33
508.204	16.33
508.404	16.5
508.604	16.43
508.804	16.44
509.003	16.51
509.203	16.48
509.403	16.52
509.603	16.48
509.803	16.55
510.002	16.61
510.202	16.61
510.402	16.72
510.602	16.75
510.801	16.77
511.001	16.72
511.201	16.63
511.4	16.64
511.6	16.62
511.8	16.71
511.999	16.8
512.199	16.76
512.398	16.78
512.598	16.82
512.797	16.9
512.997	17.07
513.197	17.12
513.396	17.27
513.596	17.5
513.795	17.66
513.994	17.67
514.194	17.59
514.393	17.77
514.593	17.89
514.792	17.88
514.992	17.75
515.191	17.56
515.39	17.56
515.59	17.54
515.789	17.5
515.988	17.51
516.188	17.55
516.387	17.64
516.586	17.48
516.786	17.6
516.985	17.58
517.184	17.68
517.383	17.89
517.582	17.92
517.782	17.98
517.981	17.92
518.18	17.88
518.379	17.98
518.578	17.9
518.777	18.02
518.976	17.98
519.176	18.01
519.375	18.07
519.574	18
519.773	18.08
519.972	18.09
520.171	18.14
520.37	18.26
520.569	18.28
520.768	18.3
520.967	18.32
521.166	18.24
521.365	18.29
521.564	18.27
521.762	18.36
521.961	18.3
522.16	18.14
522.359	18.11
522.558	18.08
522.757	17.99
522.956	18.05
523.154	18
523.353	18.19
523.552	18.17
523.751	18.27
523.949	18.23
524.148	18.38
524.347	18.53
524.546	18.53
524.744	18.38
524.943	18.54
525.142	18.44
525.34	18.56
525.539	18.5
525.737	18.55
525.936	18.55
526.135	18.53
526.333	18.38
526.532	18.5
526.73	18.52
526.929	18.6
527.127	18.57
527.326	18.63
527.524	18.57
527.723	18.62
527.921	18.61
528.12	18.6
528.318	18.66
528.516	18.69
528.715	18.61
528.913	18.58
529.112	18.61
529.31	18.54
529.508	18.58
529.707	18.6
529.905	18.58
530.103	18.63
530.301	18.64
530.5	18.64
530.698	18.74
530.896	18.85
531.094	19.01
531.293	19.03
531.491	19.17
531.689	19.26
531.887	19.38
532.085	19.45
532.283	19.44
532.481	19.53
532.68	19.5
532.878	19.45
533.076	19.45
533.274	19.34
533.472	19.43
533.67	19.43
533.868	19.36
534.066	19.34
534.264	19.31
534.462	19.32
534.66	19.22
534.858	19.33
535.056	19.34
535.253	19.26
535.451	19.4
535.649	19.4
535.847	19.55
536.045	19.59
536.243	19.63
536.441	19.82
536.638	19.85
536.836	19.97
537.034	20.02
537.232	20.07
537.43	20.34
537.627	20.51
537.825	20.54
538.023	20.48
538.22	20.66
538.418	20.72
538.616	20.69
538.813	20.9
539.011	21.06
539.209	21.12
539.406	21.16
539.604	21.17
539.801	21.1
539.999	21.17
540.196	21.18
540.394	21.16
540.591	21.09
540.789	20.96
540.986	20.81
541.184	20.69
541.381	20.65
541.579	20.66
541.776	20.6
541.974	20.58
542.171	20.52
542.368	20.51
542.566	20.54
542.763	20.66
542.96	20.8
543.158	20.89
543.355	20.96
543.552	21.03
543.75	21.2
543.947	21.16
544.144	21.12
544.341	21.28
544.539	21.34
544.736	21.32
544.933	21.21
545.13	21.2
545.327	21.21
545.524	21.24
545.722	21.39
545.919	21.26
546.116	21.48
546.313	21.63
546.51	21.59
546.707	21.67
546.904	21.76
547.101	21.85
547.298	21.95
547.495	22.04
547.692	22.07
547.889	22.02
548.086	22.21
548.283	22.26
548.48	22.42
548.677	22.43
548.874	22.42
549.07	22.46
549.267	22.43
549.464	22.46
549.661	22.5
549.858	22.58
550.055	22.7
550.251	22.54
550.448	22.43
550.645	22.37
550.842	22.52
551.038	22.5
551.235	22.42
551.432	22.54
551.628	22.47
551.825	22.61
552.022	22.69
552.218	22.68
552.415	22.88
552.612	22.96
552.808	22.92
553.005	22.89
553.201	23.03
553.398	23.1
553.594	23.17
553.791	23.44
553.987	23.6
554.184	23.62
554.38	23.56
554.577	23.43
554.773	23.39
554.97	23.56
555.166	23.69
555.362	23.74
555.559	23.81
555.755	23.83
555.952	23.63
556.148	23.57
556.344	23.54
556.541	23.58
556.737	23.85
556.933	24.13
557.129	24.16
557.326	24.14
557.522	24.24
557.718	24.44
557.914	24.43
558.11	24.41
558.307	24.32
558.503	24.55
558.699	24.6
558.895	24.59
559.091	24.41
559.287	24.33
559.483	24.46
559.679	24.6
559.876	24.5
560.072	24.58
560.268	24.73
560.464	24.73
560.66	24.57
560.856	24.69
561.052	24.66
561.247	24.75
561.443	24.77
561.639	24.72
561.835	24.6
562.031	24.55
562.227	24.61
562.423	24.61
562.619	24.72
562.815	24.98
563.01	25.07
563.206	25.16
563.402	25.17
563.598	25.19
563.793	25.25
563.989	25.29
564.185	25.3
564.381	25.32
564.576	25.3
564.772	25.37
564.968	25.45
565.163	25.38
565.359	25.34
565.555	25.39
565.75	25.47
565.946	25.48
566.141	25.4
566.337	25.64
566.532	25.65
566.728	25.81
566.923	25.8
567.119	25.75
567.314	25.79
567.51	25.82
567.705	25.8
567.901	25.84
568.096	25.94
568.292	26.21
568.487	26.1
568.682	26.16
568.878	26.06
569.073	26.1
569.268	26.05
569.464	26.11
569.659	26.24
569.854	26.41
570.05	26.47
570.245	26.45
570.44	26.51
570.635	26.63
570.831	26.58
571.026	26.72
571.221	26.77
571.416	26.73
571.611	26.71
571.806	26.67
572.002	26.61
572.197	26.65
572.392	26.62
572.587	26.53
572.782	26.6
572.977	26.85
573.172	26.88
573.367	26.88
573.562	27.01
573.757	27
573.952	27.13
574.147	27.37
574.342	27.45
574.537	27.52
574.732	27.58
574.927	27.57
575.121	27.51
575.316	27.59
575.511	27.5
575.706	27.5
575.901	27.56
576.096	27.56
576.29	27.46
576.485	27.63
576.68	27.87
576.875	27.78
577.069	27.74
577.264	27.65
577.459	27.61
577.654	27.73
577.848	27.79
578.043	27.76
578.238	27.64
578.432	27.48
578.627	27.46
578.821	27.44
579.016	27.48
579.21	27.68
579.405	27.74
579.6	27.81
579.794	27.9
579.989	27.96
580.183	28.21
580.378	28.48
580.572	28.71
580.766	28.51
580.961	28.33
581.155	28.5
581.35	28.33
581.544	28.33
581.738	28.19
581.933	28.44
582.127	28.59
582.321	28.6
582.516	28.58
582.71	28.6
582.904	28.77
583.099	28.7
583.293	28.59
583.487	28.86
583.681	28.92
583.875	29.22
584.07	29.1
584.264	29
584.458	28.92
584.652	28.84
584.846	28.7
585.04	28.7
585.234	28.91
585.428	29.01
585.623	28.84
585.817	28.73
586.011	28.72
586.205	28.78
586.399	28.78
586.593	28.81
586.787	28.9
586.981	28.8
587.174	28.88
587.368	28.8
587.562	28.89
587.756	29.09
587.95	29.25
588.144	29.05
588.338	29.17
588.532	29.33
588.725	29.16
588.919	28.99
589.113	29
589.307	28.98
589.501	28.99
589.694	28.99
589.888	28.83
590.082	28.97
590.275	28.95
590.469	28.93
590.663	28.58
590.856	28.94
591.05	29.12
591.244	29.24
591.437	29.25
591.631	29.31
591.824	29.16
592.018	29.36
592.212	29.38
592.405	29.55
592.599	29.58
592.792	29.75
592.986	29.56
593.179	29.52
593.372	29.54
593.566	29.58
593.759	29.54
593.953	29.63
594.146	29.33
594.339	29.18
594.533	29.3
594.726	29.05
594.92	29.17
595.113	29.29
595.306	29.4
595.499	29.4
595.693	29.27
595.886	29.42
596.079	29.68
596.272	29.81
596.466	30.05
596.659	29.92
596.852	29.98
597.045	29.98
597.238	29.85
597.431	29.78
597.624	29.72
597.818	29.75
598.011	29.71
598.204	29.47
598.397	29.62
598.59	29.36
598.783	29.5
598.976	29.63
599.169	29.6
599.362	29.78
599.555	29.94
599.748	30.2
599.941	30.18
600.134	30.15
600.326	30.4
600.519	30.15
600.712	30.26
600.905	30.06
601.098	30.15
601.291	30.13
601.483	30.07
601.676	30.05
601.869	30.02
602.062	30.14
602.255	30.07
602.447	30.09
602.64	30.21
602.833	30.36
603.025	30.37
603.218	30.24
603.411	30.15
603.603	30.17
603.796	30.21
603.989	30.1
604.181	30.09
604.374	30.19
604.566	30
604.759	30
604.951	29.85
605.144	30.02
605.336	30.09
605.529	30.07
605.721	30.03
605.914	29.97
606.106	30.09
606.299	30.24
606.491	30.23
606.683	30.54
606.876	30.42
607.068	30.52
607.26	30.44
607.453	30.54
607.645	30.77
607.837	30.8
608.03	30.78
608.222	30.71
608.414	30.52
608.606	30.6
608.799	30.38
608.991	30.58
609.183	30.59
609.375	30.47
609.567	30.26
609.759	30.39
609.952	30.49
610.144	30.46
610.336	30.56
610.528	30.57
610.72	30.52
610.912	30.66
611.104	30.72
611.296	30.69
611.488	30.75
611.68	31.13
611.872	31.07
612.064	31.24
612.256	31.38
612.448	31.35
612.64	31.44
612.832	31.59
613.023	31.64
613.215	31.62
613.407	31.82
613.599	32.19
613.791	32.07
613.983	32
614.174	31.77
614.366	31.95
614.558	31.86
614.75	31.91
614.941	31.6
615.133	31.85
615.325	31.88
615.516	31.74
615.708	31.22
615.9	30.78
616.091	30.9
616.283	30.95
616.475	30.75
616.666	30.9
616.858	31
617.049	31.17
617.241	30.79
617.432	30.78
617.624	30.99
617.815	31.07
618.007	31.48
618.198	31.67
618.39	31.54
618.581	31.37
618.773	31.44
618.964	31.29
619.155	31.4
619.347	31.5
619.538	31.53
619.729	31.53
619.921	31.77
620.112	31.67
620.303	31.69
620.494	31.82
620.686	32.05
620.877	31.99
621.068	32.11
621.259	31.98
621.451	32.05
621.642	31.84
621.833	31.7
622.024	31.74
622.215	31.78
622.406	31.58
622.597	31.56
622.788	31.7
622.98	31.66
623.171	31.66
623.362	32.02
623.553	32.16
623.744	32.18
623.935	32.15
624.126	32.19
624.317	32.26
624.508	32.27
624.698	32.54
624.889	32.52
625.08	32.97
625.271	33.13
625.462	32.86
625.653	32.48
625.844	32.54
626.034	32.44
626.225	32.15
626.416	32.13
626.607	32.21
626.798	32.13
626.988	31.99
627.179	31.74
627.37	31.42
627.56	31.68
627.751	32.01
627.942	32.07
628.132	32.02
628.323	32.23
628.514	32.16
628.704	31.96
628.895	31.88
629.085	32.07
629.276	32.03
629.466	32.22
629.657	31.9
629.847	31.89
630.038	31.83
630.228	32.11
630.419	32.07
630.609	32.11
630.8	31.98
630.99	31.88
631.181	31.75
631.371	31.83
631.561	32.13
631.752	32.47
631.942	32.29
632.132	32.37
632.323	32.24
632.513	32.44
632.703	32.49
632.893	32.76
633.084	32.6
633.274	32.51
633.464	32.33
633.654	32
633.844	31.77
634.034	31.81
634.225	31.89
634.415	31.89
634.605	31.88
634.795	31.82
634.985	32.1
635.175	32.36
635.365	32.35
635.555	32.64
635.745	32.64
635.935	32.56
636.125	32.37
636.315	32.33
636.505	32.46
636.695	32.18
636.885	32.12
637.075	31.81
637.265	32.06
637.455	32.19
637.644	32.19
637.834	32.41
638.024	32.53
638.214	32.91
638.404	32.88
638.593	32.85
638.783	33.14
638.973	33.55
639.163	33.46
639.352	33.29
639.542	33.43
639.732	33.43
639.921	33.64
640.111	33.75
640.301	33.64
640.49	33.41
640.68	33.62
640.87	33.49
641.059	33.45
641.249	33.73
641.438	33.81
641.628	33.86
641.817	33.74
642.007	33.69
642.196	33.45
642.386	33.42
642.575	34.03
642.764	33.77
642.954	33.73
643.143	33.81
643.333	33.87
643.522	33.5
643.711	33.25
643.901	33.28
644.09	33.33
644.279	33.78
644.469	33.99
644.658	33.54
644.847	33.66
645.036	33.83
645.226	33.39
645.415	32.99
645.604	33.27
645.793	33.38
645.982	33.2
646.171	32.73
646.361	32.95
646.55	33.06
646.739	33.17
646.928	33.14
647.117	33.21
647.306	33.35
647.495	33.55
647.684	33.68
647.873	33.92
648.062	34.28
648.251	34.6
648.44	34.14
648.629	34.25
648.818	34.44
649.007	34.27
649.196	34.21
649.384	34.17
649.573	34.22
649.762	34.13
649.951	33.95
650.14	33.78
650.328	33.63
650.517	33.75
650.706	33.39
650.895	33.3
651.083	33.71
651.272	33.27
651.461	33.39
651.65	33.77
651.838	33.23
652.027	33.2
652.216	33.1
652.404	33.37
652.593	33.35
652.781	33.3
652.97	33.55
653.158	33.29
653.347	33.99
653.535	34.03
653.724	33.19
653.912	33.89
654.101	34.09
654.289	34.19
654.478	33.96
654.666	33.99
654.855	34.25
655.043	34.02
655.231	33.7
655.42	33.63
655.608	33.63
655.796	34.21
655.985	33.92
656.173	33.76
656.361	33.6
656.55	33.63
656.738	33.58
656.926	33.67
657.114	33.82
657.302	34.36
657.491	33.84
657.679	33.78
657.867	33.57
658.055	33.5
658.243	33.31
658.431	33.21
658.619	33.2
658.807	33.21
658.996	33.19
659.184	32.8
659.372	32.67
659.56	32.83
659.748	32.5
659.936	32.55
660.124	32.64
660.311	32.98
660.499	33.09
660.687	33.11
660.875	33.27
661.063	33.3
661.251	33.34
661.439	33.4
661.627	33.41
661.814	33.85
662.002	33.51
662.19	33.76
662.378	33.57
662.565	33.91
662.753	34.17
662.941	33.94
663.129	33.78
663.316	34.41
663.504	34.15
663.692	34.67
663.879	35
664.067	35.56
664.254	35.36
664.442	35.37
664.63	35.04
664.817	34.91
665.005	34.93
665.192	35.21
665.38	35.1
665.567	35.41
665.755	35.22
665.942	35.04
666.13	35.03
666.317	34.99
666.504	34.85
666.692	35.28
666.879	35.17
667.067	35.47
667.254	35.09
667.441	34.76
667.629	34.54
667.816	34.58
668.003	34.35
668.19	34.16
668.378	34.19
668.565	34.1
668.752	33.52
668.939	33.28
669.127	33.3
669.314	33.38
669.501	33.3
669.688	33.66
669.875	33.66
670.062	33.88
670.249	34.25
670.436	34.16
670.623	34.42
670.81	34.7
670.997	34.97
671.184	34.83
671.371	35.19
671.558	35.41
671.745	35.13
671.932	35.3
672.119	35.13
672.306	34.77
672.493	35.34
672.68	35.55
672.867	36.06
673.054	36.17
673.24	36.18
673.427	35.76
673.614	35.72
673.801	36.25
673.988	36.11
674.174	36.18
674.361	36.66
674.548	36.22
674.734	36.16
674.921	35.62
675.108	35.97
675.294	35.48
675.481	35.64
675.668	35.45
675.854	34.72
676.041	34.4
676.227	34.43
676.414	34.39
676.601	34.67
676.787	34.48
676.974	34.4
677.16	33.99
677.347	34.41
677.533	34.25
677.719	34.17
677.906	34.01
678.092	34.11
678.279	34
678.465	33.67
678.651	33.73
678.838	33.51
679.024	33.59
679.21	33.63
679.397	33.64
679.583	33.73
679.769	34.21
679.955	34.3
680.142	34.32
680.328	34.75
680.514	34.78
680.7	34.17
680.886	34.43
681.073	34.46
681.259	34.33
681.445	34.32
681.631	34.31
681.817	33.98
682.003	34.22
682.189	34.22
682.375	33.66
682.561	33.71
682.747	34.5
682.933	34.64
683.119	34.92
683.305	34.98
683.491	34.9
683.677	34.94
683.863	35.41
684.049	35.88
684.235	36.08
684.42	36.02
684.606	36.1
684.792	36
684.978	35.91
685.164	35.6
685.349	35.67
685.535	35.9
685.721	35.67
685.907	35.58
686.092	35.34
686.278	35.19
686.464	35.43
686.649	35.41
686.835	35.15
687.021	35.3
687.206	35.49
687.392	35.21
687.577	35.23
687.763	35.62
687.948	35.02
688.134	34.79
688.319	35.13
688.505	35.22
688.69	35.28
688.876	35.3
689.061	35.33
689.247	35.06
689.432	35.34
689.618	34.99
689.803	34.7
689.988	35.31
690.174	35.3
690.359	35.1
690.544	35.06
690.73	34.97
690.915	34.91
691.1	34.72
691.285	35.01
691.471	35.64
691.656	35.92
691.841	35.93
692.026	35.96
692.211	36.41
692.396	36.67
692.582	36.57
692.767	36.7
692.952	36.91
693.137	37.16
693.322	37.06
693.507	36.49
693.692	36.46
693.877	36.42
694.062	36.95
694.247	36.73
694.432	36.75
694.617	37.09
694.802	37.3
694.987	37.25
695.172	36.89
695.357	37.1
695.541	36.89
695.726	37.05
695.911	37.87
696.096	36.96
696.281	36.92
696.466	36.48
696.65	36.14
696.835	36
697.02	35.61
697.204	35.99
697.389	35.89
697.574	35.76
697.759	35.49
697.943	35.01
698.128	34.85
698.312	34.47
698.497	34.16
698.682	33.87
698.866	33.85
699.051	34.13
699.235	33.9
699.42	33.85
699.604	33.73
699.789	33.73
699.973	33.49
700.158	33.75
700.342	34.07
700.527	34.26
700.711	34.77
700.895	34.63
701.08	34.79
701.264	34.92
701.448	35.27
701.633	35.69
701.817	35.81
702.001	36.6
702.186	36.35
702.37	36.18
702.554	36.46
702.738	36.7
702.923	36.79
703.107	36.76
703.291	37.01
703.475	36.48
703.659	36.61
703.843	37.06
704.027	36.87
704.212	36.5
704.396	37.2
704.58	37.2
704.764	37.06
704.948	36.87
705.132	36.49
705.316	36.48
705.5	37.4
705.684	38.27
705.868	37.59
706.052	37.77
706.235	38.41
706.419	38.25
706.603	38.37
706.787	38.68
706.971	39.03
707.155	39.01
707.339	39.41
707.522	39.02
707.706	38.11
707.89	38.73
708.074	38.24
708.257	38.41
708.441	38.46
708.625	38.89
708.808	38.45
708.992	38.37
709.176	38.44
709.359	37.86
709.543	37.7
709.727	37.34
709.91	36.94
710.094	36.51
710.277	36.76
710.461	36.51
710.644	36.27
710.828	36.27
711.011	36.59
711.195	36.81
711.378	36.8
711.562	36.79
711.745	37.31
711.928	37.19
712.112	37.48
712.295	37.74
712.478	37.51
712.662	37.82
712.845	38.35
713.028	38.05
713.212	38.28
713.395	38.25
713.578	38.05
713.761	37.8
713.945	37.79
714.128	37.92
714.311	37.53
714.494	37.57
714.677	37.18
714.86	36.78
715.043	36.78
715.227	36.26
715.41	36.19
715.593	36.5
715.776	36.62
715.959	37.11
716.142	37.04
716.325	36.77
716.508	37.25
716.691	37.61
716.874	37.55
717.057	37.38
717.239	37.76
717.422	38.31
717.605	38.14
717.788	38.09
717.971	38.18
718.154	38.57
718.337	38.81
718.519	38.85
718.702	39.35
718.885	38.97
719.068	39.51
719.25	39.5
719.433	38.91
719.616	38.87
719.798	37.88
719.981	38.15
720.164	38.48
720.346	38.49
720.529	38.41
720.712	37.76
720.894	38.38
721.077	37.82
721.259	37.81
721.442	38.47
721.624	38.31
721.807	39.46
721.989	38.77
722.172	38.84
722.354	39.11
722.537	38.79
722.719	37.83
722.901	37.88
723.084	38.48
723.266	38.17
723.448	38.54
723.631	38.94
723.813	39.12
723.995	39.09
724.178	38.1
724.36	38.09
724.542	37.92
724.724	38.8
724.907	39.11
725.089	38.43
725.271	39.36
725.453	38.79
725.635	38.72
725.817	39.5
725.999	39.61
726.181	40.5
726.364	40.49
726.546	40.9
726.728	40.74
726.91	40.43
727.092	40.87
727.274	40.56
727.456	40.08
727.638	40.24
727.819	39.31
728.001	39.24
728.183	39.26
728.365	38.65
728.547	38.18
728.729	38.06
728.911	37.73
729.093	37.83
729.274	36.47
729.456	36.68
729.638	36.45
729.82	37.14
730.001	37.25
730.183	37.22
730.365	38.13
730.546	38.82
730.728	38.15
730.91	38.82
731.091	38.72
731.273	39.43
731.455	39.19
731.636	39.47
731.818	38.89
731.999	38.29
732.181	37.93
732.362	37.38
732.544	37.43
732.725	38.1
732.907	37.55
733.088	37.25
733.27	38.19
733.451	38.54
733.633	39.02
733.814	39.26
733.995	40.46
734.177	40.46
734.358	40.4
734.539	40.58
734.721	40.45
734.902	40.58
735.083	40.74
735.264	40.9
735.446	41.12
735.627	39.97
735.808	39.64
735.989	39.3
736.17	39.83
736.351	39.76
736.533	39.23
736.714	38.86
736.895	39.17
737.076	39.69
737.257	39.04
737.438	38.38
737.619	38.84
737.8	39.12
737.981	39.37
738.162	39.57
738.343	40.13
738.524	40.02
738.705	40.04
738.886	40.21
739.067	39.6
739.247	39.52
739.428	39.9
739.609	40.03
739.79	40.62
739.971	39.55
740.151	38.71
740.332	39.07
740.513	39.37
740.694	39.33
740.874	39.2
741.055	40.18
741.236	39.76
741.417	40.28
741.597	39.78
741.778	39.29
741.958	39.75
742.139	40.58
742.32	40.16
742.5	40.23
742.681	41.06
742.861	40.5
743.042	40.29
743.222	41.14
743.403	40.34
743.583	41.02
743.764	41.82
743.944	42.06
744.124	41.85
744.305	41.55
744.485	40.77
744.666	40.08
744.846	40.49
745.026	41.36
745.207	41.18
745.387	41.95
745.567	43.25
745.747	42.4
745.928	42.49
746.108	42.62
746.288	42.62
746.468	43.32
746.648	43.65
746.829	43.06
747.009	42.15
747.189	42.91
747.369	42.4
747.549	41.33
747.729	41.56
747.909	42.28
748.089	41.14
748.269	40.98
748.449	41.09
748.629	41.32
748.809	42.25
748.989	42.5
749.169	41.94
749.349	42.52
749.529	42.05
749.709	40.41
749.889	40.15
750.068	40.69
750.248	41.58
750.428	41.98
750.608	42.81
750.788	42.34
750.967	41.17
751.147	41.21
751.327	41.13
751.507	40.67
751.686	42.33
751.866	42.16
752.046	41.6
752.225	41.19
752.405	41.16
752.585	40.82
752.764	40.29
752.944	40.66
753.123	40.02
753.303	39.46
753.482	40.41
753.662	41.14
753.841	40.71
754.021	42.13
754.2	42.62
754.38	42.26
754.559	41.64
754.739	42.08
754.918	42.29
755.097	42.79
755.277	43.27
755.456	43.7
755.635	43.04
755.815	43.11
755.994	42.52
756.173	41.88
756.352	40.72
756.532	40.92
756.711	40.34
756.89	39.68
757.069	40.52
757.248	40.5
757.427	39.74
757.607	39.86
757.786	40.21
757.965	39.81
758.144	39.58
758.323	41.82
758.502	42.34
758.681	43.8
758.86	44.84
759.039	44
759.218	44.25
759.397	44.53
759.576	43.9
759.755	43.93
759.934	44.54
760.113	45.07
760.291	43.35
760.47	42.87
760.649	41.36
760.828	41.65
761.007	40.43
761.186	40.29
761.364	40.62
761.543	40.63
761.722	40.13
761.901	39.43
762.079	40.03
762.258	40.26
762.437	40.33
762.615	40.21
762.794	39.64
762.972	40.6
763.151	40.16
763.33	39.64
763.508	39.26
763.687	38.79
763.865	39.6
764.044	39.33
764.222	39.45
764.401	39.39
764.579	39.47
764.758	39.34
764.936	39.32
765.114	39.13
765.293	38.93
765.471	39.71
765.65	40.54
765.828	40.01
766.006	39.83
766.184	40.33
766.363	40.02
766.541	40.41
766.719	40.51
766.898	40.4
767.076	40.65
767.254	41.14
767.432	41.38
767.61	41.04
767.788	41
767.967	40.71
768.145	40.5
768.323	41.21
768.501	42.22
768.679	43.24
768.857	43.49
769.035	44.61
769.213	45.47
769.391	46.26
769.569	46.44
769.747	47.62
769.925	47.29
770.103	47.28
770.281	46.79
770.459	46.11
770.636	45.27
770.814	45.49
770.992	45.96
771.17	44.99
771.348	44.41
771.525	45.11
771.703	43.19
771.881	44.36
772.059	44.95
772.236	45.24
772.414	46.11
772.592	45.7
772.769	44.83
772.947	44.29
773.125	43.36
773.302	42.44
773.48	42.63
773.657	44.13
773.835	42.8
774.013	44.69
774.19	45.67
774.368	43.33
774.545	43.74
774.723	44.79
774.9	42.93
775.077	44.54
775.255	44.76
775.432	45.1
775.61	45.1
775.787	46
775.964	43.42
776.142	42.97
776.319	45.28
776.496	45.31
776.674	44.89
776.851	45.92
777.028	44.54
777.205	45.08
777.382	44.88
777.56	44.34
777.737	45.95
777.914	46.34
778.091	46.97
778.268	46.59
778.445	47.27
778.622	47.39
778.8	47.34
778.977	48.38
779.154	53.56
779.331	52.3
779.508	52.42
779.685	51.07
779.862	50.92
780.038	49.72
780.215	50.83
780.392	50.31
780.569	50.84
780.746	51.84
780.923	52.34
781.1	47.76
781.277	48.58
781.453	48.48
781.63	47.54
781.807	48.44
781.984	48.4
782.16	47.66
782.337	48.49
782.514	49.14
782.691	50.34
782.867	50.32
783.044	48.61
783.221	49.61
783.397	50.51
783.574	49.99
783.75	51.57
783.927	51.69
784.103	51.19
784.28	49.48
784.456	48.9
784.633	47.27
784.809	48.29
784.986	48.19
785.162	46.23
785.339	44.63
785.515	45.93
785.692	42.5
785.868	42.04
786.044	43.8
786.221	45.7
786.397	44.61
786.573	45.07
786.749	43.51
786.926	45.61
787.102	47.76
787.278	48.85
787.454	48.73
787.631	50.34
787.807	49.9
787.983	47.28
788.159	46.53
788.335	46.54
788.511	46.4
788.687	47.04
788.863	45.58
789.039	46.59
789.216	45.09
789.392	46.27
789.568	45.97
789.744	49.02
789.919	50.13
790.095	49.03
790.271	50.36
790.447	50.36
790.623	50.5
790.799	51.28
790.975	49.74
791.151	51.69
791.327	51.39
791.502	51.59
791.678	49
791.854	50.51
792.03	51.68
792.205	52.28
792.381	51.55
792.557	51.04
792.733	50.59
792.908	50.51
793.084	48.74
793.259	48.34
793.435	47.95
793.611	48.97
793.786	47.68
793.962	47.68
794.137	47.37
794.313	48.29
794.488	49.7
794.664	51.2
794.839	51.01
795.015	52.9
795.19	52.05
795.366	51.18
795.541	50.82
795.716	50.18
795.892	50.53
796.067	48.91
796.242	49.41
796.418	46.42
796.593	46.09
796.768	47.71
796.944	48.34
797.119	48.66
797.294	49.54
797.469	49.96
797.644	50.61
797.82	52.32
797.995	51.43
798.17	50.62
798.345	53.19
798.52	50.42
798.695	49.03
798.87	47.02
799.045	47.35
799.22	48.29
799.395	49.26
799.57	50.86
799.745	49.23
799.92	51.15
800.095	51.43
800.27	51.15
800.445	52.94
800.62	52
800.795	54.09
800.97	54.15
801.145	53.74
801.319	52.88
801.494	51.49
801.669	51.64
801.844	53.42
802.018	54.98
802.193	55.22
802.368	55.3
802.543	55.33
802.717	53.16
802.892	52.93
803.067	53.19
803.241	53.12
803.416	53.52
803.59	54.54
803.765	52.98
803.94	51.57
804.114	51.2
804.289	50.88
804.463	50.83
804.638	49.05
804.812	52.42
804.986	48.99
805.161	48.67
805.335	48.22
805.51	47.15
805.684	48.22
805.858	48.17
806.033	47.33
806.207	47.27
806.381	49.4
806.556	51.32
806.73	47.86
806.904	48.24
807.078	46.51
807.253	47.98
807.427	48.42
807.601	47.17
807.775	47.5
807.949	50.55
808.123	51.24
808.298	49.4
808.472	51.77
808.646	51.86
808.82	52.98
808.994	55.16
809.168	56.08
809.342	58.14
809.516	59.53
809.69	58.04
809.864	55.49
810.038	57.33
810.212	56.98
810.385	53.79
810.559	55.36
810.733	55.41
810.907	56
811.081	54.81
811.255	53.84
811.428	52.93
811.602	53.1
811.776	54.8
811.95	53.92
812.123	54.61
812.297	57.6
812.471	57.48
812.644	58.04
812.818	58.24
812.992	56.25
813.165	54.67
813.339	52.4
813.512	52.94
813.686	51.28
813.86	52.35
814.033	52.25
814.207	52.55
814.38	50.11
814.554	47.48
814.727	48.25
814.9	49.79
815.074	51.04
815.247	52.09
815.421	49.6
815.594	50.23
815.767	47.17
815.941	48.96
816.114	46.97
816.287	48.77
816.46	51.86
816.634	49.88
816.807	51.66
816.98	47.9
817.153	50.32
817.327	52.88
817.5	52.91
817.673	54.2
817.846	52.74
818.019	53.96
818.192	53.47
818.365	54.58
818.538	55.35
818.711	52.57
818.884	55.68
819.057	54.16
819.23	52.29
819.403	49.65
819.576	48.47
819.749	48.29
819.922	47.98
820.095	46.88
820.268	45.37
820.441	44.75
820.614	42.49
820.786	41.24
820.959	41.4
821.132	41.1
821.305	41.28
821.477	40.06
821.65	40.35
821.823	39.98
821.996	39.42
822.168	38.71
822.341	37.54
822.514	37.98
822.686	37.37
822.859	36.32
823.031	35.99
823.204	36
823.376	36.55
823.549	36.44
823.722	35.88
823.894	36.72
824.067	36.71
824.239	37.71
824.411	37.77
824.584	38.37
824.756	38.58
824.929	38.96
825.101	39.53
825.273	39.41
825.446	39.17
825.618	39.15
825.79	39.03
825.963	38.48
826.135	37.79
826.307	37.6
826.479	37.55
826.652	38.09
826.824	37.93
826.996	36.77
827.168	37.23
827.34	37.19
827.512	37.82
827.684	36.36
827.856	37.78
828.029	38.42
828.201	38.75
828.373	38.08
828.545	38.61
828.717	39.05
828.889	40.18
829.061	40.3
829.232	41.39
829.404	41.65
829.576	43.84
829.748	43.56
829.92	44.89
830.092	45.45
830.264	45.76
830.436	46.51
830.607	47.29
830.779	49.53
830.951	49.56
831.123	47.81
831.294	47.32
831.466	44.25
831.638	45.71
831.809	43.38
831.981	45.65
832.153	45.07
832.324	43.24
832.496	43.91
832.667	43.45
832.839	45.29
833.011	45.32
833.182	45.73
833.354	47.82
833.525	48.64
833.697	48.13
833.868	44.53
834.039	47.5
834.211	48.12
834.382	45.76
834.554	44.76
834.725	42.48
834.896	43.19
835.068	43.05
835.239	42.47
835.41	40.17
835.581	42.21
835.753	43.04
835.924	42.48
836.095	42.17
836.266	43.41
836.438	42.1
836.609	43.22
836.78	43.36
836.951	44.9
837.122	44.69
837.293	45.5
837.464	43.64
837.635	44.79
837.806	45.2
837.977	46.31
838.148	50.36
838.319	54.73
838.49	55.51
838.661	57.41
838.832	56.47
839.003	59.8
839.174	61.56
839.345	63.24
839.516	66.12
839.687	67.24
839.857	67.43
840.028	65.8
840.199	62.31
840.37	59.59
840.54	58.22
840.711	55.93
840.882	59.29
841.053	57.21
841.223	55.74
841.394	53.09
841.564	53.69
841.735	52.38
841.906	49.25
842.076	44.78
842.247	49.18
842.417	52.59
842.588	57.36
842.758	55.57
842.929	60.68
843.099	64.21
843.27	65.8
843.44	63.08
843.611	65.27
843.781	60.95
843.951	63.87
844.122	62.97
844.292	62.08
844.462	64.53
844.633	58.81
844.803	57.58
844.973	58.25
845.144	58.53
845.314	63.84
845.484	58.52
845.654	66.65
845.824	72.85
845.995	77.31
846.165	73.12
846.335	71.78
846.505	75.26
846.675	77.15
846.845	74.05
847.015	75.54
847.185	73.87
847.355	78.91
847.525	80.51
847.695	92.38
847.865	88.8
848.035	92.73
848.205	88.67
848.375	100.74
848.545	84.2
848.715	84.62
848.884	78.4
849.054	80.15
849.224	85.6
849.394	85.14
849.564	71.39
849.733	80.6
849.903	81.42
850.073	82.43
850.243	77.2
850.412	79.2
850.582	83.56
850.752	88.1
850.921	83.74
851.091	84.79
851.26	84.65
851.43	83.27
851.599	72.79
851.769	71.65
851.939	76.58
852.108	79.58
852.278	85.46
852.447	81.75
852.616	81.59
852.786	86.28
852.955	81.59
853.125	92.82
853.294	93.11
853.463	93.67
853.633	101.6
853.802	96.95
853.971	102.71
854.141	106.84
854.31	98
854.479	91.87
854.648	96.01
854.818	88.18
854.987	81.76
855.156	89.8
855.325	92.37
855.494	93.38
855.663	90.04
855.832	78.6
856.001	80.81
856.171	96.39
856.34	102.93
856.509	100.29
856.678	122.06
856.847	119.32
857.016	117.86
857.185	109.25
857.353	105.93
857.522	108.57
857.691	108.08
857.86	106.83
858.029	90.93
858.198	91.41
858.367	87.01
858.535	76.21
858.704	70.27
858.873	67.18
859.042	72.2
859.21	83.14
859.379	91.78
859.548	86.91
859.717	82.27
859.885	82.57
860.054	83.51
860.222	87.34
860.391	100.92
860.56	95.1
860.728	90.67
860.897	91.13
861.065	75.45
861.234	71.71
861.402	78.21
861.571	73.5
861.739	83.72
861.908	83.09
862.076	83.95
862.244	82.41
862.413	92.12
862.581	96.78
862.749	92.85
862.918	94.53
863.086	94.7
863.254	97.39
863.423	105.42
863.591	105.85
863.759	103.27
863.927	93.72
864.096	83.98
864.264	85.51
864.432	79.9
864.6	86.2
864.768	83.26
864.936	83.92
865.104	82.92
865.272	92.88
865.44	87.63
865.608	82.36
865.776	85.86
865.944	89.21
866.112	84.4
866.28	87.14
866.448	82.32
866.616	77.04
866.784	80.69
866.952	78.37
867.12	72.6
867.288	74.86
867.455	70.44
867.623	75.3
867.791	71.08
867.959	73.04
868.127	68.69
868.294	74.64
868.462	78.3
868.63	73.95
868.797	80.92
868.965	80.76
869.133	80.9
869.3	89.41
869.468	84.25
869.636	78.79
869.803	75.41
869.971	89.76
870.138	87.37
870.306	85.1
870.473	85.79
870.641	79.85
870.808	81.54
870.975	78.5
871.143	80.93
871.31	85.3
871.478	98.71
871.645	93.19
871.812	85.4
871.98	80.37
872.147	83.81
872.314	80.47
872.482	84.04
872.649	81.82
872.816	82.2
872.983	74.84
873.15	72.73
873.318	75.58
873.485	89.52
873.652	85.7
873.819	96.95
873.986	102.33
874.153	111.86
874.32	107.26
874.487	103.37
874.654	98.83
874.821	105.42
874.988	100.57
875.155	99.76
875.322	88.83
875.489	97.81
875.656	90.06
875.823	81.46
875.99	66.01
876.157	68.43
876.324	72.67
876.49	69.65
876.657	69.44
876.824	82.73
876.991	84.67
877.157	84.58
877.324	82.43
877.491	87.72
877.658	99.81
877.824	104.5
877.991	105.16
878.157	106.89
878.324	109.78
878.491	118.2
878.657	122.24
878.824	122.95
878.99	127.02
879.157	125.76
879.323	118.33
879.49	106.76
879.656	106.28
879.823	95.07
879.989	93.97
880.156	95.95
880.322	89.41
880.488	82.25
880.655	79.18
880.821	77.65
880.987	80.29
881.154	81.44
881.32	81.36
881.486	77.08
881.652	75.55
881.819	73.68
881.985	67.03
882.151	64.46
882.317	60.36
882.483	55.87
882.649	54.11
882.816	49.76
882.982	46.17
883.148	46.05
883.314	43.84
883.48	46.13
883.646	44.76
883.812	43.69
883.978	43.96
884.144	44.23
884.31	42.38
884.476	43.23
884.642	44.78
884.807	45.58
884.973	44.56
885.139	44.16
885.305	43.28
885.471	43.04
885.637	43.75
885.802	42.7
885.968	40.91
886.134	44.28
886.3	41.06
886.465	40.12
886.631	38.65
886.797	40.81
886.962	43.92
887.128	42.77
887.293	45.31
887.459	45.72
887.625	47.89
887.79	53.31
887.956	49.23
888.121	55.01
888.287	54.83
888.452	60.02
888.618	58.33
888.783	60.03
