Data from LC_189_Reflection_1.txt Node
Date: Tue Nov 17 13:27:52 EST 2015
User: robert
Spectrometer: USB4E03001
Autoset integration time: false
Trigger mode: 4
Integration Time (sec): 1.000000E-1
Scans to average: 15
Electric dark correction enabled: true
Nonlinearity correction enabled: false
Boxcar width: 5
Stray light correction enabled: false
XAxis mode: Wavelengths
Stop averaging: false
Number of Pixels in Spectrum: 3648
>>>>>Begin Spectral Data<<<<<
177.566	152.26
177.785	185.45
178.005	-804.48
178.225	281.96
178.445	-427.49
178.665	-119
178.885	-143.73
179.105	-248.82
179.324	751.77
179.544	1169.78
179.764	353.01
179.984	176.29
180.204	230.78
180.423	479.56
180.643	755.12
180.863	-2581.23
181.083	-3682.65
181.302	611
181.522	339.86
181.742	987.61
181.961	11705.88
182.181	-524.52
182.401	-80.99
182.621	-236.03
182.84	-275.79
183.06	-729.11
183.279	1078.79
183.499	-4626.05
183.719	-422.62
183.938	-134.95
184.158	-251.85
184.377	-306.07
184.597	-315.18
184.816	369.72
185.036	337.04
185.256	350.57
185.475	211.14
185.695	283.25
185.914	218.13
186.134	260.01
186.353	166.34
186.572	149.83
186.792	126.18
187.011	139
187.231	424.73
187.45	1890.69
187.67	380.47
187.889	427.78
188.108	273.6
188.328	325.27
188.547	375.83
188.766	-1591.69
188.986	1446.06
189.205	461.01
189.424	504.57
189.644	371.97
189.863	264.43
190.082	299.98
190.302	354.36
190.521	466.73
190.74	9466.88
190.959	1202.66
191.178	343.21
191.398	323.04
191.617	807.89
191.836	466.4
192.055	291.92
192.274	-766.27
192.494	-401.97
192.713	-966.63
192.932	-363.41
193.151	683.35
193.37	12431.75
193.589	-478050
193.808	15095.51
194.027	-2026.17
194.246	-1204.01
194.465	5305.8
194.685	566.42
194.904	421.53
195.123	65458.33
195.342	1692.58
195.561	511.04
195.78	390.23
195.999	474.9
196.218	297.55
196.436	255.75
196.655	165.79
196.874	186.07
197.093	181.33
197.312	141.62
197.531	136.78
197.75	126.73
197.969	141.11
198.188	142.08
198.407	107.38
198.625	112.46
198.844	119.1
199.063	103.23
199.282	117.47
199.501	99.06
199.719	161.8
199.938	169.52
200.157	204.4
200.376	575.83
200.594	318.54
200.813	216.8
201.032	258.73
201.251	270.24
201.469	3451.08
201.688	1032.99
201.907	-5108.9
202.125	1268.6
202.344	1329.38
202.563	1297.7
202.781	859.59
203	-843.41
203.218	-186.42
203.437	-269.25
203.656	-102.43
203.874	-360.23
204.093	-520.66
204.311	-595.59
204.53	17814.47
204.748	-701.85
204.967	3023.18
205.185	611.27
205.404	324.99
205.622	305.57
205.841	250.52
206.059	319.33
206.278	238
206.496	220.59
206.715	182.38
206.933	168.43
207.151	151.3
207.37	141.66
207.588	161.91
207.806	172.98
208.025	155.37
208.243	153.12
208.461	134.27
208.68	174.47
208.898	-270.58
209.116	-513.51
209.335	1450.5
209.553	-909.92
209.771	257.26
209.989	132.34
210.208	193.55
210.426	192.1
210.644	196.71
210.862	173.35
211.081	122.95
211.299	89.97
211.517	126.97
211.735	125.89
211.953	132.08
212.171	176.44
212.39	487.99
212.608	404.31
212.826	510.88
213.044	548.79
213.262	471.82
213.48	-23719.4
213.698	-1239.34
213.916	525.49
214.134	-916.21
214.352	-221.51
214.57	-253.44
214.788	2504.24
215.006	1085.38
215.224	1138.52
215.442	661.81
215.66	691.98
215.878	410.45
216.096	200.14
216.314	238.2
216.532	173.54
216.75	137.08
216.968	134.53
217.185	145.75
217.403	137.56
217.621	124.62
217.839	148.22
218.057	169.16
218.275	186.05
218.492	181.08
218.71	175.68
218.928	198.21
219.146	223.27
219.363	233.04
219.581	197.23
219.799	222.69
220.017	238.47
220.234	242.24
220.452	187.86
220.67	147.66
220.887	187.52
221.105	186.46
221.323	157.91
221.54	151.19
221.758	144.47
221.976	113.83
222.193	102.3
222.411	92.46
222.629	89.8
222.846	92.46
223.064	85.72
223.281	76.72
223.499	86.35
223.716	99.53
223.934	93.29
224.151	76.56
224.369	87.75
224.586	88
224.804	96.33
225.021	94.63
225.239	92.68
225.456	94.53
225.674	83.47
225.891	75.65
226.108	84.33
226.326	80.77
226.543	71.31
226.76	69.44
226.978	69.14
227.195	65.64
227.413	56.28
227.63	56.48
227.847	55.41
228.064	55.54
228.282	48.31
228.499	40.88
228.716	36.83
228.934	40.82
229.151	39.24
229.368	34.32
229.585	32.49
229.802	34.49
230.02	34.24
230.237	31.72
230.454	29.82
230.671	33.25
230.888	35.02
231.105	37.26
231.323	32.41
231.54	32.86
231.757	38.68
231.974	39.34
232.191	36.05
232.408	34.39
232.625	36.89
232.842	38.59
233.059	40.06
233.276	40.73
233.493	42.46
233.71	47.64
233.927	46.46
234.144	46.91
234.361	47.81
234.578	51.72
234.795	51.79
235.012	50.93
235.229	50.03
235.446	43.96
235.663	43.21
235.879	43.01
236.096	47.75
236.313	48.97
236.53	40.32
236.747	43.14
236.964	37.76
237.181	37.65
237.397	35.57
237.614	40.12
237.831	45.6
238.048	44.51
238.264	44
238.481	37.7
238.698	33.75
238.915	41.89
239.131	42
239.348	47.28
239.565	42.5
239.781	46.23
239.998	42.01
240.215	38.63
240.431	36.19
240.648	31.97
240.865	30.19
241.081	29.99
241.298	26.55
241.514	23.53
241.731	20.87
241.947	19.95
242.164	15.62
242.38	14.13
242.597	13.96
242.814	14.87
243.03	15.33
243.246	15.21
243.463	15.31
243.679	14.56
243.896	14.48
244.112	13.64
244.329	17.58
244.545	18.51
244.762	19.27
244.978	18.12
245.194	19.48
245.411	20.91
245.627	22.13
245.843	19.85
246.06	20.13
246.276	18.69
246.492	18
246.709	16.2
246.925	16.44
247.141	16.4
247.357	16.97
247.574	16.26
247.79	16.02
248.006	15.19
248.222	16.16
248.439	15.54
248.655	15.49
248.871	15.51
249.087	15.46
249.303	16.76
249.519	17.84
249.736	18.07
249.952	18.45
250.168	20.71
250.384	20.37
250.6	19.57
250.816	20.9
251.032	22.24
251.248	22.63
251.464	23.1
251.68	21.8
251.896	21.25
252.112	20.13
252.328	19.95
252.544	16.55
252.76	18.1
252.976	19.06
253.192	19.95
253.408	20.1
253.624	21.76
253.84	21.85
254.056	21.31
254.272	20.54
254.487	23.2
254.703	21.2
254.919	25.46
255.135	24.36
255.351	19.75
255.567	17.12
255.782	13.19
255.998	9.24
256.214	9.66
256.43	8.35
256.646	9.52
256.861	5.71
257.077	6.18
257.293	8.57
257.508	8.68
257.724	13.81
257.94	12.97
258.155	13.91
258.371	15.54
258.587	14.47
258.802	14.68
259.018	13
259.234	13.83
259.449	15.23
259.665	13.49
259.88	13.15
260.096	13.14
260.312	13.06
260.527	13.15
260.743	13.34
260.958	13.52
261.174	13.7
261.389	14.57
261.605	15.3
261.82	14.25
262.036	14.43
262.251	14.92
262.466	13.37
262.682	14.81
262.897	15.27
263.113	13.6
263.328	14.27
263.543	15.1
263.759	15.6
263.974	14.1
264.189	14.5
264.405	15.59
264.62	17.33
264.835	17.47
265.051	17.23
265.266	18.16
265.481	20.57
265.696	20.99
265.912	20.67
266.127	19.25
266.342	17.99
266.557	16.24
266.773	16.25
266.988	15.08
267.203	15.23
267.418	16.64
267.633	15.63
267.848	13.52
268.064	11.97
268.279	11.18
268.494	12.07
268.709	12.7
268.924	14.93
269.139	14.53
269.354	15.8
269.569	16.03
269.784	13
269.999	13.25
270.214	14.04
270.429	15.13
270.644	14.92
270.859	14.61
271.074	14.9
271.289	15
271.504	14.4
271.719	13.67
271.934	13.49
272.149	14.54
272.363	14.86
272.578	14.09
272.793	12.97
273.008	13.91
273.223	14.11
273.438	13.87
273.653	13.29
273.867	13.25
274.082	13.36
274.297	13.69
274.512	13.75
274.726	13.03
274.941	13.56
275.156	14.27
275.371	12.45
275.585	12.2
275.8	12.81
276.015	13.88
276.229	14.38
276.444	12.78
276.659	12.73
276.873	11.69
277.088	11.89
277.302	11.83
277.517	10.76
277.732	11.35
277.946	10.89
278.161	10.54
278.375	9.13
278.59	10.07
278.804	10.03
279.019	9.57
279.233	10.42
279.448	10.24
279.662	11.11
279.877	11.72
280.091	11.81
280.306	11.78
280.52	12.78
280.735	12.84
280.949	11.31
281.163	12.51
281.378	12.55
281.592	12.73
281.806	12.61
282.021	12.26
282.235	12.21
282.449	13.17
282.664	14.08
282.878	13.72
283.092	13.34
283.307	13.89
283.521	14
283.735	14.18
283.949	13.92
284.164	13.8
284.378	13.2
284.592	13.64
284.806	13.53
285.02	12.08
285.234	10.78
285.449	10.94
285.663	10.66
285.877	10.98
286.091	10.73
286.305	10.13
286.519	10.24
286.733	10.8
286.947	10.7
287.161	9.59
287.375	10.25
287.589	11.12
287.803	11.04
288.017	11.13
288.231	10.35
288.445	10.51
288.659	11.69
288.873	11.7
289.087	12.78
289.301	12.85
289.515	13.61
289.729	14.13
289.943	14.17
290.157	14.35
290.371	14.67
290.584	14.97
290.798	14.62
291.012	14.57
291.226	15.3
291.44	14.83
291.654	14.75
291.867	14.58
292.081	13.96
292.295	13.73
292.509	13.26
292.722	12.61
292.936	11.89
293.15	12.33
293.364	11.71
293.577	10.99
293.791	9.49
294.005	9.06
294.218	9.85
294.432	9.47
294.645	9.24
294.859	9.82
295.073	10.29
295.286	10.96
295.5	10.57
295.713	11.01
295.927	11.2
296.14	12.67
296.354	12.31
296.568	11.93
296.781	12.82
296.994	13.08
297.208	13.47
297.421	13.32
297.635	13.39
297.848	13.25
298.062	13.06
298.275	12.86
298.489	12.54
298.702	14.16
298.915	13.95
299.129	13.97
299.342	13.72
299.555	12.93
299.769	13.61
299.982	13.93
300.195	13.81
300.409	13.65
300.622	13.93
300.835	13.44
301.048	12.35
301.262	12.05
301.475	11.38
301.688	12.27
301.901	13
302.115	12.76
302.328	12.49
302.541	12.86
302.754	12.69
302.967	12.94
303.18	13.91
303.393	13.54
303.607	15.02
303.82	15.08
304.033	13.55
304.246	13.15
304.459	13.24
304.672	13.65
304.885	14.4
305.098	14.21
305.311	13.89
305.524	13.37
305.737	14.45
305.95	15.03
306.163	13.31
306.376	14.21
306.589	14.72
306.802	14.87
307.015	14.88
307.228	15.56
307.44	15.77
307.653	16.11
307.866	14.56
308.079	13.39
308.292	12.37
308.505	13.77
308.718	13.44
308.93	13.66
309.143	14.61
309.356	14.22
309.569	13.87
309.781	13.92
309.994	12.03
310.207	12.35
310.42	12.3
310.632	11.8
310.845	13.05
311.058	13.01
311.27	11.5
311.483	10.45
311.696	9.8
311.908	9.27
312.121	9.02
312.333	10.32
312.546	10.53
312.759	10.23
312.971	10.54
313.184	9.51
313.396	9.44
313.609	10.94
313.821	11.62
314.034	12.38
314.246	13.01
314.459	13.73
314.671	13.81
314.884	13.68
315.096	15.18
315.309	14.77
315.521	15.34
315.733	15.86
315.946	14.37
316.158	14.35
316.371	14.14
316.583	13.79
316.795	14.19
317.008	14.46
317.22	14.26
317.432	13.77
317.644	12.96
317.857	12.53
318.069	12.55
318.281	14.58
318.494	13.37
318.706	12.53
318.918	12.58
319.13	12.61
319.342	12.56
319.555	12.65
319.767	12.68
319.979	14.2
320.191	14.14
320.403	14.75
320.615	14.57
320.827	14.7
321.039	16.06
321.252	16.09
321.464	16.2
321.676	16.56
321.888	17.8
322.1	17.41
322.312	17.24
322.524	18.39
322.736	17.91
322.948	17.9
323.16	18.1
323.372	17.38
323.584	17.23
323.796	17.94
324.007	18.11
324.219	18.13
324.431	18.59
324.643	18.92
324.855	18.47
325.067	18.71
325.279	18.62
325.491	19.13
325.702	19.13
325.914	19.59
326.126	18.29
326.338	19.25
326.55	18.17
326.761	18.09
326.973	17.27
327.185	16.75
327.396	16.31
327.608	15.71
327.82	15.51
328.032	15.96
328.243	14.66
328.455	15.19
328.666	13.43
328.878	14.31
329.09	13.75
329.301	14.07
329.513	14.11
329.725	15.28
329.936	16.4
330.148	16.63
330.359	17.12
330.571	18.13
330.782	18.63
330.994	18.8
331.205	17.96
331.417	18.01
331.628	18.25
331.84	20.07
332.051	19.2
332.262	18.35
332.474	17.4
332.685	17.77
332.897	17.02
333.108	16.43
333.319	16.24
333.531	16.69
333.742	16.61
333.953	16.13
334.165	14.15
334.376	14.71
334.587	14.88
334.799	14.61
335.01	13.96
335.221	13.74
335.432	13
335.644	13.35
335.855	13.34
336.066	13.33
336.277	14.55
336.488	14.92
336.7	14.34
336.911	14.88
337.122	15.83
337.333	15.91
337.544	17.4
337.755	18.23
337.966	18.19
338.177	18.25
338.388	17.98
338.599	17.6
338.811	17.33
339.022	17.6
339.233	15.81
339.444	15.03
339.655	15.33
339.866	15.12
340.076	14.1
340.287	14.15
340.498	13.98
340.709	14.6
340.92	13.73
341.131	13.69
341.342	13.96
341.553	15.21
341.764	16.2
341.975	16.23
342.185	15.33
342.396	15.48
342.607	15.89
342.818	16.39
343.029	15.9
343.239	15.87
343.45	15.76
343.661	15.37
343.872	14.97
344.082	14.76
344.293	14.45
344.504	15.94
344.714	16.04
344.925	15.2
345.136	14.13
345.346	14.16
345.557	14.01
345.768	14.46
345.978	14.53
346.189	15.55
346.399	15.25
346.61	14.92
346.821	13.44
347.031	13.72
347.242	13.43
347.452	15.02
347.663	15.09
347.873	15.48
348.084	14.55
348.294	15.25
348.504	13.83
348.715	13.83
348.925	13.29
349.136	13.17
349.346	13.85
349.557	14.31
349.767	13.49
349.977	13.12
350.188	13.9
350.398	15.04
350.608	14.53
350.819	14.96
351.029	14.82
351.239	16.02
351.449	16.57
351.66	15.85
351.87	15.99
352.08	16.22
352.29	17.09
352.501	16.37
352.711	16.34
352.921	15.86
353.131	16.08
353.341	16.07
353.552	15.05
353.762	15.14
353.972	14.84
354.182	16.22
354.392	16.29
354.602	16.92
354.812	16.9
355.022	16.76
355.232	16.19
355.442	15.71
355.652	15.94
355.862	16.25
356.072	16.03
356.282	16.2
356.492	14.69
356.702	14.18
356.912	13.51
357.122	13.59
357.332	13.21
357.542	13.57
357.752	13.57
357.962	13.07
358.171	12.6
358.381	12.57
358.591	12.2
358.801	12.49
359.011	12.41
359.221	12.74
359.43	12.67
359.64	12.33
359.85	12.11
360.06	12.14
360.269	12.11
360.479	11.84
360.689	11.78
360.899	11.8
361.108	11.14
361.318	10.6
361.528	9.65
361.737	9.95
361.947	9.99
362.156	10.28
362.366	10.15
362.576	10
362.785	10.47
362.995	10.31
363.204	10.32
363.414	10.8
363.623	11.38
363.833	11.97
364.042	11.58
364.252	11.49
364.461	11.44
364.671	11.52
364.88	11.57
365.09	11.55
365.299	11.75
365.509	12.32
365.718	12.56
365.927	12.63
366.137	12.6
366.346	12.67
366.555	13.22
366.765	13.23
366.974	13
367.183	13.7
367.393	13.57
367.602	13.27
367.811	12.79
368.021	12.26
368.23	12.87
368.439	12.61
368.648	12.81
368.857	12.48
369.067	12.43
369.276	13.1
369.485	12.99
369.694	12.76
369.903	12.8
370.112	12.51
370.321	12.87
370.531	11.85
370.74	11.91
370.949	11.49
371.158	11.5
371.367	11.01
371.576	11.09
371.785	10.35
371.994	10.45
372.203	10.42
372.412	10.7
372.621	10.52
372.83	10.67
373.039	10.76
373.248	10.45
373.457	10.74
373.666	10.9
373.874	10.38
374.083	10.72
374.292	10.58
374.501	10.5
374.71	10.93
374.919	10.7
375.128	10.52
375.336	10.75
375.545	11.28
375.754	10.57
375.963	10.46
376.171	10.56
376.38	10.9
376.589	11.53
376.798	11.4
377.006	11.09
377.215	11.81
377.424	11.83
377.632	11.21
377.841	11.25
378.05	11.43
378.258	11.58
378.467	11.39
378.675	10.76
378.884	10.37
379.093	10.65
379.301	10.54
379.51	10.39
379.718	10.52
379.927	10.76
380.135	10.13
380.344	10.42
380.552	10.4
380.761	10.97
380.969	11.06
381.177	11.03
381.386	10.47
381.594	10.4
381.803	9.63
382.011	9.58
382.219	9.7
382.428	10.4
382.636	10.46
382.845	10.28
383.053	9.85
383.261	9.82
383.469	9.88
383.678	10.38
383.886	9.93
384.094	9.83
384.302	9.73
384.511	9.37
384.719	8.73
384.927	8.57
385.135	8.92
385.343	8.94
385.552	9.24
385.76	9.08
385.968	9.1
386.176	9.71
386.384	9.98
386.592	9.77
386.8	9.98
387.008	10.26
387.216	10.1
387.424	9.8
387.633	9.58
387.841	9.34
388.049	9.35
388.257	9.19
388.465	8.85
388.672	9.15
388.88	9.31
389.088	9.55
389.296	9.64
389.504	9.99
389.712	10.27
389.92	10.45
390.128	10.8
390.336	10.85
390.544	10.59
390.751	10.5
390.959	10.38
391.167	10.39
391.375	9.88
391.583	9.66
391.79	9.18
391.998	9.27
392.206	9.17
392.414	8.5
392.621	8.47
392.829	8.64
393.037	8.61
393.244	8.36
393.452	8.26
393.66	8.25
393.867	8.25
394.075	8.34
394.283	8.07
394.49	7.93
394.698	8.37
394.905	8.15
395.113	8.11
395.32	7.98
395.528	8.44
395.735	8.68
395.943	8.57
396.15	8.66
396.358	8.83
396.565	8.8
396.773	8.85
396.98	8.77
397.188	8.97
397.395	9.05
397.602	9.44
397.81	9.2
398.017	9.02
398.225	9.6
398.432	9.66
398.639	9.74
398.847	10.09
399.054	9.84
399.261	9.35
399.468	9.29
399.676	9.42
399.883	9.24
400.09	9.15
400.297	9.35
400.505	9.01
400.712	8.94
400.919	8.71
401.126	8.56
401.333	8.98
401.54	9.35
401.748	9.34
401.955	9.09
402.162	9.19
402.369	9.12
402.576	9.11
402.783	8.84
402.99	8.87
403.197	8.85
403.404	8.5
403.611	8.26
403.818	8.41
404.025	8.17
404.232	7.98
404.439	7.88
404.646	7.79
404.853	7.55
405.06	7.85
405.267	7.67
405.474	7.59
405.681	7.46
405.887	7.73
406.094	7.81
406.301	8.01
406.508	7.88
406.715	7.98
406.922	7.87
407.128	8.07
407.335	7.78
407.542	7.76
407.749	7.87
407.955	8.19
408.162	8.3
408.369	8.14
408.575	8.12
408.782	8.37
408.989	8.26
409.195	8.62
409.402	8.39
409.609	8.64
409.815	8.62
410.022	8.41
410.228	8.27
410.435	8.18
410.642	8.27
410.848	8.27
411.055	8.31
411.261	8.21
411.468	8.2
411.674	8.18
411.881	8.14
412.087	8.39
412.294	8.72
412.5	8.8
412.706	8.64
412.913	8.22
413.119	8.31
413.326	8.22
413.532	8.39
413.738	8.08
413.945	7.98
414.151	8.02
414.357	7.7
414.564	7.39
414.77	7.32
414.976	7.51
415.182	7.74
415.389	7.74
415.595	7.89
415.801	7.93
416.007	8
416.214	8.3
416.42	8.15
416.626	8.28
416.832	8.36
417.038	8.46
417.244	8.33
417.45	8.43
417.657	8.18
417.863	8.25
418.069	8.18
418.275	8.06
418.481	8.1
418.687	8.01
418.893	8.03
419.099	7.89
419.305	7.93
419.511	7.92
419.717	7.86
419.923	7.87
420.129	7.7
420.335	7.63
420.541	7.53
420.746	7.3
420.952	7.3
421.158	7.25
421.364	7.33
421.57	7.39
421.776	7.27
421.982	7.3
422.187	7.27
422.393	7.22
422.599	7.17
422.805	7.22
423.01	7.32
423.216	7.37
423.422	7.44
423.628	7.46
423.833	7.27
424.039	7.14
424.245	6.98
424.45	7
424.656	7.1
424.862	7
425.067	6.98
425.273	6.93
425.478	6.98
425.684	6.77
425.889	6.76
426.095	6.73
426.301	6.96
426.506	7.13
426.712	7.21
426.917	7.21
427.123	7.34
427.328	7.39
427.533	7.44
427.739	7.3
427.944	7.33
428.15	7.2
428.355	7.28
428.561	7.24
428.766	6.98
428.971	6.88
429.177	7.01
429.382	7.2
429.587	7.5
429.793	7.6
429.998	7.57
430.203	7.73
430.408	7.78
430.614	7.63
430.819	7.54
431.024	7.62
431.229	7.7
431.434	7.49
431.64	7.47
431.845	7.38
432.05	7.3
432.255	7.38
432.46	7.32
432.665	7.35
432.87	7.47
433.076	7.5
433.281	7.56
433.486	7.59
433.691	7.52
433.896	7.4
434.101	7.26
434.306	7.28
434.511	7.31
434.716	7.4
434.921	7.48
435.126	7.37
435.331	7.39
435.535	7.44
435.74	7.47
435.945	7.62
436.15	7.63
436.355	7.71
436.56	7.58
436.765	7.72
436.97	7.81
437.174	7.51
437.379	7.69
437.584	7.92
437.789	7.72
437.993	7.58
438.198	7.46
438.403	7.53
438.608	7.52
438.812	7.53
439.017	7.33
439.222	7.15
439.426	7.17
439.631	7.08
439.836	6.91
440.04	6.95
440.245	6.95
440.45	6.94
440.654	6.9
440.859	6.85
441.063	6.83
441.268	6.96
441.472	7
441.677	7.26
441.881	7.36
442.086	7.43
442.29	7.51
442.495	7.66
442.699	7.74
442.904	7.76
443.108	7.7
443.312	7.71
443.517	7.62
443.721	7.69
443.925	7.34
444.13	7.14
444.334	6.96
444.538	6.96
444.743	6.83
444.947	6.92
445.151	6.83
445.356	6.97
445.56	7
445.764	6.98
445.968	6.88
446.173	6.93
446.377	6.94
446.581	7.09
446.785	6.98
446.989	6.91
447.193	6.86
447.398	7.09
447.602	7.04
447.806	7.17
448.01	7.19
448.214	7.25
448.418	7.27
448.622	7.45
448.826	7.33
449.03	7.46
449.234	7.56
449.438	7.45
449.642	7.27
449.846	7.22
450.05	6.95
450.254	6.8
450.458	6.69
450.662	6.7
450.866	6.49
451.069	6.53
451.273	6.24
451.477	6.23
451.681	6.51
451.885	6.42
452.089	6.51
452.292	6.62
452.496	6.67
452.7	6.71
452.904	6.78
453.107	6.94
453.311	6.88
453.515	6.97
453.719	7.02
453.922	6.74
454.126	6.74
454.33	6.76
454.533	6.59
454.737	6.44
454.94	6.37
455.144	6.41
455.348	6.24
455.551	6.22
455.755	6.48
455.958	6.36
456.162	6.43
456.365	6.38
456.569	6.17
456.772	6.4
456.976	6.59
457.179	6.81
457.383	6.72
457.586	6.71
457.79	6.91
457.993	6.95
458.196	6.98
458.4	7.03
458.603	7.22
458.807	7.21
459.01	7.16
459.213	7.14
459.417	7
459.62	7.01
459.823	7.01
460.026	6.83
460.23	6.73
460.433	6.62
460.636	6.49
460.839	6.29
461.042	6.34
461.246	6.24
461.449	6.36
461.652	6.38
461.855	6.3
462.058	6.24
462.261	6.38
462.464	6.27
462.668	6.34
462.871	6.39
463.074	6.54
463.277	6.39
463.48	6.52
463.683	6.33
463.886	6.46
464.089	6.59
464.292	6.65
464.495	6.57
464.698	6.59
464.901	6.84
465.104	7.04
465.306	7.12
465.509	7.25
465.712	7.11
465.915	7.4
466.118	7.28
466.321	7.13
466.524	7.05
466.726	7.2
466.929	7.41
467.132	7.32
467.335	7.07
467.538	6.98
467.74	6.95
467.943	7.05
468.146	6.73
468.348	6.79
468.551	6.86
468.754	6.98
468.956	6.85
469.159	6.75
469.362	6.59
469.564	6.75
469.767	6.93
469.969	7.07
470.172	7.2
470.375	7.24
470.577	7.34
470.78	7.35
470.982	7.44
471.185	7.25
471.387	7.39
471.59	7.51
471.792	7.47
471.995	7.23
472.197	7.05
472.399	6.88
472.602	7.16
472.804	7.16
473.007	7.13
473.209	6.9
473.411	6.99
473.614	6.83
473.816	6.82
474.018	6.9
474.22	6.9
474.423	7.01
474.625	7.01
474.827	6.77
475.03	6.58
475.232	6.57
475.434	6.64
475.636	6.64
475.838	6.59
476.04	6.6
476.243	6.56
476.445	6.48
476.647	6.5
476.849	6.41
477.051	6.31
477.253	6.36
477.455	6.24
477.657	6.26
477.859	6.3
478.061	6.32
478.263	6.21
478.465	6.28
478.667	6.4
478.869	6.33
479.071	6.42
479.273	6.57
479.475	6.55
479.677	6.72
479.879	6.77
480.081	6.88
480.283	6.91
480.485	6.8
480.686	6.75
480.888	6.8
481.09	6.84
481.292	6.77
481.494	6.66
481.695	6.63
481.897	6.49
482.099	6.38
482.301	6.27
482.502	6.15
482.704	6.19
482.906	6.15
483.107	6.01
483.309	5.92
483.511	5.92
483.712	5.9
483.914	5.88
484.115	5.88
484.317	5.88
484.519	5.85
484.72	5.89
484.922	5.87
485.123	5.89
485.325	5.93
485.526	5.96
485.728	5.95
485.929	5.97
486.131	6.04
486.332	6.05
486.534	6.05
486.735	6.09
486.936	6.07
487.138	6.07
487.339	6.04
487.541	6.04
487.742	6.04
487.943	6.08
488.144	6.03
488.346	5.98
488.547	6.04
488.748	6.1
488.95	6.12
489.151	6.18
489.352	6.2
489.553	6.2
489.755	6.3
489.956	6.21
490.157	6.16
490.358	6.25
490.559	6.24
490.76	6.25
490.961	6.18
491.163	6.22
491.364	6.14
491.565	6.19
491.766	6.14
491.967	6.11
492.168	6.23
492.369	6.29
492.57	6.34
492.771	6.39
492.972	6.39
493.173	6.52
493.374	6.55
493.575	6.66
493.776	6.65
493.976	6.87
494.177	6.94
494.378	7.01
494.579	7.17
494.78	7.22
494.981	7.14
495.182	7.14
495.382	7.08
495.583	6.92
495.784	6.92
495.985	7
496.185	6.93
496.386	6.88
496.587	6.82
496.788	6.91
496.988	6.81
497.189	6.87
497.39	6.92
497.59	6.93
497.791	7.1
497.992	7.08
498.192	7.11
498.393	7.02
498.593	7.07
498.794	6.98
498.994	6.97
499.195	6.94
499.395	7.06
499.596	7
499.796	6.87
499.997	6.78
500.197	6.82
500.398	6.82
500.598	6.95
500.799	6.98
500.999	7.04
501.199	6.83
501.4	7.14
501.6	6.99
501.801	6.99
502.001	7.12
502.201	7.28
502.402	7.36
502.602	7.46
502.802	7.46
503.002	7.48
503.203	7.72
503.403	7.7
503.603	7.57
503.803	7.62
504.003	7.69
504.204	7.82
504.404	7.95
504.604	7.86
504.804	7.97
505.004	7.92
505.204	7.83
505.404	7.84
505.604	7.94
505.804	7.8
506.005	7.79
506.205	7.78
506.405	7.67
506.605	7.52
506.805	7.76
507.005	7.64
507.204	7.6
507.404	7.6
507.604	7.67
507.804	7.77
508.004	8.04
508.204	8.2
508.404	8.46
508.604	8.59
508.804	8.59
509.003	8.44
509.203	8.37
509.403	8.53
509.603	8.63
509.803	8.62
510.002	8.62
510.202	8.56
510.402	8.63
510.602	8.4
510.801	8.41
511.001	8.43
511.201	8.4
511.4	8.37
511.6	8.35
511.8	8.24
511.999	8.19
512.199	8.19
512.398	8.23
512.598	8.18
512.797	8.34
512.997	8.27
513.197	8.33
513.396	8.51
513.596	8.68
513.795	8.71
513.994	8.95
514.194	9
514.393	9.11
514.593	9.07
514.792	9.14
514.992	9.17
515.191	9.41
515.39	9.34
515.59	9.31
515.789	9.32
515.988	9.42
516.188	9.47
516.387	9.45
516.586	9.4
516.786	9.44
516.985	9.38
517.184	9.43
517.383	9.37
517.582	9.43
517.782	9.5
517.981	9.43
518.18	9.41
518.379	9.45
518.578	9.51
518.777	9.49
518.976	9.54
519.176	9.62
519.375	9.56
519.574	9.61
519.773	9.66
519.972	9.6
520.171	9.68
520.37	9.75
520.569	9.69
520.768	9.79
520.967	9.88
521.166	9.9
521.365	9.93
521.564	10.12
521.762	10.2
521.961	10.25
522.16	10.4
522.359	10.49
522.558	10.51
522.757	10.54
522.956	10.51
523.154	10.6
523.353	10.55
523.552	10.59
523.751	10.53
523.949	10.43
524.148	10.47
524.347	10.46
524.546	10.49
524.744	10.48
524.943	10.57
525.142	10.62
525.34	10.56
525.539	10.6
525.737	10.68
525.936	10.78
526.135	10.84
526.333	10.9
526.532	10.94
526.73	10.96
526.929	11.01
527.127	11.11
527.326	11.1
527.524	11.15
527.723	11.21
527.921	11.23
528.12	11.19
528.318	11.2
528.516	11.21
528.715	11.23
528.913	11.3
529.112	11.3
529.31	11.26
529.508	11.29
529.707	11.33
529.905	11.44
530.103	11.44
530.301	11.47
530.5	11.52
530.698	11.58
530.896	11.59
531.094	11.63
531.293	11.67
531.491	11.67
531.689	11.76
531.887	11.82
532.085	11.78
532.283	11.89
532.481	11.94
532.68	11.94
532.878	12
533.076	12.11
533.274	12.16
533.472	12.3
533.67	12.51
533.868	12.6
534.066	12.67
534.264	12.77
534.462	12.73
534.66	12.81
534.858	12.89
535.056	12.93
535.253	13.02
535.451	13.12
535.649	13.11
535.847	13.15
536.045	13.25
536.243	13.27
536.441	13.28
536.638	13.45
536.836	13.58
537.034	13.68
537.232	13.74
537.43	13.73
537.627	13.72
537.825	13.79
538.023	13.67
538.22	13.78
538.418	13.84
538.616	13.9
538.813	13.92
539.011	13.92
539.209	13.97
539.406	14.17
539.604	14.32
539.801	14.43
539.999	14.52
540.196	14.71
540.394	14.67
540.591	14.75
540.789	14.8
540.986	14.84
541.184	14.84
541.381	14.88
541.579	14.8
541.776	14.78
541.974	14.79
542.171	14.84
542.368	14.9
542.566	14.91
542.763	14.9
542.96	14.97
543.158	14.96
543.355	15.05
543.552	15.15
543.75	15.29
543.947	15.4
544.144	15.5
544.341	15.68
544.539	15.73
544.736	15.82
544.933	15.91
545.13	16.06
545.327	16.15
545.524	16.21
545.722	16.21
545.919	16.25
546.116	16.43
546.313	16.54
546.51	16.49
546.707	16.77
546.904	16.94
547.101	17.22
547.298	17.22
547.495	17.36
547.692	17.45
547.889	17.71
548.086	17.98
548.283	18.03
548.48	18.07
548.677	18.13
548.874	17.93
549.07	17.92
549.267	17.9
549.464	18.06
549.661	18.32
549.858	18.44
550.055	18.36
550.251	18.33
550.448	18.44
550.645	18.61
550.842	18.8
551.038	19.02
551.235	19.1
551.432	19.12
551.628	18.95
551.825	19.08
552.022	19.24
552.218	19.34
552.415	19.48
552.612	19.54
552.808	19.67
553.005	19.84
553.201	19.89
553.398	20.08
553.594	20.24
553.791	20.57
553.987	20.33
554.184	20.47
554.38	20.91
554.577	21.13
554.773	21.11
554.97	21.39
555.166	21.56
555.362	21.6
555.559	21.67
555.755	21.79
555.952	21.76
556.148	22.11
556.344	22.25
556.541	22.05
556.737	21.98
556.933	22.32
557.129	22.35
557.326	22.36
557.522	22.62
557.718	22.71
557.914	22.69
558.11	22.88
558.307	22.9
558.503	23.01
558.699	23.17
558.895	23.14
559.091	23.22
559.287	23.19
559.483	23.18
559.679	23.33
559.876	23.31
560.072	23.62
560.268	23.65
560.464	23.87
560.66	23.67
560.856	23.81
561.052	23.84
561.247	23.95
561.443	24.18
561.639	24.2
561.835	24.12
562.031	24.36
562.227	24.34
562.423	24.51
562.619	24.57
562.815	24.99
563.01	25.03
563.206	25.37
563.402	25.37
563.598	25.3
563.793	25.38
563.989	25.46
564.185	25.61
564.381	25.75
564.576	25.88
564.772	25.87
564.968	25.83
565.163	25.92
565.359	25.86
565.555	25.88
565.75	26.34
565.946	26.6
566.141	26.68
566.337	26.82
566.532	26.9
566.728	26.9
566.923	26.95
567.119	27.1
567.314	27.21
567.51	27.47
567.705	27.6
567.901	27.36
568.096	27.33
568.292	27.52
568.487	27.55
568.682	27.61
568.878	27.53
569.073	27.75
569.268	27.72
569.464	27.84
569.659	27.83
569.854	28.02
570.05	27.99
570.245	28.17
570.44	28.23
570.635	28.25
570.831	28.48
571.026	28.93
571.221	28.86
571.416	29.12
571.611	29.13
571.806	29.28
572.002	29.55
572.197	29.72
572.392	29.78
572.587	29.93
572.782	30.16
572.977	30.07
573.172	30.04
573.367	30.31
573.562	30.24
573.757	30.4
573.952	30.48
574.147	30.54
574.342	30.47
574.537	30.58
574.732	30.37
574.927	30.24
575.121	30.25
575.316	30.36
575.511	30.49
575.706	30.49
575.901	30.52
576.096	30.4
576.29	30.23
576.485	30.58
576.68	30.68
576.875	30.93
577.069	31.24
577.264	31.39
577.459	31.33
577.654	31.31
577.848	31.61
578.043	31.7
578.238	31.86
578.432	32.13
578.627	31.99
578.821	31.79
579.016	32.06
579.21	32.03
579.405	32.3
579.6	32.32
579.794	32.44
579.989	32.28
580.183	32.3
580.378	32.4
580.572	32.23
580.766	32.45
580.961	32.66
581.155	32.77
581.35	32.75
581.544	32.73
581.738	33.01
581.933	32.95
582.127	33.02
582.321	32.87
582.516	32.81
582.71	33.04
582.904	33.02
583.099	33.01
583.293	32.84
583.487	32.71
583.681	32.72
583.875	32.77
584.07	32.9
584.264	33.14
584.458	33.68
584.652	33.94
584.846	33.88
585.04	33.72
585.234	33.97
585.428	34
585.623	34.3
585.817	34.43
586.011	34.34
586.205	34.49
586.399	34.72
586.593	34.48
586.787	34.46
586.981	34.21
587.174	34.55
587.368	34.86
587.562	35.08
587.756	34.94
587.95	35.07
588.144	35.29
588.338	35.32
588.532	35.11
588.725	35.32
588.919	35.55
589.113	35.9
589.307	35.79
589.501	35.61
589.694	35.71
589.888	35.87
590.082	35.83
590.275	35.86
590.469	35.81
590.663	35.7
590.856	35.54
591.05	35.48
591.244	35.57
591.437	35.68
591.631	35.52
591.824	35.69
592.018	35.67
592.212	35.63
592.405	35.4
592.599	35.43
592.792	35.81
592.986	36.15
593.179	36.15
593.372	36.18
593.566	36.4
593.759	36.7
593.953	36.46
594.146	36.6
594.339	36.69
594.533	36.95
594.726	37.2
594.92	37.1
595.113	37
595.306	36.89
595.499	36.95
595.693	36.81
595.886	36.76
596.079	36.87
596.272	36.9
596.466	37
596.659	37.07
596.852	36.86
597.045	37.07
597.238	36.99
597.431	37.11
597.624	37.23
597.818	37.35
598.011	37.38
598.204	37.32
598.397	37.41
598.59	37.3
598.783	37.19
598.976	37.32
599.169	37.38
599.362	37.56
599.555	37.85
599.748	37.68
599.941	37.64
600.134	37.72
600.326	37.98
600.519	37.79
600.712	37.81
600.905	37.88
601.098	38.11
601.291	37.89
601.483	37.83
601.676	37.7
601.869	37.82
602.062	37.72
602.255	37.64
602.447	37.43
602.64	37.57
602.833	37.79
603.025	37.94
603.218	37.89
603.411	38.07
603.603	38.07
603.796	37.98
603.989	38
604.181	38.17
604.374	38.27
604.566	38.43
604.759	38.36
604.951	38.29
605.144	38.29
605.336	38.17
605.529	37.93
605.721	38.09
605.914	38.29
606.106	38.39
606.299	38.5
606.491	38.5
606.683	38.58
606.876	38.9
607.068	38.9
607.26	38.92
607.453	39.14
607.645	39.19
607.837	38.98
608.03	39.13
608.222	39.05
608.414	39
608.606	39.08
608.799	38.86
608.991	38.8
609.183	38.84
609.375	39.01
609.567	39.12
609.759	39.27
609.952	39.39
610.144	39.1
610.336	38.92
610.528	38.99
610.72	39.01
610.912	39.01
611.104	39.01
611.296	39.09
611.488	39.19
611.68	39.08
611.872	39.04
612.064	39.16
612.256	39.37
612.448	39.65
612.64	39.64
612.832	39.67
613.023	39.68
613.215	39.67
613.407	39.66
613.599	39.52
613.791	39.49
613.983	39.74
614.174	39.65
614.366	39.56
614.558	39.53
614.75	39.55
614.941	39.79
615.133	39.83
615.325	39.99
615.516	40
615.708	39.75
615.9	39.95
616.091	39.87
616.283	40.03
616.475	39.96
616.666	39.85
616.858	40.08
617.049	39.68
617.241	39.86
617.432	39.83
617.624	39.91
617.815	40.27
618.007	40.14
618.198	40.29
618.39	40.17
618.581	40.37
618.773	40.65
618.964	40.41
619.155	41.09
619.347	41.4
619.538	41.63
619.729	41.79
619.921	41.68
620.112	41.79
620.303	41.6
620.494	41.51
620.686	41.5
620.877	41.62
621.068	41.81
621.259	41.42
621.451	41.53
621.642	41.61
621.833	41.56
622.024	41.53
622.215	41.53
622.406	41.53
622.597	41.57
622.788	41.58
622.98	41.34
623.171	41.63
623.362	41.51
623.553	41.52
623.744	41.48
623.935	41.51
624.126	41.67
624.317	41.39
624.508	41.48
624.698	41.52
624.889	41.21
625.08	41.58
625.271	41.39
625.462	41.44
625.653	41.18
625.844	41.2
626.034	41.03
626.225	41.21
626.416	41.25
626.607	41.37
626.798	41.54
626.988	41.95
627.179	41.68
627.37	41.65
627.56	41.66
627.751	41.57
627.942	41.42
628.132	41.49
628.323	41.27
628.514	41.48
628.704	41.46
628.895	41.4
629.085	41.46
629.276	41.37
629.466	41.49
629.657	41.33
629.847	41.47
630.038	41.41
630.228	41.33
630.419	41.38
630.609	41.54
630.8	41.51
630.99	41.33
631.181	41.35
631.371	41.4
631.561	41.25
631.752	41.35
631.942	41.34
632.132	41.33
632.323	41.78
632.513	41.75
632.703	41.83
632.893	42.07
633.084	42.21
633.274	42.17
633.464	42.2
633.654	42.53
633.844	42.64
634.034	42.72
634.225	43.01
634.415	42.79
634.605	42.81
634.795	42.39
634.985	42.34
635.175	42.46
635.365	42.46
635.555	42.7
635.745	42.29
635.935	42.37
636.125	42.31
636.315	42.28
636.505	42.31
636.695	42.44
636.885	42.9
637.075	42.88
637.265	43.05
637.455	43.05
637.644	43.31
637.834	43.34
638.024	43.37
638.214	43.43
638.404	43.28
638.593	43.26
638.783	43.2
638.973	43.07
639.163	43.03
639.352	43.03
639.542	42.62
639.732	42.33
639.921	42.6
640.111	42.62
640.301	42.83
640.49	43.24
640.68	43.71
640.87	43.78
641.059	43.5
641.249	43.74
641.438	43.07
641.628	43.43
641.817	43.49
642.007	43.32
642.196	43.1
642.386	43.01
642.575	42.98
642.764	42.58
642.954	42.77
643.143	42.83
643.333	42.7
643.522	43.04
643.711	43.06
643.901	43.14
644.09	43.08
644.279	43.58
644.469	43.59
644.658	43.28
644.847	43.07
645.036	43.04
645.226	43.32
645.415	43.06
645.604	43.61
645.793	43.47
645.982	43.39
646.171	43.52
646.361	43.38
646.55	43.32
646.739	43.72
646.928	43.96
647.117	43.8
647.306	43.84
647.495	44.18
647.684	43.92
647.873	43.99
648.062	44.38
648.251	44.28
648.44	43.86
648.629	43.66
648.818	43.23
649.007	43.11
649.196	43.28
649.384	43.04
649.573	43.04
649.762	43.1
649.951	43.41
650.14	43.01
650.328	43.11
650.517	43.63
650.706	44
650.895	44.21
651.083	44.31
651.272	43.97
651.461	44.28
651.65	44.12
651.838	43.83
652.027	43.79
652.216	43.94
652.404	43.65
652.593	43.44
652.781	43.3
652.97	43.25
653.158	43.29
653.347	43.43
653.535	43.34
653.724	43.16
653.912	43.62
654.101	43.34
654.289	43.11
654.478	43.68
654.666	43.86
654.855	43.87
655.043	43.61
655.231	43.53
655.42	44.01
655.608	43.67
655.796	44.04
655.985	44.14
656.173	44.39
656.361	44.7
656.55	44.23
656.738	44.2
656.926	44.41
657.114	44.66
657.302	44.81
657.491	44.44
657.679	44.81
657.867	44.75
658.055	44.72
658.243	44.49
658.431	44.47
658.619	44.75
658.807	45.05
658.996	44.83
659.184	44.94
659.372	44.95
659.56	44.98
659.748	44.82
659.936	44.8
660.124	44.5
660.311	44.61
660.499	44.49
660.687	44.58
660.875	44.39
661.063	44.38
661.251	44.49
661.439	44.58
661.627	44.63
661.814	44.75
662.002	44.78
662.19	45.26
662.378	44.99
662.565	45.56
662.753	45.63
662.941	45.81
663.129	46
663.316	45.96
663.504	45.81
663.692	45.97
663.879	46.29
664.067	46.34
664.254	46.15
664.442	46.97
664.63	46.66
664.817	46.59
665.005	46.34
665.192	46.36
665.38	46.04
665.567	46.11
665.755	45.6
665.942	45.22
666.13	45.22
666.317	45.2
666.504	44.45
666.692	44.26
666.879	44.11
667.067	44.22
667.254	44.14
667.441	44.76
667.629	44.61
667.816	44.74
668.003	44.84
668.19	44.68
668.378	44.88
668.565	45.61
668.752	45.51
668.939	45.71
669.127	45.62
669.314	45.38
669.501	45.21
669.688	45.36
669.875	45.52
670.062	45.3
670.249	45.72
670.436	45.82
670.623	45.6
670.81	45.72
670.997	45.72
671.184	45.54
671.371	46.15
671.558	46.46
671.745	46.47
671.932	46.94
672.119	47.4
672.306	46.94
672.493	46.33
672.68	46.34
672.867	46.26
673.054	45.88
673.24	45.89
673.427	45.84
673.614	45.7
673.801	45.82
673.988	45.57
674.174	45.21
674.361	45.74
674.548	46.33
674.734	46.33
674.921	46.83
675.108	47.14
675.294	47.41
675.481	47.35
675.668	47.1
675.854	47.3
676.041	47.21
676.227	47.91
676.414	48.14
676.601	48.39
676.787	48.37
676.974	48.11
677.16	48.06
677.347	47.68
677.533	47.67
677.719	47.68
677.906	47.56
678.092	47.79
678.279	47.39
678.465	46.73
678.651	46.34
678.838	46.4
679.024	46.65
679.21	46.74
679.397	46.72
679.583	46.68
679.769	46.64
679.955	46.48
680.142	46.14
680.328	46.02
680.514	46.23
680.7	46.36
680.886	46.34
681.073	46.58
681.259	46.27
681.445	46.7
681.631	46.67
681.817	46.2
682.003	46.17
682.189	46.44
682.375	46.74
682.561	46.99
682.747	46.77
682.933	46.53
683.119	46.12
683.305	46.37
683.491	46.6
683.677	46.57
683.863	47.11
684.049	47.33
684.235	47.12
684.42	47
684.606	46.39
684.792	46.43
684.978	46.76
685.164	46.57
685.349	46.7
685.535	46.54
685.721	46.51
685.907	46.48
686.092	46.78
686.278	47.4
686.464	47.75
686.649	48.62
686.835	48.37
687.021	48.41
687.206	48.75
687.392	49.02
687.577	48.92
687.763	49.24
687.948	49.18
688.134	48.79
688.319	48.08
688.505	47.77
688.69	47.45
688.876	47.47
689.061	47.05
689.247	47.27
689.432	47.05
689.618	46.81
689.803	46.69
689.988	46.83
690.174	46.95
690.359	47.31
690.544	47.36
690.73	47.08
690.915	47.58
691.1	47.85
691.285	47.52
691.471	47.99
691.656	48.18
691.841	48.25
692.026	47.99
692.211	47.72
692.396	47.6
692.582	47.75
692.767	47.78
692.952	47.09
693.137	47.63
693.322	47.44
693.507	47.01
693.692	46.91
693.877	46.76
694.062	46.88
694.247	46.9
694.432	47.02
694.617	46.75
694.802	46.72
694.987	47.16
695.172	46.55
695.357	46.6
695.541	46.38
695.726	46.12
695.911	46.75
696.096	46.83
696.281	47.37
696.466	47.05
696.65	46.67
696.835	46.67
697.02	47.05
697.204	46.78
697.389	46.64
697.574	46.95
697.759	47.33
697.943	46.5
698.128	46.63
698.312	46.44
698.497	46.26
698.682	46.6
698.866	46.58
699.051	46.19
699.235	46.87
699.42	47.1
699.604	47.21
699.789	47.21
699.973	47.37
700.158	47.28
700.342	47.54
700.527	47.85
700.711	47.86
700.895	48.2
701.08	48.83
701.264	48.07
701.448	47.77
701.633	47.4
701.817	47.33
702.001	48.13
702.186	48.14
702.37	47.55
702.554	47.83
702.738	48.57
702.923	48.43
703.107	48.11
703.291	48.72
703.475	48.66
703.659	48.57
703.843	48.36
704.027	47.87
704.212	48.54
704.396	49.13
704.58	49.11
704.764	48.62
704.948	49.33
705.132	49.2
705.316	48.83
705.5	49.03
705.684	49.92
705.868	50.24
706.052	50.46
706.235	49.92
706.419	50.02
706.603	49.93
706.787	49.59
706.971	48.92
707.155	48.67
707.339	49.09
707.522	48.77
707.706	48.61
707.89	48.97
708.074	48.69
708.257	49.02
708.441	48.85
708.625	49.14
708.808	49.74
708.992	49.92
709.176	50.1
709.359	49.62
709.543	49.98
709.727	49.32
709.91	49.36
710.094	49.22
710.277	48.97
710.461	49.3
710.644	49.08
710.828	48.64
711.011	48.9
711.195	49.1
711.378	49.62
711.562	50.35
711.745	50.77
711.928	50.75
712.112	50.41
712.295	50.25
712.478	49.52
712.662	49.92
712.845	49.87
713.028	49.58
713.212	49.92
713.395	49.17
713.578	48.6
713.761	48.6
713.945	48.38
714.128	49.06
714.311	48.78
714.494	48.91
714.677	49.21
714.86	49.4
715.043	48.68
715.227	48
715.41	49.03
715.593	49.47
715.776	49.67
715.959	49.79
716.142	50.06
716.325	50.29
716.508	50.68
716.691	49.76
716.874	49.81
717.057	50.62
717.239	51.17
717.422	50.84
717.605	50.31
717.788	49.66
717.971	49.41
718.154	48.77
718.337	48.56
718.519	48.49
718.702	48.37
718.885	47.76
719.068	47.9
719.25	47.86
719.433	47.96
719.616	48.26
719.798	48.16
719.981	48.53
720.164	48.66
720.346	49.19
720.529	49
720.712	49.54
720.894	50.72
721.077	50.33
721.259	50.28
721.442	50.96
721.624	50.85
721.807	51.11
721.989	51.37
722.172	51.84
722.354	52.03
722.537	52.58
722.719	52.86
722.901	52
723.084	52.16
723.266	51.86
723.448	50.97
723.631	51.52
723.813	51.94
723.995	51.75
724.178	51.47
724.36	51.27
724.542	51.08
724.724	50.3
724.907	50.76
725.089	51.29
725.271	51.87
725.453	51.59
725.635	51.76
725.817	51.76
725.999	52.05
726.181	52.08
726.364	51.73
726.546	51.26
726.728	51.8
726.91	51.49
727.092	50.66
727.274	49.62
727.456	49.86
727.638	48.64
727.819	48.12
728.001	48
728.183	47.89
728.365	47.77
728.547	47.76
728.729	47.75
728.911	47.79
729.093	47.52
729.274	48.55
729.456	49.19
729.638	49.8
729.82	50.3
730.001	50.04
730.183	50
730.365	49.92
730.546	49.94
730.728	49.69
730.91	50.4
731.091	51.17
731.273	50.73
731.455	50.4
731.636	50.66
731.818	51.41
731.999	50.98
732.181	51.46
732.362	52.12
732.544	52.17
732.725	52.69
732.907	52.32
733.088	52.22
733.27	52.5
733.451	52.93
733.633	52.62
733.814	51.96
733.995	52.76
734.177	52.34
734.358	51.83
734.539	52.12
734.721	52.11
734.902	51.87
735.083	52
735.264	52
735.446	50.76
735.627	50.76
735.808	50.5
735.989	50.2
736.17	50.81
736.351	50.11
736.533	50.33
736.714	50.92
736.895	50.84
737.076	50.74
737.257	51.02
737.438	52.28
737.619	52.1
737.8	52.5
737.981	52.18
738.162	51.5
738.343	53.16
738.524	52.98
738.705	52.29
738.886	52.66
739.067	52.62
739.247	52.48
739.428	52.26
739.609	52.97
739.79	53.66
739.971	53.66
740.151	54.57
740.332	54.01
740.513	53.9
740.694	52.78
740.874	52.43
741.055	52.62
741.236	52.43
741.417	52.85
741.597	52.58
741.778	52.84
741.958	53.27
742.139	52.27
742.32	52.13
742.5	52.83
742.681	54.66
742.861	54.48
743.042	53.92
743.222	53.8
743.403	52.74
743.583	52.79
743.764	52.23
743.944	53.14
744.124	54.06
744.305	55
744.485	54.79
744.666	54.05
744.846	54.9
745.026	55.87
745.207	55.62
745.387	56.33
745.567	56.22
745.747	56.67
745.928	56.01
746.108	55.74
746.288	54.55
746.468	53.75
746.648	54.65
746.829	55.39
747.009	55.17
747.189	55.64
747.369	53.65
747.549	53.48
747.729	52.87
747.909	52.52
748.089	52.18
748.269	52.19
748.449	52.85
748.629	51.91
748.809	50.54
748.989	50.49
749.169	50.89
749.349	53.29
749.529	53.9
749.709	53.9
749.889	54.03
750.068	55.09
750.248	55.16
750.428	54.74
750.608	54.52
750.788	55.22
750.967	55.09
751.147	54.95
751.327	53.96
751.507	53.25
751.686	53.46
751.866	52.47
752.046	52.19
752.225	52.36
752.405	52.4
752.585	54.16
752.764	54.02
752.944	53.71
753.123	53.8
753.303	53.45
753.482	53.65
753.662	53.21
753.841	53.98
754.021	52.68
754.2	52.97
754.38	53.08
754.559	52.27
754.739	52.34
754.918	52.47
755.097	51.92
755.277	52.29
755.456	52.75
755.635	52.86
755.815	53.67
755.994	54.97
756.173	54.11
756.352	54.49
756.532	54.01
756.711	53.05
756.89	53.81
757.069	53.39
757.248	52.55
757.427	52.15
757.607	52.78
757.786	52.73
757.965	51.68
758.144	53.53
758.323	53.57
758.502	53.14
758.681	53.05
758.86	52.84
759.039	53.12
759.218	53.99
759.397	54.14
759.576	52.92
759.755	53.12
759.934	53.75
760.113	52.86
760.291	53.11
760.47	54.2
760.649	54.59
760.828	54.19
761.007	54.28
761.186	54.74
761.364	53.94
761.543	54.35
761.722	53.35
761.901	53.08
762.079	53.2
762.258	52.57
762.437	51.77
762.615	51.95
762.794	52.28
762.972	52.69
763.151	51.83
763.33	51.91
763.508	51.42
763.687	51.28
763.865	51.08
764.044	50.3
764.222	49.94
764.401	49.68
764.579	49.53
764.758	49.28
764.936	49.66
765.114	51.34
765.293	51.36
765.471	52.32
765.65	53.01
765.828	53.18
766.006	54.12
766.184	55.7
766.363	56.7
766.541	56.82
766.719	56.99
766.898	55.72
767.076	53.88
767.254	54.78
767.432	54.68
767.61	54.65
767.788	55.51
767.967	54.3
768.145	53.61
768.323	53.41
768.501	53.77
768.679	53.45
768.857	53.96
769.035	55.48
769.213	54.99
769.391	54.42
769.569	53.34
769.747	52.48
769.925	53.77
770.103	53.4
770.281	53.11
770.459	53.67
770.636	54.78
770.814	54.91
770.992	54.2
771.17	54.49
771.348	54.71
771.525	55.69
771.703	55.67
771.881	56.09
772.059	56.26
772.236	55.65
772.414	55.41
772.592	55.82
772.769	56.14
772.947	57.84
773.125	57.6
773.302	57.62
773.48	58.04
773.657	58.37
773.835	57.82
774.013	58.49
774.19	59.29
774.368	60.79
774.545	60.02
774.723	60.55
774.9	59.33
775.077	59.61
775.255	60.52
775.432	61.27
775.61	61.31
775.787	61.94
775.964	61.57
776.142	60.97
776.319	59.97
776.496	59.46
776.674	58.28
776.851	56.67
777.028	57.2
777.205	55.28
777.382	54.46
777.56	55.9
777.737	58.18
777.914	57.64
778.091	57.61
778.268	57.98
778.445	57.87
778.622	57.28
778.8	58.28
778.977	57.17
779.154	62.38
779.331	61.6
779.508	59.99
779.685	56.6
779.862	57.14
780.038	58.39
780.215	58.77
780.392	58.74
780.569	60.37
780.746	58.97
780.923	60.65
781.1	56.48
781.277	57.87
781.453	56.8
781.63	59.04
781.807	60.93
781.984	61.55
782.16	59.61
782.337	59.82
782.514	59.32
782.691	61.36
782.867	61.45
783.044	62.39
783.221	59.84
783.397	61.8
783.574	60.47
783.75	57.41
783.927	56.5
784.103	57.64
784.28	56.75
784.456	58
784.633	57.34
784.809	57.28
784.986	57.12
785.162	55.78
785.339	57.57
785.515	57.23
785.692	56.78
785.868	56.19
786.044	56.32
786.221	58.26
786.397	58.03
786.573	57.2
786.749	56.56
786.926	55.52
787.102	59.52
787.278	57.84
787.454	58.56
787.631	60.24
787.807	60.93
787.983	59.79
788.159	59.52
788.335	59.66
788.511	61.06
788.687	62.22
788.863	62.18
789.039	61.81
789.216	60.98
789.392	59.69
789.568	59.27
789.744	60.01
789.919	60.02
790.095	58.94
790.271	59.06
790.447	58.84
790.623	57.98
790.799	58.88
790.975	57.22
791.151	57.58
791.327	59.53
791.502	57.87
791.678	56.55
791.854	55.94
792.03	56.31
792.205	57.11
792.381	58.24
792.557	57.13
792.733	56.13
792.908	58.2
793.084	60.89
793.259	59.82
793.435	61.96
793.611	62.7
793.786	64.25
793.962	65.33
794.137	63.97
794.313	63.27
794.488	65.35
794.664	66.67
794.839	66.51
795.015	63.87
795.19	64.89
795.366	63.49
795.541	63.64
795.716	63.69
795.892	62.77
796.067	62.36
796.242	63.12
796.418	61.52
796.593	59.7
796.768	58.76
796.944	59.1
797.119	57.64
797.294	59.15
797.469	57.5
797.644	57.11
797.82	56
797.995	55.52
798.17	55.67
798.345	57.3
798.52	58.26
798.695	57.93
798.87	58.17
799.045	58.9
799.22	60.05
799.395	61.17
799.57	62.29
799.745	64.26
799.92	65.38
800.095	65.65
800.27	63.65
800.445	64.53
800.62	64.67
800.795	64.64
800.97	64.95
801.145	61.83
801.319	62.28
801.494	61.04
801.669	61.91
801.844	62.66
802.018	61.87
802.193	62.94
802.368	61.73
802.543	63.36
802.717	63.74
802.892	62.39
803.067	63.09
803.241	63.03
803.416	61.71
803.59	60.09
803.765	57.29
803.94	56.47
804.114	56.1
804.289	57.63
804.463	56.55
804.638	56.12
804.812	55.63
804.986	56.21
805.161	57.18
805.335	58.02
805.51	56.89
805.684	57.2
805.858	58.7
806.033	56.98
806.207	57.76
806.381	58.68
806.556	60.71
806.73	61.88
806.904	62.32
807.078	60.33
807.253	61.35
807.427	62.62
807.601	64.36
807.775	63.45
807.949	64.1
808.123	63.43
808.298	61.97
808.472	61.91
808.646	62.5
808.82	62.88
808.994	63.05
809.168	64.48
809.342	65.61
809.516	65.01
809.69	66.11
809.864	68.62
810.038	68.11
810.212	68.83
810.385	66.45
810.559	68.02
810.733	66.58
810.907	67.44
811.081	66.51
811.255	65.93
811.428	66.2
811.602	64.02
811.776	64.35
811.95	63.68
812.123	61.84
812.297	60.09
812.471	57.97
812.644	59.39
812.818	61.1
812.992	59.1
813.165	58.68
813.339	59.92
813.512	59.29
813.686	59.94
813.86	61.32
814.033	64.67
814.207	64.91
814.38	65.57
814.554	65.3
814.727	63.97
814.9	65.13
815.074	65.57
815.247	66.38
815.421	64.26
815.594	63.5
815.767	64.71
815.941	64.42
816.114	66.59
816.287	65.4
816.46	65.2
816.634	62.16
816.807	62.44
816.98	61.46
817.153	60.45
817.327	62.02
817.5	61.2
817.673	59.52
817.846	58.59
818.019	61.45
818.192	64.18
818.365	65.69
818.538	68.89
818.711	67.39
818.884	70.75
819.057	69.66
819.23	70.3
819.403	69.64
819.576	68.63
819.749	69.35
819.922	66.94
820.095	64.04
820.268	64.42
820.441	63.46
820.614	64.24
820.786	61.17
820.959	59.5
821.132	58.52
821.305	56.53
821.477	55.8
821.65	55.73
821.823	53.76
821.996	53.27
822.168	52.54
822.341	52.04
822.514	51.45
822.686	51.77
822.859	51.7
823.031	51.4
823.204	51.54
823.376	51.15
823.549	50.36
823.722	50.99
823.894	51.65
824.067	51.34
824.239	51.28
824.411	51.1
824.584	50.9
824.756	51.38
824.929	51.16
825.101	51.17
825.273	50.77
825.446	50.19
825.618	49.59
825.79	48.19
825.963	48.48
826.135	48.21
826.307	48.97
826.479	48.52
826.652	47.76
826.824	48.73
826.996	48.85
827.168	49.75
827.34	50.66
827.512	50.88
827.684	51.86
827.856	52.42
828.029	53.64
828.201	52.41
828.373	52.44
828.545	53.73
828.717	54.03
828.889	54.44
829.061	54.41
829.232	55.47
829.404	56.49
829.576	57.07
829.748	56.45
829.92	56.82
830.092	58.53
830.264	60.68
830.436	59.79
830.607	59
830.779	58.61
830.951	59.84
831.123	59.46
831.294	60.2
831.466	60.53
831.638	61.27
831.809	59.67
831.981	59.08
832.153	57.48
832.324	58.9
832.496	59.99
832.667	60.84
832.839	60.59
833.011	61.42
833.182	61.15
833.354	61.53
833.525	60.79
833.697	60.08
833.868	59.96
834.039	59.88
834.211	58.74
834.382	57
834.554	57.07
834.725	58.3
834.896	56.74
835.068	55.07
835.239	55.14
835.41	55.71
835.581	57.66
835.753	57.64
835.924	56.21
836.095	55.88
836.266	56.02
836.438	56.41
836.609	54.24
836.78	53.65
836.951	55.08
837.122	54.66
837.293	54.21
837.464	53.68
837.635	54.01
837.806	54.87
837.977	55.77
838.148	57.32
838.319	55.57
838.49	58.47
838.661	58.88
838.832	59.07
839.003	61.91
839.174	63.82
839.345	63.83
839.516	64.95
839.687	67.24
839.857	69.9
840.028	72.06
840.199	75.02
840.37	73.76
840.54	78.1
840.711	75.97
840.882	70.05
841.053	67.14
841.223	63.36
841.394	63.64
841.564	65.04
841.735	63.95
841.906	61.93
842.076	60.13
842.247	59.44
842.417	55.75
842.588	56.38
842.758	61.31
842.929	62.74
843.099	65.74
843.27	66.82
843.44	64.37
843.611	64.54
843.781	60.76
843.951	57.98
844.122	56.53
844.292	57.05
844.462	61.9
844.633	60.72
844.803	62.88
844.973	62.43
845.144	60.65
845.314	59.38
845.484	58.45
845.654	66.43
845.824	80.9
845.995	83.37
846.165	89.8
846.335	92.59
846.505	102.47
846.675	111.47
846.845	114.84
847.015	120.52
847.185	136.1
847.355	141.1
847.525	135.03
847.695	127.73
847.865	126.37
848.035	115.56
848.205	112.69
848.375	108.11
848.545	98.93
848.715	95.95
848.884	93.76
849.054	80.22
849.224	79.89
849.394	81.69
849.564	85.81
849.733	88.22
849.903	93.64
850.073	88.41
850.243	77.18
850.412	75.2
850.582	82.79
850.752	84.79
850.921	89.05
851.091	87.28
851.26	89.97
851.43	82.72
851.599	85.3
851.769	83.94
851.939	88.61
852.108	92.86
852.278	92.07
852.447	84.1
852.616	84.06
852.786	77.28
852.955	79.01
853.125	74.34
853.294	76.64
853.463	72.01
853.633	68.3
853.802	68.42
853.971	71.5
854.141	76.52
854.31	80.68
854.479	81.24
854.648	82.49
854.818	76.77
854.987	79.42
855.156	86.85
855.325	87.99
855.494	94.22
855.663	97.24
855.832	101.33
856.001	99.3
856.171	105.36
856.34	106.95
856.509	119.27
856.678	125.98
856.847	121.46
857.016	105.47
857.185	108.28
857.353	112.61
857.522	112.59
857.691	109.07
857.86	111.11
858.029	108.38
858.198	111.99
858.367	106.24
858.535	114.26
858.704	123.54
858.873	140.29
859.042	118.51
859.21	118.73
859.379	116.23
859.548	124.52
859.717	127.8
859.885	127.28
860.054	119.92
860.222	121.36
860.391	115.32
860.56	109.6
860.728	103.55
860.897	114.57
861.065	106.12
861.234	105.47
861.402	95.38
861.571	95.62
861.739	100.35
861.908	108.27
862.076	106.68
862.244	107.03
862.413	103.96
862.581	102.66
862.749	97.29
862.918	104.57
863.086	95.98
863.254	97.62
863.423	94.36
863.591	88.45
863.759	82.18
863.927	82.98
864.096	91.94
864.264	92.95
864.432	92.05
864.6	92.08
864.768	91.03
864.936	94.76
865.104	100.42
865.272	99.61
865.44	100.93
865.608	97.37
865.776	99.44
865.944	88.61
866.112	86.54
866.28	98.63
866.448	104.95
866.616	100.36
866.784	109.74
866.952	106.37
867.12	110.22
867.288	111.41
867.455	114.91
867.623	112.41
867.791	124.05
867.959	136.81
868.127	132.07
868.294	133.8
868.462	138.67
868.63	111.34
868.797	110.35
868.965	110.46
869.133	103.3
869.3	117.35
869.468	108.93
869.636	108.93
869.803	98.36
869.971	90.86
870.138	92.63
870.306	93.52
870.473	101.62
870.641	100.76
870.808	101.88
870.975	95.54
871.143	85.71
871.31	88.33
871.478	80.69
871.645	83.75
871.812	86.71
871.98	90.11
872.147	90.3
872.314	84.35
872.482	83.18
872.649	78.11
872.816	88.61
872.983	88.54
873.15	92.87
873.318	100.49
873.485	104.38
873.652	112.92
873.819	113.65
873.986	98.92
874.153	104.67
874.32	94.01
874.487	91.72
874.654	89.51
874.821	92.61
874.988	86.17
875.155	81.62
875.322	81.31
875.489	75.64
875.656	71.19
875.823	92.14
875.99	90.09
876.157	103.05
876.324	116.49
876.49	114.46
876.657	111.47
876.824	106.91
876.991	102.19
877.157	100.18
877.324	94.17
877.491	96.67
877.658	86.01
877.824	85.21
877.991	90.5
878.157	83.35
878.324	89.11
878.491	89.99
878.657	93.85
878.824	89.28
878.99	80.01
879.157	84.63
879.323	81.89
879.49	81.44
879.656	84.46
879.823	83.33
879.989	90.03
880.156	84.98
880.322	80.07
880.488	83.56
880.655	84.55
880.821	88.99
880.987	87.62
881.154	90.83
881.32	89.79
881.486	85.2
881.652	80.59
881.819	76.35
881.985	73.77
882.151	70.24
882.317	63.45
882.483	63.71
882.649	61.97
882.816	59.26
882.982	56.35
883.148	55.3
883.314	55.2
883.48	55.99
883.646	54.9
883.812	54.82
883.978	55.46
884.144	56.93
884.31	56.12
884.476	54.2
884.642	53.51
884.807	55.88
884.973	56.66
885.139	56.28
885.305	55.76
885.471	56.36
885.637	55.99
885.802	56.08
885.968	57.61
886.134	58.68
886.3	63.54
886.465	65.98
886.631	67.07
886.797	69.22
886.962	71.48
887.128	75.59
887.293	74.38
887.459	78.38
887.625	77.48
887.79	73.68
887.956	78.34
888.121	75.16
888.287	75.23
888.452	67.18
888.618	66.22
888.783	61.22
