Data from LC_162_Reflection_1.txt Node
Date: Mon Nov 16 22:41:02 EST 2015
User: robert
Spectrometer: USB4E03001
Autoset integration time: false
Trigger mode: 4
Integration Time (sec): 1.000000E-1
Scans to average: 15
Electric dark correction enabled: true
Nonlinearity correction enabled: false
Boxcar width: 5
Stray light correction enabled: false
XAxis mode: Wavelengths
Stop averaging: false
Number of Pixels in Spectrum: 3648
>>>>>Begin Spectral Data<<<<<
177.566	795.18
177.785	217.6
178.005	-1755.46
178.225	70.17
178.445	13.52
178.665	266.78
178.885	138.1
179.105	-407.48
179.324	-1604.21
179.544	31.35
179.764	-567.06
179.984	35.74
180.204	-107.53
180.423	-105.51
180.643	-166.88
180.863	-106.24
181.083	-112.77
181.302	-196.34
181.522	-191.96
181.742	-170.06
181.961	-325.38
182.181	-258.29
182.401	-446.38
182.621	-1786.34
182.84	-823.98
183.06	-512.89
183.279	-337.49
183.499	-229.01
183.719	-160.36
183.938	-152.37
184.158	-166.28
184.377	-84.16
184.597	-179.36
184.816	-97.89
185.036	-62.44
185.256	-57.5
185.475	-101.67
185.695	-143.05
185.914	-225.2
186.134	-483.47
186.353	-655.76
186.572	-875.46
186.792	-1374.54
187.011	-471.78
187.231	-483.52
187.45	-314.87
187.67	-830.1
187.889	-2032.75
188.108	3496.62
188.328	-865.85
188.547	-237.47
188.766	-317.99
188.986	-568.36
189.205	-365.32
189.424	-310.02
189.644	-853.71
189.863	-1058.13
190.082	-533.63
190.302	-1075.22
190.521	-688.4
190.74	781.94
190.959	401.88
191.178	595.15
191.398	525.22
191.617	465.2
191.836	447.77
192.055	1060.23
192.274	424.99
192.494	539.26
192.713	570.04
192.932	1207.58
193.151	1101.66
193.37	2041.23
193.589	-1372.43
193.808	-355.15
194.027	-414.65
194.246	-3827.09
194.465	705.1
194.685	1760.3
194.904	865.02
195.123	-1139.98
195.342	-705.45
195.561	-273.6
195.78	-448.19
195.999	19663.38
196.218	664.61
196.436	685.5
196.655	-2105.87
196.874	-881.73
197.093	-1172.69
197.312	-996.3
197.531	3079.28
197.75	1000.26
197.969	-3494.09
198.188	-686.96
198.407	-172.13
198.625	-222.09
198.844	-193.67
199.063	-220.48
199.282	-377.38
199.501	-267.08
199.719	-172.73
199.938	-114.53
200.157	-134.95
200.376	-158.87
200.594	-251.13
200.813	-565.28
201.032	-419.91
201.251	-406.56
201.469	-346.29
201.688	-274.35
201.907	-479.86
202.125	-661.39
202.344	23120.24
202.563	3790.84
202.781	612.62
203	1670.84
203.218	1127.67
203.437	968.91
203.656	449.26
203.874	245.04
204.093	240.51
204.311	304.29
204.53	354.49
204.748	518.54
204.967	323.8
205.185	353.49
205.404	400.89
205.622	257.01
205.841	195.22
206.059	213.76
206.278	221.23
206.496	481.93
206.715	281.18
206.933	157.99
207.151	145.19
207.37	141.44
207.588	148.91
207.806	148.59
208.025	345.07
208.243	-591.87
208.461	1191.03
208.68	-18657.65
208.898	884.91
209.116	972.49
209.335	958.42
209.553	987.14
209.771	10410.42
209.989	2113.23
210.208	4364.45
210.426	-7178.5
210.644	3697.52
210.862	-3092.23
211.081	1273.05
211.299	-512.38
211.517	2041.67
211.735	-470.87
211.953	-145771.43
212.171	-2376.51
212.39	-5948.65
212.608	-16021.74
212.826	761.34
213.044	577.06
213.262	424.48
213.48	2503.8
213.698	262.92
213.916	371.99
214.134	260.5
214.352	457.52
214.57	284.22
214.788	285.49
215.006	278.14
215.224	244.15
215.442	175.57
215.66	159.13
215.878	128.79
216.096	143.65
216.314	141.42
216.532	289.15
216.75	251.38
216.968	282.59
217.185	702.89
217.403	1284.15
217.621	-3786.05
217.839	-1094.37
218.057	-1299.92
218.275	2445.27
218.492	755.93
218.71	1250.14
218.928	365.61
219.146	377.28
219.363	262.76
219.581	215.26
219.799	163.3
220.017	147.77
220.234	154.62
220.452	153.94
220.67	181.03
220.887	194.77
221.105	188.76
221.323	162.68
221.54	188.36
221.758	302.37
221.976	315.27
222.193	303.78
222.411	218.43
222.629	213.57
222.846	233.66
223.064	235.37
223.281	201.12
223.499	183.45
223.716	189.59
223.934	147.92
224.151	129.31
224.369	108.46
224.586	109.25
224.804	103.85
225.021	97.03
225.239	73.54
225.456	71.29
225.674	86.95
225.891	80.52
226.108	84.78
226.326	81.92
226.543	76
226.76	78.58
226.978	73.47
227.195	82.74
227.413	72.94
227.63	71.58
227.847	62.88
228.064	53.97
228.282	49.46
228.499	45.04
228.716	39.95
228.934	38.28
229.151	37.79
229.368	33.96
229.585	30.08
229.802	31.91
230.02	30.65
230.237	31.51
230.454	32.11
230.671	33.04
230.888	33.59
231.105	35.51
231.323	36.07
231.54	33.24
231.757	35.59
231.974	40.58
232.191	35.05
232.408	36.79
232.625	35.01
232.842	33.86
233.059	35.47
233.276	35.85
233.493	34.58
233.71	34.11
233.927	43.08
234.144	44.2
234.361	37.89
234.578	41.69
234.795	38.46
235.012	37.76
235.229	36.45
235.446	36.25
235.663	35.18
235.879	40.18
236.096	36.07
236.313	27.72
236.53	30.16
236.747	33.04
236.964	32.96
237.181	35.27
237.397	35.41
237.614	36.38
237.831	32.29
238.048	28.52
238.264	24.75
238.481	28.27
238.698	32.96
238.915	28.58
239.131	25.95
239.348	28.08
239.565	27.65
239.781	28.74
239.998	28.73
240.215	30.97
240.431	31.85
240.648	28.7
240.865	28.97
241.081	24.97
241.298	24.88
241.514	24.46
241.731	22.51
241.947	21.84
242.164	21.12
242.38	19.61
242.597	18.92
242.814	18.97
243.03	20.27
243.246	19.92
243.463	22.04
243.679	22.24
243.896	22.17
244.112	23.91
244.329	24.75
244.545	24.83
244.762	26.07
244.978	24.61
245.194	25.45
245.411	24.66
245.627	24.77
245.843	22.55
246.06	21.77
246.276	21.12
246.492	19.19
246.709	19.09
246.925	18.43
247.141	17.44
247.357	17.55
247.574	17.46
247.79	16.82
248.006	16.4
248.222	16.36
248.439	16.23
248.655	16.39
248.871	16.69
249.087	16.02
249.303	16.02
249.519	17.29
249.736	18.28
249.952	17.65
250.168	19.31
250.384	19.05
250.6	18.99
250.816	19.43
251.032	18.02
251.248	17.33
251.464	17.5
251.68	18.64
251.896	18.97
252.112	17.28
252.328	19.41
252.544	19.34
252.76	19.1
252.976	18.94
253.192	17.81
253.408	20.42
253.624	24.54
253.84	26.29
254.056	27.03
254.272	25.89
254.487	28.41
254.703	26.79
254.919	25.84
255.135	25.73
255.351	26.7
255.567	29.26
255.782	25.44
255.998	18.23
256.214	17.73
256.43	16.08
256.646	20
256.861	19.05
257.077	19.02
257.293	17.9
257.508	18.78
257.724	22.27
257.94	21.88
258.155	22.9
258.371	23.01
258.587	21.2
258.802	21.07
259.018	18.83
259.234	17.93
259.449	17.04
259.665	16.27
259.88	16.61
260.096	14.82
260.312	13.67
260.527	12.87
260.743	12.98
260.958	13.85
261.174	13.38
261.389	14.01
261.605	14.69
261.82	15.04
262.036	16.75
262.251	17.05
262.466	17.52
262.682	19.28
262.897	20.45
263.113	21.67
263.328	20.67
263.543	20.75
263.759	19.92
263.974	19.74
264.189	20.09
264.405	20.28
264.62	18.89
264.835	19.66
265.051	19.23
265.266	21.33
265.481	22.14
265.696	23.81
265.912	24.35
266.127	23.67
266.342	22.14
266.557	21.94
266.773	20.26
266.988	20.13
267.203	19.59
267.418	20.05
267.633	17.4
267.848	17.33
268.064	15.25
268.279	15.81
268.494	15.03
268.709	15.73
268.924	15.5
269.139	17.45
269.354	17.48
269.569	16.03
269.784	14.93
269.999	15.67
270.214	13.72
270.429	15.6
270.644	13.85
270.859	13.11
271.074	12.86
271.289	12.05
271.504	10.7
271.719	10.77
271.934	12.04
272.149	12.35
272.363	12.36
272.578	11.98
272.793	11.25
273.008	11.79
273.223	12.54
273.438	12.17
273.653	14.18
273.867	13.73
274.082	13.01
274.297	13.34
274.512	13.42
274.726	13.12
274.941	14.31
275.156	14.64
275.371	15.75
275.585	16.79
275.8	18.56
276.015	16.25
276.229	17.02
276.444	18.23
276.659	17.8
276.873	17.82
277.088	18.63
277.302	18.48
277.517	18.04
277.732	18.28
277.946	17.76
278.161	16.72
278.375	17.6
278.59	17.28
278.804	16.23
279.019	17.1
279.233	16
279.448	15.73
279.662	16.21
279.877	16.26
280.091	14.08
280.306	13.33
280.52	13.4
280.735	12.46
280.949	12.94
281.163	12.75
281.378	11.59
281.592	12.89
281.806	13.21
282.021	11.67
282.235	12.01
282.449	13.29
282.664	14.61
282.878	14.4
283.092	15.34
283.307	14.64
283.521	15.93
283.735	15.67
283.949	16.11
284.164	15.68
284.378	16.42
284.592	15.35
284.806	15.46
285.02	14.39
285.234	14.59
285.449	14.49
285.663	14.34
285.877	13.88
286.091	14
286.305	13.07
286.519	13.19
286.733	12.04
286.947	12.66
287.161	11.48
287.375	12.21
287.589	12.12
287.803	11.83
288.017	12.64
288.231	12.4
288.445	13.16
288.659	14.62
288.873	13.44
289.087	15.53
289.301	15.32
289.515	15.94
289.729	14.82
289.943	14.34
290.157	14.36
290.371	15.4
290.584	15.67
290.798	15.82
291.012	15.28
291.226	16.41
291.44	16.11
291.654	16.72
291.867	16.86
292.081	16.92
292.295	17.74
292.509	18.34
292.722	17.54
292.936	17.28
293.15	16.65
293.364	15.75
293.577	16.07
293.791	14.98
294.005	15.48
294.218	15.6
294.432	16.62
294.645	16.3
294.859	14.86
295.073	14.24
295.286	14.49
295.5	14.11
295.713	14.4
295.927	14.66
296.14	15.23
296.354	14.27
296.568	14.02
296.781	13.54
296.994	13.73
297.208	14.35
297.421	14.08
297.635	13.83
297.848	14.14
298.062	14.6
298.275	14.1
298.489	14.17
298.702	14.29
298.915	15.07
299.129	15.3
299.342	15.54
299.555	15.17
299.769	15.31
299.982	15.53
300.195	15.87
300.409	15.56
300.622	15.34
300.835	15.62
301.048	14.72
301.262	13.11
301.475	12.54
301.688	12.73
301.901	13.94
302.115	14.57
302.328	15.43
302.541	15.16
302.754	15.6
302.967	16.43
303.18	16.65
303.393	17.86
303.607	18.95
303.82	20.51
304.033	19.98
304.246	19.84
304.459	19.7
304.672	19.25
304.885	19.37
305.098	18.89
305.311	17.1
305.524	16.4
305.737	16.33
305.95	17.32
306.163	14.91
306.376	13.42
306.589	12.62
306.802	11.76
307.015	12.18
307.228	12.74
307.44	12.23
307.653	12.04
307.866	11.31
308.079	12
308.292	11.34
308.505	12.82
308.718	13.47
308.93	13.71
309.143	15.11
309.356	13.73
309.569	12.83
309.781	13.45
309.994	14.78
310.207	15.55
310.42	14.77
310.632	13.93
310.845	13.86
311.058	13.7
311.27	14.05
311.483	13.47
311.696	13.85
311.908	14.68
312.121	14.47
312.333	14.68
312.546	13.7
312.759	13.46
312.971	14.33
313.184	14.51
313.396	14.58
313.609	14.95
313.821	14.6
314.034	15.38
314.246	14.23
314.459	14.36
314.671	14.08
314.884	14.12
315.096	13.4
315.309	12.54
315.521	13.24
315.733	13.13
315.946	11.67
316.158	11.51
316.371	11.58
316.583	12.89
316.795	12.11
317.008	12.28
317.22	14.75
317.432	15.36
317.644	15.59
317.857	13.5
318.069	14.35
318.281	14.9
318.494	14.81
318.706	14.91
318.918	13.47
319.13	13.58
319.342	13.08
319.555	11.92
319.767	13.3
319.979	13.3
320.191	14.41
320.403	14.11
320.615	14.62
320.827	16.43
321.039	15.95
321.252	16.49
321.464	16.72
321.676	16.87
321.888	16.64
322.1	16.84
322.312	15.64
322.524	14.7
322.736	14.43
322.948	13.5
323.16	11.55
323.372	11.31
323.584	11.1
323.796	10.47
324.007	10.69
324.219	10.7
324.431	10.08
324.643	10.92
324.855	11.13
325.067	11.27
325.279	11.81
325.491	12.73
325.702	11.81
325.914	11.94
326.126	13.21
326.338	12.84
326.55	12.73
326.761	13.18
326.973	12.73
327.185	13.58
327.396	13.52
327.608	13.3
327.82	12.71
328.032	13.53
328.243	13.53
328.455	13.36
328.666	13.75
328.878	13.93
329.09	12.86
329.301	12.75
329.513	12.47
329.725	12.19
329.936	12.79
330.148	12.64
330.359	12.7
330.571	13.42
330.782	14.08
330.994	15.36
331.205	15.84
331.417	16.11
331.628	17.64
331.84	17.86
332.051	18.65
332.262	17.87
332.474	17.58
332.685	18.2
332.897	16.88
333.108	15.92
333.319	13.92
333.531	13.66
333.742	13.93
333.953	12.46
334.165	12.3
334.376	12.7
334.587	13.34
334.799	13.8
335.01	12.82
335.221	13.65
335.432	13.2
335.644	13.23
335.855	13.28
336.066	13.99
336.277	15.09
336.488	15.01
336.7	13.67
336.911	13.54
337.122	13.18
337.333	13.89
337.544	14.38
337.755	14.96
337.966	15.83
338.177	15.71
338.388	15.17
338.599	14.99
338.811	15.28
339.022	16.07
339.233	16.71
339.444	17.55
339.655	16.14
339.866	15.56
340.076	15.45
340.287	14.8
340.498	15.36
340.709	14.95
340.92	14.37
341.131	14.53
341.342	14.45
341.553	13.54
341.764	12.97
341.975	14.42
342.185	14.3
342.396	13.83
342.607	14.67
342.818	14.43
343.029	15.34
343.239	15.53
343.45	16.1
343.661	16.41
343.872	16.08
344.082	16.15
344.293	16.44
344.504	16.74
344.714	16.37
344.925	15.21
345.136	15.44
345.346	13.57
345.557	13.77
345.768	12.72
345.978	11.89
346.189	12.22
346.399	12.14
346.61	11.6
346.821	11.8
347.031	12.66
347.242	12.54
347.452	12
347.663	12.88
347.873	13.49
348.084	13.3
348.294	14.65
348.504	14.37
348.715	14.78
348.925	14.34
349.136	13.56
349.346	13.19
349.557	14.14
349.767	14.89
349.977	15.22
350.188	14.69
350.398	16.12
350.608	15.38
350.819	16.22
351.029	15.51
351.239	16.01
351.449	15.85
351.66	15.99
351.87	15.52
352.08	14.14
352.29	13.13
352.501	12.44
352.711	11.54
352.921	11.71
353.131	10.3
353.341	10.16
353.552	9.6
353.762	10.4
353.972	10.76
354.182	12
354.392	12
354.602	12.81
354.812	13.18
355.022	12.65
355.232	11.74
355.442	13.09
355.652	13.36
355.862	13.02
356.072	13.06
356.282	12.37
356.492	11.56
356.702	11.8
356.912	11.85
357.122	12.1
357.332	12.51
357.542	13.04
357.752	12.73
357.962	12.8
358.171	13.02
358.381	12.9
358.591	13.27
358.801	13.22
359.011	13.73
359.221	13.92
359.43	13.64
359.64	13.69
359.85	13.73
360.06	13.25
360.269	13.07
360.479	13.57
360.689	13.11
360.899	13.07
361.108	13
361.318	12.65
361.528	12.17
361.737	11.91
361.947	11.38
362.156	11.24
362.366	11.43
362.576	11.62
362.785	11.27
362.995	10.7
363.204	10.93
363.414	10.77
363.623	10.65
363.833	10.94
364.042	11.16
364.252	11.67
364.461	11.64
364.671	11.4
364.88	11.48
365.09	12.3
365.299	13.22
365.509	12.06
365.718	11.79
365.927	11.93
366.137	12.07
366.346	11.99
366.555	11.45
366.765	11.57
366.974	11.95
367.183	12.23
367.393	11.39
367.602	11.03
367.811	11.35
368.021	11.06
368.23	10.52
368.439	10.36
368.648	10.16
368.857	10.63
369.067	10.52
369.276	9.8
369.485	9.16
369.694	8.99
369.903	9.7
370.112	10.17
370.321	10.14
370.531	10.58
370.74	10.4
370.949	10.28
371.158	10.04
371.367	10.26
371.576	10.63
371.785	10.31
371.994	10.26
372.203	9.46
372.412	9.15
372.621	9.97
372.83	10.1
373.039	10.24
373.248	10.42
373.457	10.31
373.666	9.88
373.874	9.79
374.083	10.03
374.292	9.84
374.501	9.93
374.71	9.75
374.919	9.36
375.128	9.05
375.336	8.95
375.545	9.41
375.754	9.02
375.963	8.54
376.171	8.11
376.38	8.46
376.589	9.24
376.798	9.06
377.006	9.29
377.215	9.67
377.424	9.54
377.632	9.57
377.841	9.42
378.05	9.64
378.258	10.2
378.467	10.52
378.675	10.44
378.884	10.18
379.093	10.49
379.301	10.26
379.51	9.86
379.718	10.03
379.927	9.75
380.135	9.07
380.344	9.08
380.552	8.66
380.761	8.87
380.969	8.79
381.177	8.37
381.386	7.65
381.594	7.87
381.803	7.91
382.011	7.84
382.219	7.64
382.428	7.52
382.636	7.46
382.845	8.05
383.053	7.97
383.261	8.07
383.469	8.35
383.678	8.99
383.886	8.62
384.094	8.42
384.302	8.69
384.511	9.05
384.719	9.3
384.927	8.92
385.135	8.83
385.343	8.96
385.552	8.59
385.76	8.17
385.968	7.81
386.176	7.93
386.384	7.69
386.592	6.93
386.8	6.65
387.008	7.03
387.216	7.45
387.424	7.5
387.633	7.32
387.841	7.39
388.049	7.37
388.257	7.49
388.465	7.32
388.672	7.7
388.88	7.92
389.088	8.26
389.296	7.98
389.504	8.13
389.712	7.91
389.92	7.85
390.128	7.85
390.336	8.12
390.544	8.43
390.751	7.95
390.959	8.03
391.167	8.19
391.375	8.18
391.583	7.86
391.79	7.5
391.998	7.33
392.206	7.17
392.414	6.93
392.621	7.08
392.829	6.87
393.037	7.21
393.244	6.87
393.452	7.08
393.66	6.99
393.867	7.39
394.075	7.21
394.283	7.59
394.49	7.53
394.698	7.75
394.905	7.65
395.113	7.71
395.32	8.07
395.528	8.29
395.735	8.36
395.943	8.17
396.15	7.85
396.358	8.16
396.565	7.79
396.773	8.29
396.98	8.18
397.188	7.85
397.395	7.74
397.602	7.43
397.81	7.09
398.017	6.99
398.225	6.98
398.432	7.42
398.639	7.23
398.847	7.26
399.054	6.61
399.261	6.69
399.468	6.8
399.676	6.7
399.883	6.88
400.09	6.98
400.297	6.91
400.505	7.02
400.712	6.66
400.919	7.08
401.126	7.16
401.333	7.34
401.54	7.21
401.748	7.18
401.955	7.27
402.162	7.11
402.369	7.35
402.576	7.23
402.783	7.35
402.99	7.3
403.197	6.91
403.404	6.73
403.611	6.77
403.818	6.83
404.025	6.82
404.232	6.67
404.439	6.68
404.646	6.32
404.853	6.25
405.06	6.09
405.267	5.91
405.474	5.92
405.681	5.92
405.887	5.88
406.094	5.92
406.301	6.25
406.508	6.28
406.715	6.47
406.922	6.85
407.128	6.78
407.335	6.89
407.542	6.97
407.749	7.27
407.955	7.58
408.162	7.56
408.369	7.82
408.575	7.54
408.782	7.42
408.989	7.09
409.195	6.87
409.402	6.93
409.609	7.02
409.815	7.11
410.022	6.97
410.228	6.75
410.435	6.87
410.642	6.41
410.848	6.48
411.055	6.67
411.261	6.84
411.468	7.04
411.674	6.91
411.881	6.59
412.087	6.7
412.294	6.5
412.5	6.32
412.706	6.31
412.913	6.5
413.119	6.29
413.326	6.14
413.532	6.16
413.738	5.93
413.945	6.12
414.151	6.14
414.357	6.13
414.564	6.29
414.77	6.33
414.976	6.25
415.182	6.28
415.389	6.47
415.595	6.41
415.801	6.2
416.007	6.46
416.214	6.43
416.42	6.45
416.626	6.2
416.832	6.24
417.038	6.18
417.244	6.29
417.45	6.03
417.657	6.01
417.863	6.16
418.069	6.49
418.275	6.45
418.481	6.4
418.687	6.37
418.893	6.42
419.099	6.28
419.305	6.52
419.511	6.38
419.717	6.42
419.923	6.32
420.129	6.28
420.335	6.26
420.541	6.13
420.746	6.1
420.952	6.14
421.158	6.11
421.364	6.15
421.57	6.15
421.776	6.17
421.982	6.14
422.187	6.05
422.393	5.98
422.599	5.67
422.805	5.76
423.01	5.82
423.216	5.72
423.422	5.72
423.628	5.77
423.833	5.59
424.039	5.58
424.245	5.69
424.45	5.87
424.656	5.9
424.862	6.02
425.067	6.1
425.273	5.98
425.478	6.03
425.684	6.06
425.889	6.23
426.095	6.28
426.301	6.28
426.506	6.32
426.712	6.43
426.917	6.32
427.123	6.56
427.328	6.39
427.533	6.62
427.739	6.72
427.944	6.77
428.15	6.53
428.355	6.59
428.561	6.63
428.766	6.51
428.971	6.36
429.177	6.65
429.382	6.59
429.587	6.67
429.793	6.55
429.998	6.48
430.203	6.44
430.408	6.41
430.614	6.52
430.819	6.48
431.024	6.76
431.229	6.55
431.434	6.53
431.64	6.4
431.845	6.36
432.05	6.42
432.255	6.43
432.46	6.46
432.665	6.42
432.87	6.41
433.076	6.52
433.281	6.37
433.486	6.49
433.691	6.16
433.896	5.99
434.101	5.99
434.306	5.92
434.511	5.77
434.716	5.86
434.921	5.87
435.126	5.66
435.331	5.46
435.535	5.42
435.74	5.42
435.945	5.71
436.15	5.88
436.355	5.95
436.56	6.01
436.765	6.37
436.97	6.21
437.174	6.21
437.379	6.33
437.584	6.47
437.789	6.42
437.993	6.51
438.198	6.49
438.403	6.37
438.608	6.36
438.812	6.25
439.017	6.06
439.222	6.09
439.426	6.13
439.631	6.21
439.836	6.17
440.04	6.27
440.245	6.27
440.45	6.19
440.654	6.22
440.859	6.08
441.063	6.1
441.268	6.04
441.472	6.05
441.677	5.93
441.881	5.7
442.086	5.62
442.29	5.57
442.495	5.59
442.699	5.65
442.904	5.69
443.108	5.67
443.312	5.65
443.517	5.74
443.721	5.63
443.925	5.67
444.13	5.83
444.334	5.91
444.538	5.85
444.743	5.71
444.947	5.59
445.151	5.45
445.356	5.5
445.56	5.49
445.764	5.49
445.968	5.52
446.173	5.5
446.377	5.51
446.581	5.45
446.785	5.48
446.989	5.51
447.193	5.58
447.398	5.67
447.602	5.76
447.806	5.87
448.01	5.99
448.214	6.17
448.418	6.16
448.622	6.16
448.826	6.26
449.03	6.35
449.234	6.4
449.438	6.35
449.642	6.34
449.846	6.36
450.05	6.41
450.254	6.18
450.458	6.23
450.662	6.19
450.866	6.15
451.069	6.04
451.273	5.88
451.477	5.71
451.681	5.77
451.885	5.63
452.089	5.64
452.292	5.6
452.496	5.71
452.7	5.62
452.904	5.72
453.107	5.81
453.311	5.98
453.515	6.11
453.719	6.11
453.922	6.21
454.126	6.45
454.33	6.31
454.533	6.13
454.737	5.98
454.94	5.97
455.144	6.01
455.348	5.98
455.551	5.84
455.755	5.56
455.958	5.66
456.162	5.52
456.365	5.56
456.569	5.36
456.772	5.34
456.976	5.51
457.179	5.52
457.383	5.44
457.586	5.54
457.79	5.45
457.993	5.67
458.196	5.52
458.4	5.55
458.603	5.44
458.807	5.72
459.01	5.96
459.213	5.79
459.417	5.64
459.62	5.72
459.823	5.62
460.026	5.7
460.23	5.66
460.433	5.82
460.636	5.8
460.839	5.94
461.042	5.84
461.246	5.74
461.449	5.78
461.652	5.97
461.855	5.83
462.058	5.81
462.261	5.56
462.464	5.62
462.668	5.68
462.871	5.79
463.074	5.74
463.277	5.66
463.48	5.76
463.683	5.77
463.886	5.71
464.089	5.69
464.292	5.91
464.495	6.27
464.698	6.03
464.901	5.99
465.104	5.96
465.306	5.85
465.509	5.93
465.712	5.8
465.915	5.86
466.118	5.86
466.321	5.89
466.524	5.82
466.726	5.83
466.929	5.94
467.132	5.87
467.335	5.64
467.538	5.52
467.74	5.46
467.943	5.56
468.146	5.67
468.348	5.65
468.551	5.76
468.754	5.64
468.956	5.56
469.159	5.58
469.362	5.56
469.564	5.68
469.767	5.72
469.969	5.68
470.172	5.54
470.375	5.46
470.577	5.41
470.78	5.36
470.982	5.29
471.185	5.32
471.387	5.39
471.59	5.35
471.792	5.49
471.995	5.49
472.197	5.65
472.399	5.56
472.602	5.4
472.804	5.53
473.007	5.46
473.209	5.55
473.411	5.51
473.614	5.48
473.816	5.57
474.018	5.57
474.22	5.71
474.423	5.73
474.625	5.86
474.827	6.03
475.03	5.98
475.232	6.11
475.434	6.17
475.636	6.3
475.838	6.28
476.04	6.06
476.243	5.97
476.445	6
476.647	5.93
476.849	5.87
477.051	5.79
477.253	5.86
477.455	5.79
477.657	5.72
477.859	5.69
478.061	5.64
478.263	5.69
478.465	5.69
478.667	5.61
478.869	5.56
479.071	5.57
479.273	5.56
479.475	5.38
479.677	5.47
479.879	5.45
480.081	5.38
480.283	5.41
480.485	5.41
480.686	5.44
480.888	5.35
481.09	5.32
481.292	5.26
481.494	5.27
481.695	5.31
481.897	5.14
482.099	5.16
482.301	5.14
482.502	5.07
482.704	5.13
482.906	5.11
483.107	5.1
483.309	5.1
483.511	5.12
483.712	5.08
483.914	5.03
484.115	5.04
484.317	4.98
484.519	5
484.72	5
484.922	4.96
485.123	5.01
485.325	4.99
485.526	5
485.728	4.98
485.929	4.95
486.131	5
486.332	5.03
486.534	5.02
486.735	4.99
486.936	4.98
487.138	4.96
487.339	4.84
487.541	4.89
487.742	4.88
487.943	4.9
488.144	4.92
488.346	4.89
488.547	4.93
488.748	5.01
488.95	4.94
489.151	4.99
489.352	5.06
489.553	5.09
489.755	5.12
489.956	5.15
490.157	5.12
490.358	5.17
490.559	5.24
490.76	5.18
490.961	5.11
491.163	5.2
491.364	5.21
491.565	5.17
491.766	5.18
491.967	5.2
492.168	5.16
492.369	5.18
492.57	5.16
492.771	5.15
492.972	5.16
493.173	5.26
493.374	5.24
493.575	5.22
493.776	5.33
493.976	5.46
494.177	5.46
494.378	5.64
494.579	5.58
494.78	5.84
494.981	5.83
495.182	5.87
495.382	5.81
495.583	5.85
495.784	5.91
495.985	5.78
496.185	5.67
496.386	5.49
496.587	5.46
496.788	5.49
496.988	5.43
497.189	5.47
497.39	5.44
497.59	5.43
497.791	5.39
497.992	5.29
498.192	5.33
498.393	5.45
498.593	5.67
498.794	5.54
498.994	5.66
499.195	5.57
499.395	5.59
499.596	5.72
499.796	5.81
499.997	5.89
500.197	6.05
500.398	6.02
500.598	5.97
500.799	5.86
500.999	6.01
501.199	5.89
501.4	5.93
501.6	5.89
501.801	5.99
502.001	5.92
502.201	5.99
502.402	6.02
502.602	6.08
502.802	6
503.002	6.11
503.203	6.15
503.403	6.12
503.603	6.08
503.803	5.96
504.003	5.9
504.204	5.9
504.404	5.87
504.604	5.72
504.804	5.75
505.004	5.73
505.204	5.7
505.404	5.71
505.604	5.79
505.804	5.82
506.005	6
506.205	5.85
506.405	5.9
506.605	5.9
506.805	5.99
507.005	5.98
507.204	6.09
507.404	6.12
507.604	6
507.804	5.92
508.004	5.98
508.204	5.91
508.404	5.96
508.604	5.88
508.804	5.94
509.003	5.93
509.203	5.86
509.403	5.78
509.603	5.73
509.803	5.87
510.002	5.95
510.202	5.88
510.402	5.83
510.602	5.88
510.801	5.95
511.001	5.86
511.201	5.84
511.4	5.81
511.6	5.88
511.8	5.83
511.999	5.95
512.199	5.87
512.398	5.85
512.598	5.97
512.797	6.05
512.997	6.07
513.197	6.1
513.396	6.15
513.596	6.26
513.795	6.4
513.994	6.56
514.194	6.38
514.393	6.51
514.593	6.63
514.792	6.64
514.992	6.51
515.191	6.38
515.39	6.4
515.59	6.3
515.789	6.33
515.988	6.29
516.188	6.14
516.387	6.07
516.586	5.89
516.786	5.91
516.985	5.87
517.184	5.94
517.383	6.12
517.582	6.14
517.782	6.26
517.981	6.2
518.18	6.05
518.379	6.13
518.578	6.15
518.777	6.29
518.976	6.18
519.176	6.27
519.375	6.28
519.574	6.29
519.773	6.35
519.972	6.23
520.171	6.24
520.37	6.38
520.569	6.44
520.768	6.52
520.967	6.57
521.166	6.66
521.365	6.57
521.564	6.69
521.762	6.6
521.961	6.52
522.16	6.57
522.359	6.49
522.558	6.54
522.757	6.38
522.956	6.49
523.154	6.36
523.353	6.45
523.552	6.4
523.751	6.28
523.949	6.32
524.148	6.4
524.347	6.47
524.546	6.43
524.744	6.27
524.943	6.41
525.142	6.31
525.34	6.45
525.539	6.37
525.737	6.51
525.936	6.49
526.135	6.46
526.333	6.36
526.532	6.33
526.73	6.48
526.929	6.42
527.127	6.33
527.326	6.32
527.524	6.3
527.723	6.33
527.921	6.3
528.12	6.31
528.318	6.35
528.516	6.41
528.715	6.42
528.913	6.39
529.112	6.47
529.31	6.49
529.508	6.48
529.707	6.47
529.905	6.49
530.103	6.57
530.301	6.55
530.5	6.59
530.698	6.6
530.896	6.65
531.094	6.72
531.293	6.75
531.491	6.82
531.689	6.89
531.887	7
532.085	7.05
532.283	6.95
532.481	7
532.68	6.91
532.878	6.87
533.076	6.9
533.274	6.89
533.472	6.94
533.67	6.88
533.868	6.96
534.066	6.9
534.264	6.75
534.462	6.82
534.66	6.86
534.858	6.99
535.056	7.05
535.253	6.97
535.451	7.04
535.649	7.06
535.847	7.24
536.045	7.12
536.243	7.1
536.441	7.37
536.638	7.36
536.836	7.38
537.034	7.46
537.232	7.53
537.43	7.63
537.627	7.66
537.825	7.63
538.023	7.58
538.22	7.8
538.418	7.94
538.616	7.87
538.813	7.96
539.011	8.04
539.209	8.03
539.406	8.01
539.604	8.1
539.801	8.07
539.999	8.12
540.196	8.19
540.394	8.16
540.591	8.16
540.789	8.08
540.986	8
541.184	7.98
541.381	7.93
541.579	7.95
541.776	7.9
541.974	7.86
542.171	7.9
542.368	7.85
542.566	7.83
542.763	7.83
542.96	7.95
543.158	8.04
543.355	8.06
543.552	8.21
543.75	8.34
543.947	8.37
544.144	8.33
544.341	8.44
544.539	8.51
544.736	8.63
544.933	8.62
545.13	8.68
545.327	8.65
545.524	8.69
545.722	8.69
545.919	8.61
546.116	8.74
546.313	8.98
546.51	8.93
546.707	8.98
546.904	9
547.101	9.07
547.298	9.12
547.495	9.25
547.692	9.24
547.889	9.13
548.086	9.16
548.283	9.26
548.48	9.35
548.677	9.32
548.874	9.38
549.07	9.4
549.267	9.67
549.464	9.67
549.661	9.67
549.858	10.02
550.055	10.27
550.251	10.26
550.448	10.12
550.645	10.11
550.842	10.24
551.038	10.28
551.235	10.05
551.432	9.83
551.628	9.85
551.825	9.94
552.022	9.74
552.218	9.77
552.415	9.97
552.612	10.12
552.808	10.03
553.005	10.12
553.201	10.12
553.398	10.37
553.594	10.45
553.791	10.52
553.987	10.61
554.184	10.76
554.38	10.8
554.577	10.65
554.773	10.75
554.97	11.05
555.166	11.17
555.362	11.27
555.559	11.35
555.755	11.65
555.952	11.7
556.148	11.71
556.344	11.58
556.541	11.76
556.737	12.04
556.933	12.09
557.129	11.98
557.326	11.89
557.522	11.99
557.718	12.2
557.914	11.85
558.11	11.9
558.307	11.86
558.503	12.2
558.699	12.04
558.895	12.12
559.091	12.03
559.287	12.12
559.483	12.27
559.679	12.5
559.876	12.5
560.072	12.72
560.268	12.78
560.464	12.76
560.66	12.6
560.856	12.95
561.052	13.02
561.247	13.18
561.443	13.23
561.639	13.27
561.835	13.17
562.031	13.19
562.227	13.29
562.423	13.39
562.619	13.67
562.815	13.85
563.01	13.82
563.206	13.7
563.402	13.82
563.598	13.9
563.793	14.03
563.989	14.05
564.185	14.06
564.381	14.29
564.576	14.36
564.772	14.44
564.968	14.46
565.163	14.36
565.359	14.32
565.555	14.29
565.75	14.41
565.946	14.34
566.141	14.27
566.337	14.35
566.532	14.23
566.728	14.39
566.923	14.29
567.119	14.19
567.314	14.15
567.51	14.44
567.705	14.49
567.901	14.37
568.096	14.48
568.292	14.78
568.487	14.79
568.682	15.06
568.878	14.91
569.073	14.95
569.268	15.19
569.464	15.51
569.659	15.5
569.854	15.69
570.05	15.86
570.245	15.87
570.44	15.91
570.635	16.03
570.831	15.94
571.026	16.16
571.221	16.24
571.416	16.13
571.611	16.11
571.806	15.97
572.002	15.96
572.197	15.96
572.392	15.83
572.587	15.93
572.782	16
572.977	16.21
573.172	16.15
573.367	16.32
573.562	16.53
573.757	16.48
573.952	16.79
574.147	17.07
574.342	17.41
574.537	17.6
574.732	17.55
574.927	17.49
575.121	17.55
575.316	17.65
575.511	17.61
575.706	17.62
575.901	17.81
576.096	17.95
576.29	17.81
576.485	17.65
576.68	17.92
576.875	17.86
577.069	18.02
577.264	18.06
577.459	18.16
577.654	18.41
577.848	18.54
578.043	18.76
578.238	18.65
578.432	18.65
578.627	18.65
578.821	18.41
579.016	18.65
579.21	18.79
579.405	18.69
579.6	18.85
579.794	18.66
579.989	18.87
580.183	18.89
580.378	18.98
580.572	19.28
580.766	19.34
580.961	19.56
581.155	19.6
581.35	19.58
581.544	19.36
581.738	19.37
581.933	19.75
582.127	19.89
582.321	19.88
582.516	19.91
582.71	19.8
582.904	20.13
583.099	20.11
583.293	20.07
583.487	20.24
583.681	20.66
583.875	20.73
584.07	20.54
584.264	20.38
584.458	20.26
584.652	20.22
584.846	20.18
585.04	20.16
585.234	20.4
585.428	20.56
585.623	20.48
585.817	20.34
586.011	20.43
586.205	20.95
586.399	20.93
586.593	21.05
586.787	21.27
586.981	21.31
587.174	21.45
587.368	21.35
587.562	21.37
587.756	21.47
587.95	21.57
588.144	21.5
588.338	21.28
588.532	21.26
588.725	21.44
588.919	21.32
589.113	21.41
589.307	21.32
589.501	21.24
589.694	21.36
589.888	21.39
590.082	21.53
590.275	21.54
590.469	21.66
590.663	21.86
590.856	21.93
591.05	22.18
591.244	22.16
591.437	22.34
591.631	22.6
591.824	22.67
592.018	22.73
592.212	22.82
592.405	22.76
592.599	22.58
592.792	22.52
592.986	22.52
593.179	22.49
593.372	22.69
593.566	22.64
593.759	22.63
593.953	22.59
594.146	22.44
594.339	22.39
594.533	22.76
594.726	22.78
594.92	22.95
595.113	22.83
595.306	22.64
595.499	22.4
595.693	22.45
595.886	22.38
596.079	22.5
596.272	22.5
596.466	22.43
596.659	22.4
596.852	22.48
597.045	22.51
597.238	22.55
597.431	22.57
597.624	22.62
597.818	22.57
598.011	22.64
598.204	22.46
598.397	22.73
598.59	22.92
598.783	22.84
598.976	22.78
599.169	22.7
599.362	22.62
599.555	22.97
599.748	23.22
599.941	23.12
600.134	23.23
600.326	23.59
600.519	23.81
600.712	23.77
600.905	23.94
601.098	24.22
601.291	24.32
601.483	24.51
601.676	24.5
601.869	24.56
602.062	24.97
602.255	24.78
602.447	24.84
602.64	24.49
602.833	24.62
603.025	24.4
603.218	24.15
603.411	24.13
603.603	24.22
603.796	24.19
603.989	24.13
604.181	23.91
604.374	24.24
604.566	24.12
604.759	24.12
604.951	23.98
605.144	24.16
605.336	24.29
605.529	24.3
605.721	24.2
605.914	24.15
606.106	24.3
606.299	24.46
606.491	24.3
606.683	24.3
606.876	24.26
607.068	24.39
607.26	24.38
607.453	24.59
607.645	24.54
607.837	24.85
608.03	25
608.222	24.94
608.414	25.11
608.606	25.12
608.799	25.25
608.991	25.4
609.183	25.54
609.375	25.47
609.567	25.25
609.759	25.45
609.952	25.34
610.144	25.27
610.336	25.32
610.528	25.14
610.72	25.17
610.912	25.28
611.104	25.42
611.296	25.34
611.488	25.58
611.68	25.84
611.872	25.68
612.064	25.85
612.256	26.08
612.448	26.14
612.64	26.07
612.832	26.14
613.023	26.04
613.215	26.01
613.407	26.25
613.599	26.33
613.791	26.05
613.983	26
614.174	25.87
614.366	25.81
614.558	25.81
614.75	25.89
614.941	25.81
615.133	26.02
615.325	26.16
615.516	25.86
615.708	25.66
615.9	25.81
616.091	25.99
616.283	26.09
616.475	25.94
616.666	25.96
616.858	26.31
617.049	26.21
617.241	25.89
617.432	25.8
617.624	26.05
617.815	26.11
618.007	26.24
618.198	26.42
618.39	26.41
618.581	26.46
618.773	26.48
618.964	26.29
619.155	26.56
619.347	26.74
619.538	26.78
619.729	26.87
619.921	26.84
620.112	26.97
620.303	26.97
620.494	26.97
620.686	26.85
620.877	27.07
621.068	26.91
621.259	26.88
621.451	27.03
621.642	27.04
621.833	26.99
622.024	27.04
622.215	26.99
622.406	27.12
622.597	27.19
622.788	27.44
622.98	27.34
623.171	27.58
623.362	27.68
623.553	27.76
623.744	27.53
623.935	27.74
624.126	28.03
624.317	27.89
624.508	27.84
624.698	28.13
624.889	28.36
625.08	28.41
625.271	28.78
625.462	28.67
625.653	28.62
625.844	28.84
626.034	28.6
626.225	28.38
626.416	28.28
626.607	28.11
626.798	28.07
626.988	27.85
627.179	27.87
627.37	27.58
627.56	27.72
627.751	27.62
627.942	27.61
628.132	27.47
628.323	27.46
628.514	27.81
628.704	27.93
628.895	27.77
629.085	27.83
629.276	27.97
629.466	28.1
629.657	28.19
629.847	28.32
630.038	28.6
630.228	28.85
630.419	29.26
630.609	29.21
630.8	29.12
630.99	29.09
631.181	29.5
631.371	29.55
631.561	29.57
631.752	29.75
631.942	29.71
632.132	29.51
632.323	29.66
632.513	29.61
632.703	29.6
632.893	29.87
633.084	29.85
633.274	29.54
633.464	29.26
633.654	29.15
633.844	28.89
634.034	28.9
634.225	28.99
634.415	28.72
634.605	28.65
634.795	28.65
634.985	28.6
635.175	28.55
635.365	28.54
635.555	29.02
635.745	29.07
635.935	29.11
636.125	29.13
636.315	29.32
636.505	29.32
636.695	29.16
636.885	29.11
637.075	29.12
637.265	29.59
637.455	29.6
637.644	29.33
637.834	29.41
638.024	29.45
638.214	29.64
638.404	29.56
638.593	30.07
638.783	30.27
638.973	30.55
639.163	30.22
639.352	30.13
639.542	30.45
639.732	30.41
639.921	30.43
640.111	30.66
640.301	30.57
640.49	30.29
640.68	30.1
640.87	30.23
641.059	30.23
641.249	31.09
641.438	30.94
641.628	30.61
641.817	30.59
642.007	30.67
642.196	30.41
642.386	30.83
642.575	31.32
642.764	31.12
642.954	30.93
643.143	30.8
643.333	30.6
643.522	30.79
643.711	31.11
643.901	31.41
644.09	31.37
644.279	31.72
644.469	31.27
644.658	30.94
644.847	31.12
645.036	31.17
645.226	31.24
645.415	31.13
645.604	31.31
645.793	31.18
645.982	31.09
646.171	31.23
646.361	31.45
646.55	31.94
646.739	32.11
646.928	32.22
647.117	32.32
647.306	32.08
647.495	32.05
647.684	31.86
647.873	31.88
648.062	32.05
648.251	31.95
648.44	31.46
648.629	31.29
648.818	31.46
649.007	31.22
649.196	31.11
649.384	31.28
649.573	31.32
649.762	31.34
649.951	31.28
650.14	31.04
650.328	31.04
650.517	31.29
650.706	31.2
650.895	31.46
651.083	31.8
651.272	31.9
651.461	32.21
651.65	32.42
651.838	32.25
652.027	32.03
652.216	31.91
652.404	32.07
652.593	31.95
652.781	31.72
652.97	31.76
653.158	31.78
653.347	31.98
653.535	31.89
653.724	31.33
653.912	31.81
654.101	32.27
654.289	32.43
654.478	32.41
654.666	32.68
654.855	32.87
655.043	32.22
655.231	31.97
655.42	32.24
655.608	32.26
655.796	32.52
655.985	32.19
656.173	32.27
656.361	32.22
656.55	32.14
656.738	31.77
656.926	32.18
657.114	32.77
657.302	33.08
657.491	32.44
657.679	32.56
657.867	32.68
658.055	32.58
658.243	32.68
658.431	32.85
658.619	33.15
658.807	33.41
658.996	33.23
659.184	33.03
659.372	33.22
659.56	33.69
659.748	33.59
659.936	33.8
660.124	34.09
660.311	34.18
660.499	34.25
660.687	34.11
660.875	34.1
661.063	34.14
661.251	34.05
661.439	34.12
661.627	33.95
661.814	34.12
662.002	33.93
662.19	34.07
662.378	34.02
662.565	34.2
662.753	34.28
662.941	34.43
663.129	34.39
663.316	34.76
663.504	34.44
663.692	34.7
663.879	34.4
664.067	34.66
664.254	34.58
664.442	34.27
664.63	34.11
664.817	34.21
665.005	34.03
665.192	34.34
665.38	33.91
665.567	33.87
665.755	33.77
665.942	33.78
666.13	33.67
666.317	33.61
666.504	33.74
666.692	34.2
666.879	34.62
667.067	34.89
667.254	34.28
667.441	34.35
667.629	34.51
667.816	34.26
668.003	34.32
668.19	34.31
668.378	34.12
668.565	34.21
668.752	34.03
668.939	33.62
669.127	33.57
669.314	34.05
669.501	34.67
669.688	34.71
669.875	35.06
670.062	35.26
670.249	35.63
670.436	35.81
670.623	35.68
670.81	35.57
670.997	35.63
671.184	35.56
671.371	35.86
671.558	35.13
671.745	35.19
671.932	34.95
672.119	34.67
672.306	34.07
672.493	34.39
672.68	34.52
672.867	34.81
673.054	34.61
673.24	34.67
673.427	34.62
673.614	35.15
673.801	35.23
673.988	35.57
674.174	35.88
674.361	36.26
674.548	35.99
674.734	36.29
674.921	35.84
675.108	36.47
675.294	36.06
675.481	36.03
675.668	35.89
675.854	35.63
676.041	35.2
676.227	35.3
676.414	35.69
676.601	36.2
676.787	36.37
676.974	36.81
677.16	36.58
677.347	37.14
677.533	36.77
677.719	36.72
677.906	36.7
678.092	37.03
678.279	36.19
678.465	35.67
678.651	35.17
678.838	34.86
679.024	34.73
679.21	34.4
679.397	34.49
679.583	34.56
679.769	34.73
679.955	34.64
680.142	34.65
680.328	35.55
680.514	35.74
680.7	35.63
680.886	35.64
681.073	35.71
681.259	35.56
681.445	35.52
681.631	35.74
681.817	35.72
682.003	35.99
682.189	35.92
682.375	35.62
682.561	35.67
682.747	36.44
682.933	36.59
683.119	36.59
683.305	37.35
683.491	37.36
683.677	37.33
683.863	37.59
684.049	37.75
684.235	38.1
684.42	38.34
684.606	38.29
684.792	38.09
684.978	38.01
685.164	37.65
685.349	37.35
685.535	37.56
685.721	37.57
685.907	37.04
686.092	36.89
686.278	36.69
686.464	36.43
686.649	36.73
686.835	36.33
687.021	36.61
687.206	37.03
687.392	36.7
687.577	36.77
687.763	36.78
687.948	37.05
688.134	36.79
688.319	36.74
688.505	37.13
688.69	37.33
688.876	37.55
689.061	37.55
689.247	37.74
689.432	38.04
689.618	37.57
689.803	37.38
689.988	37.32
690.174	37.5
690.359	37.58
690.544	37.19
690.73	36.95
690.915	36.74
691.1	36.71
691.285	36.67
691.471	36.74
691.656	37.1
691.841	37.12
692.026	37.36
692.211	37.89
692.396	38.24
692.582	38.51
692.767	38.49
692.952	38.92
693.137	38.84
693.322	38.76
693.507	38.92
693.692	38.89
693.877	39.24
694.062	39.32
694.247	38.91
694.432	39.26
694.617	39.62
694.802	39.56
694.987	39.6
695.172	40.08
695.357	39.99
695.541	40.03
695.726	39.98
695.911	40.06
696.096	39.95
696.281	40.29
696.466	39.76
696.65	39.44
696.835	39.67
697.02	39.41
697.204	39.06
697.389	39.06
697.574	38.45
697.759	38.42
697.943	38.41
698.128	38.56
698.312	38.22
698.497	37.88
698.682	37.71
698.866	37.58
699.051	37.46
699.235	37.33
699.42	37.36
699.604	37.76
699.789	37.81
699.973	37.64
700.158	37.36
700.342	37.6
700.527	38.02
700.711	38.3
700.895	38.19
701.08	38.69
701.264	38.88
701.448	39.15
701.633	39.36
701.817	39.38
702.001	39.52
702.186	39.16
702.37	39.24
702.554	38.98
702.738	39.35
702.923	38.5
703.107	38.22
703.291	38.43
703.475	37.84
703.659	37.65
703.843	37.37
704.027	37.72
704.212	38.58
704.396	38.43
704.58	38.95
704.764	38.47
704.948	38.77
705.132	38.98
705.316	39.1
705.5	39.36
705.684	39.85
705.868	39.17
706.052	38.63
706.235	38.43
706.419	38.5
706.603	38.21
706.787	38.14
706.971	39.64
707.155	39.24
707.339	39.44
707.522	40.08
707.706	39.57
707.89	40.67
708.074	40.93
708.257	41.34
708.441	41.87
708.625	41.82
708.808	42.19
708.992	41.31
709.176	41.58
709.359	40.88
709.543	40.56
709.727	41.01
709.91	41.05
710.094	40.84
710.277	41.29
710.461	40.6
710.644	40.42
710.828	40.03
711.011	40.59
711.195	40.52
711.378	40.44
711.562	40.53
711.745	40.64
711.928	40.29
712.112	40.22
712.295	39.48
712.478	39.76
712.662	40.11
712.845	40.26
713.028	40.17
713.212	39.96
713.395	40.56
713.578	40.8
713.761	40.09
713.945	40.3
714.128	40.56
714.311	40.71
714.494	40.77
714.677	40.84
714.86	40.86
715.043	41.07
715.227	41.32
715.41	41.16
715.593	41.12
715.776	41.24
715.959	41.14
716.142	41.3
716.325	41.12
716.508	41.63
716.691	41.5
716.874	41.89
717.057	41.87
717.239	41.74
717.422	41.38
717.605	41.08
717.788	40.59
717.971	41.17
718.154	40.97
718.337	41.52
718.519	41.34
718.702	41.91
718.885	40.76
719.068	40.71
719.25	40.77
719.433	41.28
719.616	41.16
719.798	41.25
719.981	41.42
720.164	41.95
720.346	42.19
720.529	42.51
720.712	41.7
720.894	42.33
721.077	41.81
721.259	42.34
721.442	42.78
721.624	42.59
721.807	43.77
721.989	42.89
722.172	43.23
722.354	42.56
722.537	41.67
722.719	41
722.901	41.26
723.084	41.66
723.266	41.16
723.448	41.66
723.631	42.16
723.813	41.29
723.995	41.13
724.178	40.4
724.36	40.82
724.542	41.06
724.724	42.61
724.907	43.06
725.089	42.36
725.271	42.84
725.453	40.93
725.635	41.63
725.817	42.96
725.999	43.76
726.181	44.39
726.364	44.11
726.546	43.97
726.728	43.74
726.91	42.54
727.092	42.63
727.274	42.49
727.456	43.59
727.638	43.44
727.819	42.14
728.001	42.56
728.183	42.39
728.365	42.29
728.547	42.71
728.729	42.46
728.911	43.58
729.093	43.63
729.274	42.9
729.456	42.95
729.638	42.87
729.82	43.13
730.001	42.38
730.183	42.19
730.365	42.65
730.546	42.57
730.728	41.89
730.91	41.14
731.091	41.27
731.273	41.75
731.455	41.34
731.636	40.62
731.818	41.09
731.999	41.08
732.181	41.12
732.362	41.11
732.544	41.88
732.725	42.25
732.907	42.27
733.088	43.04
733.27	43.9
733.451	44.34
733.633	46
733.814	46.1
733.995	46.2
734.177	46.84
734.358	46.34
734.539	45.94
734.721	46.08
734.902	46.26
735.083	45.91
735.264	44.98
735.446	44.76
735.627	43.92
735.808	43.32
735.989	43.4
736.17	42.91
736.351	43.77
736.533	42.86
736.714	42.87
736.895	43.26
737.076	43.05
737.257	43.96
737.438	43.3
737.619	43.91
737.8	44.53
737.981	45.07
738.162	45.01
738.343	44.53
738.524	44.92
738.705	45.39
738.886	45.04
739.067	45.6
739.247	44.78
739.428	45.61
739.609	44.66
739.79	45.11
739.971	44.01
740.151	43.7
740.332	43.96
740.513	43.44
740.694	43.9
740.874	44.53
741.055	43.79
741.236	44.26
741.417	44.5
741.597	44.19
741.778	44
741.958	45.14
742.139	45.64
742.32	45.29
742.5	46.11
742.681	46.37
742.861	46.58
743.042	47.2
743.222	46.96
743.403	45.94
743.583	46.12
743.764	45.96
743.944	45.38
744.124	45.08
744.305	44.04
744.485	43.74
744.666	43.04
744.846	43.03
745.026	42.38
745.207	42.67
745.387	43.43
745.567	43.84
745.747	43.73
745.928	43.5
746.108	43.95
746.288	45.11
746.468	44.98
746.648	44.99
746.829	44.82
747.009	45.46
747.189	45.42
747.369	45.27
747.549	44.47
747.729	44.63
747.909	44.85
748.089	44.43
748.269	44.62
748.449	44.71
748.629	44.23
748.809	44.63
748.989	44.36
749.169	44.55
749.349	44.26
749.529	44.66
749.709	44.12
749.889	44.96
750.068	44.2
750.248	44.05
750.428	44.52
750.608	45.53
750.788	44.6
750.967	44.39
751.147	43.7
751.327	44.27
751.507	43.96
751.686	44.17
751.866	44.35
752.046	45.3
752.225	46
752.405	46.44
752.585	46.06
752.764	46.5
752.944	46.86
753.123	47.85
753.303	47.7
753.482	48.46
753.662	48.22
753.841	47.23
754.021	47.19
754.2	46.9
754.38	46.33
754.559	45.72
754.739	45.43
754.918	45.49
755.097	45.13
755.277	45.99
755.456	45.58
755.635	46.49
755.815	46.92
755.994	46.91
756.173	46.98
756.352	46.01
756.532	45.93
756.711	45.33
756.89	44.08
757.069	44.54
757.248	44.56
757.427	44.21
757.607	43.76
757.786	43.73
757.965	43.41
758.144	42.86
758.323	44.08
758.502	44.37
758.681	45.57
758.86	46.46
759.039	46.29
759.218	45.47
759.397	45.53
759.576	45.62
759.755	45.27
759.934	46.02
760.113	46.33
760.291	45.77
760.47	46.39
760.649	45.49
760.828	46.15
761.007	46.22
761.186	46.08
761.364	46.23
761.543	45.94
761.722	45.68
761.901	44.69
762.079	44.92
762.258	44.75
762.437	44.29
762.615	44.41
762.794	43.83
762.972	43.67
763.151	43.65
763.33	43.93
763.508	43.79
763.687	44.18
763.865	44.71
764.044	43.96
764.222	43.89
764.401	44.13
764.579	43.73
764.758	43.58
764.936	43.45
765.114	43.18
765.293	42.81
765.471	43.31
765.65	43.77
765.828	43.3
766.006	45.08
766.184	45.22
766.363	44.92
766.541	45.53
766.719	45.77
766.898	45.91
767.076	46.46
767.254	46.61
767.432	47.45
767.61	46.93
767.788	47.75
767.967	45.61
768.145	45.87
768.323	45.79
768.501	46.88
768.679	46.67
768.857	46.23
769.035	46.23
769.213	47.2
769.391	46.72
769.569	46.83
769.747	47.34
769.925	47.94
770.103	47.08
770.281	46.7
770.459	46.43
770.636	47.59
770.814	47.85
770.992	48.18
771.17	47.85
771.348	47.52
771.525	47.68
771.703	45.79
771.881	47.51
772.059	48.96
772.236	49.6
772.414	49.29
772.592	48.43
772.769	48.07
772.947	46.95
773.125	45.93
773.302	45.69
773.48	46.15
773.657	46.73
773.835	44.27
774.013	43.98
774.19	45.19
774.368	43.72
774.545	44.73
774.723	45.49
774.9	46.26
775.077	47.58
775.255	47.62
775.432	47.55
775.61	48.08
775.787	49.49
775.964	49.8
776.142	50.04
776.319	51.29
776.496	50.79
776.674	50.41
776.851	50.92
777.028	50.44
777.205	49.62
777.382	49.81
777.56	48.5
777.737	49.11
777.914	47.92
778.091	48.34
778.268	48.7
778.445	49.48
778.622	49.91
778.8	49.82
778.977	50.32
779.154	56.66
779.331	56.35
779.508	58.46
779.685	58.32
779.862	58.9
780.038	56.74
780.215	57.44
780.392	57.01
780.569	56.91
780.746	57
780.923	55.3
781.1	48.92
781.277	47.99
781.453	48.18
781.63	46.59
781.807	46.46
781.984	47.39
782.16	46.09
782.337	45.29
782.514	44.21
782.691	46.89
782.867	47.32
783.044	46.99
783.221	48.99
783.397	48.53
783.574	49.61
783.75	51.25
783.927	51.69
784.103	52.35
784.28	53.6
784.456	53.62
784.633	50.02
784.809	52.08
784.986	52.65
785.162	50.74
785.339	48.85
785.515	49.18
785.692	45.8
785.868	45.72
786.044	46.3
786.221	44.95
786.397	45.04
786.573	48.09
786.749	47.28
786.926	51.06
787.102	49.23
787.278	51.43
787.454	50.95
787.631	52.97
787.807	52.54
787.983	51.44
788.159	52.3
788.335	53.9
788.511	51.83
788.687	50.69
788.863	46.66
789.039	49.01
789.216	47.74
789.392	47.15
789.568	48.75
789.744	50.65
789.919	50.37
790.095	49.19
790.271	48.91
790.447	48.46
790.623	49.69
790.799	51.81
790.975	50.67
791.151	51.41
791.327	53.06
791.502	52.37
791.678	49.12
791.854	50.29
792.03	51.6
792.205	52.65
792.381	54.64
792.557	54.56
792.733	55.53
792.908	55.03
793.084	56.06
793.259	56.26
793.435	54.76
793.611	56.78
793.786	55.71
793.962	55.65
794.137	53.72
794.313	52.34
794.488	52.43
794.664	50.48
794.839	52.02
795.015	51.41
795.19	51.24
795.366	53.27
795.541	51.58
795.716	51.43
795.892	53.11
796.067	52.31
796.242	52.75
796.418	50.48
796.593	50.54
796.768	50.28
796.944	51.36
797.119	49.88
797.294	48.39
797.469	50.08
797.644	51.42
797.82	48.96
797.995	48.74
798.17	47.49
798.345	49.46
798.52	48.16
798.695	47.94
798.87	46.64
799.045	48.43
799.22	49.66
799.395	50.28
799.57	50.12
799.745	50.72
799.92	51.53
800.095	54.16
800.27	54.67
800.445	56.84
800.62	56.57
800.795	58.73
800.97	57.05
801.145	53.39
801.319	54.38
801.494	54.15
801.669	54.42
801.844	57.04
802.018	55.67
802.193	56.12
802.368	56.67
802.543	58.02
802.717	56.92
802.892	59.23
803.067	60.61
803.241	58.46
803.416	59.18
803.59	58.4
803.765	57.07
803.94	59.27
804.114	56.67
804.289	55.28
804.463	54.1
804.638	51.85
804.812	51.34
804.986	50.42
805.161	48.48
805.335	48.5
805.51	48.77
805.684	47.82
805.858	45.31
806.033	44.12
806.207	45.21
806.381	46.47
806.556	46.79
806.73	45.93
806.904	48.16
807.078	49.15
807.253	48.73
807.427	47.8
807.601	47.59
807.775	48.92
807.949	51.56
808.123	51.5
808.298	49.98
808.472	52.29
808.646	53.76
808.82	53.75
808.994	54.42
809.168	54.18
809.342	57.17
809.516	58.76
809.69	57.6
809.864	57.51
810.038	60.03
810.212	62.56
810.385	60.14
810.559	59.62
810.733	61.09
810.907	60.55
811.081	61.27
811.255	60.13
811.428	59.59
811.602	60.15
811.776	62.2
811.95	58.35
812.123	57.72
812.297	59.16
812.471	59.4
812.644	56.69
812.818	59.88
812.992	59.33
813.165	60.82
813.339	59.85
813.512	58.69
813.686	57.78
813.86	58.99
814.033	57.54
814.207	57.03
814.38	54.55
814.554	57.95
814.727	55.35
814.9	57.82
815.074	59.41
815.247	61.38
815.421	60.86
815.594	61.09
815.767	59.07
815.941	57.93
816.114	57.86
816.287	59.34
816.46	56.27
816.634	55.77
816.807	57.17
816.98	55.91
817.153	56.27
817.327	56.14
817.5	56.54
817.673	58.23
817.846	59.59
818.019	60.75
818.192	61.11
818.365	59.5
818.538	60.96
818.711	55.84
818.884	54.52
819.057	52.38
819.23	50.95
819.403	48.38
819.576	48.68
819.749	50.29
819.922	49.41
820.095	47.04
820.268	48.84
820.441	49.6
820.614	48.98
820.786	47.46
820.959	47.17
821.132	47.95
821.305	46.61
821.477	46.04
821.65	45.29
821.823	45.13
821.996	44.48
822.168	43.7
822.341	42.57
822.514	42.64
822.686	42.78
822.859	42.69
823.031	42.45
823.204	42.87
823.376	42.62
823.549	42.57
823.722	42.67
823.894	43.53
824.067	44.17
824.239	44.35
824.411	44.5
824.584	44.39
824.756	44.83
824.929	45.24
825.101	45.81
825.273	46.54
825.446	46.4
825.618	45.69
825.79	45.13
825.963	44.61
826.135	44.37
826.307	44.27
826.479	45.44
826.652	44.83
826.824	44.25
826.996	43.1
827.168	42.39
827.34	42.8
827.512	43.41
827.684	43.61
827.856	44.37
828.029	46.1
828.201	46.26
828.373	45.43
828.545	46.61
828.717	47.37
828.889	48.09
829.061	48.74
829.232	49.41
829.404	49.49
829.576	50.25
829.748	49.57
829.92	49.34
830.092	50.37
830.264	49.78
830.436	48.27
830.607	48.83
830.779	50.39
830.951	51.46
831.123	50.62
831.294	50.69
831.466	50.43
831.638	51.57
831.809	50.48
831.981	51.19
832.153	53.05
832.324	53.76
832.496	54.71
832.667	56.93
832.839	57.44
833.011	56.77
833.182	57.01
833.354	57.56
833.525	57.99
833.697	56.99
833.868	54.43
834.039	54.59
834.211	53.91
834.382	52.55
834.554	50.77
834.725	48.58
834.896	49.14
835.068	48.76
835.239	47.87
835.41	46.15
835.581	46.79
835.753	47.9
835.924	46.78
836.095	46.57
836.266	46.58
836.438	45.86
836.609	45.83
836.78	45.15
836.951	46.97
837.122	46.41
837.293	48.62
837.464	47.78
837.635	48.86
837.806	51.44
837.977	52.93
838.148	53.69
838.319	53.74
838.49	54.96
838.661	55.64
838.832	55.32
839.003	55.16
839.174	53.96
839.345	55.84
839.516	56.83
839.687	55.06
839.857	58.92
840.028	59.67
840.199	59.21
840.37	60.08
840.54	63.31
840.711	57.75
840.882	61.64
841.053	61.02
841.223	61.7
841.394	59.62
841.564	59.67
841.735	56.46
841.906	52.48
842.076	50.02
842.247	50.5
842.417	47.2
842.588	53.02
842.758	50.04
842.929	51.25
843.099	49.83
843.27	53.08
843.44	53.39
843.611	53.77
843.781	53.57
843.951	56.3
844.122	58.48
844.292	59.36
844.462	59.63
844.633	61.38
844.803	62.29
844.973	68.05
845.144	68.54
845.314	71.54
845.484	70.74
845.654	75.82
845.824	76.67
845.995	73.03
846.165	74.97
846.335	75.19
846.505	76.65
846.675	74.52
846.845	75.14
847.015	75.04
847.185	74.6
847.355	77.98
847.525	80.9
847.695	91.35
847.865	94.25
848.035	96.65
848.205	98.07
848.375	102.96
848.545	91.71
848.715	87.18
848.884	82.69
849.054	86.54
849.224	92.69
849.394	85.05
849.564	77.18
849.733	80.1
849.903	79.78
850.073	81.24
850.243	77.68
850.412	82.28
850.582	83.59
850.752	84.8
850.921	81.07
851.091	81.32
851.26	93.7
851.43	93.6
851.599	90.15
851.769	90.66
851.939	84.79
852.108	90.18
852.278	96.18
852.447	89.27
852.616	89.34
852.786	86.55
852.955	84.99
853.125	85.31
853.294	86.81
853.463	80.97
853.633	81.98
853.802	89.12
853.971	91.29
854.141	96.81
854.31	95.27
854.479	92.32
854.648	102.59
854.818	90.48
854.987	86.79
855.156	89.46
855.325	99.61
855.494	100.59
855.663	98.36
855.832	90.71
856.001	82.49
856.171	88.9
856.34	102.01
856.509	97.44
856.678	113.11
856.847	125.82
857.016	119.7
857.185	104.37
857.353	105.43
857.522	113.08
857.691	112.68
857.86	112.07
858.029	100.78
858.198	101.92
858.367	99.49
858.535	97.27
858.704	83.1
858.873	96.74
859.042	109.21
859.21	117.96
859.379	113.66
859.548	104.81
859.717	109.61
859.885	115
860.054	100.98
860.222	94.64
860.391	112.85
860.56	112.91
860.728	100.67
860.897	95.92
861.065	83.52
861.234	82.53
861.402	89.82
861.571	90.85
861.739	101.16
861.908	107.59
862.076	113.05
862.244	108.15
862.413	104.22
862.581	107.33
862.749	98.81
862.918	99.78
863.086	83.23
863.254	80.28
863.423	79.8
863.591	67.07
863.759	64.15
863.927	63.93
864.096	60.85
864.264	56.67
864.432	54.71
864.6	64.24
864.768	52.49
864.936	66.58
865.104	69.63
865.272	74.52
865.44	85.28
865.608	83.62
865.776	85.43
865.944	84.63
866.112	87.67
866.28	93.88
866.448	93.51
866.616	100.11
866.784	101.7
866.952	103
867.12	98.17
867.288	94.95
867.455	91.17
867.623	94.42
867.791	90.89
867.959	93.67
868.127	82.42
868.294	78.66
868.462	76.6
868.63	78.25
868.797	75.6
868.965	75.75
869.133	70.27
869.3	74.68
869.468	70.99
869.636	64.01
869.803	63.79
869.971	73.33
870.138	80.37
870.306	79.14
870.473	66.65
870.641	74.51
870.808	69.53
870.975	75.85
871.143	82.37
871.31	85.33
871.478	97.96
871.645	96.59
871.812	92.33
871.98	91.02
872.147	87.17
872.314	87.72
872.482	80.05
872.649	85.9
872.816	80.62
872.983	72.57
873.15	69.8
873.318	65.33
873.485	72.68
873.652	71.87
873.819	82.03
873.986	87.03
874.153	85.91
874.32	96.76
874.487	93.1
874.654	84.56
874.821	95.57
874.988	87.37
875.155	84.23
875.322	70.34
875.489	67.33
875.656	45.76
875.823	46.98
875.99	40.09
876.157	29.04
876.324	35
876.49	34.71
876.657	33.18
876.824	38.64
876.991	40.33
877.157	46.86
877.324	50.01
877.491	51.06
877.658	61.73
877.824	71.53
877.991	67.2
878.157	71.85
878.324	76.3
878.491	76.12
878.657	82.79
878.824	83.33
878.99	80.32
879.157	82.93
879.323	83.82
879.49	80.55
879.656	81.4
879.823	83.01
879.989	80.48
880.156	82.04
880.322	83.87
880.488	81.51
880.655	82.72
880.821	89.01
880.987	83.91
881.154	77.64
881.32	72.3
881.486	73.48
881.652	72.75
881.819	69.19
881.985	64.85
882.151	60.84
882.317	58.13
882.483	55.14
882.649	54.27
882.816	54.64
882.982	55.2
883.148	53.52
883.314	50.92
883.48	52.86
883.646	50.54
883.812	50.43
883.978	51.14
884.144	51.22
884.31	50.73
884.476	50.63
884.642	51.06
884.807	52.51
884.973	53.96
885.139	53.57
885.305	51
885.471	52.63
885.637	52.14
885.802	51.69
885.968	51.97
886.134	55.54
886.3	52.85
886.465	51.02
886.631	50.34
886.797	50.45
886.962	51.87
887.128	55.34
887.293	55.47
887.459	58.56
887.625	58.88
887.79	59.66
887.956	49.98
888.121	55.74
888.287	58.13
888.452	56.33
888.618	55.16
888.783	55.15
