Data from LC_193_Reflection_2.txt Node
Date: Tue Nov 17 13:40:46 EST 2015
User: robert
Spectrometer: USB4E03001
Autoset integration time: false
Trigger mode: 4
Integration Time (sec): 1.000000E-1
Scans to average: 15
Electric dark correction enabled: true
Nonlinearity correction enabled: false
Boxcar width: 5
Stray light correction enabled: false
XAxis mode: Wavelengths
Stop averaging: false
Number of Pixels in Spectrum: 3648
>>>>>Begin Spectral Data<<<<<
177.566	391.61
177.785	486.03
178.005	-2859.7
178.225	663.64
178.445	-984.99
178.665	-263.66
178.885	24.3
179.105	-534.06
179.324	1341.98
179.544	1606.22
179.764	447.42
179.984	200.78
180.204	266.03
180.423	646.88
180.643	858.78
180.863	-3260.92
181.083	-3861.48
181.302	871.95
181.522	402.75
181.742	1068.07
181.961	13795.1
182.181	-930.36
182.401	-234.87
182.621	-576.4
182.84	-606.93
183.06	-1875.4
183.279	2350
183.499	-14118.49
183.719	-1443.66
183.938	-440.69
184.158	-765.09
184.377	-975.07
184.597	-847.59
184.816	750.56
185.036	775.03
185.256	847.03
185.475	479
185.695	652.21
185.914	495.86
186.134	500.27
186.353	298.67
186.572	380.24
186.792	301.96
187.011	286.04
187.231	998.54
187.45	3159.6
187.67	573.01
187.889	699.3
188.108	453.66
188.328	434.46
188.547	467.2
188.766	-2070.33
188.986	1573.58
189.205	448.93
189.424	580.93
189.644	469.82
189.863	339.61
190.082	353.35
190.302	395.38
190.521	549.74
190.74	12420.78
190.959	1562.98
191.178	485.08
191.398	409.51
191.617	1264.5
191.836	805.87
192.055	502.74
192.274	-1684.32
192.494	-854.91
192.713	-2483.43
192.932	-1205.18
193.151	2089.63
193.37	34303.17
193.589	-1076000
193.808	28284.27
194.027	-3543.01
194.246	-1573.88
194.465	6727.62
194.685	634.59
194.904	483.32
195.123	77804.17
195.342	1884.1
195.561	607.67
195.78	475.58
195.999	570.56
196.218	380.13
196.436	322.18
196.655	243.05
196.874	270.34
197.093	264.8
197.312	221.3
197.531	197.01
197.75	181.44
197.969	198.59
198.188	209.29
198.407	206.24
198.625	253.55
198.844	265.23
199.063	243.94
199.282	255.22
199.501	250.83
199.719	358.98
199.938	351.27
200.157	393.7
200.376	1205.14
200.594	563.4
200.813	347.68
201.032	473.42
201.251	469.75
201.469	6348.61
201.688	2153.29
201.907	-10980.51
202.125	3361.71
202.344	3472.58
202.563	3116.69
202.781	2079.98
203	-2593.08
203.218	-582.57
203.437	-800.07
203.656	-567.61
203.874	-1426.1
204.093	-1774.65
204.311	-1569.28
204.53	31463.16
204.748	-1174.87
204.967	4891.17
205.185	908.17
205.404	407.03
205.622	374.18
205.841	311.25
206.059	348.75
206.278	261.11
206.496	276.06
206.715	274.32
206.933	302.51
207.151	294.75
207.37	279.19
207.588	329.62
207.806	459.47
208.025	395.65
208.243	382.85
208.461	442.32
208.68	716.87
208.898	-1180.53
209.116	-2215.16
209.335	4449.31
209.553	-2649.62
209.771	1127.15
209.989	418.21
210.208	520.76
210.426	510.48
210.644	495.35
210.862	316.77
211.081	217.07
211.299	142.35
211.517	155.32
211.735	167.3
211.953	182.75
212.171	203.59
212.39	508.78
212.608	492.7
212.826	734.27
213.044	722.75
213.262	759.37
213.48	-33186.57
213.698	-1689.58
213.916	763.9
214.134	-1530.33
214.352	-431.96
214.57	-504.11
214.788	5421.7
215.006	1795.62
215.224	1574.26
215.442	1050.68
215.66	1091.65
215.878	714.25
216.096	329.85
216.314	373.1
216.532	240.77
216.75	186.95
216.968	209.9
217.185	227.75
217.403	254.46
217.621	243.66
217.839	271.17
218.057	300.75
218.275	305.51
218.492	358.02
218.71	393.45
218.928	487.9
219.146	555.82
219.363	596.98
219.581	433.11
219.799	446.57
220.017	467.04
220.234	436.24
220.452	328.32
220.67	295
220.887	302.63
221.105	306.22
221.323	251.71
221.54	199.47
221.758	167.96
221.976	172.21
222.193	143.01
222.411	141.53
222.629	162.87
222.846	188.36
223.064	175.21
223.281	175.25
223.499	164.67
223.716	171.05
223.934	198.35
224.151	224.63
224.369	206.53
224.586	236.63
224.804	223.95
225.021	208.75
225.239	187.69
225.456	182.46
225.674	160.5
225.891	157.53
226.108	165.86
226.326	160.12
226.543	129.82
226.76	114.74
226.978	107.36
227.195	98.97
227.413	84.25
227.63	75.79
227.847	75.06
228.064	65.73
228.282	56.94
228.499	57.25
228.716	52.86
228.934	51.16
229.151	52.12
229.368	45.32
229.585	42.31
229.802	43.45
230.02	46.26
230.237	45.29
230.454	50.6
230.671	53.64
230.888	49.94
231.105	51.42
231.323	52.28
231.54	54.22
231.757	64.72
231.974	69.71
232.191	67.91
232.408	65.42
232.625	65.17
232.842	65.26
233.059	67.28
233.276	66.98
233.493	70.1
233.71	74.74
233.927	72.43
234.144	64.78
234.361	66.66
234.578	66.08
234.795	64.79
235.012	64.5
235.229	61.59
235.446	59.39
235.663	64.45
235.879	62.65
236.096	61.15
236.313	59.52
236.53	62.99
236.747	56.92
236.964	62.69
237.181	62.8
237.397	62.53
237.614	62.13
237.831	64.1
238.048	64.18
238.264	63.1
238.481	56.22
238.698	58.69
238.915	57.72
239.131	60.6
239.348	57.64
239.565	56.36
239.781	56.06
239.998	54.55
240.215	49.85
240.431	45.04
240.648	39.71
240.865	41.02
241.081	38.72
241.298	37.64
241.514	32.51
241.731	30.58
241.947	29.59
242.164	26.92
242.38	24.26
242.597	24.57
242.814	25.97
243.03	27.48
243.246	27.44
243.463	28.38
243.679	28.59
243.896	28.88
244.112	29.88
244.329	31.32
244.545	34.35
244.762	37.04
244.978	34.45
245.194	34.37
245.411	34.08
245.627	33.58
245.843	30.74
246.06	26.77
246.276	26.21
246.492	24.28
246.709	21.43
246.925	20.24
247.141	20.63
247.357	20.15
247.574	19.88
247.79	18.93
248.006	18.52
248.222	18.89
248.439	19.04
248.655	18.37
248.871	18.01
249.087	19.41
249.303	20
249.519	18.6
249.736	21.55
249.952	21.4
250.168	25.69
250.384	23.86
250.6	24.17
250.816	25.69
251.032	28.45
251.248	28.58
251.464	28.24
251.68	27.09
251.896	28.33
252.112	23.86
252.328	24.16
252.544	21.36
252.76	24.84
252.976	24.73
253.192	25.93
253.408	25.93
253.624	26.79
253.84	28.77
254.056	30
254.272	29.66
254.487	34.31
254.703	33.58
254.919	34.54
255.135	33.52
255.351	31.46
255.567	29.21
255.782	27.42
255.998	28.55
256.214	24.03
256.43	26.59
256.646	28.08
256.861	24.56
257.077	26.43
257.293	26.83
257.508	27.61
257.724	27.9
257.94	26.72
258.155	26.28
258.371	25.98
258.587	24.36
258.802	21
259.018	18.77
259.234	18.62
259.449	18.24
259.665	16.71
259.88	16.26
260.096	16.4
260.312	15.62
260.527	14.83
260.743	14.37
260.958	14.99
261.174	15.95
261.389	16.61
261.605	17.13
261.82	16.74
262.036	17.46
262.251	17.04
262.466	16.15
262.682	18.32
262.897	21.33
263.113	21.21
263.328	22.68
263.543	22.82
263.759	24.72
263.974	24.13
264.189	23.77
264.405	24.65
264.62	26.08
264.835	28.05
265.051	27.08
265.266	26.66
265.481	27.72
265.696	27.21
265.912	26.79
266.127	23.85
266.342	22.51
266.557	21.81
266.773	20.73
266.988	19.54
267.203	18.11
267.418	19.55
267.633	19.63
267.848	18.22
268.064	17.5
268.279	17.54
268.494	18.1
268.709	18.94
268.924	20.06
269.139	19.83
269.354	20.51
269.569	19.64
269.784	18.67
269.999	17.63
270.214	18.04
270.429	18.73
270.644	17.6
270.859	17.85
271.074	18.04
271.289	17.78
271.504	17.33
271.719	16.89
271.934	16.76
272.149	16.21
272.363	16.82
272.578	17.85
272.793	16.52
273.008	17.09
273.223	17.37
273.438	17.34
273.653	18.45
273.867	20.29
274.082	20.41
274.297	21.47
274.512	22.34
274.726	20.58
274.941	19.5
275.156	20.2
275.371	19.96
275.585	20.42
275.8	21.16
276.015	20.25
276.229	18.48
276.444	16.89
276.659	18
276.873	17.52
277.088	18.72
277.302	18.25
277.517	18.11
277.732	17.57
277.946	16.99
278.161	17.88
278.375	17.23
278.59	19.09
278.804	20.09
279.019	19.08
279.233	19.95
279.448	20
279.662	22.65
279.877	22.91
280.091	22.6
280.306	21.37
280.52	20.6
280.735	20.61
280.949	18.15
281.163	18.21
281.378	19.35
281.592	18.86
281.806	17.42
282.021	15.65
282.235	15.48
282.449	17.1
282.664	17.89
282.878	17.88
283.092	17.52
283.307	19.64
283.521	19.92
283.735	18.08
283.949	18.26
284.164	19.48
284.378	18.66
284.592	18.95
284.806	18.03
285.02	17.18
285.234	16.49
285.449	16.51
285.663	15.36
285.877	15.73
286.091	15.69
286.305	15.51
286.519	15.25
286.733	16.21
286.947	15.75
287.161	15.3
287.375	15.37
287.589	15.6
287.803	15.86
288.017	15.86
288.231	15.99
288.445	16.02
288.659	15.1
288.873	15.66
289.087	15.91
289.301	16.48
289.515	17.67
289.729	19.07
289.943	18.57
290.157	18.66
290.371	18.57
290.584	17.55
290.798	17.85
291.012	19.77
291.226	19.78
291.44	19.33
291.654	19.23
291.867	18.57
292.081	17.1
292.295	17.76
292.509	16.76
292.722	17.12
292.936	17.99
293.15	18.95
293.364	16.87
293.577	16.04
293.791	15.66
294.005	15.21
294.218	14.62
294.432	15.99
294.645	15.22
294.859	16.11
295.073	15.25
295.286	14.06
295.5	13.56
295.713	13.52
295.927	13.58
296.14	13.9
296.354	13.4
296.568	13.37
296.781	12.85
296.994	13.48
297.208	12.97
297.421	13.41
297.635	14.13
297.848	13.82
298.062	14.19
298.275	14.15
298.489	13.93
298.702	14.59
298.915	14.55
299.129	14.62
299.342	14.43
299.555	15.06
299.769	15.48
299.982	15.92
300.195	15.83
300.409	15.71
300.622	15.64
300.835	15.41
301.048	15.84
301.262	16.15
301.475	16.44
301.688	16.73
301.901	16.45
302.115	17.25
302.328	16.46
302.541	17.35
302.754	17.92
302.967	18.74
303.18	19.02
303.393	18.32
303.607	18.9
303.82	18.8
304.033	18.43
304.246	17.84
304.459	17.1
304.672	17.48
304.885	17.37
305.098	17.18
305.311	17.61
305.524	17.6
305.737	18.74
305.95	18.89
306.163	17.75
306.376	16.67
306.589	16.67
306.802	16.5
307.015	17.1
307.228	17.42
307.44	17.02
307.653	16.28
307.866	16.54
308.079	15.93
308.292	15.78
308.505	16.18
308.718	16.54
308.93	16.37
309.143	16.09
309.356	14.43
309.569	13.89
309.781	14.41
309.994	12.94
310.207	12.59
310.42	11.91
310.632	10.8
310.845	11.09
311.058	11.43
311.27	11.45
311.483	11.12
311.696	11.93
311.908	12.1
312.121	11.26
312.333	12.84
312.546	12.61
312.759	12.31
312.971	13.18
313.184	14.13
313.396	13.95
313.609	15.49
313.821	16.65
314.034	18.1
314.246	18.27
314.459	19.36
314.671	18.65
314.884	19.88
315.096	20.89
315.309	20.61
315.521	20.34
315.733	20.01
315.946	18.78
316.158	18.88
316.371	17.18
316.583	17.21
316.795	15.85
317.008	16.66
317.22	15.66
317.432	16.49
317.644	15.96
317.857	15.78
318.069	17.12
318.281	17.19
318.494	15.75
318.706	16.1
318.918	15.71
319.13	17.99
319.342	17.98
319.555	17.38
319.767	17.59
319.979	17.84
320.191	18.31
320.403	18.01
320.615	18.14
320.827	18.91
321.039	19.89
321.252	19.93
321.464	19.2
321.676	19.74
321.888	20.7
322.1	19.66
322.312	19.68
322.524	18.78
322.736	18.47
322.948	19.01
323.16	18.84
323.372	17.59
323.584	17.08
323.796	17.42
324.007	17.4
324.219	17.83
324.431	18.85
324.643	19.27
324.855	19.73
325.067	20.29
325.279	19.66
325.491	19.16
325.702	19.6
325.914	19.59
326.126	18.82
326.338	18.26
326.55	17.25
326.761	16.81
326.973	16.62
327.185	16.45
327.396	16.63
327.608	16.87
327.82	16.86
328.032	16.46
328.243	16.26
328.455	16.93
328.666	16.99
328.878	17.59
329.09	17.07
329.301	17.96
329.513	17.71
329.725	17.56
329.936	18.18
330.148	20.21
330.359	21
330.571	22.02
330.782	21.18
330.994	20.72
331.205	20.42
331.417	20.93
331.628	20.4
331.84	21.18
332.051	20.5
332.262	20.55
332.474	19.39
332.685	20
332.897	19.26
333.108	19.98
333.319	20.1
333.531	20.19
333.742	18.8
333.953	18.93
334.165	17.71
334.376	17.49
334.587	16.5
334.799	15.97
335.01	14.91
335.221	14.89
335.432	13.53
335.644	13.08
335.855	13.19
336.066	13.84
336.277	13.51
336.488	13.78
336.7	13.46
336.911	13.98
337.122	14.41
337.333	14.05
337.544	14.74
337.755	15.29
337.966	15.95
338.177	16.2
338.388	15.2
338.599	15.38
338.811	15.98
339.022	16.26
339.233	15.56
339.444	14.79
339.655	15.17
339.866	15.8
340.076	15.76
340.287	15.32
340.498	14.82
340.709	16.36
340.92	16.66
341.131	15.44
341.342	15.55
341.553	16.18
341.764	16.8
341.975	16.97
342.185	15.86
342.396	15.73
342.607	15.82
342.818	16.17
343.029	15.09
343.239	14.45
343.45	15.19
343.661	15.2
343.872	14.81
344.082	15.15
344.293	14.73
344.504	16.58
344.714	16.55
344.925	16.54
345.136	16.21
345.346	16.45
345.557	16.45
345.768	16.76
345.978	17.41
346.189	17.85
346.399	17.13
346.61	17.45
346.821	15.66
347.031	16.1
347.242	15.8
347.452	15.9
347.663	16
347.873	15.94
348.084	15.16
348.294	14.55
348.504	14.2
348.715	14.95
348.925	15.17
349.136	14.9
349.346	14.54
349.557	14.91
349.767	14.74
349.977	14.41
350.188	14.79
350.398	14.86
350.608	14.72
350.819	14.34
351.029	13.65
351.239	13.38
351.449	13.95
351.66	14.25
351.87	14.4
352.08	14.15
352.29	14.76
352.501	14.4
352.711	15.69
352.921	15.95
353.131	15.97
353.341	16.45
353.552	15.96
353.762	16.06
353.972	15.62
354.182	15.84
354.392	16.77
354.602	16.9
354.812	16.74
355.022	16.39
355.232	15.29
355.442	15.5
355.652	14.78
355.862	15.03
356.072	14.7
356.282	15.07
356.492	14.72
356.702	13.85
356.912	13.72
357.122	13.91
357.332	13.38
357.542	14.15
357.752	13.93
357.962	13.82
358.171	13.48
358.381	13.59
358.591	12.6
358.801	12.24
359.011	11.86
359.221	12.14
359.43	12.1
359.64	11.31
359.85	10.68
360.06	10.83
360.269	11.05
360.479	10.51
360.689	10.44
360.899	10.51
361.108	10.55
361.318	10.58
361.528	9.93
361.737	9.69
361.947	10.09
362.156	10.58
362.366	10.36
362.576	9.93
362.785	10.38
362.995	10.28
363.204	10.59
363.414	10.74
363.623	10.97
363.833	11.17
364.042	11.06
364.252	10.57
364.461	10.33
364.671	10.42
364.88	10.93
365.09	11.37
365.299	11.41
365.509	11.18
365.718	10.94
365.927	10.93
366.137	11.51
366.346	12.07
366.555	12.32
366.765	11.98
366.974	11.84
367.183	11.79
367.393	11.43
367.602	11.45
367.811	12
368.021	12.02
368.23	12.55
368.439	11.92
368.648	11.33
368.857	11.76
369.067	12.4
369.276	12.96
369.485	13.58
369.694	13.46
369.903	13.31
370.112	13.22
370.321	13.43
370.531	12.37
370.74	11.8
370.949	12.06
371.158	12.09
371.367	11.67
371.576	11.63
371.785	11.11
371.994	11.36
372.203	11.28
372.412	11.23
372.621	10.76
372.83	11.48
373.039	11.88
373.248	11.7
373.457	11.72
373.666	11.67
373.874	10.8
374.083	10.82
374.292	10.6
374.501	10.38
374.71	10.08
374.919	10.52
375.128	10.32
375.336	11.01
375.545	10.99
375.754	10.45
375.963	10.14
376.171	10.55
376.38	10.96
376.589	11.12
376.798	10.9
377.006	10.81
377.215	10.9
377.424	10.5
377.632	9.79
377.841	9.75
378.05	10.02
378.258	10.36
378.467	9.99
378.675	9.44
378.884	9.21
379.093	9.46
379.301	9.59
379.51	9.26
379.718	9.26
379.927	9.43
380.135	9.37
380.344	9.55
380.552	9.69
380.761	9.71
380.969	9.93
381.177	10.11
381.386	10.37
381.594	10.3
381.803	10.43
382.011	10.72
382.219	10.22
382.428	10.41
382.636	9.89
382.845	9.69
383.053	10.06
383.261	9.7
383.469	9.65
383.678	9.48
383.886	9.02
384.094	8.91
384.302	8.84
384.511	9.15
384.719	9.23
384.927	9.52
385.135	9.8
385.343	9.54
385.552	9.76
385.76	9.71
385.968	9.72
386.176	9.95
386.384	10
386.592	9.99
386.8	9.98
387.008	9.63
387.216	9.26
387.424	9.13
387.633	9.34
387.841	9.07
388.049	9.13
388.257	9
388.465	9.05
388.672	8.84
388.88	8.89
389.088	9.26
389.296	9.35
389.504	9.74
389.712	9.73
389.92	9.57
390.128	9.55
390.336	9.3
390.544	8.93
390.751	8.88
390.959	9.09
391.167	9.01
391.375	8.77
391.583	8.7
391.79	8.43
391.998	8.36
392.206	8.58
392.414	8.39
392.621	8.35
392.829	8.72
393.037	8.85
393.244	8.77
393.452	8.6
393.66	8.3
393.867	8.31
394.075	8.49
394.283	8.45
394.49	8.1
394.698	8.33
394.905	8.26
395.113	8.36
395.32	8.04
395.528	8.24
395.735	8.44
395.943	8.4
396.15	8.42
396.358	8.58
396.565	8.3
396.773	8.36
396.98	8.38
397.188	8.68
397.395	8.52
397.602	8.98
397.81	8.55
398.017	8.41
398.225	8.69
398.432	8.61
398.639	8.4
398.847	8.83
399.054	8.93
399.261	9.06
399.468	8.94
399.676	9.11
399.883	8.84
400.09	8.75
400.297	9.05
400.505	9.2
400.712	9.64
400.919	9.62
401.126	9.43
401.333	9.53
401.54	9.24
401.748	9.13
401.955	8.9
402.162	9.06
402.369	9.42
402.576	9.26
402.783	8.72
402.99	8.16
403.197	8.28
403.404	8.24
403.611	8.06
403.818	8.16
404.025	8.1
404.232	7.92
404.439	7.69
404.646	7.41
404.853	7.38
405.06	7.81
405.267	7.91
405.474	7.5
405.681	7.26
405.887	7.49
406.094	7.41
406.301	7.41
406.508	7.31
406.715	7.5
406.922	7.81
407.128	7.9
407.335	7.47
407.542	7.55
407.749	8.04
407.955	8.48
408.162	8.32
408.369	8.32
408.575	8.47
408.782	8.51
408.989	8.29
409.195	8.37
409.402	8.46
409.609	8.55
409.815	8.42
410.022	8.29
410.228	7.95
410.435	7.84
410.642	7.89
410.848	7.68
411.055	7.91
411.261	7.98
411.468	7.82
411.674	7.44
411.881	7.55
412.087	7.71
412.294	7.37
412.5	7.32
412.706	7.33
412.913	7.22
413.119	7.27
413.326	7.16
413.532	6.93
413.738	6.91
413.945	6.76
414.151	6.62
414.357	6.43
414.564	6.52
414.77	6.47
414.976	6.56
415.182	6.93
415.389	6.83
415.595	6.88
415.801	7.13
416.007	7.1
416.214	7.38
416.42	7.34
416.626	7.33
416.832	7.24
417.038	7.19
417.244	7.29
417.45	7.15
417.657	7.08
417.863	6.95
418.069	6.66
418.275	6.41
418.481	6.34
418.687	6.27
418.893	6.28
419.099	6.21
419.305	6.45
419.511	6.35
419.717	6.17
419.923	6.1
420.129	6.1
420.335	6.17
420.541	6.12
420.746	6.01
420.952	6.12
421.158	6.08
421.364	6.22
421.57	6.18
421.776	5.93
421.982	5.97
422.187	6.03
422.393	6.02
422.599	5.93
422.805	5.96
423.01	6.13
423.216	6.1
423.422	6.08
423.628	6.01
423.833	5.83
424.039	5.86
424.245	5.78
424.45	5.7
424.656	5.67
424.862	5.78
425.067	5.75
425.273	5.71
425.478	5.71
425.684	5.61
425.889	5.77
426.095	5.99
426.301	6.12
426.506	6.29
426.712	6.43
426.917	6.5
427.123	6.49
427.328	6.62
427.533	6.52
427.739	6.38
427.944	6.56
428.15	6.24
428.355	6.05
428.561	6.08
428.766	5.96
428.971	5.97
429.177	5.92
429.382	5.85
429.587	5.9
429.793	6.03
429.998	6
430.203	6.1
430.408	6.13
430.614	5.99
430.819	5.89
431.024	6.03
431.229	5.96
431.434	6.17
431.64	6.33
431.845	6.35
432.05	6.32
432.255	6.46
432.46	6.39
432.665	6.64
432.87	6.65
433.076	6.64
433.281	6.74
433.486	6.81
433.691	6.56
433.896	6.4
434.101	6.35
434.306	6.25
434.511	6.3
434.716	6.25
434.921	6.07
435.126	6.09
435.331	6.1
435.535	6.01
435.74	5.96
435.945	6.18
436.15	6.17
436.355	6.34
436.56	6.37
436.765	6.48
436.97	6.51
437.174	6.5
437.379	6.51
437.584	6.8
437.789	6.62
437.993	6.49
438.198	6.4
438.403	6.46
438.608	6.35
438.812	6.29
439.017	6.13
439.222	6.01
439.426	5.96
439.631	5.92
439.836	5.76
440.04	5.64
440.245	5.77
440.45	5.7
440.654	5.77
440.859	5.6
441.063	5.65
441.268	5.64
441.472	5.68
441.677	5.83
441.881	5.84
442.086	5.79
442.29	5.9
442.495	5.97
442.699	6.08
442.904	6.04
443.108	6.06
443.312	6.13
443.517	6.12
443.721	6.15
443.925	5.93
444.13	6.02
444.334	5.84
444.538	5.81
444.743	5.48
444.947	5.47
445.151	5.4
445.356	5.48
445.56	5.41
445.764	5.47
445.968	5.38
446.173	5.37
446.377	5.23
446.581	5.48
446.785	5.52
446.989	5.69
447.193	5.62
447.398	5.77
447.602	5.89
447.806	5.83
448.01	5.72
448.214	5.69
448.418	5.83
448.622	6
448.826	5.85
449.03	5.9
449.234	5.82
449.438	5.79
449.642	5.69
449.846	5.61
450.05	5.63
450.254	5.57
450.458	5.66
450.662	5.55
450.866	5.43
451.069	5.43
451.273	5.3
451.477	5.41
451.681	5.6
451.885	5.6
452.089	5.39
452.292	5.43
452.496	5.53
452.7	5.68
452.904	5.74
453.107	5.88
453.311	5.94
453.515	5.89
453.719	5.83
453.922	5.72
454.126	5.72
454.33	5.92
454.533	5.8
454.737	5.87
454.94	5.58
455.144	5.61
455.348	5.37
455.551	5.14
455.755	5.35
455.958	5.44
456.162	5.25
456.365	5.01
456.569	4.81
456.772	5.05
456.976	5.02
457.179	5.31
457.383	5.17
457.586	5.37
457.79	5.55
457.993	5.5
458.196	5.37
458.4	5.61
458.603	5.85
458.807	5.93
459.01	5.92
459.213	5.83
459.417	5.66
459.62	5.75
459.823	5.63
460.026	5.57
460.23	5.51
460.433	5.52
460.636	5.4
460.839	5.31
461.042	5.33
461.246	5.18
461.449	5.29
461.652	5.3
461.855	5.3
462.058	5.28
462.261	5.52
462.464	5.47
462.668	5.43
462.871	5.45
463.074	5.41
463.277	5.37
463.48	5.43
463.683	5.4
463.886	5.47
464.089	5.34
464.292	5.48
464.495	5.14
464.698	5.14
464.901	5.33
465.104	5.51
465.306	5.69
465.509	5.66
465.712	5.73
465.915	5.79
466.118	5.74
466.321	5.69
466.524	5.56
466.726	5.65
466.929	5.97
467.132	5.79
467.335	5.67
467.538	5.48
467.74	5.44
467.943	5.54
468.146	5.39
468.348	5.43
468.551	5.56
468.754	5.64
468.956	5.69
469.159	5.53
469.362	5.6
469.564	5.55
469.767	5.71
469.969	5.71
470.172	5.68
470.375	5.71
470.577	5.83
470.78	5.7
470.982	5.79
471.185	5.64
471.387	5.62
471.59	5.84
471.792	5.85
471.995	5.92
472.197	5.87
472.399	5.76
472.602	5.96
472.804	6.02
473.007	6.15
473.209	5.95
473.411	6.03
473.614	5.92
473.816	5.8
474.018	5.89
474.22	5.74
474.423	5.88
474.625	5.88
474.827	5.6
475.03	5.58
475.232	5.45
475.434	5.42
475.636	5.45
475.838	5.54
476.04	5.32
476.243	5.37
476.445	5.42
476.647	5.47
476.849	5.27
477.051	5.31
477.253	5.22
477.455	5.2
477.657	5.22
477.859	5.08
478.061	5.02
478.263	5.03
478.465	5
478.667	5.02
478.869	4.96
479.071	5.07
479.273	5.1
479.475	5.04
479.677	5.07
479.879	5.15
480.081	5.28
480.283	5.29
480.485	5.35
480.686	5.24
480.888	5.24
481.09	5.21
481.292	5.14
481.494	5.13
481.695	5.14
481.897	4.98
482.099	4.93
482.301	4.94
482.502	4.89
482.704	4.89
482.906	4.9
483.107	4.76
483.309	4.68
483.511	4.71
483.712	4.66
483.914	4.63
484.115	4.68
484.317	4.65
484.519	4.6
484.72	4.58
484.922	4.6
485.123	4.57
485.325	4.57
485.526	4.58
485.728	4.58
485.929	4.6
486.131	4.63
486.332	4.59
486.534	4.52
486.735	4.54
486.936	4.5
487.138	4.36
487.339	4.39
487.541	4.47
487.742	4.52
487.943	4.48
488.144	4.48
488.346	4.46
488.547	4.52
488.748	4.63
488.95	4.57
489.151	4.62
489.352	4.71
489.553	4.8
489.755	4.77
489.956	4.73
490.157	4.74
490.358	4.81
490.559	4.92
490.76	4.9
490.961	4.82
491.163	4.88
491.364	4.86
491.565	4.92
491.766	4.81
491.967	4.86
492.168	4.88
492.369	4.93
492.57	4.96
492.771	4.97
492.972	5
493.173	5.09
493.374	5.21
493.575	5.29
493.776	5.23
493.976	5.38
494.177	5.32
494.378	5.4
494.579	5.53
494.78	5.49
494.981	5.38
495.182	5.38
495.382	5.41
495.583	5.3
495.784	5.35
495.985	5.4
496.185	5.34
496.386	5.44
496.587	5.46
496.788	5.48
496.988	5.43
497.189	5.5
497.39	5.56
497.59	5.6
497.791	5.64
497.992	5.58
498.192	5.64
498.393	5.65
498.593	5.61
498.794	5.53
498.994	5.58
499.195	5.48
499.395	5.53
499.596	5.52
499.796	5.43
499.997	5.49
500.197	5.53
500.398	5.38
500.598	5.44
500.799	5.47
500.999	5.54
501.199	5.31
501.4	5.57
501.6	5.53
501.801	5.6
502.001	5.74
502.201	5.79
502.402	5.88
502.602	5.97
502.802	5.98
503.002	6.03
503.203	6.09
503.403	6.2
503.603	6.07
503.803	6.01
504.003	5.92
504.204	5.92
504.404	6.08
504.604	5.99
504.804	6.13
505.004	6.14
505.204	5.96
505.404	5.98
505.604	6.02
505.804	6.12
506.005	6.2
506.205	6.4
506.405	6.38
506.605	6.18
506.805	6.37
507.005	6.39
507.204	6.3
507.404	6.36
507.604	6.41
507.804	6.43
508.004	6.59
508.204	6.64
508.404	6.54
508.604	6.49
508.804	6.52
509.003	6.44
509.203	6.41
509.403	6.61
509.603	6.8
509.803	6.71
510.002	6.74
510.202	6.61
510.402	6.61
510.602	6.53
510.801	6.72
511.001	6.76
511.201	6.8
511.4	6.65
511.6	6.47
511.8	6.37
511.999	6.53
512.199	6.47
512.398	6.55
512.598	6.68
512.797	6.95
512.997	6.86
513.197	6.84
513.396	6.89
513.596	7.06
513.795	7.28
513.994	7.36
514.194	7.46
514.393	7.58
514.593	7.57
514.792	7.6
514.992	7.59
515.191	7.8
515.39	7.9
515.59	7.86
515.789	8.05
515.988	8.09
516.188	8.25
516.387	8.18
516.586	8.15
516.786	8.15
516.985	8.01
517.184	7.97
517.383	7.9
517.582	7.94
517.782	7.92
517.981	7.89
518.18	7.85
518.379	7.76
518.578	7.66
518.777	7.63
518.976	7.67
519.176	7.78
519.375	7.76
519.574	7.84
519.773	7.8
519.972	7.82
520.171	7.74
520.37	7.75
520.569	7.75
520.768	7.92
520.967	8
521.166	8.01
521.365	8.01
521.564	8.16
521.762	8.1
521.961	8.24
522.16	8.43
522.359	8.56
522.558	8.5
522.757	8.51
522.956	8.53
523.154	8.55
523.353	8.52
523.552	8.63
523.751	8.53
523.949	8.59
524.148	8.57
524.347	8.5
524.546	8.49
524.744	8.53
524.943	8.72
525.142	8.8
525.34	8.81
525.539	8.89
525.737	8.92
525.936	9.06
526.135	9.02
526.333	9
526.532	8.97
526.73	8.98
526.929	9.03
527.127	8.99
527.326	8.89
527.524	8.87
527.723	8.81
527.921	8.8
528.12	8.73
528.318	8.67
528.516	8.71
528.715	8.76
528.913	8.81
529.112	8.81
529.31	8.77
529.508	8.83
529.707	8.93
529.905	9.02
530.103	9.01
530.301	9
530.5	9.08
530.698	9.15
530.896	9.25
531.094	9.35
531.293	9.41
531.491	9.58
531.689	9.66
531.887	9.72
532.085	9.78
532.283	9.93
532.481	9.94
532.68	9.97
532.878	10.02
533.076	9.93
533.274	9.91
533.472	9.92
533.67	9.87
533.868	9.92
534.066	9.92
534.264	9.93
534.462	9.83
534.66	9.94
534.858	10.03
535.056	9.98
535.253	10.05
535.451	9.97
535.649	10.09
535.847	10.23
536.045	10.24
536.243	10.33
536.441	10.38
536.638	10.59
536.836	10.69
537.034	10.72
537.232	10.87
537.43	10.99
537.627	11.11
537.825	11.11
538.023	11.16
538.22	11.25
538.418	11.23
538.616	11.25
538.813	11.3
539.011	11.37
539.209	11.41
539.406	11.44
539.604	11.43
539.801	11.52
539.999	11.55
540.196	11.51
540.394	11.59
540.591	11.67
540.789	11.69
540.986	11.6
541.184	11.6
541.381	11.63
541.579	11.56
541.776	11.69
541.974	11.76
542.171	11.83
542.368	11.86
542.566	11.83
542.763	11.8
542.96	11.87
543.158	11.91
543.355	11.94
543.552	12.07
543.75	12.28
543.947	12.23
544.144	12.16
544.341	12.27
544.539	12.33
544.736	12.28
544.933	12.25
545.13	12.33
545.327	12.42
545.524	12.51
545.722	12.57
545.919	12.48
546.116	12.54
546.313	12.7
546.51	12.69
546.707	13.02
546.904	13.21
547.101	13.46
547.298	13.57
547.495	13.74
547.692	13.8
547.889	13.85
548.086	14.03
548.283	14.31
548.48	14.34
548.677	14.5
548.874	14.31
549.07	14.19
549.267	14.27
549.464	14.28
549.661	14.36
549.858	14.41
550.055	14.38
550.251	14.55
550.448	14.46
550.645	14.72
550.842	14.73
551.038	14.92
551.235	15.37
551.432	15.52
551.628	15.55
551.825	15.62
552.022	15.83
552.218	15.92
552.415	15.94
552.612	15.91
552.808	16
553.005	16.06
553.201	16.09
553.398	16.12
553.594	16.11
553.791	16.35
553.987	16.2
554.184	16.13
554.38	16.41
554.577	16.52
554.773	16.68
554.97	16.65
555.166	16.81
555.362	16.84
555.559	16.98
555.755	17.15
555.952	17.12
556.148	17.52
556.344	17.73
556.541	17.52
556.737	17.62
556.933	17.86
557.129	18.2
557.326	18.28
557.522	18.49
557.718	18.57
557.914	18.63
558.11	18.71
558.307	18.5
558.503	18.56
558.699	18.96
558.895	18.94
559.091	18.98
559.287	19.09
559.483	19.07
559.679	19.12
559.876	19.17
560.072	19.43
560.268	19.61
560.464	19.85
560.66	19.87
560.856	19.91
561.052	19.96
561.247	19.93
561.443	19.99
561.639	20.1
561.835	20.02
562.031	20.13
562.227	19.98
562.423	20.05
562.619	20.15
562.815	20.33
563.01	20.32
563.206	20.63
563.402	20.7
563.598	20.61
563.793	20.77
563.989	20.96
564.185	21.03
564.381	21.23
564.576	21.38
564.772	21.36
564.968	21.31
565.163	21.38
565.359	21.18
565.555	21.37
565.75	21.62
565.946	21.68
566.141	21.8
566.337	21.83
566.532	21.92
566.728	22.01
566.923	22.2
567.119	22.21
567.314	22.42
567.51	22.67
567.705	22.84
567.901	22.65
568.096	22.65
568.292	22.7
568.487	22.76
568.682	22.82
568.878	22.84
569.073	22.94
569.268	23.09
569.464	23
569.659	23.1
569.854	23.03
570.05	23.14
570.245	23.42
570.44	23.55
570.635	23.68
570.831	23.85
571.026	23.86
571.221	23.98
571.416	24.11
571.611	24.25
571.806	24.26
572.002	24.35
572.197	24.43
572.392	24.2
572.587	24.23
572.782	24.32
572.977	24.21
573.172	24.35
573.367	24.39
573.562	24.46
573.757	24.53
573.952	24.61
574.147	24.8
574.342	24.9
574.537	25.17
574.732	25.27
574.927	25.25
575.121	25.47
575.316	25.56
575.511	25.57
575.706	25.68
575.901	25.83
576.096	25.84
576.29	25.75
576.485	25.8
576.68	26.04
576.875	26.22
577.069	26.42
577.264	26.41
577.459	26.4
577.654	26.57
577.848	26.74
578.043	26.66
578.238	26.75
578.432	26.85
578.627	26.99
578.821	26.93
579.016	26.87
579.21	26.86
579.405	26.85
579.6	26.9
579.794	26.9
579.989	26.73
580.183	26.37
580.378	26.41
580.572	26.65
580.766	26.8
580.961	27
581.155	27.26
581.35	27.34
581.544	27.4
581.738	27.45
581.933	27.47
582.127	27.85
582.321	28.36
582.516	28.3
582.71	28.27
582.904	28.13
583.099	27.69
583.293	27.57
583.487	27.54
583.681	27.9
583.875	27.97
584.07	28.16
584.264	28.29
584.458	28.47
584.652	28.78
584.846	28.74
585.04	28.94
585.234	29.46
585.428	29.53
585.623	29.73
585.817	29.63
586.011	29.91
586.205	29.9
586.399	29.97
586.593	29.86
586.787	29.89
586.981	29.67
587.174	29.93
587.368	29.86
587.562	30.07
587.756	30
587.95	30.06
588.144	30.03
588.338	30.13
588.532	29.88
588.725	30.28
588.919	30.44
589.113	30.74
589.307	30.53
589.501	30.69
589.694	30.96
589.888	31.17
590.082	31.27
590.275	31.3
590.469	31.1
590.663	31.23
590.856	30.88
591.05	31.12
591.244	31.24
591.437	31.57
591.631	31.43
591.824	31.12
592.018	31.17
592.212	31.2
592.405	31.11
592.599	31.41
592.792	31.76
592.986	31.83
593.179	31.35
593.372	31.21
593.566	31.18
593.759	31.38
593.953	31.46
594.146	31.33
594.339	31.3
594.533	31.6
594.726	31.63
594.92	31.54
595.113	31.88
595.306	32.22
595.499	32.47
595.693	32.47
595.886	32.47
596.079	32.44
596.272	32.48
596.466	32.58
596.659	32.5
596.852	32.45
597.045	32.51
597.238	32.33
597.431	32.13
597.624	32.1
597.818	32.02
598.011	32.08
598.204	31.98
598.397	32.05
598.59	32.07
598.783	32.06
598.976	32.08
599.169	31.9
599.362	32.02
599.555	32.29
599.748	32.55
599.941	32.65
600.134	32.75
600.326	32.82
600.519	32.94
600.712	33.01
600.905	32.96
601.098	33.21
601.291	33.29
601.483	33.46
601.676	33.37
601.869	33.2
602.062	33.12
602.255	33
602.447	33.26
602.64	33.19
602.833	33.04
603.025	33.12
603.218	32.93
603.411	33.08
603.603	33.08
603.796	33.13
603.989	33.08
604.181	33.29
604.374	33.27
604.566	33.16
604.759	33.22
604.951	33.29
605.144	33.26
605.336	33.37
605.529	33
605.721	32.87
605.914	32.81
606.106	32.97
606.299	32.93
606.491	32.91
606.683	33.12
606.876	33.16
607.068	33.33
607.26	33.66
607.453	33.65
607.645	33.97
607.837	34.14
608.03	34.28
608.222	34.26
608.414	34.48
608.606	34.75
608.799	34.55
608.991	34.63
609.183	34.45
609.375	34.45
609.567	34.5
609.759	34.7
609.952	34.69
610.144	34.81
610.336	34.65
610.528	34.51
610.72	34.34
610.912	34.32
611.104	34.35
611.296	34.49
611.488	34.75
611.68	34.93
611.872	34.91
612.064	35.03
612.256	35.03
612.448	35.24
612.64	35.36
612.832	35.53
613.023	36.05
613.215	35.93
613.407	36.11
613.599	35.71
613.791	35.67
613.983	35.73
614.174	35.65
614.366	35.41
614.558	35.38
614.75	35.09
614.941	35.17
615.133	34.99
615.325	35.07
615.516	34.81
615.708	34.78
615.9	35.13
616.091	34.97
616.283	35.12
616.475	35.39
616.666	35.11
616.858	35.67
617.049	35.54
617.241	35.34
617.432	35.53
617.624	35.75
617.815	35.9
618.007	35.51
618.198	35.51
618.39	35.14
618.581	35.05
618.773	35.24
618.964	35.18
619.155	35.51
619.347	35.68
619.538	35.6
619.729	35.68
619.921	35.81
620.112	35.87
620.303	35.66
620.494	35.92
620.686	36.25
620.877	36.32
621.068	36
621.259	35.9
621.451	36.22
621.642	36.72
621.833	36.54
622.024	36.46
622.215	36.41
622.406	36.49
622.597	36.59
622.788	36.54
622.98	36.62
623.171	37.19
623.362	37.21
623.553	37.22
623.744	36.83
623.935	37
624.126	36.88
624.317	36.77
624.508	37.18
624.698	36.94
624.889	36.39
625.08	36.72
625.271	36.23
625.462	35.88
625.653	35.7
625.844	35.65
626.034	35.75
626.225	35.88
626.416	35.9
626.607	35.82
626.798	36.03
626.988	36.31
627.179	36.42
627.37	36.6
627.56	36.79
627.751	36.72
627.942	36.62
628.132	36.44
628.323	36.47
628.514	36.78
628.704	36.82
628.895	36.82
629.085	36.92
629.276	36.4
629.466	36.65
629.657	36.67
629.847	36.71
630.038	37
630.228	37.07
630.419	37.24
630.609	37.19
630.8	37.23
630.99	37.08
631.181	37.23
631.371	37.5
631.561	37.36
631.752	37.6
631.942	37.99
632.132	37.86
632.323	37.9
632.513	37.78
632.703	37.84
632.893	37.99
633.084	37.89
633.274	37.9
633.464	38.1
633.654	37.98
633.844	37.87
634.034	37.47
634.225	37.57
634.415	37.7
634.605	37.75
634.795	37.69
634.985	37.93
635.175	38.4
635.365	38.49
635.555	38.36
635.745	38.62
635.935	38.84
636.125	39.24
636.315	39.3
636.505	39.37
636.695	39.15
636.885	38.99
637.075	38.86
637.265	39.08
637.455	39.01
637.644	39.17
637.834	38.78
638.024	38.52
638.214	38.35
638.404	38.34
638.593	38.34
638.783	38.11
638.973	38.17
639.163	37.93
639.352	37.61
639.542	37.66
639.732	37.75
639.921	37.79
640.111	38.11
640.301	38.1
640.49	38.54
640.68	38.8
640.87	39.29
641.059	39.45
641.249	39.67
641.438	39.68
641.628	39.91
641.817	40.01
642.007	40.37
642.196	40.43
642.386	40.37
642.575	40.1
642.764	39.78
642.954	39.91
643.143	39.97
643.333	40.13
643.522	40.19
643.711	39.88
643.901	39.68
644.09	39.44
644.279	39.57
644.469	39.52
644.658	39.48
644.847	39.07
645.036	39.08
645.226	39.06
645.415	38.85
645.604	39.18
645.793	39.16
645.982	38.93
646.171	39.18
646.361	39.18
646.55	39.55
646.739	39.51
646.928	40.12
647.117	39.98
647.306	40.21
647.495	40.15
647.684	39.94
647.873	40.36
648.062	40.96
648.251	40.86
648.44	40.47
648.629	39.97
648.818	39.99
649.007	39.63
649.196	39.53
649.384	39.53
649.573	39.66
649.762	39.76
649.951	39.39
650.14	39.27
650.328	39.49
650.517	39.42
650.706	40.11
650.895	39.95
651.083	40.63
651.272	40.87
651.461	40.87
651.65	40.72
651.838	40.41
652.027	40.36
652.216	39.9
652.404	39.86
652.593	40.25
652.781	39.96
652.97	40.39
653.158	40.01
653.347	40.1
653.535	40.15
653.724	40.25
653.912	40.46
654.101	40.66
654.289	40.81
654.478	40.56
654.666	40.66
654.855	40.64
655.043	40.32
655.231	40.4
655.42	40.44
655.608	40.71
655.796	40.96
655.985	40.94
656.173	40.79
656.361	41.23
656.55	41.13
656.738	40.83
656.926	40.93
657.114	41.2
657.302	41.03
657.491	40.97
657.679	40.56
657.867	40.3
658.055	40.7
658.243	40.95
658.431	40.69
658.619	41.13
658.807	41.36
658.996	41.6
659.184	41.72
659.372	41.73
659.56	41.78
659.748	41.71
659.936	41.82
660.124	41.5
660.311	41.64
660.499	41.77
660.687	41.75
660.875	41.79
661.063	41.44
661.251	40.9
661.439	40.99
661.627	41.15
661.814	41.34
662.002	41.74
662.19	42.3
662.378	42.19
662.565	42.24
662.753	42.26
662.941	42.29
663.129	42.22
663.316	42.58
663.504	42.52
663.692	42.53
663.879	42.56
664.067	42.5
664.254	41.82
664.442	42.32
664.63	42.35
664.817	42.33
665.005	42.18
665.192	42.39
665.38	42.68
665.567	43.04
665.755	42.69
665.942	42.48
666.13	42.28
666.317	42.48
666.504	42.07
666.692	41.82
666.879	41.54
667.067	41.56
667.254	41.45
667.441	41.8
667.629	41.38
667.816	41.7
668.003	41.87
668.19	41.79
668.378	41.88
668.565	41.9
668.752	42.17
668.939	42.24
669.127	42.43
669.314	42.15
669.501	41.52
669.688	41.93
669.875	41.8
670.062	41.7
670.249	41.81
670.436	42.04
670.623	42.09
670.81	41.75
670.997	42.05
671.184	42.05
671.371	42.3
671.558	42.56
671.745	42.36
671.932	42.72
672.119	43.16
672.306	43.14
672.493	42.78
672.68	42.43
672.867	42.78
673.054	42.41
673.24	42
673.427	42.21
673.614	42.63
673.801	42.67
673.988	41.95
674.174	41.79
674.361	41.9
674.548	41.93
674.734	42.37
674.921	42.62
675.108	42.87
675.294	43.14
675.481	43.15
675.668	42.63
675.854	42.97
676.041	43.2
676.227	43.2
676.414	43.47
676.601	43.96
676.787	43.64
676.974	43.15
677.16	43.23
677.347	43.04
677.533	43.01
677.719	42.77
677.906	42.25
678.092	42.72
678.279	42.53
678.465	42.07
678.651	41.53
678.838	41.59
679.024	41.53
679.21	41.48
679.397	41.68
679.583	41.27
679.769	41.73
679.955	42
680.142	41.57
680.328	41.93
680.514	42.07
680.7	42.41
680.886	42.72
681.073	43.3
681.259	43.31
681.445	43.07
681.631	43.59
681.817	43.33
682.003	43.19
682.189	43.42
682.375	43.33
682.561	43.38
682.747	43.24
682.933	42.93
683.119	42.83
683.305	42.56
683.491	42.79
683.677	42.84
683.863	42.85
684.049	43.16
684.235	43
684.42	42.99
684.606	42.65
684.792	42.67
684.978	42.58
685.164	42.45
685.349	42.83
685.535	43.05
685.721	42.46
685.907	42.51
686.092	42.66
686.278	43.03
686.464	43.32
686.649	43.69
686.835	43.49
687.021	43.98
687.206	44.17
687.392	44.05
687.577	44.1
687.763	44.69
687.948	44.97
688.134	44.68
688.319	44.69
688.505	44.38
688.69	44.71
688.876	45.07
689.061	44.43
689.247	44.75
689.432	44.85
689.618	44.55
689.803	44.53
689.988	44.98
690.174	45
690.359	45.12
690.544	45.09
690.73	44.86
690.915	45.11
691.1	45.65
691.285	45.39
691.471	45.74
691.656	45.6
691.841	45.36
692.026	44.57
692.211	44.32
692.396	43.67
692.582	43.78
692.767	43.91
692.952	43.28
693.137	43.28
693.322	43.17
693.507	42.65
693.692	43.04
693.877	43.23
694.062	43.17
694.247	43.72
694.432	44.26
694.617	43.8
694.802	43.27
694.987	43.58
695.172	43.18
695.357	43.31
695.541	43.41
695.726	43.74
695.911	44.57
696.096	44.76
696.281	44.95
696.466	44.75
696.65	45.28
696.835	45.29
697.02	45.2
697.204	45.16
697.389	45.41
697.574	45.63
697.759	45.47
697.943	44.68
698.128	44.78
698.312	44.07
698.497	44
698.682	43.69
698.866	43.87
699.051	43.97
699.235	44.4
699.42	43.89
699.604	43.83
699.789	43.62
699.973	43.42
700.158	43.23
700.342	43.72
700.527	43.3
700.711	43.4
700.895	43.41
701.08	43.46
701.264	43.12
701.448	43.18
701.633	43.22
701.817	43.44
702.001	44.24
702.186	44.24
702.37	43.96
702.554	44.91
702.738	45.65
702.923	46.02
703.107	46.56
703.291	46.82
703.475	46.67
703.659	46.63
703.843	46.68
704.027	46.74
704.212	47.18
704.396	48.02
704.58	47.85
704.764	47.43
704.948	47.27
705.132	46.94
705.316	46.88
705.5	47.23
705.684	48.14
705.868	48.2
706.052	47.78
706.235	48.21
706.419	47.62
706.603	47.9
706.787	47.65
706.971	47.89
707.155	47.64
707.339	47.78
707.522	47.82
707.706	47.63
707.89	47.18
708.074	46.94
708.257	46.6
708.441	46.88
708.625	46.67
708.808	46.64
708.992	46.82
709.176	46.57
709.359	45.83
709.543	45.96
709.727	44.93
709.91	45.46
710.094	45.29
710.277	45.1
710.461	44.61
710.644	44.96
710.828	44.4
711.011	43.98
711.195	44.35
711.378	44.51
711.562	44.61
711.745	44.94
711.928	44.97
712.112	45.15
712.295	44.9
712.478	44.95
712.662	45.19
712.845	46.17
713.028	46.15
713.212	45.92
713.395	46.23
713.578	46.49
713.761	46.22
713.945	46.28
714.128	47
714.311	47.42
714.494	47.39
714.677	47.17
714.86	47.79
715.043	47.36
715.227	47.12
715.41	47.56
715.593	47.62
715.776	47.25
715.959	46.89
716.142	46.86
716.325	46.19
716.508	45.96
716.691	45.4
716.874	44.82
717.057	44.9
717.239	45.61
717.422	45.43
717.605	44.74
717.788	45.52
717.971	46.25
718.154	45.84
718.337	46.73
718.519	47.96
718.702	48.45
718.885	48.06
719.068	48.91
719.25	49.08
719.433	49.05
719.616	49.46
719.798	48.59
719.981	48.65
720.164	48.78
720.346	49.03
720.529	48.49
720.712	48.17
720.894	48.7
721.077	48.55
721.259	48.12
721.442	48.29
721.624	48.51
721.807	49.59
721.989	49.08
722.172	49.45
722.354	49.1
722.537	49.34
722.719	49.74
722.901	48.87
723.084	48.22
723.266	47.81
723.448	47.95
723.631	48.23
723.813	48.37
723.995	48.2
724.178	47.63
724.36	47.7
724.542	47.03
724.724	47.27
724.907	48.43
725.089	49.28
725.271	50.56
725.453	49.77
725.635	49.48
725.817	49.19
725.999	50.25
726.181	50.34
726.364	50.33
726.546	50.16
726.728	50.01
726.91	49.75
727.092	49.75
727.274	48.86
727.456	49.46
727.638	48.83
727.819	48.51
728.001	47.73
728.183	47.38
728.365	46.94
728.547	47.29
728.729	46.74
728.911	47.56
729.093	47.23
729.274	46.59
729.456	46.49
729.638	47.48
729.82	48.33
730.001	48.27
730.183	48.16
730.365	48.27
730.546	48.1
730.728	48.65
730.91	48.19
731.091	48.43
731.273	48.73
731.455	48.88
731.636	48.9
731.818	48.81
731.999	47.63
732.181	48.99
732.362	49.31
732.544	50.03
732.725	49.59
732.907	49.48
733.088	50.32
733.27	50.73
733.451	50.49
733.633	50.17
733.814	50.47
733.995	51.71
734.177	51.54
734.358	51.75
734.539	51.48
734.721	52.12
734.902	51.48
735.083	50.89
735.264	51.63
735.446	51.81
735.627	51.49
735.808	51.4
735.989	52.12
736.17	52.26
736.351	52.11
736.533	51.69
736.714	51.73
736.895	52.21
737.076	51.29
737.257	50.77
737.438	50.8
737.619	50.87
737.8	50.18
737.981	49.28
738.162	49.05
738.343	50.01
738.524	51.09
738.705	51.06
738.886	51.58
739.067	52.12
739.247	51.67
739.428	51.92
739.609	52.06
739.79	52.13
739.971	51.5
740.151	50.85
740.332	49.94
740.513	49.04
740.694	48.67
740.874	48.22
741.055	47.65
741.236	48.08
741.417	48.6
741.597	47.97
741.778	48.58
741.958	49.21
742.139	49.47
742.32	49.2
742.5	49.12
742.681	50.07
742.861	50.17
743.042	50.65
743.222	50.41
743.403	49.64
743.583	50.93
743.764	50.78
743.944	52.06
744.124	52
744.305	51.89
744.485	52.59
744.666	51.17
744.846	51.5
745.026	51.95
745.207	51.65
745.387	52.89
745.567	52.37
745.747	52.39
745.928	52.48
746.108	52.78
746.288	53.5
746.468	51.32
746.648	52.89
746.829	52.05
747.009	51.01
747.189	51.2
747.369	49.52
747.549	49.82
747.729	49.09
747.909	48.16
748.089	47.94
748.269	47.79
748.449	50
748.629	48.89
748.809	49.1
748.989	49.76
749.169	49.71
749.349	50.97
749.529	51.96
749.709	52.23
749.889	52.23
750.068	53.34
750.248	54.1
750.428	53.38
750.608	53.49
750.788	54.27
750.967	54.3
751.147	53.69
751.327	53.09
751.507	51.73
751.686	51.85
751.866	50.9
752.046	49.45
752.225	49.45
752.405	50.2
752.585	51.86
752.764	51.76
752.944	51.03
753.123	52.76
753.303	52.97
753.482	53.48
753.662	52.71
753.841	53.06
754.021	53.5
754.2	52.32
754.38	52.84
754.559	51.27
754.739	50.49
754.918	51.91
755.097	50.86
755.277	51.05
755.456	50.2
755.635	50.45
755.815	51.84
755.994	51.36
756.173	52.3
756.352	51.44
756.532	51.09
756.711	51.5
756.89	49.93
757.069	49.8
757.248	48.96
757.427	48.99
757.607	50.35
757.786	51.06
757.965	50.64
758.144	49.72
758.323	49.18
758.502	50.07
758.681	48.73
758.86	48.94
759.039	49.73
759.218	49.8
759.397	50.59
759.576	49.51
759.755	48.33
759.934	49.29
760.113	50.14
760.291	50.35
760.47	50.19
760.649	50.84
760.828	50.8
761.007	50.38
761.186	50.45
761.364	49.49
761.543	50.32
761.722	50.44
761.901	49.3
762.079	48.83
762.258	48.22
762.437	47.77
762.615	48.12
762.794	48.94
762.972	48.91
763.151	48.78
763.33	48.99
763.508	47.74
763.687	47.03
763.865	47.48
764.044	47.74
764.222	47.38
764.401	47.45
764.579	47.11
764.758	46.92
764.936	46.98
765.114	47.35
765.293	47.09
765.471	47.79
765.65	47.69
765.828	47.79
766.006	47.98
766.184	50.2
766.363	51
766.541	51.01
766.719	50.75
766.898	50.79
767.076	50.6
767.254	51.46
767.432	51.49
767.61	51.33
767.788	53.06
767.967	52.44
768.145	50.84
768.323	49.81
768.501	50.29
768.679	51.08
768.857	50.27
769.035	51.92
769.213	51.55
769.391	51.83
769.569	52.92
769.747	53.24
769.925	53.57
770.103	54.16
770.281	53.54
770.459	53.31
770.636	52.93
770.814	54.09
770.992	53.5
771.17	53.19
771.348	54.33
771.525	54.41
771.703	53.69
771.881	53.63
772.059	53.46
772.236	54.51
772.414	55.53
772.592	55.88
772.769	55.65
772.947	55.13
773.125	57.3
773.302	57.28
773.48	57.93
773.657	57.17
773.835	57.88
774.013	58.79
774.19	60.27
774.368	60.02
774.545	60.51
774.723	61.73
774.9	61.04
775.077	59.76
775.255	58.33
775.432	58.61
775.61	58.02
775.787	58.08
775.964	56.75
776.142	56.89
776.319	56.76
776.496	56.24
776.674	54.26
776.851	54.19
777.028	54.45
777.205	55.18
777.382	55.36
777.56	56.41
777.737	58.99
777.914	59.11
778.091	57.26
778.268	57.92
778.445	57.66
778.622	58.87
778.8	60.87
778.977	60.55
779.154	67.48
779.331	66.56
779.508	65.07
779.685	62.68
779.862	64.02
780.038	64.89
780.215	65.05
780.392	66.12
780.569	67.55
780.746	65.68
780.923	66.13
781.1	59.51
781.277	60.36
781.453	61.11
781.63	60.71
781.807	62.66
781.984	62.65
782.16	61.76
782.337	60.16
782.514	58.44
782.691	60.75
782.867	61.57
783.044	60.45
783.221	59.15
783.397	59.09
783.574	58.65
783.75	55.73
783.927	56.56
784.103	58.55
784.28	58.11
784.456	58.78
784.633	57.68
784.809	56.55
784.986	55.55
785.162	54.92
785.339	53.8
785.515	54.15
785.692	53.16
785.868	52.95
786.044	52.48
786.221	53.11
786.397	52.26
786.573	51.21
786.749	50.8
786.926	53.46
787.102	55.3
787.278	55.23
787.454	55.64
787.631	54.85
787.807	52.55
787.983	51.34
788.159	52.49
788.335	52.53
788.511	53.7
788.687	55.63
788.863	54.59
789.039	54.08
789.216	54.81
789.392	53.31
789.568	54.86
789.744	56.86
789.919	56.78
790.095	56.3
790.271	58.22
790.447	57.68
790.623	57.22
790.799	56.86
790.975	56.8
791.151	59.66
791.327	60.16
791.502	59.36
791.678	58.9
791.854	59.59
792.03	59.19
792.205	58.42
792.381	58.6
792.557	59.67
792.733	60.6
792.908	60.78
793.084	59.15
793.259	60.03
793.435	64.05
793.611	64
793.786	65.48
793.962	66.4
794.137	64.88
794.313	66.11
794.488	64.59
794.664	64.88
794.839	65.55
795.015	64.46
795.19	61.65
795.366	59.66
795.541	59.63
795.716	59.41
795.892	60.97
796.067	61.69
796.242	61.21
796.418	59.93
796.593	59.43
796.768	58.83
796.944	58.92
797.119	62.52
797.294	63.32
797.469	62.12
797.644	61.02
797.82	57.95
797.995	58.37
798.17	58.09
798.345	59.66
798.52	59.48
798.695	58.53
798.87	58.36
799.045	58.41
799.22	57.65
799.395	60.22
799.57	62.6
799.745	63.62
799.92	61.97
800.095	63.02
800.27	60.76
800.445	61.33
800.62	61.8
800.795	61.71
800.97	63.17
801.145	63.4
801.319	62.21
801.494	57.3
801.669	57.89
801.844	60.9
802.018	58.77
802.193	60.19
802.368	60.73
802.543	62.96
802.717	64.92
802.892	61.77
803.067	62.21
803.241	61.99
803.416	62.25
803.59	60.59
803.765	58.19
803.94	58.72
804.114	57.68
804.289	58.53
804.463	55.82
804.638	53.74
804.812	53.63
804.986	53.1
805.161	53.14
805.335	53.36
805.51	53.92
805.684	53.79
805.858	54.99
806.033	56.15
806.207	56.03
806.381	58.8
806.556	59.65
806.73	60.82
806.904	60.22
807.078	60.97
807.253	62.09
807.427	61.83
807.601	63.67
807.775	62.38
807.949	60.22
808.123	59.65
808.298	57.9
808.472	59.54
808.646	61.07
808.82	61.43
808.994	60.98
809.168	63.28
809.342	63.27
809.516	63.5
809.69	64.27
809.864	68.98
810.038	70.03
810.212	70.99
810.385	69.37
810.559	70.2
810.733	71.1
810.907	72.44
811.081	71.21
811.255	71.68
811.428	71.77
811.602	69.6
811.776	69.54
811.95	68.42
812.123	68.05
812.297	68.01
812.471	64.87
812.644	65.12
812.818	65.84
812.992	65.38
813.165	65.84
813.339	66.87
813.512	68.71
813.686	65.97
813.86	65.1
814.033	64.8
814.207	67.02
814.38	69.85
814.554	70.25
814.727	68
814.9	69.33
815.074	69.43
815.247	68.5
815.421	64.26
815.594	65.56
815.767	66.68
815.941	66.19
816.114	67.56
816.287	66.62
816.46	64.47
816.634	63.96
816.807	63.67
816.98	65.29
817.153	65.17
817.327	68.55
817.5	69.41
817.673	68.23
817.846	70.72
818.019	66.17
818.192	66.29
818.365	71.73
818.538	73.16
818.711	72.22
818.884	72.13
819.057	71.12
819.23	71.01
819.403	69.48
819.576	70.26
819.749	67.89
819.922	68.35
820.095	65.93
820.268	61.95
820.441	59.71
820.614	60.67
820.786	59.83
820.959	57.55
821.132	55.3
821.305	54.23
821.477	52.23
821.65	52.1
821.823	50.8
821.996	50.38
822.168	49.97
822.341	49.8
822.514	48.18
822.686	47.2
822.859	47.61
823.031	47.92
823.204	47.76
823.376	47.77
823.549	47.57
823.722	47.67
823.894	47.94
824.067	47.79
824.239	47.54
824.411	47.88
824.584	48.43
824.756	48.48
824.929	48.39
825.101	48.04
825.273	48.31
825.446	47.54
825.618	48.15
825.79	47.46
825.963	47.83
826.135	47.89
826.307	48.61
826.479	47.78
826.652	47.51
826.824	47.43
826.996	47.6
827.168	47.31
827.34	48.38
827.512	46.95
827.684	47.51
827.856	47.03
828.029	47.89
828.201	46.94
828.373	46.59
828.545	47.08
828.717	48.54
828.889	49.1
829.061	49.06
829.232	49.11
829.404	51.38
829.576	51.47
829.748	52.5
829.92	52.15
830.092	53.19
830.264	55.17
830.436	55.24
830.607	55.33
830.779	55.12
830.951	57.59
831.123	57.75
831.294	56.56
831.466	58.21
831.638	58.13
831.809	58.99
831.981	60.35
832.153	61.32
832.324	60.35
832.496	57.52
832.667	60.31
832.839	61.93
833.011	64.36
833.182	64.79
833.354	65.14
833.525	65.85
833.697	63.13
833.868	59.96
834.039	59.72
834.211	59.5
834.382	60.26
834.554	59.74
834.725	56.73
834.896	53.78
835.068	52.81
835.239	51.59
835.41	50.38
835.581	52.74
835.753	53.05
835.924	51.44
836.095	51.26
836.266	52.12
836.438	50.57
836.609	50.24
836.78	49.24
836.951	52.56
837.122	52.95
837.293	54.72
837.464	56.23
837.635	57.86
837.806	57.68
837.977	57.45
838.148	58.64
838.319	60.49
838.49	61.92
838.661	64.28
838.832	60.64
839.003	62.36
839.174	65.33
839.345	65.07
839.516	67.92
839.687	75.57
839.857	81.44
840.028	81.36
840.199	81.66
840.37	82.42
840.54	82.75
840.711	82.15
840.882	80.7
841.053	74.3
841.223	68.98
841.394	66.16
841.564	62.26
841.735	60.79
841.906	59.96
842.076	62.71
842.247	66.92
842.417	70.14
842.588	71.98
842.758	73.81
842.929	78.99
843.099	83.6
843.27	84.91
843.44	86.59
843.611	85.3
843.781	81.96
843.951	76.78
844.122	71.38
844.292	69.97
844.462	72.68
844.633	72.75
844.803	76.28
844.973	72.9
845.144	75.58
845.314	73.9
845.484	73.64
845.654	75.81
845.824	85.03
845.995	89.21
846.165	92.62
846.335	96.98
846.505	108.13
846.675	101.58
846.845	106.4
847.015	100.26
847.185	106.97
847.355	110.18
847.525	112.29
847.695	111.88
847.865	106.18
848.035	102.2
848.205	94.98
848.375	85.48
848.545	86.95
848.715	91.22
848.884	92.31
849.054	89.89
849.224	93.14
849.394	98.34
849.564	102.2
849.733	104.46
849.903	101.66
850.073	100.22
850.243	94.42
850.412	93.39
850.582	87.45
850.752	92.63
850.921	92.72
851.091	95.19
851.26	94.25
851.43	90.27
851.599	92.78
851.769	92.57
851.939	95.11
852.108	101.17
852.278	106.39
852.447	108.32
852.616	110.81
852.786	103.93
852.955	103.82
853.125	99.37
853.294	97.35
853.463	89.5
853.633	88.8
853.802	86.58
853.971	85.59
854.141	89.58
854.31	87.58
854.479	88.18
854.648	92.39
854.818	89.41
854.987	91.2
855.156	95.66
855.325	106.97
855.494	112.93
855.663	117.98
855.832	123.37
856.001	124.2
856.171	129.44
856.34	126.93
856.509	138.5
856.678	145.28
856.847	148.47
857.016	130.19
857.185	124.69
857.353	133.09
857.522	128.49
857.691	117.02
857.86	113.4
858.029	118.61
858.198	127.13
858.367	117.29
858.535	116.25
858.704	112.55
858.873	132.62
859.042	124.4
859.21	132.05
859.379	132.99
859.548	145.7
859.717	146.91
859.885	149.68
860.054	128.64
860.222	129.17
860.391	121.15
860.56	123.64
860.728	121.63
860.897	120.98
861.065	103.26
861.234	106.43
861.402	107.89
861.571	108.47
861.739	111.07
861.908	128.51
862.076	136.89
862.244	154.89
862.413	153.26
862.581	145.55
862.749	162.74
862.918	180.12
863.086	169.46
863.254	155.01
863.423	149.07
863.591	129.97
863.759	119.45
863.927	113.1
864.096	107.01
864.264	109.69
864.432	108.39
864.6	103.79
864.768	103.47
864.936	102.86
865.104	113.21
865.272	113.43
865.44	122.06
865.608	116.17
865.776	123.11
865.944	116.89
866.112	123.17
866.28	129.99
866.448	130.88
866.616	129.44
866.784	135.27
866.952	127.29
867.12	131.56
867.288	124.02
867.455	133.19
867.623	132.83
867.791	153.69
867.959	144.62
868.127	147.77
868.294	153.85
868.462	139.92
868.63	122.34
868.797	111.41
868.965	100.62
869.133	106.69
869.3	126.54
869.468	121.71
869.636	120.46
869.803	118.16
869.971	107
870.138	109.03
870.306	114.3
870.473	118.32
870.641	127.69
870.808	131.13
870.975	126.02
871.143	108.4
871.31	103.28
871.478	89.03
871.645	90.11
871.812	93.71
871.98	99.87
872.147	98.58
872.314	98.49
872.482	87.32
872.649	86.45
872.816	90.75
872.983	96.35
873.15	109.06
873.318	120.67
873.485	129.19
873.652	133.85
873.819	139.27
873.986	131.79
874.153	132.2
874.32	129.35
874.487	129.76
874.654	125.69
874.821	124.38
874.988	109.43
875.155	104.45
875.322	103.05
875.489	103.96
875.656	102.1
875.823	115.14
875.99	108.24
876.157	121.6
876.324	127.23
876.49	127.07
876.657	126.22
876.824	120.93
876.991	118.58
877.157	117.72
877.324	108.93
877.491	101.08
877.658	94.51
877.824	89.89
877.991	89.83
878.157	84.51
878.324	87.94
878.491	91.25
878.657	97.04
878.824	88.75
878.99	82.62
879.157	90.8
879.323	90.28
879.49	87.98
879.656	96.66
879.823	102.85
879.989	104.86
880.156	101.63
880.322	97.93
880.488	97.68
880.655	103.48
880.821	104.81
880.987	98.46
881.154	94.72
881.32	100.71
881.486	93.14
881.652	83.13
881.819	79.63
881.985	76.86
882.151	72.25
882.317	68.16
882.483	66.4
882.649	62.38
882.816	59.33
882.982	57.41
883.148	53.4
883.314	53.96
883.48	54.35
883.646	53.54
883.812	52.31
883.978	53.04
884.144	53.43
884.31	53.08
884.476	53.03
884.642	53.18
884.807	55.72
884.973	56.21
885.139	55.9
885.305	55.72
885.471	55.35
885.637	54.61
885.802	53.17
885.968	56.16
886.134	57.78
886.3	60.27
886.465	62.39
886.631	62.35
886.797	67.12
886.962	68.92
887.128	69.99
887.293	71.51
887.459	75.42
887.625	81.08
887.79	78.93
887.956	84.17
888.121	83.7
888.287	83.47
888.452	80.18
888.618	75.17
888.783	71.15
