Data from LC_268_Reflection_5.txt Node
Date: Sat Nov 21 12:02:04 EST 2015
User: robert
Spectrometer: USB4E03001
Autoset integration time: false
Trigger mode: 4
Integration Time (sec): 1.000000E-1
Scans to average: 15
Electric dark correction enabled: true
Nonlinearity correction enabled: false
Boxcar width: 5
Stray light correction enabled: false
XAxis mode: Wavelengths
Stop averaging: false
Number of Pixels in Spectrum: 3648
>>>>>Begin Spectral Data<<<<<
177.566	215.17
177.785	264.78
178.005	468.29
178.225	-9.94
178.445	-79.55
178.665	-455.88
178.885	-686.08
179.105	-110.61
179.324	-4.25
179.544	33.5
179.764	327.36
179.984	66.18
180.204	76.64
180.423	82.91
180.643	148.36
180.863	233.36
181.083	256.52
181.302	281.6
181.522	245.9
181.742	276.29
181.961	216.4
182.181	182.76
182.401	330.57
182.621	257.96
182.84	310.82
183.06	193.38
183.279	144.78
183.499	141.45
183.719	120.86
183.938	135.17
184.158	148.09
184.377	147.22
184.597	157.39
184.816	149.5
185.036	140.14
185.256	130.16
185.475	122.69
185.695	114.19
185.914	113.69
186.134	135.22
186.353	133.86
186.572	129.24
186.792	122.12
187.011	121.41
187.231	127.11
187.45	146.37
187.67	191.56
187.889	220.75
188.108	281.23
188.328	367.89
188.547	388.49
188.766	366.38
188.986	410.84
189.205	747.2
189.424	1328.3
189.644	846.94
189.863	-478.17
190.082	-603.84
190.302	1164.31
190.521	205.94
190.74	161.37
190.959	154.03
191.178	203.59
191.398	119.43
191.617	141.03
191.836	160.23
192.055	163.76
192.274	116.85
192.494	117.77
192.713	104.05
192.932	120.52
193.151	107.45
193.37	95.53
193.589	87.8
193.808	115.72
194.027	119.55
194.246	99.39
194.465	102.28
194.685	100.37
194.904	90.35
195.123	94.53
195.342	123.96
195.561	142.5
195.78	129.24
195.999	158.27
196.218	155.82
196.436	186.4
196.655	224.3
196.874	183.65
197.093	225.42
197.312	246.58
197.531	254.47
197.75	191.11
197.969	170.94
198.188	205.82
198.407	226.67
198.625	207.91
198.844	188.49
199.063	168.38
199.282	186.55
199.501	200.94
199.719	212.1
199.938	193.11
200.157	184.95
200.376	203.41
200.594	183.95
200.813	134.62
201.032	133.5
201.251	109.42
201.469	132.11
201.688	173.62
201.907	157.62
202.125	118.55
202.344	138.5
202.563	156.56
202.781	122.38
203	122.53
203.218	117.63
203.437	187.82
203.656	440.62
203.874	448.74
204.093	181.85
204.311	148.53
204.53	262.65
204.748	217.73
204.967	212.43
205.185	199.95
205.404	204.88
205.622	403.98
205.841	249.61
206.059	156.64
206.278	153.3
206.496	198.79
206.715	372.06
206.933	256.37
207.151	235.46
207.37	190.58
207.588	255.32
207.806	281.06
208.025	194.75
208.243	209.37
208.461	219.42
208.68	202.54
208.898	236.57
209.116	175.27
209.335	178.86
209.553	188.75
209.771	248.16
209.989	218.87
210.208	246.35
210.426	253.62
210.644	259.59
210.862	314.64
211.081	251.47
211.299	161.18
211.517	163.68
211.735	126.2
211.953	134.5
212.171	96.91
212.39	102.02
212.608	74.53
212.826	101.1
213.044	85.87
213.262	92.29
213.48	89.08
213.698	92.36
213.916	113.15
214.134	115.68
214.352	123.21
214.57	123.91
214.788	119.83
215.006	135.95
215.224	123.6
215.442	125.88
215.66	147.09
215.878	163.44
216.096	176.89
216.314	174.8
216.532	171.63
216.75	162.4
216.968	171.75
217.185	151.12
217.403	160.25
217.621	172.28
217.839	176.12
218.057	181.33
218.275	172.08
218.492	142.69
218.71	138.76
218.928	164.74
219.146	166.51
219.363	176.51
219.581	344.89
219.799	277.7
220.017	215.14
220.234	238.66
220.452	205.77
220.67	179.96
220.887	229.22
221.105	212.92
221.323	224.2
221.54	215.5
221.758	178.4
221.976	146.54
222.193	146.92
222.411	140.15
222.629	118.2
222.846	114.51
223.064	110.76
223.281	94.93
223.499	85.95
223.716	94.43
223.934	96.04
224.151	111.18
224.369	101.58
224.586	99.33
224.804	90.55
225.021	101.46
225.239	97.31
225.456	93.73
225.674	88.23
225.891	83.95
226.108	76.56
226.326	76.51
226.543	61.27
226.76	64.03
226.978	57.46
227.195	52.31
227.413	49.68
227.63	46.56
227.847	45.42
228.064	43.43
228.282	41.01
228.499	38.72
228.716	36.03
228.934	35.44
229.151	32.54
229.368	31.14
229.585	31.08
229.802	29.32
230.02	29.58
230.237	29.46
230.454	30.51
230.671	29.31
230.888	29.37
231.105	27.55
231.323	30.43
231.54	34.11
231.757	37.16
231.974	41.09
232.191	43.31
232.408	44.46
232.625	42.85
232.842	42.41
233.059	43.61
233.276	47.72
233.493	49.38
233.71	48.44
233.927	44.64
234.144	42.53
234.361	40.57
234.578	40.76
234.795	40.37
235.012	43.77
235.229	44.16
235.446	44.07
235.663	37.39
235.879	34.92
236.096	30.94
236.313	34.63
236.53	35.73
236.747	35.85
236.964	30.59
237.181	35.75
237.397	30.45
237.614	27.11
237.831	29.05
238.048	31.56
238.264	33.09
238.481	33.61
238.698	33.8
238.915	35.03
239.131	29.32
239.348	33.95
239.565	30.5
239.781	30.52
239.998	30.71
240.215	27.16
240.431	24.53
240.648	24.63
240.865	24.88
241.081	22.32
241.298	19.5
241.514	22.4
241.731	21.88
241.947	22.35
242.164	23.81
242.38	22.1
242.597	23.46
242.814	22.73
243.03	22.11
243.246	21.78
243.463	22.38
243.679	24.1
243.896	23.27
244.112	25.19
244.329	24.9
244.545	22.96
244.762	24.81
244.978	24.2
245.194	25.07
245.411	25.11
245.627	22.3
245.843	20.64
246.06	18.8
246.276	17.66
246.492	14.99
246.709	13.23
246.925	13.85
247.141	13.88
247.357	12.5
247.574	12.35
247.79	12.39
248.006	13.11
248.222	12.6
248.439	12.63
248.655	13.73
248.871	14.98
249.087	16.2
249.303	16.69
249.519	18.08
249.736	20.39
249.952	21.96
250.168	24.1
250.384	26.34
250.6	29.1
250.816	29.83
251.032	29.48
251.248	28.08
251.464	27.1
251.68	25.5
251.896	23.1
252.112	23.3
252.328	22.15
252.544	22.22
252.76	20.31
252.976	19.18
253.192	18.36
253.408	18.8
253.624	18.48
253.84	18.85
254.056	19.69
254.272	19.36
254.487	18.3
254.703	16.58
254.919	16.43
255.135	17.16
255.351	17.79
255.567	18.08
255.782	16.92
255.998	18.56
256.214	19.29
256.43	19.88
256.646	19.85
256.861	18.8
257.077	21.12
257.293	19.93
257.508	19.09
257.724	19.86
257.94	20.02
258.155	17.91
258.371	17.31
258.587	16.28
258.802	15.32
259.018	13.78
259.234	13.66
259.449	12.71
259.665	12.12
259.88	12.91
260.096	12.65
260.312	13.47
260.527	13.82
260.743	13.5
260.958	13.67
261.174	13.23
261.389	14.77
261.605	15.48
261.82	16.84
262.036	18.09
262.251	17.68
262.466	18.17
262.682	16.69
262.897	16
263.113	16.71
263.328	17.44
263.543	18.65
263.759	18.8
263.974	18.65
264.189	19.11
264.405	20.03
264.62	20.65
264.835	19.25
265.051	20.15
265.266	22.85
265.481	22.45
265.696	21.98
265.912	21.72
266.127	19.12
266.342	17.87
266.557	18.19
266.773	15.15
266.988	14.41
267.203	13.47
267.418	12.82
267.633	11.9
267.848	11.89
268.064	11.07
268.279	12.16
268.494	13.32
268.709	14.94
268.924	13.61
269.139	14.42
269.354	14.94
269.569	16.33
269.784	16.92
269.999	16.17
270.214	16.97
270.429	16.97
270.644	14.68
270.859	13.59
271.074	12.71
271.289	11.73
271.504	12.44
271.719	11.54
271.934	12.58
272.149	12.79
272.363	12.76
272.578	11.61
272.793	11.6
273.008	13.01
273.223	14.19
273.438	13.88
273.653	15.98
273.867	15.93
274.082	16.9
274.297	14.98
274.512	15.16
274.726	16.41
274.941	16.92
275.156	18.49
275.371	18.01
275.585	17.65
275.8	17.03
276.015	15.51
276.229	14.49
276.444	14.98
276.659	16.28
276.873	16.52
277.088	16.92
277.302	17.1
277.517	15.88
277.732	14.86
277.946	13.34
278.161	15.15
278.375	15.1
278.59	15.99
278.804	15.19
279.019	14.62
279.233	12.51
279.448	11.48
279.662	12.55
279.877	11.97
280.091	13.42
280.306	14.44
280.52	13.79
280.735	13.28
280.949	12.54
281.163	12.06
281.378	11.91
281.592	12.72
281.806	11.95
282.021	10.92
282.235	11.73
282.449	11.67
282.664	10.82
282.878	10.61
283.092	11.41
283.307	11.81
283.521	12.14
283.735	11.8
283.949	12.17
284.164	11.65
284.378	11.45
284.592	10.04
284.806	10.42
285.02	10.87
285.234	11.63
285.449	10.69
285.663	10.76
285.877	10.66
286.091	12.11
286.305	11.59
286.519	12.65
286.733	12.79
286.947	13.75
287.161	13.72
287.375	15.1
287.589	14.58
287.803	15.39
288.017	15.68
288.231	16.44
288.445	15.68
288.659	16.41
288.873	15.91
289.087	17.3
289.301	17.5
289.515	17.61
289.729	16.22
289.943	16.18
290.157	15.98
290.371	15.42
290.584	15.49
290.798	15.1
291.012	15.4
291.226	15.31
291.44	13.98
291.654	14.38
291.867	14.28
292.081	15.08
292.295	15.37
292.509	15.73
292.722	16.13
292.936	16.58
293.15	16.93
293.364	16.64
293.577	16.7
293.791	16.55
294.005	15.69
294.218	14.88
294.432	14.84
294.645	15.63
294.859	15.08
295.073	14.33
295.286	13.12
295.5	13.49
295.713	12.52
295.927	12.95
296.14	13.36
296.354	13.53
296.568	14.17
296.781	13.97
296.994	13.43
297.208	13.88
297.421	14.27
297.635	14.31
297.848	13.7
298.062	14.15
298.275	14.35
298.489	14.39
298.702	14.45
298.915	13.51
299.129	13.35
299.342	12.64
299.555	12.96
299.769	12.95
299.982	13.52
300.195	13.93
300.409	14.12
300.622	14.01
300.835	13.93
301.048	13.89
301.262	14.54
301.475	15.43
301.688	15.59
301.901	15.06
302.115	14.65
302.328	14.28
302.541	13.93
302.754	14.13
302.967	14.76
303.18	14.76
303.393	15.81
303.607	15.53
303.82	14.39
304.033	15.06
304.246	16.26
304.459	18.32
304.672	19.14
304.885	20.16
305.098	20.5
305.311	19.74
305.524	18.62
305.737	18.08
305.95	17.75
306.163	17.66
306.376	17.26
306.589	16.09
306.802	14.27
307.015	12.61
307.228	12.17
307.44	10.71
307.653	12.12
307.866	14.11
308.079	13.05
308.292	13.11
308.505	14.15
308.718	13.66
308.93	13.83
309.143	12.74
309.356	13.66
309.569	12.81
309.781	13.68
309.994	11.77
310.207	10.51
310.42	10.18
310.632	9.65
310.845	9.41
311.058	10.55
311.27	11.05
311.483	12.42
311.696	12.03
311.908	12.91
312.121	12.43
312.333	13.67
312.546	14.58
312.759	15.2
312.971	16.77
313.184	17.38
313.396	16.51
313.609	15.97
313.821	15.52
314.034	16.21
314.246	15.99
314.459	16.27
314.671	15.51
314.884	15.33
315.096	15.34
315.309	14.52
315.521	14.21
315.733	14.76
315.946	15.56
316.158	15.15
316.371	15.34
316.583	15.77
316.795	16.06
317.008	16.52
317.22	16.05
317.432	17.36
317.644	18.6
317.857	18.64
318.069	17.91
318.281	17.49
318.494	18.19
318.706	17.06
318.918	16.51
319.13	15.83
319.342	15.45
319.555	15.84
319.767	15.08
319.979	14.73
320.191	15.21
320.403	16.95
320.615	16.37
320.827	17.17
321.039	17
321.252	16.84
321.464	16.89
321.676	15.95
321.888	16.29
322.1	15.45
322.312	14.46
322.524	13.8
322.736	12.53
322.948	13.14
323.16	12.62
323.372	13.83
323.584	13.98
323.796	15.31
324.007	15.61
324.219	14.94
324.431	14.47
324.643	15.37
324.855	14.75
325.067	15.32
325.279	14.92
325.491	14.44
325.702	14.27
325.914	14.58
326.126	13.9
326.338	13.79
326.55	14.34
326.761	14.91
326.973	14.24
327.185	15.27
327.396	14.67
327.608	14.55
327.82	14.82
328.032	14.49
328.243	13.89
328.455	12.99
328.666	13.98
328.878	14.7
329.09	14.92
329.301	15.78
329.513	14.59
329.725	14.28
329.936	14.2
330.148	13.6
330.359	13.78
330.571	14.69
330.782	16
330.994	15.05
331.205	14.44
331.417	15
331.628	15.4
331.84	15.87
332.051	16.3
332.262	16.8
332.474	17.81
332.685	17.61
332.897	16.53
333.108	16.08
333.319	17.5
333.531	17.62
333.742	17.17
333.953	16.61
334.165	16.6
334.376	15.93
334.587	16.29
334.799	15.94
335.01	16.21
335.221	17.21
335.432	17.31
335.644	15.88
335.855	16.16
336.066	16.86
336.277	17.18
336.488	17.09
336.7	17.57
336.911	17.52
337.122	18.03
337.333	18.01
337.544	17.99
337.755	18.09
337.966	18.41
338.177	18.19
338.388	17.91
338.599	17.21
338.811	17.6
339.022	17.43
339.233	16.19
339.444	15.62
339.655	16
339.866	16.31
340.076	15.01
340.287	15.07
340.498	14.87
340.709	14.61
340.92	15.73
341.131	15.6
341.342	15.9
341.553	16.65
341.764	16.7
341.975	16.09
342.185	14.77
342.396	15.95
342.607	16.01
342.818	16.16
343.029	16.79
343.239	16.79
343.45	15.78
343.661	15.96
343.872	15.34
344.082	15.8
344.293	16.09
344.504	16.72
344.714	16.38
344.925	16.19
345.136	16.01
345.346	15.8
345.557	15.15
345.768	15.57
345.978	14.81
346.189	15.11
346.399	13.99
346.61	13.85
346.821	13.42
347.031	13.4
347.242	13.93
347.452	14.23
347.663	13.88
347.873	14.09
348.084	14.74
348.294	14.94
348.504	14.61
348.715	15.56
348.925	15.13
349.136	15.22
349.346	15.59
349.557	15.02
349.767	14.55
349.977	14.25
350.188	14.26
350.398	13.6
350.608	13.7
350.819	14.55
351.029	13.82
351.239	14.29
351.449	14.72
351.66	14.46
351.87	14.94
352.08	15.11
352.29	15.44
352.501	14.93
352.711	15.47
352.921	14.93
353.131	14.8
353.341	14.75
353.552	13.95
353.762	13.49
353.972	13.55
354.182	13.07
354.392	13.22
354.602	13.03
354.812	13.49
355.022	12.99
355.232	13.66
355.442	13.51
355.652	13.98
355.862	14.42
356.072	14.27
356.282	13.8
356.492	13.91
356.702	13.27
356.912	12.93
357.122	12.6
357.332	12.08
357.542	11.85
357.752	11.64
357.962	11.53
358.171	11.17
358.381	11.45
358.591	11.39
358.801	11.89
359.011	12.21
359.221	12.21
359.43	11.94
359.64	12.5
359.85	12.44
360.06	12.44
360.269	12.76
360.479	13.22
360.689	12.28
360.899	12.44
361.108	11.72
361.318	11.22
361.528	11.37
361.737	11.45
361.947	11.42
362.156	11.58
362.366	11.39
362.576	10.66
362.785	10.52
362.995	11.32
363.204	11.37
363.414	11.37
363.623	12.05
363.833	11.95
364.042	12.08
364.252	12.12
364.461	11.78
364.671	12.02
364.88	12.23
365.09	12.06
365.299	12
365.509	11.76
365.718	12.19
365.927	12.39
366.137	11.8
366.346	12.02
366.555	12.02
366.765	12.68
366.974	12.55
367.183	12.78
367.393	13.13
367.602	13.15
367.811	13.41
368.021	12.94
368.23	12.66
368.439	13.17
368.648	12.85
368.857	12.7
369.067	11.92
369.276	12.4
369.485	12.33
369.694	12.07
369.903	11.75
370.112	11.83
370.321	12.15
370.531	11.4
370.74	11.48
370.949	11.32
371.158	11.39
371.367	11.67
371.576	11.64
371.785	11.51
371.994	11.69
372.203	11.8
372.412	11.84
372.621	11.77
372.83	11.91
373.039	12.15
373.248	12.06
373.457	12.1
373.666	12.3
373.874	11.46
374.083	11.27
374.292	10.87
374.501	10.9
374.71	10.42
374.919	10.4
375.128	10.55
375.336	10.25
375.545	10.87
375.754	10.59
375.963	10.43
376.171	10.54
376.38	10.7
376.589	10.78
376.798	10.59
377.006	10.71
377.215	10.4
377.424	10.52
377.632	10.83
377.841	10.4
378.05	10.82
378.258	10.64
378.467	10.63
378.675	10.56
378.884	10.48
379.093	10.52
379.301	10.74
379.51	10.86
379.718	11.01
379.927	10.67
380.135	10.24
380.344	9.93
380.552	9.78
380.761	9.82
380.969	10
381.177	10.25
381.386	9.6
381.594	9.54
381.803	9.59
382.011	9.4
382.219	9.46
382.428	9.72
382.636	9.68
382.845	9.87
383.053	10.16
383.261	10.39
383.469	10.36
383.678	10.56
383.886	10.17
384.094	10.21
384.302	9.84
384.511	9.7
384.719	9.56
384.927	9.65
385.135	9.77
385.343	9.5
385.552	9.15
385.76	8.88
385.968	9.18
386.176	8.99
386.384	8.83
386.592	9.03
386.8	9.07
387.008	9.11
387.216	8.86
387.424	8.53
387.633	8.39
387.841	8.09
388.049	7.97
388.257	7.8
388.465	8.08
388.672	8.21
388.88	7.88
389.088	7.54
389.296	7.65
389.504	7.47
389.712	7.78
389.92	7.8
390.128	8.2
390.336	8.37
390.544	8.45
390.751	8.4
390.959	8.58
391.167	8.97
391.375	9.07
391.583	8.85
391.79	8.81
391.998	8.78
392.206	8.88
392.414	8.43
392.621	8.37
392.829	8.15
393.037	7.97
393.244	7.72
393.452	7.41
393.66	7.6
393.867	7.78
394.075	8.29
394.283	7.95
394.49	8.05
394.698	8.47
394.905	8.45
395.113	8.44
395.32	8.79
395.528	8.99
395.735	9.04
395.943	8.98
396.15	8.98
396.358	8.37
396.565	8.59
396.773	8.47
396.98	8.37
397.188	8.37
397.395	8.52
397.602	8.34
397.81	8.1
398.017	8.05
398.225	8.15
398.432	8.22
398.639	8.51
398.847	8.31
399.054	8.3
399.261	8.49
399.468	8.57
399.676	8.85
399.883	9.18
400.09	9.12
400.297	9.35
400.505	9.14
400.712	8.99
400.919	8.76
401.126	9.04
401.333	9.12
401.54	9
401.748	8.83
401.955	8.57
402.162	8.28
402.369	8.33
402.576	8.17
402.783	8.27
402.99	7.97
403.197	8.33
403.404	7.94
403.611	7.91
403.818	7.78
404.025	7.65
404.232	7.79
404.439	7.74
404.646	7.66
404.853	7.73
405.06	7.65
405.267	7.95
405.474	7.62
405.681	7.85
405.887	7.69
406.094	7.79
406.301	7.78
406.508	7.66
406.715	7.4
406.922	7.47
407.128	7.71
407.335	7.77
407.542	7.83
407.749	7.98
407.955	7.92
408.162	8.01
408.369	7.94
408.575	8.33
408.782	8.26
408.989	8.42
409.195	8.44
409.402	8.05
409.609	7.83
409.815	7.31
410.022	7.59
410.228	7.53
410.435	7.39
410.642	7.46
410.848	7.27
411.055	7.36
411.261	7.36
411.468	7.23
411.674	7.17
411.881	7.45
412.087	7.71
412.294	7.47
412.5	7.4
412.706	7.43
412.913	7.24
413.119	7.59
413.326	7.5
413.532	7.46
413.738	7.73
413.945	7.99
414.151	7.86
414.357	7.85
414.564	8.14
414.77	8.5
414.976	8.59
415.182	8.54
415.389	8.23
415.595	8.42
415.801	8.4
416.007	8.1
416.214	8.01
416.42	7.92
416.626	8.11
416.832	7.86
417.038	7.83
417.244	7.93
417.45	8
417.657	7.97
417.863	7.86
418.069	8.17
418.275	8.31
418.481	8.28
418.687	8.16
418.893	7.98
419.099	7.91
419.305	7.8
419.511	7.73
419.717	7.65
419.923	7.58
420.129	7.58
420.335	7.43
420.541	7.34
420.746	7.21
420.952	7.42
421.158	7.4
421.364	7.46
421.57	7.44
421.776	7.44
421.982	7.5
422.187	7.46
422.393	7.46
422.599	7.3
422.805	7.4
423.01	7.55
423.216	7.49
423.422	7.61
423.628	7.62
423.833	7.65
424.039	7.66
424.245	7.58
424.45	7.75
424.656	7.7
424.862	7.84
425.067	7.75
425.273	7.71
425.478	7.71
425.684	7.71
425.889	7.73
426.095	7.72
426.301	7.79
426.506	7.81
426.712	7.65
426.917	7.75
427.123	7.74
427.328	7.96
427.533	8.15
427.739	8.12
427.944	8.06
428.15	7.97
428.355	8.08
428.561	8.09
428.766	8.16
428.971	8.29
429.177	8.35
429.382	8.77
429.587	8.4
429.793	8.37
429.998	8.58
430.203	8.61
430.408	8.75
430.614	8.66
430.819	8.56
431.024	8.71
431.229	8.82
431.434	8.85
431.64	8.46
431.845	8.58
432.05	8.49
432.255	8.41
432.46	8.44
432.665	8.37
432.87	8.39
433.076	8.35
433.281	8.25
433.486	8.12
433.691	8.19
433.896	8.12
434.101	8.18
434.306	8.12
434.511	7.95
434.716	7.81
434.921	7.64
435.126	7.7
435.331	7.83
435.535	7.82
435.74	7.72
435.945	7.52
436.15	7.54
436.355	7.71
436.56	7.71
436.765	7.97
436.97	8.03
437.174	8.15
437.379	8.27
437.584	8.32
437.789	8.43
437.993	8.63
438.198	8.73
438.403	8.7
438.608	8.62
438.812	8.59
439.017	8.46
439.222	8.62
439.426	8.7
439.631	8.72
439.836	8.57
440.04	8.56
440.245	8.46
440.45	8.3
440.654	8.3
440.859	8.07
441.063	8.06
441.268	8.02
441.472	7.84
441.677	7.76
441.881	7.64
442.086	7.57
442.29	7.5
442.495	7.54
442.699	7.75
442.904	7.71
443.108	7.75
443.312	7.76
443.517	7.92
443.721	8.12
443.925	8.03
444.13	7.92
444.334	7.98
444.538	7.96
444.743	7.89
444.947	7.69
445.151	7.69
445.356	7.83
445.56	7.99
445.764	7.81
445.968	7.67
446.173	7.7
446.377	7.74
446.581	7.84
446.785	7.75
446.989	7.77
447.193	7.82
447.398	7.88
447.602	7.81
447.806	7.57
448.01	7.56
448.214	7.58
448.418	7.59
448.622	7.63
448.826	7.45
449.03	7.61
449.234	7.65
449.438	7.52
449.642	7.41
449.846	7.42
450.05	7.55
450.254	7.61
450.458	7.43
450.662	7.66
450.866	7.53
451.069	7.55
451.273	7.37
451.477	7.31
451.681	7.29
451.885	7.41
452.089	7.46
452.292	7.58
452.496	7.63
452.7	7.88
452.904	7.63
453.107	7.62
453.311	7.73
453.515	7.74
453.719	7.85
453.922	8.02
454.126	7.85
454.33	7.89
454.533	7.84
454.737	7.67
454.94	7.54
455.144	7.76
455.348	7.75
455.551	7.85
455.755	7.96
455.958	8
456.162	8.07
456.365	8.21
456.569	8.23
456.772	8.07
456.976	8.13
457.179	8.13
457.383	7.9
457.586	7.83
457.79	7.72
457.993	7.77
458.196	7.6
458.4	7.57
458.603	7.53
458.807	7.48
459.01	7.55
459.213	7.66
459.417	7.7
459.62	7.72
459.823	7.66
460.026	7.68
460.23	7.66
460.433	7.58
460.636	7.55
460.839	7.67
461.042	7.72
461.246	7.63
461.449	7.66
461.652	7.55
461.855	7.57
462.058	7.81
462.261	7.77
462.464	7.71
462.668	7.85
462.871	7.97
463.074	7.71
463.277	7.69
463.48	7.87
463.683	7.7
463.886	7.82
464.089	7.95
464.292	7.85
464.495	7.82
464.698	7.84
464.901	7.91
465.104	7.94
465.306	8.11
465.509	8.11
465.712	8.06
465.915	8.15
466.118	8.2
466.321	8.15
466.524	8.08
466.726	8.2
466.929	8.29
467.132	8.21
467.335	8.12
467.538	8.19
467.74	8.08
467.943	8.05
468.146	8.02
468.348	7.95
468.551	7.98
468.754	8.06
468.956	8.1
469.159	7.99
469.362	8.01
469.564	7.86
469.767	7.79
469.969	7.91
470.172	7.99
470.375	8.03
470.577	8.24
470.78	8.09
470.982	8.11
471.185	7.86
471.387	7.96
471.59	8.04
471.792	8.23
471.995	8.18
472.197	8.15
472.399	7.98
472.602	7.94
472.804	7.72
473.007	7.74
473.209	7.77
473.411	7.94
473.614	8.04
473.816	7.86
474.018	7.72
474.22	7.86
474.423	7.8
474.625	7.79
474.827	7.89
475.03	8.05
475.232	8.26
475.434	8.31
475.636	8.32
475.838	8.23
476.04	8.24
476.243	8.31
476.445	8.22
476.647	8.38
476.849	8.39
477.051	8.23
477.253	8.21
477.455	8.07
477.657	7.78
477.859	7.83
478.061	7.76
478.263	7.84
478.465	7.81
478.667	7.77
478.869	7.6
479.071	7.68
479.273	7.75
479.475	7.55
479.677	7.45
479.879	7.65
480.081	7.58
480.283	7.66
480.485	7.61
480.686	7.66
480.888	7.59
481.09	7.57
481.292	7.52
481.494	7.56
481.695	7.56
481.897	7.6
482.099	7.49
482.301	7.36
482.502	7.28
482.704	7.28
482.906	7.28
483.107	7.32
483.309	7.3
483.511	7.31
483.712	7.21
483.914	7.23
484.115	7.22
484.317	7.24
484.519	7.23
484.72	7.18
484.922	7.16
485.123	7.15
485.325	7.13
485.526	7.12
485.728	7.08
485.929	7.12
486.131	7.08
486.332	7.11
486.534	7.07
486.735	7.08
486.936	7.13
487.138	7.14
487.339	7.12
487.541	7.14
487.742	7.2
487.943	7.21
488.144	7.19
488.346	7.19
488.547	7.15
488.748	7.11
488.95	7.15
489.151	7.22
489.352	7.17
489.553	7.16
489.755	7.15
489.956	7.12
490.157	7.12
490.358	7.15
490.559	7.19
490.76	7.21
490.961	7.28
491.163	7.32
491.364	7.26
491.565	7.32
491.766	7.26
491.967	7.3
492.168	7.28
492.369	7.26
492.57	7.33
492.771	7.35
492.972	7.34
493.173	7.37
493.374	7.38
493.575	7.37
493.776	7.4
493.976	7.48
494.177	7.52
494.378	7.54
494.579	7.87
494.78	7.75
494.981	7.93
495.182	7.92
495.382	8.03
495.583	7.99
495.784	8.08
495.985	8.12
496.185	8.12
496.386	7.97
496.587	8.02
496.788	7.88
496.988	7.98
497.189	7.91
497.39	7.92
497.59	7.9
497.791	7.9
497.992	7.8
498.192	7.89
498.393	7.91
498.593	7.96
498.794	7.96
498.994	7.85
499.195	7.76
499.395	7.88
499.596	8.05
499.796	7.97
499.997	8.07
500.197	8.18
500.398	7.95
500.598	7.94
500.799	8.02
500.999	8.12
501.199	8.3
501.4	8.4
501.6	8.27
501.801	8.27
502.001	8.37
502.201	8.44
502.402	8.4
502.602	8.53
502.802	8.69
503.002	8.64
503.203	8.61
503.403	8.62
503.603	8.83
503.803	8.78
504.003	8.66
504.204	8.67
504.404	8.77
504.604	8.84
504.804	9.01
505.004	8.89
505.204	8.95
505.404	8.94
505.604	8.77
505.804	8.51
506.005	8.53
506.205	8.67
506.405	8.65
506.605	8.49
506.805	8.5
507.005	8.36
507.204	8.5
507.404	8.57
507.604	8.62
507.804	8.65
508.004	8.74
508.204	8.93
508.404	8.78
508.604	8.81
508.804	8.93
509.003	9.07
509.203	9.1
509.403	9.12
509.603	9.16
509.803	9.23
510.002	9.3
510.202	9.3
510.402	9.19
510.602	9.21
510.801	9.17
511.001	9.19
511.201	9.1
511.4	9.1
511.6	9.11
511.8	9.15
511.999	9.13
512.199	9.3
512.398	9.29
512.598	9.41
512.797	9.62
512.997	9.56
513.197	9.4
513.396	9.47
513.596	9.49
513.795	9.61
513.994	9.48
514.194	9.62
514.393	9.6
514.593	9.78
514.792	9.69
514.992	9.71
515.191	9.99
515.39	10.13
515.59	10.23
515.789	10.38
515.988	10.23
516.188	10.38
516.387	10.26
516.586	10.21
516.786	10.19
516.985	10.33
517.184	10.3
517.383	10.25
517.582	10.34
517.782	10.26
517.981	10.23
518.18	10.25
518.379	10.25
518.578	10.19
518.777	10.17
518.976	10.22
519.176	10.24
519.375	10.23
519.574	10.21
519.773	10.16
519.972	10.16
520.171	10.26
520.37	10.27
520.569	10.34
520.768	10.47
520.967	10.6
521.166	10.51
521.365	10.42
521.564	10.48
521.762	10.54
521.961	10.58
522.16	10.66
522.359	10.54
522.558	10.49
522.757	10.46
522.956	10.55
523.154	10.61
523.353	10.71
523.552	10.86
523.751	10.86
523.949	10.9
524.148	10.96
524.347	11.03
524.546	11.18
524.744	11.32
524.943	11.34
525.142	11.34
525.34	11.29
525.539	11.29
525.737	11.32
525.936	11.38
526.135	11.4
526.333	11.32
526.532	11.34
526.73	11.29
526.929	11.28
527.127	11.24
527.326	11.14
527.524	11.15
527.723	11.19
527.921	11.12
528.12	11.1
528.318	11.05
528.516	11.13
528.715	11.08
528.913	11.07
529.112	11.14
529.31	11.16
529.508	11.22
529.707	11.28
529.905	11.28
530.103	11.36
530.301	11.41
530.5	11.51
530.698	11.52
530.896	11.64
531.094	11.72
531.293	11.74
531.491	11.85
531.689	11.88
531.887	11.91
532.085	11.97
532.283	11.98
532.481	11.98
532.68	12.05
532.878	12.11
533.076	12.12
533.274	12.16
533.472	12.2
533.67	12.16
533.868	12.2
534.066	12.24
534.264	12.31
534.462	12.34
534.66	12.43
534.858	12.41
535.056	12.47
535.253	12.54
535.451	12.55
535.649	12.57
535.847	12.69
536.045	12.86
536.243	12.97
536.441	13.11
536.638	13.2
536.836	13.2
537.034	13.24
537.232	13.19
537.43	13.14
537.627	13.19
537.825	13.26
538.023	13.32
538.22	13.34
538.418	13.33
538.616	13.29
538.813	13.37
539.011	13.59
539.209	13.66
539.406	13.91
539.604	14.17
539.801	14.29
539.999	14.47
540.196	14.39
540.394	14.33
540.591	14.28
540.789	14.22
540.986	14.17
541.184	14.14
541.381	14.18
541.579	14.14
541.776	14.05
541.974	14.06
542.171	14.04
542.368	14.12
542.566	14.18
542.763	14.27
542.96	14.33
543.158	14.35
543.355	14.45
543.552	14.63
543.75	14.73
543.947	14.92
544.144	15.09
544.341	15.16
544.539	15.28
544.736	15.38
544.933	15.47
545.13	15.74
545.327	15.92
545.524	15.95
545.722	15.89
545.919	16.01
546.116	16.08
546.313	16.03
546.51	16.15
546.707	16.33
546.904	16.43
547.101	16.54
547.298	16.58
547.495	16.72
547.692	16.79
547.889	16.86
548.086	16.94
548.283	16.94
548.48	17.09
548.677	17.1
548.874	17.1
549.07	17.14
549.267	17.13
549.464	17.17
549.661	17.13
549.858	17.11
550.055	17.18
550.251	17.27
550.448	17.31
550.645	17.48
550.842	17.57
551.038	17.68
551.235	17.84
551.432	18.04
551.628	18.09
551.825	18.2
552.022	18.43
552.218	18.66
552.415	18.71
552.612	18.93
552.808	18.91
553.005	18.84
553.201	18.95
553.398	18.98
553.594	18.89
553.791	19.01
553.987	19.16
554.184	19.2
554.38	19.3
554.577	19.33
554.773	19.47
554.97	19.72
555.166	19.96
555.362	20.01
555.559	20.02
555.755	20.21
555.952	20.27
556.148	20.38
556.344	20.48
556.541	20.55
556.737	20.58
556.933	20.56
557.129	20.74
557.326	20.84
557.522	21.09
557.718	21.4
557.914	21.59
558.11	21.74
558.307	21.81
558.503	21.95
558.699	22.16
558.895	22.27
559.091	22.4
559.287	22.22
559.483	22.26
559.679	22.26
559.876	22.44
560.072	22.47
560.268	22.4
560.464	22.57
560.66	22.72
560.856	22.92
561.052	23.31
561.247	23.63
561.443	23.82
561.639	23.9
561.835	24.02
562.031	23.93
562.227	24.07
562.423	24.15
562.619	24.06
562.815	24.14
563.01	24.03
563.206	23.99
563.402	23.88
563.598	23.89
563.793	24.16
563.989	24.28
564.185	24.41
564.381	24.51
564.576	24.82
564.772	25.17
564.968	25.35
565.163	25.44
565.359	25.47
565.555	25.43
565.75	25.57
565.946	25.63
566.141	25.67
566.337	25.58
566.532	25.66
566.728	25.64
566.923	25.55
567.119	25.51
567.314	25.67
567.51	25.73
567.705	26.04
567.901	26.13
568.096	26.28
568.292	26.33
568.487	26.5
568.682	26.66
568.878	26.72
569.073	26.74
569.268	26.76
569.464	26.52
569.659	26.8
569.854	26.74
570.05	26.86
570.245	26.98
570.44	27.11
570.635	27.16
570.831	27.3
571.026	27.53
571.221	27.7
571.416	27.9
571.611	28.33
571.806	28.44
572.002	28.43
572.197	28.59
572.392	28.4
572.587	28.38
572.782	28.53
572.977	28.51
573.172	28.43
573.367	28.56
573.562	28.63
573.757	28.47
573.952	28.5
574.147	28.77
574.342	28.83
574.537	29.02
574.732	29.22
574.927	29.48
575.121	29.45
575.316	29.58
575.511	29.64
575.706	29.54
575.901	29.56
576.096	29.55
576.29	29.68
576.485	29.58
576.68	29.58
576.875	29.4
577.069	29.29
577.264	29.46
577.459	29.47
577.654	29.41
577.848	29.69
578.043	29.94
578.238	29.85
578.432	29.62
578.627	29.73
578.821	29.84
579.016	30.02
579.21	29.99
579.405	30.11
579.6	30.36
579.794	30.46
579.989	30.39
580.183	30.74
580.378	30.89
580.572	30.98
580.766	31.08
580.961	31.2
581.155	31.34
581.35	31.65
581.544	31.69
581.738	31.7
581.933	31.67
582.127	31.73
582.321	31.5
582.516	31.63
582.71	31.62
582.904	31.69
583.099	31.64
583.293	31.65
583.487	31.47
583.681	31.52
583.875	31.62
584.07	31.84
584.264	31.85
584.458	31.91
584.652	32
584.846	32.19
585.04	32.21
585.234	32.5
585.428	32.54
585.623	32.62
585.817	32.68
586.011	32.57
586.205	32.6
586.399	32.79
586.593	32.84
586.787	33.1
586.981	33.08
587.174	33.06
587.368	32.86
587.562	33.05
587.756	33.01
587.95	33.14
588.144	33.33
588.338	33.22
588.532	33.12
588.725	33.13
588.919	32.9
589.113	32.88
589.307	32.77
589.501	32.85
589.694	32.83
589.888	32.95
590.082	32.99
590.275	32.81
590.469	33.04
590.663	33.19
590.856	33.08
591.05	33.27
591.244	33.43
591.437	33.65
591.631	33.72
591.824	33.88
592.018	34.16
592.212	34.12
592.405	33.89
592.599	33.94
592.792	34
592.986	34.28
593.179	34.26
593.372	34.46
593.566	34.49
593.759	34.73
593.953	34.53
594.146	34.58
594.339	34.44
594.533	34.67
594.726	34.7
594.92	34.74
595.113	34.87
595.306	34.9
595.499	34.58
595.693	34.66
595.886	34.39
596.079	34.51
596.272	34.35
596.466	34.55
596.659	34.79
596.852	34.61
597.045	34.56
597.238	34.3
597.431	34.16
597.624	34.39
597.818	34.2
598.011	34.37
598.204	34.46
598.397	34.42
598.59	34.38
598.783	34.26
598.976	34.49
599.169	34.68
599.362	34.75
599.555	35.02
599.748	35.11
599.941	35.49
600.134	35.57
600.326	35.49
600.519	35.71
600.712	35.52
600.905	35.61
601.098	35.42
601.291	35.36
601.483	35.52
601.676	35.29
601.869	35.27
602.062	35.27
602.255	35.19
602.447	35.28
602.64	35.11
602.833	35.04
603.025	34.97
603.218	35.25
603.411	35.13
603.603	35.13
603.796	35.31
603.989	35.14
604.181	35.06
604.374	35.15
604.566	35.24
604.759	35.14
604.951	35.14
605.144	35.21
605.336	35.1
605.529	35.13
605.721	35.03
605.914	34.93
606.106	35.08
606.299	35.2
606.491	35.15
606.683	35.07
606.876	35.43
607.068	35.75
607.26	35.8
607.453	35.72
607.645	35.82
607.837	36.12
608.03	36.18
608.222	36.31
608.414	36.26
608.606	36.35
608.799	36.4
608.991	36.29
609.183	36.3
609.375	36.34
609.567	36.37
609.759	36.43
609.952	36.31
610.144	36.39
610.336	36.22
610.528	36.28
610.72	36.37
610.912	36.39
611.104	36.6
611.296	36.61
611.488	36.66
611.68	36.46
611.872	36.45
612.064	36.53
612.256	36.45
612.448	36.41
612.64	36.42
612.832	36.35
613.023	36.58
613.215	36.46
613.407	36.38
613.599	36.54
613.791	37.07
613.983	36.84
614.174	36.83
614.366	37.15
614.558	37.45
614.75	37.28
614.941	37.37
615.133	36.9
615.325	37.13
615.516	37.2
615.708	36.86
615.9	36.8
616.091	36.93
616.283	36.63
616.475	36.59
616.666	36.48
616.858	36.54
617.049	36.28
617.241	36.65
617.432	36.21
617.624	36.53
617.815	36.62
618.007	36.59
618.198	36.84
618.39	37.23
618.581	37.26
618.773	37.38
618.964	37.48
619.155	37.64
619.347	37.4
619.538	37.6
619.729	37.09
619.921	37.22
620.112	37.4
620.303	37.33
620.494	37.31
620.686	37.31
620.877	37.08
621.068	36.88
621.259	36.94
621.451	37.23
621.642	37.22
621.833	37.51
622.024	37.93
622.215	37.74
622.406	37.64
622.597	37.51
622.788	37.47
622.98	37.48
623.171	37.7
623.362	37.62
623.553	37.5
623.744	37.68
623.935	37.54
624.126	37.2
624.317	37.4
624.508	37.57
624.698	37.74
624.889	37.46
625.08	37.75
625.271	37.99
625.462	38.18
625.653	38.09
625.844	37.93
626.034	37.86
626.225	37.93
626.416	38.01
626.607	38.09
626.798	38.13
626.988	38.39
627.179	38.38
627.37	38.3
627.56	38.14
627.751	38.3
627.942	38.5
628.132	38.69
628.323	38.57
628.514	38.37
628.704	38.32
628.895	38.25
629.085	38.07
629.276	37.87
629.466	37.82
629.657	38.16
629.847	37.99
630.038	37.88
630.228	38.1
630.419	38.37
630.609	38.3
630.8	38.44
630.99	38.58
631.181	38.74
631.371	38.9
631.561	39.01
631.752	38.85
631.942	38.72
632.132	38.86
632.323	38.62
632.513	38.71
632.703	39.03
632.893	38.96
633.084	38.7
633.274	38.7
633.464	38.67
633.654	38.34
633.844	38.31
634.034	38.55
634.225	38.41
634.415	38.44
634.605	38.56
634.795	38.41
634.985	38.38
635.175	38.46
635.365	38.63
635.555	38.87
635.745	39.31
635.935	39.45
636.125	39.27
636.315	39.63
636.505	39.65
636.695	39.27
636.885	39.13
637.075	39.3
637.265	39.42
637.455	39.24
637.644	39.33
637.834	39.25
638.024	39.12
638.214	39.42
638.404	39.16
638.593	39.11
638.783	39.38
638.973	39.44
639.163	39.49
639.352	39.46
639.542	39.62
639.732	39.36
639.921	39.27
640.111	39.31
640.301	39.44
640.49	39.5
640.68	40.06
640.87	39.8
641.059	39.8
641.249	39.95
641.438	40.2
641.628	39.99
641.817	40.05
642.007	40.28
642.196	40.16
642.386	39.72
642.575	39.6
642.764	39.23
642.954	39.5
643.143	40.02
643.333	39.9
643.522	39.88
643.711	40.13
643.901	40.64
644.09	40.67
644.279	40.87
644.469	41.15
644.658	41.48
644.847	41.7
645.036	41.58
645.226	41.41
645.415	41.45
645.604	41.32
645.793	41.31
645.982	41.14
646.171	41.17
646.361	41.17
646.55	41.32
646.739	40.96
646.928	40.81
647.117	40.85
647.306	40.94
647.495	40.66
647.684	40.96
647.873	40.98
648.062	40.6
648.251	39.95
648.44	39.76
648.629	39.59
648.818	39.47
649.007	39.43
649.196	39.59
649.384	39.27
649.573	39.42
649.762	39.46
649.951	39.29
650.14	39.22
650.328	39.69
650.517	40.14
650.706	40.34
650.895	40.61
651.083	40.74
651.272	40.53
651.461	40.89
651.65	41.13
651.838	40.67
652.027	40.63
652.216	40.79
652.404	40.67
652.593	40.55
652.781	40.31
652.97	40.49
653.158	40.49
653.347	40.46
653.535	40.36
653.724	39.99
653.912	40.51
654.101	40.53
654.289	40.72
654.478	41.15
654.666	41.06
654.855	41.18
655.043	41.01
655.231	41.17
655.42	41.4
655.608	41.38
655.796	41.59
655.985	41.59
656.173	41.92
656.361	41.83
656.55	41.42
656.738	41.68
656.926	41.8
657.114	41.68
657.302	41.45
657.491	41.3
657.679	41.11
657.867	41.35
658.055	41.49
658.243	41.23
658.431	41.23
658.619	41.53
658.807	41.45
658.996	41.51
659.184	41.8
659.372	41.72
659.56	41.63
659.748	41.74
659.936	41.41
660.124	41.16
660.311	41.21
660.499	41.34
660.687	41.17
660.875	41.17
661.063	40.95
661.251	40.87
661.439	40.98
661.627	41.21
661.814	40.96
662.002	41.02
662.19	40.77
662.378	40.84
662.565	40.68
662.753	40.72
662.941	40.7
663.129	40.77
663.316	40.65
663.504	40.41
663.692	40.45
663.879	40.85
664.067	41.21
664.254	40.96
664.442	41.13
664.63	41.15
664.817	40.99
665.005	41.05
665.192	41.15
665.38	41.47
665.567	41.62
665.755	41.51
665.942	41.5
666.13	40.88
666.317	41.58
666.504	41.69
666.692	42.18
666.879	42.64
667.067	42.36
667.254	42.12
667.441	42.08
667.629	41.87
667.816	41.75
668.003	41.88
668.19	42.43
668.378	42.24
668.565	41.97
668.752	41.75
668.939	41.46
669.127	41.56
669.314	41.92
669.501	42.04
669.688	42.34
669.875	42.55
670.062	42.36
670.249	41.92
670.436	42.03
670.623	41.87
670.81	41.83
670.997	41.84
671.184	41.65
671.371	41.33
671.558	41.09
671.745	41.44
671.932	41.12
672.119	41.49
672.306	41.96
672.493	41.77
672.68	42.42
672.867	42.3
673.054	42.43
673.24	42.43
673.427	42.7
673.614	43.37
673.801	43.04
673.988	43.4
674.174	43.21
674.361	42.92
674.548	43.16
674.734	42.96
674.921	42.91
675.108	42.74
675.294	43.16
675.481	43.11
675.668	42.81
675.854	42.89
676.041	42.9
676.227	42.58
676.414	42.44
676.601	42.65
676.787	42.97
676.974	43.1
677.16	43.17
677.347	43.3
677.533	43.02
677.719	42.6
677.906	42.57
678.092	42.12
678.279	42.65
678.465	42.84
678.651	42.5
678.838	41.97
679.024	42.01
679.21	42.09
679.397	41.81
679.583	41.94
679.769	42.09
679.955	42.19
680.142	42.5
680.328	42.57
680.514	42.59
680.7	42.49
680.886	42.82
681.073	42.35
681.259	42.48
681.445	42.54
681.631	42.91
681.817	42.63
682.003	42.67
682.189	42.54
682.375	42.06
682.561	42.19
682.747	42.62
682.933	42.25
683.119	42.32
683.305	42.11
683.491	42.15
683.677	41.88
683.863	42.08
684.049	42.07
684.235	42.11
684.42	42.45
684.606	42.29
684.792	42.26
684.978	42.31
685.164	42.85
685.349	43.07
685.535	43.15
685.721	43.21
685.907	42.83
686.092	42.61
686.278	42.8
686.464	42.45
686.649	42.58
686.835	42.2
687.021	42.54
687.206	42.41
687.392	42.05
687.577	41.77
687.763	41.59
687.948	42.12
688.134	42.58
688.319	42.92
688.505	43.48
688.69	43.35
688.876	43.57
689.061	43.07
689.247	43.38
689.432	43.58
689.618	43.51
689.803	43.5
689.988	43.64
690.174	43.12
690.359	42.63
690.544	42.87
690.73	42.28
690.915	41.71
691.1	41.94
691.285	41.7
691.471	41.39
691.656	41.98
691.841	41.98
692.026	41.73
692.211	42.12
692.396	42.45
692.582	41.42
692.767	42.25
692.952	42.5
693.137	42.36
693.322	42.08
693.507	42.7
693.692	42.36
693.877	42.8
694.062	42.65
694.247	42.73
694.432	42.6
694.617	43.01
694.802	43.34
694.987	43.51
695.172	43.76
695.357	44.49
695.541	44.43
695.726	44.49
695.911	44.48
696.096	44.74
696.281	44.06
696.466	44.75
696.65	44.36
696.835	43.81
697.02	43.8
697.204	43.34
697.389	43.08
697.574	42.92
697.759	42.91
697.943	42.87
698.128	42.61
698.312	42.87
698.497	42.1
698.682	42.83
698.866	43.2
699.051	43.23
699.235	43.37
699.42	43.15
699.604	43.36
699.789	43.49
699.973	43.51
700.158	43.59
700.342	43.92
700.527	44.53
700.711	44.09
700.895	43.87
701.08	43.81
701.264	44.16
701.448	44.39
701.633	44.14
701.817	44.17
702.001	44.38
702.186	44.65
702.37	44
702.554	43.14
702.738	43.65
702.923	43.72
703.107	44.02
703.291	44.6
703.475	44.5
703.659	44.25
703.843	43.9
704.027	43.42
704.212	43.45
704.396	44.01
704.58	44.74
704.764	43.97
704.948	43.96
705.132	43.88
705.316	43.79
705.5	44.54
705.684	45.25
705.868	45.91
706.052	45.86
706.235	45.82
706.419	45.27
706.603	44.98
706.787	44.99
706.971	45.58
707.155	45.79
707.339	45.03
707.522	44.48
707.706	44.51
707.89	44.51
708.074	44.38
708.257	44.38
708.441	45.15
708.625	45.82
708.808	46.44
708.992	45.72
709.176	45.32
709.359	45.54
709.543	45.51
709.727	44.74
709.91	44.61
710.094	45.07
710.277	45.01
710.461	44.41
710.644	43.85
710.828	43.67
711.011	43.71
711.195	43.61
711.378	43.86
711.562	44.03
711.745	44.66
711.928	44.33
712.112	44.4
712.295	44.18
712.478	44.48
712.662	44.86
712.845	44.53
713.028	44.32
713.212	45.01
713.395	44.61
713.578	44.44
713.761	44.22
713.945	43.97
714.128	44.49
714.311	45.36
714.494	45.51
714.677	45.21
714.86	45.48
715.043	45.83
715.227	45.96
715.41	46.17
715.593	46.18
715.776	46.17
715.959	46.74
716.142	45.71
716.325	45.4
716.508	45.44
716.691	45.56
716.874	45.78
717.057	45.91
717.239	45.35
717.422	45.32
717.605	45.39
717.788	45.35
717.971	45.49
718.154	46.11
718.337	45.32
718.519	45.26
718.702	45.48
718.885	45.37
719.068	45.57
719.25	45.83
719.433	45.97
719.616	45.21
719.798	45.45
719.981	45.05
720.164	44.4
720.346	45.2
720.529	44.76
720.712	44.37
720.894	44.38
721.077	44.65
721.259	44.26
721.442	44.47
721.624	45.47
721.807	45.74
721.989	45.56
722.172	46.7
722.354	46.65
722.537	47.21
722.719	47.7
722.901	47.46
723.084	46.34
723.266	46.88
723.448	47.3
723.631	47.03
723.813	45.96
723.995	46.57
724.178	46.12
724.36	46.15
724.542	45.4
724.724	45.68
724.907	45.82
725.089	46.23
725.271	45.9
725.453	45.21
725.635	46.41
725.817	47.35
725.999	47.31
726.181	47.47
726.364	47.32
726.546	47.64
726.728	46.96
726.91	46.95
727.092	47.28
727.274	47.59
727.456	48.18
727.638	47.68
727.819	47.45
728.001	46.95
728.183	47.12
728.365	46.8
728.547	46.82
728.729	47.15
728.911	47.66
729.093	47.39
729.274	47.41
729.456	46.65
729.638	46.01
729.82	45.64
730.001	45.52
730.183	45.44
730.365	46.16
730.546	45.87
730.728	45.9
730.91	44.9
731.091	45.25
731.273	45.58
731.455	45.72
731.636	46.05
731.818	46.39
731.999	47.06
732.181	46.23
732.362	45.48
732.544	46.24
732.725	46.03
732.907	46.55
733.088	46.05
733.27	45.12
733.451	44.89
733.633	45.43
733.814	45.44
733.995	44.74
734.177	45.66
734.358	45.99
734.539	45.28
734.721	45.04
734.902	45.62
735.083	45.86
735.264	47.27
735.446	47.45
735.627	46.04
735.808	45.93
735.989	45.64
736.17	45.62
736.351	45.78
736.533	46.44
736.714	46.88
736.895	46.62
737.076	46.23
737.257	45.51
737.438	45.61
737.619	46.61
737.8	46.19
737.981	46.95
738.162	46.82
738.343	47.52
738.524	46.75
738.705	46.47
738.886	46.34
739.067	46.61
739.247	46.42
739.428	46.29
739.609	45.46
739.79	45.25
739.971	45.34
740.151	45.19
740.332	44.47
740.513	45.07
740.694	45.41
740.874	45.02
741.055	45.54
741.236	46.26
741.417	46.25
741.597	46.47
741.778	47.71
741.958	47.5
742.139	47.18
742.32	46.68
742.5	46.52
742.681	46.29
742.861	46.77
743.042	46.49
743.222	45.67
743.403	45.89
743.583	47.58
743.764	46.57
743.944	46.92
744.124	47.07
744.305	49.11
744.485	49.5
744.666	49.11
744.846	49.27
745.026	49.83
745.207	49.84
745.387	50.92
745.567	48.61
745.747	48.88
745.928	49.25
746.108	49.63
746.288	47.59
746.468	47.64
746.648	47.74
746.829	47.64
747.009	47.83
747.189	48.72
747.369	47.58
747.549	48.52
747.729	48.97
747.909	48.47
748.089	49.03
748.269	48.82
748.449	48.89
748.629	48.89
748.809	48.41
748.989	47.91
749.169	47.14
749.349	46.53
749.529	46.25
749.709	46.01
749.889	45.84
750.068	45.53
750.248	45.4
750.428	46.3
750.608	45.95
750.788	46.86
750.967	47.32
751.147	47.25
751.327	48.34
751.507	49.1
751.686	49.23
751.866	49.64
752.046	48.97
752.225	49.76
752.405	48.53
752.585	48.89
752.764	48.53
752.944	48.21
753.123	48.95
753.303	48.54
753.482	48.09
753.662	48.76
753.841	48.85
754.021	49.58
754.2	49.64
754.38	50.13
754.559	50.53
754.739	50.16
754.918	49.18
755.097	48.04
755.277	48.58
755.456	49.56
755.635	48.58
755.815	48.79
755.994	48.48
756.173	48.5
756.352	49.05
756.532	48.86
756.711	48.6
756.89	49.33
757.069	49.58
757.248	48.84
757.427	47.72
757.607	47.61
757.786	46.88
757.965	46.3
758.144	46.16
758.323	44.3
758.502	43.59
758.681	42.96
758.86	42.84
759.039	43.15
759.218	43.19
759.397	42.17
759.576	42.31
759.755	42.38
759.934	42.79
760.113	43.23
760.291	43.87
760.47	45.01
760.649	46.3
760.828	45.85
761.007	45.76
761.186	46.04
761.364	46.92
761.543	46.52
761.722	46.24
761.901	45.54
762.079	45.55
762.258	46.12
762.437	44.55
762.615	44.35
762.794	44.06
762.972	44.05
763.151	44.25
763.33	43.91
763.508	44.54
763.687	44.95
763.865	45.73
764.044	45.96
764.222	46.39
764.401	47.52
764.579	47.34
764.758	47.58
764.936	48.61
765.114	48.41
765.293	48.58
765.471	48.47
765.65	48.04
765.828	48.37
766.006	47.83
766.184	47.55
766.363	46.61
766.541	46.77
766.719	47.43
766.898	46.84
767.076	47.03
767.254	47.78
767.432	47.61
767.61	48.94
767.788	48.55
767.967	48.52
768.145	48.2
768.323	49.74
768.501	49.18
768.679	48.74
768.857	47.93
769.035	48.29
769.213	48.33
769.391	49.19
769.569	48.49
769.747	47.76
769.925	49
770.103	48.98
770.281	47.63
770.459	48.62
770.636	48.16
770.814	49.2
770.992	49.4
771.17	49.67
771.348	49.32
771.525	49.9
771.703	50.41
771.881	49.5
772.059	49.25
772.236	50.06
772.414	49.05
772.592	49.82
772.769	50.73
772.947	51.27
773.125	51.09
773.302	51.08
773.48	51.55
773.657	51.7
773.835	52.16
774.013	50.99
774.19	51.39
774.368	53.11
774.545	53.37
774.723	51.39
774.9	49.95
775.077	51.02
775.255	49.93
775.432	49.17
775.61	48.77
775.787	49.27
775.964	51.88
776.142	51.84
776.319	50.41
776.496	50.32
776.674	49.6
776.851	49.68
777.028	49.22
777.205	51.23
777.382	49.44
777.56	49.89
777.737	49.41
777.914	48.61
778.091	48.74
778.268	48.79
778.445	50.16
778.622	51.29
778.8	53.51
778.977	52.8
779.154	58.62
779.331	60.15
779.508	59.67
779.685	59.06
779.862	60.05
780.038	59.2
780.215	61.73
780.392	60.74
780.569	61.72
780.746	59.64
780.923	58.39
781.1	51.18
781.277	53.21
781.453	53.58
781.63	54.01
781.807	51.83
781.984	51.68
782.16	49.96
782.337	51.09
782.514	50.61
782.691	51.01
782.867	54.06
783.044	54.17
783.221	51.21
783.397	52.05
783.574	50.43
783.75	51.8
783.927	51.59
784.103	52.48
784.28	50.72
784.456	50.19
784.633	49.87
784.809	47.32
784.986	46.97
785.162	48.09
785.339	48.6
785.515	48.42
785.692	48.5
785.868	49.27
786.044	48.84
786.221	50.41
786.397	50.7
786.573	51.42
786.749	51.71
786.926	52.13
787.102	54.07
787.278	53.57
787.454	54.89
787.631	54.08
787.807	53.57
787.983	52.93
788.159	51.91
788.335	53.38
788.511	54.62
788.687	55.57
788.863	56.46
789.039	53.36
789.216	53.24
789.392	52.95
789.568	53.5
789.744	53.44
789.919	54.14
790.095	53.46
790.271	50.85
790.447	48.35
790.623	47.07
790.799	44.76
790.975	45.87
791.151	45.07
791.327	44.21
791.502	44.67
791.678	44.87
791.854	44.41
792.03	46.04
792.205	48.73
792.381	49.95
792.557	52.46
792.733	54.34
792.908	55.55
793.084	55.87
793.259	55.82
793.435	56.59
793.611	58.57
793.786	59.36
793.962	58.98
794.137	57.7
794.313	59.3
794.488	57.11
794.664	57.48
794.839	57.14
795.015	57.04
795.19	59.22
795.366	59.53
795.541	59.58
795.716	57.99
795.892	58.9
796.067	59.36
796.242	57.99
796.418	59.18
796.593	59.43
796.768	59.36
796.944	60.67
797.119	59.95
797.294	59.12
797.469	58.37
797.644	58.88
797.82	58.33
797.995	59.25
798.17	59
798.345	56.87
798.52	55.59
798.695	55.89
798.87	54.54
799.045	55.16
799.22	55.68
799.395	55.17
799.57	53.97
799.745	54.31
799.92	54.13
800.095	54.14
800.27	56.24
800.445	56.47
800.62	55.4
800.795	56.05
800.97	54.77
801.145	53.42
801.319	55.57
801.494	57.05
801.669	56.04
801.844	55.58
802.018	55.37
802.193	54.06
802.368	53.18
802.543	52.87
802.717	54.18
802.892	52.76
803.067	55.39
803.241	53.83
803.416	53.91
803.59	54.57
803.765	53.89
803.94	54.75
804.114	54.35
804.289	57.51
804.463	58.39
804.638	56.03
804.812	58.7
804.986	56.71
805.161	56.3
805.335	55.33
805.51	56.1
805.684	55.66
805.858	54.44
806.033	54.81
806.207	50.91
806.381	50.14
806.556	49.55
806.73	50.33
806.904	50.33
807.078	50.06
807.253	49.95
807.427	46.12
807.601	43.9
807.775	45.78
807.949	44.9
808.123	47.47
808.298	49.89
808.472	51.73
808.646	52.02
808.82	52.86
808.994	52.47
809.168	53.12
809.342	58.1
809.516	58.3
809.69	55.32
809.864	56.32
810.038	57.15
810.212	56.25
810.385	54.77
810.559	54.05
810.733	51.49
810.907	51.3
811.081	51.06
811.255	48.37
811.428	50
811.602	50.76
811.776	51.19
811.95	51.66
812.123	52.11
812.297	53.36
812.471	51.65
812.644	54.28
812.818	54.81
812.992	56.88
813.165	56
813.339	58.09
813.512	59.89
813.686	60.3
813.86	59.9
814.033	59.68
814.207	61.4
814.38	64.99
814.554	62.99
814.727	63.64
814.9	63.61
815.074	63.98
815.247	61.94
815.421	60.28
815.594	59.92
815.767	59.86
815.941	58.46
816.114	55.46
816.287	52.05
816.46	50.82
816.634	52.22
816.807	49.98
816.98	50.66
817.153	51.04
817.327	51.95
817.5	54.2
817.673	53.52
817.846	52.24
818.019	53.87
818.192	57.33
818.365	53.66
818.538	51.44
818.711	52.59
818.884	52.79
819.057	51.91
819.23	51.15
819.403	47.43
819.576	45.75
819.749	46.98
819.922	46.26
820.095	45.83
820.268	50.85
820.441	50.54
820.614	48.79
820.786	48.21
820.959	48.3
821.132	47.91
821.305	47.99
821.477	47.81
821.65	47.63
821.823	48.21
821.996	47.35
822.168	46.43
822.341	45.99
822.514	45.62
822.686	45.71
822.859	45.35
823.031	45.67
823.204	45.68
823.376	46.05
823.549	45.42
823.722	45.32
823.894	45.65
824.067	45.59
824.239	45.6
824.411	46.29
824.584	45.81
824.756	46.18
824.929	45.84
825.101	46.44
825.273	45.98
825.446	46.94
825.618	45.88
825.79	45.8
825.963	46.41
826.135	46.36
826.307	45.94
826.479	46.61
826.652	46.59
826.824	46.45
826.996	45.65
827.168	46.07
827.34	45.66
827.512	46.56
827.684	46.06
827.856	46.04
828.029	46.53
828.201	46.72
828.373	46.64
828.545	45.88
828.717	46.64
828.889	46.25
829.061	46.18
829.232	45.63
829.404	44.88
829.576	45.18
829.748	44.78
829.92	44.89
830.092	45.87
830.264	46.78
830.436	47.15
830.607	46.73
830.779	48.1
830.951	48.95
831.123	49.16
831.294	51.06
831.466	52.54
831.638	52.75
831.809	53.62
831.981	53.34
832.153	51.82
832.324	53.57
832.496	53.79
832.667	54.25
832.839	53.03
833.011	53.63
833.182	53.99
833.354	51.22
833.525	49.82
833.697	47.67
833.868	47.89
834.039	47.85
834.211	45.62
834.382	46.17
834.554	46.29
834.725	45.65
834.896	46.79
835.068	47.12
835.239	47.29
835.41	48.92
835.581	49.07
835.753	48.11
835.924	49.54
836.095	52.97
836.266	52.6
836.438	49.95
836.609	51.92
836.78	51.32
836.951	48.77
837.122	50.75
837.293	50.6
837.464	52.45
837.635	53.09
837.806	51.94
837.977	50.74
838.148	51.68
838.319	56.15
838.49	55.48
838.661	56.24
838.832	60.75
839.003	60.64
839.174	59.57
839.345	61.18
839.516	61.56
839.687	62.93
839.857	60.58
840.028	61.38
840.199	60.79
840.37	58.86
840.54	58.04
840.711	56.45
840.882	55.92
841.053	60.22
841.223	56.7
841.394	61.29
841.564	60.41
841.735	64.49
841.906	62.4
842.076	61.37
842.247	66.67
842.417	72.38
842.588	77.9
842.758	86.6
842.929	85.56
843.099	84.31
843.27	79.71
843.44	80.55
843.611	82.19
843.781	85.72
843.951	87.65
844.122	83.82
844.292	83.73
844.462	78.16
844.633	69.43
844.803	62.58
844.973	64.87
845.144	65.19
845.314	63.61
845.484	59.04
845.654	60.03
845.824	64.42
845.995	67.96
846.165	64.24
846.335	60.78
846.505	60.93
846.675	67.59
846.845	66.85
847.015	71.6
847.185	75.3
847.355	75.72
847.525	73.81
847.695	77.36
847.865	73.96
848.035	68.6
848.205	68.24
848.375	69.97
848.545	71.53
848.715	66.83
848.884	63.62
849.054	62.48
849.224	65.54
849.394	68.64
849.564	66.02
849.733	65.56
849.903	72.97
850.073	78.59
850.243	77.81
850.412	78.87
850.582	85.44
850.752	81.22
850.921	81.96
851.091	74.9
851.26	71.97
851.43	60.87
851.599	60.66
851.769	57.26
851.939	56.99
852.108	60.53
852.278	60.3
852.447	62.92
852.616	68
852.786	67.66
852.955	65.17
853.125	66.13
853.294	73.01
853.463	78.43
853.633	90.55
853.802	92.06
853.971	84.39
854.141	78.19
854.31	82.1
854.479	78.03
854.648	83.14
854.818	87.16
854.987	81.01
855.156	77.68
855.325	71.77
855.494	67.85
855.663	71.24
855.832	64.18
856.001	67.8
856.171	65.49
856.34	67.22
856.509	62.46
856.678	68.35
856.847	71.56
857.016	72.86
857.185	72.7
857.353	68.88
857.522	65.31
857.691	80.34
857.86	82.73
858.029	82.87
858.198	85.61
858.367	81.5
858.535	83.88
858.704	84.54
858.873	86.77
859.042	86.67
859.21	87.33
859.379	81.95
859.548	78.36
859.717	79.89
859.885	78.29
860.054	78.21
860.222	77.92
860.391	78.59
860.56	83.01
860.728	82.21
860.897	85.15
861.065	81.06
861.234	85.15
861.402	86.89
861.571	88.28
861.739	83.48
861.908	82.02
862.076	85.79
862.244	71.44
862.413	71.43
862.581	69.3
862.749	69.37
862.918	68.46
863.086	70.65
863.254	69.69
863.423	68.01
863.591	78.18
863.759	86.7
863.927	91.41
864.096	88.91
864.264	85.36
864.432	85.54
864.6	89.36
864.768	99.66
864.936	98.51
865.104	90.65
865.272	90.9
865.44	85.23
865.608	74.49
865.776	63.74
865.944	67.84
866.112	68.25
866.28	65.47
866.448	61.91
866.616	61.62
866.784	64.35
866.952	71.77
867.12	67.75
867.288	67.69
867.455	79.17
867.623	90.51
867.791	94.48
867.959	98.28
868.127	104.91
868.294	102.75
868.462	91.66
868.63	91.83
868.797	86.22
868.965	82.64
869.133	83.99
869.3	79.94
869.468	75.71
869.636	72.91
869.803	74.63
869.971	72.46
870.138	77.66
870.306	81.09
870.473	79.81
870.641	76.36
870.808	84.76
870.975	85.4
871.143	75.72
871.31	76.56
871.478	84.19
871.645	91.68
871.812	92.97
871.98	82.53
872.147	78.28
872.314	77.18
872.482	90.67
872.649	90.15
872.816	83.84
872.983	87.95
873.15	90.03
873.318	79.24
873.485	71.4
873.652	71.87
873.819	78.02
873.986	89.74
874.153	89.67
874.32	90.2
874.487	89.94
874.654	98.33
874.821	99.65
874.988	94.5
875.155	104.52
875.322	109.67
875.489	112.76
875.656	115.72
875.823	109.35
875.99	106.55
876.157	93.75
876.324	90.53
876.49	86.42
876.657	92.17
876.824	85.96
876.991	84.72
877.157	83.88
877.324	75.92
877.491	73.03
877.658	78.94
877.824	78.5
877.991	82.15
878.157	79.88
878.324	83.72
878.491	80.6
878.657	89.74
878.824	87.67
878.99	87.85
879.157	95.78
879.323	98.04
879.49	90.24
879.656	89.59
879.823	90.25
879.989	87.17
880.156	76.28
880.322	70.98
880.488	68.28
880.655	69.22
880.821	63.55
880.987	60.62
881.154	58.38
881.32	54.59
881.486	52.05
881.652	48.37
881.819	48.77
881.985	51.71
882.151	50.37
882.317	50.16
882.483	49.76
882.649	52.29
882.816	49.22
882.982	48.41
883.148	50.03
883.314	49.34
883.48	49.83
883.646	49.87
883.812	48.13
883.978	49.62
884.144	50.56
884.31	49.24
884.476	48.36
884.642	51.1
884.807	50.81
884.973	50.99
885.139	51.38
885.305	51.88
885.471	51.67
885.637	52.75
885.802	53.43
885.968	53.59
886.134	54.38
886.3	53.43
886.465	50.62
886.631	51.85
886.797	51.71
886.962	53.09
887.128	53.91
887.293	56.75
887.459	58
887.625	57.66
887.79	58.18
887.956	61.27
888.121	64.55
888.287	70.01
888.452	72.33
888.618	72.83
888.783	74.1
