Data from LC_244_Reflection_2.txt Node
Date: Thu Nov 19 22:40:34 EST 2015
User: robert
Spectrometer: USB4E03001
Autoset integration time: false
Trigger mode: 4
Integration Time (sec): 1.000000E-1
Scans to average: 15
Electric dark correction enabled: true
Nonlinearity correction enabled: false
Boxcar width: 5
Stray light correction enabled: false
XAxis mode: Wavelengths
Stop averaging: false
Number of Pixels in Spectrum: 3648
>>>>>Begin Spectral Data<<<<<
177.566	2.31
177.785	9.48
178.005	39.92
178.225	29.16
178.445	26.76
178.665	6.96
178.885	62.86
179.105	93.45
179.324	-100
179.544	-93.74
179.764	-28.76
179.984	-38.18
180.204	-129.3
180.423	-86.51
180.643	-87.85
180.863	-50.92
181.083	-120.62
181.302	-91.5
181.522	-33.01
181.742	-15.94
181.961	-28.29
182.181	-38.92
182.401	-52.61
182.621	-14.84
182.84	-116.4
183.06	-56.85
183.279	-58.02
183.499	-16.48
183.719	-259.83
183.938	-1356.23
184.158	1000.79
184.377	471.72
184.597	-71.19
184.816	488.68
185.036	134.49
185.256	-937.78
185.475	40.46
185.695	82.97
185.914	130.29
186.134	89.34
186.353	80.11
186.572	74.82
186.792	119.96
187.011	-455.02
187.231	258.77
187.45	327.66
187.67	32.55
187.889	28.12
188.108	40.88
188.328	33.36
188.547	-79.55
188.766	-99.03
188.986	-191.43
189.205	1072.55
189.424	35.22
189.644	108.24
189.863	111.86
190.082	72.53
190.302	88.5
190.521	82.33
190.74	63.19
190.959	69.54
191.178	58.47
191.398	24.16
191.617	23.5
191.836	-111.36
192.055	-37.14
192.274	-126.68
192.494	-89.25
192.713	-36.03
192.932	-22.41
193.151	-2.14
193.37	-24.08
193.589	-12.78
193.808	11.34
194.027	31.32
194.246	41.09
194.465	27.23
194.685	26.59
194.904	21.06
195.123	33.03
195.342	20.1
195.561	10.39
195.78	51.62
195.999	45.79
196.218	50.66
196.436	30.74
196.655	14.04
196.874	34.05
197.093	45.73
197.312	33.54
197.531	78.69
197.75	130.45
197.969	186.86
198.188	-261.22
198.407	-42.89
198.625	-12.2
198.844	-10.14
199.063	-680.75
199.282	-73.73
199.501	-39.39
199.719	-8.94
199.938	117.84
200.157	228.86
200.376	339.77
200.594	-1902.98
200.813	-1428.7
201.032	-323.51
201.251	-154.38
201.469	-119.13
201.688	-45.86
201.907	-0.38
202.125	56.13
202.344	61.3
202.563	34.32
202.781	-16.27
203	-10.33
203.218	25.44
203.437	-38.69
203.656	20.51
203.874	-13.27
204.093	-27.39
204.311	-36
204.53	-12.91
204.748	-36.03
204.967	-0.42
205.185	-28.41
205.404	-59.49
205.622	-76.68
205.841	0.03
206.059	-114.56
206.278	-108.4
206.496	-119.62
206.715	-95.73
206.933	-116.6
207.151	51.82
207.37	37.36
207.588	39.81
207.806	72.64
208.025	41.33
208.243	-110.98
208.461	-94.33
208.68	-143.71
208.898	-76.45
209.116	-92.25
209.335	-153.24
209.553	-1257.78
209.771	6858.82
209.989	-699.88
210.208	500.1
210.426	725.37
210.644	-196.87
210.862	-52.49
211.081	-25.7
211.299	-34.63
211.517	3.2
211.735	30
211.953	32.24
212.171	28.51
212.39	32.9
212.608	27.1
212.826	51.49
213.044	66.66
213.262	46.17
213.48	24.68
213.698	24.69
213.916	29.3
214.134	-26.62
214.352	-20.92
214.57	22.38
214.788	244.01
215.006	291.24
215.224	203.67
215.442	651.52
215.66	185.66
215.878	380.28
216.096	525.86
216.314	449.36
216.532	648.52
216.75	1149.83
216.968	-79.36
217.185	174
217.403	847.54
217.621	1789.96
217.839	-216.67
218.057	-91.41
218.275	-22.18
218.492	-63.33
218.71	-52.04
218.928	-78.41
219.146	-110.83
219.363	-31.6
219.581	-44.9
219.799	-32.64
220.017	-32.32
220.234	-12.18
220.452	-0.7
220.67	16.05
220.887	26.31
221.105	31.18
221.323	40.15
221.54	56.88
221.758	54.21
221.976	56.34
222.193	58.82
222.411	55.25
222.629	53.7
222.846	44.26
223.064	42.05
223.281	43.67
223.499	44.51
223.716	31.19
223.934	16.8
224.151	14.3
224.369	13.36
224.586	5.54
224.804	18.54
225.021	19.08
225.239	25.98
225.456	12.28
225.674	6.29
225.891	7.48
226.108	23.38
226.326	16.82
226.543	19.31
226.76	12.3
226.978	13.2
227.195	4.99
227.413	0.23
227.63	-1.51
227.847	1.36
228.064	3.3
228.282	6.45
228.499	5.65
228.716	8.16
228.934	8.24
229.151	9.86
229.368	8.41
229.585	9.09
229.802	7.78
230.02	7.16
230.237	5.96
230.454	5.56
230.671	3.04
230.888	2.37
231.105	-0.58
231.323	1.99
231.54	-2.65
231.757	-4.49
231.974	-4.51
232.191	-2.22
232.408	-0.57
232.625	3.21
232.842	3.22
233.059	4.07
233.276	5.87
233.493	7.22
233.71	-0.18
233.927	3.4
234.144	5.47
234.361	1.07
234.578	0.49
234.795	-0.63
235.012	-3.05
235.229	-7.09
235.446	-0.11
235.663	-2.76
235.879	-4.73
236.096	-4.63
236.313	-4.73
236.53	-3.76
236.747	-1.69
236.964	-3.7
237.181	-3.98
237.397	-3.93
237.614	-1.95
237.831	-6.59
238.048	-5.48
238.264	-2.93
238.481	-3.19
238.698	-3.07
238.915	1.51
239.131	-0.45
239.348	3.48
239.565	4.12
239.781	6.86
239.998	6.67
240.215	5.8
240.431	2.55
240.648	4.41
240.865	4.09
241.081	4.5
241.298	3.19
241.514	5.15
241.731	5.8
241.947	7.07
242.164	6.69
242.38	7.09
242.597	7.72
242.814	8.67
243.03	8.11
243.246	9.63
243.463	8.36
243.679	7.37
243.896	8.25
244.112	7.72
244.329	5.83
244.545	6.67
244.762	6.19
244.978	5.93
245.194	6.19
245.411	7.63
245.627	6.56
245.843	7.63
246.06	9.37
246.276	9.07
246.492	10.14
246.709	11.47
246.925	10.7
247.141	10.63
247.357	10.5
247.574	10.75
247.79	10.56
248.006	11.29
248.222	11.37
248.439	11.12
248.655	10.46
248.871	9.48
249.087	8.09
249.303	7.51
249.519	7.54
249.736	6.54
249.952	6.55
250.168	6
250.384	4.18
250.6	4.4
250.816	4.06
251.032	4.71
251.248	6.06
251.464	7.17
251.68	6.37
251.896	6.24
252.112	6.84
252.328	6.31
252.544	6.13
252.76	6.54
252.976	7.01
253.192	6.83
253.408	6.43
253.624	6.33
253.84	6.28
254.056	7.76
254.272	6.75
254.487	6.87
254.703	6.91
254.919	6.95
255.135	7.43
255.351	7.51
255.567	9.64
255.782	7.92
255.998	7.67
256.214	6.81
256.43	5.79
256.646	8.76
256.861	8.06
257.077	10.16
257.293	10.87
257.508	11.39
257.724	10.59
257.94	7.93
258.155	9.97
258.371	8.23
258.587	8.92
258.802	8.96
259.018	7.66
259.234	8.08
259.449	7.58
259.665	6.75
259.88	6.43
260.096	6.34
260.312	6.12
260.527	5.52
260.743	5.79
260.958	5.78
261.174	5.99
261.389	6.64
261.605	7.55
261.82	6.45
262.036	6.64
262.251	5.82
262.466	6.58
262.682	7.36
262.897	7.82
263.113	8.37
263.328	9.1
263.543	9.56
263.759	10.26
263.974	9.29
264.189	10.38
264.405	10.76
264.62	12.23
264.835	11.21
265.051	10.97
265.266	10.5
265.481	10.4
265.696	7.86
265.912	7.7
266.127	7.37
266.342	6.56
266.557	7.38
266.773	6.64
266.988	5.65
267.203	5.31
267.418	5.99
267.633	6.29
267.848	6.14
268.064	6.4
268.279	5.34
268.494	4.99
268.709	5.16
268.924	4
269.139	6.02
269.354	6.14
269.569	5.08
269.784	4.28
269.999	3.62
270.214	3.4
270.429	4
270.644	3.76
270.859	2.79
271.074	2.02
271.289	3.18
271.504	1.23
271.719	2.46
271.934	3.88
272.149	4.38
272.363	5.38
272.578	6.49
272.793	6.19
273.008	6.62
273.223	7.46
273.438	8.86
273.653	7.77
273.867	8.64
274.082	7.52
274.297	7.35
274.512	7.23
274.726	6.31
274.941	5.26
275.156	3.96
275.371	4.28
275.585	3.47
275.8	2.79
276.015	4.22
276.229	4.99
276.444	5.5
276.659	4.84
276.873	4.54
277.088	6.01
277.302	5.86
277.517	7.81
277.732	8.33
277.946	8.44
278.161	8.12
278.375	7.79
278.59	6.18
278.804	6.04
279.019	6.38
279.233	6.62
279.448	6.42
279.662	6.59
279.877	6.73
280.091	6.41
280.306	6.68
280.52	6.6
280.735	6.98
280.949	7.25
281.163	7.24
281.378	7.8
281.592	8.73
281.806	7.85
282.021	7.6
282.235	7.49
282.449	7.09
282.664	6.77
282.878	6.63
283.092	5.9
283.307	6.63
283.521	7.08
283.735	7.58
283.949	5.87
284.164	5.69
284.378	6.09
284.592	5.29
284.806	5.77
285.02	6.23
285.234	6.5
285.449	5.96
285.663	5.44
285.877	5.76
286.091	5.61
286.305	6.38
286.519	7.1
286.733	7.23
286.947	7.87
287.161	6.76
287.375	6.29
287.589	6.12
287.803	7.25
288.017	8.26
288.231	8.14
288.445	7.53
288.659	7.5
288.873	6.92
289.087	5.64
289.301	6.49
289.515	7.31
289.729	7.14
289.943	7.58
290.157	8.02
290.371	7.78
290.584	7.12
290.798	7.09
291.012	7.08
291.226	7.55
291.44	9.15
291.654	7.21
291.867	6.66
292.081	6.83
292.295	6.44
292.509	6.03
292.722	5.42
292.936	5.2
293.15	4.67
293.364	5.24
293.577	6.03
293.791	4.84
294.005	6.86
294.218	8.25
294.432	8.71
294.645	8.18
294.859	7.11
295.073	6.95
295.286	7.69
295.5	7.79
295.713	7.33
295.927	6.57
296.14	6.7
296.354	6.09
296.568	6.32
296.781	7.13
296.994	7.19
297.208	7.57
297.421	7.68
297.635	8
297.848	8.44
298.062	8.57
298.275	7.94
298.489	8.29
298.702	8.32
298.915	7.51
299.129	7.01
299.342	7.31
299.555	6.83
299.769	6.42
299.982	5.66
300.195	5.68
300.409	5.81
300.622	6
300.835	6.18
301.048	6.19
301.262	6.63
301.475	5.35
301.688	4.72
301.901	5.9
302.115	6.76
302.328	6.39
302.541	6.13
302.754	5.98
302.967	7.17
303.18	6.19
303.393	6.06
303.607	5.47
303.82	6.36
304.033	7.38
304.246	8.34
304.459	7.66
304.672	7.97
304.885	8.63
305.098	7.97
305.311	7.08
305.524	7.58
305.737	7.2
305.95	8.27
306.163	8.13
306.376	7.49
306.589	5.78
306.802	5.23
307.015	6.05
307.228	5.52
307.44	5.87
307.653	5.83
307.866	6.28
308.079	7.73
308.292	6.86
308.505	6.75
308.718	5.92
308.93	6.39
309.143	7.41
309.356	6.88
309.569	6.27
309.781	6.57
309.994	6.45
310.207	6.05
310.42	5.75
310.632	5.61
310.845	5.95
311.058	7.26
311.27	7.59
311.483	7.88
311.696	7.9
311.908	8.49
312.121	8.19
312.333	8.45
312.546	8.73
312.759	8.61
312.971	9.45
313.184	9.33
313.396	9.06
313.609	8.06
313.821	7.81
314.034	8.13
314.246	7.6
314.459	8.48
314.671	8.56
314.884	8.15
315.096	7.96
315.309	6.84
315.521	6.45
315.733	6.97
315.946	7.66
316.158	7.99
316.371	7.13
316.583	7.61
316.795	5.91
317.008	5.81
317.22	5.37
317.432	4.81
317.644	5.57
317.857	5.24
318.069	4.47
318.281	4.41
318.494	4.94
318.706	4.5
318.918	4.03
319.13	5.07
319.342	4.23
319.555	4.28
319.767	4.68
319.979	4.16
320.191	4.96
320.403	5.34
320.615	5.11
320.827	3.41
321.039	3.83
321.252	4.62
321.464	5.38
321.676	5.97
321.888	5.57
322.1	5.32
322.312	6.13
322.524	7.05
322.736	6.33
322.948	6.56
323.16	6.7
323.372	6.65
323.584	6.91
323.796	5.76
324.007	6.2
324.219	7.52
324.431	8.1
324.643	8.47
324.855	8.08
325.067	9.06
325.279	9.1
325.491	10.19
325.702	10.78
325.914	9.41
326.126	10.45
326.338	12.11
326.55	11.36
326.761	11.78
326.973	11.37
327.185	11.4
327.396	11.25
327.608	11.53
327.82	10.93
328.032	10.91
328.243	12.88
328.455	12.6
328.666	10.72
328.878	11.67
329.09	11.37
329.301	12.49
329.513	12.6
329.725	11.77
329.936	11.24
330.148	10.79
330.359	11.33
330.571	10.79
330.782	10.44
330.994	11.41
331.205	11.37
331.417	11.43
331.628	10.77
331.84	10.57
332.051	11.16
332.262	12.31
332.474	13.81
332.685	14.07
332.897	14.34
333.108	14.25
333.319	13.44
333.531	13.85
333.742	13.82
333.953	13.95
334.165	15.43
334.376	15.77
334.587	15.25
334.799	12.87
335.01	11.77
335.221	11.17
335.432	11.75
335.644	11.65
335.855	11.28
336.066	11.31
336.277	10.99
336.488	9.66
336.7	8.83
336.911	8.86
337.122	10.64
337.333	11.55
337.544	11.36
337.755	10.66
337.966	10.52
338.177	10.55
338.388	10.77
338.599	9.94
338.811	10.24
339.022	9.57
339.233	8.76
339.444	9.1
339.655	8.48
339.866	8.24
340.076	8.68
340.287	9.46
340.498	9.54
340.709	9.45
340.92	9.85
341.131	9.85
341.342	11.31
341.553	12.13
341.764	10.94
341.975	11.35
342.185	11.83
342.396	12.11
342.607	12.2
342.818	11.54
343.029	11.84
343.239	12.29
343.45	11.72
343.661	11.69
343.872	11.07
344.082	11.37
344.293	11.67
344.504	11.75
344.714	11.25
344.925	11.14
345.136	11.76
345.346	9.98
345.557	9.99
345.768	10.02
345.978	9.84
346.189	9.81
346.399	10.03
346.61	9.82
346.821	9.45
347.031	9.73
347.242	9.63
347.452	9.68
347.663	11.16
347.873	11.39
348.084	12.33
348.294	11.92
348.504	11.98
348.715	12.89
348.925	13.37
349.136	14.09
349.346	14.12
349.557	14.26
349.767	13.52
349.977	13.39
350.188	12.56
350.398	11.64
350.608	11.88
350.819	12.7
351.029	11.87
351.239	11.04
351.449	10.1
351.66	9.74
351.87	9.34
352.08	8.97
352.29	9.37
352.501	9.97
352.711	10.02
352.921	10.13
353.131	9.48
353.341	8.67
353.552	8.88
353.762	9.39
353.972	9.58
354.182	9.46
354.392	9.85
354.602	9.16
354.812	9.09
355.022	8.93
355.232	8.84
355.442	9.19
355.652	9.71
355.862	9.49
356.072	8.9
356.282	9.5
356.492	9.48
356.702	9.56
356.912	9.48
357.122	9.49
357.332	10.02
357.542	9.85
357.752	9.7
357.962	10.16
358.171	10.18
358.381	11.1
358.591	10.48
358.801	10.59
359.011	10.93
359.221	11.12
359.43	11.18
359.64	10.95
359.85	11.22
360.06	10.8
360.269	10.65
360.479	10.61
360.689	10.19
360.899	9.93
361.108	9.77
361.318	9.43
361.528	9.34
361.737	9.49
361.947	9.46
362.156	9.28
362.366	9.56
362.576	9.07
362.785	8.79
362.995	8.64
363.204	9.29
363.414	9.16
363.623	9.13
363.833	9.21
364.042	8.88
364.252	8.93
364.461	8.74
364.671	7.86
364.88	8.37
365.09	9.11
365.299	9.2
365.509	9.13
365.718	9.04
365.927	9
366.137	8.93
366.346	9.56
366.555	9.23
366.765	9.77
366.974	10.59
367.183	10.26
367.393	9.57
367.602	9.8
367.811	9.87
368.021	10.4
368.23	10.18
368.439	10.29
368.648	9.76
368.857	10.22
369.067	9.9
369.276	10.07
369.485	10.14
369.694	10.19
369.903	9.79
370.112	9.27
370.321	8.86
370.531	9.24
370.74	8.86
370.949	8.72
371.158	8.43
371.367	8.64
371.576	7.93
371.785	8.07
371.994	7.83
372.203	7.88
372.412	8.05
372.621	7.87
372.83	8.03
373.039	8.21
373.248	8.21
373.457	8.47
373.666	8.14
373.874	8.29
374.083	8.18
374.292	8.5
374.501	8.65
374.71	8.62
374.919	8.91
375.128	8.43
375.336	8.22
375.545	7.94
375.754	7.63
375.963	7.95
376.171	8.19
376.38	7.83
376.589	7.71
376.798	7.33
377.006	7.24
377.215	7.35
377.424	7.48
377.632	8.07
377.841	8.22
378.05	8.17
378.258	7.52
378.467	7.44
378.675	7.88
378.884	8.26
379.093	8.62
379.301	8.72
379.51	8.56
379.718	8.53
379.927	8.28
380.135	8.18
380.344	7.88
380.552	8.25
380.761	8.03
380.969	8.02
381.177	7.71
381.386	8.15
381.594	8.25
381.803	7.85
382.011	7.74
382.219	7.82
382.428	8.08
382.636	8.41
382.845	8.57
383.053	8.63
383.261	8.23
383.469	8
383.678	7.5
383.886	7.24
384.094	7.64
384.302	7.7
384.511	7.22
384.719	6.82
384.927	7.06
385.135	6.95
385.343	7.25
385.552	7.38
385.76	7.67
385.968	7.39
386.176	7.2
386.384	6.99
386.592	6.94
386.8	7.27
387.008	7.3
387.216	7.08
387.424	7
387.633	6.76
387.841	6.39
388.049	6.23
388.257	6.37
388.465	6.42
388.672	6.38
388.88	6.12
389.088	6.03
389.296	6.38
389.504	6.29
389.712	6.31
389.92	6.22
390.128	6.74
390.336	6.73
390.544	6.9
390.751	6.77
390.959	7.01
391.167	7.38
391.375	7.06
391.583	6.71
391.79	6.63
391.998	7
392.206	7.34
392.414	7.32
392.621	7.28
392.829	7.15
393.037	7.51
393.244	7.42
393.452	7.23
393.66	7.3
393.867	7.3
394.075	7.54
394.283	6.89
394.49	6.53
394.698	6.23
394.905	6.37
395.113	6.51
395.32	6.21
395.528	6.49
395.735	6.66
395.943	6.99
396.15	6.69
396.358	6.45
396.565	6.68
396.773	6.61
396.98	6.83
397.188	6.75
397.395	6.5
397.602	6.8
397.81	6.25
398.017	6.09
398.225	5.66
398.432	5.88
398.639	5.83
398.847	6.01
399.054	5.98
399.261	6
399.468	6.12
399.676	5.88
399.883	5.45
400.09	5.78
400.297	6.09
400.505	6.34
400.712	6.85
400.919	6.88
401.126	6.72
401.333	6.93
401.54	6.79
401.748	6.96
401.955	7.08
402.162	7.37
402.369	7.38
402.576	7.31
402.783	7.13
402.99	6.76
403.197	6.92
403.404	6.83
403.611	7.08
403.818	7.11
404.025	6.81
404.232	6.86
404.439	6.99
404.646	7.01
404.853	6.77
405.06	6.84
405.267	7.11
405.474	6.99
405.681	7.1
405.887	7.19
406.094	6.95
406.301	7.18
406.508	7.33
406.715	7.07
406.922	6.54
407.128	6.34
407.335	6.34
407.542	6.31
407.749	6.41
407.955	6.46
408.162	5.9
408.369	6.23
408.575	6.04
408.782	6
408.989	6.08
409.195	6.33
409.402	6.67
409.609	6.67
409.815	6.45
410.022	6.48
410.228	6.39
410.435	6.53
410.642	6.38
410.848	6.36
411.055	6.19
411.261	6.29
411.468	6.4
411.674	6.44
411.881	6.57
412.087	6.57
412.294	6.39
412.5	6.21
412.706	6.22
412.913	6.37
413.119	6.29
413.326	6.25
413.532	6.39
413.738	6.32
413.945	6.22
414.151	6.21
414.357	6.31
414.564	6.25
414.77	6.54
414.976	6.65
415.182	6.44
415.389	6.44
415.595	6.49
415.801	6.17
416.007	6.12
416.214	6.16
416.42	6.05
416.626	5.7
416.832	6.17
417.038	6.09
417.244	5.89
417.45	6.07
417.657	6.23
417.863	6.37
418.069	6.48
418.275	6.61
418.481	6.57
418.687	6.57
418.893	6.8
419.099	6.55
419.305	6.6
419.511	6.83
419.717	6.68
419.923	6.53
420.129	6.42
420.335	6.37
420.541	6.12
420.746	6.07
420.952	6.09
421.158	5.98
421.364	5.95
421.57	5.84
421.776	5.74
421.982	5.85
422.187	5.97
422.393	5.9
422.599	5.76
422.805	5.95
423.01	5.96
423.216	5.84
423.422	5.74
423.628	5.8
423.833	5.78
424.039	5.81
424.245	5.68
424.45	5.65
424.656	5.84
424.862	6.02
425.067	5.87
425.273	5.96
425.478	6.04
425.684	6.23
425.889	6.3
426.095	6.42
426.301	6.34
426.506	6.43
426.712	6.32
426.917	6.28
427.123	6.28
427.328	6.36
427.533	6.32
427.739	6.38
427.944	6.37
428.15	6.25
428.355	6.09
428.561	6.17
428.766	6.17
428.971	6.22
429.177	6.17
429.382	6.06
429.587	6.3
429.793	6.28
429.998	6.03
430.203	5.86
430.408	5.74
430.614	5.94
430.819	5.72
431.024	5.78
431.229	5.77
431.434	5.59
431.64	5.57
431.845	5.43
432.05	5.42
432.255	5.6
432.46	5.69
432.665	5.79
432.87	5.64
433.076	5.73
433.281	5.49
433.486	5.6
433.691	5.86
433.896	5.98
434.101	5.98
434.306	5.93
434.511	6
434.716	6.09
434.921	5.96
435.126	6.09
435.331	6.08
435.535	6.22
435.74	6.01
435.945	5.91
436.15	5.71
436.355	5.87
436.56	5.96
436.765	5.99
436.97	5.9
437.174	5.98
437.379	5.94
437.584	5.87
437.789	5.91
437.993	5.95
438.198	5.82
438.403	5.78
438.608	5.82
438.812	5.76
439.017	5.7
439.222	5.7
439.426	5.69
439.631	5.67
439.836	5.9
440.04	5.9
440.245	6.07
440.45	6.13
440.654	6.3
440.859	6.17
441.063	6.37
441.268	6.46
441.472	6.5
441.677	6.43
441.881	6.46
442.086	6.32
442.29	6.27
442.495	6.07
442.699	6.12
442.904	6.21
443.108	6.26
443.312	6.04
443.517	5.87
443.721	5.94
443.925	6.13
444.13	6.16
444.334	6.26
444.538	6.31
444.743	6.54
444.947	6.55
445.151	6.43
445.356	6.54
445.56	6.56
445.764	6.53
445.968	6.53
446.173	6.49
446.377	6.44
446.581	6.42
446.785	6.44
446.989	6.32
447.193	6.23
447.398	6.03
447.602	5.92
447.806	5.88
448.01	5.9
448.214	5.85
448.418	5.74
448.622	5.72
448.826	5.8
449.03	5.86
449.234	5.76
449.438	5.81
449.642	5.92
449.846	5.77
450.05	5.89
450.254	5.85
450.458	5.67
450.662	5.75
450.866	5.81
451.069	5.5
451.273	5.3
451.477	5.46
451.681	5.37
451.885	5.47
452.089	5.63
452.292	5.54
452.496	5.62
452.7	5.62
452.904	5.57
453.107	5.59
453.311	5.95
453.515	5.86
453.719	5.91
453.922	5.98
454.126	5.94
454.33	5.95
454.533	5.92
454.737	5.98
454.94	6.03
455.144	6.08
455.348	6.09
455.551	5.94
455.755	6.04
455.958	5.87
456.162	5.84
456.365	5.82
456.569	5.7
456.772	5.68
456.976	5.69
457.179	5.8
457.383	5.73
457.586	5.66
457.79	5.68
457.993	5.65
458.196	5.6
458.4	5.66
458.603	5.8
458.807	5.83
459.01	5.93
459.213	5.89
459.417	5.86
459.62	5.84
459.823	5.85
460.026	5.77
460.23	5.87
460.433	5.85
460.636	5.71
460.839	5.62
461.042	5.67
461.246	5.54
461.449	5.34
461.652	5.34
461.855	5.42
462.058	5.33
462.261	5.49
462.464	5.4
462.668	5.49
462.871	5.71
463.074	5.64
463.277	5.53
463.48	5.56
463.683	5.83
463.886	5.8
464.089	5.7
464.292	5.76
464.495	5.68
464.698	5.57
464.901	5.63
465.104	5.62
465.306	5.79
465.509	5.93
465.712	6.08
465.915	6.02
466.118	6.13
466.321	6.2
466.524	6.3
466.726	6.23
466.929	6.33
467.132	6.26
467.335	6.12
467.538	6
467.74	5.91
467.943	5.84
468.146	5.82
468.348	5.73
468.551	5.52
468.754	5.46
468.956	5.5
469.159	5.6
469.362	5.71
469.564	5.78
469.767	5.95
469.969	6
470.172	6
470.375	6.03
470.577	6.07
470.78	6.48
470.982	6.58
471.185	6.5
471.387	6.28
471.59	6.44
471.792	6.47
471.995	6.35
472.197	6.32
472.399	6.41
472.602	6.54
472.804	6.37
473.007	6.21
473.209	6.05
473.411	6.12
473.614	6.29
473.816	6.24
474.018	6.26
474.22	6.27
474.423	6.31
474.625	6.14
474.827	6
475.03	6.11
475.232	6.03
475.434	6.16
475.636	6.1
475.838	6.12
476.04	5.93
476.243	5.82
476.445	5.71
476.647	5.56
476.849	5.58
477.051	5.59
477.253	5.53
477.455	5.62
477.657	5.56
477.859	5.61
478.061	5.47
478.263	5.43
478.465	5.38
478.667	5.5
478.869	5.68
479.071	5.69
479.273	5.62
479.475	5.53
479.677	5.48
479.879	5.5
480.081	5.52
480.283	5.66
480.485	5.74
480.686	5.82
480.888	5.83
481.09	5.77
481.292	5.85
481.494	5.89
481.695	6.16
481.897	6.23
482.099	6.13
482.301	6.1
482.502	6.08
482.704	6.07
482.906	6.13
483.107	6.16
483.309	6.14
483.511	6.13
483.712	6.12
483.914	6.1
484.115	6.05
484.317	6.09
484.519	6.13
484.72	6.15
484.922	6.12
485.123	6.15
485.325	6.13
485.526	6.14
485.728	6.16
485.929	6.25
486.131	6.18
486.332	6.24
486.534	6.24
486.735	6.19
486.936	6.19
487.138	6.2
487.339	6.09
487.541	6.13
487.742	6.1
487.943	6.06
488.144	5.95
488.346	5.98
488.547	6.02
488.748	5.98
488.95	6.02
489.151	5.96
489.352	5.92
489.553	6.01
489.755	5.94
489.956	6
490.157	5.99
490.358	6.06
490.559	6.1
490.76	6.09
490.961	6.18
491.163	6.14
491.364	6.2
491.565	6.3
491.766	6.24
491.967	6.27
492.168	6.22
492.369	6.25
492.57	6.2
492.771	6.18
492.972	6.11
493.173	6.06
493.374	6.12
493.575	6.02
493.776	5.91
493.976	5.83
494.177	5.84
494.378	5.93
494.579	5.8
494.78	5.8
494.981	5.76
495.182	5.8
495.382	5.77
495.583	5.75
495.784	5.79
495.985	5.9
496.185	5.99
496.386	6.01
496.587	5.99
496.788	6
496.988	6.22
497.189	6.2
497.39	6.32
497.59	6.37
497.791	6.35
497.992	6.43
498.192	6.44
498.393	6.56
498.593	6.51
498.794	6.55
498.994	6.61
499.195	6.44
499.395	6.44
499.596	6.3
499.796	6.24
499.997	6.22
500.197	6.15
500.398	6.14
500.598	5.99
500.799	6.03
500.999	5.87
501.199	5.93
501.4	6.04
501.6	5.97
501.801	5.88
502.001	5.84
502.201	5.88
502.402	5.96
502.602	5.92
502.802	6.04
503.002	6.08
503.203	6.2
503.403	6.15
503.603	6.04
503.803	6.15
504.003	6.28
504.204	6.42
504.404	6.37
504.604	6.31
504.804	6.43
505.004	6.31
505.204	6.3
505.404	6.23
505.604	6.38
505.804	6.37
506.005	6.42
506.205	6.43
506.405	6.36
506.605	6.52
506.805	6.65
507.005	6.66
507.204	6.79
507.404	6.82
507.604	6.97
507.804	6.91
508.004	7.18
508.204	7.19
508.404	7.18
508.604	7.22
508.804	7.05
509.003	7.13
509.203	6.98
509.403	6.92
509.603	6.82
509.803	6.92
510.002	6.86
510.202	6.6
510.402	6.62
510.602	6.6
510.801	6.61
511.001	6.62
511.201	6.52
511.4	6.63
511.6	6.7
511.8	6.76
511.999	6.76
512.199	6.9
512.398	6.97
512.598	7.05
512.797	7.17
512.997	7.16
513.197	7.28
513.396	7.37
513.596	7.41
513.795	7.33
513.994	7.38
514.194	7.38
514.393	7.31
514.593	7.49
514.792	7.56
514.992	7.5
515.191	7.66
515.39	7.63
515.59	7.66
515.789	7.58
515.988	7.73
516.188	7.74
516.387	7.77
516.586	7.89
516.786	7.81
516.985	7.72
517.184	7.75
517.383	7.62
517.582	7.67
517.782	7.68
517.981	7.78
518.18	7.68
518.379	7.74
518.578	7.66
518.777	7.59
518.976	7.58
519.176	7.67
519.375	7.76
519.574	7.82
519.773	7.92
519.972	7.94
520.171	7.95
520.37	8.08
520.569	8.09
520.768	8.18
520.967	8.2
521.166	8.24
521.365	8.31
521.564	8.19
521.762	8.3
521.961	8.28
522.16	8.24
522.359	8.18
522.558	8.23
522.757	8.22
522.956	8.17
523.154	8.26
523.353	8.34
523.552	8.14
523.751	8.25
523.949	8.26
524.148	8.2
524.347	8.42
524.546	8.62
524.744	8.76
524.943	8.92
525.142	8.97
525.34	9.04
525.539	9
525.737	9.11
525.936	9.27
526.135	9.3
526.333	9.4
526.532	9.34
526.73	9.36
526.929	9.31
527.127	9.32
527.326	9.36
527.524	9.47
527.723	9.55
527.921	9.63
528.12	9.58
528.318	9.59
528.516	9.58
528.715	9.63
528.913	9.66
529.112	9.66
529.31	9.67
529.508	9.69
529.707	9.63
529.905	9.69
530.103	9.74
530.301	9.73
530.5	9.79
530.698	9.83
530.896	9.86
531.094	9.89
531.293	9.94
531.491	10.02
531.689	10.06
531.887	10.21
532.085	10.21
532.283	10.19
532.481	10.29
532.68	10.27
532.878	10.38
533.076	10.42
533.274	10.43
533.472	10.45
533.67	10.49
533.868	10.52
534.066	10.48
534.264	10.46
534.462	10.44
534.66	10.53
534.858	10.56
535.056	10.49
535.253	10.53
535.451	10.59
535.649	10.68
535.847	10.74
536.045	10.79
536.243	10.89
536.441	11.13
536.638	11.23
536.836	11.29
537.034	11.36
537.232	11.5
537.43	11.54
537.627	11.56
537.825	11.59
538.023	11.63
538.22	11.71
538.418	11.77
538.616	11.69
538.813	11.75
539.011	11.83
539.209	12.03
539.406	12.25
539.604	12.32
539.801	12.45
539.999	12.59
540.196	12.73
540.394	12.75
540.591	12.78
540.789	12.82
540.986	12.9
541.184	12.79
541.381	12.84
541.579	12.82
541.776	12.87
541.974	12.94
542.171	12.9
542.368	12.85
542.566	12.94
542.763	12.99
542.96	13
543.158	13.08
543.355	13.21
543.552	13.28
543.75	13.33
543.947	13.4
544.144	13.35
544.341	13.54
544.539	13.64
544.736	13.74
544.933	13.77
545.13	13.95
545.327	13.93
545.524	13.97
545.722	13.99
545.919	14.05
546.116	14.15
546.313	14.35
546.51	14.3
546.707	14.48
546.904	14.53
547.101	14.78
547.298	14.85
547.495	15
547.692	15.11
547.889	15.22
548.086	15.28
548.283	15.45
548.48	15.61
548.677	15.68
548.874	15.77
549.07	15.95
549.267	15.9
549.464	16.16
549.661	16.22
549.858	16.57
550.055	16.53
550.251	16.74
550.448	16.72
550.645	16.98
550.842	17.24
551.038	17.35
551.235	17.5
551.432	17.58
551.628	17.55
551.825	17.69
552.022	17.41
552.218	17.65
552.415	17.82
552.612	17.81
552.808	17.69
553.005	17.83
553.201	17.88
553.398	17.95
553.594	17.86
553.791	17.99
553.987	18.12
554.184	18.33
554.38	18.3
554.577	18.27
554.773	18.46
554.97	18.57
555.166	18.62
555.362	18.58
555.559	18.47
555.755	18.75
555.952	18.9
556.148	18.91
556.344	19.1
556.541	19.32
556.737	19.39
556.933	19.47
557.129	19.45
557.326	19.55
557.522	19.76
557.718	19.76
557.914	20.1
558.11	19.94
558.307	20.03
558.503	20.08
558.699	20.21
558.895	20.28
559.091	20.34
559.287	20.68
559.483	20.82
559.679	21
559.876	21.24
560.072	21.08
560.268	21.42
560.464	21.54
560.66	21.68
560.856	21.72
561.052	21.79
561.247	21.92
561.443	21.86
561.639	21.78
561.835	21.94
562.031	22.04
562.227	22.08
562.423	22.16
562.619	22.36
562.815	22.38
563.01	22.5
563.206	22.82
563.402	23.06
563.598	23.15
563.793	23.4
563.989	23.38
564.185	23.44
564.381	23.73
564.576	23.82
564.772	23.96
564.968	24.05
565.163	23.95
565.359	23.9
565.555	23.9
565.75	24.06
565.946	24.24
566.141	24.29
566.337	24.52
566.532	24.57
566.728	24.59
566.923	24.56
567.119	24.65
567.314	24.82
567.51	24.8
567.705	24.89
567.901	24.83
568.096	24.85
568.292	24.79
568.487	24.69
568.682	24.84
568.878	25.01
569.073	25.24
569.268	25.36
569.464	25.62
569.659	25.84
569.854	25.94
570.05	26.09
570.245	26.09
570.44	26.4
570.635	26.45
570.831	26.42
571.026	26.38
571.221	26.32
571.416	26.44
571.611	26.53
571.806	26.5
572.002	26.65
572.197	26.65
572.392	26.75
572.587	26.86
572.782	27.11
572.977	27.08
573.172	27.32
573.367	27.33
573.562	27.42
573.757	27.31
573.952	27.38
574.147	27.33
574.342	27.61
574.537	27.69
574.732	27.66
574.927	27.51
575.121	27.77
575.316	27.76
575.511	27.9
575.706	27.88
575.901	27.98
576.096	28.27
576.29	28.33
576.485	28.37
576.68	28.2
576.875	28.1
577.069	28.2
577.264	28.05
577.459	28.07
577.654	28.06
577.848	28.19
578.043	28.43
578.238	28.33
578.432	28.3
578.627	28.18
578.821	28.5
579.016	28.65
579.21	28.73
579.405	28.78
579.6	28.79
579.794	28.97
579.989	29.03
580.183	28.87
580.378	28.85
580.572	29.08
580.766	29.29
580.961	29.06
581.155	29.16
581.35	29.24
581.544	29.43
581.738	29.41
581.933	29.42
582.127	29.23
582.321	29.33
582.516	29.43
582.71	29.46
582.904	29.41
583.099	29.52
583.293	29.57
583.487	29.64
583.681	29.72
583.875	29.79
584.07	29.77
584.264	29.86
584.458	29.78
584.652	29.67
584.846	29.8
585.04	29.88
585.234	30.2
585.428	30.4
585.623	30.37
585.817	30.29
586.011	30.27
586.205	30.38
586.399	30.62
586.593	30.79
586.787	30.91
586.981	30.89
587.174	30.81
587.368	30.57
587.562	30.44
587.756	30.64
587.95	30.83
588.144	30.92
588.338	30.84
588.532	30.78
588.725	30.89
588.919	30.8
589.113	31.05
589.307	31.12
589.501	31.27
589.694	31.2
589.888	31.53
590.082	31.66
590.275	31.78
590.469	31.78
590.663	31.96
590.856	31.95
591.05	32.06
591.244	31.84
591.437	31.84
591.631	32.08
591.824	32.23
592.018	31.91
592.212	31.73
592.405	31.7
592.599	31.98
592.792	31.84
592.986	31.94
593.179	32.09
593.372	32.23
593.566	32.39
593.759	32.22
593.953	32.28
594.146	32.36
594.339	32.56
594.533	32.49
594.726	32.33
594.92	32.22
595.113	32.18
595.306	32.43
595.499	32.44
595.693	32.44
595.886	32.57
596.079	32.64
596.272	32.63
596.466	32.73
596.659	32.84
596.852	32.83
597.045	32.95
597.238	32.99
597.431	32.73
597.624	32.61
597.818	32.65
598.011	32.77
598.204	32.73
598.397	32.85
598.59	32.72
598.783	32.7
598.976	32.64
599.169	32.64
599.362	32.54
599.555	32.36
599.748	32.62
599.941	32.69
600.134	32.4
600.326	32.49
600.519	32.25
600.712	32.09
600.905	32.14
601.098	32.45
601.291	32.61
601.483	32.61
601.676	32.9
601.869	32.84
602.062	32.82
602.255	33
602.447	32.98
602.64	33.25
602.833	33.26
603.025	33.47
603.218	33.15
603.411	32.92
603.603	33.03
603.796	33.06
603.989	32.97
604.181	32.97
604.374	32.92
604.566	32.97
604.759	32.71
604.951	32.94
605.144	32.87
605.336	33.11
605.529	33.17
605.721	33.13
605.914	33.02
606.106	32.94
606.299	32.86
606.491	32.88
606.683	32.76
606.876	32.96
607.068	32.87
607.26	32.65
607.453	32.62
607.645	32.57
607.837	32.7
608.03	32.98
608.222	33.16
608.414	33.11
608.606	33.3
608.799	33.52
608.991	33.56
609.183	33.81
609.375	34.05
609.567	34.05
609.759	34.14
609.952	34.18
610.144	34.12
610.336	34.18
610.528	34.28
610.72	34.3
610.912	34.37
611.104	34.53
611.296	34.2
611.488	34.08
611.68	34.14
611.872	34.24
612.064	34.14
612.256	34.01
612.448	34.07
612.64	34.23
612.832	34.13
613.023	33.88
613.215	33.6
613.407	33.46
613.599	33.41
613.791	33.28
613.983	33.43
614.174	33.34
614.366	33.31
614.558	33.36
614.75	33.19
614.941	33.23
615.133	33.38
615.325	33.44
615.516	33.86
615.708	33.92
615.9	33.97
616.091	33.58
616.283	33.92
616.475	34.15
616.666	34.15
616.858	34.56
617.049	34.66
617.241	34.76
617.432	34.75
617.624	34.64
617.815	35.02
618.007	35.01
618.198	35.11
618.39	34.85
618.581	35.06
618.773	35.11
618.964	34.73
619.155	34.53
619.347	34.33
619.538	34.67
619.729	34.82
619.921	34.57
620.112	34.5
620.303	34.72
620.494	34.71
620.686	34.3
620.877	34.22
621.068	34.2
621.259	34.38
621.451	34.55
621.642	34.37
621.833	34.42
622.024	34.43
622.215	34.46
622.406	34.45
622.597	34.28
622.788	34.28
622.98	34.1
623.171	34.37
623.362	34.28
623.553	34.31
623.744	34.31
623.935	34.31
624.126	34.43
624.317	34.6
624.508	34.54
624.698	34.99
624.889	35.03
625.08	35.28
625.271	35.06
625.462	35.14
625.653	35
625.844	35.03
626.034	35.02
626.225	35.02
626.416	34.9
626.607	35
626.798	35.11
626.988	35.07
627.179	35.03
627.37	35.03
627.56	34.96
627.751	35.05
627.942	35.15
628.132	35.01
628.323	34.83
628.514	34.95
628.704	34.85
628.895	34.41
629.085	34.66
629.276	34.76
629.466	34.91
629.657	35.06
629.847	35.19
630.038	35.22
630.228	35.4
630.419	35.49
630.609	35.32
630.8	35.63
630.99	36.19
631.181	36.21
631.371	36.08
631.561	35.94
631.752	35.73
631.942	35.54
632.132	35.06
632.323	35.06
632.513	35.11
632.703	35.32
632.893	34.84
633.084	34.75
633.274	34.95
633.464	35.04
633.654	35.12
633.844	35.24
634.034	35.33
634.225	35.73
634.415	35.77
634.605	35.44
634.795	35.5
634.985	35.57
635.175	35.28
635.365	35.03
635.555	35.08
635.745	34.96
635.935	35.19
636.125	35.06
636.315	34.96
636.505	35
636.695	35.19
636.885	35.01
637.075	35.23
637.265	35.57
637.455	35.79
637.644	35.82
637.834	35.98
638.024	35.64
638.214	35.77
638.404	35.99
638.593	35.84
638.783	36.08
638.973	36.23
639.163	36.23
639.352	36.06
639.542	35.84
639.732	35.94
639.921	35.93
640.111	36.09
640.301	35.96
640.49	35.94
640.68	35.65
640.87	35.73
641.059	35.91
641.249	36.19
641.438	36.08
641.628	35.82
641.817	35.91
642.007	35.8
642.196	35.87
642.386	35.93
642.575	35.8
642.764	36.3
642.954	36.17
643.143	36.02
643.333	35.86
643.522	36.01
643.711	36.25
643.901	35.79
644.09	35.92
644.279	36.05
644.469	35.85
644.658	35.88
644.847	35.62
645.036	35.31
645.226	35.69
645.415	35.3
645.604	35.18
645.793	35.23
645.982	35.37
646.171	35.36
646.361	35.13
646.55	35.28
646.739	35.11
646.928	35.58
647.117	36.25
647.306	36
647.495	35.97
647.684	36.24
647.873	36.41
648.062	36.62
648.251	36.47
648.44	36.23
648.629	36.51
648.818	37.03
649.007	36.64
649.196	36.17
649.384	36.18
649.573	36.51
649.762	36.32
649.951	36.41
650.14	36.33
650.328	36.56
650.517	36.73
650.706	36.65
650.895	36.15
651.083	36.01
651.272	35.64
651.461	35.4
651.65	35.44
651.838	35.5
652.027	35.04
652.216	34.98
652.404	34.98
652.593	34.62
652.781	34.24
652.97	34.38
653.158	34.57
653.347	35.23
653.535	35.23
653.724	34.9
653.912	35.02
654.101	35.32
654.289	35.31
654.478	35.47
654.666	35.8
654.855	35.99
655.043	36.16
655.231	35.92
655.42	35.63
655.608	35.75
655.796	36.28
655.985	36.14
656.173	36.09
656.361	36.07
656.55	35.58
656.738	35.69
656.926	35.89
657.114	36.2
657.302	36.26
657.491	36.31
657.679	36.25
657.867	36.05
658.055	36.14
658.243	36.21
658.431	36.35
658.619	36.37
658.807	36.05
658.996	35.99
659.184	35.51
659.372	35.56
659.56	35.68
659.748	36.05
659.936	36.13
660.124	36.08
660.311	35.95
660.499	35.55
660.687	35.8
660.875	36.07
661.063	36.13
661.251	36.11
661.439	35.94
661.627	36.06
661.814	35.78
662.002	35.36
662.19	35.59
662.378	35.84
662.565	35.97
662.753	35.83
662.941	36.11
663.129	35.97
663.316	36.09
663.504	36.54
663.692	36.32
663.879	36.51
664.067	36.64
664.254	36.39
664.442	36.37
664.63	36.43
664.817	36.32
665.005	35.98
665.192	36.13
665.38	35.69
665.567	35.7
665.755	35.8
665.942	35.31
666.13	35.75
666.317	35.46
666.504	35.42
666.692	35.27
666.879	35.64
667.067	35.74
667.254	35.91
667.441	36.3
667.629	36.2
667.816	36.08
668.003	36.17
668.19	36.26
668.378	36.56
668.565	36.51
668.752	37.18
668.939	37.14
669.127	37.03
669.314	36.6
669.501	36.97
669.688	36.92
669.875	37.22
670.062	36.99
670.249	36.59
670.436	36.39
670.623	36.72
670.81	36.21
670.997	36.39
671.184	36.15
671.371	36.74
671.558	36.38
671.745	36.46
671.932	36.43
672.119	36.48
672.306	36.75
672.493	36.86
672.68	36.46
672.867	37.15
673.054	36.95
673.24	37.59
673.427	37.55
673.614	37.97
673.801	38.28
673.988	38.02
674.174	38.52
674.361	38.58
674.548	38.88
674.734	38.97
674.921	38.59
675.108	38.44
675.294	38.16
675.481	37.88
675.668	37.32
675.854	37.08
676.041	36.88
676.227	36.71
676.414	36.8
676.601	36.36
676.787	36
676.974	35.66
677.16	35.82
677.347	35.63
677.533	35.22
677.719	35.63
677.906	35.38
678.092	35.5
678.279	35.73
678.465	35.67
678.651	36.17
678.838	36.39
679.024	36.66
679.21	36.51
679.397	36.75
679.583	36.99
679.769	37.02
679.955	37.11
680.142	37.15
680.328	37.09
680.514	36.94
680.7	36.67
680.886	36.76
681.073	36.53
681.259	36.61
681.445	36.75
681.631	36.8
681.817	36.89
682.003	36.84
682.189	37.05
682.375	37
682.561	37.27
682.747	37.49
682.933	37.29
683.119	37.47
683.305	37.26
683.491	37.24
683.677	37.4
683.863	37.31
684.049	37.46
684.235	37.17
684.42	37.08
684.606	36.88
684.792	36.52
684.978	36.9
685.164	37.1
685.349	37.23
685.535	36.85
685.721	36.73
685.907	36.77
686.092	36.77
686.278	37
686.464	37.51
686.649	37.44
686.835	37.43
687.021	37.44
687.206	37.22
687.392	37.26
687.577	37.78
687.763	37.64
687.948	37.23
688.134	37.07
688.319	37.1
688.505	36.89
688.69	36.9
688.876	36.98
689.061	36.49
689.247	36.43
689.432	36.6
689.618	36.11
689.803	36.13
689.988	36.57
690.174	37.1
690.359	36.99
690.544	36.66
690.73	36.89
690.915	36.74
691.1	36.7
691.285	37.16
691.471	36.88
691.656	36.99
691.841	37.06
692.026	36.91
692.211	36.38
692.396	36.26
692.582	35.74
692.767	35.36
692.952	35.26
693.137	35.86
693.322	35.86
693.507	36.12
693.692	36.27
693.877	36.13
694.062	36.24
694.247	36.42
694.432	36.94
694.617	37.89
694.802	38.01
694.987	38.71
695.172	38.02
695.357	37.64
695.541	37.65
695.726	37.89
695.911	38.32
696.096	38.04
696.281	37.95
696.466	37.97
696.65	37.39
696.835	37.74
697.02	37.37
697.204	37.81
697.389	37.97
697.574	38.06
697.759	37.59
697.943	37.52
698.128	37.51
698.312	37.37
698.497	37.17
698.682	37.25
698.866	37.32
699.051	37.69
699.235	37.79
699.42	37.72
699.604	37.63
699.789	37.81
699.973	37.64
700.158	37.59
700.342	37.48
700.527	37.84
700.711	38.1
700.895	37.8
701.08	37.37
701.264	37.31
701.448	37.5
701.633	37.28
701.817	37.16
702.001	37.09
702.186	37.55
702.37	37.82
702.554	37.34
702.738	36.67
702.923	36.79
703.107	36.47
703.291	36.52
703.475	36.1
703.659	36.42
703.843	37.05
704.027	37.45
704.212	37.05
704.396	37.78
704.58	38.08
704.764	38.52
704.948	37.89
705.132	38.5
705.316	38.01
705.5	38.68
705.684	38.72
705.868	38.4
706.052	38.52
706.235	38.93
706.419	38.15
706.603	38.66
706.787	38.77
706.971	39.04
707.155	39.05
707.339	39.57
707.522	38.77
707.706	38.3
707.89	38.24
708.074	38.22
708.257	37.82
708.441	38.61
708.625	38.07
708.808	37.92
708.992	38.21
709.176	38.17
709.359	37.64
709.543	38.13
709.727	38.34
709.91	38.18
710.094	37.8
710.277	37.77
710.461	37.01
710.644	36.65
710.828	36.84
711.011	36.74
711.195	36.38
711.378	36.71
711.562	36.52
711.745	36.53
711.928	36.22
712.112	36.3
712.295	36.48
712.478	36.05
712.662	36.5
712.845	36.51
713.028	36.62
713.212	37.04
713.395	37.23
713.578	36.86
713.761	37.19
713.945	37.45
714.128	37.68
714.311	37.83
714.494	38.51
714.677	38.07
714.86	38.13
715.043	38.26
715.227	37.88
715.41	37.96
715.593	38.58
715.776	38.11
715.959	38.61
716.142	38.35
716.325	38.17
716.508	38.12
716.691	38.38
716.874	38.29
717.057	38.53
717.239	38.41
717.422	38.12
717.605	38.19
717.788	38.97
717.971	38.99
718.154	39.95
718.337	40.16
718.519	39.66
718.702	39.97
718.885	39.7
719.068	38.95
719.25	40.04
719.433	40.56
719.616	39.83
719.798	39.13
719.981	39.71
720.164	38.58
720.346	38.11
720.529	37.14
720.712	35.65
720.894	35.69
721.077	35.27
721.259	34.94
721.442	34.13
721.624	34.47
721.807	34.26
721.989	33.03
722.172	33.06
722.354	33.07
722.537	34.98
722.719	36.39
722.901	37.52
723.084	38.12
723.266	37.67
723.448	37.08
723.631	38
723.813	38.25
723.995	39.18
724.178	38.37
724.36	37.98
724.542	37.28
724.724	36.85
724.907	36.76
725.089	36.75
725.271	36.98
725.453	37.59
725.635	36.79
725.817	37.5
725.999	36.52
726.181	37.5
726.364	38.2
726.546	38.7
726.728	38.76
726.91	38.48
727.092	38.37
727.274	38.18
727.456	37.91
727.638	37.83
727.819	37.37
728.001	37.78
728.183	37.22
728.365	37.84
728.547	38.15
728.729	38.21
728.911	38.42
729.093	38.8
729.274	38.72
729.456	39.21
729.638	38.81
729.82	38.94
730.001	38.89
730.183	39.24
730.365	38.78
730.546	38.2
730.728	37.89
730.91	37.57
731.091	36.96
731.273	36.84
731.455	36.57
731.636	37.19
731.818	36.53
731.999	36.21
732.181	36.47
732.362	36.71
732.544	36.74
732.725	36.99
732.907	37.13
733.088	37.12
733.27	37.73
733.451	37.9
733.633	37.94
733.814	38.4
733.995	38.12
734.177	37.78
734.358	37.95
734.539	37.9
734.721	37.57
734.902	36.78
735.083	37.21
735.264	36.93
735.446	36.84
735.627	36.91
735.808	36.87
735.989	36.86
736.17	37.44
736.351	36.72
736.533	37.14
736.714	37.77
736.895	38.78
737.076	39.68
737.257	39.06
737.438	39.89
737.619	39.9
737.8	39.4
737.981	39.49
738.162	39.54
738.343	38.96
738.524	39.88
738.705	39.87
738.886	38.85
739.067	38.11
739.247	38.53
739.428	37.5
739.609	36.79
739.79	37.45
739.971	37.96
740.151	37.16
740.332	37.5
740.513	35.97
740.694	35.6
740.874	36.12
741.055	37.25
741.236	37.06
741.417	37.03
741.597	37.76
741.778	37.28
741.958	36.85
742.139	36.63
742.32	36.9
742.5	36.73
742.681	36.78
742.861	36.7
743.042	35.77
743.222	36.2
743.403	36.45
743.583	36.69
743.764	37.22
743.944	37.83
744.124	37.72
744.305	38.46
744.485	39.04
744.666	38.94
744.846	39.02
745.026	39.23
745.207	38.88
745.387	39.34
745.567	38.05
745.747	38.04
745.928	37.94
746.108	38.4
746.288	37.49
746.468	37.68
746.648	37.27
746.829	36.67
747.009	36.16
747.189	35.48
747.369	35.9
747.549	36.55
747.729	36.21
747.909	36
748.089	36.69
748.269	36.79
748.449	36.44
748.629	37.49
748.809	38.2
748.989	38.48
749.169	39.42
749.349	38.75
749.529	38.42
749.709	38.34
749.889	38.85
750.068	39.17
750.248	39.19
750.428	38.8
750.608	38.78
750.788	38.53
750.967	39.62
751.147	39.41
751.327	38.84
751.507	38.73
751.686	38.31
751.866	37.76
752.046	37
752.225	37.51
752.405	37.92
752.585	36.78
752.764	38.17
752.944	37.28
753.123	37.13
753.303	38.65
753.482	38.88
753.662	39.27
753.841	38.89
754.021	39.13
754.2	39.92
754.38	39.55
754.559	39.71
754.739	37.85
754.918	37.52
755.097	37.18
755.277	36.25
755.456	35.96
755.635	35.49
755.815	36.06
755.994	35.84
756.173	34.45
756.352	35.47
756.532	36.24
756.711	36.96
756.89	37.27
757.069	37.57
757.248	37.36
757.427	37.28
757.607	37.45
757.786	38.33
757.965	37.92
758.144	37.54
758.323	36.73
758.502	36.19
758.681	36.57
758.86	35.9
759.039	37.08
759.218	37.69
759.397	38.35
759.576	39.41
759.755	37.95
759.934	38.17
760.113	39.02
760.291	39.21
760.47	39.39
760.649	39.1
760.828	39.15
761.007	37.78
761.186	38.03
761.364	38.1
761.543	38.56
761.722	39.31
761.901	39.07
762.079	38.65
762.258	38.28
762.437	38.76
762.615	39.65
762.794	39.91
762.972	39.55
763.151	38.99
763.33	38.55
763.508	37.63
763.687	37.54
763.865	38.34
764.044	39.19
764.222	39.52
764.401	38.84
764.579	37.75
764.758	37.33
764.936	38.11
765.114	38.07
765.293	38.4
765.471	38.48
765.65	38.05
765.828	37.95
766.006	37.25
766.184	37.4
766.363	38.58
766.541	38.33
766.719	38.66
766.898	38.42
767.076	38.59
767.254	38.08
767.432	38.3
767.61	39.08
767.788	38.21
767.967	38.27
768.145	37.53
768.323	36.53
768.501	38.04
768.679	37.9
768.857	38.07
769.035	38.1
769.213	39.32
769.391	40.14
769.569	40.51
769.747	41.31
769.925	40.48
770.103	40.73
770.281	41.66
770.459	39.84
770.636	40.46
770.814	40.72
770.992	39.95
771.17	38.45
771.348	36.24
771.525	34.72
771.703	34.64
771.881	34.39
772.059	34.85
772.236	32.21
772.414	34.38
772.592	33.87
772.769	32.25
772.947	32
773.125	34.35
773.302	35.56
773.48	36.01
773.657	35.87
773.835	36.88
774.013	37.95
774.19	39.61
774.368	38.89
774.545	39.3
774.723	39.99
774.9	42.06
775.077	41.37
775.255	40.45
775.432	40.63
775.61	40.91
775.787	40.27
775.964	39.64
776.142	41.16
776.319	41.55
776.496	41.25
776.674	41.02
776.851	40.68
777.028	39.79
777.205	41.39
777.382	40.21
777.56	39.7
777.737	40.5
777.914	38.92
778.091	37.57
778.268	36.26
778.445	36.59
778.622	38.57
778.8	39.71
778.977	38.81
779.154	48.43
779.331	49.99
779.508	50.42
779.685	51.79
779.862	52.51
780.038	53.16
780.215	53.58
780.392	53.08
780.569	51.94
780.746	49.38
780.923	50.76
781.1	40.76
781.277	41.02
781.453	40.14
781.63	38.94
781.807	40.13
781.984	40.6
782.16	41.36
782.337	40.68
782.514	40.92
782.691	41.01
782.867	39.19
783.044	37.92
783.221	36.78
783.397	36.56
783.574	37.21
783.75	36.97
783.927	36.7
784.103	37.5
784.28	38.28
784.456	37.35
784.633	38.14
784.809	39.83
784.986	40.87
785.162	42.19
785.339	42.67
785.515	42.28
785.692	42.4
785.868	42.91
786.044	38.5
786.221	40.4
786.397	40.66
786.573	40.85
786.749	39.41
786.926	38.46
787.102	38.4
787.278	39.12
787.454	37.87
787.631	38.16
787.807	37.96
787.983	39.84
788.159	39
788.335	39.99
788.511	39.3
788.687	41.01
788.863	41.22
789.039	41.95
789.216	42.81
789.392	43.64
789.568	42.82
789.744	42.74
789.919	43.76
790.095	43.4
790.271	43.43
790.447	41.92
790.623	42.19
790.799	42.56
790.975	41.37
791.151	41.33
791.327	40.9
791.502	39.49
791.678	38.74
791.854	38.6
792.03	39.2
792.205	38.62
792.381	41.04
792.557	39.76
792.733	39.56
792.908	41.64
793.084	39.4
793.259	38.08
793.435	40.72
793.611	39.58
793.786	40.59
793.962	39.56
794.137	39.53
794.313	39.73
794.488	40.35
794.664	41.53
794.839	38.65
795.015	39.48
795.19	41.01
795.366	40.51
795.541	42.15
795.716	41.64
795.892	42.54
796.067	42.5
796.242	40.5
796.418	42.08
796.593	40.7
796.768	40.34
796.944	41.32
797.119	39.88
797.294	41.06
797.469	39.28
797.644	38.66
797.82	37.76
797.995	36.12
798.17	38.12
798.345	36.97
798.52	37.24
798.695	36.69
798.87	37.52
799.045	37.95
799.22	36.14
799.395	36.44
799.57	36.44
799.745	35.56
799.92	36.03
800.095	36.22
800.27	34.81
800.445	33.32
800.62	33.66
800.795	31.63
800.97	31.48
801.145	29.87
801.319	29.19
801.494	28.28
801.669	27.84
801.844	28.63
802.018	26.48
802.193	27.23
802.368	28.75
802.543	29.84
802.717	29.35
802.892	30.34
803.067	32.65
803.241	33.7
803.416	34.82
803.59	34.99
803.765	35.33
803.94	37.19
804.114	37.5
804.289	35.47
804.463	35.22
804.638	34.06
804.812	35.43
804.986	33.51
805.161	36.15
805.335	33.79
805.51	35.8
805.684	34.39
805.858	33.21
806.033	34.15
806.207	36.02
806.381	36.48
806.556	39.25
806.73	40.35
806.904	43.68
807.078	42.64
807.253	45.62
807.427	43.55
807.601	44.14
807.775	43.29
807.949	41.51
808.123	41.43
808.298	39.25
808.472	38.4
808.646	35.61
808.82	34.63
808.994	34.35
809.168	32.91
809.342	31.73
809.516	32.53
809.69	33.5
809.864	33.37
810.038	36.01
810.212	33.94
810.385	34.76
810.559	34.64
810.733	31.5
810.907	28.32
811.081	29.78
811.255	31.92
811.428	33.37
811.602	35.89
811.776	35.82
811.95	35.42
812.123	38.89
812.297	37.09
812.471	37.69
812.644	38.48
812.818	44.53
812.992	43.49
813.165	43.46
813.339	42.02
813.512	40.26
813.686	40.05
813.86	37.13
814.033	38.64
814.207	40.49
814.38	43.04
814.554	42.76
814.727	40.6
814.9	42.27
815.074	45.44
815.247	47.19
815.421	45.45
815.594	43.62
815.767	42.78
815.941	38.4
816.114	36.15
816.287	33.4
816.46	37.59
816.634	35.82
816.807	33.75
816.98	31.87
817.153	31.78
817.327	35.37
817.5	38.97
817.673	41.77
817.846	44.45
818.019	44.49
818.192	45.73
818.365	40.99
818.538	39.54
818.711	40.26
818.884	39.22
819.057	38.27
819.23	36.31
819.403	35.98
819.576	34.4
819.749	35.12
819.922	35.05
820.095	34.38
820.268	37.2
820.441	38.85
820.614	38.77
820.786	38.37
820.959	37.21
821.132	37.54
821.305	36.69
821.477	36.55
821.65	36.54
821.823	37.26
821.996	37.9
822.168	36.96
822.341	36.94
822.514	36.52
822.686	36.86
822.859	37.22
823.031	36.85
823.204	37.36
823.376	37.41
823.549	37.47
823.722	37.36
823.894	36.57
824.067	36.7
824.239	36.46
824.411	36.62
824.584	36.81
824.756	36.51
824.929	36.43
825.101	36.44
825.273	36.28
825.446	35.58
825.618	34.81
825.79	34.84
825.963	35.12
826.135	35.46
826.307	35.36
826.479	35.6
826.652	36.26
826.824	36.43
826.996	36.54
827.168	37.11
827.34	37.54
827.512	38.52
827.684	39.58
827.856	39.85
828.029	39.99
828.201	39.68
828.373	38.78
828.545	38.23
828.717	38.24
828.889	37.15
829.061	36.91
829.232	37.21
829.404	36.92
829.576	35.68
829.748	34.97
829.92	34.22
830.092	35.39
830.264	35.56
830.436	34.8
830.607	35.16
830.779	36.16
830.951	35.91
831.123	34.57
831.294	34.03
831.466	35.77
831.638	36.06
831.809	35.89
831.981	34.63
832.153	34.32
832.324	37.3
832.496	37.92
832.667	40.04
832.839	40.86
833.011	40.88
833.182	41.38
833.354	40.13
833.525	39.26
833.697	40.79
833.868	41.53
834.039	43.06
834.211	41.09
834.382	40.55
834.554	39.03
834.725	37.85
834.896	38.03
835.068	37.62
835.239	36.46
835.41	36.97
835.581	35.95
835.753	35.22
835.924	33.7
836.095	33.22
836.266	33.94
836.438	32.6
836.609	35.06
836.78	37.54
836.951	36.12
837.122	35.66
837.293	35.9
837.464	35.49
837.635	35.19
837.806	35.9
837.977	35.95
838.148	34.57
838.319	35.61
838.49	32.51
838.661	31.09
838.832	34.44
839.003	39.95
839.174	41.71
839.345	44.07
839.516	44.66
839.687	47.19
839.857	43.79
840.028	42.64
840.199	42.27
840.37	42.73
840.54	41.15
840.711	34.97
840.882	31.19
841.053	25.69
841.223	27.43
841.394	25.67
841.564	22.35
841.735	28.28
841.906	29.68
842.076	31.02
842.247	33.85
842.417	33.87
842.588	36.92
842.758	34.98
842.929	34.67
843.099	29.84
843.27	37.43
843.44	39.59
843.611	39.18
843.781	34.84
843.951	37.17
844.122	33.93
844.292	31.5
844.462	35.61
844.633	34.25
844.803	38.75
844.973	36.85
845.144	32
845.314	30.23
845.484	33.33
845.654	40.19
845.824	37.77
845.995	35.06
846.165	35.22
846.335	31.58
846.505	40.42
846.675	38.27
846.845	43.01
847.015	38.39
847.185	39.58
847.355	31.64
847.525	31.17
847.695	27.22
847.865	34.16
848.035	29.68
848.205	25.54
848.375	24.46
848.545	21.63
848.715	24.58
848.884	23.92
849.054	26.81
849.224	34.7
849.394	34.03
849.564	36.7
849.733	34.41
849.903	41.77
850.073	46.62
850.243	46.99
850.412	45.8
850.582	44.73
850.752	41.41
850.921	34.77
851.091	33.87
851.26	34.3
851.43	29.3
851.599	29.6
851.769	23.45
851.939	22.84
852.108	12.85
852.278	19.21
852.447	24.54
852.616	35.06
852.786	41.29
852.955	40.46
853.125	40.39
853.294	45.34
853.463	45.09
853.633	51.72
853.802	58.31
853.971	65
854.141	74.99
854.31	64.75
854.479	56.46
854.648	48.93
854.818	42.59
854.987	44.18
855.156	39.08
855.325	44.93
855.494	44.35
855.663	36.6
855.832	33.26
856.001	26.27
856.171	30
856.34	28.36
856.509	27.49
856.678	34.52
856.847	41.84
857.016	52.62
857.185	48.92
857.353	36.78
857.522	43.87
857.691	41.29
857.86	36.42
858.029	42.01
858.198	42.71
858.367	43.78
858.535	38.95
858.704	36.55
858.873	24.03
859.042	18.14
859.21	24.8
859.379	16.22
859.548	14.68
859.717	13.39
859.885	8.68
860.054	7.11
860.222	1.45
860.391	13.75
860.56	9.8
860.728	12.57
860.897	12.58
861.065	10.36
861.234	11.54
861.402	11.23
861.571	12.83
861.739	14.28
861.908	16.69
862.076	17.63
862.244	13.34
862.413	12.25
862.581	13.02
862.749	20.67
862.918	29.9
863.086	31.5
863.254	26.65
863.423	22.87
863.591	14.8
863.759	19.26
863.927	19.11
864.096	13.26
864.264	16.99
864.432	20.74
864.6	30.06
864.768	26.57
864.936	25.07
865.104	37.53
865.272	47.26
865.44	52.64
865.608	53.77
865.776	53.37
865.944	55.93
866.112	50.72
866.28	58.06
866.448	47.58
866.616	46.88
866.784	40.3
866.952	26.01
867.12	20.89
867.288	29.85
867.455	28.28
867.623	25.21
867.791	23.9
867.959	29.79
868.127	33.21
868.294	34.12
868.462	31.34
868.63	42.18
868.797	47.8
868.965	47.18
869.133	28.94
869.3	28.23
869.468	19.74
869.636	15.85
869.803	12.26
869.971	2.47
870.138	0.52
870.306	-2.48
870.473	-8.53
870.641	-7.81
870.808	-3.6
870.975	10.25
871.143	8.24
871.31	18.94
871.478	27.16
871.645	21.45
871.812	29.7
871.98	44.21
872.147	44.83
872.314	53.93
872.482	41.79
872.649	48.5
872.816	42.6
872.983	37.78
873.15	30.93
873.318	25.98
873.485	32.59
873.652	31.04
873.819	24.86
873.986	20.67
874.153	12.58
874.32	12.78
874.487	10.62
874.654	-2.79
874.821	-8.42
874.988	-6.74
875.155	-2.83
875.322	-8.87
875.489	-15.68
875.656	-22.45
875.823	-14.38
875.99	-1.79
876.157	5.08
876.324	13.55
876.49	18.84
876.657	23.08
876.824	25.63
876.991	28.46
877.157	30.74
877.324	27.58
877.491	37.19
877.658	39.44
877.824	40.48
877.991	43.98
878.157	39.39
878.324	44.57
878.491	41.66
878.657	48.99
878.824	47.46
878.99	46.78
879.157	49.16
879.323	41.26
879.49	37.38
879.656	38.49
879.823	29.34
879.989	23.16
880.156	24.18
880.322	23.97
880.488	13.05
880.655	13.95
880.821	13.14
880.987	22.64
881.154	24.58
881.32	31.32
881.486	29.79
881.652	30.44
881.819	35.93
881.985	34.54
882.151	37.51
882.317	37.65
882.483	36.2
882.649	36.44
882.816	33.79
882.982	34.68
883.148	33.2
883.314	33.84
883.48	35.17
883.646	34.31
883.812	34.59
883.978	35
884.144	34.97
884.31	34.99
884.476	33.13
884.642	33.78
884.807	32.64
884.973	33.05
885.139	33.19
885.305	32.57
885.471	35.98
885.637	36.06
885.802	35.15
885.968	36.48
886.134	37.37
886.3	39.42
886.465	40.4
886.631	40.03
886.797	41.8
886.962	39.05
887.128	41.67
887.293	35.15
887.459	35.99
887.625	33.32
887.79	30.93
887.956	25.57
888.121	25.76
888.287	21.8
888.452	24.6
888.618	18.3
888.783	22.99
