Data from LC_266_Reflection_2.txt Node
Date: Sat Nov 21 11:54:11 EST 2015
User: robert
Spectrometer: USB4E03001
Autoset integration time: false
Trigger mode: 4
Integration Time (sec): 1.000000E-1
Scans to average: 15
Electric dark correction enabled: true
Nonlinearity correction enabled: false
Boxcar width: 5
Stray light correction enabled: false
XAxis mode: Wavelengths
Stop averaging: false
Number of Pixels in Spectrum: 3648
>>>>>Begin Spectral Data<<<<<
177.566	341.7
177.785	298.97
178.005	627.32
178.225	-36.51
178.445	-30.47
178.665	-117.06
178.885	-781.96
179.105	-199.75
179.324	-15.93
179.544	-56.92
179.764	86.85
179.984	30.4
180.204	57.44
180.423	72.23
180.643	105.69
180.863	152.57
181.083	203.05
181.302	232.03
181.522	196.1
181.742	179.06
181.961	163.26
182.181	135.34
182.401	251.06
182.621	211.09
182.84	232.02
183.06	203.37
183.279	145.95
183.499	123.57
183.719	100.26
183.938	95.36
184.158	126.95
184.377	120.43
184.597	100.61
184.816	84.33
185.036	64.37
185.256	63.02
185.475	51.41
185.695	62.11
185.914	63.52
186.134	64.52
186.353	61.56
186.572	52.66
186.792	47.62
187.011	68.27
187.231	74.43
187.45	87.32
187.67	95.94
187.889	109.81
188.108	139.75
188.328	150.81
188.547	176.19
188.766	175.75
188.986	243.87
189.205	399.78
189.424	525.89
189.644	393.12
189.863	-134.14
190.082	-250.14
190.302	405.35
190.521	73.68
190.74	38.65
190.959	25.42
191.178	106.09
191.398	33.14
191.617	22.19
191.836	56.67
192.055	32.12
192.274	31.49
192.494	34.58
192.713	30.65
192.932	37.99
193.151	47.51
193.37	62.46
193.589	40.76
193.808	61.97
194.027	79.97
194.246	71.49
194.465	91.59
194.685	96.07
194.904	89.73
195.123	96.2
195.342	94.72
195.561	106.57
195.78	73.48
195.999	100.45
196.218	93.64
196.436	116.68
196.655	108.2
196.874	79.46
197.093	98.79
197.312	122.66
197.531	129.9
197.75	120.26
197.969	104.89
198.188	123.53
198.407	126.96
198.625	123.03
198.844	111.12
199.063	103.69
199.282	119.96
199.501	138.94
199.719	133.34
199.938	113.15
200.157	113.94
200.376	122.98
200.594	105.73
200.813	81.29
201.032	87.7
201.251	62.56
201.469	90.13
201.688	77.55
201.907	60.1
202.125	65.17
202.344	100.41
202.563	129.11
202.781	138.86
203	166.49
203.218	168.59
203.437	280.78
203.656	572.1
203.874	383.71
204.093	168.2
204.311	148.22
204.53	193.89
204.748	101.42
204.967	94.32
205.185	85.55
205.404	69.67
205.622	173.59
205.841	165.17
206.059	141.62
206.278	134.07
206.496	138.12
206.715	178.45
206.933	152.05
207.151	178.34
207.37	112.37
207.588	145.7
207.806	126.5
208.025	67.42
208.243	58.23
208.461	49.4
208.68	89.38
208.898	127.47
209.116	100.68
209.335	111.9
209.553	106.23
209.771	131.01
209.989	126.1
210.208	171.84
210.426	226.57
210.644	206.67
210.862	299.77
211.081	203.76
211.299	140.69
211.517	196.08
211.735	122.35
211.953	123.33
212.171	98.39
212.39	98.54
212.608	77.01
212.826	62.84
213.044	62.66
213.262	47.1
213.48	53.25
213.698	51.44
213.916	43.09
214.134	50.08
214.352	31.39
214.57	56.33
214.788	48.46
215.006	60.56
215.224	65.54
215.442	76.45
215.66	118.25
215.878	119.35
216.096	152.23
216.314	144.01
216.532	152.82
216.75	155.59
216.968	170.54
217.185	159.08
217.403	137.72
217.621	152.6
217.839	143.59
218.057	143.19
218.275	143.93
218.492	113.54
218.71	108.45
218.928	113.52
219.146	94.7
219.363	92.94
219.581	155.44
219.799	157.09
220.017	110.42
220.234	124.38
220.452	89.07
220.67	85.88
220.887	103.71
221.105	106.96
221.323	113.53
221.54	114.57
221.758	94.39
221.976	80.06
222.193	82.67
222.411	78.94
222.629	55.87
222.846	64.35
223.064	57.06
223.281	53.64
223.499	47.13
223.716	57.09
223.934	57.24
224.151	56.9
224.369	47.9
224.586	50.39
224.804	53.65
225.021	75.48
225.239	67.95
225.456	65.78
225.674	50.59
225.891	46.81
226.108	50.27
226.326	55.65
226.543	53.9
226.76	56.72
226.978	50.74
227.195	46.46
227.413	35.65
227.63	32.85
227.847	31.9
228.064	29.14
228.282	25.5
228.499	19.99
228.716	18.44
228.934	16.49
229.151	16.05
229.368	17.07
229.585	15.68
229.802	16.08
230.02	16.19
230.237	16.06
230.454	17.87
230.671	19.77
230.888	22.16
231.105	23.4
231.323	25.69
231.54	23.56
231.757	22
231.974	24.55
232.191	26.41
232.408	29.52
232.625	33.24
232.842	32.63
233.059	38.62
233.276	40.37
233.493	40.16
233.71	41.04
233.927	47.93
234.144	46.95
234.361	50.85
234.578	50.59
234.795	53.69
235.012	50.92
235.229	53.25
235.446	47.83
235.663	44.78
235.879	37.95
236.096	35.5
236.313	32.6
236.53	34.28
236.747	27.2
236.964	25.47
237.181	22.24
237.397	19.15
237.614	15.72
237.831	11.6
238.048	13.98
238.264	19.89
238.481	20.56
238.698	21
238.915	19.99
239.131	19.47
239.348	18.19
239.565	18.46
239.781	20.82
239.998	21.35
240.215	26.38
240.431	21.66
240.648	19.61
240.865	19.97
241.081	15.27
241.298	16.74
241.514	19.31
241.731	18.8
241.947	18.88
242.164	19.86
242.38	19.23
242.597	17.44
242.814	17.5
243.03	19.12
243.246	19.45
243.463	20.75
243.679	20.56
243.896	20.67
244.112	21.72
244.329	22.84
244.545	20.52
244.762	19.38
244.978	21.6
245.194	20.73
245.411	19.85
245.627	18.88
245.843	17.19
246.06	17.31
246.276	16.35
246.492	15.57
246.709	14.32
246.925	15.05
247.141	15.7
247.357	14.41
247.574	14.28
247.79	13.67
248.006	13.63
248.222	13.74
248.439	13.56
248.655	13.87
248.871	14.33
249.087	14.02
249.303	13.32
249.519	13.01
249.736	13.68
249.952	14.75
250.168	15.37
250.384	14.94
250.6	16.11
250.816	16.95
251.032	18.18
251.248	17.94
251.464	18.84
251.68	18.84
251.896	18.6
252.112	20.68
252.328	20.39
252.544	20.77
252.76	21.51
252.976	20.78
253.192	19.42
253.408	18.79
253.624	18.76
253.84	19.58
254.056	20.03
254.272	19.36
254.487	17.11
254.703	18.59
254.919	17.95
255.135	17.31
255.351	18.88
255.567	19.28
255.782	17.52
255.998	18.11
256.214	16.41
256.43	19.4
256.646	19.76
256.861	17.44
257.077	16.3
257.293	18.93
257.508	17.53
257.724	17.38
257.94	17.47
258.155	17.61
258.371	16.85
258.587	16
258.802	15.01
259.018	15.2
259.234	15.41
259.449	14.41
259.665	13.02
259.88	13.57
260.096	13.19
260.312	13.41
260.527	13.21
260.743	13.29
260.958	13.37
261.174	12.6
261.389	12.66
261.605	13.31
261.82	14.7
262.036	14.83
262.251	14.1
262.466	14.42
262.682	13.91
262.897	13.2
263.113	13.68
263.328	15.28
263.543	16.81
263.759	16.83
263.974	16.4
264.189	16.55
264.405	16.79
264.62	17.96
264.835	17.67
265.051	17.45
265.266	17.34
265.481	15.81
265.696	13.69
265.912	13.23
266.127	13.18
266.342	12.51
266.557	11.91
266.773	13.1
266.988	13.49
267.203	12.21
267.418	12.23
267.633	12.59
267.848	12.95
268.064	12.7
268.279	13.4
268.494	13.1
268.709	13.91
268.924	13.22
269.139	13.07
269.354	11.3
269.569	11.9
269.784	12.24
269.999	12.1
270.214	12.53
270.429	13.86
270.644	12.74
270.859	13.78
271.074	11.66
271.289	11.12
271.504	10.85
271.719	11.08
271.934	12.28
272.149	11.72
272.363	11.65
272.578	10.81
272.793	9.5
273.008	10.61
273.223	10.81
273.438	11.31
273.653	12.42
273.867	12.77
274.082	13.85
274.297	12.26
274.512	12.42
274.726	13.34
274.941	14.32
275.156	15.6
275.371	14.26
275.585	13.08
275.8	13.49
276.015	12.36
276.229	11.34
276.444	11.52
276.659	11.01
276.873	12.37
277.088	12.3
277.302	10.89
277.517	9.82
277.732	10.21
277.946	11.05
278.161	11.23
278.375	11.28
278.59	12.34
278.804	11.11
279.019	12.62
279.233	11.12
279.448	10.58
279.662	11.78
279.877	11.69
280.091	11.58
280.306	10.44
280.52	10.5
280.735	10.12
280.949	8.57
281.163	8.94
281.378	8.24
281.592	8.87
281.806	9.39
282.021	9.64
282.235	10.42
282.449	10.43
282.664	10.3
282.878	10.92
283.092	12.43
283.307	12.74
283.521	12.5
283.735	12.43
283.949	12.26
284.164	10
284.378	9.86
284.592	9.74
284.806	9.82
285.02	10.82
285.234	9.85
285.449	9.22
285.663	10.13
285.877	10.26
286.091	10.89
286.305	11.03
286.519	12.91
286.733	13.01
286.947	13.39
287.161	13.29
287.375	12.57
287.589	13.37
287.803	13.5
288.017	13.15
288.231	13.79
288.445	14.36
288.659	14.01
288.873	13.67
289.087	13.64
289.301	13.24
289.515	13.83
289.729	14.79
289.943	14.15
290.157	13.57
290.371	14.04
290.584	14.41
290.798	14.09
291.012	14.11
291.226	14.8
291.44	14.66
291.654	15.99
291.867	15.33
292.081	15.83
292.295	17.19
292.509	19.08
292.722	19.58
292.936	19.47
293.15	18.99
293.364	19.97
293.577	19
293.791	19.36
294.005	18.66
294.218	18.96
294.432	17.69
294.645	17.03
294.859	16.01
295.073	13.83
295.286	13.48
295.5	14.13
295.713	12.54
295.927	12.38
296.14	13.14
296.354	12.89
296.568	13.59
296.781	13.26
296.994	13.3
297.208	12.67
297.421	13.95
297.635	13.09
297.848	12.88
298.062	13.96
298.275	14.25
298.489	13.47
298.702	12.68
298.915	12.08
299.129	12.33
299.342	12.13
299.555	12.52
299.769	13.15
299.982	15.08
300.195	15.96
300.409	15.76
300.622	16.41
300.835	16.45
301.048	18.96
301.262	19.06
301.475	19.74
301.688	19.83
301.901	20.5
302.115	19.17
302.328	17.91
302.541	16.47
302.754	16.18
302.967	15.54
303.18	16.47
303.393	15.47
303.607	15.13
303.82	14.52
304.033	14.58
304.246	15.51
304.459	16.8
304.672	17.11
304.885	18.76
305.098	18.82
305.311	19.01
305.524	17.85
305.737	17.47
305.95	17.99
306.163	18.29
306.376	18.41
306.589	17.25
306.802	15.55
307.015	15.93
307.228	14.96
307.44	15.27
307.653	15.71
307.866	16.89
308.079	15.98
308.292	14.74
308.505	15
308.718	14.19
308.93	14.41
309.143	13.89
309.356	14.19
309.569	12.94
309.781	13.37
309.994	12.41
310.207	11.77
310.42	12.31
310.632	12.5
310.845	12.08
311.058	12.31
311.27	12.11
311.483	13.34
311.696	12.68
311.908	13.81
312.121	13.47
312.333	14.06
312.546	14.61
312.759	15.05
312.971	16.13
313.184	17.25
313.396	17.64
313.609	17.49
313.821	16.94
314.034	17.47
314.246	17.72
314.459	19.05
314.671	18.48
314.884	17.39
315.096	17.15
315.309	16.3
315.521	15.11
315.733	15.1
315.946	15.7
316.158	15
316.371	15.78
316.583	15.89
316.795	14.81
317.008	15.83
317.22	16.21
317.432	16.33
317.644	16.61
317.857	17.01
318.069	16.35
318.281	15.85
318.494	16.55
318.706	15.4
318.918	14.62
319.13	14.27
319.342	13.72
319.555	13.95
319.767	13.76
319.979	13.73
320.191	14.36
320.403	15.69
320.615	15.7
320.827	16.85
321.039	16.16
321.252	16.05
321.464	15.87
321.676	14.79
321.888	14.91
322.1	15.82
322.312	15.62
322.524	14.06
322.736	13.62
322.948	15.42
323.16	14.22
323.372	15.2
323.584	15.36
323.796	15.51
324.007	16.6
324.219	16.43
324.431	15.02
324.643	15.49
324.855	15.84
325.067	15.95
325.279	14.55
325.491	13.68
325.702	13.04
325.914	13.35
326.126	13.53
326.338	12.86
326.55	12.71
326.761	13.2
326.973	12.15
327.185	12.49
327.396	11.65
327.608	10.79
327.82	12.79
328.032	12.55
328.243	12.07
328.455	11.78
328.666	12.46
328.878	13.18
329.09	12.94
329.301	14
329.513	13.37
329.725	13.97
329.936	15.07
330.148	14.37
330.359	15.39
330.571	15.44
330.782	15.52
330.994	15.26
331.205	15.01
331.417	14.42
331.628	15.2
331.84	15.81
332.051	16.37
332.262	16.12
332.474	16.24
332.685	15.79
332.897	15.72
333.108	14.68
333.319	14.75
333.531	13.43
333.742	14.82
333.953	14.98
334.165	15.25
334.376	14.15
334.587	14.37
334.799	14.25
335.01	14.57
335.221	15.42
335.432	17.12
335.644	17.09
335.855	18.42
336.066	18.16
336.277	17.64
336.488	17.07
336.7	16.86
336.911	16.73
337.122	16.22
337.333	16.56
337.544	16.37
337.755	15.69
337.966	15.1
338.177	14.66
338.388	14.29
338.599	13.5
338.811	14.11
339.022	14.52
339.233	14.39
339.444	14.55
339.655	14
339.866	14.33
340.076	13.97
340.287	14.79
340.498	14.77
340.709	14.46
340.92	14.89
341.131	14.59
341.342	14.53
341.553	14.79
341.764	14.59
341.975	14.38
342.185	13.23
342.396	13.73
342.607	13.58
342.818	13.75
343.029	14.31
343.239	14.95
343.45	13.57
343.661	14.26
343.872	13.4
344.082	14.34
344.293	14.28
344.504	14.34
344.714	14.25
344.925	13.92
345.136	13.19
345.346	13.24
345.557	12.17
345.768	12.75
345.978	11.41
346.189	11.97
346.399	11.25
346.61	11.54
346.821	11.48
347.031	11.07
347.242	11.13
347.452	11.95
347.663	11.62
347.873	12
348.084	13.39
348.294	14.39
348.504	14.64
348.715	14.56
348.925	14.22
349.136	14.47
349.346	15.12
349.557	15.19
349.767	14.21
349.977	13.81
350.188	13.66
350.398	12.69
350.608	12.64
350.819	12.38
351.029	12.7
351.239	12.95
351.449	13.91
351.66	13.19
351.87	13.4
352.08	14.68
352.29	14.8
352.501	14.15
352.711	14.52
352.921	14.29
353.131	14.27
353.341	13.39
353.552	13.02
353.762	12.37
353.972	12.5
354.182	12.59
354.392	11.92
354.602	12.07
354.812	12.69
355.022	12.37
355.232	12.42
355.442	11.79
355.652	12.74
355.862	12.56
356.072	12.04
356.282	11.63
356.492	11.39
356.702	11.56
356.912	11.62
357.122	11.36
357.332	11.1
357.542	10.33
357.752	10.84
357.962	10.52
358.171	10.68
358.381	10.96
358.591	11.38
358.801	11.65
359.011	11.8
359.221	11.42
359.43	12.08
359.64	12.3
359.85	12.84
360.06	12.66
360.269	12.87
360.479	12.72
360.689	11.94
360.899	11.38
361.108	10.59
361.318	10.18
361.528	10.46
361.737	9.93
361.947	10.12
362.156	10.15
362.366	10.24
362.576	9.58
362.785	9.65
362.995	10.44
363.204	10.86
363.414	11.03
363.623	11.52
363.833	10.82
364.042	11.11
364.252	10.55
364.461	10.7
364.671	10.66
364.88	11.22
365.09	11.05
365.299	11
365.509	10.44
365.718	11.09
365.927	10.99
366.137	11.05
366.346	10.59
366.555	10.23
366.765	10.03
366.974	10.25
367.183	10.01
367.393	10.09
367.602	10.09
367.811	10.59
368.021	10.18
368.23	10.24
368.439	10.48
368.648	10.72
368.857	11.15
369.067	11.08
369.276	11.03
369.485	10.99
369.694	11.07
369.903	11.02
370.112	10.74
370.321	10.82
370.531	10
370.74	10.14
370.949	10.04
371.158	10.28
371.367	10.25
371.576	9.99
371.785	10.18
371.994	10.16
372.203	9.54
372.412	9.62
372.621	9.61
372.83	9.39
373.039	9.7
373.248	9.71
373.457	9.7
373.666	9.45
373.874	8.84
374.083	8.9
374.292	8.78
374.501	9.25
374.71	9.04
374.919	9.03
375.128	9.8
375.336	9.24
375.545	9.41
375.754	9.21
375.963	9.08
376.171	9.39
376.38	9
376.589	8.8
376.798	8.64
377.006	8.6
377.215	8.37
377.424	7.74
377.632	8.04
377.841	7.82
378.05	7.71
378.258	7.96
378.467	7.87
378.675	8.13
378.884	8.16
379.093	8.24
379.301	8.77
379.51	8.92
379.718	9.26
379.927	9.52
380.135	9.57
380.344	9.93
380.552	9.6
380.761	9.84
380.969	9.76
381.177	9.97
381.386	9.57
381.594	9.07
381.803	8.95
382.011	8.81
382.219	8.51
382.428	8.67
382.636	8.18
382.845	8.74
383.053	8.65
383.261	8.63
383.469	8.17
383.678	8.27
383.886	8.3
384.094	7.96
384.302	7.8
384.511	7.87
384.719	7.57
384.927	7.97
385.135	7.91
385.343	7.85
385.552	7.97
385.76	8.42
385.968	8.65
386.176	8.56
386.384	8.81
386.592	8.68
386.8	8.48
387.008	8.67
387.216	8.8
387.424	8.64
387.633	8.45
387.841	8.2
388.049	8.07
388.257	8.06
388.465	7.93
388.672	8.17
388.88	8.32
389.088	7.81
389.296	7.72
389.504	7.16
389.712	6.76
389.92	6.68
390.128	6.74
390.336	6.94
390.544	6.46
390.751	6.6
390.959	6.58
391.167	6.4
391.375	6.77
391.583	6.92
391.79	6.99
391.998	7.18
392.206	7.56
392.414	7.34
392.621	7.23
392.829	7.11
393.037	7.01
393.244	6.76
393.452	6.84
393.66	6.97
393.867	6.72
394.075	7.3
394.283	7.13
394.49	6.77
394.698	7.1
394.905	7.06
395.113	7.49
395.32	7.67
395.528	7.52
395.735	7.68
395.943	7.53
396.15	7.72
396.358	7.04
396.565	7.02
396.773	7.31
396.98	7.39
397.188	7.25
397.395	6.88
397.602	6.75
397.81	6.74
398.017	6.35
398.225	6.54
398.432	6.34
398.639	6.03
398.847	6.15
399.054	6.08
399.261	6.04
399.468	6.03
399.676	6.5
399.883	6.68
400.09	6.89
400.297	7.45
400.505	7.14
400.712	7.1
400.919	7.4
401.126	7.67
401.333	7.7
401.54	7.48
401.748	7.24
401.955	7.21
402.162	7.06
402.369	7.1
402.576	6.53
402.783	6.63
402.99	6.32
403.197	6.35
403.404	6.19
403.611	6.16
403.818	6.18
404.025	6.23
404.232	5.91
404.439	5.88
404.646	5.84
404.853	6.3
405.06	6.33
405.267	6.67
405.474	6.78
405.681	6.7
405.887	6.49
406.094	6.24
406.301	6.31
406.508	6.61
406.715	6.64
406.922	6.46
407.128	6.22
407.335	6.29
407.542	6.37
407.749	6.26
407.955	6.09
408.162	6.03
408.369	6.21
408.575	6.22
408.782	6.11
408.989	6.15
409.195	6.17
409.402	6
409.609	5.81
409.815	5.33
410.022	5.44
410.228	5.66
410.435	5.91
410.642	5.8
410.848	5.95
411.055	5.76
411.261	5.49
411.468	5.4
411.674	5.37
411.881	5.36
412.087	5.59
412.294	5.72
412.5	5.61
412.706	5.63
412.913	5.9
413.119	5.98
413.326	6.27
413.532	6.59
413.738	6.92
413.945	7.06
414.151	7.14
414.357	7.21
414.564	7.2
414.77	7.52
414.976	7.5
415.182	7.2
415.389	7.21
415.595	7.03
415.801	6.8
416.007	6.35
416.214	6.29
416.42	6.14
416.626	6.11
416.832	5.97
417.038	5.61
417.244	5.43
417.45	5.56
417.657	5.31
417.863	5.37
418.069	5.44
418.275	5.7
418.481	5.75
418.687	5.76
418.893	5.58
419.099	5.47
419.305	5.58
419.511	5.81
419.717	5.81
419.923	5.89
420.129	5.84
420.335	5.83
420.541	5.71
420.746	5.6
420.952	5.65
421.158	5.69
421.364	5.77
421.57	5.72
421.776	5.67
421.982	5.68
422.187	5.6
422.393	5.58
422.599	5.49
422.805	5.6
423.01	5.78
423.216	5.74
423.422	5.82
423.628	5.88
423.833	5.88
424.039	5.79
424.245	5.68
424.45	5.77
424.656	5.74
424.862	5.89
425.067	5.84
425.273	5.74
425.478	5.84
425.684	5.89
425.889	5.82
426.095	5.86
426.301	5.93
426.506	5.94
426.712	5.75
426.917	5.72
427.123	5.66
427.328	5.71
427.533	5.83
427.739	5.8
427.944	5.73
428.15	5.62
428.355	5.54
428.561	5.56
428.766	5.57
428.971	5.67
429.177	5.86
429.382	6.06
429.587	5.82
429.793	5.76
429.998	5.92
430.203	5.74
430.408	6.05
430.614	6.09
430.819	5.8
431.024	5.7
431.229	5.68
431.434	5.56
431.64	5.27
431.845	5.47
432.05	5.46
432.255	5.17
432.46	5.26
432.665	4.97
432.87	4.95
433.076	5.14
433.281	5.2
433.486	5.25
433.691	5.23
433.896	5.23
434.101	5.24
434.306	5.05
434.511	5.04
434.716	5.07
434.921	4.98
435.126	5.07
435.331	5.14
435.535	5.23
435.74	5.06
435.945	4.97
436.15	5
436.355	4.91
436.56	5.26
436.765	5.37
436.97	5.31
437.174	5.53
437.379	5.56
437.584	5.54
437.789	5.56
437.993	5.71
438.198	5.86
438.403	5.72
438.608	5.72
438.812	5.45
439.017	5.45
439.222	5.54
439.426	5.48
439.631	5.47
439.836	5.3
440.04	5.23
440.245	5.25
440.45	5.19
440.654	5.11
440.859	5.01
441.063	5
441.268	4.96
441.472	4.89
441.677	4.97
441.881	5
442.086	5.03
442.29	5.09
442.495	5.14
442.699	5.11
442.904	5.34
443.108	5.51
443.312	5.54
443.517	5.59
443.721	5.7
443.925	5.41
444.13	5.2
444.334	5.33
444.538	5.11
444.743	5.05
444.947	5.04
445.151	4.93
445.356	4.86
445.56	4.93
445.764	4.75
445.968	4.61
446.173	4.75
446.377	4.78
446.581	4.71
446.785	4.68
446.989	4.63
447.193	4.7
447.398	4.75
447.602	4.75
447.806	4.68
448.01	4.75
448.214	4.79
448.418	4.75
448.622	4.78
448.826	4.64
449.03	4.75
449.234	4.88
449.438	4.71
449.642	4.63
449.846	4.59
450.05	4.71
450.254	4.84
450.458	4.65
450.662	4.9
450.866	4.81
451.069	5.02
451.273	5.05
451.477	4.78
451.681	4.69
451.885	4.75
452.089	4.78
452.292	4.77
452.496	4.68
452.7	4.87
452.904	4.57
453.107	4.71
453.311	4.7
453.515	4.6
453.719	4.7
453.922	4.98
454.126	4.89
454.33	5.01
454.533	4.95
454.737	5.01
454.94	5.15
455.144	5.32
455.348	5.13
455.551	5.19
455.755	5.32
455.958	5.39
456.162	5.19
456.365	5.27
456.569	5.3
456.772	5.16
456.976	4.95
457.179	4.83
457.383	4.69
457.586	4.78
457.79	4.59
457.993	4.66
458.196	4.69
458.4	4.72
458.603	4.68
458.807	4.53
459.01	4.69
459.213	4.75
459.417	4.69
459.62	4.67
459.823	4.59
460.026	4.58
460.23	4.45
460.433	4.3
460.636	4.31
460.839	4.33
461.042	4.45
461.246	4.19
461.449	4.33
461.652	4.31
461.855	4.38
462.058	4.45
462.261	4.47
462.464	4.6
462.668	4.7
462.871	4.69
463.074	4.65
463.277	4.51
463.48	4.69
463.683	4.44
463.886	4.44
464.089	4.47
464.292	4.53
464.495	4.4
464.698	4.28
464.901	4.31
465.104	4.58
465.306	4.8
465.509	4.85
465.712	4.93
465.915	4.87
466.118	5.01
466.321	4.87
466.524	4.84
466.726	5.12
466.929	5.2
467.132	5.27
467.335	5.19
467.538	5.07
467.74	4.96
467.943	4.92
468.146	5.06
468.348	4.92
468.551	4.9
468.754	4.99
468.956	4.92
469.159	4.82
469.362	4.73
469.564	4.58
469.767	4.7
469.969	4.74
470.172	4.71
470.375	4.79
470.577	5.01
470.78	5.1
470.982	5.03
471.185	4.97
471.387	5.01
471.59	5.01
471.792	5.05
471.995	4.92
472.197	4.93
472.399	5
472.602	4.96
472.804	4.74
473.007	4.71
473.209	4.78
473.411	4.77
473.614	4.75
473.816	4.81
474.018	4.75
474.22	4.81
474.423	4.94
474.625	4.9
474.827	5.01
475.03	5.21
475.232	5.28
475.434	5.23
475.636	5.29
475.838	5.29
476.04	5.27
476.243	5.15
476.445	5.07
476.647	5
476.849	5.01
477.051	4.78
477.253	4.76
477.455	4.8
477.657	4.63
477.859	4.7
478.061	4.64
478.263	4.71
478.465	4.88
478.667	4.82
478.869	4.79
479.071	4.75
479.273	4.92
479.475	4.75
479.677	4.59
479.879	4.83
480.081	4.87
480.283	4.96
480.485	4.87
480.686	4.79
480.888	4.81
481.09	4.75
481.292	4.74
481.494	4.63
481.695	4.56
481.897	4.58
482.099	4.43
482.301	4.24
482.502	4.29
482.704	4.32
482.906	4.32
483.107	4.35
483.309	4.37
483.511	4.3
483.712	4.22
483.914	4.3
484.115	4.26
484.317	4.28
484.519	4.34
484.72	4.32
484.922	4.31
485.123	4.33
485.325	4.34
485.526	4.31
485.728	4.37
485.929	4.48
486.131	4.44
486.332	4.51
486.534	4.48
486.735	4.44
486.936	4.42
487.138	4.4
487.339	4.39
487.541	4.38
487.742	4.4
487.943	4.47
488.144	4.39
488.346	4.41
488.547	4.4
488.748	4.41
488.95	4.43
489.151	4.4
489.352	4.34
489.553	4.34
489.755	4.31
489.956	4.3
490.157	4.17
490.358	4.25
490.559	4.26
490.76	4.23
490.961	4.26
491.163	4.27
491.364	4.32
491.565	4.39
491.766	4.33
491.967	4.36
492.168	4.35
492.369	4.37
492.57	4.41
492.771	4.42
492.972	4.42
493.173	4.44
493.374	4.39
493.575	4.36
493.776	4.3
493.976	4.41
494.177	4.47
494.378	4.46
494.579	4.63
494.78	4.61
494.981	4.63
495.182	4.7
495.382	4.84
495.583	4.93
495.784	4.93
495.985	5.09
496.185	5.08
496.386	5.03
496.587	5.03
496.788	4.94
496.988	4.88
497.189	4.87
497.39	4.9
497.59	4.76
497.791	4.7
497.992	4.74
498.192	4.73
498.393	4.72
498.593	4.82
498.794	4.92
498.994	4.94
499.195	4.89
499.395	5
499.596	5.11
499.796	5.17
499.997	5.41
500.197	5.57
500.398	5.43
500.598	5.52
500.799	5.41
500.999	5.47
501.199	5.48
501.4	5.65
501.6	5.64
501.801	5.68
502.001	5.71
502.201	5.69
502.402	5.63
502.602	5.86
502.802	5.83
503.002	5.84
503.203	5.91
503.403	5.81
503.603	5.82
503.803	5.81
504.003	5.84
504.204	5.87
504.404	5.85
504.604	5.82
504.804	5.75
505.004	5.79
505.204	5.93
505.404	5.9
505.604	6.06
505.804	5.98
506.005	5.99
506.205	6
506.405	6.01
506.605	6.03
506.805	6.24
507.005	6.24
507.204	6.31
507.404	6.25
507.604	6.32
507.804	6.27
508.004	6.44
508.204	6.6
508.404	6.46
508.604	6.41
508.804	6.43
509.003	6.35
509.203	6.38
509.403	6.49
509.603	6.44
509.803	6.49
510.002	6.52
510.202	6.55
510.402	6.48
510.602	6.49
510.801	6.6
511.001	6.62
511.201	6.54
511.4	6.57
511.6	6.4
511.8	6.53
511.999	6.56
512.199	6.75
512.398	6.7
512.598	6.81
512.797	7
512.997	6.95
513.197	6.98
513.396	7.14
513.596	7.22
513.795	7.35
513.994	7.31
514.194	7.5
514.393	7.45
514.593	7.61
514.792	7.59
514.992	7.56
515.191	7.64
515.39	7.72
515.59	7.83
515.789	7.98
515.988	8
516.188	8.24
516.387	8.13
516.586	8.16
516.786	8.15
516.985	8.1
517.184	8.15
517.383	8.28
517.582	8.24
517.782	8.24
517.981	8.25
518.18	8.24
518.379	8.23
518.578	8.16
518.777	8.11
518.976	8.15
519.176	8.25
519.375	8.28
519.574	8.23
519.773	8.26
519.972	8.25
520.171	8.26
520.37	8.32
520.569	8.35
520.768	8.49
520.967	8.7
521.166	8.66
521.365	8.69
521.564	8.72
521.762	8.83
521.961	8.98
522.16	8.97
522.359	8.96
522.558	9.01
522.757	9
522.956	9.13
523.154	9.24
523.353	9.33
523.552	9.44
523.751	9.53
523.949	9.58
524.148	9.62
524.347	9.73
524.546	9.83
524.744	9.82
524.943	9.87
525.142	9.86
525.34	9.77
525.539	9.79
525.737	9.76
525.936	9.88
526.135	9.88
526.333	9.79
526.532	9.83
526.73	9.92
526.929	10.02
527.127	10.04
527.326	10.04
527.524	10.01
527.723	10.08
527.921	10.11
528.12	10.06
528.318	10
528.516	10.07
528.715	10.09
528.913	10.14
529.112	10.11
529.31	10.08
529.508	10.08
529.707	10.19
529.905	10.17
530.103	10.23
530.301	10.31
530.5	10.47
530.698	10.44
530.896	10.53
531.094	10.42
531.293	10.5
531.491	10.64
531.689	10.68
531.887	10.74
532.085	10.82
532.283	10.88
532.481	10.84
532.68	10.9
532.878	11.04
533.076	11.05
533.274	11.18
533.472	11.24
533.67	11.19
533.868	11.23
534.066	11.28
534.264	11.27
534.462	11.23
534.66	11.27
534.858	11.19
535.056	11.17
535.253	11.12
535.451	11.06
535.649	11.08
535.847	11.31
536.045	11.44
536.243	11.52
536.441	11.56
536.638	11.7
536.836	11.79
537.034	11.88
537.232	12.04
537.43	12.14
537.627	12.27
537.825	12.34
538.023	12.29
538.22	12.29
538.418	12.17
538.616	12.28
538.813	12.29
539.011	12.34
539.209	12.38
539.406	12.45
539.604	12.64
539.801	12.64
539.999	12.77
540.196	12.69
540.394	12.72
540.591	12.75
540.789	12.81
540.986	12.75
541.184	12.8
541.381	12.78
541.579	12.76
541.776	12.68
541.974	12.76
542.171	12.81
542.368	12.92
542.566	13.03
542.763	13.13
542.96	13.2
543.158	13.31
543.355	13.4
543.552	13.61
543.75	13.69
543.947	13.88
544.144	14.04
544.341	14.12
544.539	14.21
544.736	14.3
544.933	14.42
545.13	14.51
545.327	14.6
545.524	14.62
545.722	14.6
545.919	14.63
546.116	14.69
546.313	14.65
546.51	14.67
546.707	14.69
546.904	14.68
547.101	14.71
547.298	14.76
547.495	14.81
547.692	14.84
547.889	14.94
548.086	15.04
548.283	15.14
548.48	15.2
548.677	15.21
548.874	15.35
549.07	15.39
549.267	15.45
549.464	15.51
549.661	15.49
549.858	15.74
550.055	15.83
550.251	15.89
550.448	15.67
550.645	15.84
550.842	15.81
551.038	15.84
551.235	15.99
551.432	16.03
551.628	16.09
551.825	16.22
552.022	16.18
552.218	16.1
552.415	16.25
552.612	16.53
552.808	16.53
553.005	16.59
553.201	16.64
553.398	16.53
553.594	16.65
553.791	16.65
553.987	16.65
554.184	16.65
554.38	16.88
554.577	16.91
554.773	16.93
554.97	17.1
555.166	17.32
555.362	17.34
555.559	17.41
555.755	17.34
555.952	17.46
556.148	17.73
556.344	17.91
556.541	18.03
556.737	18.08
556.933	18.09
557.129	17.94
557.326	18.02
557.522	18.13
557.718	18.37
557.914	18.44
558.11	18.67
558.307	18.58
558.503	18.65
558.699	18.71
558.895	18.5
559.091	18.66
559.287	18.76
559.483	18.83
559.679	18.98
559.876	19.08
560.072	19.17
560.268	18.99
560.464	19.35
560.66	19.5
560.856	19.56
561.052	19.93
561.247	20.09
561.443	20.2
561.639	20.41
561.835	20.52
562.031	20.59
562.227	20.79
562.423	20.93
562.619	21.05
562.815	21.11
563.01	21.02
563.206	21.14
563.402	21.14
563.598	21.29
563.793	21.27
563.989	21.34
564.185	21.46
564.381	21.46
564.576	21.68
564.772	21.68
564.968	22.02
565.163	22.09
565.359	22.18
565.555	22.08
565.75	22.08
565.946	22.13
566.141	22.18
566.337	22.15
566.532	22.25
566.728	22.32
566.923	22.15
567.119	21.84
567.314	22.03
567.51	22.06
567.705	22.27
567.901	22.25
568.096	22.34
568.292	22.46
568.487	22.43
568.682	22.51
568.878	22.37
569.073	22.45
569.268	22.61
569.464	22.58
569.659	22.63
569.854	22.83
570.05	23.19
570.245	23.12
570.44	23.09
570.635	23.26
570.831	23.45
571.026	23.69
571.221	23.91
571.416	24.05
571.611	24.2
571.806	24.32
572.002	24.24
572.197	24.29
572.392	24.34
572.587	24.3
572.782	24.38
572.977	24.38
573.172	24.42
573.367	24.53
573.562	24.59
573.757	24.49
573.952	24.61
574.147	24.69
574.342	24.72
574.537	24.88
574.732	25.09
574.927	25.29
575.121	25.24
575.316	25.24
575.511	25.3
575.706	25.16
575.901	25.28
576.096	25.38
576.29	25.53
576.485	25.37
576.68	25.56
576.875	25.57
577.069	25.36
577.264	25.61
577.459	25.6
577.654	25.68
577.848	25.73
578.043	25.77
578.238	25.52
578.432	25.42
578.627	25.41
578.821	25.4
579.016	25.45
579.21	25.46
579.405	25.32
579.6	25.59
579.794	25.62
579.989	25.75
580.183	26.01
580.378	26.18
580.572	26.27
580.766	26.56
580.961	26.56
581.155	26.74
581.35	27.31
581.544	27.44
581.738	27.51
581.933	27.44
582.127	27.59
582.321	27.57
582.516	27.67
582.71	27.67
582.904	27.8
583.099	28.06
583.293	28.04
583.487	27.94
583.681	28.07
583.875	27.83
584.07	28.12
584.264	28.24
584.458	28.28
584.652	28.45
584.846	28.56
585.04	28.5
585.234	28.39
585.428	28.63
585.623	28.55
585.817	28.7
586.011	28.84
586.205	28.87
586.399	28.87
586.593	28.92
586.787	28.92
586.981	29.02
587.174	29.03
587.368	29.15
587.562	29.14
587.756	29.14
587.95	29.1
588.144	29.24
588.338	29.07
588.532	29.16
588.725	29.25
588.919	29.28
589.113	29.38
589.307	29.54
589.501	29.48
589.694	29.42
589.888	29.36
590.082	29.43
590.275	29.57
590.469	29.66
590.663	29.76
590.856	29.8
591.05	29.82
591.244	29.85
591.437	29.9
591.631	29.97
591.824	30.02
592.018	30.25
592.212	30.21
592.405	30.1
592.599	30.15
592.792	30.16
592.986	30.14
593.179	30.14
593.372	30.03
593.566	29.79
593.759	29.95
593.953	29.88
594.146	29.91
594.339	29.87
594.533	30.05
594.726	30.24
594.92	30.12
595.113	30.28
595.306	30.48
595.499	30.6
595.693	30.66
595.886	30.53
596.079	30.69
596.272	30.75
596.466	30.78
596.659	30.69
596.852	30.71
597.045	30.95
597.238	30.87
597.431	30.76
597.624	30.83
597.818	31.14
598.011	31.37
598.204	31.36
598.397	31.47
598.59	31.65
598.783	31.85
598.976	31.74
599.169	31.71
599.362	31.99
599.555	32.37
599.748	32.58
599.941	32.62
600.134	32.64
600.326	32.73
600.519	32.63
600.712	32.66
600.905	32.65
601.098	32.79
601.291	32.9
601.483	32.64
601.676	32.41
601.869	32.16
602.062	32.13
602.255	32.19
602.447	32.06
602.64	32.28
602.833	32.19
603.025	32.39
603.218	32.72
603.411	32.81
603.603	32.98
603.796	33.03
603.989	33.12
604.181	33.2
604.374	33.08
604.566	33.28
604.759	33.06
604.951	33.12
605.144	32.94
605.336	32.81
605.529	32.82
605.721	32.88
605.914	32.77
606.106	32.69
606.299	32.77
606.491	32.73
606.683	32.77
606.876	32.91
607.068	32.89
607.26	33.06
607.453	33.18
607.645	33.12
607.837	33.09
608.03	33.24
608.222	33.62
608.414	33.62
608.606	33.79
608.799	33.84
608.991	33.94
609.183	34.11
609.375	34.14
609.567	34.14
609.759	34.39
609.952	34.41
610.144	34.41
610.336	34.41
610.528	34.33
610.72	34.29
610.912	34.4
611.104	34.41
611.296	34.29
611.488	34.36
611.68	34.18
611.872	33.86
612.064	33.98
612.256	34.12
612.448	34.12
612.64	34.27
612.832	34.33
613.023	34.43
613.215	34.36
613.407	34.63
613.599	34.31
613.791	34.5
613.983	34.64
614.174	34.78
614.366	34.97
614.558	34.98
614.75	35.04
614.941	35.26
615.133	35.21
615.325	35.47
615.516	35.44
615.708	35.75
615.9	35.52
616.091	35.45
616.283	35.22
616.475	35.22
616.666	35.22
616.858	35.09
617.049	34.97
617.241	34.98
617.432	34.86
617.624	34.86
617.815	34.87
618.007	35.15
618.198	35.21
618.39	35.2
618.581	35.43
618.773	35.32
618.964	35.39
619.155	35.35
619.347	35.24
619.538	35.39
619.729	35.5
619.921	35.48
620.112	35.56
620.303	35.73
620.494	35.8
620.686	35.72
620.877	35.83
621.068	35.58
621.259	35.81
621.451	35.96
621.642	36.04
621.833	35.99
622.024	36.16
622.215	35.99
622.406	35.99
622.597	36.04
622.788	36.08
622.98	36.28
623.171	36.45
623.362	36.42
623.553	36.35
623.744	36.43
623.935	36.37
624.126	36.49
624.317	36.73
624.508	36.6
624.698	36.95
624.889	36.6
625.08	36.43
625.271	36.82
625.462	37.01
625.653	37.03
625.844	36.98
626.034	37.08
626.225	37.06
626.416	37.22
626.607	37.51
626.798	37.46
626.988	37.7
627.179	37.94
627.37	37.75
627.56	37.54
627.751	37.62
627.942	37.56
628.132	37.5
628.323	37.34
628.514	37.49
628.704	37.36
628.895	37.34
629.085	37.25
629.276	37.21
629.466	37.1
629.657	37.24
629.847	37.38
630.038	37.4
630.228	37.54
630.419	37.64
630.609	37.14
630.8	37.55
630.99	37.43
631.181	37.4
631.371	37.25
631.561	37.73
631.752	37.96
631.942	37.95
632.132	38.32
632.323	38.34
632.513	38.45
632.703	38.83
632.893	38.41
633.084	38.25
633.274	38.27
633.464	38.33
633.654	37.96
633.844	37.88
634.034	38
634.225	37.93
634.415	38.15
634.605	38.29
634.795	38.29
634.985	38.38
635.175	38.64
635.365	38.8
635.555	38.8
635.745	39.1
635.935	39.07
636.125	38.7
636.315	38.92
636.505	38.75
636.695	38.79
636.885	38.67
637.075	38.68
637.265	38.72
637.455	38.58
637.644	38.84
637.834	38.78
638.024	38.76
638.214	39.25
638.404	38.7
638.593	38.69
638.783	38.68
638.973	38.7
639.163	38.94
639.352	38.86
639.542	39.08
639.732	38.89
639.921	39.05
640.111	39.18
640.301	38.98
640.49	39.26
640.68	39.81
640.87	39.43
641.059	39.45
641.249	39.59
641.438	39.54
641.628	39.45
641.817	39.46
642.007	39.23
642.196	39.44
642.386	39.36
642.575	39.43
642.764	39.04
642.954	39.48
643.143	39.8
643.333	39.44
643.522	39.53
643.711	39.51
643.901	39.8
644.09	40.44
644.279	40.31
644.469	40.53
644.658	40.72
644.847	41.17
645.036	40.93
645.226	40.51
645.415	40.62
645.604	40.93
645.793	41.24
645.982	40.85
646.171	40.64
646.361	40.52
646.55	40.75
646.739	40.44
646.928	40.15
647.117	40.52
647.306	40.81
647.495	40.86
647.684	41.18
647.873	41.13
648.062	41.59
648.251	41.15
648.44	41.11
648.629	40.57
648.818	40.5
649.007	40.61
649.196	40.5
649.384	40.5
649.573	40.79
649.762	40.67
649.951	40.7
650.14	40.21
650.328	40.31
650.517	40.66
650.706	41.22
650.895	41.6
651.083	41.39
651.272	41.6
651.461	41.84
651.65	42.08
651.838	41.66
652.027	41.79
652.216	41.92
652.404	42.06
652.593	41.98
652.781	41.76
652.97	41.88
653.158	42.25
653.347	41.9
653.535	41.73
653.724	41.61
653.912	41.97
654.101	41.92
654.289	42.34
654.478	42.46
654.666	42.24
654.855	42.28
655.043	42.51
655.231	42.55
655.42	42.75
655.608	42.77
655.796	42.53
655.985	42.74
656.173	42.68
656.361	42.5
656.55	42.66
656.738	42.98
656.926	43.31
657.114	43.25
657.302	43.12
657.491	43.11
657.679	43.24
657.867	43.43
658.055	43.63
658.243	43.62
658.431	43.71
658.619	43.8
658.807	43.8
658.996	43.61
659.184	43.39
659.372	43.6
659.56	43.54
659.748	43.56
659.936	43.45
660.124	43.3
660.311	43.27
660.499	43.5
660.687	43.09
660.875	43.28
661.063	43.22
661.251	43.25
661.439	43.26
661.627	43.36
661.814	43.43
662.002	43.42
662.19	43.25
662.378	43.32
662.565	43.18
662.753	43.24
662.941	42.81
663.129	42.89
663.316	42.93
663.504	42.4
663.692	42.4
663.879	42.38
664.067	42.49
664.254	42.44
664.442	42.87
664.63	42.96
664.817	43.3
665.005	43.58
665.192	43.65
665.38	43.66
665.567	43.67
665.755	44.15
665.942	44.25
666.13	44
666.317	44.01
666.504	43.61
666.692	43.64
666.879	43.19
667.067	43.12
667.254	42.65
667.441	42.95
667.629	43.01
667.816	42.39
668.003	42.16
668.19	42.28
668.378	42.57
668.565	42.42
668.752	42.73
668.939	43.28
669.127	43.28
669.314	43.77
669.501	43.51
669.688	43.78
669.875	43.73
670.062	44.27
670.249	44.45
670.436	44.52
670.623	44.97
670.81	44.47
670.997	44.07
671.184	43.58
671.371	43.57
671.558	43.73
671.745	43.72
671.932	43.87
672.119	43.56
672.306	43.72
672.493	43.37
672.68	43.58
672.867	43.79
673.054	44.16
673.24	44.92
673.427	44.98
673.614	45.15
673.801	45.56
673.988	46.15
674.174	46.69
674.361	46.74
674.548	46.74
674.734	46.79
674.921	46.52
675.108	46.48
675.294	46.69
675.481	46.85
675.668	46.81
675.854	46.64
676.041	46.45
676.227	45.86
676.414	45.53
676.601	46.35
676.787	46.4
676.974	46.5
677.16	47.18
677.347	47.05
677.533	46.82
677.719	46.7
677.906	46.71
678.092	46.55
678.279	46.84
678.465	47.14
678.651	46.55
678.838	46.63
679.024	46.92
679.21	46.73
679.397	46.83
679.583	46.61
679.769	47.02
679.955	47.11
680.142	46.99
680.328	46.88
680.514	47.06
680.7	47.25
680.886	46.92
681.073	46.72
681.259	46.6
681.445	46.46
681.631	46.6
681.817	46.19
682.003	46.12
682.189	46.2
682.375	46.08
682.561	45.79
682.747	45.72
682.933	45.82
683.119	45.78
683.305	45.48
683.491	45.39
683.677	45.38
683.863	45.71
684.049	46.12
684.235	46.56
684.42	46.73
684.606	46.64
684.792	46.82
684.978	46.59
685.164	46.78
685.349	46.89
685.535	46.99
685.721	46.88
685.907	46.49
686.092	46.28
686.278	45.96
686.464	45.72
686.649	45.98
686.835	45.53
687.021	46.32
687.206	46.36
687.392	46.58
687.577	46.39
687.763	46.86
687.948	46.92
688.134	46.9
688.319	46.96
688.505	47.53
688.69	47.64
688.876	48.1
689.061	47.55
689.247	47.67
689.432	47.46
689.618	47.49
689.803	47.42
689.988	47.68
690.174	47.49
690.359	47.63
690.544	47.51
690.73	47.36
690.915	46.88
691.1	46.95
691.285	46.92
691.471	46.95
691.656	47.1
691.841	47.06
692.026	46.8
692.211	46.96
692.396	47.16
692.582	46.95
692.767	46.89
692.952	46.87
693.137	46.81
693.322	46.49
693.507	46.65
693.692	46.7
693.877	46.57
694.062	46.59
694.247	46.5
694.432	46.19
694.617	46.17
694.802	46.44
694.987	46.8
695.172	47.12
695.357	47.67
695.541	47.59
695.726	47.79
695.911	48.15
696.096	48.42
696.281	48.09
696.466	48.76
696.65	49.19
696.835	48.58
697.02	48.76
697.204	48.61
697.389	48.69
697.574	48.56
697.759	48.33
697.943	47.74
698.128	47.53
698.312	47.58
698.497	46.99
698.682	46.7
698.866	47.44
699.051	47.45
699.235	47.04
699.42	46.99
699.604	47.32
699.789	47.43
699.973	47.79
700.158	48.25
700.342	48.46
700.527	48.7
700.711	49.05
700.895	48.69
701.08	48.62
701.264	49.11
701.448	49.02
701.633	48.52
701.817	48.53
702.001	48.84
702.186	48.66
702.37	48.23
702.554	47.85
702.738	47.78
702.923	47.84
703.107	47.27
703.291	47.41
703.475	47.17
703.659	47.27
703.843	47.61
704.027	47.49
704.212	47.23
704.396	47.92
704.58	48.98
704.764	48.82
704.948	48.52
705.132	48.86
705.316	49
705.5	49.15
705.684	49.88
705.868	49.02
706.052	49.6
706.235	49.58
706.419	49.11
706.603	48.79
706.787	48.65
706.971	49.4
707.155	49.7
707.339	49.32
707.522	48.82
707.706	48.18
707.89	48.98
708.074	48.3
708.257	47.94
708.441	48.19
708.625	48.03
708.808	48.11
708.992	47.55
709.176	47.21
709.359	47.23
709.543	47.8
709.727	47.65
709.91	47.7
710.094	47.83
710.277	48.48
710.461	48.34
710.644	48.3
710.828	48.34
711.011	48.33
711.195	48.3
711.378	48.74
711.562	48.5
711.745	48.8
711.928	48.56
712.112	49
712.295	49.04
712.478	49.42
712.662	49.61
712.845	49.34
713.028	49.21
713.212	49.26
713.395	49.26
713.578	49.42
713.761	49.57
713.945	49.88
714.128	49.16
714.311	49.6
714.494	49.98
714.677	49.75
714.86	49.92
715.043	50.07
715.227	50.58
715.41	50.08
715.593	50.45
715.776	50.81
715.959	50.85
716.142	51.54
716.325	51.11
716.508	50.72
716.691	50.85
716.874	50.76
717.057	51.77
717.239	51.69
717.422	52.11
717.605	52.32
717.788	51.53
717.971	51.5
718.154	51.28
718.337	51.72
718.519	51.53
718.702	51.17
718.885	51.57
719.068	51.36
719.25	51.23
719.433	51.21
719.616	50.66
719.798	50.91
719.981	50.75
720.164	50.5
720.346	49.97
720.529	49.17
720.712	49.89
720.894	49.75
721.077	49.44
721.259	49.6
721.442	49.16
721.624	49.24
721.807	50.28
721.989	50.26
722.172	50.38
722.354	50.75
722.537	51.62
722.719	51.67
722.901	51.71
723.084	51.06
723.266	51.23
723.448	51.93
723.631	52.03
723.813	52.29
723.995	52.37
724.178	52.51
724.36	51.7
724.542	51.56
724.724	51.55
724.907	51.75
725.089	51.67
725.271	51.45
725.453	50.51
725.635	51.05
725.817	50.29
725.999	50.44
726.181	50.51
726.364	51.17
726.546	51.49
726.728	51.49
726.91	51.85
727.092	52.51
727.274	52.75
727.456	53.91
727.638	53.9
727.819	54.06
728.001	53.82
728.183	53.53
728.365	53.49
728.547	53.4
728.729	53.06
728.911	52.62
729.093	52.14
729.274	52.4
729.456	52.04
729.638	51.64
729.82	51.97
730.001	52.19
730.183	52.17
730.365	52.28
730.546	52.19
730.728	52.61
730.91	52.32
731.091	52.41
731.273	52.11
731.455	52.09
731.636	52.53
731.818	52.18
731.999	52.41
732.181	52.1
732.362	51.93
732.544	52.45
732.725	51.94
732.907	52.43
733.088	52.52
733.27	51.73
733.451	51.56
733.633	50.99
733.814	50.72
733.995	49.86
734.177	50.4
734.358	49.55
734.539	48.66
734.721	48.88
734.902	48.94
735.083	48.74
735.264	49.88
735.446	49.84
735.627	49.94
735.808	50.26
735.989	50.9
736.17	51.03
736.351	52.04
736.533	53.16
736.714	52.79
736.895	52.51
737.076	52.43
737.257	51.74
737.438	52.43
737.619	52.6
737.8	51.81
737.981	51.77
738.162	51.53
738.343	51.08
738.524	50.17
738.705	50.24
738.886	50.1
739.067	50.75
739.247	51.56
739.428	51.11
739.609	50.7
739.79	50.99
739.971	51.9
740.151	52.09
740.332	52.65
740.513	53.62
740.694	54.52
740.874	55.09
741.055	54.03
741.236	53.53
741.417	53.16
741.597	54.55
741.778	55.24
741.958	55.2
742.139	54.7
742.32	54.15
742.5	53.68
742.681	52.72
742.861	52.39
743.042	52.91
743.222	53.27
743.403	53.71
743.583	52.78
743.764	50.97
743.944	50.18
744.124	50.04
744.305	50.51
744.485	50.02
744.666	50.63
744.846	50.9
745.026	51.38
745.207	50.75
745.387	51.29
745.567	50.72
745.747	52.02
745.928	52.18
746.108	53.31
746.288	52.58
746.468	53.52
746.648	53.2
746.829	53.05
747.009	52.81
747.189	53.14
747.369	52.86
747.549	53.69
747.729	53.66
747.909	52.76
748.089	52.39
748.269	52.72
748.449	52.54
748.629	53.44
748.809	52.44
748.989	53.3
749.169	53.56
749.349	52.56
749.529	52.81
749.709	52.47
749.889	53.26
750.068	53.26
750.248	54.01
750.428	54.16
750.608	52.84
750.788	53.72
750.967	52.63
751.147	53.55
751.327	54.19
751.507	53.02
751.686	53.17
751.866	51.89
752.046	50.71
752.225	49.56
752.405	48.98
752.585	49.78
752.764	50.04
752.944	50.53
753.123	49.4
753.303	49.92
753.482	50.48
753.662	51.29
753.841	52.97
754.021	54.45
754.2	55.81
754.38	56.66
754.559	57.13
754.739	56.91
754.918	56.12
755.097	55.46
755.277	55.59
755.456	56
755.635	55.41
755.815	54.98
755.994	54.43
756.173	53.5
756.352	53.71
756.532	53.62
756.711	52.51
756.89	53.24
757.069	53.48
757.248	52.82
757.427	52.37
757.607	51.86
757.786	51.14
757.965	50.93
758.144	50.97
758.323	50.12
758.502	49.97
758.681	50.06
758.86	50.1
759.039	50.33
759.218	50.09
759.397	49.91
759.576	50.82
759.755	51.88
759.934	52.72
760.113	53.45
760.291	53.22
760.47	53.66
760.649	54.04
760.828	53.36
761.007	53.53
761.186	53.24
761.364	54.26
761.543	53.73
761.722	53.15
761.901	52.6
762.079	51.17
762.258	51.52
762.437	50.92
762.615	51.92
762.794	52.53
762.972	52.51
763.151	54.34
763.33	53.73
763.508	53.96
763.687	54.45
763.865	54.23
764.044	54.9
764.222	55.01
764.401	55.6
764.579	55.78
764.758	55.35
764.936	55.72
765.114	54.46
765.293	54.51
765.471	54.01
765.65	53.48
765.828	53.87
766.006	53.47
766.184	53.08
766.363	51.68
766.541	50.22
766.719	50.57
766.898	50.27
767.076	50.31
767.254	50
767.432	50
767.61	49.67
767.788	49.43
767.967	49.63
768.145	49.57
768.323	50.16
768.501	50.68
768.679	50.58
768.857	50.74
769.035	51.07
769.213	51.16
769.391	51.56
769.569	52.71
769.747	52.78
769.925	53.67
770.103	54.73
770.281	54.11
770.459	55.19
770.636	55.12
770.814	54.05
770.992	54.46
771.17	53.81
771.348	54.33
771.525	53.44
771.703	54.01
771.881	52.86
772.059	50.88
772.236	51.69
772.414	50.13
772.592	49.54
772.769	50.94
772.947	50.86
773.125	51.66
773.302	51.37
773.48	52.35
773.657	52.5
773.835	53.64
774.013	54.54
774.19	54.68
774.368	55.67
774.545	56.27
774.723	55.43
774.9	55.13
775.077	55.82
775.255	54.83
775.432	53.63
775.61	53.66
775.787	52.27
775.964	52.16
776.142	53.43
776.319	53.32
776.496	52.89
776.674	52.96
776.851	52.52
777.028	52.58
777.205	54.02
777.382	55.05
777.56	54.22
777.737	56.53
777.914	57.03
778.091	55.39
778.268	55.46
778.445	55.96
778.622	56.4
778.8	57.36
778.977	56.52
779.154	56.34
779.331	54.25
779.508	54.68
779.685	54.38
779.862	54.71
780.038	54.45
780.215	55.44
780.392	56.21
780.569	54.71
780.746	54.31
780.923	54.42
781.1	53.98
781.277	57.1
781.453	57.06
781.63	54.49
781.807	54.95
781.984	54.38
782.16	54.18
782.337	54.15
782.514	55.29
782.691	55.57
782.867	56.86
783.044	57.48
783.221	56.41
783.397	57.58
783.574	57.07
783.75	56.31
783.927	59.1
784.103	59.93
784.28	59.67
784.456	59.09
784.633	58.74
784.809	56.39
784.986	56.44
785.162	56.36
785.339	54.98
785.515	58.03
785.692	58.12
785.868	58.08
786.044	55.55
786.221	55.35
786.397	55.26
786.573	56.82
786.749	58.72
786.926	58.65
787.102	58.28
787.278	59.3
787.454	59.17
787.631	59.28
787.807	58.12
787.983	58.73
788.159	58.84
788.335	60.04
788.511	59.21
788.687	58.14
788.863	57.72
789.039	57.82
789.216	56.57
789.392	56.04
789.568	56.78
789.744	55.75
789.919	55.93
790.095	54.94
790.271	54.04
790.447	51.82
790.623	53.8
790.799	53.18
790.975	53.23
791.151	53.29
791.327	52.1
791.502	52.11
791.678	53.18
791.854	53.37
792.03	53.93
792.205	55.18
792.381	56.6
792.557	55.49
792.733	54.07
792.908	55.18
793.084	54.48
793.259	54.89
793.435	52.42
793.611	52.82
793.786	53.17
793.962	55.59
794.137	54.66
794.313	55.42
794.488	54.5
794.664	56.26
794.839	55.74
795.015	56.7
795.19	56.66
795.366	57.22
795.541	55.71
795.716	55
795.892	53.34
796.067	52.91
796.242	52.73
796.418	51.62
796.593	53.36
796.768	53.5
796.944	55.1
797.119	55.25
797.294	55.66
797.469	55.23
797.644	55.18
797.82	54.1
797.995	55.33
798.17	55.84
798.345	58.11
798.52	56.49
798.695	54.99
798.87	53.23
799.045	52.76
799.22	53.13
799.395	53.63
799.57	52.61
799.745	54.48
799.92	53.96
800.095	52.74
800.27	52.28
800.445	52.92
800.62	53.93
800.795	55.4
800.97	56.54
801.145	56.55
801.319	56.75
801.494	57.7
801.669	56.98
801.844	56.3
802.018	57.96
802.193	55.39
802.368	55.22
802.543	56.62
802.717	54.82
802.892	54.07
803.067	55.44
803.241	57.1
803.416	58.89
803.59	62
803.765	64.29
803.94	64.57
804.114	67.33
804.289	68.55
804.463	67.78
804.638	67.96
804.812	67.69
804.986	69.49
805.161	68.37
805.335	66.12
805.51	64.33
805.684	60.71
805.858	57.42
806.033	57.53
806.207	54.78
806.381	52.96
806.556	51.75
806.73	54.73
806.904	53.17
807.078	53.3
807.253	52.3
807.427	50.67
807.601	52.37
807.775	54.97
807.949	55.75
808.123	57.15
808.298	59.98
808.472	60.78
808.646	58.61
808.82	59.18
808.994	57.38
809.168	58.87
809.342	60.18
809.516	59.15
809.69	57.78
809.864	57.43
810.038	57.16
810.212	53.22
810.385	53.5
810.559	53.5
810.733	51.58
810.907	53.43
811.081	51.17
811.255	52.46
811.428	55.15
811.602	54.69
811.776	52.67
811.95	53.82
812.123	58.27
812.297	58.63
812.471	59.5
812.644	60.39
812.818	59.71
812.992	61.39
813.165	57.93
813.339	55.53
813.512	58.19
813.686	58.57
813.86	58.27
814.033	55.85
814.207	56.21
814.38	55.86
814.554	53.56
814.727	52.91
814.9	53.66
815.074	54.65
815.247	59.18
815.421	57.74
815.594	57.39
815.767	57.26
815.941	56.82
816.114	55.49
816.287	55.34
816.46	54.95
816.634	57.47
816.807	58.27
816.98	58.12
817.153	56.03
817.327	57.2
817.5	57.78
817.673	58.48
817.846	59.15
818.019	60.89
818.192	62.27
818.365	62.23
818.538	60.09
818.711	58.31
818.884	59.74
819.057	57.29
819.23	57.25
819.403	55.48
819.576	54.68
819.749	54.34
819.922	52.82
820.095	53.31
820.268	52.99
820.441	54.08
820.614	53.09
820.786	52.1
820.959	54.11
821.132	52.95
821.305	53.22
821.477	53.13
821.65	53.51
821.823	53.73
821.996	53.22
822.168	54.17
822.341	53.38
822.514	53.54
822.686	53.58
822.859	52.54
823.031	52.35
823.204	52.67
823.376	52.66
823.549	52.46
823.722	52.6
823.894	53.08
824.067	52.56
824.239	52.7
824.411	52.5
824.584	52.72
824.756	53.49
824.929	53.67
825.101	53.84
825.273	54.22
825.446	54.21
825.618	53.46
825.79	52.82
825.963	53.18
826.135	53.49
826.307	54.28
826.479	54.12
826.652	54.52
826.824	54.72
826.996	54.44
827.168	53.4
827.34	54.15
827.512	54.81
827.684	55.18
827.856	55.43
828.029	54.86
828.201	54.43
828.373	53.74
828.545	52.91
828.717	53.42
828.889	53.11
829.061	53.82
829.232	53.38
829.404	52.13
829.576	51.4
829.748	50.85
829.92	50.49
830.092	51.88
830.264	53.29
830.436	53.86
830.607	53.3
830.779	53.01
830.951	53.8
831.123	52.54
831.294	54.72
831.466	56.56
831.638	58.06
831.809	58.84
831.981	58.1
832.153	55.42
832.324	56.49
832.496	56.46
832.667	59.14
832.839	57.76
833.011	59.07
833.182	60.01
833.354	57.12
833.525	55.67
833.697	56.5
833.868	55.48
834.039	55.24
834.211	52.39
834.382	52.38
834.554	51.04
834.725	51.53
834.896	50.99
835.068	51.25
835.239	50.78
835.41	50.04
835.581	50.48
835.753	50.02
835.924	50.98
836.095	54.05
836.266	54.55
836.438	54.17
836.609	54.88
836.78	54.8
836.951	53.46
837.122	54.39
837.293	57.19
837.464	57.02
837.635	56.28
837.806	57.08
837.977	57.27
838.148	56.47
838.319	57.33
838.49	57.28
838.661	60.47
838.832	62.85
839.003	64.49
839.174	63.54
839.345	61.66
839.516	62.32
839.687	60.57
839.857	55.62
840.028	57.51
840.199	60.08
840.37	59.44
840.54	57.4
840.711	57.4
840.882	57.17
841.053	57.23
841.223	59.83
841.394	61.94
841.564	63.88
841.735	67.46
841.906	67.11
842.076	65.11
842.247	65.42
842.417	64.6
842.588	65.83
842.758	71.75
842.929	70.9
843.099	69.69
843.27	76.01
843.44	73.93
843.611	74.59
843.781	76.31
843.951	78.91
844.122	78.4
844.292	82.43
844.462	77.71
844.633	69.49
844.803	70.72
844.973	70.97
845.144	63.73
845.314	68.1
845.484	65.12
845.654	60.32
845.824	65.47
845.995	68.85
846.165	69.01
846.335	66.92
846.505	66.34
846.675	68.47
846.845	61.36
847.015	61.28
847.185	62.08
847.355	64.33
847.525	67.27
847.695	58.66
847.865	52.76
848.035	47.67
848.205	48.2
848.375	47.86
848.545	41.38
848.715	48.49
848.884	44.3
849.054	40.2
849.224	35.11
849.394	35.68
849.564	37.14
849.733	36.69
849.903	40.56
850.073	41.72
850.243	44.49
850.412	54.66
850.582	56.29
850.752	57.16
850.921	66.35
851.091	76.22
851.26	75.32
851.43	77.81
851.599	80.55
851.769	78.15
851.939	74.9
852.108	78.35
852.278	74.18
852.447	71.09
852.616	75.79
852.786	72.71
852.955	65.22
853.125	66.22
853.294	61.54
853.463	62.71
853.633	64.38
853.802	66.19
853.971	57.42
854.141	56.76
854.31	61.34
854.479	59.47
854.648	60.45
854.818	63.55
854.987	71.4
855.156	77.25
855.325	70.15
855.494	66.98
855.663	75.23
855.832	74.89
856.001	70.55
856.171	70.17
856.34	74.08
856.509	67.73
856.678	76.7
856.847	69.07
857.016	57.33
857.185	67.5
857.353	73.2
857.522	66.86
857.691	74.21
857.86	75.92
858.029	73.57
858.198	64.07
858.367	70.17
858.535	60.9
858.704	59.2
858.873	67.13
859.042	60.42
859.21	55.76
859.379	57.92
859.548	55.14
859.717	58.18
859.885	63.41
860.054	64.43
860.222	64
860.391	67.75
860.56	75.7
860.728	75.52
860.897	78.17
861.065	77.53
861.234	75.7
861.402	76.89
861.571	74.32
861.739	68.66
861.908	66.99
862.076	71.8
862.244	62.69
862.413	65.15
862.581	64.42
862.749	66.12
862.918	67.89
863.086	71.62
863.254	66.45
863.423	72.43
863.591	77.78
863.759	81.47
863.927	81.98
864.096	87.11
864.264	82.67
864.432	83.34
864.6	83.97
864.768	85.53
864.936	78.83
865.104	82.59
865.272	79.18
865.44	71.44
865.608	74.83
865.776	67.03
865.944	62.38
866.112	61.59
866.28	56.14
866.448	52.94
866.616	54.46
866.784	59.36
866.952	64.4
867.12	64.6
867.288	69.48
867.455	68.68
867.623	73.66
867.791	77.53
867.959	82.81
868.127	85.24
868.294	82.37
868.462	74.29
868.63	74.73
868.797	66.55
868.965	63.81
869.133	64.37
869.3	63.61
869.468	63.29
869.636	60.39
869.803	59.51
869.971	65.99
870.138	70.37
870.306	77.52
870.473	74.91
870.641	70.41
870.808	75.7
870.975	75.84
871.143	77.29
871.31	76.12
871.478	75.75
871.645	72.94
871.812	73.12
871.98	64.85
872.147	62.02
872.314	59.87
872.482	68.7
872.649	67.62
872.816	60
872.983	57.62
873.15	57.34
873.318	61.63
873.485	57.5
873.652	58.85
873.819	64.98
873.986	67.88
874.153	69.89
874.32	65.73
874.487	66.28
874.654	73.55
874.821	73.43
874.988	81.08
875.155	84.18
875.322	97.57
875.489	93.02
875.656	94.5
875.823	83.97
875.99	81.41
876.157	80.88
876.324	71.53
876.49	66.16
876.657	66.02
876.824	52.17
876.991	52.03
877.157	50.07
877.324	49.9
877.491	47.84
877.658	57.46
877.824	57.01
877.991	61.48
878.157	67.75
878.324	73.47
878.491	71.57
878.657	80.18
878.824	74.71
878.99	73.63
879.157	74.64
879.323	77
879.49	69.8
879.656	67.94
879.823	61.26
879.989	53.86
880.156	50.63
880.322	51.81
880.488	46.47
880.655	46.33
880.821	48.04
880.987	48.39
881.154	47.52
881.32	55.14
881.486	54.14
881.652	56.47
881.819	57.05
881.985	53.99
882.151	54.13
882.317	54.95
882.483	55
882.649	55.03
882.816	54.51
882.982	54.8
883.148	53.22
883.314	53.87
883.48	53.74
883.646	54.57
883.812	54.15
883.978	54.79
884.144	55.79
884.31	56.5
884.476	55.21
884.642	56.39
884.807	55.73
884.973	55.66
885.139	55.25
885.305	54.59
885.471	52.82
885.637	54.24
885.802	54.7
885.968	53.98
886.134	52.7
886.3	52.4
886.465	51.59
886.631	51.15
886.797	51.68
886.962	50.73
887.128	52.36
887.293	57.7
887.459	57.9
887.625	59.58
887.79	59.93
887.956	64.95
888.121	68.92
888.287	69.19
888.452	74.27
888.618	74.09
888.783	81.52
