Data from LC_236_Reflection_1.txt Node
Date: Thu Nov 19 22:07:58 EST 2015
User: robert
Spectrometer: USB4E03001
Autoset integration time: false
Trigger mode: 4
Integration Time (sec): 1.000000E-1
Scans to average: 15
Electric dark correction enabled: true
Nonlinearity correction enabled: false
Boxcar width: 5
Stray light correction enabled: false
XAxis mode: Wavelengths
Stop averaging: false
Number of Pixels in Spectrum: 3648
>>>>>Begin Spectral Data<<<<<
177.566	7.58
177.785	24.99
178.005	38.94
178.225	40.97
178.445	82.51
178.665	50.72
178.885	57
179.105	72.02
179.324	-115.77
179.544	-149.66
179.764	-10.86
179.984	50.96
180.204	94.37
180.423	148.19
180.643	117.07
180.863	57.14
181.083	119.19
181.302	99.31
181.522	107.57
181.742	134.39
181.961	149.91
182.181	166.34
182.401	178.13
182.621	133.28
182.84	108.35
183.06	115.96
183.279	128.2
183.499	96.02
183.719	179.65
183.938	-719.53
184.158	907.66
184.377	529.93
184.597	-388.73
184.816	4297.17
185.036	242.36
185.256	-2068.33
185.475	-64.34
185.695	-47.42
185.914	-40.63
186.134	-101.84
186.353	13.32
186.572	2.79
186.792	-125.24
187.011	-165.06
187.231	-402.21
187.45	-849.53
187.67	-36.88
187.889	-0.96
188.108	19.7
188.328	39.78
188.547	1.39
188.766	84.71
188.986	50.85
189.205	250
189.424	-37.12
189.644	-55.75
189.863	-32.28
190.082	17.37
190.302	16.4
190.521	28.21
190.74	36.62
190.959	39.83
191.178	51.87
191.398	56.61
191.617	54.67
191.836	286.66
192.055	135.47
192.274	214.64
192.494	155.73
192.713	85.7
192.932	66.99
193.151	65.72
193.37	36.8
193.589	28.96
193.808	52.92
194.027	72.91
194.246	57.91
194.465	50.57
194.685	41.35
194.904	23.49
195.123	24.07
195.342	28.93
195.561	10.46
195.78	52.7
195.999	60.83
196.218	41.64
196.436	26.41
196.655	6.49
196.874	33.88
197.093	53.28
197.312	82.35
197.531	95.43
197.75	100.64
197.969	131.83
198.188	-44.29
198.407	-0.24
198.625	-96.65
198.844	-76.68
199.063	-1568.79
199.282	-95.38
199.501	-140.72
199.719	-213.12
199.938	-26.47
200.157	-151.53
200.376	-204.45
200.594	1372.02
200.813	567.11
201.032	479.27
201.251	359.61
201.469	-35.32
201.688	74.91
201.907	12.9
202.125	51.96
202.344	21.23
202.563	-113.98
202.781	-103.73
203	-130.99
203.218	-81.42
203.437	-191.23
203.656	-107.65
203.874	-147.38
204.093	-308.35
204.311	-75.28
204.53	-67.04
204.748	-65.48
204.967	17.25
205.185	16.37
205.404	18.93
205.622	2.24
205.841	48.15
206.059	28.06
206.278	-41.42
206.496	-47.24
206.715	14.99
206.933	77.92
207.151	83.84
207.37	60.64
207.588	-15.78
207.806	69
208.025	87.38
208.243	69.5
208.461	114.9
208.68	202.06
208.898	175.97
209.116	50.81
209.335	131.82
209.553	378.54
209.771	-1863.87
209.989	438.32
210.208	-70.63
210.426	0.62
210.644	204.78
210.862	131.21
211.081	115.14
211.299	103.64
211.517	164.2
211.735	115.67
211.953	76.94
212.171	59.67
212.39	49.62
212.608	60.45
212.826	72.53
213.044	58.6
213.262	36.98
213.48	43.34
213.698	44.81
213.916	29.65
214.134	-38.49
214.352	-80.04
214.57	-22.5
214.788	43.22
215.006	-63.71
215.224	-125.89
215.442	-173.23
215.66	-19.67
215.878	-126.49
216.096	-246.22
216.314	-352.36
216.532	-245.89
216.75	-345.47
216.968	132.48
217.185	335.62
217.403	874.46
217.621	1604.82
217.839	-158.55
218.057	-65.78
218.275	6.28
218.492	7.92
218.71	19.52
218.928	-2
219.146	-37.28
219.363	-8.37
219.581	-17.59
219.799	35.25
220.017	30.44
220.234	50.78
220.452	62.03
220.67	60.2
220.887	47.63
221.105	48.41
221.323	44
221.54	67.25
221.758	68.05
221.976	48.24
222.193	40.64
222.411	28.93
222.629	15.8
222.846	2.79
223.064	3.7
223.281	19.18
223.499	-5.87
223.716	7.76
223.934	-8.46
224.151	1.43
224.369	-4.07
224.586	-17.71
224.804	3.34
225.021	10.39
225.239	13.53
225.456	5.01
225.674	-19.18
225.891	0.86
226.108	10.77
226.326	5.72
226.543	6.43
226.76	22.13
226.978	22.62
227.195	22.27
227.413	10.81
227.63	3.05
227.847	8.85
228.064	10.82
228.282	6.67
228.499	4.28
228.716	4.89
228.934	5.16
229.151	4.67
229.368	5.21
229.585	4.16
229.802	4.1
230.02	5.75
230.237	5.48
230.454	5.46
230.671	4.35
230.888	3.33
231.105	1.83
231.323	1.66
231.54	1.88
231.757	-0.44
231.974	-1.91
232.191	0.68
232.408	-3.03
232.625	-2.32
232.842	0.72
233.059	4.36
233.276	10.86
233.493	13.33
233.71	9.29
233.927	10.02
234.144	9.15
234.361	5.31
234.578	5.42
234.795	11.46
235.012	12.34
235.229	6.19
235.446	11.51
235.663	2.88
235.879	2.68
236.096	-1.31
236.313	-1.07
236.53	4.43
236.747	12
236.964	11.01
237.181	7.34
237.397	4.33
237.614	7.22
237.831	2.36
238.048	7.81
238.264	8.11
238.481	12.4
238.698	9.54
238.915	9.17
239.131	3.31
239.348	6.57
239.565	11.16
239.781	12.01
239.998	12.72
240.215	12.12
240.431	9.13
240.648	10.19
240.865	7.95
241.081	9.26
241.298	8.01
241.514	9.41
241.731	8.54
241.947	7.97
242.164	7.2
242.38	7.39
242.597	6.72
242.814	8.2
243.03	7.58
243.246	9.88
243.463	9.49
243.679	9.19
243.896	10.35
244.112	11.11
244.329	10.61
244.545	13.06
244.762	14.22
244.978	14.78
245.194	12.62
245.411	12.82
245.627	10.64
245.843	10.31
246.06	11.19
246.276	9.14
246.492	8.47
246.709	9.18
246.925	8.57
247.141	7.71
247.357	8.71
247.574	9.72
247.79	9.89
248.006	10.77
248.222	10.76
248.439	10.06
248.655	10.47
248.871	10.9
249.087	10.06
249.303	9.32
249.519	9.1
249.736	8.61
249.952	7.52
250.168	7.09
250.384	4.81
250.6	5.65
250.816	6.07
251.032	7.1
251.248	7.36
251.464	6.85
251.68	7.49
251.896	8.7
252.112	7.65
252.328	7.69
252.544	8.05
252.76	10.72
252.976	10.74
253.192	10.16
253.408	9.01
253.624	8.28
253.84	10.25
254.056	9.96
254.272	8.85
254.487	7.9
254.703	9.36
254.919	9.4
255.135	8.38
255.351	6.94
255.567	9.46
255.782	9
255.998	8.56
256.214	7.33
256.43	7.43
256.646	11.59
256.861	13.37
257.077	11.8
257.293	10.52
257.508	10.18
257.724	11.22
257.94	9.66
258.155	11.3
258.371	11.74
258.587	10.36
258.802	10.47
259.018	9.54
259.234	10.49
259.449	10.22
259.665	9.87
259.88	8.98
260.096	9.28
260.312	8.54
260.527	8.03
260.743	7.87
260.958	8.04
261.174	8.09
261.389	7.93
261.605	7.07
261.82	6.23
262.036	5.7
262.251	5.8
262.466	4.93
262.682	5.28
262.897	5.49
263.113	4.91
263.328	5.63
263.543	6.46
263.759	5.13
263.974	5.44
264.189	8.13
264.405	9.02
264.62	9.34
264.835	8.94
265.051	9.51
265.266	8.14
265.481	8.52
265.696	7.6
265.912	5
266.127	6.06
266.342	5.1
266.557	4.58
266.773	4.38
266.988	3.99
267.203	3.45
267.418	3.74
267.633	3.9
267.848	3.75
268.064	4.54
268.279	5.62
268.494	5.91
268.709	6.28
268.924	5.55
269.139	5.79
269.354	5.75
269.569	5.75
269.784	5.9
269.999	6.17
270.214	6.76
270.429	7.38
270.644	7
270.859	6.38
271.074	5.65
271.289	6.87
271.504	6.6
271.719	7.07
271.934	7.18
272.149	7.14
272.363	7.2
272.578	7.58
272.793	6.39
273.008	6.09
273.223	6.76
273.438	7.86
273.653	7.02
273.867	5.92
274.082	5.4
274.297	5.41
274.512	5.78
274.726	6.09
274.941	5.12
275.156	6.04
275.371	6.65
275.585	6.29
275.8	4.89
276.015	5.05
276.229	8.1
276.444	9.2
276.659	8.58
276.873	7.78
277.088	7.6
277.302	7.28
277.517	7.1
277.732	6.53
277.946	6.56
278.161	8.14
278.375	8.17
278.59	6.58
278.804	6.64
279.019	8.12
279.233	7.02
279.448	7.74
279.662	8.83
279.877	8.08
280.091	9.44
280.306	7.67
280.52	5.93
280.735	7.16
280.949	6.98
281.163	5.97
281.378	6.03
281.592	8.64
281.806	7.54
282.021	7.65
282.235	7.62
282.449	6.3
282.664	6.67
282.878	8.19
283.092	6
283.307	6.59
283.521	6.42
283.735	5.85
283.949	4.82
284.164	5.54
284.378	4.38
284.592	4.21
284.806	5.8
285.02	6.85
285.234	6.24
285.449	6.55
285.663	6.92
285.877	7.64
286.091	7.54
286.305	7.43
286.519	6.98
286.733	7.17
286.947	7.94
287.161	6.4
287.375	6.4
287.589	5.87
287.803	6.28
288.017	6.18
288.231	6.02
288.445	5.79
288.659	6.35
288.873	5.56
289.087	5.08
289.301	5.04
289.515	5.63
289.729	4.75
289.943	5.44
290.157	6.22
290.371	5.98
290.584	5.9
290.798	6.64
291.012	6.12
291.226	7.27
291.44	9.08
291.654	8.15
291.867	8.08
292.081	8.13
292.295	7.46
292.509	6.33
292.722	7.12
292.936	6.83
293.15	4.97
293.364	5.92
293.577	6.36
293.791	5.13
294.005	5.9
294.218	6.5
294.432	7.04
294.645	7.33
294.859	7.61
295.073	7.33
295.286	7.69
295.5	8.65
295.713	8.61
295.927	8.96
296.14	8.54
296.354	7.45
296.568	7.87
296.781	7.49
296.994	7.62
297.208	8.34
297.421	8.79
297.635	8.85
297.848	8.87
298.062	8.58
298.275	8.13
298.489	8.91
298.702	10.36
298.915	10.13
299.129	10.65
299.342	10.7
299.555	9.57
299.769	8.41
299.982	7.54
300.195	8.03
300.409	7.81
300.622	7.18
300.835	7.07
301.048	6.55
301.262	6.27
301.475	5.6
301.688	5.79
301.901	6.94
302.115	7.24
302.328	8.31
302.541	6.64
302.754	6.33
302.967	6.73
303.18	5.78
303.393	5.21
303.607	5.5
303.82	6.02
304.033	5.99
304.246	5.59
304.459	5.25
304.672	5.32
304.885	6.79
305.098	7.11
305.311	6.85
305.524	7.45
305.737	8.26
305.95	8.15
306.163	8.29
306.376	7.55
306.589	7.93
306.802	7.63
307.015	7.46
307.228	7.64
307.44	7.66
307.653	7.89
307.866	8.34
308.079	8.24
308.292	7.93
308.505	7.44
308.718	7.47
308.93	6.91
309.143	7.1
309.356	6.65
309.569	5.97
309.781	5.45
309.994	4.99
310.207	4.49
310.42	5.13
310.632	4.76
310.845	5.52
311.058	6.52
311.27	6.33
311.483	6.23
311.696	6.61
311.908	7.05
312.121	6.84
312.333	6.95
312.546	6.63
312.759	6.54
312.971	6.81
313.184	6.04
313.396	5.84
313.609	6.86
313.821	7.32
314.034	7.05
314.246	6.66
314.459	7
314.671	7.24
314.884	8.06
315.096	7.78
315.309	8.04
315.521	8.55
315.733	8.21
315.946	8.16
316.158	8.7
316.371	8.19
316.583	8.58
316.795	8.14
317.008	7.49
317.22	6.89
317.432	7.08
317.644	7.09
317.857	6
318.069	5.54
318.281	4.72
318.494	5
318.706	5.17
318.918	4.9
319.13	5.18
319.342	5.58
319.555	5.35
319.767	4.67
319.979	3.96
320.191	4.09
320.403	4.26
320.615	3.56
320.827	3.01
321.039	2.11
321.252	1.91
321.464	2.33
321.676	2.96
321.888	1.95
322.1	3.06
322.312	4.03
322.524	5
322.736	4.65
322.948	6.43
323.16	6.46
323.372	6.72
323.584	7.35
323.796	6.72
324.007	6.5
324.219	7.37
324.431	6.17
324.643	5.43
324.855	6.02
325.067	6.66
325.279	5.47
325.491	5.97
325.702	6.41
325.914	5.09
326.126	5.84
326.338	6.16
326.55	5.91
326.761	5.96
326.973	6.22
327.185	5.55
327.396	5.92
327.608	6.73
327.82	5.99
328.032	6.16
328.243	7.36
328.455	7.35
328.666	7.53
328.878	7.98
329.09	8.14
329.301	9.07
329.513	9.48
329.725	8.85
329.936	8.37
330.148	8.1
330.359	8.93
330.571	8.81
330.782	8.42
330.994	9.23
331.205	9.72
331.417	10.63
331.628	10.25
331.84	10.1
332.051	10.01
332.262	10.25
332.474	10.99
332.685	10.74
332.897	11.2
333.108	11.36
333.319	10.02
333.531	9.91
333.742	9.26
333.953	9.69
334.165	10.36
334.376	10.89
334.587	11
334.799	10.57
335.01	9.82
335.221	10.13
335.432	11.12
335.644	11.32
335.855	11.21
336.066	11.94
336.277	11.16
336.488	10.33
336.7	10.47
336.911	10.34
337.122	10.24
337.333	11.18
337.544	10.32
337.755	9.5
337.966	9.41
338.177	9.76
338.388	9.8
338.599	9.58
338.811	9.73
339.022	9.14
339.233	8.85
339.444	9.41
339.655	9
339.866	9.22
340.076	9.64
340.287	9.65
340.498	9.25
340.709	9.16
340.92	9.06
341.131	9.23
341.342	9.47
341.553	10.23
341.764	9.91
341.975	9.41
342.185	10.03
342.396	10.11
342.607	10.85
342.818	11.03
343.029	10.91
343.239	11.17
343.45	10.93
343.661	10.39
343.872	10.35
344.082	10.39
344.293	11.21
344.504	10.28
344.714	10.17
344.925	9.57
345.136	9.49
345.346	9.07
345.557	8.99
345.768	8.65
345.978	8.99
346.189	8.23
346.399	8.07
346.61	7.59
346.821	7.78
347.031	7.87
347.242	8.49
347.452	9.16
347.663	9.05
347.873	10.01
348.084	10.34
348.294	10.29
348.504	11.56
348.715	12.32
348.925	12.52
349.136	13.18
349.346	12.68
349.557	12.38
349.767	11.71
349.977	12.48
350.188	11.42
350.398	11.42
350.608	11.32
350.819	10.42
351.029	9.57
351.239	9.75
351.449	8.59
351.66	9.08
351.87	9.05
352.08	9.04
352.29	8.84
352.501	9.2
352.711	9.44
352.921	10.05
353.131	9.63
353.341	9.92
353.552	10.56
353.762	11.11
353.972	11.03
354.182	10.93
354.392	11.21
354.602	10.25
354.812	10.06
355.022	9.36
355.232	8.97
355.442	9.42
355.652	9.31
355.862	8.1
356.072	7.86
356.282	8.36
356.492	8.39
356.702	8.01
356.912	8.4
357.122	8.73
357.332	9.4
357.542	8.95
357.752	8.91
357.962	9.19
358.171	10.29
358.381	10.97
358.591	10.33
358.801	10.54
359.011	10.64
359.221	10.6
359.43	10.16
359.64	9.98
359.85	10.26
360.06	10.13
360.269	9.89
360.479	8.75
360.689	8.24
360.899	8.39
361.108	8.33
361.318	8.16
361.528	8.32
361.737	8.71
361.947	8.45
362.156	8.52
362.366	9.12
362.576	9.15
362.785	9.1
362.995	9.22
363.204	9.18
363.414	8.67
363.623	8.66
363.833	8.5
364.042	8.59
364.252	8.69
364.461	8.2
364.671	7.3
364.88	7.75
365.09	8.63
365.299	8.47
365.509	8.6
365.718	9.22
365.927	9.51
366.137	9.89
366.346	9.61
366.555	9.7
366.765	10.24
366.974	10.49
367.183	9.5
367.393	8.57
367.602	9.24
367.811	9.71
368.021	9.95
368.23	9.28
368.439	8.69
368.648	8.55
368.857	9.42
369.067	9.26
369.276	9.67
369.485	9.84
369.694	10.29
369.903	9.67
370.112	8.93
370.321	8.47
370.531	9.33
370.74	9.19
370.949	9.14
371.158	8.19
371.367	8.31
371.576	7.43
371.785	7.77
371.994	8.03
372.203	8.62
372.412	9.09
372.621	9.12
372.83	8.94
373.039	9.08
373.248	9.39
373.457	9.66
373.666	9.82
373.874	10.05
374.083	9.38
374.292	9.18
374.501	8.73
374.71	8.39
374.919	8.26
375.128	8.34
375.336	8.51
375.545	8.22
375.754	7.97
375.963	7.44
376.171	7.54
376.38	7.96
376.589	7.52
376.798	7.4
377.006	7.37
377.215	7.23
377.424	6.77
377.632	6.75
377.841	6.79
378.05	7.12
378.258	7.29
378.467	7.68
378.675	7.84
378.884	8.15
379.093	8.23
379.301	8.44
379.51	8.41
379.718	8.68
379.927	8.73
380.135	8.84
380.344	8.35
380.552	8.39
380.761	7.87
380.969	7.75
381.177	7.61
381.386	7.22
381.594	6.93
381.803	6.86
382.011	6.72
382.219	7.16
382.428	7.07
382.636	7.44
382.845	7.66
383.053	7.43
383.261	7.26
383.469	7.44
383.678	7.79
383.886	8.02
384.094	8.63
384.302	8.55
384.511	8.06
384.719	7.9
384.927	7.57
385.135	7.8
385.343	8.08
385.552	8.37
385.76	8.07
385.968	7.92
386.176	7.75
386.384	7.2
386.592	7.56
386.8	7.56
387.008	7.56
387.216	7.51
387.424	7.19
387.633	7.08
387.841	7
388.049	7.3
388.257	7.53
388.465	7.45
388.672	7.32
388.88	6.99
389.088	6.88
389.296	6.95
389.504	7.16
389.712	7.17
389.92	7.09
390.128	6.89
390.336	6.92
390.544	6.62
390.751	6.72
390.959	6.73
391.167	6.79
391.375	6.94
391.583	6.57
391.79	6.46
391.998	6.57
392.206	6.7
392.414	6.71
392.621	6.43
392.829	6.58
393.037	6.6
393.244	6.77
393.452	6.59
393.66	6.32
393.867	6.79
394.075	6.93
394.283	6.65
394.49	6.51
394.698	6.45
394.905	6.76
395.113	6.75
395.32	6.77
395.528	6.86
395.735	7.06
395.943	7.25
396.15	7.06
396.358	6.91
396.565	7.03
396.773	7.02
396.98	7.12
397.188	6.71
397.395	6.63
397.602	6.49
397.81	6.18
398.017	6.16
398.225	5.99
398.432	5.91
398.639	5.83
398.847	5.76
399.054	5.75
399.261	5.64
399.468	5.63
399.676	5.69
399.883	5.6
400.09	5.76
400.297	6.05
400.505	6.28
400.712	6.63
400.919	6.87
401.126	7
401.333	7.22
401.54	7.41
401.748	7.74
401.955	7.64
402.162	7.76
402.369	7.98
402.576	7.92
402.783	7.69
402.99	7.61
403.197	7.48
403.404	7.29
403.611	7.3
403.818	7.22
404.025	7.07
404.232	6.98
404.439	7.03
404.646	6.99
404.853	6.66
405.06	6.77
405.267	6.88
405.474	6.93
405.681	6.98
405.887	6.94
406.094	6.97
406.301	7.13
406.508	7.17
406.715	6.93
406.922	6.55
407.128	6.64
407.335	6.77
407.542	6.68
407.749	6.8
407.955	6.93
408.162	7
408.369	6.93
408.575	6.79
408.782	6.8
408.989	7.03
409.195	7.23
409.402	7.25
409.609	7.08
409.815	6.94
410.022	6.57
410.228	6.71
410.435	6.77
410.642	6.76
410.848	6.68
411.055	6.7
411.261	6.87
411.468	6.94
411.674	7.02
411.881	7.02
412.087	6.68
412.294	6.88
412.5	6.39
412.706	6.28
412.913	6.39
413.119	6.44
413.326	6.15
413.532	6.07
413.738	5.77
413.945	5.66
414.151	5.85
414.357	6.29
414.564	6.35
414.77	6.66
414.976	6.76
415.182	6.57
415.389	6.57
415.595	6.82
415.801	6.73
416.007	7.07
416.214	7.32
416.42	7.16
416.626	6.98
416.832	6.99
417.038	6.97
417.244	6.85
417.45	7.12
417.657	7.1
417.863	7.24
418.069	7.21
418.275	7.17
418.481	7.06
418.687	7.01
418.893	7.05
419.099	7.01
419.305	7.02
419.511	7.01
419.717	6.89
419.923	6.89
420.129	6.73
420.335	6.6
420.541	6.59
420.746	6.42
420.952	6.56
421.158	6.46
421.364	6.5
421.57	6.41
421.776	6.48
421.982	6.41
422.187	6.5
422.393	6.44
422.599	6.39
422.805	6.3
423.01	6.35
423.216	6.15
423.422	6.16
423.628	5.99
423.833	5.97
424.039	5.93
424.245	5.99
424.45	5.98
424.656	6.07
424.862	6.15
425.067	6.15
425.273	6.33
425.478	6.43
425.684	6.58
425.889	6.83
426.095	6.98
426.301	6.98
426.506	7.02
426.712	7.03
426.917	7.11
427.123	7.28
427.328	7.22
427.533	7.07
427.739	7.23
427.944	7.24
428.15	7.13
428.355	6.91
428.561	6.8
428.766	6.8
428.971	6.6
429.177	6.57
429.382	6.5
429.587	6.71
429.793	6.77
429.998	6.51
430.203	6.32
430.408	6.22
430.614	6.45
430.819	6.43
431.024	6.44
431.229	6.41
431.434	6.22
431.64	6.31
431.845	6.36
432.05	6.28
432.255	6.34
432.46	6.53
432.665	6.57
432.87	6.44
433.076	6.52
433.281	6.36
433.486	6.65
433.691	6.67
433.896	6.67
434.101	6.67
434.306	6.5
434.511	6.5
434.716	6.48
434.921	6.41
435.126	6.72
435.331	6.73
435.535	7.01
435.74	6.87
435.945	7.08
436.15	6.93
436.355	6.97
436.56	7.17
436.765	7.19
436.97	7.13
437.174	7.17
437.379	6.82
437.584	6.66
437.789	6.53
437.993	6.43
438.198	6.33
438.403	6.25
438.608	6.09
438.812	6
439.017	5.99
439.222	6.06
439.426	5.95
439.631	5.96
439.836	6.3
440.04	6.34
440.245	6.38
440.45	6.36
440.654	6.4
440.859	6.39
441.063	6.56
441.268	6.65
441.472	6.55
441.677	6.66
441.881	6.78
442.086	6.43
442.29	6.35
442.495	6.3
442.699	6.36
442.904	6.44
443.108	6.56
443.312	6.42
443.517	6.33
443.721	6.52
443.925	6.58
444.13	6.48
444.334	6.63
444.538	6.7
444.743	6.75
444.947	6.65
445.151	6.55
445.356	6.6
445.56	6.55
445.764	6.55
445.968	6.49
446.173	6.43
446.377	6.44
446.581	6.42
446.785	6.41
446.989	6.42
447.193	6.41
447.398	6.42
447.602	6.33
447.806	6.44
448.01	6.35
448.214	6.22
448.418	6.22
448.622	6.18
448.826	6.27
449.03	6.36
449.234	6.27
449.438	6.27
449.642	6.34
449.846	6.21
450.05	6.21
450.254	6.41
450.458	6.44
450.662	6.44
450.866	6.42
451.069	6.28
451.273	6.16
451.477	6.19
451.681	6.32
451.885	6.32
452.089	6.61
452.292	6.52
452.496	6.29
452.7	6.29
452.904	6.17
453.107	6.3
453.311	6.41
453.515	6.36
453.719	6.53
453.922	6.51
454.126	6.4
454.33	6.12
454.533	6.03
454.737	6.18
454.94	6.28
455.144	6.38
455.348	6.39
455.551	6.45
455.755	6.35
455.958	6.19
456.162	6.09
456.365	6.16
456.569	6.24
456.772	6.44
456.976	6.53
457.179	6.51
457.383	6.48
457.586	6.47
457.79	6.35
457.993	6.41
458.196	6.46
458.4	6.49
458.603	6.54
458.807	6.58
459.01	6.55
459.213	6.53
459.417	6.56
459.62	6.54
459.823	6.44
460.026	6.4
460.23	6.41
460.433	6.41
460.636	6.4
460.839	6.35
461.042	6.33
461.246	6.35
461.449	6.25
461.652	6.14
461.855	6.12
462.058	6.11
462.261	6.41
462.464	6.46
462.668	6.47
462.871	6.53
463.074	6.48
463.277	6.31
463.48	6.34
463.683	6.38
463.886	6.51
464.089	6.57
464.292	6.55
464.495	6.44
464.698	6.23
464.901	6.06
465.104	6.1
465.306	6.3
465.509	6.45
465.712	6.45
465.915	6.41
466.118	6.24
466.321	6.28
466.524	6.39
466.726	6.12
466.929	6.24
467.132	6.31
467.335	6.23
467.538	6.06
467.74	6.03
467.943	6
468.146	5.98
468.348	6.12
468.551	6.05
468.754	6
468.956	6.09
469.159	6.04
469.362	6.08
469.564	5.97
469.767	6.09
469.969	6.12
470.172	6.26
470.375	6.28
470.577	6.41
470.78	6.57
470.982	6.58
471.185	6.71
471.387	6.61
471.59	6.64
471.792	6.82
471.995	6.75
472.197	6.76
472.399	6.63
472.602	6.78
472.804	6.4
473.007	6.24
473.209	6.2
473.411	6.2
473.614	6.49
473.816	6.61
474.018	6.54
474.22	6.7
474.423	6.73
474.625	6.58
474.827	6.44
475.03	6.54
475.232	6.51
475.434	6.64
475.636	6.48
475.838	6.52
476.04	6.3
476.243	6.2
476.445	6.13
476.647	6.1
476.849	6.17
477.051	6.14
477.253	6.32
477.455	6.47
477.657	6.34
477.859	6.42
478.061	6.26
478.263	6.31
478.465	6.39
478.667	6.28
478.869	6.36
479.071	6.25
479.273	6.23
479.475	6.02
479.677	6
479.879	5.98
480.081	5.94
480.283	6.02
480.485	5.99
480.686	6.03
480.888	6.03
481.09	6.03
481.292	6.16
481.494	6.22
481.695	6.37
481.897	6.41
482.099	6.41
482.301	6.37
482.502	6.2
482.704	6.2
482.906	6.13
483.107	6.17
483.309	6.12
483.511	6.08
483.712	6.06
483.914	6.04
484.115	5.99
484.317	6
484.519	6
484.72	6.09
484.922	6.12
485.123	6.2
485.325	6.16
485.526	6.15
485.728	6.17
485.929	6.21
486.131	6.13
486.332	6.21
486.534	6.21
486.735	6.21
486.936	6.17
487.138	6.16
487.339	6.1
487.541	6.17
487.742	6.21
487.943	6.24
488.144	6.19
488.346	6.29
488.547	6.29
488.748	6.31
488.95	6.33
489.151	6.3
489.352	6.3
489.553	6.4
489.755	6.37
489.956	6.39
490.157	6.36
490.358	6.39
490.559	6.36
490.76	6.34
490.961	6.31
491.163	6.29
491.364	6.27
491.565	6.32
491.766	6.25
491.967	6.31
492.168	6.31
492.369	6.35
492.57	6.36
492.771	6.39
492.972	6.36
493.173	6.43
493.374	6.53
493.575	6.62
493.776	6.58
493.976	6.59
494.177	6.63
494.378	6.68
494.579	6.6
494.78	6.71
494.981	6.63
495.182	6.71
495.382	6.63
495.583	6.63
495.784	6.54
495.985	6.66
496.185	6.64
496.386	6.59
496.587	6.63
496.788	6.68
496.988	6.71
497.189	6.8
497.39	6.84
497.59	6.92
497.791	6.86
497.992	6.96
498.192	6.9
498.393	6.92
498.593	6.92
498.794	6.91
498.994	6.97
499.195	6.98
499.395	6.92
499.596	6.84
499.796	6.76
499.997	6.71
500.197	6.77
500.398	6.94
500.598	6.9
500.799	6.92
500.999	6.82
501.199	6.88
501.4	6.74
501.6	6.8
501.801	6.7
502.001	6.65
502.201	6.63
502.402	6.59
502.602	6.43
502.802	6.62
503.002	6.67
503.203	6.73
503.403	6.69
503.603	6.82
503.803	6.8
504.003	7
504.204	7.11
504.404	7.21
504.604	7.31
504.804	7.36
505.004	7.32
505.204	7.29
505.404	7.25
505.604	7.27
505.804	7.16
506.005	7.17
506.205	7.13
506.405	7.21
506.605	7.24
506.805	7.15
507.005	7.01
507.204	6.89
507.404	6.87
507.604	6.93
507.804	7.07
508.004	7.2
508.204	7.35
508.404	7.33
508.604	7.28
508.804	7.26
509.003	7.39
509.203	7.42
509.403	7.43
509.603	7.39
509.803	7.52
510.002	7.38
510.202	7.22
510.402	7.12
510.602	7.15
510.801	7.12
511.001	7.11
511.201	7
511.4	7.17
511.6	7.43
511.8	7.48
511.999	7.33
512.199	7.42
512.398	7.49
512.598	7.52
512.797	7.64
512.997	7.71
513.197	7.79
513.396	7.85
513.596	7.78
513.795	7.6
513.994	7.68
514.194	7.94
514.393	7.92
514.593	8.06
514.792	8.07
514.992	8
515.191	8.16
515.39	8.21
515.59	8.33
515.789	8.42
515.988	8.48
516.188	8.47
516.387	8.36
516.586	8.43
516.786	8.4
516.985	8.49
517.184	8.53
517.383	8.43
517.582	8.36
517.782	8.29
517.981	8.28
518.18	8.29
518.379	8.31
518.578	8.33
518.777	8.25
518.976	8.22
519.176	8.33
519.375	8.27
519.574	8.29
519.773	8.35
519.972	8.36
520.171	8.35
520.37	8.46
520.569	8.55
520.768	8.61
520.967	8.74
521.166	8.73
521.365	8.63
521.564	8.72
521.762	8.84
521.961	8.93
522.16	8.95
522.359	9.03
522.558	8.95
522.757	8.84
522.956	8.9
523.154	8.79
523.353	8.99
523.552	9
523.751	8.98
523.949	8.94
524.148	8.78
524.347	8.86
524.546	8.83
524.744	9.03
524.943	9.09
525.142	9.07
525.34	9.2
525.539	9.15
525.737	9.18
525.936	9.31
526.135	9.34
526.333	9.47
526.532	9.48
526.73	9.53
526.929	9.43
527.127	9.43
527.326	9.34
527.524	9.36
527.723	9.34
527.921	9.33
528.12	9.32
528.318	9.29
528.516	9.28
528.715	9.32
528.913	9.31
529.112	9.34
529.31	9.4
529.508	9.46
529.707	9.44
529.905	9.5
530.103	9.58
530.301	9.52
530.5	9.59
530.698	9.66
530.896	9.68
531.094	9.74
531.293	9.77
531.491	9.78
531.689	9.8
531.887	9.9
532.085	9.87
532.283	9.83
532.481	9.97
532.68	9.97
532.878	9.99
533.076	10
533.274	10.01
533.472	10.03
533.67	10.03
533.868	10.12
534.066	10.06
534.264	10.17
534.462	10.27
534.66	10.37
534.858	10.36
535.056	10.43
535.253	10.47
535.451	10.59
535.649	10.75
535.847	10.79
536.045	10.83
536.243	10.92
536.441	11.05
536.638	11.12
536.836	11.12
537.034	11.26
537.232	11.34
537.43	11.4
537.627	11.46
537.825	11.4
538.023	11.51
538.22	11.64
538.418	11.7
538.616	11.63
538.813	11.67
539.011	11.64
539.209	11.83
539.406	11.82
539.604	11.85
539.801	12.01
539.999	12.11
540.196	12.18
540.394	12.14
540.591	12.24
540.789	12.25
540.986	12.26
541.184	12.27
541.381	12.17
541.579	12.22
541.776	12.29
541.974	12.21
542.171	12.24
542.368	12.24
542.566	12.29
542.763	12.28
542.96	12.35
543.158	12.49
543.355	12.63
543.552	12.82
543.75	12.89
543.947	12.93
544.144	12.99
544.341	13.21
544.539	13.37
544.736	13.59
544.933	13.71
545.13	13.86
545.327	13.85
545.524	13.97
545.722	14.04
545.919	14.18
546.116	14.24
546.313	14.33
546.51	14.21
546.707	14.28
546.904	14.15
547.101	14.2
547.298	14.16
547.495	14.2
547.692	14.21
547.889	14.18
548.086	14.21
548.283	14.28
548.48	14.41
548.677	14.46
548.874	14.54
549.07	14.84
549.267	14.83
549.464	15.15
549.661	15.16
549.858	15.32
550.055	15.27
550.251	15.34
550.448	15.33
550.645	15.47
550.842	15.63
551.038	15.42
551.235	15.31
551.432	15.44
551.628	15.3
551.825	15.32
552.022	15.35
552.218	15.51
552.415	15.57
552.612	15.6
552.808	15.6
553.005	15.61
553.201	15.8
553.398	15.79
553.594	15.69
553.791	15.73
553.987	15.92
554.184	15.83
554.38	15.81
554.577	15.77
554.773	15.96
554.97	15.89
555.166	16.06
555.362	15.88
555.559	16.1
555.755	16.21
555.952	16.22
556.148	16.04
556.344	16.11
556.541	16.24
556.737	16.18
556.933	16.15
557.129	16.15
557.326	16.01
557.522	16.36
557.718	16.16
557.914	16.34
558.11	16.28
558.307	16.51
558.503	16.64
558.699	16.68
558.895	16.82
559.091	16.75
559.287	16.78
559.483	16.94
559.679	16.91
559.876	17.02
560.072	17.09
560.268	17.29
560.464	17.2
560.66	17.18
560.856	17.25
561.052	17.22
561.247	17.34
561.443	17.69
561.639	17.51
561.835	17.53
562.031	17.66
562.227	17.63
562.423	17.83
562.619	17.99
562.815	17.95
563.01	18.01
563.206	18.13
563.402	18.37
563.598	18.19
563.793	18.4
563.989	18.58
564.185	18.47
564.381	18.56
564.576	18.59
564.772	18.86
564.968	18.86
565.163	18.96
565.359	18.94
565.555	18.86
565.75	18.92
565.946	19.01
566.141	18.92
566.337	19.14
566.532	19.34
566.728	19.43
566.923	19.21
567.119	19.34
567.314	19.31
567.51	19.44
567.705	19.65
567.901	19.64
568.096	19.77
568.292	19.83
568.487	19.74
568.682	19.55
568.878	19.63
569.073	19.69
569.268	19.79
569.464	19.93
569.659	19.91
569.854	20
570.05	20.24
570.245	20.24
570.44	20.28
570.635	20.51
570.831	20.66
571.026	20.6
571.221	20.78
571.416	20.9
571.611	20.94
571.806	20.98
572.002	20.87
572.197	20.77
572.392	20.74
572.587	20.88
572.782	20.75
572.977	20.79
573.172	20.86
573.367	20.81
573.562	20.81
573.757	20.92
573.952	20.98
574.147	21.12
574.342	21.29
574.537	21.42
574.732	21.41
574.927	21.56
575.121	21.55
575.316	21.47
575.511	21.49
575.706	21.67
575.901	21.56
576.096	21.96
576.29	22.02
576.485	22.08
576.68	22.13
576.875	22.38
577.069	22.48
577.264	22.67
577.459	22.84
577.654	23.13
577.848	23.08
578.043	23.41
578.238	23.28
578.432	23.16
578.627	23.18
578.821	23.34
579.016	23.22
579.21	23.21
579.405	23.45
579.6	23.62
579.794	23.7
579.989	23.74
580.183	23.53
580.378	23.58
580.572	23.82
580.766	24.01
580.961	23.86
581.155	24.07
581.35	24.24
581.544	24.11
581.738	24.05
581.933	24.08
582.127	23.99
582.321	24.01
582.516	24.14
582.71	24.32
582.904	24.19
583.099	24.35
583.293	24.52
583.487	24.59
583.681	24.99
583.875	25.28
584.07	25.33
584.264	25.59
584.458	25.6
584.652	25.51
584.846	25.51
585.04	25.6
585.234	25.69
585.428	25.59
585.623	25.67
585.817	25.33
586.011	25.02
586.205	24.88
586.399	25.08
586.593	25.3
586.787	25.22
586.981	25.23
587.174	25.45
587.368	25.5
587.562	25.58
587.756	25.72
587.95	25.57
588.144	25.66
588.338	25.78
588.532	25.69
588.725	25.73
588.919	25.87
589.113	25.78
589.307	25.71
589.501	25.61
589.694	25.7
589.888	25.63
590.082	26.08
590.275	26.15
590.469	26.21
590.663	26.34
590.856	26.36
591.05	26.47
591.244	26.56
591.437	26.56
591.631	26.74
591.824	26.75
592.018	26.75
592.212	26.78
592.405	26.92
592.599	27.2
592.792	27.27
592.986	27.35
593.179	27.32
593.372	27.57
593.566	27.6
593.759	27.57
593.953	27.5
594.146	27.62
594.339	27.55
594.533	27.6
594.726	27.36
594.92	27.23
595.113	27.27
595.306	27.52
595.499	27.4
595.693	27.73
595.886	27.93
596.079	27.85
596.272	27.88
596.466	27.91
596.659	27.85
596.852	27.75
597.045	27.71
597.238	27.66
597.431	27.56
597.624	27.55
597.818	27.61
598.011	27.38
598.204	27.31
598.397	27.35
598.59	27.28
598.783	27.47
598.976	27.65
599.169	27.84
599.362	27.95
599.555	27.95
599.748	28.06
599.941	27.69
600.134	27.97
600.326	28.28
600.519	28.27
600.712	28.32
600.905	28.62
601.098	28.97
601.291	28.8
601.483	28.7
601.676	28.87
601.869	28.81
602.062	29.08
602.255	29.06
602.447	28.97
602.64	28.97
602.833	28.9
603.025	28.55
603.218	28.29
603.411	28.41
603.603	28.41
603.796	28.35
603.989	28.32
604.181	28.22
604.374	28.29
604.566	28.42
604.759	28.33
604.951	28.39
605.144	28.48
605.336	28.52
605.529	28.62
605.721	28.74
605.914	28.7
606.106	28.78
606.299	28.87
606.491	28.98
606.683	28.99
606.876	29.17
607.068	29.44
607.26	29.54
607.453	29.64
607.645	29.71
607.837	29.79
608.03	30.12
608.222	30.48
608.414	30.57
608.606	30.68
608.799	31.05
608.991	31.55
609.183	31.98
609.375	32.52
609.567	32.97
609.759	33.39
609.952	34
610.144	34.61
610.336	35.31
610.528	36.11
610.72	36.9
610.912	37.51
611.104	38.19
611.296	38.56
611.488	38.97
611.68	39.37
611.872	39.65
612.064	39.92
612.256	39.63
612.448	39.37
612.64	39
612.832	38.78
613.023	38.41
613.215	37.63
613.407	37.31
613.599	37.04
613.791	36.6
613.983	36.54
614.174	36.02
614.366	35.88
614.558	35.53
614.75	35.39
614.941	35.2
615.133	35.02
615.325	35.04
615.516	34.88
615.708	34.5
615.9	34.41
616.091	33.91
616.283	34.06
616.475	33.85
616.666	34
616.858	34.06
617.049	33.82
617.241	33.61
617.432	33.34
617.624	33.25
617.815	33.23
618.007	33.39
618.198	33.21
618.39	32.81
618.581	33.2
618.773	33.03
618.964	32.99
619.155	32.89
619.347	32.9
619.538	33.11
619.729	32.94
619.921	32.96
620.112	33.06
620.303	33.32
620.494	33.47
620.686	33.41
620.877	33.41
621.068	33.17
621.259	33.31
621.451	33.85
621.642	33.72
621.833	33.81
622.024	33.62
622.215	33.45
622.406	33.47
622.597	33.34
622.788	33.32
622.98	33.11
623.171	33.34
623.362	33.39
623.553	32.92
623.744	33.24
623.935	33.36
624.126	33.63
624.317	33.68
624.508	33.83
624.698	34.14
624.889	34.02
625.08	34.4
625.271	34.29
625.462	34.34
625.653	34.34
625.844	34.43
626.034	34.45
626.225	34.26
626.416	34.24
626.607	34.29
626.798	34.21
626.988	34.13
627.179	33.97
627.37	33.87
627.56	33.7
627.751	33.63
627.942	33.46
628.132	33.61
628.323	33.71
628.514	33.59
628.704	33.48
628.895	33.55
629.085	33.77
629.276	33.95
629.466	34.37
629.657	34.65
629.847	35.17
630.038	35.29
630.228	35.19
630.419	35.23
630.609	35.48
630.8	35.74
630.99	35.87
631.181	35.89
631.371	35.81
631.561	35.68
631.752	35.68
631.942	35.43
632.132	35.21
632.323	35.29
632.513	35.44
632.703	35.27
632.893	35.18
633.084	34.92
633.274	34.77
633.464	34.93
633.654	34.82
633.844	34.75
634.034	34.74
634.225	34.87
634.415	34.65
634.605	34.36
634.795	34.71
634.985	34.48
635.175	34.53
635.365	34.68
635.555	34.73
635.745	34.63
635.935	34.72
636.125	34.79
636.315	34.71
636.505	34.97
636.695	35.04
636.885	34.76
637.075	35.03
637.265	35.35
637.455	35.49
637.644	35.3
637.834	35.32
638.024	34.8
638.214	34.78
638.404	35.18
638.593	35.01
638.783	35.41
638.973	35.49
639.163	35.43
639.352	35.54
639.542	35.27
639.732	35.31
639.921	35.45
640.111	35.76
640.301	35.79
640.49	35.78
640.68	35.83
640.87	35.91
641.059	35.95
641.249	36.14
641.438	36.2
641.628	35.99
641.817	36.42
642.007	36.19
642.196	36.49
642.386	36.52
642.575	36.55
642.764	36.85
642.954	36.8
643.143	37.18
643.333	37.25
643.522	37.17
643.711	37.6
643.901	37.04
644.09	37.68
644.279	37.74
644.469	37.67
644.658	37.51
644.847	37.55
645.036	37.31
645.226	37.2
645.415	36.82
645.604	36.4
645.793	36.93
645.982	36.87
646.171	36.56
646.361	36.69
646.55	36.45
646.739	36.54
646.928	36.46
647.117	36.86
647.306	36.86
647.495	36.92
647.684	37.45
647.873	36.91
648.062	37.31
648.251	37.37
648.44	37.08
648.629	37.48
648.818	37.71
649.007	37.56
649.196	37.42
649.384	37.33
649.573	37.41
649.762	37.05
649.951	37.26
650.14	37.25
650.328	37.14
650.517	37.06
650.706	37.27
650.895	37.15
651.083	37.12
651.272	36.75
651.461	36.8
651.65	37.02
651.838	37.37
652.027	37.23
652.216	37.18
652.404	37.57
652.593	37.89
652.781	37.43
652.97	37.47
653.158	37.51
653.347	38.12
653.535	38.1
653.724	38.09
653.912	38.34
654.101	38.65
654.289	38.77
654.478	38.67
654.666	38.55
654.855	38.84
655.043	38.84
655.231	38.87
655.42	38.82
655.608	38.85
655.796	39.02
655.985	38.85
656.173	38.49
656.361	38.47
656.55	38.57
656.738	38.53
656.926	38.39
657.114	38.39
657.302	38.37
657.491	38.22
657.679	38.02
657.867	37.72
658.055	37.65
658.243	37.67
658.431	37.7
658.619	37.44
658.807	37.44
658.996	37.81
659.184	37.75
659.372	37.85
659.56	37.73
659.748	38.03
659.936	38.12
660.124	38.09
660.311	38.72
660.499	38.52
660.687	38.72
660.875	39.01
661.063	39
661.251	38.92
661.439	39.14
661.627	39.49
661.814	39.56
662.002	39.66
662.19	40.05
662.378	39.41
662.565	39.71
662.753	39.9
662.941	39.81
663.129	39.44
663.316	39.83
663.504	39.48
663.692	39.19
663.879	39.26
664.067	39.44
664.254	39.01
664.442	38.99
664.63	38.84
664.817	38.77
665.005	38.6
665.192	39.11
665.38	38.79
665.567	39.51
665.755	40.04
665.942	39.99
666.13	40.4
666.317	40.73
666.504	40.69
666.692	40.87
666.879	41.21
667.067	41.48
667.254	41.16
667.441	41.77
667.629	41.02
667.816	40.76
668.003	40.63
668.19	40.44
668.378	40.51
668.565	40.84
668.752	41.53
668.939	41.3
669.127	41.5
669.314	41.94
669.501	41.22
669.688	41.84
669.875	41.58
670.062	41.91
670.249	41.57
670.436	41.72
670.623	41.48
670.81	41.28
670.997	41.1
671.184	40.92
671.371	41.08
671.558	41.59
671.745	41.44
671.932	42.03
672.119	41.59
672.306	41.89
672.493	41.3
672.68	41.81
672.867	41.59
673.054	41.95
673.24	42.18
673.427	41.63
673.614	41.78
673.801	41.82
673.988	41.82
674.174	42.22
674.361	42.33
674.548	42.85
674.734	42.6
674.921	42.85
675.108	42.38
675.294	42.31
675.481	42.48
675.668	42.27
675.854	42.22
676.041	41.87
676.227	41.83
676.414	42.08
676.601	41.9
676.787	41.8
676.974	41.62
677.16	41.63
677.347	41.99
677.533	42.07
677.719	42.23
677.906	42.48
678.092	42.47
678.279	42.53
678.465	42.32
678.651	42.06
678.838	41.9
679.024	41.81
679.21	41.92
679.397	41.38
679.583	41.26
679.769	41.19
679.955	40.95
680.142	41.22
680.328	41.06
680.514	40.85
680.7	40.97
680.886	40.95
681.073	40.75
681.259	40.71
681.445	40.82
681.631	40.63
681.817	40.22
682.003	40.19
682.189	39.95
682.375	40
682.561	40.34
682.747	40.56
682.933	40.39
683.119	40.89
683.305	41.22
683.491	41.27
683.677	41.48
683.863	41.73
684.049	42.24
684.235	41.83
684.42	41.88
684.606	41.89
684.792	42.4
684.978	43.1
685.164	43.09
685.349	43.22
685.535	43.43
685.721	43.3
685.907	43.76
686.092	43.8
686.278	44.37
686.464	44.7
686.649	44.22
686.835	43.31
687.021	43.14
687.206	43.2
687.392	42.91
687.577	42.71
687.763	43.17
687.948	43.04
688.134	42.72
688.319	42.45
688.505	42.22
688.69	42.52
688.876	42.71
689.061	42.7
689.247	42.66
689.432	42.7
689.618	42.93
689.803	43.06
689.988	43.17
690.174	43.5
690.359	43.51
690.544	43.73
690.73	43.99
690.915	44.11
691.1	43.99
691.285	44.44
691.471	44.99
691.656	45.14
691.841	45.08
692.026	45.21
692.211	44.78
692.396	45.06
692.582	44.77
692.767	44.69
692.952	44.43
693.137	44.7
693.322	44.09
693.507	43.6
693.692	43.47
693.877	43.16
694.062	43.22
694.247	43.04
694.432	43.62
694.617	44.37
694.802	44.5
694.987	45.19
695.172	45.31
695.357	45.25
695.541	45.23
695.726	45.77
695.911	46.01
696.096	45.46
696.281	45.43
696.466	45.19
696.65	44.23
696.835	43.88
697.02	43.24
697.204	43.04
697.389	43.13
697.574	43.16
697.759	42.37
697.943	42.27
698.128	42.28
698.312	42.22
698.497	42.07
698.682	42.36
698.866	42.33
699.051	42.49
699.235	42.48
699.42	42.59
699.604	42.68
699.789	42.76
699.973	42.76
700.158	43.1
700.342	43.57
700.527	43.89
700.711	43.79
700.895	44.05
701.08	44.23
701.264	44.22
701.448	44.23
701.633	44.44
701.817	45.01
702.001	44.94
702.186	45.01
702.37	45.35
702.554	44.99
702.738	45.24
702.923	45.09
703.107	45.22
703.291	45.3
703.475	45.38
703.659	45.24
703.843	45.28
704.027	45.91
704.212	45.67
704.396	45.55
704.58	45.65
704.764	45.53
704.948	45.52
705.132	46.21
705.316	46.49
705.5	46.64
705.684	46.76
705.868	46.68
706.052	46.96
706.235	47.14
706.419	46.82
706.603	47.27
706.787	47.62
706.971	47.67
707.155	47.48
707.339	47.91
707.522	47.62
707.706	47.7
707.89	47.69
708.074	47.34
708.257	47.13
708.441	47.45
708.625	47.36
708.808	46.93
708.992	46.85
709.176	46.29
709.359	46.26
709.543	46.09
709.727	45.79
709.91	45.66
710.094	45.76
710.277	45.94
710.461	45.53
710.644	45.44
710.828	45.76
711.011	46.32
711.195	46.52
711.378	46.29
711.562	46.74
711.745	46.61
711.928	46.8
712.112	46.75
712.295	46.7
712.478	46.9
712.662	47.46
712.845	47.27
713.028	47.04
713.212	46.73
713.395	46.77
713.578	46.58
713.761	46.76
713.945	46.6
714.128	46.57
714.311	46.98
714.494	47.17
714.677	46.6
714.86	47.02
715.043	47.07
715.227	47.12
715.41	46.97
715.593	46.83
715.776	46.94
715.959	47.16
716.142	47.15
716.325	46.91
716.508	46.44
716.691	46.51
716.874	46.38
717.057	46.34
717.239	46.49
717.422	46.69
717.605	47.39
717.788	47.5
717.971	47.12
718.154	47.67
718.337	47.87
718.519	47.65
718.702	47.39
718.885	47.1
719.068	46.87
719.25	47.68
719.433	48.3
719.616	47.47
719.798	47.16
719.981	47.81
720.164	47.57
720.346	47.15
720.529	47.12
720.712	46.88
720.894	47.33
721.077	47.69
721.259	47.19
721.442	46.26
721.624	46.53
721.807	46.51
721.989	46.48
722.172	46.29
722.354	47.27
722.537	48.74
722.719	49.41
722.901	49.2
723.084	49.44
723.266	49.37
723.448	49.46
723.631	50.44
723.813	50.61
723.995	50.91
724.178	50.82
724.36	49.74
724.542	48.97
724.724	49.12
724.907	50.04
725.089	49.63
725.271	50.08
725.453	50.16
725.635	49.14
725.817	50.09
725.999	49.91
726.181	50.39
726.364	51.16
726.546	51.52
726.728	50.94
726.91	50.26
727.092	50
727.274	49.17
727.456	49.18
727.638	48.93
727.819	48.11
728.001	47.67
728.183	47.18
728.365	47.23
728.547	47.5
728.729	47.92
728.911	48.04
729.093	48.61
729.274	49.25
729.456	49.13
729.638	49.7
729.82	49.86
730.001	50.41
730.183	50.36
730.365	50.16
730.546	49.75
730.728	49.71
730.91	49.94
731.091	50.04
731.273	50.12
731.455	50.56
731.636	50.28
731.818	49.96
731.999	49.36
732.181	49.45
732.362	49.66
732.544	49
732.725	49.05
732.907	48.44
733.088	47.79
733.27	47.57
733.451	47.2
733.633	47.43
733.814	47.69
733.995	48.01
734.177	47.35
734.358	47.2
734.539	47.84
734.721	47.9
734.902	47.82
735.083	48.52
735.264	48.08
735.446	48.16
735.627	48.85
735.808	48.98
735.989	48.51
736.17	49.64
736.351	49.33
736.533	48.91
736.714	49.04
736.895	48.53
737.076	48.51
737.257	47.77
737.438	47.78
737.619	46.48
737.8	46.7
737.981	47.23
738.162	46.73
738.343	46.74
738.524	47.53
738.705	47.78
738.886	48.43
739.067	48.01
739.247	49.22
739.428	49.39
739.609	50.14
739.79	50.35
739.971	50.11
740.151	49.75
740.332	50.19
740.513	50.28
740.694	49.74
740.874	50.05
741.055	49.8
741.236	50.28
741.417	50.21
741.597	50.27
741.778	49.14
741.958	49.15
742.139	49.48
742.32	49.01
742.5	48.01
742.681	47.8
742.861	47.7
743.042	48.25
743.222	47.52
743.403	47.72
743.583	47.55
743.764	48.71
743.944	49.83
744.124	50.07
744.305	50.55
744.485	50.83
744.666	51.07
744.846	51.61
745.026	51.62
745.207	52.07
745.387	52.16
745.567	51.83
745.747	50.89
745.928	49.97
746.108	50.59
746.288	50.43
746.468	50.03
746.648	49.87
746.829	49.17
747.009	49.79
747.189	48.91
747.369	49.53
747.549	49.39
747.729	50.75
747.909	51.18
748.089	50.43
748.269	50.5
748.449	51.72
748.629	51.79
748.809	52.83
748.989	52.64
749.169	53.38
749.349	52.59
749.529	53.33
749.709	52.51
749.889	51.94
750.068	51.68
750.248	51.68
750.428	50.77
750.608	51.07
750.788	49.81
750.967	49.75
751.147	50.44
751.327	50.47
751.507	50.6
751.686	50.6
751.866	50.44
752.046	50.58
752.225	51.85
752.405	52.6
752.585	51.89
752.764	51.94
752.944	50.61
753.123	49.46
753.303	49.95
753.482	49.52
753.662	50.27
753.841	50.25
754.021	50.68
754.2	50
754.38	48.74
754.559	50.03
754.739	49.66
754.918	50.11
755.097	50.28
755.277	50.27
755.456	50.94
755.635	50.73
755.815	51.34
755.994	51.79
756.173	51.11
756.352	52.29
756.532	52.44
756.711	53.95
756.89	54.65
757.069	54.71
757.248	53.66
757.427	52.45
757.607	51.42
757.786	51.32
757.965	50.77
758.144	50.42
758.323	51.71
758.502	50.46
758.681	49.73
758.86	48.97
759.039	49.45
759.218	50.75
759.397	51.1
759.576	51.38
759.755	50.4
759.934	49.49
760.113	49.66
760.291	49.36
760.47	49.11
760.649	49.98
760.828	50.44
761.007	50.04
761.186	48.9
761.364	48.4
761.543	49.21
761.722	50.05
761.901	50.09
762.079	49.43
762.258	48.71
762.437	49.09
762.615	48.51
762.794	48.85
762.972	48.86
763.151	49.05
763.33	49.12
763.508	48.18
763.687	48.47
763.865	49.29
764.044	49.82
764.222	49.81
764.401	49.47
764.579	49.09
764.758	48.82
764.936	49.07
765.114	48.65
765.293	48.85
765.471	49.36
765.65	48.89
765.828	48.85
766.006	49.02
766.184	49.05
766.363	50
766.541	50.3
766.719	50.6
766.898	50.21
767.076	50.42
767.254	50.37
767.432	50.49
767.61	50.27
767.788	48.88
767.967	48.57
768.145	48.49
768.323	48.33
768.501	48.56
768.679	47.67
768.857	48.3
769.035	48.62
769.213	49.34
769.391	49.3
769.569	49.52
769.747	50.7
769.925	51
770.103	49.84
770.281	50.06
770.459	49.91
770.636	51.75
770.814	51.49
770.992	51.42
771.17	50.77
771.348	50.83
771.525	50.75
771.703	50.72
771.881	51.57
772.059	52.84
772.236	50.88
772.414	51.72
772.592	50.23
772.769	49.54
772.947	49.62
773.125	50.88
773.302	51.35
773.48	52.62
773.657	53.87
773.835	54.19
774.013	55.38
774.19	55.25
774.368	53.96
774.545	55.18
774.723	55.23
774.9	55.14
775.077	54.88
775.255	53.96
775.432	53.95
775.61	51.87
775.787	49.58
775.964	48.14
776.142	49.29
776.319	50.64
776.496	49.87
776.674	51.07
776.851	51.64
777.028	51.7
777.205	53.13
777.382	52.94
777.56	55.37
777.737	55.68
777.914	55.74
778.091	56.76
778.268	55.74
778.445	55.96
778.622	56.96
778.8	57.64
778.977	56.26
779.154	61.03
779.331	60.26
779.508	60.44
779.685	61.71
779.862	61.09
780.038	60.41
780.215	61.99
780.392	62.68
780.569	61.4
780.746	60.04
780.923	61.29
781.1	55.98
781.277	56.5
781.453	54.48
781.63	54.2
781.807	54.79
781.984	55.61
782.16	55.78
782.337	55.54
782.514	54.61
782.691	56.26
782.867	54.38
783.044	53
783.221	53.56
783.397	54.06
783.574	55.47
783.75	57.27
783.927	57
784.103	56.11
784.28	54.74
784.456	55.81
784.633	55.97
784.809	59.55
784.986	59.32
785.162	57.94
785.339	57.41
785.515	55.75
785.692	54.65
785.868	54.51
786.044	51.37
786.221	52.63
786.397	53.62
786.573	51.83
786.749	49.92
786.926	50.1
787.102	50.33
787.278	51.72
787.454	51.57
787.631	52.8
787.807	52.9
787.983	54.87
788.159	54.91
788.335	54.27
788.511	55.94
788.687	56.15
788.863	57.45
789.039	57.75
789.216	57.32
789.392	57.39
789.568	54.92
789.744	55.73
789.919	56.99
790.095	57.02
790.271	56.49
790.447	54.93
790.623	55.63
790.799	54.14
790.975	53.27
791.151	53.44
791.327	53.43
791.502	53.47
791.678	51.16
791.854	49.36
792.03	49.08
792.205	49.78
792.381	51.58
792.557	50.31
792.733	50.71
792.908	52.31
793.084	52.55
793.259	52.63
793.435	53.01
793.611	54.22
793.786	55.67
793.962	55.41
794.137	53.04
794.313	50.97
794.488	49.97
794.664	50.14
794.839	50.22
795.015	49.41
795.19	48.99
795.366	50.27
795.541	51.51
795.716	50.79
795.892	50.84
796.067	50.49
796.242	48.79
796.418	49.7
796.593	50.95
796.768	50.6
796.944	50.41
797.119	49.47
797.294	49.21
797.469	47.57
797.644	49
797.82	48.98
797.995	49.58
798.17	52.58
798.345	53.14
798.52	53.21
798.695	52.55
798.87	52.49
799.045	55.52
799.22	55.39
799.395	55.25
799.57	53.43
799.745	53.5
799.92	52.84
800.095	51.55
800.27	50
800.445	49.72
800.62	48.44
800.795	48.65
800.97	48.24
801.145	48.71
801.319	47.72
801.494	50.43
801.669	51.2
801.844	53.26
802.018	53.32
802.193	54.01
802.368	53.25
802.543	54.3
802.717	52.95
802.892	52.57
803.067	52.02
803.241	52.84
803.416	50.64
803.59	49.63
803.765	48.97
803.94	48.02
804.114	50.01
804.289	51.02
804.463	52.5
804.638	54.74
804.812	51.98
804.986	53.51
805.161	55.18
805.335	55.38
805.51	56.99
805.684	55.72
805.858	54.3
806.033	53.05
806.207	51.79
806.381	50.55
806.556	52.33
806.73	55.52
806.904	54.19
807.078	54.4
807.253	54.84
807.427	54.2
807.601	57.04
807.775	59.96
807.949	58.63
808.123	59.65
808.298	59.89
808.472	58.56
808.646	54.78
808.82	54.06
808.994	51.73
809.168	52.75
809.342	50.81
809.516	48.94
809.69	48.15
809.864	49.19
810.038	49.96
810.212	48.46
810.385	46
810.559	47.42
810.733	48.79
810.907	50.17
811.081	48.34
811.255	49.09
811.428	49.35
811.602	50.56
811.776	51.5
811.95	50.69
812.123	53.06
812.297	53.54
812.471	54.48
812.644	53.83
812.818	56.09
812.992	56.69
813.165	58.09
813.339	56.81
813.512	57.47
813.686	55.34
813.86	53.6
814.033	50.25
814.207	53.16
814.38	50.2
814.554	49.05
814.727	48.1
814.9	50.1
815.074	48.93
815.247	49.48
815.421	46.06
815.594	46.73
815.767	47.5
815.941	48.56
816.114	50.2
816.287	52.15
816.46	54.41
816.634	53.23
816.807	47.56
816.98	49.76
817.153	49.09
817.327	50.56
817.5	52.38
817.673	54.88
817.846	57.11
818.019	54.34
818.192	53.95
818.365	51.86
818.538	49.7
818.711	51.27
818.884	48.79
819.057	50.6
819.23	52.2
819.403	50.91
819.576	48.83
819.749	48.29
819.922	48.74
820.095	48.91
820.268	49.45
820.441	52.3
820.614	51.77
820.786	50.09
820.959	49.38
821.132	48.92
821.305	47.44
821.477	46.99
821.65	46.59
821.823	44.85
821.996	44.77
822.168	44.6
822.341	43.29
822.514	43.31
822.686	43.97
822.859	43.72
823.031	43.34
823.204	43.79
823.376	43.39
823.549	43.45
823.722	43.76
823.894	43.59
824.067	43.03
824.239	43.08
824.411	43.09
824.584	43.15
824.756	42.97
824.929	42.59
825.101	42.35
825.273	43.34
825.446	43.21
825.618	42.95
825.79	43.35
825.963	44.29
826.135	44.7
826.307	45.17
826.479	45.33
826.652	45.58
826.824	46.3
826.996	46.59
827.168	46.25
827.34	45.9
827.512	46.86
827.684	46.86
827.856	46.88
828.029	47.8
828.201	47.88
828.373	48.28
828.545	49.17
828.717	49.32
828.889	49.02
829.061	49.16
829.232	50.04
829.404	51.12
829.576	51.15
829.748	50.96
829.92	50.38
830.092	51.01
830.264	50.67
830.436	49.15
830.607	49.32
830.779	49.79
830.951	49.54
831.123	48.85
831.294	46.4
831.466	48.41
831.638	49.07
831.809	48.9
831.981	48.31
832.153	47.24
832.324	50.22
832.496	50.97
832.667	51.29
832.839	51.22
833.011	50.22
833.182	48.66
833.354	46.97
833.525	45.89
833.697	45.84
833.868	45.87
834.039	47.37
834.211	47.47
834.382	45.49
834.554	45.52
834.725	44.46
834.896	44.81
835.068	45.81
835.239	44.07
835.41	43.7
835.581	45.09
835.753	43.33
835.924	42.83
836.095	40.53
836.266	42.15
836.438	40.8
836.609	42.61
836.78	44.32
836.951	44.25
837.122	44.52
837.293	45.63
837.464	43.22
837.635	43.86
837.806	44.6
837.977	46.42
838.148	45.27
838.319	44.78
838.49	43.86
838.661	43.72
838.832	45.76
839.003	48.62
839.174	50.61
839.345	52.82
839.516	55.64
839.687	54.34
839.857	54.85
840.028	55.71
840.199	57.71
840.37	55.85
840.54	54.1
840.711	54.01
840.882	54.77
841.053	53.04
841.223	50.63
841.394	49.44
841.564	47.46
841.735	46.18
841.906	49.3
842.076	51.59
842.247	51.99
842.417	49.59
842.588	48.24
842.758	48.41
842.929	44.15
843.099	45
843.27	50.08
843.44	53.11
843.611	53.58
843.781	46.39
843.951	42.51
844.122	44.83
844.292	45.7
844.462	40.64
844.633	37.27
844.803	39.52
844.973	35.73
845.144	35.01
845.314	32.87
845.484	32.27
845.654	39.59
845.824	47.63
845.995	44.71
846.165	44.52
846.335	53.28
846.505	56.36
846.675	57.53
846.845	70.84
847.015	62.43
847.185	59.56
847.355	60.1
847.525	68.26
847.695	65.47
847.865	75.78
848.035	80.75
848.205	73.54
848.375	77.5
848.545	78.55
848.715	66.63
848.884	64.26
849.054	67.43
849.224	71.57
849.394	71.12
849.564	73.77
849.733	65.36
849.903	65.24
850.073	66.63
850.243	62.01
850.412	67.26
850.582	68.64
850.752	71.33
850.921	69.86
851.091	56.87
851.26	47.49
851.43	48.39
851.599	51.41
851.769	52.79
851.939	49.62
852.108	56.15
852.278	56
852.447	56.88
852.616	58.74
852.786	61.16
852.955	73.58
853.125	81.26
853.294	80.01
853.463	75.2
853.633	68.11
853.802	82.72
853.971	80.65
854.141	76.02
854.31	75.84
854.479	74.97
854.648	63.5
854.818	57.4
854.987	48.97
855.156	41.41
855.325	34.92
855.494	39.89
855.663	29.74
855.832	19.18
856.001	17.56
856.171	14.98
856.34	8.97
856.509	0.43
856.678	-0.51
856.847	10.77
857.016	17.25
857.185	27.64
857.353	18.97
857.522	25.37
857.691	39.38
857.86	36.28
858.029	40.49
858.198	41.24
858.367	45.49
858.535	42.28
858.704	35.15
858.873	33.4
859.042	27.68
859.21	37.47
859.379	32.5
859.548	25.02
859.717	34.97
859.885	34.06
860.054	45.7
860.222	45.82
860.391	58.84
860.56	63.55
860.728	62.23
860.897	67.33
861.065	58.91
861.234	61.72
861.402	53.75
861.571	48.46
861.739	53.67
861.908	48.06
862.076	43.98
862.244	35.65
862.413	39.16
862.581	36.44
862.749	34.76
862.918	40.99
863.086	49.92
863.254	56.01
863.423	53.29
863.591	37.09
863.759	37.13
863.927	51.14
864.096	53.4
864.264	43.72
864.432	45.62
864.6	51.8
864.768	50.12
864.936	45.23
865.104	50.93
865.272	56.8
865.44	65.17
865.608	67.44
865.776	54.24
865.944	50.17
866.112	48.14
866.28	58.75
866.448	53.2
866.616	64.23
866.784	47.69
866.952	45.45
867.12	47.55
867.288	50.18
867.455	54.73
867.623	58.47
867.791	58.97
867.959	64.4
868.127	58.39
868.294	65.7
868.462	64.03
868.63	68.12
868.797	75.29
868.965	85.35
869.133	77.96
869.3	74.45
869.468	73.18
869.636	81.61
869.803	76.69
869.971	74.5
870.138	60.96
870.306	56.94
870.473	56.66
870.641	50.86
870.808	42.83
870.975	55.13
871.143	48
871.31	53.3
871.478	51.24
871.645	56.62
871.812	44.76
871.98	50.01
872.147	49.39
872.314	55.26
872.482	51.92
872.649	58.85
872.816	49.6
872.983	48.24
873.15	39.93
873.318	39.4
873.485	42.33
873.652	49.23
873.819	47.76
873.986	52.71
874.153	55.06
874.32	54.33
874.487	47.17
874.654	51.72
874.821	53.96
874.988	59.59
875.155	66.95
875.322	61.79
875.489	56.58
875.656	63.23
875.823	59.36
875.99	62.39
876.157	61.71
876.324	61.87
876.49	52.47
876.657	56.08
876.824	63.59
876.991	61.15
877.157	59.03
877.324	67.67
877.491	64.51
877.658	66.9
877.824	72.56
877.991	72.05
878.157	72.87
878.324	87.84
878.491	84.97
878.657	67.05
878.824	61.69
878.99	72.96
879.157	62.01
879.323	62.74
879.49	58.85
879.656	53.48
879.823	52.61
879.989	47.57
880.156	44.03
880.322	43.68
880.488	50.49
880.655	52.55
880.821	49.57
880.987	53.36
881.154	51.35
881.32	60.51
881.486	58.83
881.652	55.8
881.819	55.09
881.985	54.29
882.151	52.71
882.317	50.18
882.483	50.77
882.649	49.3
882.816	48.17
882.982	48.17
883.148	44.94
883.314	43.91
883.48	45.17
883.646	46.46
883.812	46.79
883.978	46.19
884.144	46.32
884.31	45.4
884.476	45.27
884.642	45.21
884.807	44.69
884.973	45.37
885.139	44.41
885.305	43.81
885.471	43.01
885.637	42.53
885.802	43.51
885.968	45.12
886.134	46.95
886.3	47.66
886.465	49.16
886.631	50.85
886.797	52.62
886.962	54.94
887.128	56.85
887.293	57.25
887.459	60.7
887.625	63.95
887.79	63.71
887.956	61.24
888.121	62.56
888.287	61.27
888.452	61.83
888.618	55.82
888.783	60.31
