Data from LC_245_Reflection_2.txt Node
Date: Thu Nov 19 22:43:52 EST 2015
User: robert
Spectrometer: USB4E03001
Autoset integration time: false
Trigger mode: 4
Integration Time (sec): 1.000000E-1
Scans to average: 15
Electric dark correction enabled: true
Nonlinearity correction enabled: false
Boxcar width: 5
Stray light correction enabled: false
XAxis mode: Wavelengths
Stop averaging: false
Number of Pixels in Spectrum: 3648
>>>>>Begin Spectral Data<<<<<
177.566	52.88
177.785	39.49
178.005	55.86
178.225	78.37
178.445	73.55
178.665	63.71
178.885	42.12
179.105	-516.67
179.324	-265.59
179.544	-139.96
179.764	0.19
179.984	-1.26
180.204	-30.85
180.423	19.78
180.643	-36.64
180.863	9.7
181.083	-8.97
181.302	21.55
181.522	48.04
181.742	42.33
181.961	43.33
182.181	33
182.401	33.29
182.621	-42.59
182.84	-183.51
183.06	-156.78
183.279	-247.77
183.499	-128.15
183.719	-772.73
183.938	-3595.96
184.158	2358.74
184.377	2454.2
184.597	-1367.05
184.816	13484.91
185.036	561.57
185.256	-7659.44
185.475	-347.12
185.695	-233.53
185.914	-242.33
186.134	-430.58
186.353	-181.56
186.572	-117.11
186.792	-193.31
187.011	1015.66
187.231	918.06
187.45	873.64
187.67	119.06
187.889	145.41
188.108	116.18
188.328	160.68
188.547	444.94
188.766	835.2
188.986	829.75
189.205	-7080.39
189.424	-159.34
189.644	-65.07
189.863	-25.55
190.082	8.12
190.302	-5.47
190.521	-11.36
190.74	-13.25
190.959	1.35
191.178	-3.76
191.398	-40.51
191.617	-103.64
191.836	-605.64
192.055	-167.7
192.274	-191.48
192.494	-179.68
192.713	-12.51
192.932	10.5
193.151	5.74
193.37	-13.51
193.589	-26.19
193.808	-13.53
194.027	9.35
194.246	11.29
194.465	12.4
194.685	-1.93
194.904	-9.38
195.123	-32.35
195.342	-55.51
195.561	-22.42
195.78	1.64
195.999	15.88
196.218	12.66
196.436	3.58
196.655	-20.02
196.874	-24.21
197.093	-50.51
197.312	-85.7
197.531	-68.09
197.75	-97.36
197.969	-62
198.188	456.2
198.407	208.58
198.625	227.39
198.844	110.24
199.063	142.24
199.282	98.08
199.501	79.69
199.719	183.17
199.938	154.9
200.157	373.14
200.376	408.33
200.594	-1255.65
200.813	-908.39
201.032	-492.29
201.251	-716.34
201.469	-612.9
201.688	-104.97
201.907	-180.1
202.125	-518.58
202.344	-91.7
202.563	-275.77
202.781	-290.09
203	-305.77
203.218	-220.81
203.437	-353.04
203.656	-260.37
203.874	-318.68
204.093	-517.84
204.311	-169.31
204.53	-124.78
204.748	-115.01
204.967	-43.49
205.185	-86.59
205.404	-136.62
205.622	-148.91
205.841	-47.3
206.059	-157.21
206.278	-159.71
206.496	-158.74
206.715	-123.09
206.933	-132.07
207.151	-83.24
207.37	-143.02
207.588	-191.37
207.806	-40.57
208.025	-54.99
208.243	-283.85
208.461	-287.72
208.68	-314.8
208.898	-175.48
209.116	-150.84
209.335	-219.62
209.553	-870.69
209.771	6003.36
209.989	-755.61
210.208	942.61
210.426	1604.95
210.644	-342.82
210.862	-194.05
211.081	-170.12
211.299	-174.29
211.517	-121.59
211.735	-88.93
211.953	-57
212.171	-49.21
212.39	-27.31
212.608	-12.28
212.826	34.91
213.044	18.72
213.262	-3.63
213.48	-26.89
213.698	-18.93
213.916	-61.54
214.134	-95.77
214.352	-178.96
214.57	-241.4
214.788	-35.73
215.006	-71.67
215.224	-402.12
215.442	-787.83
215.66	-194.95
215.878	-448.15
216.096	-487.76
216.314	-624.76
216.532	-506.94
216.75	-862.75
216.968	246.08
217.185	1641.81
217.403	2593.71
217.621	3761.85
217.839	-314.58
218.057	-147.92
218.275	-10.81
218.492	-46.57
218.71	-38.44
218.928	-57.89
219.146	-94.93
219.363	-52.59
219.581	-45.69
219.799	-41.01
220.017	-34.95
220.234	-33.16
220.452	-19.88
220.67	-60.5
220.887	-31.02
221.105	16.02
221.323	10.79
221.54	31.21
221.758	42.73
221.976	29.11
222.193	32.25
222.411	13.84
222.629	19.51
222.846	-1.37
223.064	8.66
223.281	8.4
223.499	-32.96
223.716	-36.04
223.934	-42.76
224.151	-36.48
224.369	-21.77
224.586	-45.18
224.804	-30.38
225.021	-30.72
225.239	-20.17
225.456	-28.13
225.674	-25.55
225.891	-19.4
226.108	-6.62
226.326	-12.71
226.543	-5.47
226.76	-18.72
226.978	7.32
227.195	6.77
227.413	-3.71
227.63	-4.61
227.847	-3.82
228.064	-0.84
228.282	5.37
228.499	5.86
228.716	7.32
228.934	7.11
229.151	8.93
229.368	5.95
229.585	6.74
229.802	5.66
230.02	7.3
230.237	7.37
230.454	4.59
230.671	1.11
230.888	-0.52
231.105	-2.33
231.323	-3.9
231.54	-11.28
231.757	-12.95
231.974	-13.74
232.191	-6.55
232.408	-10
232.625	-9.14
232.842	-3.22
233.059	0.53
233.276	4.49
233.493	5.85
233.71	4.79
233.927	10.72
234.144	11
234.361	3.67
234.578	0.41
234.795	-2
235.012	-0.51
235.229	-8.79
235.446	-7.2
235.663	-15.22
235.879	-14.34
236.096	-19.44
236.313	-23.04
236.53	-21.06
236.747	-17.17
236.964	-16.09
237.181	-17.15
237.397	-17.03
237.614	-11.56
237.831	-12.01
238.048	-6.78
238.264	-7.24
238.481	-4.24
238.698	-0.16
238.915	8.55
239.131	4.47
239.348	3.67
239.565	10.58
239.781	10.79
239.998	9.25
240.215	6.42
240.431	5.5
240.648	5.06
240.865	5.81
241.081	5.6
241.298	3.69
241.514	4.8
241.731	5.7
241.947	5.42
242.164	4.27
242.38	5.95
242.597	5.8
242.814	6.14
243.03	6.74
243.246	8.11
243.463	7.07
243.679	6.57
243.896	8.15
244.112	6.64
244.329	5.69
244.545	5.69
244.762	4.57
244.978	5.96
245.194	5.82
245.411	6.18
245.627	4.95
245.843	5.44
246.06	6.8
246.276	6.29
246.492	7.59
246.709	7.83
246.925	7.87
247.141	7.06
247.357	6.37
247.574	6.56
247.79	6.88
248.006	6.99
248.222	6.86
248.439	5.8
248.655	5.84
248.871	5.89
249.087	5.22
249.303	3.86
249.519	4.44
249.736	5.29
249.952	4.45
250.168	2.89
250.384	0.89
250.6	2.02
250.816	3.94
251.032	3
251.248	2.55
251.464	2.45
251.68	2.93
251.896	2.6
252.112	2.24
252.328	2.25
252.544	1.62
252.76	3.52
252.976	3.12
253.192	1.57
253.408	1.03
253.624	1.29
253.84	-0.16
254.056	-0.41
254.272	-0.42
254.487	-1.65
254.703	-1.66
254.919	-0.09
255.135	-0.72
255.351	-1.95
255.567	1.21
255.782	1.96
255.998	2.8
256.214	4.1
256.43	6.12
256.646	6.67
256.861	7.38
257.077	8.35
257.293	6.95
257.508	8.29
257.724	8.06
257.94	6.42
258.155	7.9
258.371	7.48
258.587	7.51
258.802	7.42
259.018	7.25
259.234	7.1
259.449	6.86
259.665	6.83
259.88	5.47
260.096	6.1
260.312	5.09
260.527	4.88
260.743	4.88
260.958	5.19
261.174	5.33
261.389	5.41
261.605	5.83
261.82	5.34
262.036	5.03
262.251	6.06
262.466	5.11
262.682	6.68
262.897	6.51
263.113	4.7
263.328	4.87
263.543	3.42
263.759	3.1
263.974	3.16
264.189	5.32
264.405	5.63
264.62	4.99
264.835	5.38
265.051	4.46
265.266	4.1
265.481	5.41
265.696	4.95
265.912	6.08
266.127	5.89
266.342	4.77
266.557	3.79
266.773	4.26
266.988	4.58
267.203	4.33
267.418	5.98
267.633	5.84
267.848	4.94
268.064	4.87
268.279	3.79
268.494	3.7
268.709	4.93
268.924	3.12
269.139	3.86
269.354	3.59
269.569	3.45
269.784	2.4
269.999	1.38
270.214	2.83
270.429	3.16
270.644	3.17
270.859	4
271.074	2.74
271.289	4.98
271.504	5.28
271.719	6.03
271.934	6.68
272.149	6.37
272.363	7.5
272.578	7.37
272.793	6.64
273.008	7.04
273.223	6.6
273.438	7.7
273.653	6.06
273.867	4.82
274.082	4.47
274.297	3.44
274.512	4.23
274.726	4.1
274.941	3.11
275.156	1.66
275.371	0.52
275.585	0.85
275.8	-1.66
276.015	-0.6
276.229	0.64
276.444	0.06
276.659	-0.03
276.873	-0.64
277.088	-1.15
277.302	-0.86
277.517	0.43
277.732	1.98
277.946	1.26
278.161	3.63
278.375	4.49
278.59	3.47
278.804	4.03
279.019	5.81
279.233	6.48
279.448	6.29
279.662	7.19
279.877	7.26
280.091	6.29
280.306	5.8
280.52	4.69
280.735	4.82
280.949	4.34
281.163	3.96
281.378	3.29
281.592	3.81
281.806	4.46
282.021	4.88
282.235	4.57
282.449	5.09
282.664	5.53
282.878	5.08
283.092	4.3
283.307	5.83
283.521	6.22
283.735	5.87
283.949	4.75
284.164	4.56
284.378	3.5
284.592	3.58
284.806	3.61
285.02	4.29
285.234	4.46
285.449	4.41
285.663	4.52
285.877	5.48
286.091	5.73
286.305	5.93
286.519	6.5
286.733	6.6
286.947	6.72
287.161	6.24
287.375	5.95
287.589	5.35
287.803	5.49
288.017	4.58
288.231	3.85
288.445	3.98
288.659	4.18
288.873	2.96
289.087	2.72
289.301	3.67
289.515	3.57
289.729	2.78
289.943	3.56
290.157	4.01
290.371	4.21
290.584	3.25
290.798	3.11
291.012	3
291.226	2.97
291.44	4.11
291.654	3.68
291.867	4.16
292.081	4.56
292.295	5.13
292.509	4.87
292.722	5.14
292.936	5.23
293.15	4.54
293.364	5.55
293.577	5.78
293.791	4.52
294.005	4.19
294.218	4.19
294.432	4.22
294.645	4.22
294.859	3.37
295.073	2.59
295.286	3.22
295.5	3.41
295.713	2.69
295.927	2.72
296.14	3.12
296.354	3.23
296.568	4.15
296.781	4.23
296.994	4.85
297.208	5.25
297.421	5.92
297.635	6.33
297.848	6.52
298.062	6.8
298.275	7.47
298.489	7.14
298.702	7.57
298.915	7.01
299.129	7.44
299.342	6.85
299.555	6.48
299.769	6.26
299.982	5.88
300.195	5.96
300.409	5.59
300.622	4.73
300.835	6.01
301.048	6.18
301.262	6.09
301.475	5.09
301.688	3.73
301.901	4.79
302.115	4.33
302.328	3.72
302.541	3.04
302.754	3.27
302.967	3.87
303.18	3.81
303.393	2.79
303.607	2.62
303.82	2.5
304.033	3.59
304.246	4.26
304.459	4.22
304.672	5.05
304.885	7.13
305.098	6.93
305.311	6.32
305.524	5.42
305.737	5.35
305.95	6.01
306.163	6.91
306.376	6.96
306.589	5.23
306.802	5.16
307.015	4.56
307.228	3.59
307.44	3.7
307.653	4.17
307.866	4.24
308.079	5.51
308.292	5.12
308.505	5.13
308.718	3.81
308.93	3.85
309.143	3.65
309.356	3.22
309.569	3.12
309.781	2.4
309.994	2.15
310.207	2.24
310.42	2.99
310.632	3.04
310.845	3.26
311.058	4.48
311.27	4.64
311.483	4.98
311.696	5.45
311.908	5.65
312.121	5.59
312.333	6.03
312.546	5.22
312.759	4.15
312.971	4.31
313.184	3.89
313.396	3.74
313.609	3.94
313.821	4.26
314.034	4.88
314.246	4.29
314.459	5.32
314.671	5.63
314.884	6.25
315.096	6.12
315.309	5.6
315.521	5.63
315.733	5.91
315.946	6.88
316.158	7.15
316.371	6.29
316.583	6.25
316.795	5.05
317.008	4.2
317.22	4.99
317.432	5.07
317.644	5.89
317.857	4.42
318.069	3.71
318.281	2.25
318.494	3.11
318.706	2.28
318.918	2.66
319.13	3.95
319.342	3.21
319.555	2.68
319.767	2.97
319.979	1.8
320.191	3.3
320.403	4.38
320.615	4.99
320.827	3.87
321.039	2.18
321.252	2.45
321.464	2.29
321.676	3.2
321.888	2.21
322.1	2.36
322.312	2.49
322.524	3.21
322.736	2.27
322.948	2.65
323.16	2.39
323.372	3.89
323.584	4.04
323.796	3.49
324.007	3.57
324.219	5.55
324.431	5.34
324.643	5.43
324.855	5.24
325.067	5.65
325.279	4.67
325.491	5.02
325.702	6.21
325.914	5.38
326.126	6.9
326.338	7.74
326.55	6.67
326.761	6.3
326.973	7.1
327.185	5.93
327.396	6.37
327.608	7.11
327.82	7.02
328.032	6.84
328.243	7.72
328.455	6.67
328.666	6.31
328.878	5.96
329.09	7
329.301	7.06
329.513	8.34
329.725	7.61
329.936	7.13
330.148	7.35
330.359	7.35
330.571	6.68
330.782	6.14
330.994	6.27
331.205	7.1
331.417	7.51
331.628	7.69
331.84	8.3
332.051	8.32
332.262	8.93
332.474	9.47
332.685	9.56
332.897	9.96
333.108	9.93
333.319	9.69
333.531	9.71
333.742	8.81
333.953	8.21
334.165	8.17
334.376	8.31
334.587	7.98
334.799	6.73
335.01	5.81
335.221	5.67
335.432	6.25
335.644	6.13
335.855	5.61
336.066	6
336.277	5.63
336.488	4.93
336.7	4.77
336.911	4.57
337.122	5.18
337.333	6.71
337.544	6.11
337.755	5.53
337.966	4.9
338.177	5.46
338.388	5.84
338.599	6.12
338.811	6.23
339.022	6.3
339.233	6.56
339.444	6.89
339.655	6.1
339.866	6.71
340.076	7.58
340.287	7.89
340.498	7.72
340.709	7.2
340.92	6.64
341.131	6.39
341.342	6.87
341.553	7.23
341.764	6.53
341.975	6.26
342.185	6.25
342.396	5.55
342.607	5.92
342.818	5.5
343.029	6.11
343.239	6.34
343.45	6.32
343.661	5.99
343.872	5.23
344.082	5.66
344.293	6.45
344.504	7.07
344.714	7.78
344.925	8.21
345.136	8.63
345.346	7.21
345.557	7.83
345.768	7.74
345.978	7.34
346.189	7.01
346.399	6.71
346.61	5.25
346.821	4.63
347.031	4.02
347.242	3.57
347.452	3.7
347.663	4.27
347.873	4.34
348.084	5.12
348.294	4.91
348.504	6.06
348.715	6.63
348.925	7.8
349.136	8.4
349.346	8.6
349.557	8.74
349.767	9.09
349.977	9.25
350.188	8.74
350.398	8.44
350.608	9.03
350.819	8.81
351.029	8.57
351.239	8.46
351.449	7.53
351.66	6.85
351.87	6.29
352.08	5.59
352.29	6.1
352.501	6.35
352.711	5.99
352.921	6.49
353.131	5.84
353.341	5.44
353.552	5.54
353.762	4.88
353.972	5.6
354.182	5.68
354.392	5.54
354.602	5.24
354.812	5.26
355.022	4.93
355.232	4.94
355.442	5.54
355.652	5.37
355.862	5
356.072	6.08
356.282	6.6
356.492	6.22
356.702	6.1
356.912	5.73
357.122	5.45
357.332	5.88
357.542	5.06
357.752	5.09
357.962	5.4
358.171	5.62
358.381	6.03
358.591	5.59
358.801	5.95
359.011	6.02
359.221	6.26
359.43	6.28
359.64	6.17
359.85	6.55
360.06	6.56
360.269	6.47
360.479	6.56
360.689	5.94
360.899	5.82
361.108	6.14
361.318	6.48
361.528	6.6
361.737	6.91
361.947	6.61
362.156	6.65
362.366	7.08
362.576	7.06
362.785	6.75
362.995	6.82
363.204	6.72
363.414	6.35
363.623	5.96
363.833	6.22
364.042	6.14
364.252	6.77
364.461	6.19
364.671	5.58
364.88	6.04
365.09	6.36
365.299	6.44
365.509	6.79
365.718	6.89
365.927	7.3
366.137	6.82
366.346	6.56
366.555	6.05
366.765	6.42
366.974	6.28
367.183	5.7
367.393	5.24
367.602	5.8
367.811	5.74
368.021	5.69
368.23	4.88
368.439	4.64
368.648	4.39
368.857	4.88
369.067	4.79
369.276	5.83
369.485	5.45
369.694	5.74
369.903	4.93
370.112	4.9
370.321	4.89
370.531	5.98
370.74	6.07
370.949	6.44
371.158	5.68
371.367	5.81
371.576	4.41
371.785	5.07
371.994	5.02
372.203	5.03
372.412	5.16
372.621	5.16
372.83	4.44
373.039	4.34
373.248	4.43
373.457	5.14
373.666	5.26
373.874	5.52
374.083	4.8
374.292	4.72
374.501	4.74
374.71	4.74
374.919	4.59
375.128	4.91
375.336	5.18
375.545	4.73
375.754	4.41
375.963	4.44
376.171	4.79
376.38	5.49
376.589	5.62
376.798	4.98
377.006	4.89
377.215	5.1
377.424	4.77
377.632	4.47
377.841	4.59
378.05	4.79
378.258	4.94
378.467	4.53
378.675	4.21
378.884	4.4
379.093	5.01
379.301	5.12
379.51	5.12
379.718	5.31
379.927	5.45
380.135	5.77
380.344	5.57
380.552	5.57
380.761	5.71
380.969	6.34
381.177	6.1
381.386	5.97
381.594	5.86
381.803	5.58
382.011	5.57
382.219	5.85
382.428	5.54
382.636	5.73
382.845	5.75
383.053	5.35
383.261	5.2
383.469	5.13
383.678	5.41
383.886	5.27
384.094	5.61
384.302	5.55
384.511	4.91
384.719	5
384.927	4.66
385.135	4.79
385.343	5.32
385.552	5.04
385.76	5.18
385.968	5.09
386.176	5.1
386.384	5.04
386.592	5.19
386.8	5.82
387.008	5.41
387.216	5.35
387.424	5.1
387.633	5.1
387.841	4.81
388.049	4.45
388.257	4.43
388.465	4.51
388.672	4.46
388.88	4.1
389.088	3.81
389.296	3.94
389.504	4.23
389.712	4.27
389.92	4.19
390.128	4.38
390.336	4.53
390.544	4.49
390.751	4.28
390.959	4.14
391.167	4.6
391.375	4.54
391.583	4.5
391.79	4.21
391.998	4.19
392.206	4.31
392.414	4.33
392.621	4.39
392.829	4.42
393.037	4.77
393.244	4.87
393.452	4.67
393.66	4.7
393.867	4.97
394.075	5.36
394.283	5.1
394.49	4.92
394.698	4.93
394.905	5.01
395.113	5.09
395.32	4.99
395.528	5.16
395.735	5.27
395.943	5.3
396.15	4.9
396.358	4.79
396.565	5.14
396.773	4.96
396.98	5.07
397.188	5.24
397.395	4.93
397.602	4.6
397.81	4.35
398.017	3.93
398.225	3.97
398.432	4.47
398.639	4.41
398.847	3.97
399.054	4.22
399.261	4
399.468	3.77
399.676	4.07
399.883	4.21
400.09	4.27
400.297	4.81
400.505	4.7
400.712	4.69
400.919	4.45
401.126	4.9
401.333	5.04
401.54	5.01
401.748	4.86
401.955	4.87
402.162	4.7
402.369	4.99
402.576	5.12
402.783	4.93
402.99	4.86
403.197	5.19
403.404	4.95
403.611	5.02
403.818	5.28
404.025	5.59
404.232	5.26
404.439	5.5
404.646	5.12
404.853	4.82
405.06	5.14
405.267	5.17
405.474	5.04
405.681	5.19
405.887	5.36
406.094	5.21
406.301	5.19
406.508	5.56
406.715	5.28
406.922	5.3
407.128	5.21
407.335	5.27
407.542	5.12
407.749	5.27
407.955	5.14
408.162	4.89
408.369	5.1
408.575	5.28
408.782	4.91
408.989	5.14
409.195	5.11
409.402	5.42
409.609	5
409.815	4.86
410.022	4.63
410.228	4.84
410.435	4.92
410.642	4.77
410.848	4.58
411.055	4.82
411.261	4.88
411.468	5.04
411.674	4.74
411.881	5.16
412.087	5.46
412.294	5.54
412.5	5.21
412.706	5.07
412.913	5.19
413.119	4.91
413.326	4.73
413.532	4.76
413.738	4.65
413.945	4.91
414.151	4.65
414.357	4.67
414.564	4.64
414.77	4.81
414.976	4.86
415.182	4.62
415.389	4.78
415.595	4.86
415.801	4.64
416.007	4.65
416.214	4.51
416.42	4.55
416.626	4.38
416.832	4.59
417.038	4.66
417.244	4.52
417.45	4.67
417.657	4.65
417.863	4.9
418.069	5.08
418.275	5.26
418.481	5.38
418.687	5.29
418.893	5.41
419.099	5.36
419.305	5.43
419.511	5.49
419.717	5.42
419.923	5.41
420.129	5.21
420.335	5.18
420.541	5.13
420.746	4.93
420.952	5.13
421.158	5.04
421.364	4.97
421.57	4.87
421.776	4.93
421.982	5
422.187	5.08
422.393	5.09
422.599	5
422.805	4.89
423.01	4.98
423.216	4.77
423.422	4.77
423.628	4.81
423.833	4.7
424.039	4.59
424.245	4.53
424.45	4.49
424.656	4.54
424.862	4.53
425.067	4.53
425.273	4.6
425.478	4.73
425.684	4.81
425.889	4.78
426.095	4.84
426.301	4.93
426.506	5.05
426.712	4.93
426.917	5.07
427.123	5.21
427.328	5.1
427.533	5
427.739	5
427.944	4.97
428.15	4.92
428.355	4.83
428.561	4.84
428.766	4.64
428.971	4.72
429.177	4.45
429.382	4.38
429.587	4.75
429.793	4.69
429.998	4.66
430.203	4.49
430.408	4.71
430.614	4.88
430.819	4.64
431.024	4.65
431.229	4.52
431.434	4.49
431.64	4.45
431.845	4.34
432.05	4.51
432.255	4.39
432.46	4.43
432.665	4.34
432.87	4.34
433.076	4.58
433.281	4.51
433.486	4.68
433.691	4.7
433.896	4.61
434.101	4.44
434.306	4.38
434.511	4.38
434.716	4.53
434.921	4.59
435.126	4.7
435.331	4.55
435.535	4.62
435.74	4.52
435.945	4.65
436.15	4.71
436.355	5.02
436.56	4.9
436.765	4.95
436.97	4.86
437.174	4.75
437.379	4.58
437.584	4.62
437.789	4.7
437.993	4.59
438.198	4.38
438.403	4.46
438.608	4.5
438.812	4.56
439.017	4.56
439.222	4.63
439.426	4.57
439.631	4.59
439.836	4.85
440.04	4.83
440.245	4.94
440.45	5.05
440.654	5.09
440.859	4.95
441.063	5.07
441.268	5.07
441.472	4.98
441.677	4.91
441.881	4.98
442.086	4.6
442.29	4.54
442.495	4.49
442.699	4.48
442.904	4.51
443.108	4.5
443.312	4.36
443.517	4.3
443.721	4.39
443.925	4.57
444.13	4.47
444.334	4.64
444.538	4.76
444.743	4.81
444.947	4.8
445.151	4.69
445.356	4.76
445.56	4.86
445.764	4.94
445.968	4.95
446.173	5
446.377	5.02
446.581	5.04
446.785	5.01
446.989	5.06
447.193	5.01
447.398	4.9
447.602	4.87
447.806	4.8
448.01	4.76
448.214	4.72
448.418	4.63
448.622	4.58
448.826	4.62
449.03	4.51
449.234	4.41
449.438	4.39
449.642	4.48
449.846	4.49
450.05	4.56
450.254	4.65
450.458	4.59
450.662	4.55
450.866	4.5
451.069	4.46
451.273	4.53
451.477	4.51
451.681	4.61
451.885	4.71
452.089	4.62
452.292	4.55
452.496	4.4
452.7	4.33
452.904	4.17
453.107	4.21
453.311	4.29
453.515	4.3
453.719	4.47
453.922	4.5
454.126	4.46
454.33	4.45
454.533	4.42
454.737	4.38
454.94	4.58
455.144	4.86
455.348	4.99
455.551	4.87
455.755	4.76
455.958	4.51
456.162	4.39
456.365	4.46
456.569	4.45
456.772	4.42
456.976	4.67
457.179	4.62
457.383	4.48
457.586	4.39
457.79	4.38
457.993	4.32
458.196	4.45
458.4	4.6
458.603	4.5
458.807	4.53
459.01	4.6
459.213	4.53
459.417	4.45
459.62	4.48
459.823	4.48
460.026	4.47
460.23	4.58
460.433	4.52
460.636	4.47
460.839	4.57
461.042	4.57
461.246	4.58
461.449	4.41
461.652	4.45
461.855	4.39
462.058	4.3
462.261	4.49
462.464	4.43
462.668	4.53
462.871	4.46
463.074	4.15
463.277	4.06
463.48	4.11
463.683	4.31
463.886	4.37
464.089	4.45
464.292	4.54
464.495	4.47
464.698	4.29
464.901	4.21
465.104	4.38
465.306	4.61
465.509	4.71
465.712	4.54
465.915	4.53
466.118	4.53
466.321	4.58
466.524	4.58
466.726	4.41
466.929	4.66
467.132	4.64
467.335	4.56
467.538	4.54
467.74	4.46
467.943	4.43
468.146	4.44
468.348	4.47
468.551	4.41
468.754	4.42
468.956	4.54
469.159	4.4
469.362	4.38
469.564	4.31
469.767	4.43
469.969	4.51
470.172	4.62
470.375	4.57
470.577	4.52
470.78	4.62
470.982	4.64
471.185	4.58
471.387	4.56
471.59	4.73
471.792	4.77
471.995	4.62
472.197	4.65
472.399	4.7
472.602	4.84
472.804	4.71
473.007	4.71
473.209	4.69
473.411	4.7
473.614	4.82
473.816	4.95
474.018	4.93
474.22	5.07
474.423	5.07
474.625	4.97
474.827	4.9
475.03	4.85
475.232	4.78
475.434	4.96
475.636	4.86
475.838	4.91
476.04	4.61
476.243	4.63
476.445	4.47
476.647	4.33
476.849	4.4
477.051	4.44
477.253	4.55
477.455	4.63
477.657	4.51
477.859	4.52
478.061	4.4
478.263	4.49
478.465	4.37
478.667	4.41
478.869	4.58
479.071	4.48
479.273	4.35
479.475	4.14
479.677	4.14
479.879	4.26
480.081	4.23
480.283	4.35
480.485	4.39
480.686	4.46
480.888	4.52
481.09	4.49
481.292	4.6
481.494	4.69
481.695	4.95
481.897	4.94
482.099	4.85
482.301	4.82
482.502	4.78
482.704	4.67
482.906	4.74
483.107	4.79
483.309	4.82
483.511	4.73
483.712	4.74
483.914	4.76
484.115	4.75
484.317	4.77
484.519	4.82
484.72	4.82
484.922	4.86
485.123	4.85
485.325	4.8
485.526	4.8
485.728	4.87
485.929	4.9
486.131	4.8
486.332	4.85
486.534	4.76
486.735	4.76
486.936	4.8
487.138	4.82
487.339	4.8
487.541	4.86
487.742	4.85
487.943	4.9
488.144	4.86
488.346	4.92
488.547	4.91
488.748	5.02
488.95	5.02
489.151	5.02
489.352	5.04
489.553	5.14
489.755	5.07
489.956	5.11
490.157	5.03
490.358	5.04
490.559	5.02
490.76	5.01
490.961	5.04
491.163	5.04
491.364	5.03
491.565	5.04
491.766	5.02
491.967	5.08
492.168	5.01
492.369	5.07
492.57	5
492.771	5.01
492.972	4.95
493.173	4.86
493.374	4.85
493.575	4.9
493.776	4.88
493.976	4.8
494.177	4.69
494.378	4.76
494.579	4.67
494.78	4.72
494.981	4.73
495.182	4.84
495.382	4.83
495.583	4.81
495.784	4.72
495.985	4.79
496.185	4.81
496.386	4.87
496.587	4.86
496.788	4.87
496.988	5.02
497.189	4.9
497.39	4.99
497.59	5.09
497.791	5.13
497.992	5.15
498.192	5.17
498.393	5.3
498.593	5.29
498.794	5.31
498.994	5.35
499.195	5.31
499.395	5.4
499.596	5.34
499.796	5.19
499.997	5.17
500.197	5.12
500.398	5.17
500.598	4.98
500.799	5.02
500.999	4.89
501.199	4.94
501.4	4.88
501.6	4.86
501.801	4.76
502.001	4.84
502.201	4.92
502.402	4.97
502.602	4.88
502.802	4.97
503.002	5.09
503.203	5.27
503.403	5.23
503.603	5.31
503.803	5.43
504.003	5.56
504.204	5.6
504.404	5.62
504.604	5.56
504.804	5.71
505.004	5.77
505.204	5.75
505.404	5.8
505.604	5.95
505.804	6.01
506.005	6.05
506.205	6.06
506.405	6.12
506.605	6.25
506.805	6.33
507.005	6.26
507.204	6.24
507.404	6.16
507.604	6.07
507.804	6.03
508.004	6.11
508.204	6.16
508.404	6.15
508.604	6.16
508.804	6.03
509.003	6.13
509.203	6.15
509.403	6.18
509.603	6.21
509.803	6.44
510.002	6.46
510.202	6.35
510.402	6.33
510.602	6.46
510.801	6.59
511.001	6.63
511.201	6.56
511.4	6.5
511.6	6.69
511.8	6.76
511.999	6.7
512.199	6.78
512.398	6.87
512.598	6.95
512.797	6.97
512.997	6.9
513.197	6.97
513.396	7.18
513.596	7.23
513.795	7.09
513.994	7.06
514.194	7.23
514.393	7.17
514.593	7.3
514.792	7.41
514.992	7.47
515.191	7.73
515.39	7.71
515.59	7.75
515.789	7.84
515.988	8.04
516.188	8.16
516.387	8.07
516.586	8.26
516.786	8.14
516.985	8.05
517.184	7.85
517.383	7.75
517.582	7.79
517.782	7.71
517.981	7.73
518.18	7.6
518.379	7.63
518.578	7.66
518.777	7.67
518.976	7.8
519.176	7.92
519.375	8.05
519.574	8.09
519.773	8.14
519.972	8.24
520.171	8.3
520.37	8.39
520.569	8.46
520.768	8.51
520.967	8.47
521.166	8.38
521.365	8.37
521.564	8.33
521.762	8.34
521.961	8.43
522.16	8.41
522.359	8.5
522.558	8.55
522.757	8.48
522.956	8.53
523.154	8.44
523.353	8.56
523.552	8.6
523.751	8.72
523.949	8.68
524.148	8.59
524.347	8.7
524.546	8.63
524.744	8.73
524.943	8.94
525.142	8.92
525.34	9.19
525.539	9.21
525.737	9.19
525.936	9.28
526.135	9.42
526.333	9.54
526.532	9.52
526.73	9.58
526.929	9.53
527.127	9.54
527.326	9.63
527.524	9.64
527.723	9.69
527.921	9.74
528.12	9.76
528.318	9.77
528.516	9.8
528.715	9.84
528.913	9.91
529.112	9.97
529.31	9.97
529.508	10.01
529.707	9.98
529.905	10.03
530.103	10.09
530.301	10.13
530.5	10.16
530.698	10.17
530.896	10.23
531.094	10.17
531.293	10.22
531.491	10.26
531.689	10.29
531.887	10.36
532.085	10.36
532.283	10.38
532.481	10.4
532.68	10.45
532.878	10.57
533.076	10.61
533.274	10.74
533.472	10.78
533.67	10.82
533.868	10.83
534.066	10.88
534.264	10.95
534.462	10.95
534.66	11.04
534.858	11.09
535.056	11.01
535.253	10.99
535.451	11
535.649	11.08
535.847	11.06
536.045	11.16
536.243	11.22
536.441	11.23
536.638	11.22
536.836	11.17
537.034	11.22
537.232	11.32
537.43	11.45
537.627	11.46
537.825	11.48
538.023	11.53
538.22	11.51
538.418	11.45
538.616	11.49
538.813	11.59
539.011	11.7
539.209	11.82
539.406	11.9
539.604	11.88
539.801	12
539.999	12.05
540.196	12.11
540.394	12.14
540.591	12.24
540.789	12.21
540.986	12.2
541.184	12.16
541.381	12.18
541.579	12.14
541.776	12.19
541.974	12.22
542.171	12.23
542.368	12.3
542.566	12.36
542.763	12.39
542.96	12.48
543.158	12.59
543.355	12.72
543.552	12.74
543.75	12.86
543.947	12.9
544.144	12.86
544.341	13.01
544.539	12.98
544.736	13
544.933	12.93
545.13	13.05
545.327	12.98
545.524	13.01
545.722	12.92
545.919	13.02
546.116	13.05
546.313	13.21
546.51	13.2
546.707	13.29
546.904	13.35
547.101	13.45
547.298	13.44
547.495	13.45
547.692	13.53
547.889	13.66
548.086	13.65
548.283	13.82
548.48	13.9
548.677	13.85
548.874	13.94
549.07	14.03
549.267	14.13
549.464	14.3
549.661	14.41
549.858	14.55
550.055	14.57
550.251	14.73
550.448	14.63
550.645	14.74
550.842	15.05
551.038	15.02
551.235	15.18
551.432	15.22
551.628	14.99
551.825	15.16
552.022	15.12
552.218	15.25
552.415	15.16
552.612	15.31
552.808	15.26
553.005	15.21
553.201	15.25
553.398	15.28
553.594	15.14
553.791	15.26
553.987	15.4
554.184	15.31
554.38	15.4
554.577	15.33
554.773	15.28
554.97	15.25
555.166	15.28
555.362	15.22
555.559	15.03
555.755	15.31
555.952	15.52
556.148	15.49
556.344	15.73
556.541	15.77
556.737	15.89
556.933	16.07
557.129	16.04
557.326	16.01
557.522	16.18
557.718	16.29
557.914	16.45
558.11	16.31
558.307	16.35
558.503	16.16
558.699	16.32
558.895	16.29
559.091	16.3
559.287	16.52
559.483	16.73
559.679	16.87
559.876	16.98
560.072	16.95
560.268	16.96
560.464	17.07
560.66	17.42
560.856	17.44
561.052	17.68
561.247	17.85
561.443	17.75
561.639	17.71
561.835	17.66
562.031	17.66
562.227	17.76
562.423	18.03
562.619	18.01
562.815	18
563.01	18.02
563.206	18.15
563.402	18.14
563.598	18.39
563.793	18.3
563.989	18.4
564.185	18.43
564.381	18.45
564.576	18.44
564.772	18.61
564.968	18.56
565.163	18.78
565.359	18.83
565.555	18.84
565.75	18.83
565.946	19.09
566.141	19.3
566.337	19.41
566.532	19.57
566.728	19.79
566.923	19.8
567.119	20.05
567.314	20.07
567.51	20.15
567.705	20.24
567.901	20.29
568.096	20.28
568.292	20.08
568.487	20.17
568.682	20.29
568.878	20.27
569.073	20.46
569.268	20.48
569.464	20.42
569.659	20.47
569.854	20.69
570.05	20.9
570.245	20.99
570.44	21.19
570.635	21.26
570.831	21.15
571.026	21.3
571.221	21.31
571.416	21.3
571.611	21.6
571.806	21.6
572.002	21.59
572.197	21.4
572.392	21.58
572.587	21.68
572.782	21.71
572.977	21.83
573.172	21.89
573.367	21.95
573.562	22.17
573.757	22.14
573.952	22.21
574.147	22.35
574.342	22.63
574.537	22.72
574.732	22.72
574.927	22.76
575.121	22.82
575.316	22.77
575.511	22.82
575.706	22.68
575.901	22.52
576.096	22.74
576.29	22.58
576.485	22.56
576.68	22.42
576.875	22.5
577.069	22.62
577.264	22.57
577.459	22.54
577.654	22.69
577.848	22.71
578.043	23.16
578.238	23.1
578.432	23.1
578.627	23.12
578.821	23.28
579.016	23.34
579.21	23.38
579.405	23.53
579.6	23.5
579.794	23.51
579.989	23.61
580.183	23.66
580.378	23.62
580.572	23.82
580.766	23.95
580.961	23.74
581.155	23.78
581.35	23.99
581.544	23.98
581.738	24.23
581.933	24.08
582.127	24.09
582.321	23.93
582.516	24.21
582.71	24.22
582.904	24.16
583.099	24.32
583.293	24.33
583.487	24.17
583.681	24.51
583.875	24.52
584.07	24.53
584.264	24.71
584.458	24.45
584.652	24.34
584.846	24.46
585.04	24.72
585.234	25.04
585.428	25.28
585.623	25.51
585.817	25.46
586.011	25.51
586.205	25.73
586.399	25.96
586.593	26.16
586.787	26.04
586.981	25.92
587.174	26.04
587.368	25.89
587.562	25.82
587.756	25.69
587.95	25.64
588.144	25.72
588.338	25.73
588.532	25.43
588.725	25.62
588.919	25.72
589.113	26.05
589.307	25.9
589.501	25.88
589.694	25.86
589.888	26.18
590.082	26.44
590.275	26.3
590.469	26.33
590.663	26.6
590.856	26.52
591.05	26.47
591.244	26.34
591.437	26.4
591.631	26.53
591.824	26.65
592.018	26.46
592.212	26.22
592.405	26.27
592.599	26.61
592.792	26.62
592.986	26.66
593.179	26.82
593.372	27.16
593.566	27.19
593.759	27.22
593.953	27.24
594.146	27.37
594.339	27.56
594.533	27.64
594.726	27.29
594.92	27.21
595.113	27.39
595.306	27.51
595.499	27.25
595.693	27.36
595.886	27.38
596.079	27.42
596.272	27.33
596.466	27.5
596.659	27.54
596.852	27.61
597.045	27.72
597.238	27.56
597.431	27.47
597.624	27.66
597.818	27.72
598.011	27.71
598.204	27.68
598.397	27.82
598.59	27.53
598.783	27.64
598.976	27.51
599.169	27.55
599.362	27.6
599.555	27.59
599.748	27.64
599.941	27.62
600.134	27.76
600.326	27.75
600.519	27.78
600.712	27.82
600.905	27.88
601.098	28.17
601.291	27.98
601.483	28.26
601.676	28.76
601.869	28.62
602.062	28.64
602.255	28.66
602.447	28.86
602.64	28.84
602.833	28.98
603.025	29.12
603.218	29.13
603.411	29.26
603.603	29.23
603.796	29
603.989	28.98
604.181	28.99
604.374	29.19
604.566	29.2
604.759	29.24
604.951	29.34
605.144	29.33
605.336	29.3
605.529	29.33
605.721	29.26
605.914	29.25
606.106	29.24
606.299	29.28
606.491	29.12
606.683	28.86
606.876	28.92
607.068	28.78
607.26	28.73
607.453	28.78
607.645	28.81
607.837	28.81
608.03	29.04
608.222	29.21
608.414	29.27
608.606	29.42
608.799	29.92
608.991	29.95
609.183	30.2
609.375	30.25
609.567	30.27
609.759	30.34
609.952	30.48
610.144	30.41
610.336	30.42
610.528	30.57
610.72	30.58
610.912	30.42
611.104	30.57
611.296	30.2
611.488	30.1
611.68	30.02
611.872	30.18
612.064	30.03
612.256	29.88
612.448	29.87
612.64	29.81
612.832	29.74
613.023	29.62
613.215	29.55
613.407	29.96
613.599	30.01
613.791	30.28
613.983	30.04
614.174	30.13
614.366	30.4
614.558	30.58
614.75	30.42
614.941	30.56
615.133	30.84
615.325	30.92
615.516	30.9
615.708	31.15
615.9	30.8
616.091	30.76
616.283	30.89
616.475	30.81
616.666	30.91
616.858	31.18
617.049	31.23
617.241	31.18
617.432	30.93
617.624	30.92
617.815	30.75
618.007	31.14
618.198	31.37
618.39	31.2
618.581	31.35
618.773	31.38
618.964	31.32
619.155	31.22
619.347	31.11
619.538	31.45
619.729	31.49
619.921	31.71
620.112	31.76
620.303	31.77
620.494	31.84
620.686	31.71
620.877	31.68
621.068	31.4
621.259	31.4
621.451	31.87
621.642	31.53
621.833	31.59
622.024	31.37
622.215	31.21
622.406	30.88
622.597	30.81
622.788	31.02
622.98	31.02
623.171	31.31
623.362	31.51
623.553	31.28
623.744	31.52
623.935	31.64
624.126	31.93
624.317	31.78
624.508	32.21
624.698	32.54
624.889	32.25
625.08	32.28
625.271	32.36
625.462	32.25
625.653	32.31
625.844	32.32
626.034	32.35
626.225	32.24
626.416	32.52
626.607	32.48
626.798	32.4
626.988	32.58
627.179	32.64
627.37	32.54
627.56	32.76
627.751	32.8
627.942	33.03
628.132	33.01
628.323	32.91
628.514	32.89
628.704	32.97
628.895	32.95
629.085	33.02
629.276	33.19
629.466	33.2
629.657	33.15
629.847	33.35
630.038	33.32
630.228	33.5
630.419	33.55
630.609	33.69
630.8	33.8
630.99	34.25
631.181	34.35
631.371	33.62
631.561	33.58
631.752	33.58
631.942	33.57
632.132	33.38
632.323	33.19
632.513	33.45
632.703	33.44
632.893	33.13
633.084	32.93
633.274	32.93
633.464	33.58
633.654	33.88
633.844	33.84
634.034	33.38
634.225	33.47
634.415	33.73
634.605	33.59
634.795	33.74
634.985	33.74
635.175	33.53
635.365	33.59
635.555	33.4
635.745	33.45
635.935	33.35
636.125	33.46
636.315	33.44
636.505	33.35
636.695	33.34
636.885	33.24
637.075	33.45
637.265	33.89
637.455	33.78
637.644	33.73
637.834	33.74
638.024	33.82
638.214	34.09
638.404	34.1
638.593	33.88
638.783	33.94
638.973	34.01
639.163	34.13
639.352	33.9
639.542	33.73
639.732	34.09
639.921	34
640.111	33.76
640.301	33.61
640.49	33.52
640.68	33.3
640.87	33.63
641.059	33.45
641.249	33.3
641.438	33.21
641.628	33.51
641.817	33.42
642.007	33.58
642.196	34.1
642.386	34.04
642.575	34.39
642.764	35.13
642.954	34.94
643.143	35.17
643.333	35.17
643.522	35.32
643.711	35.26
643.901	35.32
644.09	35.28
644.279	35.26
644.469	35.38
644.658	35.24
644.847	34.8
645.036	34.66
645.226	34.78
645.415	34.63
645.604	34.77
645.793	35.02
645.982	34.69
646.171	34.78
646.361	34.84
646.55	34.92
646.739	34.81
646.928	34.98
647.117	35.13
647.306	34.79
647.495	34.76
647.684	34.74
647.873	34.72
648.062	34.82
648.251	34.71
648.44	34.56
648.629	34.28
648.818	34.45
649.007	34.45
649.196	34.74
649.384	34.82
649.573	34.78
649.762	34.67
649.951	34.45
650.14	35
650.328	34.76
650.517	34.36
650.706	34.53
650.895	34.55
651.083	34.57
651.272	33.92
651.461	34.04
651.65	34.59
651.838	34.64
652.027	34.51
652.216	34.17
652.404	34.43
652.593	34.67
652.781	34.76
652.97	34.64
653.158	34.49
653.347	34.96
653.535	35.13
653.724	34.9
653.912	35.03
654.101	35.43
654.289	35.43
654.478	35.38
654.666	35.46
654.855	35.48
655.043	35.93
655.231	35.97
655.42	35.97
655.608	35.77
655.796	36.04
655.985	36.22
656.173	36.07
656.361	36.15
656.55	36.07
656.738	36.05
656.926	35.86
657.114	35.55
657.302	35.38
657.491	35.41
657.679	35.32
657.867	34.97
658.055	34.98
658.243	35.36
658.431	35.35
658.619	35.37
658.807	35.53
658.996	35.88
659.184	35.91
659.372	36.05
659.56	36.02
659.748	36.12
659.936	36.56
660.124	36.52
660.311	36.34
660.499	36.05
660.687	36.22
660.875	36.67
661.063	36.64
661.251	36.56
661.439	36.67
661.627	36.96
661.814	36.87
662.002	36.47
662.19	36.6
662.378	36.56
662.565	36.76
662.753	36.56
662.941	36.14
663.129	35.86
663.316	35.62
663.504	35.5
663.692	35.53
663.879	35.48
664.067	35.75
664.254	35.79
664.442	35.8
664.63	35.97
664.817	36
665.005	35.81
665.192	36.33
665.38	36.47
665.567	37.06
665.755	37.16
665.942	37.31
666.13	37.32
666.317	37.28
666.504	37.1
666.692	37.22
666.879	37.48
667.067	37.88
667.254	37.6
667.441	38.21
667.629	37.67
667.816	37.28
668.003	37.39
668.19	37.37
668.378	37.14
668.565	37.36
668.752	37.41
668.939	37.29
669.127	36.98
669.314	36.98
669.501	36.52
669.688	36.84
669.875	37.17
670.062	37.36
670.249	37.37
670.436	37.59
670.623	38.13
670.81	37.89
670.997	38.43
671.184	38.58
671.371	39.02
671.558	39.39
671.745	39.31
671.932	39.36
672.119	38.97
672.306	38.66
672.493	38.34
672.68	37.74
672.867	38.07
673.054	37.55
673.24	38.14
673.427	38.34
673.614	38.2
673.801	37.9
673.988	37.52
674.174	37.96
674.361	37.99
674.548	38.19
674.734	38.39
674.921	38.26
675.108	38.59
675.294	38.25
675.481	38.19
675.668	38.01
675.854	38.23
676.041	37.94
676.227	37.82
676.414	38.15
676.601	37.88
676.787	37.89
676.974	37.68
677.16	37.51
677.347	37.45
677.533	37.17
677.719	37.48
677.906	37.37
678.092	37.87
678.279	37.71
678.465	38.09
678.651	38.31
678.838	38.04
679.024	38.12
679.21	37.94
679.397	37.97
679.583	37.87
679.769	38.21
679.955	38.44
680.142	38.43
680.328	38.73
680.514	38.23
680.7	38.2
680.886	38.65
681.073	38.64
681.259	38.85
681.445	38.71
681.631	38.75
681.817	38.77
682.003	38.89
682.189	38.96
682.375	38.66
682.561	38.95
682.747	39.26
682.933	38.92
683.119	39.18
683.305	39.45
683.491	39.62
683.677	39.67
683.863	39.3
684.049	39.79
684.235	39.46
684.42	39.33
684.606	39.4
684.792	39.47
684.978	39.59
685.164	39.43
685.349	39.33
685.535	39.18
685.721	39.42
685.907	39.63
686.092	38.9
686.278	39.05
686.464	39.51
686.649	39.56
686.835	39.29
687.021	39.48
687.206	39.41
687.392	39.25
687.577	39.15
687.763	38.67
687.948	38.81
688.134	38.97
688.319	39.29
688.505	39.38
688.69	39.66
688.876	40.05
689.061	39.42
689.247	39.37
689.432	39.3
689.618	39.49
689.803	39.74
689.988	39.93
690.174	40.1
690.359	40.33
690.544	40.21
690.73	39.81
690.915	39.25
691.1	39.31
691.285	39.88
691.471	40.05
691.656	40.26
691.841	40.07
692.026	39.61
692.211	39.23
692.396	39.14
692.582	38.81
692.767	38.57
692.952	38.98
693.137	39.56
693.322	39.15
693.507	39.37
693.692	39.09
693.877	39.36
694.062	39.38
694.247	39.61
694.432	39.44
694.617	39.87
694.802	40.25
694.987	40.25
695.172	40.05
695.357	40.12
695.541	39.98
695.726	40.37
695.911	40.32
696.096	39.83
696.281	39.72
696.466	39.58
696.65	39.75
696.835	39.97
697.02	39.79
697.204	39.75
697.389	40.08
697.574	40.37
697.759	39.74
697.943	39.66
698.128	40.03
698.312	40.17
698.497	39.97
698.682	39.92
698.866	39.76
699.051	39.83
699.235	40.05
699.42	39.71
699.604	39.61
699.789	40.11
699.973	40.22
700.158	40.28
700.342	40.16
700.527	40.35
700.711	39.99
700.895	40.02
701.08	39.89
701.264	39.38
701.448	39.69
701.633	39.38
701.817	39.67
702.001	39.63
702.186	39.67
702.37	39.28
702.554	39.54
702.738	40.1
702.923	40.17
703.107	40.35
703.291	40.7
703.475	40.28
703.659	40.5
703.843	40.17
704.027	40.58
704.212	40.16
704.396	40.94
704.58	40.61
704.764	39.85
704.948	38.94
705.132	38.89
705.316	38.73
705.5	39.24
705.684	38.9
705.868	38.72
706.052	38.44
706.235	38.84
706.419	38.26
706.603	39.1
706.787	39.43
706.971	40.57
707.155	40.73
707.339	41.23
707.522	40.24
707.706	40.27
707.89	40.08
708.074	40.06
708.257	39.98
708.441	41.19
708.625	40.58
708.808	40.57
708.992	40.37
709.176	40.3
709.359	40.33
709.543	41.22
709.727	41.47
709.91	41.82
710.094	41.86
710.277	42.18
710.461	40.91
710.644	41.15
710.828	40.92
711.011	41.53
711.195	41.9
711.378	41.87
711.562	41.93
711.745	41.77
711.928	41.58
712.112	41.13
712.295	40.61
712.478	40.73
712.662	40.68
712.845	41.24
713.028	40.75
713.212	40.39
713.395	40.54
713.578	40.27
713.761	40.5
713.945	40.43
714.128	40.92
714.311	41.81
714.494	42.13
714.677	41.91
714.86	42.34
715.043	41.91
715.227	41.68
715.41	41.64
715.593	42.01
715.776	41.64
715.959	41.97
716.142	41.69
716.325	40.61
716.508	40.59
716.691	40.82
716.874	40.76
717.057	40.98
717.239	41.54
717.422	41.39
717.605	41.48
717.788	41.78
717.971	42.22
718.154	42.66
718.337	43.39
718.519	43.02
718.702	42.59
718.885	42.08
719.068	41.84
719.25	42.09
719.433	42.56
719.616	42.33
719.798	42.17
719.981	41.65
720.164	41.87
720.346	41.93
720.529	41.45
720.712	41.19
720.894	41.48
721.077	42.07
721.259	41.86
721.442	41.42
721.624	41.48
721.807	41.34
721.989	41.4
722.172	40.64
722.354	40.07
722.537	41
722.719	41.63
722.901	41.28
723.084	40.75
723.266	39.97
723.448	40.13
723.631	40.84
723.813	40.88
723.995	41.08
724.178	40.8
724.36	41.37
724.542	41.19
724.724	41.11
724.907	41.72
725.089	41.84
725.271	42.34
725.453	41.68
725.635	41
725.817	41.96
725.999	42.66
726.181	43.51
726.364	43.14
726.546	42.9
726.728	44.21
726.91	43.85
727.092	43.82
727.274	42.97
727.456	43.74
727.638	43.37
727.819	42.62
728.001	41.56
728.183	41.26
728.365	41.88
728.547	42.95
728.729	41.78
728.911	41.9
729.093	42.14
729.274	42.77
729.456	42.13
729.638	42.08
729.82	41.95
730.001	41.63
730.183	41.79
730.365	41.15
730.546	40.37
730.728	40.18
730.91	39.92
731.091	39.37
731.273	39.93
731.455	40.28
731.636	40.58
731.818	41.19
731.999	41.67
732.181	41.81
732.362	41.92
732.544	42.33
732.725	42.24
732.907	42.19
733.088	42.52
733.27	42.31
733.451	41.93
733.633	41.63
733.814	41.75
733.995	40.8
734.177	40.69
734.358	41.04
734.539	41.3
734.721	41.01
734.902	41.02
735.083	41.08
735.264	40.97
735.446	41.24
735.627	42.35
735.808	41.77
735.989	43.05
736.17	42.84
736.351	42.7
736.533	42.59
736.714	43.54
736.895	43.63
737.076	43.32
737.257	43.13
737.438	43.15
737.619	42.18
737.8	41.82
737.981	41.28
738.162	41.81
738.343	41.47
738.524	41.11
738.705	41.76
738.886	41.95
739.067	42.26
739.247	42.67
739.428	42.64
739.609	42.88
739.79	43.63
739.971	44.37
740.151	43.39
740.332	44.14
740.513	44.66
740.694	43.59
740.874	43.35
741.055	44.61
741.236	44.69
741.417	45.14
741.597	45.29
741.778	44.28
741.958	43.58
742.139	44.01
742.32	43.25
742.5	41.94
742.681	41.93
742.861	42.41
743.042	41.26
743.222	41.13
743.403	40.77
743.583	40.85
743.764	42.14
743.944	42.93
744.124	43.24
744.305	43.78
744.485	45.27
744.666	44.97
744.846	44.54
745.026	44.29
745.207	43.76
745.387	43.29
745.567	42.05
745.747	40.65
745.928	40.51
746.108	40.62
746.288	40.1
746.468	39.33
746.648	39.59
746.829	39.38
747.009	40.25
747.189	40.3
747.369	41.75
747.549	42.33
747.729	42.38
747.909	41.85
748.089	41.82
748.269	42.14
748.449	42.4
748.629	43.42
748.809	44.72
748.989	44.24
749.169	44.79
749.349	43.78
749.529	44.75
749.709	46.21
749.889	46.62
750.068	45.87
750.248	45.97
750.428	45.97
750.608	45.8
750.788	44.17
750.967	43.96
751.147	43.18
751.327	43.15
751.507	43.16
751.686	42.21
751.866	42.57
752.046	43.43
752.225	43.72
752.405	43.7
752.585	43.05
752.764	43.39
752.944	43.31
753.123	44.55
753.303	45.2
753.482	44.68
753.662	44.73
753.841	43.98
754.021	43.55
754.2	43.55
754.38	43.39
754.559	43.16
754.739	43.17
754.918	42.28
755.097	41.94
755.277	40.61
755.456	40.46
755.635	40.43
755.815	40.53
755.994	41.03
756.173	39.82
756.352	39.17
756.532	40.25
756.711	41.37
756.89	42.29
757.069	41.55
757.248	42.85
757.427	42.82
757.607	42.33
757.786	43.14
757.965	43.18
758.144	43.71
758.323	43.68
758.502	43.41
758.681	42.15
758.86	42.31
759.039	42.5
759.218	42.56
759.397	42.79
759.576	43.19
759.755	41.28
759.934	41.05
760.113	40.92
760.291	42.56
760.47	42
760.649	42.92
760.828	42.68
761.007	42.75
761.186	42.58
761.364	41.55
761.543	42.44
761.722	43.82
761.901	43.41
762.079	43.24
762.258	41.93
762.437	42.56
762.615	42.84
762.794	42.74
762.972	42.62
763.151	42.75
763.33	43.55
763.508	43.59
763.687	43.81
763.865	44.06
764.044	44.83
764.222	45.22
764.401	45.27
764.579	45.14
764.758	45.71
764.936	45.96
765.114	45.68
765.293	45.41
765.471	44.93
765.65	44.64
765.828	44.72
766.006	44.31
766.184	44.24
766.363	44.32
766.541	43.57
766.719	43.32
766.898	43.43
767.076	42.92
767.254	43.13
767.432	42.99
767.61	42.55
767.788	42.81
767.967	42.18
768.145	42.21
768.323	41.41
768.501	41.97
768.679	41.43
768.857	40.89
769.035	41.66
769.213	42.11
769.391	43.06
769.569	43.65
769.747	43.52
769.925	43.79
770.103	43.29
770.281	42.18
770.459	42.25
770.636	43.76
770.814	44.5
770.992	44.35
771.17	43.28
771.348	41.81
771.525	41.25
771.703	40.9
771.881	41.11
772.059	40.71
772.236	40.61
772.414	41.02
772.592	40
772.769	39.04
772.947	38.78
773.125	39.62
773.302	41.73
773.48	42.6
773.657	43.04
773.835	43.39
774.013	45.38
774.19	46.54
774.368	44.49
774.545	43.9
774.723	43.18
774.9	44.43
775.077	45.07
775.255	42.59
775.432	41.83
775.61	41.1
775.787	40.19
775.964	39.5
776.142	40.37
776.319	41.53
776.496	40.92
776.674	41.46
776.851	41.56
777.028	40.77
777.205	43.28
777.382	42.34
777.56	43.71
777.737	43.5
777.914	43.53
778.091	43.58
778.268	43.7
778.445	44.46
778.622	45.76
778.8	46.65
778.977	45.74
779.154	53.82
779.331	55.76
779.508	54.36
779.685	55.77
779.862	55.72
780.038	55.03
780.215	54.5
780.392	54.25
780.569	53.63
780.746	51.74
780.923	51.27
781.1	40.62
781.277	39.24
781.453	38.03
781.63	36.68
781.807	36.55
781.984	36.96
782.16	39.01
782.337	40.59
782.514	39.75
782.691	38.56
782.867	40.35
783.044	40.52
783.221	40.09
783.397	42.73
783.574	43.9
783.75	44.62
783.927	45.35
784.103	44.3
784.28	41.78
784.456	43.08
784.633	44.39
784.809	44.44
784.986	44.05
785.162	44.54
785.339	42.91
785.515	43.48
785.692	44.14
785.868	43.82
786.044	40.14
786.221	41.18
786.397	40.57
786.573	40.25
786.749	40.19
786.926	39.95
787.102	40.15
787.278	41.6
787.454	40.94
787.631	39.5
787.807	38.9
787.983	41.3
788.159	41.66
788.335	42.56
788.511	43.03
788.687	44.48
788.863	46.29
789.039	48.02
789.216	46.68
789.392	45.22
789.568	46.18
789.744	47.45
789.919	49.86
790.095	49.27
790.271	47.73
790.447	46.45
790.623	44.81
790.799	43.83
790.975	41.36
791.151	41.86
791.327	43.53
791.502	42.28
791.678	41.6
791.854	40.25
792.03	41.83
792.205	41.99
792.381	43.53
792.557	43.55
792.733	43.19
792.908	44.59
793.084	46.64
793.259	45.79
793.435	45.74
793.611	46.26
793.786	45.64
793.962	44.02
794.137	45
794.313	43.71
794.488	42.58
794.664	44.48
794.839	43.46
795.015	39.13
795.19	40.46
795.366	40.48
795.541	41.31
795.716	41.87
795.892	42.25
796.067	41.53
796.242	41.43
796.418	42.67
796.593	40.7
796.768	39.96
796.944	42.09
797.119	40.79
797.294	41.8
797.469	41.48
797.644	40.57
797.82	40.67
797.995	40.29
798.17	41.31
798.345	40.55
798.52	41.97
798.695	42.22
798.87	42.51
799.045	42.86
799.22	41.82
799.395	40.09
799.57	40.68
799.745	40.53
799.92	40.52
800.095	39.1
800.27	36.5
800.445	36.09
800.62	36.87
800.795	36.47
800.97	37.17
801.145	37.34
801.319	36.84
801.494	36.07
801.669	36.8
801.844	38.64
802.018	39.57
802.193	42
802.368	41.07
802.543	40.35
802.717	39.62
802.892	40.02
803.067	40.98
803.241	41.83
803.416	41.83
803.59	42.07
803.765	40.64
803.94	39.67
804.114	41.48
804.289	42.5
804.463	42.64
804.638	41.56
804.812	40.22
804.986	39.31
805.161	38.69
805.335	39.94
805.51	41.24
805.684	41.26
805.858	42.64
806.033	39
806.207	37.94
806.381	37.36
806.556	40.47
806.73	41.75
806.904	42.2
807.078	43.69
807.253	44.8
807.427	43.74
807.601	43.59
807.775	43.68
807.949	42.9
808.123	43.28
808.298	44.81
808.472	44.1
808.646	43.59
808.82	45.03
808.994	44.65
809.168	43.89
809.342	41.04
809.516	40.01
809.69	38.03
809.864	42.25
810.038	45.29
810.212	43.72
810.385	41.6
810.559	40.42
810.733	36.01
810.907	34.59
811.081	31.99
811.255	33.76
811.428	36.48
811.602	38.7
811.776	37.37
811.95	35.21
812.123	35.49
812.297	34.88
812.471	36.07
812.644	38.69
812.818	40.47
812.992	41.28
813.165	40.77
813.339	40.4
813.512	39.26
813.686	38.46
813.86	37.14
814.033	36.17
814.207	38.88
814.38	37.19
814.554	34.8
814.727	37.27
814.9	40.87
815.074	42.36
815.247	41.85
815.421	39.48
815.594	38.51
815.767	39.97
815.941	41.15
816.114	40.38
816.287	40.4
816.46	45.69
816.634	42.34
816.807	36.89
816.98	37.94
817.153	35.99
817.327	38.5
817.5	39.67
817.673	39.53
817.846	39.43
818.019	41.38
818.192	44.13
818.365	39.49
818.538	38.72
818.711	40.34
818.884	38.79
819.057	39.69
819.23	40.5
819.403	38.81
819.576	37.79
819.749	38.22
819.922	36.67
820.095	35.24
820.268	36.84
820.441	39.94
820.614	39.14
820.786	38.4
820.959	39.56
821.132	40.06
821.305	41.36
821.477	41.39
821.65	42.48
821.823	42.29
821.996	42.12
822.168	41.75
822.341	41.58
822.514	42.21
822.686	42.53
822.859	42.02
823.031	41.97
823.204	41.84
823.376	41.57
823.549	40.81
823.722	40.97
823.894	41.21
824.067	41.43
824.239	41.4
824.411	41.66
824.584	41.59
824.756	42.1
824.929	41.62
825.101	41.57
825.273	41.78
825.446	41.72
825.618	41.57
825.79	41.5
825.963	41.21
826.135	40.53
826.307	39.88
826.479	40.13
826.652	39.82
826.824	39.45
826.996	39.81
827.168	40.05
827.34	40.09
827.512	40.8
827.684	41.29
827.856	41.19
828.029	41.26
828.201	41.2
828.373	41.61
828.545	41.77
828.717	42.77
828.889	42.23
829.061	42.5
829.232	43.66
829.404	42.71
829.576	41.65
829.748	41.58
829.92	42.15
830.092	42.13
830.264	40.92
830.436	40.53
830.607	39.26
830.779	39
830.951	38.74
831.123	36.68
831.294	35.45
831.466	36.63
831.638	37.64
831.809	38.13
831.981	37.56
832.153	38.24
832.324	38.32
832.496	40.39
832.667	43.02
832.839	43.79
833.011	43.24
833.182	45.31
833.354	45.86
833.525	44.93
833.697	43.36
833.868	44.84
834.039	45.66
834.211	45.89
834.382	44.29
834.554	43.92
834.725	42.74
834.896	42.54
835.068	40.48
835.239	39.22
835.41	39.06
835.581	39.92
835.753	38.97
835.924	39.26
836.095	37.42
836.266	38.17
836.438	35.64
836.609	36.84
836.78	37.47
836.951	38.71
837.122	37.05
837.293	36.56
837.464	34.33
837.635	35
837.806	33.95
837.977	33.65
838.148	34.79
838.319	36.54
838.49	33.24
838.661	34.84
838.832	36.46
839.003	38.65
839.174	42.43
839.345	44.72
839.516	43.26
839.687	40.3
839.857	39.74
840.028	36.48
840.199	33.97
840.37	35.57
840.54	31.72
840.711	28.07
840.882	29.11
841.053	27.52
841.223	26.67
841.394	26.09
841.564	25.85
841.735	26.73
841.906	27.28
842.076	27.41
842.247	27.75
842.417	27.89
842.588	31
842.758	30.69
842.929	28.1
843.099	24.16
843.27	29.89
843.44	29.65
843.611	31.75
843.781	31.66
843.951	33.57
844.122	32.54
844.292	33.02
844.462	30.59
844.633	24.17
844.803	22.39
844.973	20.67
845.144	18.41
845.314	18.18
845.484	18.87
845.654	20.79
845.824	23.17
845.995	24.07
846.165	22.27
846.335	23.03
846.505	29.61
846.675	31.98
846.845	39.18
847.015	23.85
847.185	27.93
847.355	29.95
847.525	29.97
847.695	29.51
847.865	31.86
848.035	33.37
848.205	23.97
848.375	29.61
848.545	36.23
848.715	34.72
848.884	39.75
849.054	38.05
849.224	43.51
849.394	42.66
849.564	41.18
849.733	42.12
849.903	44.91
850.073	48.35
850.243	44.71
850.412	39.59
850.582	36.35
850.752	35.92
850.921	37.73
851.091	28.67
851.26	30.6
851.43	36.57
851.599	32.61
851.769	26.72
851.939	31.93
852.108	30.38
852.278	32.73
852.447	43
852.616	50.9
852.786	53.81
852.955	52.51
853.125	53.13
853.294	45.81
853.463	39.42
853.633	46.44
853.802	49.21
853.971	51.49
854.141	53.66
854.31	41.69
854.479	38.79
854.648	34.4
854.818	38.33
854.987	26.61
855.156	23.37
855.325	23.89
855.494	16.95
855.663	16.17
855.832	10.56
856.001	4.57
856.171	13.05
856.34	10.35
856.509	-10.21
856.678	-4.75
856.847	10.17
857.016	15.75
857.185	21.83
857.353	26.75
857.522	24.73
857.691	26.28
857.86	32.02
858.029	28.11
858.198	28.59
858.367	36.95
858.535	34.4
858.704	27.29
858.873	25.19
859.042	26.8
859.21	26.37
859.379	24.81
859.548	26.95
859.717	14.73
859.885	20.97
860.054	17.28
860.222	11.14
860.391	18.32
860.56	17.16
860.728	24.43
860.897	21.27
861.065	20.69
861.234	24.77
861.402	15.58
861.571	22.2
861.739	16.09
861.908	19.19
862.076	24.48
862.244	29
862.413	37.88
862.581	27.61
862.749	32.87
862.918	30.89
863.086	31.93
863.254	39.51
863.423	33.23
863.591	26.33
863.759	26.08
863.927	22.15
864.096	-0.15
864.264	-12.18
864.432	-2.44
864.6	7.33
864.768	2.64
864.936	-0.51
865.104	-5.08
865.272	-1.08
865.44	11.49
865.608	8.7
865.776	13.23
865.944	18.28
866.112	20.77
866.28	27.68
866.448	25.3
866.616	35.62
866.784	32.83
866.952	39.53
867.12	43.23
867.288	36.45
867.455	36.47
867.623	30.92
867.791	26.85
867.959	30.76
868.127	23.63
868.294	16.03
868.462	9.72
868.63	11.69
868.797	5.66
868.965	5.63
869.133	10.24
869.3	19.85
869.468	13.97
869.636	22.36
869.803	19.55
869.971	22.44
870.138	22.63
870.306	26.77
870.473	25.38
870.641	25.86
870.808	20.52
870.975	19.79
871.143	6.29
871.31	19.19
871.478	13.96
871.645	17.39
871.812	10.76
871.98	11.42
872.147	11.52
872.314	15.01
872.482	15.36
872.649	19.53
872.816	16.12
872.983	12.71
873.15	4.75
873.318	4.63
873.485	6.41
873.652	9.43
873.819	1.81
873.986	-0.75
874.153	-5.02
874.32	-6.58
874.487	-6.27
874.654	-2.1
874.821	4.13
874.988	4.22
875.155	3.75
875.322	-4.02
875.489	-14.02
875.656	-7.77
875.823	4.59
875.99	10.84
876.157	14.34
876.324	9.54
876.49	10.06
876.657	16.44
876.824	15.83
876.991	21.43
877.157	20.24
877.324	22.72
877.491	29.77
877.658	28.92
877.824	31.19
877.991	31.27
878.157	32.58
878.324	26.6
878.491	24.6
878.657	22.29
878.824	13.86
878.99	25.44
879.157	30.95
879.323	18.96
879.49	10.77
879.656	17.35
879.823	21.6
879.989	21.79
880.156	24.02
880.322	20.42
880.488	25.7
880.655	24.71
880.821	25.82
880.987	28.36
881.154	29.29
881.32	37.19
881.486	37.67
881.652	38.43
881.819	39.33
881.985	37.79
882.151	41.18
882.317	40.11
882.483	39.47
882.649	37.7
882.816	35.7
882.982	36.79
883.148	36.06
883.314	35.64
883.48	36.41
883.646	37.17
883.812	38.76
883.978	37.85
884.144	37.94
884.31	39.36
884.476	39.01
884.642	38.83
884.807	38.84
884.973	38.88
885.139	38.34
885.305	36.16
885.471	36.14
885.637	34.88
885.802	33.28
885.968	35.3
886.134	34.84
886.3	36.84
886.465	35.85
886.631	33.23
886.797	31.91
886.962	30.95
887.128	33.57
887.293	30.01
887.459	31.51
887.625	32.18
887.79	27.71
887.956	19.63
888.121	12.82
888.287	15.26
888.452	17.24
888.618	17.56
888.783	18.97
