Data from LC_217__Reflection_2.txt Node
Date: Thu Nov 19 13:14:26 EST 2015
User: robert
Spectrometer: USB4E03001
Autoset integration time: false
Trigger mode: 4
Integration Time (sec): 1.000000E-1
Scans to average: 15
Electric dark correction enabled: true
Nonlinearity correction enabled: false
Boxcar width: 5
Stray light correction enabled: false
XAxis mode: Wavelengths
Stop averaging: false
Number of Pixels in Spectrum: 3648
>>>>>Begin Spectral Data<<<<<
177.566	68.83
177.785	-43.02
178.005	-124.75
178.225	-92.69
178.445	122.84
178.665	107100
178.885	-147.53
179.105	-94.54
179.324	106.14
179.544	-232.42
179.764	-75.53
179.984	-235.88
180.204	-114.03
180.423	63.72
180.643	-36.2
180.863	-722.35
181.083	-39.35
181.302	-185.87
181.522	-127.5
181.742	-912.42
181.961	561.36
182.181	643.41
182.401	83.15
182.621	121.25
182.84	291.75
183.06	645.33
183.279	477.57
183.499	287.58
183.719	170.18
183.938	106.46
184.158	193.95
184.377	366.72
184.597	289.95
184.816	2068.11
185.036	9275
185.256	627.18
185.475	314.01
185.695	345.47
185.914	272.66
186.134	204.07
186.353	172.1
186.572	145.13
186.792	155.77
187.011	864.94
187.231	195.6
187.45	181.07
187.67	321.34
187.889	5896.97
188.108	179.02
188.328	-658.7
188.547	-94.3
188.766	-138.67
188.986	-190.16
189.205	-345.46
189.424	574.29
189.644	1164.38
189.863	601.92
190.082	724.7
190.302	2616.79
190.521	-217.14
190.74	-850.04
190.959	-7895.07
191.178	9016.1
191.398	-3212.98
191.617	660.66
191.836	2933.76
192.055	-708.35
192.274	-203.14
192.494	-328.25
192.713	-189.59
192.932	-116.24
193.151	-138.76
193.37	-261.72
193.589	-137.24
193.808	-123.03
194.027	-120.89
194.246	-153.96
194.465	-67.45
194.685	10705
194.904	202.56
195.123	119.97
195.342	82.38
195.561	47.56
195.78	19.29
195.999	68.27
196.218	122.36
196.436	250.88
196.655	193.29
196.874	205.08
197.093	186.74
197.312	551.97
197.531	606.71
197.75	1047.13
197.969	-384.21
198.188	-533.95
198.407	-4303.47
198.625	297.28
198.844	403.07
199.063	1021.84
199.282	914.63
199.501	-588.25
199.719	-676.9
199.938	-1401.08
200.157	1556.13
200.376	506.66
200.594	296.01
200.813	208.35
201.032	162.16
201.251	185.37
201.469	220.01
201.688	146.61
201.907	156.45
202.125	178.7
202.344	139
202.563	110.21
202.781	157.33
203	140.92
203.218	158.59
203.437	317.46
203.656	245.66
203.874	184.12
204.093	237.1
204.311	234.56
204.53	176.4
204.748	162.5
204.967	177.82
205.185	120.25
205.404	143.6
205.622	240.43
205.841	150.17
206.059	138.1
206.278	184.05
206.496	169.59
206.715	143.37
206.933	424.5
207.151	-901.59
207.37	-581.34
207.588	-2261.16
207.806	1682.73
208.025	616.14
208.243	-1111.44
208.461	-754.96
208.68	-1964.04
208.898	3086.24
209.116	1309.38
209.335	2488.61
209.553	805.39
209.771	1974.69
209.989	-1443.74
210.208	-817.52
210.426	-370.35
210.644	-329.95
210.862	-166.48
211.081	-92.19
211.299	-39.57
211.517	-28.92
211.735	-9.34
211.953	-54.38
212.171	269.29
212.39	254.05
212.608	340.98
212.826	215.32
213.044	98.56
213.262	103.16
213.48	122.32
213.698	108.9
213.916	191.77
214.134	266.85
214.352	472.5
214.57	-705.52
214.788	541.15
215.006	2805.84
215.224	-595.85
215.442	-345.77
215.66	-379.94
215.878	733.48
216.096	227.54
216.314	233.22
216.532	145.49
216.75	125.32
216.968	130.28
217.185	130.65
217.403	141.72
217.621	170.27
217.839	181.79
218.057	166.25
218.275	237.23
218.492	322.55
218.71	156.07
218.928	151.73
219.146	165.41
219.363	199.06
219.581	195.69
219.799	221.48
220.017	98.69
220.234	62.69
220.452	-12.21
220.67	-14.89
220.887	21.74
221.105	28.78
221.323	80.9
221.54	95.47
221.758	83.65
221.976	113.23
222.193	128.91
222.411	121.24
222.629	119.27
222.846	182.93
223.064	162.07
223.281	155.61
223.499	132.44
223.716	135
223.934	92.03
224.151	122.49
224.369	124.17
224.586	126.34
224.804	137.29
225.021	112.31
225.239	98.6
225.456	96.78
225.674	95.1
225.891	94.99
226.108	86.09
226.326	91.65
226.543	70.06
226.76	53.77
226.978	52.13
227.195	46.61
227.413	49.92
227.63	41.19
227.847	38.38
228.064	30.75
228.282	29.05
228.499	26.92
228.716	27.33
228.934	29.12
229.151	30.69
229.368	29.55
229.585	29.14
229.802	25.91
230.02	22.63
230.237	23.5
230.454	25.02
230.671	25.16
230.888	27.01
231.105	25.33
231.323	21.97
231.54	22.93
231.757	21.01
231.974	24.96
232.191	33.33
232.408	35.87
232.625	39.93
232.842	37.76
233.059	35.5
233.276	37
233.493	31.72
233.71	33.37
233.927	28.66
234.144	30.48
234.361	18.96
234.578	13.77
234.795	18.22
235.012	10.21
235.229	10.97
235.446	19.11
235.663	19.64
235.879	24.47
236.096	28.36
236.313	30.35
236.53	26.6
236.747	34.88
236.964	33.23
237.181	31.33
237.397	32.39
237.614	29.12
237.831	22.35
238.048	17.64
238.264	24.32
238.481	26.44
238.698	21.26
238.915	20.45
239.131	16.7
239.348	19.05
239.565	15.96
239.781	19.71
239.998	25.2
240.215	28.09
240.431	33.06
240.648	28.42
240.865	24.36
241.081	26.74
241.298	25.28
241.514	23.82
241.731	22.01
241.947	22.52
242.164	21.22
242.38	19.61
242.597	20.43
242.814	19.65
243.03	18.24
243.246	17.76
243.463	17.36
243.679	18.95
243.896	20.11
244.112	20.37
244.329	20.23
244.545	21.55
244.762	21.72
244.978	20.49
245.194	19.47
245.411	18.97
245.627	18.76
245.843	18.69
246.06	15.94
246.276	16.56
246.492	16.38
246.709	16.42
246.925	16.32
247.141	15.61
247.357	15.35
247.574	14.74
247.79	15.59
248.006	15.95
248.222	15.32
248.439	16.09
248.655	15.41
248.871	15.53
249.087	16.06
249.303	16.53
249.519	16.61
249.736	16.66
249.952	16.1
250.168	14.57
250.384	15.29
250.6	16.22
250.816	16.16
251.032	16.44
251.248	15.06
251.464	14.37
251.68	13.57
251.896	13.71
252.112	13.83
252.328	12.85
252.544	14.82
252.76	15.42
252.976	14.54
253.192	14.92
253.408	12.78
253.624	14.74
253.84	14.53
254.056	15.2
254.272	15.97
254.487	16.1
254.703	17.73
254.919	17.08
255.135	15.22
255.351	14.99
255.567	17.27
255.782	17.72
255.998	14.04
256.214	15.31
256.43	15.21
256.646	17.04
256.861	14.86
257.077	18.19
257.293	17.6
257.508	16.77
257.724	17.13
257.94	14.69
258.155	16.59
258.371	16.68
258.587	16.86
258.802	14.45
259.018	13.87
259.234	13.44
259.449	12.36
259.665	12.33
259.88	12.02
260.096	12.38
260.312	11.89
260.527	11.56
260.743	12.14
260.958	11.62
261.174	12.08
261.389	13.02
261.605	14.16
261.82	14.22
262.036	14.78
262.251	15.6
262.466	14.59
262.682	16.08
262.897	15.76
263.113	16.7
263.328	16.27
263.543	18.07
263.759	16.83
263.974	16.53
264.189	15.51
264.405	15.66
264.62	17.83
264.835	18.77
265.051	18.08
265.266	19.47
265.481	17.83
265.696	18.36
265.912	18.1
266.127	16.82
266.342	15.51
266.557	16.62
266.773	14.71
266.988	14.47
267.203	14.37
267.418	13.55
267.633	13.34
267.848	12.7
268.064	13.46
268.279	13.6
268.494	15.19
268.709	16.65
268.924	17.84
269.139	20.28
269.354	19.57
269.569	19.4
269.784	19.88
269.999	19.59
270.214	20.36
270.429	20.2
270.644	20.41
270.859	18.77
271.074	17.71
271.289	17.1
271.504	15.08
271.719	14.77
271.934	14.44
272.149	13.53
272.363	13.16
272.578	12.52
272.793	11.54
273.008	9.86
273.223	9.86
273.438	10.2
273.653	9.32
273.867	9.21
274.082	9.23
274.297	10.18
274.512	11.09
274.726	12.35
274.941	14.17
275.156	15.84
275.371	16.37
275.585	16.63
275.8	17.37
276.015	16.93
276.229	18.88
276.444	17.91
276.659	18.78
276.873	20
277.088	17.64
277.302	16.81
277.517	16.95
277.732	17.44
277.946	19.7
278.161	19.06
278.375	20.05
278.59	18.49
278.804	19.35
279.019	18.21
279.233	15.86
279.448	17.96
279.662	17.38
279.877	14.1
280.091	14.94
280.306	12.75
280.52	12.02
280.735	11.15
280.949	11.15
281.163	11.36
281.378	10.46
281.592	10.86
281.806	10.78
282.021	11.57
282.235	13.7
282.449	12.62
282.664	12.73
282.878	12.93
283.092	13.4
283.307	13.35
283.521	12.39
283.735	13.16
283.949	13.35
284.164	12.6
284.378	11.52
284.592	10.78
284.806	9.67
285.02	10.15
285.234	9.87
285.449	10.29
285.663	11.27
285.877	12.11
286.091	12.59
286.305	13.64
286.519	13.63
286.733	12.93
286.947	13.97
287.161	15.03
287.375	14.51
287.589	15.01
287.803	14.8
288.017	15.34
288.231	15.23
288.445	13.04
288.659	11.8
288.873	12.12
289.087	13.16
289.301	12.46
289.515	12.31
289.729	11.88
289.943	11.63
290.157	12.83
290.371	11.21
290.584	10.47
290.798	11.67
291.012	12.93
291.226	12.43
291.44	12.69
291.654	12.24
291.867	11.93
292.081	12.14
292.295	12.69
292.509	11.08
292.722	11.27
292.936	12.51
293.15	13.57
293.364	13.2
293.577	13.18
293.791	13.61
294.005	14.26
294.218	13.31
294.432	13.54
294.645	13.54
294.859	14.29
295.073	15.07
295.286	14.53
295.5	13.99
295.713	12.75
295.927	13.55
296.14	12.27
296.354	11.99
296.568	12.94
296.781	13.21
296.994	12.26
297.208	11.69
297.421	11.58
297.635	11.27
297.848	11.12
298.062	11.69
298.275	10.47
298.489	11.32
298.702	11.27
298.915	11.88
299.129	12.23
299.342	13.89
299.555	14.48
299.769	14.03
299.982	14.76
300.195	15.9
300.409	15.55
300.622	16.36
300.835	16.22
301.048	15.92
301.262	15.37
301.475	15.38
301.688	14.21
301.901	13.86
302.115	14.41
302.328	13.83
302.541	12.73
302.754	13.06
302.967	12.6
303.18	13.55
303.393	13.6
303.607	13.49
303.82	12.01
304.033	13.28
304.246	15.66
304.459	15.88
304.672	15.74
304.885	15.42
305.098	15.19
305.311	15.73
305.524	14.73
305.737	15.27
305.95	15.59
306.163	16.1
306.376	13.63
306.589	10.9
306.802	10.4
307.015	11.09
307.228	11.64
307.44	11.08
307.653	11.55
307.866	12.54
308.079	12.41
308.292	12.04
308.505	12.87
308.718	14.35
308.93	14.77
309.143	14.5
309.356	14.56
309.569	15.25
309.781	16.12
309.994	16.51
310.207	15.23
310.42	14.86
310.632	14.94
310.845	14.16
311.058	13.57
311.27	13.53
311.483	14.37
311.696	14.47
311.908	14.12
312.121	14.2
312.333	13.83
312.546	15.74
312.759	15.89
312.971	15.33
313.184	17.03
313.396	17.79
313.609	16.88
313.821	15.44
314.034	16.22
314.246	16.65
314.459	15.22
314.671	14.91
314.884	13.97
315.096	14.56
315.309	15.77
315.521	14.37
315.733	13.74
315.946	14.16
316.158	15.66
316.371	14.36
316.583	13.2
316.795	14.21
317.008	14.04
317.22	12.8
317.432	12.11
317.644	13.31
317.857	12.61
318.069	13.45
318.281	14.53
318.494	13.13
318.706	13.42
318.918	14
319.13	13.86
319.342	14.58
319.555	14.19
319.767	14.98
319.979	13.06
320.191	14
320.403	13.51
320.615	12.24
320.827	14.07
321.039	13.91
321.252	14.23
321.464	15.07
321.676	15.84
321.888	16.74
322.1	15.64
322.312	15.44
322.524	15.46
322.736	14.29
322.948	15.8
323.16	13.87
323.372	13.56
323.584	12.85
323.796	11.51
324.007	11.07
324.219	11.4
324.431	11.62
324.643	11.32
324.855	10.27
325.067	10.33
325.279	8.93
325.491	9.5
325.702	9.68
325.914	9.94
326.126	10.94
326.338	10.2
326.55	10.74
326.761	11.05
326.973	10.99
327.185	10.23
327.396	11.43
327.608	12.18
327.82	11.47
328.032	11.43
328.243	10.88
328.455	11.31
328.666	12
328.878	10.79
329.09	10.32
329.301	11.11
329.513	12.92
329.725	12.64
329.936	13.62
330.148	13.65
330.359	15.13
330.571	15.42
330.782	15.02
330.994	16.09
331.205	15.75
331.417	15.81
331.628	15.01
331.84	14.41
332.051	13.55
332.262	12.15
332.474	12.13
332.685	11.07
332.897	11.11
333.108	10.58
333.319	9.45
333.531	10.48
333.742	10.45
333.953	10.61
334.165	11.53
334.376	11.92
334.587	11.64
334.799	12.24
335.01	11.85
335.221	11.85
335.432	11.16
335.644	12.01
335.855	11.64
336.066	12.25
336.277	12.68
336.488	11.32
336.7	10.77
336.911	10.91
337.122	10.16
337.333	10.41
337.544	10.72
337.755	11.82
337.966	11.07
338.177	11.34
338.388	10.92
338.599	11.05
338.811	12.42
339.022	13.69
339.233	14.01
339.444	14.3
339.655	13.91
339.866	14.29
340.076	13
340.287	12.75
340.498	12.56
340.709	12.47
340.92	11.18
341.131	10.15
341.342	8.77
341.553	8.78
341.764	9.26
341.975	9.8
342.185	9.22
342.396	10.11
342.607	10.53
342.818	10.7
343.029	10.17
343.239	11.27
343.45	10.65
343.661	11.37
343.872	11.83
344.082	11.64
344.293	10.82
344.504	10.55
344.714	10.57
344.925	10.91
345.136	10.11
345.346	10.33
345.557	10.42
345.768	11.19
345.978	10.68
346.189	10.17
346.399	10.36
346.61	10.3
346.821	10.61
347.031	11.23
347.242	9.58
347.452	10.59
347.663	10.96
347.873	10.93
348.084	10.84
348.294	11.15
348.504	10.52
348.715	9.94
348.925	10
349.136	9.33
349.346	8.49
349.557	9
349.767	7.65
349.977	7.79
350.188	7.22
350.398	7.39
350.608	7.73
350.819	8.78
351.029	9.09
351.239	9.43
351.449	9.85
351.66	9.98
351.87	9.75
352.08	9.25
352.29	9.14
352.501	8.25
352.711	8.22
352.921	7.89
353.131	7.9
353.341	8.29
353.552	8.47
353.762	7.93
353.972	7.87
354.182	8.46
354.392	9.69
354.602	9.5
354.812	10.33
355.022	10.21
355.232	10.27
355.442	9.97
355.652	9.61
355.862	9.41
356.072	10.36
356.282	9.64
356.492	9.45
356.702	9.07
356.912	9.17
357.122	9.54
357.332	9.47
357.542	9.47
357.752	9.82
357.962	9.74
358.171	9.82
358.381	9.09
358.591	9.21
358.801	9.17
359.011	9.22
359.221	9.27
359.43	9.18
359.64	9.31
359.85	9.08
360.06	8.69
360.269	8.64
360.479	8.3
360.689	8.72
360.899	8.77
361.108	9.01
361.318	8.89
361.528	8.69
361.737	8.52
361.947	8.62
362.156	8.68
362.366	8.68
362.576	8.74
362.785	9.15
362.995	9.44
363.204	9.97
363.414	10.27
363.623	10.31
363.833	10.44
364.042	10.58
364.252	10.06
364.461	10.38
364.671	10.09
364.88	10.21
365.09	10.21
365.299	10.09
365.509	9.75
365.718	9.38
365.927	9.45
366.137	9.72
366.346	8.75
366.555	8.88
366.765	8.3
366.974	8.52
367.183	8.39
367.393	8.21
367.602	7.86
367.811	8.17
368.021	8.04
368.23	8.3
368.439	7.59
368.648	8.58
368.857	8.36
369.067	8.76
369.276	8.53
369.485	8.56
369.694	8.18
369.903	8.19
370.112	7.6
370.321	7.42
370.531	7.26
370.74	7.07
370.949	7.19
371.158	7.6
371.367	7.2
371.576	7.75
371.785	7.74
371.994	8.12
372.203	7.36
372.412	7.58
372.621	7.7
372.83	7.89
373.039	8.58
373.248	8.69
373.457	8.52
373.666	8.46
373.874	8.07
374.083	7.94
374.292	7.56
374.501	7.77
374.71	7.58
374.919	7.58
375.128	6.93
375.336	6.48
375.545	5.93
375.754	6.16
375.963	6.68
376.171	7.09
376.38	7.64
376.589	8.07
376.798	8.06
377.006	8.32
377.215	8.37
377.424	8.54
377.632	8.83
377.841	8.78
378.05	9.02
378.258	9.14
378.467	8.77
378.675	8.03
378.884	7.55
379.093	7.94
379.301	7.76
379.51	7.56
379.718	7.62
379.927	7.55
380.135	7.52
380.344	7.04
380.552	7.02
380.761	7.43
380.969	7.75
381.177	7.75
381.386	7.59
381.594	7.38
381.803	7.38
382.011	7.6
382.219	7.59
382.428	7.56
382.636	7.85
382.845	7.34
383.053	6.8
383.261	6.6
383.469	6.37
383.678	6.38
383.886	6.59
384.094	6.53
384.302	6.24
384.511	6.12
384.719	6.3
384.927	6.34
385.135	6.32
385.343	6.31
385.552	6.33
385.76	6.67
385.968	6.96
386.176	6.64
386.384	6.31
386.592	6.67
386.8	6.75
387.008	6.47
387.216	6.25
387.424	6.27
387.633	6.28
387.841	6.28
388.049	6.44
388.257	6.03
388.465	6.41
388.672	6.91
388.88	6.76
389.088	6.78
389.296	6.96
389.504	6.67
389.712	7.05
389.92	6.97
390.128	7.01
390.336	6.5
390.544	6.45
390.751	6.5
390.959	6.06
391.167	5.94
391.375	5.7
391.583	5.74
391.79	5.88
391.998	5.6
392.206	6.03
392.414	5.96
392.621	6.04
392.829	6.2
393.037	5.98
393.244	6.41
393.452	6.16
393.66	6.41
393.867	6.34
394.075	6.41
394.283	6.33
394.49	5.83
394.698	6.07
394.905	6.18
395.113	6.21
395.32	6.37
395.528	5.95
395.735	6.22
395.943	5.94
396.15	5.91
396.358	6.11
396.565	6.36
396.773	6.32
396.98	5.96
397.188	5.88
397.395	5.98
397.602	5.91
397.81	6.02
398.017	5.98
398.225	5.81
398.432	5.94
398.639	5.87
398.847	5.7
399.054	5.83
399.261	6.16
399.468	6.03
399.676	5.6
399.883	5.52
400.09	5.6
400.297	5.96
400.505	6.3
400.712	6.35
400.919	6.17
401.126	6.28
401.333	6.39
401.54	6.25
401.748	6.34
401.955	6.77
402.162	6.87
402.369	7.07
402.576	6.64
402.783	6.44
402.99	6.56
403.197	6.59
403.404	6.36
403.611	6.44
403.818	6.48
404.025	6.46
404.232	6.27
404.439	6.39
404.646	6.06
404.853	6.06
405.06	6.25
405.267	5.99
405.474	5.79
405.681	6
405.887	5.9
406.094	5.88
406.301	6.13
406.508	5.96
406.715	5.8
406.922	5.99
407.128	6.04
407.335	5.97
407.542	6.06
407.749	5.98
407.955	5.91
408.162	5.8
408.369	5.78
408.575	5.8
408.782	5.76
408.989	5.6
409.195	5.39
409.402	5.39
409.609	5.28
409.815	5.32
410.022	5.37
410.228	5.41
410.435	5.58
410.642	5.31
410.848	5.03
411.055	5.43
411.261	5.73
411.468	5.81
411.674	5.56
411.881	5.58
412.087	5.34
412.294	5.61
412.5	5.39
412.706	5.56
412.913	6.04
413.119	6.17
413.326	6.19
413.532	6.29
413.738	6.45
413.945	6.68
414.151	6.79
414.357	7
414.564	7.18
414.77	7.03
414.976	6.71
415.182	6.54
415.389	6.63
415.595	6.3
415.801	6.01
416.007	6.02
416.214	6.09
416.42	5.89
416.626	5.71
416.832	5.55
417.038	5.66
417.244	5.67
417.45	5.58
417.657	5.4
417.863	5.5
418.069	5.5
418.275	5.44
418.481	5.42
418.687	5.61
418.893	5.73
419.099	5.67
419.305	5.74
419.511	5.68
419.717	5.56
419.923	5.62
420.129	5.54
420.335	5.38
420.541	5.31
420.746	5.27
420.952	5.06
421.158	5.03
421.364	4.99
421.57	4.9
421.776	4.9
421.982	4.93
422.187	4.83
422.393	4.85
422.599	4.98
422.805	5.01
423.01	5.01
423.216	5.24
423.422	5.23
423.628	5.22
423.833	5.26
424.039	5.39
424.245	5.52
424.45	5.56
424.656	5.58
424.862	5.51
425.067	5.51
425.273	5.49
425.478	5.42
425.684	5.49
425.889	5.49
426.095	5.6
426.301	5.63
426.506	5.59
426.712	5.69
426.917	5.72
427.123	5.73
427.328	5.77
427.533	5.98
427.739	6.04
427.944	6.01
428.15	6.21
428.355	6.05
428.561	6.03
428.766	5.82
428.971	5.77
429.177	5.68
429.382	5.89
429.587	5.87
429.793	5.59
429.998	5.5
430.203	5.57
430.408	5.53
430.614	5.55
430.819	5.45
431.024	5.57
431.229	5.74
431.434	5.77
431.64	5.74
431.845	5.88
432.05	5.93
432.255	6.09
432.46	6.01
432.665	5.78
432.87	5.84
433.076	5.86
433.281	5.86
433.486	5.64
433.691	5.75
433.896	5.72
434.101	5.56
434.306	5.45
434.511	5.19
434.716	5.12
434.921	5.26
435.126	5.13
435.331	4.97
435.535	4.9
435.74	5.15
435.945	4.97
436.15	5.05
436.355	5.08
436.56	5.23
436.765	5.41
436.97	5.41
437.174	5.39
437.379	5.55
437.584	5.5
437.789	5.54
437.993	5.36
438.198	5.47
438.403	5.3
438.608	5.32
438.812	5.33
439.017	5.16
439.222	5.22
439.426	5.23
439.631	5.24
439.836	5.39
440.04	5.56
440.245	5.59
440.45	5.39
440.654	5.43
440.859	5.41
441.063	5.34
441.268	5.6
441.472	5.57
441.677	5.59
441.881	5.63
442.086	5.69
442.29	5.67
442.495	5.69
442.699	6.03
442.904	5.99
443.108	6.01
443.312	5.96
443.517	5.77
443.721	5.79
443.925	5.73
444.13	5.81
444.334	5.77
444.538	5.65
444.743	5.73
444.947	5.6
445.151	5.78
445.356	5.86
445.56	6.07
445.764	6.04
445.968	5.97
446.173	6.02
446.377	5.8
446.581	5.78
446.785	5.76
446.989	5.72
447.193	5.68
447.398	5.64
447.602	5.53
447.806	5.47
448.01	5.52
448.214	5.62
448.418	5.67
448.622	5.8
448.826	5.86
449.03	5.9
449.234	5.77
449.438	5.8
449.642	5.8
449.846	5.89
450.05	5.71
450.254	5.67
450.458	5.61
450.662	5.61
450.866	5.56
451.069	5.4
451.273	5.54
451.477	5.79
451.681	5.91
451.885	5.88
452.089	5.91
452.292	6.04
452.496	6.06
452.7	6.08
452.904	6.07
453.107	6.14
453.311	6.29
453.515	6.28
453.719	6.16
453.922	6.06
454.126	5.99
454.33	6.06
454.533	6.15
454.737	6
454.94	6.08
455.144	6.06
455.348	5.99
455.551	5.92
455.755	5.69
455.958	5.68
456.162	5.67
456.365	5.72
456.569	5.7
456.772	5.56
456.976	5.7
457.179	5.61
457.383	5.55
457.586	5.39
457.79	5.35
457.993	5.55
458.196	5.56
458.4	5.59
458.603	5.58
458.807	5.52
459.01	5.6
459.213	5.47
459.417	5.46
459.62	5.41
459.823	5.42
460.026	5.43
460.23	5.33
460.433	5.35
460.636	5.29
460.839	5.3
461.042	5.22
461.246	5.12
461.449	5.17
461.652	5.17
461.855	5.21
462.058	5.19
462.261	5.21
462.464	5.35
462.668	5.25
462.871	5.32
463.074	5.26
463.277	5.39
463.48	5.4
463.683	5.4
463.886	5.35
464.089	5.45
464.292	5.67
464.495	5.56
464.698	5.52
464.901	5.61
465.104	5.65
465.306	5.64
465.509	5.55
465.712	5.39
465.915	5.29
466.118	5.34
466.321	5.19
466.524	5.09
466.726	5.15
466.929	5.06
467.132	4.9
467.335	4.81
467.538	4.82
467.74	4.96
467.943	5.17
468.146	5.24
468.348	5.35
468.551	5.43
468.754	5.41
468.956	5.52
469.159	5.66
469.362	5.86
469.564	5.9
469.767	5.89
469.969	5.86
470.172	5.99
470.375	5.98
470.577	5.81
470.78	5.76
470.982	5.84
471.185	5.67
471.387	5.52
471.59	5.41
471.792	5.25
471.995	5.4
472.197	5.3
472.399	5.22
472.602	5.38
472.804	5.32
473.007	5.4
473.209	5.35
473.411	5.39
473.614	5.34
473.816	5.14
474.018	5.19
474.22	5.03
474.423	5.11
474.625	5.19
474.827	5.07
475.03	5.17
475.232	5.39
475.434	5.51
475.636	5.55
475.838	5.6
476.04	5.76
476.243	5.86
476.445	5.73
476.647	5.58
476.849	5.42
477.051	5.4
477.253	5.41
477.455	5.11
477.657	4.96
477.859	4.91
478.061	4.94
478.263	4.86
478.465	4.82
478.667	4.84
478.869	5.03
479.071	5.06
479.273	5.01
479.475	5.01
479.677	5.03
479.879	5.13
480.081	5.22
480.283	5.25
480.485	5.32
480.686	5.3
480.888	5.4
481.09	5.4
481.292	5.26
481.494	5.36
481.695	5.43
481.897	5.44
482.099	5.38
482.301	5.32
482.502	5.26
482.704	5.33
482.906	5.39
483.107	5.34
483.309	5.27
483.511	5.28
483.712	5.24
483.914	5.13
484.115	5.13
484.317	5.11
484.519	5.09
484.72	5.11
484.922	5.11
485.123	5.07
485.325	5.12
485.526	5.1
485.728	5.13
485.929	5.16
486.131	5.28
486.332	5.25
486.534	5.29
486.735	5.35
486.936	5.35
487.138	5.33
487.339	5.3
487.541	5.27
487.742	5.3
487.943	5.32
488.144	5.31
488.346	5.26
488.547	5.29
488.748	5.29
488.95	5.28
489.151	5.25
489.352	5.21
489.553	5.23
489.755	5.24
489.956	5.32
490.157	5.36
490.358	5.35
490.559	5.36
490.76	5.4
490.961	5.42
491.163	5.43
491.364	5.48
491.565	5.48
491.766	5.48
491.967	5.51
492.168	5.48
492.369	5.43
492.57	5.47
492.771	5.46
492.972	5.44
493.173	5.43
493.374	5.46
493.575	5.39
493.776	5.43
493.976	5.44
494.177	5.41
494.378	5.46
494.579	5.44
494.78	5.28
494.981	5.24
495.182	5.29
495.382	5.51
495.583	5.47
495.784	5.63
495.985	5.59
496.185	5.66
496.386	5.57
496.587	5.53
496.788	5.58
496.988	5.75
497.189	5.81
497.39	5.85
497.59	5.61
497.791	5.71
497.992	5.63
498.192	5.69
498.393	5.62
498.593	5.64
498.794	5.67
498.994	5.72
499.195	5.73
499.395	5.78
499.596	5.78
499.796	5.82
499.997	5.85
500.197	5.86
500.398	5.9
500.598	6.02
500.799	5.98
500.999	5.89
501.199	5.98
501.4	6.07
501.6	6.12
501.801	6.1
502.001	6.17
502.201	6.1
502.402	6.19
502.602	6.09
502.802	5.9
503.002	6.03
503.203	6.08
503.403	5.9
503.603	5.91
503.803	5.85
504.003	5.88
504.204	5.85
504.404	5.85
504.604	5.82
504.804	5.79
505.004	6
505.204	6.02
505.404	6.18
505.604	6.34
505.804	6.19
506.005	6.24
506.205	6.31
506.405	6.36
506.605	6.39
506.805	6.39
507.005	6.61
507.204	6.63
507.404	6.56
507.604	6.44
507.804	6.42
508.004	6.49
508.204	6.49
508.404	6.43
508.604	6.37
508.804	6.34
509.003	6.29
509.203	6.24
509.403	6.19
509.603	6.14
509.803	6.24
510.002	6.12
510.202	6.1
510.402	6.15
510.602	6.21
510.801	6.19
511.001	6.12
511.201	6.13
511.4	6.14
511.6	6.09
511.8	6.12
511.999	6.14
512.199	6.26
512.398	6.24
512.598	6.25
512.797	6.11
512.997	6.23
513.197	6.28
513.396	6.34
513.596	6.29
513.795	6.34
513.994	6.35
514.194	6.31
514.393	6.45
514.593	6.52
514.792	6.56
514.992	6.78
515.191	6.76
515.39	6.81
515.59	7.01
515.789	7.13
515.988	7.26
516.188	7.28
516.387	7.3
516.586	7.28
516.786	7.27
516.985	7.18
517.184	7.03
517.383	7.06
517.582	6.97
517.782	6.83
517.981	6.8
518.18	6.66
518.379	6.64
518.578	6.56
518.777	6.43
518.976	6.47
519.176	6.48
519.375	6.47
519.574	6.36
519.773	6.42
519.972	6.5
520.171	6.52
520.37	6.63
520.569	6.81
520.768	6.83
520.967	6.95
521.166	6.85
521.365	6.92
521.564	7.01
521.762	7.19
521.961	7.21
522.16	7.04
522.359	6.99
522.558	6.95
522.757	6.76
522.956	6.8
523.154	6.81
523.353	6.97
523.552	6.95
523.751	7.03
523.949	6.9
524.148	6.98
524.347	7.08
524.546	7.06
524.744	7.13
524.943	7.26
525.142	7.28
525.34	7.28
525.539	7.24
525.737	7.21
525.936	7.15
526.135	7.3
526.333	7.3
526.532	7.25
526.73	7.31
526.929	7.33
527.127	7.32
527.326	7.38
527.524	7.41
527.723	7.45
527.921	7.52
528.12	7.5
528.318	7.51
528.516	7.45
528.715	7.49
528.913	7.53
529.112	7.53
529.31	7.54
529.508	7.47
529.707	7.52
529.905	7.47
530.103	7.46
530.301	7.52
530.5	7.5
530.698	7.56
530.896	7.63
531.094	7.56
531.293	7.62
531.491	7.63
531.689	7.74
531.887	7.7
532.085	7.78
532.283	7.89
532.481	7.88
532.68	7.95
532.878	7.98
533.076	7.97
533.274	8.02
533.472	8.08
533.67	8.08
533.868	8.15
534.066	8.15
534.264	8.19
534.462	8.19
534.66	8.27
534.858	8.25
535.056	8.33
535.253	8.34
535.451	8.47
535.649	8.45
535.847	8.53
536.045	8.55
536.243	8.7
536.441	8.7
536.638	8.74
536.836	8.76
537.034	8.9
537.232	8.89
537.43	8.94
537.627	8.89
537.825	8.93
538.023	9.02
538.22	9.06
538.418	8.98
538.616	9.1
538.813	9.12
539.011	9.16
539.209	9.15
539.406	9.24
539.604	9.4
539.801	9.43
539.999	9.44
540.196	9.51
540.394	9.63
540.591	9.77
540.789	9.88
540.986	9.96
541.184	10.03
541.381	10.1
541.579	10.08
541.776	10.11
541.974	10.2
542.171	10.26
542.368	10.33
542.566	10.37
542.763	10.35
542.96	10.34
543.158	10.3
543.355	10.25
543.552	10.19
543.75	10.32
543.947	10.36
544.144	10.44
544.341	10.43
544.539	10.44
544.736	10.41
544.933	10.51
545.13	10.71
545.327	10.77
545.524	10.98
545.722	11.15
545.919	11.16
546.116	11.27
546.313	11.24
546.51	11.46
546.707	11.52
546.904	11.64
547.101	11.81
547.298	11.7
547.495	11.84
547.692	11.79
547.889	11.87
548.086	11.96
548.283	12.05
548.48	12.12
548.677	12.2
548.874	12.23
549.07	12.42
549.267	12.42
549.464	12.65
549.661	12.64
549.858	12.9
550.055	13.1
550.251	13.27
550.448	13.37
550.645	13.55
550.842	13.6
551.038	13.91
551.235	13.96
551.432	13.88
551.628	14.02
551.825	14.43
552.022	14.4
552.218	14.44
552.415	14.65
552.612	14.65
552.808	14.65
553.005	14.67
553.201	14.61
553.398	14.57
553.594	14.94
553.791	15.02
553.987	14.89
554.184	15.02
554.38	15.03
554.577	15.08
554.773	15.13
554.97	15.58
555.166	15.89
555.362	16.08
555.559	16.28
555.755	16.31
555.952	16.2
556.148	16.57
556.344	16.66
556.541	17.04
556.737	17.04
556.933	17.4
557.129	17.22
557.326	17.29
557.522	17.41
557.718	17.53
557.914	17.71
558.11	18.01
558.307	18.06
558.503	18.11
558.699	17.97
558.895	18.08
559.091	18.17
559.287	18.49
559.483	18.57
559.679	18.79
559.876	18.99
560.072	18.71
560.268	18.89
560.464	18.93
560.66	19.3
560.856	19.38
561.052	19.42
561.247	19.52
561.443	19.43
561.639	19.45
561.835	19.29
562.031	19.44
562.227	19.68
562.423	19.71
562.619	19.86
562.815	19.77
563.01	20.09
563.206	20.23
563.402	20.21
563.598	20.61
563.793	20.68
563.989	20.98
564.185	21.01
564.381	21.14
564.576	21.28
564.772	21.55
564.968	21.7
565.163	21.82
565.359	21.93
565.555	22.28
565.75	22.31
565.946	22.52
566.141	22.63
566.337	22.7
566.532	22.84
566.728	22.95
566.923	22.9
567.119	22.9
567.314	23.02
567.51	23.22
567.705	23.13
567.901	23.25
568.096	23.35
568.292	23.46
568.487	23.7
568.682	23.96
568.878	24.17
569.073	24.36
569.268	24.73
569.464	24.77
569.659	24.91
569.854	25.12
570.05	25.11
570.245	25.18
570.44	25.33
570.635	25.23
570.831	25.33
571.026	25.3
571.221	25.33
571.416	25.33
571.611	25.37
571.806	25.46
572.002	25.63
572.197	25.82
572.392	25.84
572.587	25.84
572.782	26.08
572.977	26.2
573.172	26.4
573.367	26.51
573.562	26.76
573.757	26.94
573.952	27.01
574.147	27.16
574.342	27.25
574.537	27.5
574.732	27.56
574.927	27.63
575.121	27.76
575.316	27.84
575.511	28.03
575.706	28.15
575.901	28.23
576.096	28.4
576.29	28.37
576.485	28.41
576.68	28.43
576.875	28.68
577.069	28.79
577.264	28.87
577.459	29.03
577.654	29.06
577.848	28.95
578.043	28.94
578.238	29.28
578.432	29.53
578.627	29.64
578.821	29.84
579.016	29.92
579.21	30.14
579.405	30.03
579.6	29.86
579.794	29.93
579.989	30.08
580.183	30.07
580.378	29.79
580.572	29.66
580.766	29.86
580.961	29.78
581.155	29.7
581.35	29.69
581.544	29.85
581.738	29.92
581.933	30.04
582.127	29.93
582.321	30.22
582.516	30.34
582.71	30.3
582.904	30.25
583.099	30.52
583.293	30.96
583.487	30.99
583.681	30.83
583.875	30.86
584.07	30.7
584.264	30.89
584.458	30.88
584.652	30.87
584.846	30.96
585.04	31.07
585.234	31.05
585.428	30.93
585.623	30.9
585.817	31.27
586.011	31.36
586.205	31.48
586.399	31.56
586.593	31.73
586.787	31.98
586.981	32.26
587.174	32.3
587.368	32.41
587.562	32.45
587.756	32.56
587.95	32.64
588.144	32.87
588.338	33.11
588.532	33.22
588.725	33.57
588.919	33.54
589.113	33.32
589.307	33.31
589.501	33.43
589.694	33.5
589.888	33.51
590.082	33.5
590.275	33.63
590.469	33.68
590.663	33.81
590.856	33.56
591.05	33.54
591.244	33.97
591.437	34.09
591.631	34.09
591.824	34.02
592.018	34.36
592.212	34.52
592.405	34.44
592.599	34.48
592.792	34.42
592.986	34.41
593.179	34.32
593.372	34.17
593.566	34.15
593.759	34.12
593.953	34.15
594.146	33.9
594.339	33.91
594.533	34.02
594.726	33.91
594.92	34.1
595.113	34.41
595.306	34.73
595.499	34.68
595.693	34.55
595.886	34.69
596.079	34.77
596.272	34.88
596.466	34.85
596.659	34.77
596.852	34.82
597.045	34.85
597.238	34.85
597.431	34.85
597.624	34.84
597.818	35.05
598.011	34.96
598.204	35.02
598.397	34.99
598.59	35.03
598.783	35.29
598.976	35.3
599.169	35.45
599.362	35.24
599.555	35.21
599.748	35.35
599.941	35.5
600.134	35.62
600.326	35.81
600.519	35.96
600.712	36.03
600.905	35.8
601.098	35.94
601.291	35.58
601.483	35.66
601.676	35.64
601.869	35.75
602.062	35.77
602.255	35.64
602.447	35.39
602.64	35.37
602.833	35.46
603.025	35.39
603.218	35.32
603.411	35.37
603.603	35.56
603.796	35.88
603.989	35.83
604.181	35.76
604.374	35.97
604.566	36.14
604.759	36.17
604.951	36.16
605.144	36.48
605.336	36.57
605.529	36.77
605.721	36.73
605.914	36.47
606.106	36.5
606.299	36.59
606.491	36.39
606.683	36.34
606.876	36.32
607.068	36.4
607.26	36.17
607.453	36.12
607.645	36.08
607.837	36.09
608.03	36.16
608.222	36.19
608.414	36.01
608.606	36
608.799	36.2
608.991	36.23
609.183	36.16
609.375	36.26
609.567	36.33
609.759	36.15
609.952	36.2
610.144	36.12
610.336	36.1
610.528	36.18
610.72	36.41
610.912	36.44
611.104	36.68
611.296	36.76
611.488	36.92
611.68	36.98
611.872	37.24
612.064	37.36
612.256	37.59
612.448	37.77
612.64	38.05
612.832	38.01
613.023	37.88
613.215	37.72
613.407	37.64
613.599	37.69
613.791	37.92
613.983	37.82
614.174	37.69
614.366	37.55
614.558	37.33
614.75	37.29
614.941	37.33
615.133	37.47
615.325	37.63
615.516	37.83
615.708	37.57
615.9	37.41
616.091	37.56
616.283	37.57
616.475	37.99
616.666	38.11
616.858	38.1
617.049	38.12
617.241	38.06
617.432	37.84
617.624	37.68
617.815	37.9
618.007	38.07
618.198	38.02
618.39	37.91
618.581	37.55
618.773	37.73
618.964	37.8
619.155	38
619.347	37.96
619.538	38.18
619.729	38.24
619.921	38.46
620.112	38.66
620.303	38.67
620.494	38.67
620.686	38.82
620.877	38.69
621.068	38.57
621.259	38.49
621.451	38.5
621.642	38.44
621.833	38.33
622.024	38.16
622.215	37.77
622.406	38.16
622.597	38.43
622.788	38.41
622.98	38.42
623.171	38.24
623.362	38.46
623.553	38.55
623.744	38.49
623.935	38.56
624.126	38.28
624.317	38.77
624.508	38.5
624.698	38.48
624.889	38.4
625.08	38.6
625.271	39.01
625.462	38.89
625.653	39.14
625.844	38.89
626.034	38.96
626.225	39.11
626.416	39.14
626.607	39.16
626.798	39.16
626.988	39.47
627.179	39.47
627.37	39.46
627.56	39.5
627.751	39.11
627.942	39.33
628.132	39.34
628.323	39.52
628.514	39.25
628.704	39.13
628.895	39.01
629.085	38.79
629.276	38.81
629.466	38.61
629.657	38.45
629.847	38.75
630.038	38.71
630.228	38.91
630.419	38.81
630.609	39.01
630.8	39.29
630.99	39.6
631.181	39.76
631.371	39.94
631.561	40.09
631.752	40.21
631.942	40.15
632.132	40.56
632.323	40.51
632.513	40.79
632.703	40.17
632.893	40.08
633.084	40.08
633.274	40.06
633.464	39.84
633.654	39.98
633.844	39.9
634.034	39.95
634.225	39.68
634.415	39.65
634.605	39.4
634.795	39.78
634.985	39.73
635.175	39.74
635.365	39.44
635.555	39.58
635.745	39.5
635.935	39.34
636.125	39.19
636.315	39.42
636.505	39.45
636.695	39.38
636.885	39.58
637.075	39.7
637.265	39.45
637.455	39.85
637.644	39.92
637.834	39.97
638.024	40.3
638.214	40.58
638.404	40.61
638.593	40.97
638.783	40.94
638.973	41
639.163	40.89
639.352	41.01
639.542	41.21
639.732	41.08
639.921	41.11
640.111	41.3
640.301	41.08
640.49	41
640.68	40.59
640.87	40.89
641.059	40.87
641.249	41.04
641.438	41.22
641.628	40.91
641.817	41.16
642.007	41.24
642.196	41.23
642.386	41.52
642.575	41.69
642.764	41.67
642.954	41.53
643.143	41.5
643.333	41.28
643.522	41.06
643.711	40.9
643.901	40.53
644.09	40.44
644.279	40.44
644.469	40.48
644.658	40.37
644.847	40.56
645.036	40.59
645.226	40.9
645.415	41.25
645.604	41.23
645.793	41.63
645.982	41.57
646.171	41.45
646.361	41.31
646.55	41.08
646.739	41.25
646.928	41.19
647.117	41.45
647.306	41.27
647.495	41.09
647.684	41.21
647.873	41.1
648.062	41.59
648.251	41.62
648.44	41.53
648.629	41.46
648.818	41.43
649.007	41.67
649.196	41.58
649.384	41.37
649.573	41.41
649.762	41.48
649.951	41.33
650.14	41.4
650.328	41.59
650.517	41.48
650.706	41.82
650.895	41.56
651.083	41.28
651.272	41.42
651.461	41.22
651.65	41.5
651.838	42.23
652.027	42.24
652.216	41.75
652.404	41.96
652.593	41.88
652.781	42.22
652.97	42.19
653.158	41.9
653.347	41.95
653.535	42.14
653.724	42
653.912	41.57
654.101	41.72
654.289	41.85
654.478	41.68
654.666	42.34
654.855	41.72
655.043	42.22
655.231	42.76
655.42	42.64
655.608	42.83
655.796	42.64
655.985	42.81
656.173	42.74
656.361	42.95
656.55	42.84
656.738	42.2
656.926	42.52
657.114	41.96
657.302	41.66
657.491	41.52
657.679	41.37
657.867	41.32
658.055	41.09
658.243	41.15
658.431	41.34
658.619	41.59
658.807	42
658.996	41.96
659.184	42.29
659.372	42.49
659.56	42.57
659.748	42.86
659.936	43.34
660.124	43.14
660.311	43.26
660.499	43.24
660.687	42.76
660.875	42.74
661.063	42.82
661.251	43
661.439	43.17
661.627	43.22
661.814	43.02
662.002	42.8
662.19	43.11
662.378	43.2
662.565	43.03
662.753	43.59
662.941	43.37
663.129	43.21
663.316	43.03
663.504	43.08
663.692	43.51
663.879	43.43
664.067	43.4
664.254	43.41
664.442	43.27
664.63	43.42
664.817	43.04
665.005	42.85
665.192	42.85
665.38	42.8
665.567	42.49
665.755	42.23
665.942	42.44
666.13	42.43
666.317	41.92
666.504	42.18
666.692	42.51
666.879	42.84
667.067	43.33
667.254	43.22
667.441	42.99
667.629	43.06
667.816	42.82
668.003	42.76
668.19	42.79
668.378	42.65
668.565	42.59
668.752	42.34
668.939	42.42
669.127	42.35
669.314	42.67
669.501	42.93
669.688	43.29
669.875	43.42
670.062	43.2
670.249	43.18
670.436	43.71
670.623	43.83
670.81	43.74
670.997	43.52
671.184	43.49
671.371	42.96
671.558	43.1
671.745	42.83
671.932	42.65
672.119	42.85
672.306	42.81
672.493	42.92
672.68	43.05
672.867	43.06
673.054	43.01
673.24	43.31
673.427	43.55
673.614	43.66
673.801	43.53
673.988	43.41
674.174	43.47
674.361	43.26
674.548	42.49
674.734	41.84
674.921	42.09
675.108	42.43
675.294	42.32
675.481	42.56
675.668	42.8
675.854	42.96
676.041	43.3
676.227	43.07
676.414	43.52
676.601	44.17
676.787	44.5
676.974	44.25
677.16	44.38
677.347	44.42
677.533	44.5
677.719	44.31
677.906	44.3
678.092	44.68
678.279	44.64
678.465	44.46
678.651	44.41
678.838	44.65
679.024	44.7
679.21	44.22
679.397	43.87
679.583	43.75
679.769	43.74
679.955	43.69
680.142	43.58
680.328	43.52
680.514	43.62
680.7	43.7
680.886	43.74
681.073	43.79
681.259	44.22
681.445	44.62
681.631	45.01
681.817	44.7
682.003	44.77
682.189	44.18
682.375	44.5
682.561	44.63
682.747	44.68
682.933	44.39
683.119	44.15
683.305	43.91
683.491	43.63
683.677	43.35
683.863	43.96
684.049	44.18
684.235	44.57
684.42	45.3
684.606	44.63
684.792	44.54
684.978	44.33
685.164	44.43
685.349	44.4
685.535	44.39
685.721	44.42
685.907	44.08
686.092	43.85
686.278	44.19
686.464	43.51
686.649	43.71
686.835	43.67
687.021	44.28
687.206	44.02
687.392	43.95
687.577	43.93
687.763	44.18
687.948	43.7
688.134	43.54
688.319	43.06
688.505	43.31
688.69	43.33
688.876	43.72
689.061	43.47
689.247	44.31
689.432	44.51
689.618	44.36
689.803	44.01
689.988	44.48
690.174	44.77
690.359	45.22
690.544	44.85
690.73	45.36
690.915	45.26
691.1	45.35
691.285	44.96
691.471	45.05
691.656	45.46
691.841	45.91
692.026	45.61
692.211	45.89
692.396	46.45
692.582	46.35
692.767	45.8
692.952	45.87
693.137	45.38
693.322	45.69
693.507	45.48
693.692	45.59
693.877	45.6
694.062	45.76
694.247	45.64
694.432	44.8
694.617	45.18
694.802	45.72
694.987	46.22
695.172	47.06
695.357	46.54
695.541	46.93
695.726	46.71
695.911	46.09
696.096	46.37
696.281	45.85
696.466	46.21
696.65	46.36
696.835	46.52
697.02	45.87
697.204	45.72
697.389	45.77
697.574	45.54
697.759	45.98
697.943	46.1
698.128	45.96
698.312	46.19
698.497	45.9
698.682	45.8
698.866	45.58
699.051	45.59
699.235	45.43
699.42	45.36
699.604	45.31
699.789	45.07
699.973	44.86
700.158	45.14
700.342	45.26
700.527	45.5
700.711	45.76
700.895	46
701.08	45.68
701.264	46.02
701.448	46.42
701.633	46.37
701.817	46.36
702.001	46.68
702.186	46.27
702.37	46.29
702.554	45.55
702.738	44.7
702.923	44.21
703.107	44.35
703.291	44.17
703.475	43.59
703.659	43.58
703.843	43.81
704.027	43.59
704.212	43.58
704.396	43.23
704.58	44.47
704.764	45.04
704.948	45.28
705.132	45.68
705.316	45.29
705.5	45.52
705.684	45.51
705.868	45.37
706.052	45.48
706.235	46.1
706.419	46.17
706.603	45.6
706.787	45.31
706.971	45.43
707.155	44.98
707.339	44.86
707.522	44.78
707.706	45.39
707.89	45.4
708.074	45.28
708.257	44.72
708.441	44.71
708.625	44.69
708.808	44.6
708.992	44.61
709.176	45.3
709.359	46.04
709.543	45.9
709.727	45.97
709.91	45.5
710.094	45.69
710.277	46.32
710.461	46.34
710.644	46.6
710.828	47.03
711.011	47.17
711.195	46.67
711.378	46.79
711.562	46.48
711.745	45.9
711.928	46.34
712.112	46.9
712.295	46.01
712.478	46.18
712.662	46.37
712.845	46.4
713.028	46.39
713.212	46.58
713.395	46.28
713.578	46.81
713.761	46.9
713.945	46.86
714.128	46.16
714.311	46.42
714.494	46.45
714.677	45.39
714.86	45.21
715.043	44.98
715.227	45.07
715.41	45.23
715.593	45.66
715.776	46.03
715.959	46.3
716.142	46.21
716.325	46.06
716.508	45.82
716.691	46.19
716.874	46.04
717.057	46.15
717.239	45.7
717.422	45.48
717.605	45.6
717.788	45.6
717.971	45.29
718.154	45.39
718.337	45.55
718.519	45.66
718.702	45.74
718.885	45.88
719.068	46.13
719.25	46.35
719.433	45.83
719.616	45.25
719.798	45.34
719.981	45.82
720.164	45.35
720.346	45.9
720.529	45.71
720.712	45.64
720.894	45.84
721.077	45.48
721.259	46.01
721.442	46.83
721.624	46.6
721.807	46.39
721.989	46.12
722.172	46.93
722.354	46.31
722.537	46.79
722.719	46.88
722.901	47.01
723.084	47.45
723.266	47.64
723.448	47.57
723.631	47.52
723.813	47.73
723.995	47.09
724.178	46.72
724.36	47
724.542	46.23
724.724	46.36
724.907	45.94
725.089	45.33
725.271	45.71
725.453	44.86
725.635	45.56
725.817	45.81
725.999	45.95
726.181	46.53
726.364	47.29
726.546	47.65
726.728	47.85
726.91	48.71
727.092	48.92
727.274	48.43
727.456	48.39
727.638	47.25
727.819	46.92
728.001	46.92
728.183	46.86
728.365	45.55
728.547	45.33
728.729	45.55
728.911	44.54
729.093	44.14
729.274	43.62
729.456	44.5
729.638	45.54
729.82	45.17
730.001	45.34
730.183	45.17
730.365	45.81
730.546	46.47
730.728	46.8
730.91	47.24
731.091	47.89
731.273	48.39
731.455	48.69
731.636	48.38
731.818	48.37
731.999	48.76
732.181	49.13
732.362	48.91
732.544	49.02
732.725	48.64
732.907	48.1
733.088	48.04
733.27	48.05
733.451	47.16
733.633	47.32
733.814	47.54
733.995	47.04
734.177	47.06
734.358	47.17
734.539	46.58
734.721	46.24
734.902	46.56
735.083	46.77
735.264	46.69
735.446	47.74
735.627	46.82
735.808	46.81
735.989	46.99
736.17	46.5
736.351	46.53
736.533	46.74
736.714	47.38
736.895	47.75
737.076	47.63
737.257	47.86
737.438	47.25
737.619	48.48
737.8	47.9
737.981	48.46
738.162	48.56
738.343	47.75
738.524	48.8
738.705	48.36
738.886	48.55
739.067	48.17
739.247	47.96
739.428	47.93
739.609	48.06
739.79	48.46
739.971	48.46
740.151	49.01
740.332	49.74
740.513	49.46
740.694	49.43
740.874	50.11
741.055	50.43
741.236	49.8
741.417	49.88
741.597	49.26
741.778	49.45
741.958	48.95
742.139	48.61
742.32	48.95
742.5	48.92
742.681	49.17
742.861	48.68
743.042	47.93
743.222	49.57
743.403	49.2
743.583	48.86
743.764	48.81
743.944	49.8
744.124	49.74
744.305	49.54
744.485	48.93
744.666	48.69
744.846	47.91
745.026	49.23
745.207	48.57
745.387	49.18
745.567	49.97
745.747	49.7
745.928	49.26
746.108	48.84
746.288	49.24
746.468	49.6
746.648	50.46
746.829	50.67
747.009	51.07
747.189	50.39
747.369	49.89
747.549	49.95
747.729	50.27
747.909	49.8
748.089	50.18
748.269	49.27
748.449	48.8
748.629	47.58
748.809	47.03
748.989	45.76
749.169	45.86
749.349	46.76
749.529	46.2
749.709	46.45
749.889	46.27
750.068	46.24
750.248	46.63
750.428	46.1
750.608	46.84
750.788	47.12
750.967	46.67
751.147	46.39
751.327	45.23
751.507	44.82
751.686	44.6
751.866	45.04
752.046	45.68
752.225	45.8
752.405	46.86
752.585	46.59
752.764	47.38
752.944	47.9
753.123	48.54
753.303	48.97
753.482	49.08
753.662	49.18
753.841	49.07
754.021	49.1
754.2	49.22
754.38	49.22
754.559	49.45
754.739	48.72
754.918	48.73
755.097	49.18
755.277	49.64
755.456	49.94
755.635	49.98
755.815	50.07
755.994	49.39
756.173	49.14
756.352	48.53
756.532	47.5
756.711	47.71
756.89	47.72
757.069	46.89
757.248	46.26
757.427	46.19
757.607	46.14
757.786	46.6
757.965	46.43
758.144	46.69
758.323	47.61
758.502	48.23
758.681	48.21
758.86	48.12
759.039	47.71
759.218	48.16
759.397	48.47
759.576	48.71
759.755	47.9
759.934	47.51
760.113	47.79
760.291	47.41
760.47	48.3
760.649	48.92
760.828	49.41
761.007	49.74
761.186	49.77
761.364	49.46
761.543	49.39
761.722	49.96
761.901	50.51
762.079	50.68
762.258	50.43
762.437	50.8
762.615	49.84
762.794	49.61
762.972	49
763.151	48.63
763.33	49.01
763.508	49.44
763.687	48.91
763.865	48.5
764.044	48.07
764.222	48.52
764.401	47.3
764.579	47.39
764.758	47.05
764.936	47.73
765.114	47.63
765.293	47.65
765.471	47.49
765.65	47.55
765.828	47.87
766.006	47.99
766.184	47.35
766.363	47.93
766.541	48.3
766.719	48.43
766.898	48.31
767.076	48.46
767.254	48.56
767.432	48.29
767.61	48.16
767.788	48.48
767.967	48.28
768.145	47.92
768.323	48.55
768.501	48.83
768.679	50.18
768.857	50.23
769.035	50.94
769.213	49.29
769.391	48.45
769.569	49.72
769.747	49.3
769.925	49.14
770.103	50.84
770.281	49.56
770.459	49.73
770.636	49.01
770.814	49.03
770.992	48.26
771.17	50.28
771.348	51.71
771.525	50.58
771.703	50.58
771.881	52.13
772.059	51.33
772.236	52.04
772.414	51.27
772.592	50.85
772.769	51.45
772.947	52.04
773.125	51.57
773.302	48.83
773.48	48.18
773.657	49.7
773.835	48.05
774.013	46.94
774.19	46.74
774.368	47.23
774.545	46.11
774.723	46.96
774.9	46.61
775.077	47.76
775.255	50.27
775.432	51.05
775.61	49.07
775.787	50.62
775.964	52.29
776.142	52.33
776.319	52.67
776.496	54.45
776.674	53.95
776.851	53.11
777.028	52.85
777.205	52.24
777.382	52.93
777.56	54.3
777.737	53.85
777.914	52.69
778.091	52.1
778.268	50.38
778.445	49.68
778.622	48.93
778.8	49.84
778.977	50.86
779.154	45.24
779.331	45.12
779.508	43.6
779.685	42.89
779.862	42.49
780.038	43.22
780.215	42.92
780.392	41.84
780.569	40.89
780.746	40.75
780.923	39.19
781.1	45.78
781.277	45.69
781.453	45.87
781.63	45
781.807	45.82
781.984	44.96
782.16	47.5
782.337	49.59
782.514	50.24
782.691	50.9
782.867	49.63
783.044	49.74
783.221	51.38
783.397	51.97
783.574	52.16
783.75	52.06
783.927	50.95
784.103	49.05
784.28	49.22
784.456	51.2
784.633	51.31
784.809	51.98
784.986	51.57
785.162	48.5
785.339	48.66
785.515	49.91
785.692	49.89
785.868	50.13
786.044	51.43
786.221	48.81
786.397	46.49
786.573	45.3
786.749	45.1
786.926	43.81
787.102	44.02
787.278	42.83
787.454	42.87
787.631	42.64
787.807	43.77
787.983	43.97
788.159	45.36
788.335	46.03
788.511	48.2
788.687	48.87
788.863	49.72
789.039	50.43
789.216	51.25
789.392	50.48
789.568	50.66
789.744	51.4
789.919	50.91
790.095	50.2
790.271	50.42
790.447	47.77
790.623	48.45
790.799	48.95
790.975	49
791.151	48.95
791.327	50.23
791.502	49.26
791.678	48.27
791.854	48.5
792.03	48.85
792.205	49.17
792.381	50.61
792.557	48.55
792.733	48.71
792.908	48.74
793.084	49.28
793.259	47.73
793.435	50.79
793.611	51.05
793.786	50.97
793.962	51.44
794.137	50.13
794.313	50.65
794.488	51.94
794.664	53.13
794.839	54.74
795.015	55.85
795.19	55.65
795.366	53.16
795.541	53.33
795.716	52.99
795.892	51.84
796.067	51.21
796.242	49.34
796.418	49.21
796.593	49.51
796.768	49.46
796.944	48.44
797.119	49.65
797.294	51.79
797.469	50.11
797.644	52.01
797.82	51.94
797.995	52.97
798.17	53.87
798.345	51.6
798.52	49.88
798.695	48.9
798.87	49.26
799.045	48.14
799.22	48.18
799.395	49.6
799.57	48.48
799.745	49.67
799.92	50.78
800.095	52.02
800.27	54.16
800.445	56.04
800.62	57.24
800.795	57.26
800.97	59.07
801.145	56.31
801.319	56.96
801.494	53.94
801.669	51.58
801.844	51.14
802.018	51.01
802.193	52.81
802.368	47.1
802.543	46.43
802.717	45.37
802.892	45.27
803.067	47.14
803.241	47.57
803.416	51.57
803.59	55.13
803.765	55.69
803.94	55.05
804.114	52.78
804.289	56.24
804.463	58.2
804.638	59.84
804.812	60.01
804.986	61.94
805.161	62.75
805.335	62.64
805.51	60.53
805.684	58.42
805.858	57.32
806.033	58.83
806.207	61.38
806.381	56.76
806.556	56.81
806.73	56.38
806.904	54.35
807.078	54.63
807.253	54.32
807.427	56.4
807.601	57.73
807.775	58.92
807.949	57.58
808.123	56.58
808.298	57.59
808.472	59.01
808.646	58.62
808.82	57.98
808.994	55.64
809.168	55.02
809.342	54.62
809.516	54.57
809.69	55.71
809.864	54.18
810.038	52.84
810.212	55.51
810.385	52.46
810.559	53.89
810.733	53.34
810.907	51.74
811.081	50.57
811.255	48.3
811.428	47.03
811.602	47.19
811.776	47.11
811.95	49.06
812.123	48.62
812.297	48.25
812.471	45.06
812.644	46
812.818	49.72
812.992	50.44
813.165	52.9
813.339	54.7
813.512	53.9
813.686	57.85
813.86	54.78
814.033	53.56
814.207	54.21
814.38	55.12
814.554	57.76
814.727	57.02
814.9	55.01
815.074	52.89
815.247	51.17
815.421	49.98
815.594	46.81
815.767	47.49
815.941	46.52
816.114	44.36
816.287	42.9
816.46	39.23
816.634	38.61
816.807	41.13
816.98	40.03
817.153	39.93
817.327	37.06
817.5	37.36
817.673	39.69
817.846	42
818.019	44.8
818.192	46.49
818.365	49.32
818.538	51.98
818.711	54.51
818.884	54.71
819.057	55.63
819.23	56.41
819.403	58.56
819.576	57.29
819.749	55.34
819.922	54.23
820.095	53.4
820.268	51.55
820.441	52.86
820.614	51.68
820.786	54.21
820.959	54.6
821.132	55.27
821.305	53.26
821.477	53.75
821.65	52.72
821.823	51.79
821.996	52
822.168	52.2
822.341	50.52
822.514	50.24
822.686	49.65
822.859	49.52
823.031	48.86
823.204	48.92
823.376	48.88
823.549	48.83
823.722	48.93
823.894	48.38
824.067	48.25
824.239	48.15
824.411	48.34
824.584	47.97
824.756	47.67
824.929	47.78
825.101	47.99
825.273	47.75
825.446	48.06
825.618	47.86
825.79	48.22
825.963	47.74
826.135	47.99
826.307	48.48
826.479	48.84
826.652	49.23
826.824	49.9
826.996	49.69
827.168	49.76
827.34	50.49
827.512	51.08
827.684	50.99
827.856	51.47
828.029	51.23
828.201	49.93
828.373	49.61
828.545	49.41
828.717	48.69
828.889	48.38
829.061	47.88
829.232	47.54
829.404	47.7
829.576	48.47
829.748	47.35
829.92	47.13
830.092	47.75
830.264	48.47
830.436	48.93
830.607	48.88
830.779	49.54
830.951	51.24
831.123	52.45
831.294	52.17
831.466	51.08
831.638	53.87
831.809	54.11
831.981	53.66
832.153	53.56
832.324	53.09
832.496	53.65
832.667	52.64
832.839	50.84
833.011	49.67
833.182	50.24
833.354	51.41
833.525	49.84
833.697	52.17
833.868	52.98
834.039	51.22
834.211	51.22
834.382	51.91
834.554	51.08
834.725	51.81
834.896	51.57
835.068	50.66
835.239	50.86
835.41	51.76
835.581	50.46
835.753	50.83
835.924	52.21
836.095	52.5
836.266	53.08
836.438	54.57
836.609	53.09
836.78	53.32
836.951	54.29
837.122	53.5
837.293	53.12
837.464	54.74
837.635	54.55
837.806	56.44
837.977	57.29
838.148	55.39
838.319	55.52
838.49	56.67
838.661	55.43
838.832	58.3
839.003	60.18
839.174	63.94
839.345	67.48
839.516	68.01
839.687	63.45
839.857	60.36
840.028	61.04
840.199	61.52
840.37	65.28
840.54	65.05
840.711	63.31
840.882	61.27
841.053	57.68
841.223	52.29
841.394	50.88
841.564	55.39
841.735	57.23
841.906	61.84
842.076	62.87
842.247	60.22
842.417	60.63
842.588	58.37
842.758	62.4
842.929	63.31
843.099	67.87
843.27	67.32
843.44	68.95
843.611	68.28
843.781	63.72
843.951	62.06
844.122	62.78
844.292	63.05
844.462	66.82
844.633	58.14
844.803	53.82
844.973	53.41
845.144	58.06
845.314	52.81
845.484	53.82
845.654	57.78
845.824	59.6
845.995	59.59
846.165	68.04
846.335	62.09
846.505	69.7
846.675	83.17
846.845	88.35
847.015	78.24
847.185	85.04
847.355	82.18
847.525	78.75
847.695	74.37
847.865	77.72
848.035	72.69
848.205	76.81
848.375	65.44
848.545	50.09
848.715	41.39
848.884	55.11
849.054	47.84
849.224	53.07
849.394	54.12
849.564	52.41
849.733	47.42
849.903	55.08
850.073	56.27
850.243	67.98
850.412	68.75
850.582	61.42
850.752	52.19
850.921	57.02
851.091	47.06
851.26	43.56
851.43	43.05
851.599	46.17
851.769	36.6
851.939	36.22
852.108	43.9
852.278	51.85
852.447	58.58
852.616	60.79
852.786	67.39
852.955	71.43
853.125	79.87
853.294	87.69
853.463	83.52
853.633	83.83
853.802	85.05
853.971	78.01
854.141	76.37
854.31	80.15
854.479	83.55
854.648	85.16
854.818	78.95
854.987	74.12
855.156	81.88
855.325	83.68
855.494	77.22
855.663	81.37
855.832	79.13
856.001	80.63
856.171	69.93
856.34	73.01
856.509	68.36
856.678	77.69
856.847	76.2
857.016	70.87
857.185	71.35
857.353	73.18
857.522	73.54
857.691	74.94
857.86	75.01
858.029	89.35
858.198	84.88
858.367	83.01
858.535	78.73
858.704	81.19
858.873	74.16
859.042	79.74
859.21	85.33
859.379	85.04
859.548	85.09
859.717	77.05
859.885	68.45
860.054	68.41
860.222	60.91
860.391	60.06
860.56	61.27
860.728	58.75
860.897	48.54
861.065	44.88
861.234	38.89
861.402	39.09
861.571	41.09
861.739	42.24
861.908	44.38
862.076	49.87
862.244	53.65
862.413	43.13
862.581	52.57
862.749	66.29
862.918	60.31
863.086	70.47
863.254	65.96
863.423	62.78
863.591	57.22
863.759	51.44
863.927	60.31
864.096	57.58
864.264	78.02
864.432	79.24
864.6	71.74
864.768	85.66
864.936	93.61
865.104	92.6
865.272	92.54
865.44	84.07
865.608	87.03
865.776	71.36
865.944	74.68
866.112	62.93
866.28	59.9
866.448	53.2
866.616	38.04
866.784	39.38
866.952	35.06
867.12	40.93
867.288	46.69
867.455	53.2
867.623	59.48
867.791	52.15
867.959	52.36
868.127	52.79
868.294	61.17
868.462	65.39
868.63	60.37
868.797	57.51
868.965	63.6
869.133	65.15
869.3	64
869.468	59.06
869.636	66.35
869.803	67.62
869.971	69.66
870.138	58.93
870.306	63.91
870.473	67.04
870.641	70.84
870.808	71.1
870.975	74.24
871.143	63.5
871.31	67.06
871.478	69.71
871.645	64.62
871.812	67.32
871.98	77.83
872.147	67.77
872.314	64.38
872.482	65.11
872.649	65.64
872.816	62.82
872.983	75.92
873.15	85.66
873.318	79.51
873.485	82.44
873.652	68.99
873.819	70.43
873.986	74.87
874.153	76.69
874.32	67.07
874.487	64.1
874.654	61.48
874.821	58.93
874.988	54.61
875.155	55.92
875.322	59.55
875.489	76.17
875.656	83.27
875.823	91.57
875.99	99.96
876.157	118.24
876.324	118.56
876.49	125.88
876.657	124.09
876.824	131.32
876.991	141.19
877.157	146.58
877.324	126.62
877.491	122.61
877.658	113.11
877.824	112.98
877.991	98.4
878.157	84.68
878.324	80.79
878.491	81.71
878.657	81.52
878.824	74.5
878.99	62.01
879.157	64.12
879.323	60.75
879.49	51.9
879.656	57.45
879.823	60.09
879.989	60.65
880.156	65.51
880.322	62.49
880.488	62.61
880.655	67.78
880.821	71.98
880.987	65.95
881.154	63.68
881.32	67.53
881.486	61.48
881.652	58.81
881.819	58.33
881.985	55.9
882.151	56.2
882.317	52
882.483	48.3
882.649	49.38
882.816	50.97
882.982	52.2
883.148	51.11
883.314	51.93
883.48	53.11
883.646	53.81
883.812	53.03
883.978	52.75
884.144	52.7
884.31	52.56
884.476	51.98
884.642	52.32
884.807	52.03
884.973	51.57
885.139	51.18
885.305	50.11
885.471	51.97
885.637	50.89
885.802	50.24
885.968	49.81
886.134	50.45
886.3	50.65
886.465	50.28
886.631	49.53
886.797	50.95
886.962	52.12
887.128	51.45
887.293	48.66
887.459	50.54
887.625	50.84
887.79	53.03
887.956	49.62
888.121	48.12
888.287	46.38
888.452	45.44
888.618	45.59
888.783	40.6
