Data from LC_250_Reflection_3.txt Node
Date: Thu Nov 19 23:01:53 EST 2015
User: robert
Spectrometer: USB4E03001
Autoset integration time: false
Trigger mode: 4
Integration Time (sec): 1.000000E-1
Scans to average: 15
Electric dark correction enabled: true
Nonlinearity correction enabled: false
Boxcar width: 5
Stray light correction enabled: false
XAxis mode: Wavelengths
Stop averaging: false
Number of Pixels in Spectrum: 3648
>>>>>Begin Spectral Data<<<<<
177.566	2.35
177.785	28.02
178.005	39.72
178.225	0.47
178.445	-4.4
178.665	6.24
178.885	2.67
179.105	-261.31
179.324	-356.85
179.544	-375.1
179.764	-124.99
179.984	-73.8
180.204	-113.24
180.423	-31.99
180.643	46.62
180.863	73.19
181.083	73.84
181.302	56.59
181.522	77.53
181.742	102.82
181.961	162.51
182.181	217.7
182.401	311.3
182.621	270.49
182.84	526.14
183.06	374.79
183.279	329.74
183.499	226.07
183.719	651.08
183.938	1218.86
184.158	-430.26
184.377	-110.22
184.597	-24.47
184.816	2398.11
185.036	61.44
185.256	-2148.89
185.475	-20.43
185.695	-28.62
185.914	-24.27
186.134	-8.37
186.353	54.92
186.572	29.86
186.792	103.37
187.011	-775.1
187.231	-530.32
187.45	-338.88
187.67	-42.43
187.889	-31.76
188.108	-16.05
188.328	-4.65
188.547	-80.31
188.766	-59.58
188.986	-61.44
189.205	1140.2
189.424	68.32
189.644	67.86
189.863	59.59
190.082	44.11
190.302	30.93
190.521	37.12
190.74	33.48
190.959	41.61
191.178	33.81
191.398	42.46
191.617	47.02
191.836	184.27
192.055	22.2
192.274	43.35
192.494	91.16
192.713	63.89
192.932	60.21
193.151	70.49
193.37	61.02
193.589	79.67
193.808	107.63
194.027	81.95
194.246	66.78
194.465	80.94
194.685	64.06
194.904	63.58
195.123	73.03
195.342	58.93
195.561	67.53
195.78	75.85
195.999	62.58
196.218	54.34
196.436	62.99
196.655	51.85
196.874	66.03
197.093	93.76
197.312	73.15
197.531	98.96
197.75	202.08
197.969	202.91
198.188	-352.46
198.407	-108.22
198.625	-89.89
198.844	-23.29
199.063	-700.93
199.282	-34.61
199.501	-61.19
199.719	-126.71
199.938	31.25
200.157	6.93
200.376	85.22
200.594	83.04
200.813	-279.91
201.032	-306.57
201.251	-216.73
201.469	-427.19
201.688	-56.53
201.907	-82.73
202.125	-147.16
202.344	-0.55
202.563	-96.15
202.781	-67.15
203	-62.17
203.218	-28.88
203.437	-48.35
203.656	4.7
203.874	47.79
204.093	-110.36
204.311	-21.83
204.53	-36.64
204.748	-34.34
204.967	-1.99
205.185	-15.2
205.404	-87.41
205.622	-41.08
205.841	50.01
206.059	-5.55
206.278	25.7
206.496	134.77
206.715	206.53
206.933	262.37
207.151	187.65
207.37	332.83
207.588	276.32
207.806	277.25
208.025	206.53
208.243	238.6
208.461	361.34
208.68	245.66
208.898	92.13
209.116	41.15
209.335	20.48
209.553	-137.73
209.771	2638.66
209.989	-372.9
210.208	588.29
210.426	882.55
210.644	-124.99
210.862	-39.11
211.081	3.94
211.299	23.94
211.517	48.55
211.735	45.76
211.953	29.95
212.171	50.44
212.39	61.1
212.608	64.97
212.826	96.35
213.044	92.42
213.262	83.94
213.48	56.17
213.698	46.84
213.916	40.17
214.134	-13.1
214.352	23.18
214.57	0.76
214.788	247.08
215.006	121.99
215.224	20.47
215.442	201.01
215.66	102.33
215.878	49.22
216.096	66.57
216.314	53.93
216.532	397.88
216.75	1019.63
216.968	-126.89
217.185	-73.65
217.403	-358.74
217.621	-1312.85
217.839	49.61
218.057	119.61
218.275	103.53
218.492	86.29
218.71	57.87
218.928	32.38
219.146	-16.89
219.363	10.1
219.581	5.79
219.799	10.98
220.017	0.75
220.234	13.14
220.452	-4.51
220.67	-20.27
220.887	16.92
221.105	45.74
221.323	45.83
221.54	52.82
221.758	51.75
221.976	40.56
222.193	46.16
222.411	27.73
222.629	25.05
222.846	12.57
223.064	25.06
223.281	33.63
223.499	12.44
223.716	21.76
223.934	17.85
224.151	18.55
224.369	22.31
224.586	18.25
224.804	32.77
225.021	36.35
225.239	36.51
225.456	28.9
225.674	10.13
225.891	13.55
226.108	7.34
226.326	-0.18
226.543	-4.35
226.76	-13.99
226.978	-5.49
227.195	-13.99
227.413	-9.5
227.63	-8.22
227.847	-9.1
228.064	-4.14
228.282	2.77
228.499	6.48
228.716	9.74
228.934	10.77
229.151	13.66
229.368	13.56
229.585	15.35
229.802	14.67
230.02	14.09
230.237	14.97
230.454	15.85
230.671	13.78
230.888	13.07
231.105	9.84
231.323	9.05
231.54	5.55
231.757	3.95
231.974	5.95
232.191	6.85
232.408	7.3
232.625	10.08
232.842	8.01
233.059	12.18
233.276	15.16
233.493	20.45
233.71	22.57
233.927	25.47
234.144	23.99
234.361	16.57
234.578	15.57
234.795	16.77
235.012	14.9
235.229	13.91
235.446	15.42
235.663	11.21
235.879	7.79
236.096	1.18
236.313	-2.41
236.53	4.93
236.747	6.35
236.964	11.51
237.181	11.1
237.397	8.93
237.614	11.73
237.831	10.25
238.048	13.04
238.264	13.91
238.481	15.23
238.698	18.12
238.915	19.03
239.131	17.76
239.348	13
239.565	15.53
239.781	17.11
239.998	15.8
240.215	12.62
240.431	10.54
240.648	11.34
240.865	12.52
241.081	9.09
241.298	6.19
241.514	9.59
241.731	10.12
241.947	10.02
242.164	8.33
242.38	8.99
242.597	9.64
242.814	10.25
243.03	9.82
243.246	9.41
243.463	9.44
243.679	9.76
243.896	10.48
244.112	10.35
244.329	9.35
244.545	12.45
244.762	11.67
244.978	11.96
245.194	12.25
245.411	13.75
245.627	13.07
245.843	13.14
246.06	13.86
246.276	10.96
246.492	11.58
246.709	11.92
246.925	10.1
247.141	10.37
247.357	10.14
247.574	10.07
247.79	9.61
248.006	10.69
248.222	10.87
248.439	10.34
248.655	11
248.871	10.5
249.087	10.21
249.303	11.35
249.519	10.41
249.736	10.86
249.952	10.02
250.168	9.69
250.384	7.4
250.6	8.32
250.816	8.99
251.032	8.16
251.248	9.39
251.464	9.8
251.68	8.61
251.896	9.99
252.112	9.85
252.328	10.79
252.544	9.97
252.76	10.95
252.976	10.52
253.192	9.27
253.408	8.93
253.624	8.33
253.84	8.33
254.056	9.03
254.272	9.1
254.487	7.92
254.703	9.09
254.919	9.7
255.135	9.12
255.351	8.81
255.567	10.83
255.782	12.34
255.998	14.3
256.214	12.39
256.43	11.23
256.646	11
256.861	12.21
257.077	12.96
257.293	14.96
257.508	15.75
257.724	15.7
257.94	14.07
258.155	13.23
258.371	11.47
258.587	11.62
258.802	11.87
259.018	12.31
259.234	11.74
259.449	11.09
259.665	10.12
259.88	9.2
260.096	9.11
260.312	8.63
260.527	8.37
260.743	8.58
260.958	8.5
261.174	8.76
261.389	8.48
261.605	8.96
261.82	7.89
262.036	7.67
262.251	8.36
262.466	8.78
262.682	8.8
262.897	9.48
263.113	8.54
263.328	9.83
263.543	10.01
263.759	10.91
263.974	9.79
264.189	11.08
264.405	11.19
264.62	11.15
264.835	10.66
265.051	10.35
265.266	10.56
265.481	10.97
265.696	10.13
265.912	9.24
266.127	8.19
266.342	8.58
266.557	9.66
266.773	9.54
266.988	9.14
267.203	8.68
267.418	9.52
267.633	8.81
267.848	9.65
268.064	10.22
268.279	9.78
268.494	8.96
268.709	8.95
268.924	6.44
269.139	7.02
269.354	6.54
269.569	5.62
269.784	5.99
269.999	5.77
270.214	5.68
270.429	4.93
270.644	5.17
270.859	6.03
271.074	3.63
271.289	5.58
271.504	5.21
271.719	6.8
271.934	7.93
272.149	7.99
272.363	8.54
272.578	8.47
272.793	7.68
273.008	7.16
273.223	7.47
273.438	9.58
273.653	9.47
273.867	9.02
274.082	7.6
274.297	7.18
274.512	7.24
274.726	7.57
274.941	6.61
275.156	6.74
275.371	7.64
275.585	8.09
275.8	7.37
276.015	7.94
276.229	9.15
276.444	9.85
276.659	9.97
276.873	9.63
277.088	9.3
277.302	9.23
277.517	10.23
277.732	10.81
277.946	10.01
278.161	10.76
278.375	10.97
278.59	10.88
278.804	10.14
279.019	9.88
279.233	9.92
279.448	11.27
279.662	11.78
279.877	10.47
280.091	9.17
280.306	8.51
280.52	7.63
280.735	7.04
280.949	6.6
281.163	7.62
281.378	8.32
281.592	8.71
281.806	7.99
282.021	8.68
282.235	9.21
282.449	9.41
282.664	9.24
282.878	9.61
283.092	8.75
283.307	9.96
283.521	9.82
283.735	9.5
283.949	10.04
284.164	9.58
284.378	8.61
284.592	7.54
284.806	8.3
285.02	8.77
285.234	9.09
285.449	8.81
285.663	8.19
285.877	8.37
286.091	8.1
286.305	7.08
286.519	7.46
286.733	7.74
286.947	8.71
287.161	7.3
287.375	7.73
287.589	6.94
287.803	6.83
288.017	7.36
288.231	7.03
288.445	7.69
288.659	8.38
288.873	7.27
289.087	6.59
289.301	7.52
289.515	8.31
289.729	7.91
289.943	8.8
290.157	10.7
290.371	9.8
290.584	9.31
290.798	8.95
291.012	8.28
291.226	9.07
291.44	10.5
291.654	9.63
291.867	10.06
292.081	10.13
292.295	9.79
292.509	8.3
292.722	8.85
292.936	9.07
293.15	8.59
293.364	10.89
293.577	11.51
293.791	10.23
294.005	10.1
294.218	10.73
294.432	9.92
294.645	10.15
294.859	9.87
295.073	8.93
295.286	8.94
295.5	9.43
295.713	7.8
295.927	7.5
296.14	7.46
296.354	7.06
296.568	6.9
296.781	7.77
296.994	8.32
297.208	8.61
297.421	9.85
297.635	10.65
297.848	10.69
298.062	11.22
298.275	11.04
298.489	11.4
298.702	11.86
298.915	12.03
299.129	11.9
299.342	11.23
299.555	10.84
299.769	10.03
299.982	9.34
300.195	9.4
300.409	9.57
300.622	9.46
300.835	9.41
301.048	10.03
301.262	9.22
301.475	8.75
301.688	8.5
301.901	9.63
302.115	9.97
302.328	10.48
302.541	10.12
302.754	8.95
302.967	9.49
303.18	9.93
303.393	8.94
303.607	8.86
303.82	8.84
304.033	9.59
304.246	10.15
304.459	9.82
304.672	9.03
304.885	9.53
305.098	10.01
305.311	10.04
305.524	9.52
305.737	9.62
305.95	9.75
306.163	9.91
306.376	9.69
306.589	8.87
306.802	8.09
307.015	8.88
307.228	8.13
307.44	8.64
307.653	7.81
307.866	9.26
308.079	9.91
308.292	10.27
308.505	10.45
308.718	8.34
308.93	7.97
309.143	8.56
309.356	7.85
309.569	8.74
309.781	8.83
309.994	8.94
310.207	7.43
310.42	7.95
310.632	7.57
310.845	7.73
311.058	9.8
311.27	9.45
311.483	9.58
311.696	9.42
311.908	9.27
312.121	8.73
312.333	8.9
312.546	9.17
312.759	8.96
312.971	9.21
313.184	8.74
313.396	8.98
313.609	10.3
313.821	9.89
314.034	11.24
314.246	10.55
314.459	11.5
314.671	12.12
314.884	13.34
315.096	12.31
315.309	13.22
315.521	13.44
315.733	12.44
315.946	11.98
316.158	13.2
316.371	12.07
316.583	12.72
316.795	10.52
317.008	9.6
317.22	8.62
317.432	9.34
317.644	9.2
317.857	8.84
318.069	7.95
318.281	7.51
318.494	7.68
318.706	8.33
318.918	7.78
319.13	9.01
319.342	8.78
319.555	8.72
319.767	9.06
319.979	8.76
320.191	8.74
320.403	10.91
320.615	11.4
320.827	10.07
321.039	8.22
321.252	8.59
321.464	8.89
321.676	8.86
321.888	8.85
322.1	9.02
322.312	9.15
322.524	10.72
322.736	9.51
322.948	9.69
323.16	10.17
323.372	11.09
323.584	11.31
323.796	9.67
324.007	10.34
324.219	11.11
324.431	10.49
324.643	9.98
324.855	9.2
325.067	9.99
325.279	10.44
325.491	10.82
325.702	11.4
325.914	11.16
326.126	13.65
326.338	14.15
326.55	14.06
326.761	14.5
326.973	14.99
327.185	14.83
327.396	13.94
327.608	13.82
327.82	13.28
328.032	13.12
328.243	13.15
328.455	12.07
328.666	11.16
328.878	10.41
329.09	11.04
329.301	11.78
329.513	12.72
329.725	12.63
329.936	12.53
330.148	13.72
330.359	14.42
330.571	14.76
330.782	14.85
330.994	15.48
331.205	15.95
331.417	15.5
331.628	14.49
331.84	13.84
332.051	14.32
332.262	14.33
332.474	14.42
332.685	14.33
332.897	15.08
333.108	14.39
333.319	14.66
333.531	15.09
333.742	14.2
333.953	14.57
334.165	15.77
334.376	15.75
334.587	16.27
334.799	15.19
335.01	14.29
335.221	13.62
335.432	15.12
335.644	14.18
335.855	13.75
336.066	14.53
336.277	13.91
336.488	12.45
336.7	12.09
336.911	11.07
337.122	11.86
337.333	12.95
337.544	12.79
337.755	11.94
337.966	12.1
338.177	12.38
338.388	11.94
338.599	12.96
338.811	13.61
339.022	13.99
339.233	13.26
339.444	13.01
339.655	12.69
339.866	12.66
340.076	13.48
340.287	14.52
340.498	14.02
340.709	14.32
340.92	12.74
341.131	12.07
341.342	11.95
341.553	13.27
341.764	12.29
341.975	11.24
342.185	11.32
342.396	10.95
342.607	10.36
342.818	10.64
343.029	11.53
343.239	12.23
343.45	12.28
343.661	13.05
343.872	12.69
344.082	13.06
344.293	13.67
344.504	14.28
344.714	14.76
344.925	14.71
345.136	14.8
345.346	12.57
345.557	12.74
345.768	12.96
345.978	12.42
346.189	12.21
346.399	12.15
346.61	12.11
346.821	11.95
347.031	11.25
347.242	11.28
347.452	11.38
347.663	12.5
347.873	12.42
348.084	12.84
348.294	12.34
348.504	12.77
348.715	13.43
348.925	14.12
349.136	14.34
349.346	14.97
349.557	15.01
349.767	15.2
349.977	15.92
350.188	15.42
350.398	14.91
350.608	15.37
350.819	15.35
351.029	14.88
351.239	14.81
351.449	14.05
351.66	13.31
351.87	13.17
352.08	12.69
352.29	13.33
352.501	13.99
352.711	14.19
352.921	13.85
353.131	13.42
353.341	13.61
353.552	13.29
353.762	12.72
353.972	13.2
354.182	13.21
354.392	13.59
354.602	12.35
354.812	11.92
355.022	11.24
355.232	11.58
355.442	11.91
355.652	11.55
355.862	10.94
356.072	11.98
356.282	11.48
356.492	11.55
356.702	11.34
356.912	11.55
357.122	11.59
357.332	12.19
357.542	11.62
357.752	10.68
357.962	11.27
358.171	11.86
358.381	11.49
358.591	11.18
358.801	11.08
359.011	10.74
359.221	10.55
359.43	10.6
359.64	10.07
359.85	10.1
360.06	10.63
360.269	10.55
360.479	10.29
360.689	10
360.899	9.91
361.108	9.84
361.318	10.05
361.528	10.12
361.737	10.21
361.947	10.77
362.156	11.15
362.366	11.47
362.576	11.54
362.785	11.3
362.995	11.48
363.204	12.06
363.414	11.94
363.623	11.91
363.833	12.07
364.042	11.85
364.252	11.91
364.461	11.61
364.671	11.16
364.88	11.04
365.09	11.18
365.299	11.5
365.509	11.55
365.718	11.8
365.927	12.09
366.137	11.72
366.346	11.65
366.555	11.42
366.765	11.95
366.974	12.35
367.183	11.74
367.393	11.9
367.602	11.98
367.811	12.33
368.021	12.67
368.23	11.74
368.439	11.66
368.648	11.97
368.857	11.87
369.067	11.53
369.276	11.43
369.485	11.28
369.694	11.2
369.903	10.58
370.112	9.47
370.321	8.88
370.531	9.56
370.74	9.23
370.949	8.93
371.158	8.71
371.367	8.67
371.576	8.49
371.785	9.04
371.994	8.96
372.203	9.24
372.412	9.79
372.621	9.97
372.83	9.92
373.039	10.7
373.248	10.93
373.457	11.37
373.666	11.45
373.874	11.48
374.083	10.97
374.292	11.04
374.501	11.22
374.71	10.86
374.919	10.23
375.128	10.34
375.336	10.2
375.545	10.26
375.754	9.59
375.963	9.53
376.171	9.52
376.38	9.64
376.589	9.29
376.798	8.76
377.006	8.74
377.215	9.27
377.424	8.89
377.632	8.91
377.841	8.44
378.05	9.3
378.258	9.16
378.467	9.12
378.675	9.27
378.884	9.63
379.093	10.34
379.301	10.43
379.51	10.48
379.718	10.65
379.927	10.11
380.135	10.58
380.344	9.83
380.552	10.36
380.761	10.46
380.969	10.72
381.177	10.58
381.386	9.91
381.594	10.1
381.803	9.87
382.011	9.89
382.219	10.31
382.428	10.11
382.636	10.14
382.845	9.82
383.053	9.24
383.261	8.65
383.469	9.01
383.678	9.13
383.886	9.09
384.094	9.32
384.302	9.23
384.511	8.81
384.719	8.88
384.927	8.79
385.135	8.79
385.343	9.24
385.552	9.61
385.76	9.08
385.968	9.1
386.176	8.85
386.384	8.79
386.592	8.83
386.8	9.12
387.008	8.78
387.216	8.74
387.424	8.55
387.633	8.58
387.841	8.15
388.049	8.26
388.257	8.09
388.465	8.06
388.672	7.87
388.88	7.87
389.088	7.69
389.296	7.97
389.504	8.07
389.712	7.93
389.92	7.66
390.128	7.89
390.336	8.01
390.544	8.06
390.751	8.06
390.959	7.93
391.167	7.83
391.375	7.96
391.583	7.73
391.79	7.69
391.998	7.82
392.206	7.73
392.414	7.97
392.621	7.83
392.829	7.91
393.037	8.25
393.244	8.37
393.452	8.33
393.66	8.32
393.867	8.35
394.075	8.35
394.283	8.24
394.49	8.29
394.698	8.25
394.905	8
395.113	7.95
395.32	7.69
395.528	7.75
395.735	8.11
395.943	8.14
396.15	7.82
396.358	7.54
396.565	7.7
396.773	7.49
396.98	7.45
397.188	7.81
397.395	7.64
397.602	7.27
397.81	7.2
398.017	6.67
398.225	6.68
398.432	7.09
398.639	7.35
398.847	7.31
399.054	7.7
399.261	7.56
399.468	7.56
399.676	7.39
399.883	7.5
400.09	7.36
400.297	7.78
400.505	7.87
400.712	7.81
400.919	7.7
401.126	7.73
401.333	7.61
401.54	7.44
401.748	7.37
401.955	7.5
402.162	7.71
402.369	8.09
402.576	8
402.783	7.5
402.99	7.62
403.197	7.73
403.404	7.6
403.611	7.62
403.818	7.74
404.025	7.91
404.232	7.68
404.439	7.77
404.646	7.63
404.853	7.51
405.06	7.52
405.267	7.52
405.474	7.43
405.681	7.31
405.887	7.46
406.094	7.47
406.301	7.14
406.508	7.62
406.715	7.38
406.922	6.94
407.128	6.59
407.335	6.72
407.542	6.71
407.749	6.69
407.955	6.89
408.162	6.93
408.369	6.81
408.575	7.17
408.782	6.76
408.989	6.78
409.195	7
409.402	7.25
409.609	7.24
409.815	7.07
410.022	7.14
410.228	7.05
410.435	6.81
410.642	6.91
410.848	6.57
411.055	6.64
411.261	6.9
411.468	7.02
411.674	7.09
411.881	7.18
412.087	7.17
412.294	7.22
412.5	7.1
412.706	7.04
412.913	7.04
413.119	7.08
413.326	7
413.532	6.82
413.738	6.49
413.945	6.37
414.151	6.63
414.357	6.84
414.564	6.73
414.77	6.79
414.976	6.82
415.182	6.61
415.389	6.61
415.595	6.6
415.801	6.48
416.007	6.85
416.214	6.83
416.42	6.49
416.626	6.28
416.832	6.63
417.038	6.71
417.244	6.61
417.45	6.81
417.657	6.89
417.863	7.09
418.069	7.15
418.275	7
418.481	7.01
418.687	6.96
418.893	6.99
419.099	6.84
419.305	6.88
419.511	6.91
419.717	6.81
419.923	6.77
420.129	6.56
420.335	6.4
420.541	6.45
420.746	6.4
420.952	6.55
421.158	6.47
421.364	6.44
421.57	6.31
421.776	6.31
421.982	6.3
422.187	6.27
422.393	6.27
422.599	6.26
422.805	6.08
423.01	6.08
423.216	5.89
423.422	5.77
423.628	5.8
423.833	5.83
424.039	5.87
424.245	5.73
424.45	5.76
424.656	5.82
424.862	5.9
425.067	5.9
425.273	5.95
425.478	6.02
425.684	6.21
425.889	6.13
426.095	6.12
426.301	6
426.506	6.18
426.712	6.04
426.917	6.11
427.123	6.25
427.328	6.3
427.533	6.24
427.739	6.36
427.944	6.3
428.15	6.23
428.355	6.09
428.561	6.18
428.766	6.05
428.971	6.19
429.177	6.04
429.382	5.96
429.587	6.18
429.793	6.29
429.998	6.02
430.203	6.03
430.408	6.1
430.614	6.3
430.819	6.14
431.024	6.26
431.229	6.2
431.434	6.1
431.64	6.01
431.845	5.91
432.05	5.9
432.255	5.96
432.46	5.94
432.665	5.94
432.87	5.96
433.076	6.12
433.281	5.95
433.486	6.18
433.691	6.25
433.896	6.25
434.101	6.14
434.306	5.98
434.511	6.08
434.716	6.12
434.921	6.11
435.126	6.03
435.331	5.92
435.535	6.14
435.74	5.89
435.945	5.96
436.15	6.01
436.355	6.36
436.56	6.39
436.765	6.47
436.97	6.42
437.174	6.33
437.379	6.25
437.584	6.22
437.789	6.09
437.993	6.08
438.198	6.1
438.403	5.94
438.608	5.83
438.812	5.9
439.017	5.75
439.222	5.69
439.426	5.65
439.631	5.6
439.836	5.83
440.04	5.82
440.245	5.87
440.45	5.89
440.654	5.94
440.859	5.72
441.063	5.79
441.268	5.83
441.472	5.85
441.677	5.91
441.881	5.96
442.086	5.6
442.29	5.69
442.495	5.63
442.699	5.54
442.904	5.7
443.108	5.84
443.312	5.63
443.517	5.59
443.721	5.66
443.925	5.67
444.13	5.72
444.334	5.97
444.538	5.99
444.743	6
444.947	6.04
445.151	5.87
445.356	5.95
445.56	6.05
445.764	6.07
445.968	6.05
446.173	6.06
446.377	6.04
446.581	5.97
446.785	5.8
446.989	5.84
447.193	5.77
447.398	5.64
447.602	5.52
447.806	5.5
448.01	5.41
448.214	5.41
448.418	5.36
448.622	5.27
448.826	5.41
449.03	5.64
449.234	5.47
449.438	5.41
449.642	5.47
449.846	5.57
450.05	5.49
450.254	5.64
450.458	5.67
450.662	5.64
450.866	5.74
451.069	5.5
451.273	5.28
451.477	5.41
451.681	5.48
451.885	5.6
452.089	5.55
452.292	5.51
452.496	5.22
452.7	5.12
452.904	5.01
453.107	5.23
453.311	5.48
453.515	5.43
453.719	5.5
453.922	5.52
454.126	5.44
454.33	5.38
454.533	5.47
454.737	5.69
454.94	5.71
455.144	5.92
455.348	5.77
455.551	5.6
455.755	5.55
455.958	5.36
456.162	5.43
456.365	5.59
456.569	5.58
456.772	5.48
456.976	5.56
457.179	5.75
457.383	5.63
457.586	5.64
457.79	5.73
457.993	5.79
458.196	5.86
458.4	5.82
458.603	5.79
458.807	5.91
459.01	6
459.213	5.91
459.417	5.77
459.62	5.78
459.823	5.75
460.026	5.63
460.23	5.65
460.433	5.69
460.636	5.6
460.839	5.52
461.042	5.52
461.246	5.54
461.449	5.44
461.652	5.37
461.855	5.36
462.058	5.28
462.261	5.39
462.464	5.35
462.668	5.37
462.871	5.55
463.074	5.56
463.277	5.42
463.48	5.43
463.683	5.6
463.886	5.77
464.089	5.71
464.292	5.84
464.495	5.92
464.698	5.85
464.901	5.77
465.104	5.78
465.306	5.9
465.509	5.87
465.712	5.78
465.915	5.85
466.118	5.8
466.321	6.02
466.524	5.96
466.726	5.79
466.929	5.87
467.132	5.7
467.335	5.62
467.538	5.43
467.74	5.48
467.943	5.5
468.146	5.44
468.348	5.43
468.551	5.37
468.754	5.42
468.956	5.5
469.159	5.45
469.362	5.58
469.564	5.59
469.767	5.78
469.969	5.72
470.172	5.73
470.375	5.71
470.577	5.72
470.78	5.72
470.982	5.7
471.185	5.79
471.387	5.73
471.59	5.91
471.792	5.78
471.995	5.73
472.197	5.73
472.399	5.78
472.602	5.74
472.804	5.67
473.007	5.62
473.209	5.51
473.411	5.43
473.614	5.57
473.816	5.4
474.018	5.53
474.22	5.56
474.423	5.59
474.625	5.42
474.827	5.44
475.03	5.33
475.232	5.36
475.434	5.52
475.636	5.48
475.838	5.55
476.04	5.57
476.243	5.49
476.445	5.5
476.647	5.46
476.849	5.44
477.051	5.39
477.253	5.46
477.455	5.42
477.657	5.28
477.859	5.34
478.061	5.22
478.263	5.16
478.465	5.09
478.667	5.07
478.869	5.35
479.071	5.36
479.273	5.28
479.475	5.33
479.677	5.25
479.879	5.4
480.081	5.3
480.283	5.35
480.485	5.38
480.686	5.53
480.888	5.45
481.09	5.19
481.292	5.26
481.494	5.36
481.695	5.41
481.897	5.47
482.099	5.38
482.301	5.43
482.502	5.4
482.704	5.34
482.906	5.29
483.107	5.32
483.309	5.31
483.511	5.32
483.712	5.29
483.914	5.3
484.115	5.28
484.317	5.28
484.519	5.25
484.72	5.28
484.922	5.31
485.123	5.33
485.325	5.3
485.526	5.32
485.728	5.31
485.929	5.37
486.131	5.3
486.332	5.36
486.534	5.35
486.735	5.36
486.936	5.36
487.138	5.35
487.339	5.27
487.541	5.32
487.742	5.35
487.943	5.36
488.144	5.29
488.346	5.33
488.547	5.34
488.748	5.36
488.95	5.37
489.151	5.37
489.352	5.38
489.553	5.58
489.755	5.51
489.956	5.53
490.157	5.58
490.358	5.63
490.559	5.66
490.76	5.57
490.961	5.59
491.163	5.57
491.364	5.49
491.565	5.47
491.766	5.36
491.967	5.35
492.168	5.3
492.369	5.33
492.57	5.28
492.771	5.24
492.972	5.18
493.173	5.15
493.374	5.19
493.575	5.23
493.776	5.23
493.976	5.23
494.177	5.29
494.378	5.41
494.579	5.3
494.78	5.35
494.981	5.4
495.182	5.56
495.382	5.48
495.583	5.37
495.784	5.33
495.985	5.39
496.185	5.35
496.386	5.39
496.587	5.35
496.788	5.26
496.988	5.36
497.189	5.26
497.39	5.37
497.59	5.49
497.791	5.54
497.992	5.62
498.192	5.69
498.393	5.77
498.593	5.83
498.794	5.8
498.994	5.82
499.195	5.81
499.395	5.87
499.596	5.86
499.796	5.83
499.997	5.81
500.197	5.73
500.398	5.69
500.598	5.62
500.799	5.59
500.999	5.52
501.199	5.7
501.4	5.64
501.6	5.5
501.801	5.26
502.001	5.16
502.201	5.21
502.402	5.38
502.602	5.39
502.802	5.27
503.002	5.36
503.203	5.54
503.403	5.51
503.603	5.48
503.803	5.79
504.003	5.84
504.204	6.01
504.404	5.93
504.604	5.91
504.804	5.98
505.004	6.26
505.204	6.08
505.404	6.02
505.604	5.99
505.804	6.07
506.005	6.05
506.205	6.03
506.405	5.87
506.605	6.01
506.805	5.86
507.005	5.72
507.204	5.66
507.404	5.67
507.604	5.64
507.804	5.75
508.004	5.82
508.204	5.74
508.404	5.85
508.604	5.98
508.804	5.97
509.003	6.1
509.203	6.03
509.403	5.96
509.603	6
509.803	6.05
510.002	5.94
510.202	5.78
510.402	5.79
510.602	5.75
510.801	5.63
511.001	5.56
511.201	5.49
511.4	5.57
511.6	5.66
511.8	5.76
511.999	5.64
512.199	5.75
512.398	5.81
512.598	5.86
512.797	5.96
512.997	5.91
513.197	6.03
513.396	6.13
513.596	6.03
513.795	6.01
513.994	6.03
514.194	6.26
514.393	6.18
514.593	6.39
514.792	6.36
514.992	6.3
515.191	6.46
515.39	6.4
515.59	6.49
515.789	6.6
515.988	6.59
516.188	6.43
516.387	6.36
516.586	6.49
516.786	6.31
516.985	6.33
517.184	6.31
517.383	6.3
517.582	6.36
517.782	6.27
517.981	6.35
518.18	6.35
518.379	6.42
518.578	6.43
518.777	6.33
518.976	6.37
519.176	6.39
519.375	6.54
519.574	6.52
519.773	6.5
519.972	6.63
520.171	6.68
520.37	6.74
520.569	6.88
520.768	6.95
520.967	7.08
521.166	7.1
521.365	7.16
521.564	7.11
521.762	7.18
521.961	7.31
522.16	7.23
522.359	7.19
522.558	7.28
522.757	7.19
522.956	7.27
523.154	7.27
523.353	7.3
523.552	7.29
523.751	7.32
523.949	7.4
524.148	7.26
524.347	7.41
524.546	7.46
524.744	7.45
524.943	7.54
525.142	7.45
525.34	7.48
525.539	7.53
525.737	7.59
525.936	7.68
526.135	7.73
526.333	7.82
526.532	7.76
526.73	7.79
526.929	7.8
527.127	7.81
527.326	7.86
527.524	7.9
527.723	7.88
527.921	7.88
528.12	7.86
528.318	7.81
528.516	7.8
528.715	7.86
528.913	7.9
529.112	7.94
529.31	7.93
529.508	7.97
529.707	7.94
529.905	8
530.103	8.05
530.301	8.06
530.5	8.14
530.698	8.26
530.896	8.24
531.094	8.25
531.293	8.3
531.491	8.37
531.689	8.42
531.887	8.53
532.085	8.59
532.283	8.59
532.481	8.64
532.68	8.69
532.878	8.74
533.076	8.79
533.274	8.84
533.472	8.77
533.67	8.77
533.868	8.74
534.066	8.72
534.264	8.7
534.462	8.75
534.66	8.83
534.858	8.81
535.056	8.79
535.253	8.75
535.451	8.77
535.649	8.88
535.847	8.99
536.045	9.05
536.243	9.26
536.441	9.37
536.638	9.38
536.836	9.44
537.034	9.53
537.232	9.58
537.43	9.8
537.627	9.75
537.825	9.76
538.023	9.75
538.22	9.88
538.418	9.78
538.616	9.75
538.813	9.84
539.011	9.82
539.209	9.89
539.406	9.98
539.604	9.89
539.801	10.16
539.999	10.25
540.196	10.29
540.394	10.31
540.591	10.27
540.789	10.36
540.986	10.33
541.184	10.39
541.381	10.35
541.579	10.31
541.776	10.33
541.974	10.34
542.171	10.35
542.368	10.4
542.566	10.44
542.763	10.53
542.96	10.56
543.158	10.72
543.355	10.76
543.552	10.94
543.75	11.01
543.947	11.12
544.144	11.17
544.341	11.38
544.539	11.46
544.736	11.56
544.933	11.64
545.13	11.76
545.327	11.69
545.524	11.77
545.722	11.75
545.919	11.84
546.116	11.86
546.313	11.93
546.51	11.78
546.707	11.96
546.904	12.01
547.101	12.12
547.298	12.15
547.495	12.27
547.692	12.4
547.889	12.39
548.086	12.56
548.283	12.73
548.48	12.88
548.677	12.99
548.874	12.92
549.07	13.05
549.267	13.06
549.464	13.36
549.661	13.43
549.858	13.69
550.055	13.82
550.251	14.09
550.448	14.08
550.645	14.32
550.842	14.62
551.038	14.64
551.235	14.66
551.432	14.89
551.628	14.73
551.825	14.84
552.022	14.65
552.218	14.84
552.415	14.81
552.612	15
552.808	14.75
553.005	14.72
553.201	14.91
553.398	15.03
553.594	14.88
553.791	15
553.987	15.34
554.184	15.29
554.38	15.25
554.577	15.3
554.773	15.35
554.97	15.61
555.166	15.91
555.362	15.86
555.559	15.99
555.755	16.25
555.952	16.42
556.148	16.23
556.344	16.52
556.541	16.65
556.737	16.68
556.933	16.73
557.129	16.62
557.326	16.41
557.522	16.48
557.718	16.6
557.914	16.72
558.11	16.57
558.307	16.68
558.503	16.7
558.699	16.74
558.895	16.75
559.091	16.79
559.287	17
559.483	17.21
559.679	17.5
559.876	17.49
560.072	17.62
560.268	17.95
560.464	17.93
560.66	18.25
560.856	18.42
561.052	18.47
561.247	18.66
561.443	18.71
561.639	18.76
561.835	18.78
562.031	18.87
562.227	18.83
562.423	18.9
562.619	19.24
562.815	19.23
563.01	19.43
563.206	19.64
563.402	19.67
563.598	19.84
563.793	20.1
563.989	20.33
564.185	20.44
564.381	20.79
564.576	21.03
564.772	21.04
564.968	21.05
565.163	21.12
565.359	21.3
565.555	21.51
565.75	21.69
565.946	21.75
566.141	21.75
566.337	21.75
566.532	21.97
566.728	21.92
566.923	21.93
567.119	22.08
567.314	22.18
567.51	22.31
567.705	22.44
567.901	22.38
568.096	22.54
568.292	22.6
568.487	22.66
568.682	22.68
568.878	22.91
569.073	23.03
569.268	23.21
569.464	23.28
569.659	23.19
569.854	23.31
570.05	23.45
570.245	23.33
570.44	23.57
570.635	23.82
570.831	23.8
571.026	23.77
571.221	23.9
571.416	24.11
571.611	24.3
571.806	24.47
572.002	24.43
572.197	24.62
572.392	24.87
572.587	25.01
572.782	24.96
572.977	25.11
573.172	25.33
573.367	25.4
573.562	25.43
573.757	25.56
573.952	25.61
574.147	25.75
574.342	25.88
574.537	25.99
574.732	26.03
574.927	26.11
575.121	26.01
575.316	26.1
575.511	26.06
575.706	26.13
575.901	26.02
576.096	26.26
576.29	26.37
576.485	26.4
576.68	26.2
576.875	26.2
577.069	26.39
577.264	26.53
577.459	26.34
577.654	26.36
577.848	26.33
578.043	26.48
578.238	26.4
578.432	26.37
578.627	26.38
578.821	26.76
579.016	26.7
579.21	26.76
579.405	27.06
579.6	27.27
579.794	27.57
579.989	27.48
580.183	27.56
580.378	27.65
580.572	27.85
580.766	27.99
580.961	27.73
581.155	27.78
581.35	27.97
581.544	27.88
581.738	27.8
581.933	27.85
582.127	28.02
582.321	28
582.516	28.18
582.71	28.27
582.904	28.22
583.099	28.44
583.293	28.57
583.487	28.56
583.681	28.87
583.875	29
584.07	29.03
584.264	29.13
584.458	29.02
584.652	28.97
584.846	29
585.04	29.24
585.234	29.47
585.428	29.52
585.623	29.54
585.817	29.22
586.011	29.26
586.205	29.33
586.399	29.51
586.593	29.87
586.787	29.74
586.981	29.84
587.174	29.55
587.368	29.33
587.562	29.59
587.756	29.74
587.95	29.88
588.144	29.89
588.338	30.02
588.532	30.1
588.725	30.1
588.919	30.17
589.113	30.41
589.307	30.72
589.501	31.07
589.694	30.88
589.888	31.12
590.082	31.28
590.275	31.21
590.469	31.13
590.663	31.03
590.856	30.89
591.05	31.08
591.244	31
591.437	30.93
591.631	30.88
591.824	30.87
592.018	30.48
592.212	30.36
592.405	30.6
592.599	30.93
592.792	31
592.986	31.28
593.179	31.42
593.372	31.41
593.566	31.4
593.759	31.38
593.953	31.56
594.146	31.7
594.339	31.76
594.533	31.72
594.726	31.55
594.92	31.47
595.113	31.3
595.306	31.39
595.499	31.16
595.693	31.2
595.886	31.29
596.079	31.42
596.272	31.42
596.466	31.44
596.659	31.4
596.852	31.44
597.045	31.54
597.238	31.53
597.431	31.46
597.624	31.7
597.818	31.91
598.011	31.95
598.204	31.9
598.397	32
598.59	31.9
598.783	32.06
598.976	32.07
599.169	32.37
599.362	32.55
599.555	32.53
599.748	32.43
599.941	32.23
600.134	32.14
600.326	32.19
600.519	32.04
600.712	32.17
600.905	32.33
601.098	32.47
601.291	32.3
601.483	32.35
601.676	32.4
601.869	32.59
602.062	32.53
602.255	32.62
602.447	32.58
602.64	32.61
602.833	32.56
603.025	32.66
603.218	32.47
603.411	32.42
603.603	32.52
603.796	32.63
603.989	32.5
604.181	32.61
604.374	32.71
604.566	32.83
604.759	32.81
604.951	32.77
605.144	32.6
605.336	32.67
605.529	32.65
605.721	32.6
605.914	32.58
606.106	32.65
606.299	32.79
606.491	32.62
606.683	32.56
606.876	32.7
607.068	32.89
607.26	32.79
607.453	32.82
607.645	32.85
607.837	32.76
608.03	32.79
608.222	32.99
608.414	32.73
608.606	32.93
608.799	33.17
608.991	33.39
609.183	33.47
609.375	33.77
609.567	33.88
609.759	33.89
609.952	34.12
610.144	34.2
610.336	34.16
610.528	34.43
610.72	34.38
610.912	34.23
611.104	34.16
611.296	34.02
611.488	33.92
611.68	33.99
611.872	34.05
612.064	34.12
612.256	34.06
612.448	34.03
612.64	34.13
612.832	34.51
613.023	34.73
613.215	34.57
613.407	34.78
613.599	34.76
613.791	34.47
613.983	34.44
614.174	34.17
614.366	34.14
614.558	33.9
614.75	33.65
614.941	33.38
615.133	33.39
615.325	33.58
615.516	33.71
615.708	34.06
615.9	34.24
616.091	34.21
616.283	34.14
616.475	34.12
616.666	34.51
616.858	34.49
617.049	34.48
617.241	34.36
617.432	34.19
617.624	34.12
617.815	34.06
618.007	33.69
618.198	33.67
618.39	33.61
618.581	33.98
618.773	33.56
618.964	33.71
619.155	33.57
619.347	33.41
619.538	33.52
619.729	33.45
619.921	33.44
620.112	33.81
620.303	34.11
620.494	34.22
620.686	33.95
620.877	34.17
621.068	33.93
621.259	34.3
621.451	34.58
621.642	34.61
621.833	34.7
622.024	34.5
622.215	34.34
622.406	34.25
622.597	34.34
622.788	34.49
622.98	34.33
623.171	34.7
623.362	34.69
623.553	34.53
623.744	34.64
623.935	34.79
624.126	34.91
624.317	34.98
624.508	35
624.698	35.05
624.889	34.82
625.08	35.1
625.271	35.24
625.462	35.3
625.653	35.1
625.844	35.2
626.034	35.22
626.225	35.1
626.416	35.22
626.607	35.25
626.798	35.28
626.988	35.33
627.179	35.36
627.37	35.16
627.56	35.03
627.751	35.29
627.942	35.2
628.132	35.17
628.323	35.29
628.514	35.27
628.704	35.55
628.895	35.5
629.085	35.6
629.276	35.41
629.466	35.56
629.657	35.44
629.847	35.44
630.038	35.41
630.228	35.45
630.419	35.55
630.609	35.72
630.8	35.51
630.99	35.78
631.181	35.78
631.371	35.8
631.561	35.47
631.752	35.62
631.942	35.49
632.132	35.44
632.323	35.28
632.513	35.1
632.703	35.08
632.893	34.93
633.084	34.55
633.274	34.52
633.464	34.73
633.654	34.88
633.844	34.79
634.034	34.86
634.225	34.96
634.415	35.01
634.605	34.78
634.795	34.92
634.985	34.83
635.175	35.07
635.365	34.97
635.555	34.93
635.745	35
635.935	35.05
636.125	35.15
636.315	35.25
636.505	35.04
636.695	35.16
636.885	34.65
637.075	34.83
637.265	35.09
637.455	35.21
637.644	35.11
637.834	35.2
638.024	35.18
638.214	35.13
638.404	35.02
638.593	35.26
638.783	35.63
638.973	35.94
639.163	36.29
639.352	36.04
639.542	36.16
639.732	36.41
639.921	36.1
640.111	36.36
640.301	36.36
640.49	36.57
640.68	36.45
640.87	36.31
641.059	36.4
641.249	36.41
641.438	36.42
641.628	36.19
641.817	36.33
642.007	36.67
642.196	36.33
642.386	36.35
642.575	36.16
642.764	36.42
642.954	36.57
643.143	36.83
643.333	36.49
643.522	36.84
643.711	37.12
643.901	36.83
644.09	36.94
644.279	37.3
644.469	37.35
644.658	37.34
644.847	37.37
645.036	37.1
645.226	37.05
645.415	36.84
645.604	36.6
645.793	36.86
645.982	36.93
646.171	36.63
646.361	36.6
646.55	36.62
646.739	36.91
646.928	37.27
647.117	37.46
647.306	37.33
647.495	37.48
647.684	37.46
647.873	37.26
648.062	37.37
648.251	37.55
648.44	37.28
648.629	37.06
648.818	37.27
649.007	36.88
649.196	36.85
649.384	37.02
649.573	36.76
649.762	36.92
649.951	36.82
650.14	36.84
650.328	36.91
650.517	36.91
650.706	37.45
650.895	37.16
651.083	37.23
651.272	36.83
651.461	36.64
651.65	37.07
651.838	36.99
652.027	36.97
652.216	36.92
652.404	36.54
652.593	36.9
652.781	36.51
652.97	36.37
653.158	36.27
653.347	36.66
653.535	36.47
653.724	36.2
653.912	36.34
654.101	36.53
654.289	36.63
654.478	37.08
654.666	36.68
654.855	36.75
655.043	36.74
655.231	36.78
655.42	36.62
655.608	37.14
655.796	37.32
655.985	37.63
656.173	37.82
656.361	37.94
656.55	37.79
656.738	38.04
656.926	37.97
657.114	38.21
657.302	37.69
657.491	37.7
657.679	37.33
657.867	37.25
658.055	36.82
658.243	36.74
658.431	36.65
658.619	36.77
658.807	36.83
658.996	36.87
659.184	36.58
659.372	37
659.56	37.21
659.748	37.49
659.936	37.59
660.124	37.53
660.311	37.52
660.499	37.38
660.687	37.18
660.875	37.16
661.063	37.42
661.251	37.63
661.439	37.56
661.627	37.56
661.814	37.37
662.002	37.23
662.19	37.52
662.378	37.52
662.565	37.41
662.753	37.77
662.941	37.96
663.129	37.37
663.316	37.34
663.504	37.18
663.692	37.31
663.879	37.32
664.067	37.46
664.254	37.33
664.442	36.98
664.63	37.41
664.817	37.45
665.005	37.12
665.192	37.57
665.38	37.36
665.567	38.15
665.755	37.88
665.942	37.99
666.13	38.26
666.317	38.14
666.504	37.97
666.692	37.67
666.879	37.73
667.067	38.13
667.254	38.03
667.441	38.69
667.629	37.91
667.816	37.82
668.003	37.66
668.19	37.61
668.378	37.75
668.565	38.07
668.752	38.51
668.939	38.05
669.127	37.52
669.314	37.57
669.501	36.95
669.688	37.19
669.875	37.64
670.062	37.66
670.249	37.54
670.436	37.75
670.623	38.3
670.81	38.04
670.997	38.07
671.184	38.76
671.371	39.1
671.558	39.55
671.745	39.64
671.932	39.37
672.119	39.09
672.306	39.04
672.493	38.71
672.68	38.27
672.867	38.66
673.054	38.98
673.24	38.79
673.427	38.71
673.614	38.36
673.801	38.33
673.988	38.37
674.174	39.29
674.361	39.52
674.548	39.96
674.734	39.8
674.921	39.71
675.108	39.48
675.294	39.46
675.481	39.4
675.668	39.74
675.854	40.11
676.041	40.15
676.227	40.03
676.414	39.93
676.601	39.46
676.787	39.37
676.974	39
677.16	38.84
677.347	38.77
677.533	38.29
677.719	38.04
677.906	37.56
678.092	37.65
678.279	37.16
678.465	37.52
678.651	37.59
678.838	37.6
679.024	37.7
679.21	38.08
679.397	37.76
679.583	38
679.769	38.14
679.955	38.11
680.142	38.53
680.328	38.72
680.514	38.34
680.7	38.24
680.886	38.45
681.073	38.41
681.259	38.68
681.445	38.83
681.631	39.08
681.817	39.35
682.003	39.55
682.189	39.11
682.375	38.81
682.561	38.94
682.747	39.41
682.933	39.43
683.119	39.45
683.305	39.25
683.491	39.09
683.677	39.11
683.863	38.86
684.049	39.09
684.235	39.4
684.42	39.47
684.606	39.71
684.792	39.9
684.978	40.06
685.164	40.36
685.349	40.53
685.535	40.87
685.721	40.68
685.907	40.36
686.092	40.23
686.278	39.82
686.464	40.07
686.649	39.67
686.835	39.24
687.021	38.96
687.206	38.69
687.392	37.99
687.577	37.86
687.763	37.43
687.948	38.01
688.134	37.77
688.319	38.02
688.505	38.08
688.69	38.11
688.876	37.93
689.061	38.03
689.247	38.26
689.432	38.58
689.618	38.9
689.803	39.54
689.988	39.39
690.174	39.97
690.359	39.66
690.544	39.77
690.73	40.02
690.915	39.9
691.1	40.01
691.285	40.08
691.471	39.77
691.656	39.91
691.841	39.76
692.026	39.22
692.211	38.67
692.396	38.83
692.582	38.39
692.767	38.55
692.952	38.83
693.137	39.14
693.322	38.95
693.507	39.26
693.692	39.11
693.877	38.79
694.062	39.62
694.247	39.59
694.432	39.72
694.617	40.12
694.802	40.12
694.987	39.81
695.172	39.35
695.357	39.49
695.541	38.84
695.726	38.82
695.911	39.34
696.096	38.44
696.281	38.61
696.466	38.76
696.65	38.67
696.835	38.32
697.02	38.4
697.204	38.3
697.389	38.32
697.574	39.04
697.759	38.55
697.943	38.47
698.128	38.73
698.312	38.84
698.497	38.32
698.682	38.21
698.866	38.11
699.051	38.15
699.235	38.38
699.42	38.33
699.604	38.35
699.789	38.42
699.973	38.51
700.158	38.43
700.342	38.1
700.527	38.58
700.711	38.79
700.895	38.92
701.08	38.92
701.264	38.69
701.448	38.9
701.633	38.91
701.817	39.53
702.001	39.11
702.186	39.7
702.37	39.92
702.554	39.75
702.738	39.56
702.923	40.3
703.107	40.44
703.291	41
703.475	40.69
703.659	40.83
703.843	40.93
704.027	41.12
704.212	40.62
704.396	40.86
704.58	40.77
704.764	40.36
704.948	39.12
705.132	39.32
705.316	38.59
705.5	38.82
705.684	38.21
705.868	37.46
706.052	38.08
706.235	38.46
706.419	37.87
706.603	38.79
706.787	39.19
706.971	40.22
707.155	40.1
707.339	40.47
707.522	40.13
707.706	40.48
707.89	40.82
708.074	40.73
708.257	40.16
708.441	40.73
708.625	39.94
708.808	39.93
708.992	39.33
709.176	39.56
709.359	38.84
709.543	39.02
709.727	39.27
709.91	38.98
710.094	38.61
710.277	39.17
710.461	38.96
710.644	39.45
710.828	39.62
711.011	39.83
711.195	39.41
711.378	40.49
711.562	40.58
711.745	40.17
711.928	40.28
712.112	39.89
712.295	40.18
712.478	39.98
712.662	39.62
712.845	39.49
713.028	39.27
713.212	39.01
713.395	38.91
713.578	39.17
713.761	39.2
713.945	39.59
714.128	40.22
714.311	39.75
714.494	39.88
714.677	39.72
714.86	40.15
715.043	40.5
715.227	40.65
715.41	40.32
715.593	40.26
715.776	40.27
715.959	40.45
716.142	40.42
716.325	40.64
716.508	40.9
716.691	41.29
716.874	40.97
717.057	40.47
717.239	40.98
717.422	41.36
717.605	41.64
717.788	41.6
717.971	41.09
718.154	41.29
718.337	40.72
718.519	40.6
718.702	39.97
718.885	40.46
719.068	40.83
719.25	41.23
719.433	41.52
719.616	40.5
719.798	40.48
719.981	41.48
720.164	41.15
720.346	41.71
720.529	41.34
720.712	41.36
720.894	40.73
721.077	40.67
721.259	40.62
721.442	40.43
721.624	41.27
721.807	41.9
721.989	41.15
722.172	40.99
722.354	40.78
722.537	41.69
722.719	42.16
722.901	42.91
723.084	42.68
723.266	42.48
723.448	41.99
723.631	42.53
723.813	42.01
723.995	42.05
724.178	41.96
724.36	42.2
724.542	41.72
724.724	41.49
724.907	41.8
725.089	42.45
725.271	42.53
725.453	42.98
725.635	42.81
725.817	43.76
725.999	43.42
726.181	43.93
726.364	43.49
726.546	42.93
726.728	43.28
726.91	42.35
727.092	41.87
727.274	41.61
727.456	41.88
727.638	40.82
727.819	40.37
728.001	40.83
728.183	40.52
728.365	40.68
728.547	41.15
728.729	41.33
728.911	41.46
729.093	41.52
729.274	41.45
729.456	40.67
729.638	40.28
729.82	40.22
730.001	39.43
730.183	39.15
730.365	39.37
730.546	39.79
730.728	39.3
730.91	39.74
731.091	39.24
731.273	38.84
731.455	38.47
731.636	38.9
731.818	38.49
731.999	38.91
732.181	39.19
732.362	39.44
732.544	39.28
732.725	39.33
732.907	39.22
733.088	40.25
733.27	40.91
733.451	41.37
733.633	41.9
733.814	42.35
733.995	42.21
734.177	42.12
734.358	41.87
734.539	42.02
734.721	42.03
734.902	41.87
735.083	41.13
735.264	40.85
735.446	41.01
735.627	41.24
735.808	40.6
735.989	40.44
736.17	40.35
736.351	39.87
736.533	39.47
736.714	40.02
736.895	39.9
737.076	40.11
737.257	39.93
737.438	40.05
737.619	39.48
737.8	39.77
737.981	40.37
738.162	40.88
738.343	40.95
738.524	41.63
738.705	41.6
738.886	41.89
739.067	42.36
739.247	42.73
739.428	42.16
739.609	42.31
739.79	43
739.971	42.98
740.151	42.45
740.332	42.63
740.513	41.43
740.694	41.11
740.874	40.55
741.055	40.52
741.236	40.72
741.417	41
741.597	40.7
741.778	39.72
741.958	39.31
742.139	40.18
742.32	39.87
742.5	41.03
742.681	41.15
742.861	40.73
743.042	40.09
743.222	39.82
743.403	40.11
743.583	40.87
743.764	42.09
743.944	42.52
744.124	40.68
744.305	42.18
744.485	42.33
744.666	41.96
744.846	41.93
745.026	42.49
745.207	42.43
745.387	42.1
745.567	42.59
745.747	41.78
745.928	41.42
746.108	42.97
746.288	41.86
746.468	41.01
746.648	40.93
746.829	41.76
747.009	42.32
747.189	41.69
747.369	43.52
747.549	42.63
747.729	42.38
747.909	43.78
748.089	43.68
748.269	43.44
748.449	43.1
748.629	44.01
748.809	43.53
748.989	42.94
749.169	44.34
749.349	42.39
749.529	42.58
749.709	43.21
749.889	42.5
750.068	42.34
750.248	42.48
750.428	43.18
750.608	42.91
750.788	42.64
750.967	43.26
751.147	42.57
751.327	42.56
751.507	41.85
751.686	41.66
751.866	40.96
752.046	40.91
752.225	40.99
752.405	40.3
752.585	39.66
752.764	40.79
752.944	39.73
753.123	39.62
753.303	40.67
753.482	41.15
753.662	40.88
753.841	41.11
754.021	41.31
754.2	41.26
754.38	41.08
754.559	41.4
754.739	39.41
754.918	39.39
755.097	39.29
755.277	38.55
755.456	38.38
755.635	38.74
755.815	39.29
755.994	38.7
756.173	39.24
756.352	40.19
756.532	40.72
756.711	42.21
756.89	42.93
757.069	42.46
757.248	41.8
757.427	42.38
757.607	41.86
757.786	41.43
757.965	41.47
758.144	40.94
758.323	41.25
758.502	40.44
758.681	40.55
758.86	40.45
759.039	40.71
759.218	40.55
759.397	40.55
759.576	40.12
759.755	40.26
759.934	40.24
760.113	39.96
760.291	40.3
760.47	40.13
760.649	40.54
760.828	40.51
761.007	41.09
761.186	42.56
761.364	41.89
761.543	42.9
761.722	42.78
761.901	43.27
762.079	43.14
762.258	42.14
762.437	43.58
762.615	42.81
762.794	42.76
762.972	42.62
763.151	42.18
763.33	42.15
763.508	41.48
763.687	41.4
763.865	41.13
764.044	41.47
764.222	41.98
764.401	41.34
764.579	41.44
764.758	41.13
764.936	41.08
765.114	40.86
765.293	40.93
765.471	41.39
765.65	41.62
765.828	41.58
766.006	41.62
766.184	40.74
766.363	40.08
766.541	40.37
766.719	40.99
766.898	41.58
767.076	41.42
767.254	41.61
767.432	41.75
767.61	41.82
767.788	42.1
767.967	42.74
768.145	43.6
768.323	44.12
768.501	43.97
768.679	43.01
768.857	41.92
769.035	42.03
769.213	41.38
769.391	41.83
769.569	41.59
769.747	41.99
769.925	41.43
770.103	40.02
770.281	40.93
770.459	40.93
770.636	42.19
770.814	43.4
770.992	43.82
771.17	44.55
771.348	43.34
771.525	42.72
771.703	44.12
771.881	44.39
772.059	45.58
772.236	44.11
772.414	44.92
772.592	43.93
772.769	42.32
772.947	43.16
773.125	44.81
773.302	44.45
773.48	44.63
773.657	44.09
773.835	43.31
774.013	44.36
774.19	45.26
774.368	44.61
774.545	44.53
774.723	45.66
774.9	44.24
775.077	41.55
775.255	41.11
775.432	40.94
775.61	39.98
775.787	39.3
775.964	37.95
776.142	38.82
776.319	40.11
776.496	41.61
776.674	41.68
776.851	42.66
777.028	43.28
777.205	44.66
777.382	45.13
777.56	45.48
777.737	45.44
777.914	45.87
778.091	45.86
778.268	44.6
778.445	43.72
778.622	42.79
778.8	43.35
778.977	42.51
779.154	43.33
779.331	44.04
779.508	44.29
779.685	45.57
779.862	44.98
780.038	43.7
780.215	43.48
780.392	43.37
780.569	44.44
780.746	43.88
780.923	43.62
781.1	41.93
781.277	40.6
781.453	39.14
781.63	38.24
781.807	39.34
781.984	39.7
782.16	40.31
782.337	39.35
782.514	38.36
782.691	38.22
782.867	38.48
783.044	39.55
783.221	41.28
783.397	42.78
783.574	44.09
783.75	43.41
783.927	44.83
784.103	44.79
784.28	44.2
784.456	44.51
784.633	44.16
784.809	44.58
784.986	42.85
785.162	41.91
785.339	40.58
785.515	39.48
785.692	39.48
785.868	36.77
786.044	35.9
786.221	37.64
786.397	39.27
786.573	38.72
786.749	39.35
786.926	39.44
787.102	39.06
787.278	40.39
787.454	40.9
787.631	40.72
787.807	43.16
787.983	43.32
788.159	42.8
788.335	41.63
788.511	42.68
788.687	43.77
788.863	44.66
789.039	46.25
789.216	44.57
789.392	43.52
789.568	43.19
789.744	42.4
789.919	43.74
790.095	42.8
790.271	44.02
790.447	41.61
790.623	41.06
790.799	42.59
790.975	41.3
791.151	42.34
791.327	43.4
791.502	43.09
791.678	44.04
791.854	44.31
792.03	45.76
792.205	44.73
792.381	47.64
792.557	48.12
792.733	45.53
792.908	45.85
793.084	46.6
793.259	46.6
793.435	47.29
793.611	46.05
793.786	45.21
793.962	44.65
794.137	44.23
794.313	43.4
794.488	41.56
794.664	43.87
794.839	42.44
795.015	41.6
795.19	40.85
795.366	40.98
795.541	39.72
795.716	38.2
795.892	38.4
796.067	38.88
796.242	38.71
796.418	39.26
796.593	36.96
796.768	36.11
796.944	36.55
797.119	38.46
797.294	39.75
797.469	40.84
797.644	40.29
797.82	40.29
797.995	39.39
798.17	40.33
798.345	41.14
798.52	41.22
798.695	41.93
798.87	42.36
799.045	41.19
799.22	40.11
799.395	40.36
799.57	41.38
799.745	41.73
799.92	43.01
800.095	42.49
800.27	40.92
800.445	40.5
800.62	41.07
800.795	39.41
800.97	38.64
801.145	39.04
801.319	36.79
801.494	37.46
801.669	38.45
801.844	39.01
802.018	39.01
802.193	41.04
802.368	42.46
802.543	42.02
802.717	40.09
802.892	42.04
803.067	43.51
803.241	44.43
803.416	44.88
803.59	44.8
803.765	43.49
803.94	43.32
804.114	42.73
804.289	42.35
804.463	41.08
804.638	42.33
804.812	40.78
804.986	41.01
805.161	42.98
805.335	41.75
805.51	41.17
805.684	40.32
805.858	40.55
806.033	39.76
806.207	37.68
806.381	40.53
806.556	40.73
806.73	43.57
806.904	42.22
807.078	42.87
807.253	44.34
807.427	44.64
807.601	45.05
807.775	45.17
807.949	45.07
808.123	48.16
808.298	48.32
808.472	49.7
808.646	47.03
808.82	46.35
808.994	46.1
809.168	45.47
809.342	43.56
809.516	42.74
809.69	42.27
809.864	42.19
810.038	43.66
810.212	42.88
810.385	43.51
810.559	44.36
810.733	43.04
810.907	42.09
811.081	43.29
811.255	42.75
811.428	43.25
811.602	43.89
811.776	47.11
811.95	45.47
812.123	44.99
812.297	43.08
812.471	41.59
812.644	42.88
812.818	46.49
812.992	46.11
813.165	48.32
813.339	49.42
813.512	50.34
813.686	46.7
813.86	47.94
814.033	48.54
814.207	50.47
814.38	50.54
814.554	49.31
814.727	45.52
814.9	47.21
815.074	47.29
815.247	48.25
815.421	44.3
815.594	44.26
815.767	42.97
815.941	40.43
816.114	40.69
816.287	42.74
816.46	44.59
816.634	46.14
816.807	42.56
816.98	42.52
817.153	42.41
817.327	45.69
817.5	46.2
817.673	45.67
817.846	47.34
818.019	48.63
818.192	48.82
818.365	47.01
818.538	46.18
818.711	47.73
818.884	46.82
819.057	43.43
819.23	43.16
819.403	43.65
819.576	43.88
819.749	43.5
819.922	41.73
820.095	42.17
820.268	42.03
820.441	42.06
820.614	41.28
820.786	39.87
820.959	40.51
821.132	42
821.305	41.42
821.477	41.74
821.65	41.58
821.823	40.76
821.996	39.86
822.168	40.31
822.341	40.23
822.514	39.93
822.686	40.14
822.859	40.07
823.031	39.62
823.204	39.75
823.376	39.07
823.549	38.81
823.722	39.13
823.894	39.07
824.067	39.01
824.239	38.91
824.411	39.06
824.584	39.21
824.756	39.13
824.929	38.66
825.101	38.47
825.273	38.97
825.446	39.23
825.618	39.12
825.79	39.77
825.963	39.55
826.135	39.01
826.307	38.62
826.479	38.83
826.652	39.37
826.824	39.5
826.996	39.83
827.168	40.31
827.34	40.48
827.512	40.78
827.684	40.76
827.856	41.11
828.029	41.73
828.201	42
828.373	41.69
828.545	42.36
828.717	42.44
828.889	42.46
829.061	42.06
829.232	43.29
829.404	44.58
829.576	44
829.748	44.03
829.92	43.13
830.092	44.71
830.264	45.49
830.436	45.45
830.607	45.92
830.779	44.98
830.951	45.74
831.123	44.27
831.294	43.43
831.466	45.08
831.638	44.88
831.809	45.49
831.981	44.64
832.153	44.73
832.324	46.68
832.496	46.89
832.667	49.8
832.839	47.46
833.011	46.84
833.182	44.09
833.354	43.62
833.525	44.71
833.697	44.83
833.868	44.67
834.039	44.4
834.211	42.43
834.382	41.62
834.554	40.13
834.725	41.21
834.896	41.58
835.068	41.65
835.239	39.47
835.41	38.6
835.581	40.66
835.753	39.65
835.924	39.61
836.095	39.14
836.266	40.65
836.438	40.87
836.609	42.62
836.78	42.58
836.951	42.06
837.122	42.14
837.293	41.95
837.464	39.6
837.635	41.35
837.806	42.03
837.977	41.84
838.148	40.45
838.319	39.68
838.49	35.83
838.661	36.53
838.832	39.95
839.003	42.87
839.174	46.33
839.345	46.96
839.516	46.04
839.687	45
839.857	43.35
840.028	37.95
840.199	35.34
840.37	34.15
840.54	32.06
840.711	30.68
840.882	32.06
841.053	29.75
841.223	31.9
841.394	28.71
841.564	29.3
841.735	32.18
841.906	41.37
842.076	48.52
842.247	53.58
842.417	51.19
842.588	49.53
842.758	45.17
842.929	42.37
843.099	39.66
843.27	44.27
843.44	44.23
843.611	43.1
843.781	38.8
843.951	37.06
844.122	35.03
844.292	33.95
844.462	32.38
844.633	34.18
844.803	37.37
844.973	35.24
845.144	35.39
845.314	39.21
845.484	41.63
845.654	45.51
845.824	47.72
845.995	47.69
846.165	58.66
846.335	69.64
846.505	64.85
846.675	62.67
846.845	73.06
847.015	66.3
847.185	65.52
847.355	60.52
847.525	55.04
847.695	54.17
847.865	59.73
848.035	53.02
848.205	41.11
848.375	52.81
848.545	59.7
848.715	50.31
848.884	56.12
849.054	58.56
849.224	64.19
849.394	78.58
849.564	75.69
849.733	69.5
849.903	73.4
850.073	72.22
850.243	71.05
850.412	68.76
850.582	72.5
850.752	70.08
850.921	62.48
851.091	59
851.26	53.6
851.43	52.34
851.599	47.5
851.769	47.18
851.939	54.12
852.108	50.7
852.278	52.81
852.447	58.19
852.616	58.9
852.786	64.56
852.955	67.64
853.125	67.58
853.294	69.78
853.463	77.97
853.633	70.81
853.802	83.43
853.971	76.43
854.141	69.24
854.31	59.39
854.479	60.7
854.648	57.78
854.818	52.23
854.987	51.05
855.156	49.29
855.325	50.37
855.494	54.47
855.663	44.14
855.832	54.34
856.001	62.93
856.171	62.12
856.34	55.52
856.509	52.53
856.678	54.89
856.847	51.03
857.016	48.54
857.185	42.56
857.353	35.53
857.522	39.1
857.691	36.71
857.86	30.8
858.029	32.33
858.198	45.02
858.367	48.11
858.535	46.8
858.704	51.96
858.873	54.13
859.042	51.99
859.21	55.86
859.379	50.98
859.548	59.03
859.717	62.9
859.885	58.41
860.054	54.98
860.222	47.21
860.391	51.44
860.56	54.68
860.728	58.5
860.897	58.84
861.065	53.45
861.234	58
861.402	55.07
861.571	51.47
861.739	48.92
861.908	44.04
862.076	44.18
862.244	44.07
862.413	45.87
862.581	35.6
862.749	44.07
862.918	51.7
863.086	56.43
863.254	47.51
863.423	42.88
863.591	34.67
863.759	37.17
863.927	44.87
864.096	45.73
864.264	35.89
864.432	40.79
864.6	43.75
864.768	42.11
864.936	38.99
865.104	40.66
865.272	51.93
865.44	65.2
865.608	62.47
865.776	51.5
865.944	46.13
866.112	44.89
866.28	43.5
866.448	40.53
866.616	40.42
866.784	25.47
866.952	24.39
867.12	19.47
867.288	21.88
867.455	25.13
867.623	30.87
867.791	37.43
867.959	41.2
868.127	47.83
868.294	42.73
868.462	42.77
868.63	47.03
868.797	50.67
868.965	58.47
869.133	53.3
869.3	55.54
869.468	56.59
869.636	52.67
869.803	45.63
869.971	43.46
870.138	43.22
870.306	39.71
870.473	36.32
870.641	44.47
870.808	39.85
870.975	42.97
871.143	38.47
871.31	31.42
871.478	26.17
871.645	37.45
871.812	36.02
871.98	47.93
872.147	48.53
872.314	60.01
872.482	46.27
872.649	43.84
872.816	48.98
872.983	47.9
873.15	45.35
873.318	51.92
873.485	52.08
873.652	56.55
873.819	50.56
873.986	41.5
874.153	41.14
874.32	47.09
874.487	52.67
874.654	48.36
874.821	42.73
874.988	49.51
875.155	47.55
875.322	38.96
875.489	27.54
875.656	21.77
875.823	33.11
875.99	41.98
876.157	42.11
876.324	47.41
876.49	48.39
876.657	51.65
876.824	52.23
876.991	54.84
877.157	55.31
877.324	63.47
877.491	68.78
877.658	70.5
877.824	63.64
877.991	63.74
878.157	53.57
878.324	54.67
878.491	65.02
878.657	60.25
878.824	59.16
878.99	57.69
879.157	54.82
879.323	54.41
879.49	61.19
879.656	67.12
879.823	64.39
879.989	63.61
880.156	53.44
880.322	46.77
880.488	48.12
880.655	43.41
880.821	44.87
880.987	39.05
881.154	41.12
881.32	49.19
881.486	41.86
881.652	36.9
881.819	36.63
881.985	40.38
882.151	39.61
882.317	40.17
882.483	42.94
882.649	43.68
882.816	43.97
882.982	43.32
883.148	39.35
883.314	40.49
883.48	42.64
883.646	44.26
883.812	43.76
883.978	44.35
884.144	44.22
884.31	43.12
884.476	42.3
884.642	42.79
884.807	41.96
884.973	43.26
885.139	43.77
885.305	41.4
885.471	40.92
885.637	41.78
885.802	41.03
885.968	43.54
886.134	43.62
886.3	43.41
886.465	44.46
886.631	43.89
886.797	46.17
886.962	45.87
887.128	51.79
887.293	51.89
887.459	51.86
887.625	54.75
887.79	51.94
887.956	50.73
888.121	53.13
888.287	50.87
888.452	54.98
888.618	46.87
888.783	47.54
