Data from LC_215__Reflection_1.txt Node
Date: Thu Nov 19 12:59:09 EST 2015
User: robert
Spectrometer: USB4E03001
Autoset integration time: false
Trigger mode: 4
Integration Time (sec): 1.000000E-1
Scans to average: 15
Electric dark correction enabled: true
Nonlinearity correction enabled: false
Boxcar width: 5
Stray light correction enabled: false
XAxis mode: Wavelengths
Stop averaging: false
Number of Pixels in Spectrum: 3648
>>>>>Begin Spectral Data<<<<<
177.566	-26.13
177.785	-17.25
178.005	8.55
178.225	175.06
178.445	126.13
178.665	136800
178.885	54.55
179.105	-307.85
179.324	169.63
179.544	72.55
179.764	4.93
179.984	-10.42
180.204	3.12
180.423	65.31
180.643	-564.09
180.863	-491.52
181.083	-82.98
181.302	-63.86
181.522	-118.45
181.742	-811.95
181.961	1170.5
182.181	1188.49
182.401	292.93
182.621	360.92
182.84	627.99
183.06	1337.73
183.279	1094.27
183.499	458.94
183.719	503.98
183.938	233.79
184.158	406.7
184.377	554.69
184.597	319.47
184.816	1684.17
185.036	6602.17
185.256	360.87
185.475	153.42
185.695	155.1
185.914	132.06
186.134	89.67
186.353	93.93
186.572	105.95
186.792	47.86
187.011	338.13
187.231	146.68
187.45	110.07
187.67	185.99
187.889	4593.94
188.108	195.02
188.328	-596.64
188.547	-55.01
188.766	-21.67
188.986	10.47
189.205	-165.52
189.424	185.92
189.644	-81.37
189.863	131.66
190.082	252.51
190.302	1038.85
190.521	-25.51
190.74	-327.59
190.959	-2263.38
191.178	5125.42
191.398	-1538.25
191.617	322.53
191.836	1177.75
192.055	-549.21
192.274	-179.92
192.494	-243.94
192.713	-87.99
192.932	-50.97
193.151	-76.92
193.37	-182.87
193.589	-92.67
193.808	-88.85
194.027	-61.46
194.246	-243.74
194.465	-76.66
194.685	5792.5
194.904	177.5
195.123	140.63
195.342	78.78
195.561	57.76
195.78	65.47
195.999	124.28
196.218	165.27
196.436	427.13
196.655	248.65
196.874	212.7
197.093	208.73
197.312	544.65
197.531	532.2
197.75	1236.24
197.969	-373.71
198.188	-384.9
198.407	-3253.67
198.625	309.54
198.844	403.5
199.063	959.86
199.282	892.53
199.501	-478.53
199.719	-730.8
199.938	-1286.56
200.157	1342.69
200.376	530.2
200.594	360.64
200.813	312.23
201.032	171.18
201.251	213.68
201.469	373.28
201.688	268.99
201.907	200.7
202.125	161.68
202.344	118.62
202.563	88.79
202.781	85.47
203	60.33
203.218	51.77
203.437	16.53
203.656	9.4
203.874	8.98
204.093	2.78
204.311	35.75
204.53	48.84
204.748	45.22
204.967	39.36
205.185	48.39
205.404	33.63
205.622	16.15
205.841	77.67
206.059	83.77
206.278	132.36
206.496	145.61
206.715	145.9
206.933	218.03
207.151	-237.37
207.37	61.76
207.588	-638.29
207.806	1165.83
208.025	493.56
208.243	-599.57
208.461	-438.21
208.68	-1062.02
208.898	1407.41
209.116	621.69
209.335	901.73
209.553	381.25
209.771	1143.98
209.989	-731.77
210.208	-365.64
210.426	-171.59
210.644	6.53
210.862	12.56
211.081	73.49
211.299	39.65
211.517	52.02
211.735	17.03
211.953	32.9
212.171	90.36
212.39	168.05
212.608	81.89
212.826	63.74
213.044	80.56
213.262	59.93
213.48	27.97
213.698	26.56
213.916	35.8
214.134	-22.17
214.352	16.25
214.57	169.62
214.788	-176.16
215.006	-705.84
215.224	427.76
215.442	216.24
215.66	182.54
215.878	-169.84
216.096	-17.95
216.314	-3.85
216.532	39.47
216.75	22.28
216.968	30.61
217.185	39.64
217.403	39.65
217.621	64.59
217.839	78.07
218.057	107.05
218.275	139.46
218.492	203.24
218.71	112.77
218.928	116.59
219.146	137.91
219.363	149.65
219.581	138.83
219.799	262.52
220.017	89.41
220.234	94.16
220.452	28.07
220.67	43.15
220.887	46.43
221.105	6.95
221.323	-7.87
221.54	-18.12
221.758	43.02
221.976	72.61
222.193	61.61
222.411	58.77
222.629	44.87
222.846	70.23
223.064	83.11
223.281	101
223.499	126.6
223.716	146.37
223.934	116.18
224.151	137.58
224.369	116.37
224.586	125.31
224.804	142.77
225.021	122.8
225.239	112.01
225.456	96.93
225.674	84.09
225.891	77.82
226.108	69.12
226.326	66.9
226.543	55.64
226.76	60.48
226.978	57.4
227.195	52.03
227.413	44.28
227.63	38.64
227.847	39.57
228.064	37.47
228.282	36.84
228.499	31.68
228.716	32.55
228.934	32.19
229.151	30.64
229.368	30.57
229.585	30.61
229.802	31.08
230.02	27.33
230.237	25.08
230.454	25.87
230.671	22.38
230.888	23.2
231.105	21.06
231.323	19.25
231.54	14.52
231.757	13.14
231.974	11.94
232.191	16.39
232.408	21.27
232.625	23.37
232.842	24.09
233.059	22.27
233.276	29.99
233.493	38.38
233.71	34.53
233.927	36.17
234.144	37.59
234.361	32.11
234.578	31.08
234.795	27.59
235.012	33.24
235.229	32.24
235.446	27.99
235.663	26.79
235.879	23.86
236.096	28.96
236.313	27.97
236.53	23.97
236.747	22.7
236.964	19.11
237.181	19.39
237.397	12.87
237.614	7.26
237.831	11.59
238.048	9.36
238.264	4.01
238.481	3.75
238.698	2.8
238.915	-4.84
239.131	-4.03
239.348	-0.13
239.565	3.12
239.781	9.88
239.998	12.53
240.215	13.94
240.431	12.6
240.648	18.02
240.865	16.02
241.081	19.22
241.298	20.09
241.514	23.07
241.731	23.02
241.947	20.82
242.164	18.7
242.38	19.23
242.597	20.42
242.814	18.92
243.03	17.9
243.246	18.9
243.463	17.51
243.679	18.89
243.896	18.25
244.112	16.76
244.329	16.7
244.545	16
244.762	15.23
244.978	12.65
245.194	14.19
245.411	14.26
245.627	12.14
245.843	12.52
246.06	12.94
246.276	11.96
246.492	12.4
246.709	14.1
246.925	15.24
247.141	14.89
247.357	14.25
247.574	14.68
247.79	15.67
248.006	16.08
248.222	15.63
248.439	15.85
248.655	15.92
248.871	16.1
249.087	14.66
249.303	14.95
249.519	14.64
249.736	15.16
249.952	13.76
250.168	10.31
250.384	12.4
250.6	14.22
250.816	13.01
251.032	14.26
251.248	13.29
251.464	14.5
251.68	13.34
251.896	11.35
252.112	12.14
252.328	10.61
252.544	11.09
252.76	9.66
252.976	7.72
253.192	8.64
253.408	6.71
253.624	8.06
253.84	8.05
254.056	8.98
254.272	12.33
254.487	13.46
254.703	16.23
254.919	16.68
255.135	18.08
255.351	18.61
255.567	19.56
255.782	19.76
255.998	16.87
256.214	16.65
256.43	17.77
256.646	19.98
256.861	15.46
257.077	17.63
257.293	18.53
257.508	17.16
257.724	16.8
257.94	13.26
258.155	15.5
258.371	16.41
258.587	16.44
258.802	13.98
259.018	12.8
259.234	12.75
259.449	11.3
259.665	11.5
259.88	11.17
260.096	11.15
260.312	12.1
260.527	11.58
260.743	11.32
260.958	10.82
261.174	11.56
261.389	11.48
261.605	12.53
261.82	12.49
262.036	12.22
262.251	12.45
262.466	11.85
262.682	11.47
262.897	10.04
263.113	9.25
263.328	9.99
263.543	9.5
263.759	10.18
263.974	9.56
264.189	8.85
264.405	10.18
264.62	11.92
264.835	12.93
265.051	14.33
265.266	14.59
265.481	16.08
265.696	14.91
265.912	14
266.127	13.15
266.342	12.78
266.557	14.16
266.773	12.23
266.988	11.41
267.203	11.08
267.418	8.57
267.633	9.75
267.848	9.38
268.064	10.14
268.279	10.49
268.494	10.75
268.709	11.16
268.924	12.09
269.139	13.43
269.354	15.39
269.569	16.46
269.784	17.91
269.999	18.46
270.214	18.4
270.429	18.58
270.644	18.61
270.859	18.61
271.074	19.5
271.289	18.93
271.504	17.14
271.719	16.17
271.934	14.85
272.149	15.34
272.363	14.34
272.578	13.97
272.793	13.66
273.008	14.33
273.223	13.51
273.438	12.02
273.653	11.96
273.867	12.82
274.082	11.81
274.297	13.7
274.512	13.54
274.726	13.94
274.941	14.6
275.156	14.79
275.371	13.45
275.585	13.92
275.8	14.6
276.015	13.32
276.229	14.07
276.444	13.71
276.659	13.85
276.873	14.7
277.088	13.69
277.302	13.18
277.517	13.23
277.732	13.73
277.946	15.09
278.161	14.79
278.375	17.69
278.59	17.01
278.804	17.87
279.019	17.16
279.233	16.16
279.448	17.13
279.662	15.81
279.877	13.86
280.091	13.83
280.306	12.51
280.52	12.04
280.735	10.09
280.949	9.47
281.163	9.19
281.378	7.84
281.592	7.57
281.806	7.98
282.021	9.47
282.235	11.2
282.449	11.18
282.664	11.53
282.878	11.15
283.092	10.97
283.307	11.33
283.521	10.89
283.735	12.98
283.949	12.53
284.164	12.55
284.378	12
284.592	11.22
284.806	10.47
285.02	10.21
285.234	10.54
285.449	12
285.663	12.79
285.877	13.62
286.091	13.22
286.305	13.5
286.519	13.26
286.733	12.87
286.947	14.37
287.161	14.35
287.375	14.26
287.589	14.64
287.803	13.59
288.017	14.64
288.231	13.78
288.445	13.25
288.659	14.49
288.873	14.8
289.087	16.59
289.301	15.2
289.515	16
289.729	16.2
289.943	16.46
290.157	16.36
290.371	13.97
290.584	13.49
290.798	12.82
291.012	11.45
291.226	11.4
291.44	10.91
291.654	10.55
291.867	9.43
292.081	9.39
292.295	9.52
292.509	8.96
292.722	9.7
292.936	10.86
293.15	12.17
293.364	12.6
293.577	11.8
293.791	10.98
294.005	11.89
294.218	11.38
294.432	10.75
294.645	9.55
294.859	10.06
295.073	10.35
295.286	10.46
295.5	10.76
295.713	10.48
295.927	9.65
296.14	9.7
296.354	9.63
296.568	11.25
296.781	11.13
296.994	11.26
297.208	12.1
297.421	12.81
297.635	12.33
297.848	11.27
298.062	11.19
298.275	12.45
298.489	13.1
298.702	13.55
298.915	12.57
299.129	14.28
299.342	15.09
299.555	14.57
299.769	13.43
299.982	15.06
300.195	16.67
300.409	17.23
300.622	17.63
300.835	18.48
301.048	17.75
301.262	18.78
301.475	17.87
301.688	17.77
301.901	15.92
302.115	15.2
302.328	14.33
302.541	13.44
302.754	12.43
302.967	12.41
303.18	10.53
303.393	11.39
303.607	10.19
303.82	9.23
304.033	9.84
304.246	11.89
304.459	13.99
304.672	13.49
304.885	12.95
305.098	13.94
305.311	12.48
305.524	12.48
305.737	12.09
305.95	12.62
306.163	12.67
306.376	11.69
306.589	11.99
306.802	10.29
307.015	11.23
307.228	12.14
307.44	11.26
307.653	11.87
307.866	13.39
308.079	13.34
308.292	14.49
308.505	14.14
308.718	14.52
308.93	12.89
309.143	13.65
309.356	12.59
309.569	12.43
309.781	14.01
309.994	13.65
310.207	12.45
310.42	12.88
310.632	12.11
310.845	12.41
311.058	12.07
311.27	12.91
311.483	13.17
311.696	13.93
311.908	14.01
312.121	13.22
312.333	13.69
312.546	14.05
312.759	13.36
312.971	13.65
313.184	13.82
313.396	15.11
313.609	14.52
313.821	14.05
314.034	13.59
314.246	14.48
314.459	13.36
314.671	13.69
314.884	14.54
315.096	15.4
315.309	14.86
315.521	14.55
315.733	13.63
315.946	13.52
316.158	13.76
316.371	14.24
316.583	13.11
316.795	13.79
317.008	12.57
317.22	11.77
317.432	10.16
317.644	11.97
317.857	13.02
318.069	13.73
318.281	14.95
318.494	14.84
318.706	14.9
318.918	15.61
319.13	15.67
319.342	16.52
319.555	15.75
319.767	16.74
319.979	15.17
320.191	14.51
320.403	13.36
320.615	11.85
320.827	10.74
321.039	9.73
321.252	8.49
321.464	7.81
321.676	8.76
321.888	8.58
322.1	7.6
322.312	8.14
322.524	9.27
322.736	9.19
322.948	10.38
323.16	11.82
323.372	12.18
323.584	12.43
323.796	13.69
324.007	12.66
324.219	13.65
324.431	14.8
324.643	14.93
324.855	14.31
325.067	14.06
325.279	12.96
325.491	12.29
325.702	11.2
325.914	11.26
326.126	10.79
326.338	10.7
326.55	10.13
326.761	10.43
326.973	9.46
327.185	9.11
327.396	9.8
327.608	10.29
327.82	10.22
328.032	11.23
328.243	11.67
328.455	12.25
328.666	12.07
328.878	12.54
329.09	10.86
329.301	11.93
329.513	12.28
329.725	11.89
329.936	12.64
330.148	11.75
330.359	12.9
330.571	13.37
330.782	13.23
330.994	14.79
331.205	14.6
331.417	15.03
331.628	13.92
331.84	13.6
332.051	13.54
332.262	12.25
332.474	12.9
332.685	11.65
332.897	10.69
333.108	10.25
333.319	9.66
333.531	9.28
333.742	10.12
333.953	10.24
334.165	10.88
334.376	10.91
334.587	11.65
334.799	12.4
335.01	12.44
335.221	12
335.432	11.58
335.644	11.99
335.855	12.52
336.066	11.3
336.277	12.49
336.488	10.55
336.7	10.93
336.911	10.55
337.122	10.03
337.333	10.1
337.544	10.8
337.755	11.34
337.966	10.66
338.177	9.84
338.388	10.56
338.599	9.7
338.811	11.41
339.022	11.77
339.233	11.42
339.444	11.83
339.655	11.71
339.866	11.08
340.076	10.63
340.287	10.54
340.498	11.7
340.709	11.2
340.92	10.82
341.131	11.02
341.342	10.29
341.553	11.17
341.764	11.02
341.975	10.9
342.185	10.8
342.396	10.86
342.607	11.11
342.818	10.7
343.029	10.38
343.239	11
343.45	10.64
343.661	10.88
343.872	10.57
344.082	10.43
344.293	10.77
344.504	11.48
344.714	11.75
344.925	11.35
345.136	11.08
345.346	11.5
345.557	11.57
345.768	11.95
345.978	11.31
346.189	11.39
346.399	11.66
346.61	10.98
346.821	10.64
347.031	10.56
347.242	10.27
347.452	10.94
347.663	10.92
347.873	10.59
348.084	10.07
348.294	10.21
348.504	9.93
348.715	9.85
348.925	10.08
349.136	10.16
349.346	9.98
349.557	10.99
349.767	10.17
349.977	10.42
350.188	10.59
350.398	10.74
350.608	11.29
350.819	11.42
351.029	11.93
351.239	12.29
351.449	12.77
351.66	12.89
351.87	11.58
352.08	10.87
352.29	10.48
352.501	10.21
352.711	10.18
352.921	10.02
353.131	10.34
353.341	9.71
353.552	9.53
353.762	9.16
353.972	8.65
354.182	9.38
354.392	10.02
354.602	10.49
354.812	10.73
355.022	9.61
355.232	9.07
355.442	8.71
355.652	8.5
355.862	8.68
356.072	8.74
356.282	8.75
356.492	8.6
356.702	8.16
356.912	7.75
357.122	7.65
357.332	9.05
357.542	9.51
357.752	9.64
357.962	9.74
358.171	9.41
358.381	9
358.591	8.48
358.801	8.7
359.011	9.79
359.221	10.19
359.43	10.66
359.64	9.78
359.85	9.55
360.06	9.41
360.269	9.14
360.479	9.17
360.689	9.26
360.899	9.51
361.108	9.61
361.318	8.93
361.528	8.35
361.737	8.21
361.947	8.27
362.156	8.07
362.366	8.17
362.576	8.34
362.785	8.56
362.995	9.01
363.204	9.66
363.414	9.63
363.623	9.58
363.833	9.75
364.042	9.57
364.252	9.95
364.461	9.9
364.671	9.74
364.88	9.54
365.09	9.53
365.299	8.97
365.509	8.77
365.718	8.67
365.927	8.86
366.137	9.55
366.346	8.85
366.555	8.78
366.765	9.09
366.974	9.33
367.183	9.32
367.393	8.92
367.602	9.01
367.811	8.91
368.021	8.06
368.23	8
368.439	7.09
368.648	8.24
368.857	7.6
369.067	7.88
369.276	7.32
369.485	7.43
369.694	7.28
369.903	6.84
370.112	6.74
370.321	7.17
370.531	7.08
370.74	7.14
370.949	6.64
371.158	7.27
371.367	6.11
371.576	6.59
371.785	6.65
371.994	6.82
372.203	6.9
372.412	7.2
372.621	7.8
372.83	7.77
373.039	7.71
373.248	7.87
373.457	7.84
373.666	8.49
373.874	8.12
374.083	7.78
374.292	7.45
374.501	7.7
374.71	7.07
374.919	6.47
375.128	6.81
375.336	7.09
375.545	7.15
375.754	7.13
375.963	7.59
376.171	7.71
376.38	8.2
376.589	8.7
376.798	8.55
377.006	9.19
377.215	9.59
377.424	9.42
377.632	9.74
377.841	9.42
378.05	9.52
378.258	9.25
378.467	9.22
378.675	8.7
378.884	7.92
379.093	8.06
379.301	7.7
379.51	7.34
379.718	7.1
379.927	6.64
380.135	6.29
380.344	6.13
380.552	6.23
380.761	6.15
380.969	6.47
381.177	6.93
381.386	7.03
381.594	6.73
381.803	6.52
382.011	6.86
382.219	6.98
382.428	7.64
382.636	7.8
382.845	7.42
383.053	7.5
383.261	7.17
383.469	7.26
383.678	6.99
383.886	7.22
384.094	7.41
384.302	7.11
384.511	7.19
384.719	6.53
384.927	6.47
385.135	6.36
385.343	6.52
385.552	6.58
385.76	6.51
385.968	6.7
386.176	6.65
386.384	6.56
386.592	6.87
386.8	6.58
387.008	6.87
387.216	6.63
387.424	6.83
387.633	6.76
387.841	6.63
388.049	6.85
388.257	6.46
388.465	6.39
388.672	6.45
388.88	6.44
389.088	6.76
389.296	6.7
389.504	6.32
389.712	6.22
389.92	5.85
390.128	5.89
390.336	5.33
390.544	5.4
390.751	5.72
390.959	5.77
391.167	5.58
391.375	5.47
391.583	5.41
391.79	5.66
391.998	5.74
392.206	6.16
392.414	6.26
392.621	6.32
392.829	6.42
393.037	6.37
393.244	6.53
393.452	6.42
393.66	6.28
393.867	6.21
394.075	6.2
394.283	6.27
394.49	5.98
394.698	6.18
394.905	6.51
395.113	6.52
395.32	6.24
395.528	5.97
395.735	6.15
395.943	6.38
396.15	6.36
396.358	6.41
396.565	6.49
396.773	6.71
396.98	6.66
397.188	6.3
397.395	6.45
397.602	6.69
397.81	6.83
398.017	6.85
398.225	6.53
398.432	6.79
398.639	6.96
398.847	6.88
399.054	6.75
399.261	6.71
399.468	6.94
399.676	6.78
399.883	6.69
400.09	6.46
400.297	6.67
400.505	6.92
400.712	6.77
400.919	6.69
401.126	6.78
401.333	6.78
401.54	6.96
401.748	7.04
401.955	7.1
402.162	7.02
402.369	7.07
402.576	6.59
402.783	6.29
402.99	6.59
403.197	6.43
403.404	6.31
403.611	6.35
403.818	6.22
404.025	6.04
404.232	5.82
404.439	5.94
404.646	5.68
404.853	5.96
405.06	6.25
405.267	5.96
405.474	6.04
405.681	6.04
405.887	5.97
406.094	5.84
406.301	6.04
406.508	6.12
406.715	6.18
406.922	6.51
407.128	6.29
407.335	6.1
407.542	6.41
407.749	6.05
407.955	6.25
408.162	6.15
408.369	6.28
408.575	6.33
408.782	6.23
408.989	5.88
409.195	5.6
409.402	5.75
409.609	6.04
409.815	5.72
410.022	5.89
410.228	5.47
410.435	5.72
410.642	5.31
410.848	5.03
411.055	4.93
411.261	5.02
411.468	5.16
411.674	4.94
411.881	4.74
412.087	4.77
412.294	4.96
412.5	4.85
412.706	4.66
412.913	5.11
413.119	5.35
413.326	5.77
413.532	6.03
413.738	6.12
413.945	6.13
414.151	6.3
414.357	6.43
414.564	6.37
414.77	6.29
414.976	6.22
415.182	6.32
415.389	6.02
415.595	5.76
415.801	5.53
416.007	5.35
416.214	5.56
416.42	5.37
416.626	5.22
416.832	5.11
417.038	5.46
417.244	5.48
417.45	5.14
417.657	5.1
417.863	5
418.069	5.11
418.275	5.23
418.481	5.17
418.687	5.35
418.893	5.43
419.099	5.54
419.305	5.35
419.511	5.4
419.717	5.43
419.923	5.53
420.129	5.58
420.335	5.51
420.541	5.46
420.746	5.38
420.952	5.13
421.158	5.09
421.364	5.01
421.57	4.96
421.776	4.98
421.982	5.03
422.187	5.06
422.393	5.07
422.599	5.1
422.805	5.22
423.01	5.27
423.216	5.45
423.422	5.46
423.628	5.58
423.833	5.78
424.039	5.74
424.245	5.67
424.45	5.62
424.656	5.65
424.862	5.58
425.067	5.61
425.273	5.52
425.478	5.45
425.684	5.53
425.889	5.43
426.095	5.3
426.301	5.36
426.506	5.43
426.712	5.56
426.917	5.57
427.123	5.56
427.328	5.31
427.533	5.51
427.739	5.53
427.944	5.48
428.15	5.54
428.355	5.74
428.561	5.75
428.766	5.7
428.971	5.58
429.177	5.47
429.382	5.56
429.587	5.71
429.793	5.65
429.998	5.58
430.203	5.77
430.408	5.94
430.614	5.71
430.819	5.64
431.024	5.7
431.229	5.91
431.434	5.92
431.64	5.83
431.845	5.93
432.05	5.91
432.255	5.95
432.46	5.73
432.665	5.41
432.87	5.47
433.076	5.49
433.281	5.41
433.486	5.21
433.691	5.3
433.896	5.35
434.101	5.12
434.306	5.03
434.511	4.91
434.716	4.8
434.921	4.98
435.126	4.99
435.331	4.75
435.535	4.8
435.74	4.93
435.945	4.79
436.15	4.88
436.355	4.91
436.56	5.1
436.765	5.31
436.97	5.37
437.174	5.41
437.379	5.49
437.584	5.64
437.789	5.59
437.993	5.48
438.198	5.74
438.403	5.59
438.608	5.7
438.812	5.67
439.017	5.47
439.222	5.67
439.426	5.49
439.631	5.44
439.836	5.49
440.04	5.62
440.245	5.57
440.45	5.32
440.654	5.33
440.859	5.16
441.063	5.09
441.268	5.32
441.472	5.19
441.677	5.3
441.881	5.32
442.086	5.34
442.29	5.37
442.495	5.55
442.699	5.58
442.904	5.48
443.108	5.57
443.312	5.53
443.517	5.35
443.721	5.32
443.925	5.19
444.13	5.2
444.334	5.15
444.538	5.13
444.743	5.11
444.947	5.15
445.151	5.37
445.356	5.55
445.56	5.73
445.764	5.69
445.968	5.7
446.173	5.76
446.377	5.61
446.581	5.65
446.785	5.55
446.989	5.57
447.193	5.57
447.398	5.56
447.602	5.49
447.806	5.37
448.01	5.56
448.214	5.52
448.418	5.63
448.622	5.77
448.826	5.78
449.03	5.82
449.234	5.79
449.438	5.94
449.642	5.91
449.846	6.05
450.05	6.1
450.254	6.01
450.458	6
450.662	5.97
450.866	5.81
451.069	5.76
451.273	5.67
451.477	5.69
451.681	5.58
451.885	5.61
452.089	5.52
452.292	5.44
452.496	5.37
452.7	5.48
452.904	5.38
453.107	5.54
453.311	5.69
453.515	5.98
453.719	5.88
453.922	5.84
454.126	5.76
454.33	5.74
454.533	5.97
454.737	5.86
454.94	5.86
455.144	5.8
455.348	5.87
455.551	5.73
455.755	5.52
455.958	5.63
456.162	5.67
456.365	5.73
456.569	5.59
456.772	5.52
456.976	5.47
457.179	5.41
457.383	5.41
457.586	5.16
457.79	5.1
457.993	5.15
458.196	5.1
458.4	5.08
458.603	5.08
458.807	5.16
459.01	5.1
459.213	5.19
459.417	5.18
459.62	5.29
459.823	5.33
460.026	5.36
460.23	5.34
460.433	5.41
460.636	5.42
460.839	5.4
461.042	5.29
461.246	5.22
461.449	5.11
461.652	5.13
461.855	4.99
462.058	4.96
462.261	4.81
462.464	4.89
462.668	4.67
462.871	4.6
463.074	4.56
463.277	4.64
463.48	4.67
463.683	4.77
463.886	4.66
464.089	4.9
464.292	4.87
464.495	5.01
464.698	4.92
464.901	5.19
465.104	5.5
465.306	5.61
465.509	5.63
465.712	5.57
465.915	5.61
466.118	5.69
466.321	5.5
466.524	5.61
466.726	5.76
466.929	5.86
467.132	5.56
467.335	5.31
467.538	5.18
467.74	5.21
467.943	5.25
468.146	5.3
468.348	5.42
468.551	5.38
468.754	5.41
468.956	5.3
469.159	5.25
469.362	5.4
469.564	5.42
469.767	5.61
469.969	5.49
470.172	5.7
470.375	5.57
470.577	5.37
470.78	5.47
470.982	5.39
471.185	5.4
471.387	5.25
471.59	5.39
471.792	5.42
471.995	5.34
472.197	5.32
472.399	5.22
472.602	5.36
472.804	5.22
473.007	5.2
473.209	5.23
473.411	5.25
473.614	5.24
473.816	4.98
474.018	4.99
474.22	4.96
474.423	5.09
474.625	5.06
474.827	4.89
475.03	4.98
475.232	5.07
475.434	5.14
475.636	5.06
475.838	5.06
476.04	5.04
476.243	5.1
476.445	4.97
476.647	5.07
476.849	5.01
477.051	5.09
477.253	5.29
477.455	5.28
477.657	5.2
477.859	5.26
478.061	5.33
478.263	5.39
478.465	5.28
478.667	5.46
478.869	5.48
479.071	5.5
479.273	5.4
479.475	5.45
479.677	5.36
479.879	5.46
480.081	5.52
480.283	5.45
480.485	5.51
480.686	5.54
480.888	5.51
481.09	5.43
481.292	5.37
481.494	5.41
481.695	5.4
481.897	5.29
482.099	5.13
482.301	4.99
482.502	4.94
482.704	4.91
482.906	4.97
483.107	4.94
483.309	4.88
483.511	4.91
483.712	4.89
483.914	4.79
484.115	4.83
484.317	4.89
484.519	4.9
484.72	4.95
484.922	4.97
485.123	4.94
485.325	4.94
485.526	4.98
485.728	5
485.929	5
486.131	5.06
486.332	5.1
486.534	5.01
486.735	5.04
486.936	5.02
487.138	5.01
487.339	5.02
487.541	5.02
487.742	5.03
487.943	5.04
488.144	5.08
488.346	5.16
488.547	5.15
488.748	5.22
488.95	5.16
489.151	5.18
489.352	5.17
489.553	5.21
489.755	5.19
489.956	5.22
490.157	5.24
490.358	5.26
490.559	5.18
490.76	5.14
490.961	5.19
491.163	5.27
491.364	5.27
491.565	5.19
491.766	5.14
491.967	5.22
492.168	5.17
492.369	5.03
492.57	5.04
492.771	4.98
492.972	4.93
493.173	4.89
493.374	4.88
493.575	4.85
493.776	4.97
493.976	4.95
494.177	4.92
494.378	5.02
494.579	5.1
494.78	4.9
494.981	4.88
495.182	4.9
495.382	5.03
495.583	5.08
495.784	5.13
495.985	5.1
496.185	5.2
496.386	5.18
496.587	5.16
496.788	5.18
496.988	5.43
497.189	5.6
497.39	5.67
497.59	5.62
497.791	5.61
497.992	5.56
498.192	5.66
498.393	5.58
498.593	5.56
498.794	5.55
498.994	5.61
499.195	5.57
499.395	5.55
499.596	5.76
499.796	5.6
499.997	5.65
500.197	5.67
500.398	5.48
500.598	5.47
500.799	5.47
500.999	5.43
501.199	5.48
501.4	5.49
501.6	5.53
501.801	5.34
502.001	5.44
502.201	5.5
502.402	5.63
502.602	5.69
502.802	5.59
503.002	5.73
503.203	5.59
503.403	5.5
503.603	5.52
503.803	5.44
504.003	5.49
504.204	5.57
504.404	5.38
504.604	5.31
504.804	5.36
505.004	5.49
505.204	5.41
505.404	5.6
505.604	5.62
505.804	5.65
506.005	5.66
506.205	5.67
506.405	5.67
506.605	5.75
506.805	5.82
507.005	5.93
507.204	6.01
507.404	5.96
507.604	5.86
507.804	5.95
508.004	5.9
508.204	5.9
508.404	5.83
508.604	5.73
508.804	5.68
509.003	5.63
509.203	5.58
509.403	5.54
509.603	5.43
509.803	5.51
510.002	5.41
510.202	5.4
510.402	5.49
510.602	5.53
510.801	5.61
511.001	5.6
511.201	5.56
511.4	5.56
511.6	5.56
511.8	5.65
511.999	5.73
512.199	5.8
512.398	5.75
512.598	5.73
512.797	5.74
512.997	5.74
513.197	5.78
513.396	5.88
513.596	5.89
513.795	5.93
513.994	6.06
514.194	6.04
514.393	6.1
514.593	6.3
514.792	6.28
514.992	6.3
515.191	6.21
515.39	6.26
515.59	6.36
515.789	6.39
515.988	6.47
516.188	6.45
516.387	6.43
516.586	6.47
516.786	6.5
516.985	6.62
517.184	6.73
517.383	6.82
517.582	6.84
517.782	6.74
517.981	6.74
518.18	6.61
518.379	6.67
518.578	6.59
518.777	6.43
518.976	6.31
519.176	6.25
519.375	6.22
519.574	6.24
519.773	6.16
519.972	6.22
520.171	6.16
520.37	6.26
520.569	6.21
520.768	6.29
520.967	6.45
521.166	6.44
521.365	6.52
521.564	6.5
521.762	6.47
521.961	6.57
522.16	6.48
522.359	6.47
522.558	6.4
522.757	6.49
522.956	6.54
523.154	6.47
523.353	6.55
523.552	6.47
523.751	6.57
523.949	6.5
524.148	6.61
524.347	6.73
524.546	6.81
524.744	6.87
524.943	6.87
525.142	6.86
525.34	6.93
525.539	6.95
525.737	6.91
525.936	6.87
526.135	7.05
526.333	7.08
526.532	7.03
526.73	7.03
526.929	7.02
527.127	6.96
527.326	6.94
527.524	6.95
527.723	6.97
527.921	6.96
528.12	6.92
528.318	6.88
528.516	6.8
528.715	6.82
528.913	6.86
529.112	6.89
529.31	6.94
529.508	6.92
529.707	7.03
529.905	7.01
530.103	7.07
530.301	7.15
530.5	7.15
530.698	7.25
530.896	7.26
531.094	7.23
531.293	7.31
531.491	7.29
531.689	7.37
531.887	7.23
532.085	7.35
532.283	7.38
532.481	7.42
532.68	7.51
532.878	7.52
533.076	7.52
533.274	7.57
533.472	7.61
533.67	7.63
533.868	7.75
534.066	7.8
534.264	7.81
534.462	7.78
534.66	7.72
534.858	7.69
535.056	7.75
535.253	7.79
535.451	7.85
535.649	7.8
535.847	7.87
536.045	7.82
536.243	7.94
536.441	7.94
536.638	8.02
536.836	8.07
537.034	8.22
537.232	8.19
537.43	8.26
537.627	8.24
537.825	8.3
538.023	8.32
538.22	8.38
538.418	8.23
538.616	8.23
538.813	8.36
539.011	8.39
539.209	8.38
539.406	8.46
539.604	8.59
539.801	8.58
539.999	8.56
540.196	8.63
540.394	8.65
540.591	8.73
540.789	8.84
540.986	8.85
541.184	8.93
541.381	8.91
541.579	8.87
541.776	8.83
541.974	8.9
542.171	8.94
542.368	8.98
542.566	8.97
542.763	8.95
542.96	8.89
543.158	8.88
543.355	8.87
543.552	8.89
543.75	8.96
543.947	9.01
544.144	9.01
544.341	9.02
544.539	8.91
544.736	8.97
544.933	9.09
545.13	9.21
545.327	9.23
545.524	9.3
545.722	9.48
545.919	9.48
546.116	9.49
546.313	9.41
546.51	9.48
546.707	9.66
546.904	9.7
547.101	9.69
547.298	9.74
547.495	9.76
547.692	9.76
547.889	9.7
548.086	9.78
548.283	10.01
548.48	10.32
548.677	10.44
548.874	10.42
549.07	10.57
549.267	10.7
549.464	10.86
549.661	11.04
549.858	11.14
550.055	11.32
550.251	11.3
550.448	11.25
550.645	11.21
550.842	11.25
551.038	11.36
551.235	11.48
551.432	11.46
551.628	11.37
551.825	11.58
552.022	11.58
552.218	11.51
552.415	11.71
552.612	11.73
552.808	11.7
553.005	11.72
553.201	11.78
553.398	11.73
553.594	11.85
553.791	11.97
553.987	11.84
554.184	11.94
554.38	12.09
554.577	12.12
554.773	12.2
554.97	12.41
555.166	12.43
555.362	12.54
555.559	12.58
555.755	12.68
555.952	12.85
556.148	13.01
556.344	13.08
556.541	12.99
556.737	12.87
556.933	12.9
557.129	12.82
557.326	13
557.522	13.06
557.718	13.1
557.914	13.33
558.11	13.31
558.307	13.33
558.503	13.47
558.699	13.62
558.895	13.89
559.091	14.02
559.287	14.21
559.483	14.31
559.679	14.35
559.876	14.4
560.072	14.06
560.268	14.15
560.464	14.05
560.66	14.1
560.856	14.09
561.052	14.13
561.247	14.08
561.443	14.12
561.639	14.08
561.835	13.98
562.031	14.13
562.227	14.31
562.423	14.24
562.619	14.35
562.815	14.47
563.01	14.75
563.206	14.97
563.402	15.13
563.598	15.29
563.793	15.41
563.989	15.77
564.185	15.78
564.381	15.99
564.576	16.2
564.772	16.48
564.968	16.36
565.163	16.22
565.359	16.22
565.555	16.32
565.75	16.47
565.946	16.56
566.141	16.47
566.337	16.68
566.532	16.62
566.728	16.66
566.923	16.58
567.119	16.68
567.314	16.95
567.51	17.1
567.705	17.01
567.901	17
568.096	17.18
568.292	17.24
568.487	17.21
568.682	17.48
568.878	17.5
569.073	17.59
569.268	17.8
569.464	17.69
569.659	17.75
569.854	18.04
570.05	18.05
570.245	17.79
570.44	17.92
570.635	17.82
570.831	17.81
571.026	18.04
571.221	18.21
571.416	18.2
571.611	18.32
571.806	18.29
572.002	18.42
572.197	18.53
572.392	18.64
572.587	18.55
572.782	18.83
572.977	19.01
573.172	19.02
573.367	19.09
573.562	19.22
573.757	19.26
573.952	19.3
574.147	19.26
574.342	19.25
574.537	19.43
574.732	19.66
574.927	19.62
575.121	19.62
575.316	19.53
575.511	19.74
575.706	19.67
575.901	19.7
576.096	19.82
576.29	19.73
576.485	19.78
576.68	19.76
576.875	19.85
577.069	19.89
577.264	19.91
577.459	20.04
577.654	19.79
577.848	19.94
578.043	19.86
578.238	19.99
578.432	20.31
578.627	20.23
578.821	20.42
579.016	20.45
579.21	20.63
579.405	20.43
579.6	20.52
579.794	20.6
579.989	20.57
580.183	20.86
580.378	20.79
580.572	20.76
580.766	21.17
580.961	21.28
581.155	21.46
581.35	21.76
581.544	22.09
581.738	22.21
581.933	22.3
582.127	22.31
582.321	22.28
582.516	22.29
582.71	22.18
582.904	22.01
583.099	22.01
583.293	22.13
583.487	21.91
583.681	21.9
583.875	21.75
584.07	21.86
584.264	21.99
584.458	22.23
584.652	22.34
584.846	22.36
585.04	22.49
585.234	22.53
585.428	22.51
585.623	22.46
585.817	22.6
586.011	22.74
586.205	22.66
586.399	22.7
586.593	22.66
586.787	22.89
586.981	23.29
587.174	23.28
587.368	23.19
587.562	23.29
587.756	23.42
587.95	23.54
588.144	23.56
588.338	23.81
588.532	23.87
588.725	24.16
588.919	24.21
589.113	24.01
589.307	24.11
589.501	24.3
589.694	24.29
589.888	24.38
590.082	24.42
590.275	24.49
590.469	24.61
590.663	24.73
590.856	24.52
591.05	24.48
591.244	24.79
591.437	24.91
591.631	25
591.824	24.99
592.018	24.92
592.212	25.11
592.405	25.23
592.599	25.23
592.792	25.33
592.986	25.52
593.179	25.45
593.372	25.21
593.566	25.36
593.759	25.34
593.953	25.24
594.146	25.31
594.339	25.16
594.533	25.17
594.726	25.08
594.92	25.09
595.113	25.09
595.306	25.28
595.499	25.52
595.693	25.34
595.886	25.54
596.079	25.42
596.272	25.43
596.466	25.39
596.659	25.32
596.852	25.27
597.045	25.31
597.238	25.27
597.431	25.21
597.624	25.13
597.818	25.14
598.011	25.03
598.204	25.28
598.397	25.19
598.59	25.38
598.783	25.58
598.976	25.56
599.169	25.55
599.362	25.54
599.555	25.74
599.748	25.85
599.941	26.02
600.134	26.03
600.326	26.19
600.519	26.74
600.712	26.87
600.905	26.99
601.098	27.18
601.291	27
601.483	27.22
601.676	26.96
601.869	26.85
602.062	26.85
602.255	26.96
602.447	26.77
602.64	26.66
602.833	26.42
603.025	26.21
603.218	26.31
603.411	26.48
603.603	26.46
603.796	26.67
603.989	26.81
604.181	26.79
604.374	26.85
604.566	27.1
604.759	27.16
604.951	27.28
605.144	27.48
605.336	27.59
605.529	27.77
605.721	27.76
605.914	27.71
606.106	27.81
606.299	28.06
606.491	28
606.683	28
606.876	27.97
607.068	28.01
607.26	27.92
607.453	27.85
607.645	27.93
607.837	28.05
608.03	28.15
608.222	28.25
608.414	28.03
608.606	27.95
608.799	27.76
608.991	27.78
609.183	27.89
609.375	27.98
609.567	28.02
609.759	27.95
609.952	28.11
610.144	28.03
610.336	27.97
610.528	27.96
610.72	28.12
610.912	28.23
611.104	28.21
611.296	28.15
611.488	28.23
611.68	28.35
611.872	28.36
612.064	28.4
612.256	28.43
612.448	28.49
612.64	28.6
612.832	28.7
613.023	28.88
613.215	28.97
613.407	28.97
613.599	29.16
613.791	29.28
613.983	29.42
614.174	29.06
614.366	29.22
614.558	29.28
614.75	29.4
614.941	29.38
615.133	29.45
615.325	29.42
615.516	29.49
615.708	29.26
615.9	29.11
616.091	29.04
616.283	29.04
616.475	29.06
616.666	29.3
616.858	29.15
617.049	29.24
617.241	29.21
617.432	29.14
617.624	29.36
617.815	29.43
618.007	29.58
618.198	29.5
618.39	29.67
618.581	29.76
618.773	29.48
618.964	29.79
619.155	29.76
619.347	29.75
619.538	29.9
619.729	29.73
619.921	30.07
620.112	30.21
620.303	30.23
620.494	30.46
620.686	30.45
620.877	30.57
621.068	30.68
621.259	30.76
621.451	30.76
621.642	30.83
621.833	31.03
622.024	30.85
622.215	30.67
622.406	30.93
622.597	30.71
622.788	30.64
622.98	30.4
623.171	30.22
623.362	30.26
623.553	30.47
623.744	30.44
623.935	30.23
624.126	30.07
624.317	30.48
624.508	30.37
624.698	30.67
624.889	30.91
625.08	31.16
625.271	31.4
625.462	31.28
625.653	31.4
625.844	31.12
626.034	31.01
626.225	31.08
626.416	30.73
626.607	30.67
626.798	30.62
626.988	30.42
627.179	30.33
627.37	30.32
627.56	30.42
627.751	30.01
627.942	30.36
628.132	30.33
628.323	30.73
628.514	31.07
628.704	31.11
628.895	31.04
629.085	30.98
629.276	31.17
629.466	31.03
629.657	30.93
629.847	31.15
630.038	31.01
630.228	31.35
630.419	30.94
630.609	30.78
630.8	30.95
630.99	31
631.181	31.48
631.371	31.66
631.561	31.86
631.752	32.01
631.942	32.26
632.132	32.49
632.323	32.56
632.513	32.63
632.703	32.36
632.893	32.4
633.084	32.51
633.274	32.35
633.464	32.05
633.654	32.02
633.844	32.16
634.034	31.75
634.225	31.55
634.415	31.59
634.605	31.75
634.795	32.12
634.985	32.01
635.175	31.88
635.365	31.86
635.555	32.27
635.745	32.27
635.935	32.14
636.125	32.28
636.315	32.56
636.505	32.69
636.695	32.62
636.885	32.36
637.075	32.72
637.265	32.72
637.455	32.67
637.644	32.62
637.834	32.38
638.024	32.36
638.214	32.72
638.404	32.84
638.593	33.06
638.783	33.13
638.973	33.13
639.163	32.77
639.352	32.97
639.542	33.22
639.732	33.19
639.921	33.64
640.111	33.74
640.301	33.67
640.49	33.41
640.68	32.94
640.87	32.67
641.059	33.15
641.249	33.49
641.438	33.81
641.628	33.79
641.817	33.52
642.007	33.23
642.196	33.45
642.386	33.72
642.575	33.83
642.764	34.09
642.954	34.3
643.143	33.98
643.333	33.84
643.522	33.54
643.711	33.51
643.901	33.42
644.09	33.75
644.279	33.73
644.469	33.38
644.658	33.11
644.847	32.97
645.036	32.88
645.226	33.2
645.415	33.47
645.604	33.31
645.793	33.77
645.982	34.42
646.171	34.5
646.361	34.62
646.55	34.92
646.739	35.33
646.928	35.16
647.117	35.65
647.306	35.39
647.495	35
647.684	35.21
647.873	34.63
648.062	34.62
648.251	34.64
648.44	34.27
648.629	34.01
648.818	34.14
649.007	34.39
649.196	34.36
649.384	34.53
649.573	34.64
649.762	34.8
649.951	34.67
650.14	34.5
650.328	34.55
650.517	34.75
650.706	34.8
650.895	34.72
651.083	35.01
651.272	35.07
651.461	35
651.65	35.29
651.838	35.47
652.027	35.78
652.216	35.75
652.404	35.69
652.593	35.73
652.781	35.82
652.97	35.61
653.158	35.31
653.347	34.95
653.535	35
653.724	34.97
653.912	34.91
654.101	34.89
654.289	34.86
654.478	34.88
654.666	34.98
654.855	34.69
655.043	35.14
655.231	35.13
655.42	35.5
655.608	35.55
655.796	35.43
655.985	35.38
656.173	35.45
656.361	35.44
656.55	35.4
656.738	35.48
656.926	35.75
657.114	35.47
657.302	35.62
657.491	35.51
657.679	35.55
657.867	35.5
658.055	35.29
658.243	35.13
658.431	35.35
658.619	35.49
658.807	35.44
658.996	35.53
659.184	35.78
659.372	35.76
659.56	35.88
659.748	35.76
659.936	36.02
660.124	35.93
660.311	36.25
660.499	36.11
660.687	35.95
660.875	36.06
661.063	36.02
661.251	35.98
661.439	36.03
661.627	35.95
661.814	36.08
662.002	35.68
662.19	36.44
662.378	36.51
662.565	36.52
662.753	36.63
662.941	35.93
663.129	35.95
663.316	35.9
663.504	35.77
663.692	35.98
663.879	35.8
664.067	36.47
664.254	35.91
664.442	35.93
664.63	36.17
664.817	36.11
665.005	36.92
665.192	36.86
665.38	37.03
665.567	37.27
665.755	37.28
665.942	37.67
666.13	37
666.317	36.95
666.504	36.81
666.692	36.9
666.879	37.13
667.067	36.65
667.254	37.06
667.441	36.63
667.629	36.75
667.816	36.73
668.003	36.71
668.19	37
668.378	37.04
668.565	37.11
668.752	36.91
668.939	36.97
669.127	36.96
669.314	36.61
669.501	36.64
669.688	36.83
669.875	36.53
670.062	36.98
670.249	36.92
670.436	36.73
670.623	36.55
670.81	36.62
670.997	36.47
671.184	36.71
671.371	36.69
671.558	37.38
671.745	37.06
671.932	37.45
672.119	36.95
672.306	37.07
672.493	37.39
672.68	37.9
672.867	37.73
673.054	37.8
673.24	38.47
673.427	38.81
673.614	38.35
673.801	38.3
673.988	37.91
674.174	38.16
674.361	38.36
674.548	38.36
674.734	37.95
674.921	38.9
675.108	38.56
675.294	38.31
675.481	38.23
675.668	38.81
675.854	39.16
676.041	39.52
676.227	39.65
676.414	39.54
676.601	39.36
676.787	39.31
676.974	38.34
677.16	38.82
677.347	38.74
677.533	38.71
677.719	37.97
677.906	37.6
678.092	37.72
678.279	37.45
678.465	37.3
678.651	37.42
678.838	37.51
679.024	37.87
679.21	37.56
679.397	37.51
679.583	37.62
679.769	37.73
679.955	38.14
680.142	37.93
680.328	37.77
680.514	37.94
680.7	38.52
680.886	38.56
681.073	38.49
681.259	38.9
681.445	38.8
681.631	38.97
681.817	39.13
682.003	39.07
682.189	38.99
682.375	39.35
682.561	39.53
682.747	39.41
682.933	39.23
683.119	38.93
683.305	38.63
683.491	38.64
683.677	38.5
683.863	38.59
684.049	38.43
684.235	38.58
684.42	38.81
684.606	38.34
684.792	37.93
684.978	37.98
685.164	38.65
685.349	39.04
685.535	39.22
685.721	39.35
685.907	39.41
686.092	39.4
686.278	39.42
686.464	38.71
686.649	39.21
686.835	39.53
687.021	39.68
687.206	39.32
687.392	38.73
687.577	38.65
687.763	38.76
687.948	38.35
688.134	38.54
688.319	38.81
688.505	39.25
688.69	39.31
688.876	39.29
689.061	39.48
689.247	39.59
689.432	40.03
689.618	40.16
689.803	40.05
689.988	40.51
690.174	41.08
690.359	40.66
690.544	40.79
690.73	40.84
690.915	40.66
691.1	40.96
691.285	41.07
691.471	41.19
691.656	41.27
691.841	41.74
692.026	41.45
692.211	41.05
692.396	41.85
692.582	41.37
692.767	40.73
692.952	40.57
693.137	40.01
693.322	39.89
693.507	39.49
693.692	39.47
693.877	39.03
694.062	39.73
694.247	40.14
694.432	39.62
694.617	40.04
694.802	40.47
694.987	40.93
695.172	41.15
695.357	41.18
695.541	41.26
695.726	41.49
695.911	41.44
696.096	41.21
696.281	40.55
696.466	40.8
696.65	40.81
696.835	40.6
697.02	40.25
697.204	40.84
697.389	40.85
697.574	41.17
697.759	41.02
697.943	40.77
698.128	40.7
698.312	40.47
698.497	40.07
698.682	40.16
698.866	40.16
699.051	40.25
699.235	39.92
699.42	40.14
699.604	39.95
699.789	40.02
699.973	39.92
700.158	39.87
700.342	40.35
700.527	40.91
700.711	40.93
700.895	41.59
701.08	41.83
701.264	41.78
701.448	42.25
701.633	42.26
701.817	42.24
702.001	42.84
702.186	42.74
702.37	42.5
702.554	41.67
702.738	41.4
702.923	41.17
703.107	40.73
703.291	40.85
703.475	40.09
703.659	40.23
703.843	40.2
704.027	40.15
704.212	39.82
704.396	40.55
704.58	41.56
704.764	41.53
704.948	41.22
705.132	41.94
705.316	41.43
705.5	41.17
705.684	41.13
705.868	41.33
706.052	41.65
706.235	42.44
706.419	41.54
706.603	41.39
706.787	41.84
706.971	41.85
707.155	41.48
707.339	41.98
707.522	42.49
707.706	42.91
707.89	42.83
708.074	42.41
708.257	41.95
708.441	41.83
708.625	40.97
708.808	40.92
708.992	40.91
709.176	41.49
709.359	41.65
709.543	41.6
709.727	41.42
709.91	41
710.094	40.46
710.277	40.39
710.461	40.64
710.644	41.32
710.828	41.36
711.011	41.28
711.195	40.85
711.378	40.49
711.562	40.42
711.745	40.02
711.928	40.33
712.112	41.32
712.295	41.57
712.478	41.68
712.662	42.19
712.845	42.83
713.028	43.49
713.212	43.38
713.395	43.85
713.578	43.52
713.761	43.87
713.945	43.83
714.128	43.54
714.311	43.46
714.494	43.45
714.677	42.77
714.86	42.21
715.043	41.62
715.227	42.19
715.41	41.82
715.593	41.65
715.776	41.91
715.959	42.04
716.142	41.56
716.325	41.33
716.508	41.01
716.691	40.95
716.874	40.79
717.057	41.01
717.239	40.61
717.422	40.99
717.605	41.45
717.788	41.42
717.971	42.07
718.154	42.77
718.337	43.48
718.519	44.08
718.702	43.81
718.885	44.02
719.068	44.36
719.25	44.26
719.433	43.93
719.616	44.02
719.798	43.31
719.981	42.56
720.164	42.17
720.346	41.74
720.529	41.45
720.712	41.52
720.894	41.43
721.077	40.66
721.259	40.85
721.442	40.55
721.624	40.85
721.807	41.38
721.989	41.35
722.172	41.94
722.354	42.1
722.537	42.36
722.719	43.51
722.901	42.89
723.084	43.02
723.266	43.16
723.448	43.51
723.631	43.26
723.813	43.19
723.995	43.01
724.178	42.78
724.36	43.27
724.542	42.91
724.724	42.22
724.907	42.29
725.089	42.61
725.271	43.01
725.453	42.23
725.635	42.49
725.817	42.46
725.999	42.95
726.181	42.6
726.364	42.96
726.546	42.46
726.728	42.45
726.91	43.86
727.092	43.21
727.274	42.52
727.456	43.23
727.638	42.27
727.819	42.43
728.001	42.31
728.183	42.09
728.365	41.14
728.547	42.14
728.729	42.63
728.911	41.75
729.093	42.1
729.274	42.04
729.456	42.05
729.638	42.68
729.82	42.99
730.001	42.88
730.183	43.65
730.365	44.02
730.546	43.73
730.728	43.24
730.91	43.27
731.091	43.9
731.273	43.91
731.455	44.22
731.636	43.89
731.818	43.46
731.999	43.7
732.181	43.91
732.362	43.48
732.544	43.59
732.725	43.43
732.907	43.69
733.088	42.93
733.27	42.99
733.451	43.02
733.633	44.01
733.814	44.28
733.995	44.01
734.177	43.6
734.358	44.23
734.539	44.24
734.721	44.21
734.902	44.18
735.083	44.85
735.264	44.88
735.446	45.15
735.627	44.14
735.808	44.15
735.989	43.7
736.17	42.63
736.351	42.3
736.533	41.99
736.714	41.91
736.895	41.13
737.076	40.76
737.257	41.03
737.438	39.67
737.619	40.05
737.8	39.39
737.981	40.63
738.162	41.65
738.343	41.74
738.524	43.01
738.705	43.69
738.886	44.68
739.067	44.34
739.247	43.81
739.428	43.86
739.609	44.72
739.79	45.93
739.971	45.24
740.151	45.28
740.332	45.2
740.513	44.38
740.694	44.54
740.874	44.45
741.055	45.01
741.236	45.95
741.417	46.02
741.597	44.61
741.778	44.5
741.958	44.54
742.139	45.37
742.32	45.45
742.5	45.05
742.681	44.89
742.861	44.71
743.042	44.34
743.222	43.54
743.403	44.21
743.583	43.65
743.764	42.6
743.944	42.77
744.124	42.1
744.305	42.67
744.485	43.04
744.666	43.22
744.846	42.83
745.026	43.55
745.207	44.65
745.387	44.93
745.567	46.77
745.747	46.79
745.928	46.55
746.108	46.57
746.288	46.69
746.468	47.03
746.648	46.37
746.829	46.92
747.009	46.76
747.189	44.99
747.369	44.85
747.549	44.38
747.729	44.94
747.909	45.85
748.089	46.15
748.269	44.8
748.449	43.7
748.629	43.99
748.809	43.76
748.989	44.55
749.169	45.01
749.349	45.11
749.529	44.19
749.709	44
749.889	42.87
750.068	42.84
750.248	44.02
750.428	44.17
750.608	44.86
750.788	45.16
750.967	44.2
751.147	44.84
751.327	44.97
751.507	45.64
751.686	45.81
751.866	47.18
752.046	46.64
752.225	46.04
752.405	46.54
752.585	45.32
752.764	45.34
752.944	44.96
753.123	45.03
753.303	45.39
753.482	45.42
753.662	45.3
753.841	44.51
754.021	44.89
754.2	44.66
754.38	45.21
754.559	45.69
754.739	45.17
754.918	45.44
755.097	45.8
755.277	44.92
755.456	45
755.635	45.26
755.815	44.39
755.994	44.6
756.173	44.56
756.352	44.18
756.532	44.25
756.711	44.65
756.89	44.46
757.069	43.61
757.248	44.88
757.427	45.01
757.607	44.67
757.786	46.5
757.965	46.25
758.144	46.9
758.323	47.01
758.502	47.45
758.681	47.44
758.86	47.48
759.039	47.48
759.218	46.53
759.397	46.85
759.576	46.53
759.755	45.96
759.934	45.78
760.113	45.89
760.291	45.78
760.47	45.52
760.649	46.08
760.828	46.47
761.007	46.49
761.186	47.28
761.364	47.51
761.543	48.06
761.722	47.69
761.901	47.8
762.079	47.71
762.258	48.51
762.437	48.4
762.615	47.64
762.794	47.72
762.972	47.64
763.151	47.63
763.33	46.65
763.508	47.06
763.687	47.16
763.865	46.65
764.044	46.72
764.222	46
764.401	46.03
764.579	45.88
764.758	45.96
764.936	46.07
765.114	45.66
765.293	46.66
765.471	47.34
765.65	46.98
765.828	47.69
766.006	47.35
766.184	47.69
766.363	47.69
766.541	47.59
766.719	47.58
766.898	47.5
767.076	48.36
767.254	48.15
767.432	46.36
767.61	46.36
767.788	46.21
767.967	46.33
768.145	45.66
768.323	46.27
768.501	47.13
768.679	47.74
768.857	47.92
769.035	46.42
769.213	44.95
769.391	44.87
769.569	46.25
769.747	45.24
769.925	46.53
770.103	46.47
770.281	46.42
770.459	46.04
770.636	45.9
770.814	45.56
770.992	46.17
771.17	47.8
771.348	49.69
771.525	48.32
771.703	48.51
771.881	48.24
772.059	48.76
772.236	47.94
772.414	47.02
772.592	46.71
772.769	47.76
772.947	47.49
773.125	46.35
773.302	44.31
773.48	43.79
773.657	46.06
773.835	44.77
774.013	45.26
774.19	44.39
774.368	45.11
774.545	45.09
774.723	45.54
774.9	45.08
775.077	45.8
775.255	45.96
775.432	46.93
775.61	45.05
775.787	46.32
775.964	45.69
776.142	45.82
776.319	46.15
776.496	45.5
776.674	45.12
776.851	44.64
777.028	44.06
777.205	44.17
777.382	44.61
777.56	45.77
777.737	44.26
777.914	44.66
778.091	43.32
778.268	43.42
778.445	42.89
778.622	42.36
778.8	45.41
778.977	46.44
779.154	44.58
779.331	44.58
779.508	43.53
779.685	44.22
779.862	44.18
780.038	47.48
780.215	46.57
780.392	45.55
780.569	45.08
780.746	44.49
780.923	44.58
781.1	46.8
781.277	45.48
781.453	46.06
781.63	45.33
781.807	46.86
781.984	43.92
782.16	44.48
782.337	46.66
782.514	48.46
782.691	47.4
782.867	45.75
783.044	46.72
783.221	47.25
783.397	46.92
783.574	45.98
783.75	46.14
783.927	47.85
784.103	48.24
784.28	47.82
784.456	46.91
784.633	47.02
784.809	47.57
784.986	46.07
785.162	44.78
785.339	45.67
785.515	47.9
785.692	46.56
785.868	46.65
786.044	46.59
786.221	45.89
786.397	46.49
786.573	45.8
786.749	45.47
786.926	46.17
787.102	45.77
787.278	44.58
787.454	43.97
787.631	43.54
787.807	42.42
787.983	42.9
788.159	42.94
788.335	41.06
788.511	42.7
788.687	43.5
788.863	43.41
789.039	43.85
789.216	44.38
789.392	43.24
789.568	43.25
789.744	45.46
789.919	44.54
790.095	43.5
790.271	44.35
790.447	43.27
790.623	43.36
790.799	43.48
790.975	45.25
791.151	45.62
791.327	47.92
791.502	48.28
791.678	47.49
791.854	46.98
792.03	48.87
792.205	49.17
792.381	48.63
792.557	46.98
792.733	47.55
792.908	47.14
793.084	47.43
793.259	45.82
793.435	47.18
793.611	47.58
793.786	47.7
793.962	49.09
794.137	47.89
794.313	49.65
794.488	53.28
794.664	53.04
794.839	54.31
795.015	54.84
795.19	54.66
795.366	52.79
795.541	53.06
795.716	53.72
795.892	52.29
796.067	52.71
796.242	51.18
796.418	48.68
796.593	49.89
796.768	48.76
796.944	48.92
797.119	51.04
797.294	52.44
797.469	51.6
797.644	53.93
797.82	53.71
797.995	53.05
798.17	53.75
798.345	53.74
798.52	54.19
798.695	54.15
798.87	52.56
799.045	49.84
799.22	47.9
799.395	48.43
799.57	45.93
799.745	46.11
799.92	46.81
800.095	47.77
800.27	50.22
800.445	49.16
800.62	49.86
800.795	50.93
800.97	52.07
801.145	51.03
801.319	49.64
801.494	49.69
801.669	50.27
801.844	49.9
802.018	47.6
802.193	46.27
802.368	45.08
802.543	46
802.717	44.79
802.892	43.81
803.067	47.23
803.241	48.95
803.416	49.39
803.59	49.08
803.765	50.01
803.94	48.97
804.114	45.34
804.289	46.63
804.463	45.17
804.638	43.93
804.812	45.78
804.986	44.57
805.161	44.51
805.335	45.63
805.51	44.46
805.684	44.76
805.858	45.04
806.033	48.95
806.207	48.73
806.381	47.54
806.556	49.7
806.73	49.85
806.904	50.32
807.078	51.07
807.253	50.52
807.427	51.87
807.601	53.63
807.775	54.83
807.949	54.15
808.123	52.42
808.298	53.43
808.472	56.19
808.646	57.24
808.82	58.19
808.994	56.44
809.168	58.14
809.342	58.11
809.516	57.09
809.69	56.56
809.864	55.46
810.038	56.78
810.212	58.56
810.385	55.34
810.559	52.93
810.733	50.98
810.907	51.01
811.081	48.73
811.255	49.51
811.428	48.08
811.602	52.24
811.776	49.97
811.95	51.71
812.123	50.22
812.297	51.51
812.471	53.55
812.644	52.76
812.818	52.79
812.992	53.66
813.165	52.34
813.339	52.52
813.512	49.8
813.686	52.67
813.86	53.05
814.033	53.16
814.207	52.27
814.38	49.02
814.554	50.14
814.727	52.37
814.9	52.22
815.074	49.87
815.247	49.61
815.421	47.13
815.594	48.81
815.767	45.21
815.941	43.72
816.114	43.58
816.287	45.01
816.46	44.68
816.634	41.97
816.807	41.91
816.98	42.98
817.153	44.77
817.327	46.48
817.5	41.76
817.673	44.03
817.846	46.04
818.019	48.01
818.192	48.52
818.365	50.18
818.538	51.07
818.711	51.93
818.884	52.91
819.057	52.47
819.23	52.03
819.403	54.92
819.576	54.52
819.749	51.09
819.922	48.42
820.095	49.25
820.268	48.78
820.441	47.29
820.614	45.86
820.786	46.65
820.959	46.96
821.132	47.74
821.305	48.39
821.477	47.59
821.65	47.39
821.823	47.59
821.996	47.63
822.168	47.05
822.341	46.95
822.514	47.38
822.686	47.02
822.859	47.04
823.031	46.71
823.204	46.17
823.376	46.34
823.549	46.72
823.722	46.5
823.894	46.21
824.067	46.25
824.239	46.68
824.411	47.01
824.584	47.1
824.756	46.91
824.929	46.46
825.101	47.02
825.273	47.28
825.446	47.36
825.618	47.94
825.79	47.61
825.963	47.24
826.135	47.5
826.307	47.61
826.479	47.21
826.652	47.68
826.824	49.06
826.996	47.8
827.168	47.35
827.34	48.36
827.512	47.96
827.684	49
827.856	50.52
828.029	49.22
828.201	48.02
828.373	48.43
828.545	48.52
828.717	47.03
828.889	48.66
829.061	48.92
829.232	49.06
829.404	49.68
829.576	48.37
829.748	46.94
829.92	48.03
830.092	48.14
830.264	47.95
830.436	47.74
830.607	48.09
830.779	47.54
830.951	49.15
831.123	48.03
831.294	47.2
831.466	47.08
831.638	47.92
831.809	47.82
831.981	48.72
832.153	49.54
832.324	47.99
832.496	49.54
832.667	48.55
832.839	46.97
833.011	46.2
833.182	47.55
833.354	49.28
833.525	48.3
833.697	49.83
833.868	49.66
834.039	47.34
834.211	47.32
834.382	47.01
834.554	47.94
834.725	47.94
834.896	48.43
835.068	47.39
835.239	45.47
835.41	47.19
835.581	46.29
835.753	46.44
835.924	48.6
836.095	49.09
836.266	49.09
836.438	47.25
836.609	46.22
836.78	45.98
836.951	47.28
837.122	49.53
837.293	48.69
837.464	48.39
837.635	49.66
837.806	49.64
837.977	50.09
838.148	48.94
838.319	50.43
838.49	51.52
838.661	53.23
838.832	53.22
839.003	54.92
839.174	55.59
839.345	58.85
839.516	56.11
839.687	54.29
839.857	53
840.028	53.08
840.199	53.04
840.37	54.26
840.54	52.23
840.711	51.83
840.882	51.23
841.053	49.48
841.223	42.65
841.394	40.4
841.564	40.87
841.735	39.02
841.906	44.82
842.076	45.25
842.247	42.88
842.417	42.44
842.588	42.17
842.758	44.01
842.929	43.67
843.099	49.2
843.27	54.52
843.44	55.77
843.611	55.88
843.781	50.09
843.951	52.68
844.122	54.97
844.292	56.23
844.462	50.57
844.633	46.96
844.803	47.33
844.973	48.29
845.144	47.75
845.314	45
845.484	48.96
845.654	54.22
845.824	56.83
845.995	56.94
846.165	57.7
846.335	68.02
846.505	64.39
846.675	68.18
846.845	80.66
847.015	88.49
847.185	87.22
847.355	86.48
847.525	85.28
847.695	74.41
847.865	75.31
848.035	70.83
848.205	76.56
848.375	79.54
848.545	66.18
848.715	47.52
848.884	39.04
849.054	38.89
849.224	39.78
849.394	41.31
849.564	38.76
849.733	35.28
849.903	45.15
850.073	40.21
850.243	40.58
850.412	40.82
850.582	49.08
850.752	54.49
850.921	50.63
851.091	57.89
851.26	57.05
851.43	70.01
851.599	80.5
851.769	80.28
851.939	75.43
852.108	69.5
852.278	80.92
852.447	85.23
852.616	76.92
852.786	79.96
852.955	73.35
853.125	78.5
853.294	64.74
853.463	52.43
853.633	48.59
853.802	45.27
853.971	49.44
854.141	48.86
854.31	46.73
854.479	55.83
854.648	61.26
854.818	69.05
854.987	61.29
855.156	70.28
855.325	75.06
855.494	75.26
855.663	73.02
855.832	69.16
856.001	77.07
856.171	72.59
856.34	73.68
856.509	73.65
856.678	74.06
856.847	71.01
857.016	64.34
857.185	66
857.353	60.3
857.522	65.53
857.691	65.38
857.86	55.17
858.029	63.78
858.198	55.37
858.367	54.64
858.535	52.34
858.704	55.02
858.873	64.49
859.042	59.67
859.21	62.06
859.379	59.57
859.548	63.91
859.717	68.38
859.885	58.31
860.054	64.25
860.222	57.38
860.391	57.41
860.56	57.29
860.728	51.64
860.897	55.97
861.065	51.97
861.234	51.98
861.402	56.26
861.571	54.81
861.739	51.96
861.908	49.35
862.076	60.48
862.244	59.07
862.413	50.17
862.581	58.99
862.749	60.41
862.918	70.38
863.086	80.4
863.254	67.37
863.423	72.22
863.591	66.98
863.759	70.85
863.927	54.33
864.096	51.81
864.264	75.53
864.432	67.89
864.6	59.8
864.768	50.83
864.936	42.88
865.104	48.61
865.272	42.77
865.44	59.67
865.608	64.03
865.776	72.24
865.944	71.54
866.112	65.72
866.28	75.69
866.448	69.2
866.616	67.19
866.784	69.92
866.952	65.61
867.12	58.32
867.288	54.09
867.455	53.93
867.623	53.2
867.791	52.15
867.959	54.14
868.127	46.63
868.294	53.56
868.462	58.05
868.63	50.62
868.797	54
868.965	56.2
869.133	58.09
869.3	59.29
869.468	52.8
869.636	54.11
869.803	44.3
869.971	46.95
870.138	44.46
870.306	40.79
870.473	52.08
870.641	54.35
870.808	62.41
870.975	55.75
871.143	44
871.31	42.77
871.478	41.47
871.645	49.37
871.812	41.04
871.98	44.72
872.147	53.91
872.314	37.18
872.482	39.04
872.649	29.64
872.816	35.76
872.983	39.12
873.15	57.2
873.318	62.63
873.485	64.78
873.652	68.46
873.819	76.37
873.986	63.52
874.153	70.66
874.32	67.11
874.487	66.83
874.654	61.6
874.821	60.96
874.988	53.77
875.155	50.77
875.322	44.87
875.489	46.63
875.656	50.01
875.823	59.56
875.99	62.26
876.157	63.62
876.324	65.26
876.49	69.2
876.657	70.93
876.824	85.7
876.991	89.95
877.157	100.49
877.324	97.35
877.491	82.42
877.658	82.06
877.824	79.37
877.991	78.89
878.157	77.16
878.324	68.26
878.491	63.06
878.657	56.36
878.824	55.92
878.99	50.32
879.157	49.8
879.323	50.88
879.49	51.7
879.656	57.89
879.823	55.09
879.989	55.1
880.156	59.11
880.322	58.67
880.488	59.64
880.655	62.79
880.821	65.93
880.987	62.35
881.154	60.49
881.32	57.76
881.486	56.51
881.652	54.76
881.819	53.82
881.985	56.13
882.151	55.08
882.317	53.55
882.483	50.47
882.649	52.41
882.816	51.8
882.982	52.91
883.148	50.23
883.314	48.62
883.48	49.02
883.646	48.46
883.812	46.96
883.978	47.98
884.144	47.96
884.31	48.44
884.476	47.2
884.642	47.61
884.807	48.23
884.973	49.9
885.139	50.08
885.305	51.32
885.471	53.2
885.637	53.27
885.802	53.05
885.968	52.89
886.134	54.15
886.3	53.88
886.465	56.85
886.631	56.24
886.797	57.99
886.962	59.77
887.128	57.72
887.293	57
887.459	57.73
887.625	57.95
887.79	58.69
887.956	59.4
888.121	60.36
888.287	56.58
888.452	54.65
888.618	51.37
888.783	48.6
