Data from LC_276_Reflection_3.txt Node
Date: Sat Nov 21 12:26:17 EST 2015
User: robert
Spectrometer: USB4E03001
Autoset integration time: false
Trigger mode: 4
Integration Time (sec): 1.000000E-1
Scans to average: 15
Electric dark correction enabled: true
Nonlinearity correction enabled: false
Boxcar width: 5
Stray light correction enabled: false
XAxis mode: Wavelengths
Stop averaging: false
Number of Pixels in Spectrum: 3648
>>>>>Begin Spectral Data<<<<<
177.566	-10.42
177.785	-46.86
178.005	161.79
178.225	-9.19
178.445	-435.79
178.665	-1067.65
178.885	902.06
179.105	161.87
179.324	111.83
179.544	165.62
179.764	655.38
179.984	97.48
180.204	124.68
180.423	94.27
180.643	99.34
180.863	97.16
181.083	146.54
181.302	159.03
181.522	191.01
181.742	198.25
181.961	165.69
182.181	150.84
182.401	317.9
182.621	234.16
182.84	229.74
183.06	190.62
183.279	158.51
183.499	141.9
183.719	136.77
183.938	124.08
184.158	132.15
184.377	130.07
184.597	158.3
184.816	144.23
185.036	159.7
185.256	175.75
185.475	143.45
185.695	155.58
185.914	144.43
186.134	152.18
186.353	175.46
186.572	174.65
186.792	158.19
187.011	127.16
187.231	132.68
187.45	144.91
187.67	149.29
187.889	190.89
188.108	252.25
188.328	320.68
188.547	327.56
188.766	304.32
188.986	337.01
189.205	591.9
189.424	1317.04
189.644	810.85
189.863	-280.27
190.082	-396.72
190.302	596.07
190.521	76.18
190.74	79.17
190.959	123.64
191.178	144.98
191.398	93.95
191.617	133.09
191.836	134.51
192.055	137.47
192.274	134.41
192.494	144.32
192.713	149.03
192.932	174.84
193.151	164.82
193.37	136.66
193.589	136.68
193.808	180.3
194.027	156.74
194.246	154.56
194.465	143.13
194.685	133.01
194.904	117.24
195.123	119.8
195.342	150.1
195.561	172.82
195.78	141.55
195.999	155.84
196.218	130.13
196.436	166.94
196.655	152.57
196.874	151.21
197.093	164.42
197.312	195.94
197.531	219.46
197.75	148.79
197.969	130.3
198.188	163.37
198.407	167.86
198.625	164.57
198.844	157.2
199.063	164.09
199.282	154.95
199.501	175.09
199.719	170.94
199.938	160.08
200.157	146.85
200.376	134.63
200.594	118.44
200.813	95.12
201.032	122.12
201.251	88.89
201.469	71.51
201.688	112.16
201.907	106.88
202.125	107.38
202.344	121.43
202.563	163.32
202.781	187.41
203	191.07
203.218	192.59
203.437	308.74
203.656	638.78
203.874	750.74
204.093	376.78
204.311	294.09
204.53	398.23
204.748	291.53
204.967	270.98
205.185	192.47
205.404	201.66
205.622	461.29
205.841	334.27
206.059	240.71
206.278	199.94
206.496	229.08
206.715	577.61
206.933	393.53
207.151	401.77
207.37	300.18
207.588	421.18
207.806	332.74
208.025	187.81
208.243	141.93
208.461	149.31
208.68	155.11
208.898	189.42
209.116	107.45
209.335	111.2
209.553	89.72
209.771	87.99
209.989	112.39
210.208	169.84
210.426	243.67
210.644	307.37
210.862	396.04
211.081	327.5
211.299	166.23
211.517	224.83
211.735	203.52
211.953	195.79
212.171	166.68
212.39	159.58
212.608	115.36
212.826	110.22
213.044	112
213.262	105.91
213.48	111.04
213.698	113.93
213.916	143.25
214.134	128.85
214.352	132.29
214.57	133.79
214.788	142.47
215.006	168.53
215.224	164.88
215.442	160.88
215.66	193.29
215.878	198.47
216.096	245.15
216.314	212.39
216.532	217.45
216.75	215.89
216.968	238.6
217.185	198.68
217.403	225.27
217.621	229.83
217.839	195.32
218.057	188.85
218.275	179.59
218.492	141.34
218.71	147.49
218.928	180.47
219.146	167.13
219.363	173.07
219.581	267.21
219.799	171.16
220.017	118.42
220.234	143.35
220.452	135.23
220.67	122.92
220.887	154.67
221.105	135.25
221.323	122.64
221.54	122.06
221.758	92.53
221.976	87.13
222.193	103.41
222.411	111.86
222.629	104.26
222.846	116.71
223.064	118.56
223.281	107.9
223.499	115.58
223.716	101.46
223.934	80.19
224.151	98.16
224.369	106.81
224.586	94.79
224.804	95.94
225.021	115.38
225.239	101.01
225.456	84.29
225.674	75.95
225.891	66.81
226.108	70.91
226.326	84.43
226.543	71.78
226.76	68.14
226.978	62.16
227.195	52.07
227.413	41.19
227.63	42.88
227.847	45.4
228.064	41.65
228.282	37.57
228.499	35.56
228.716	33.58
228.934	33.52
229.151	31.32
229.368	29.31
229.585	31.27
229.802	33.39
230.02	30.08
230.237	29.17
230.454	29.98
230.671	31.8
230.888	30.17
231.105	29.44
231.323	28.38
231.54	28.83
231.757	30.65
231.974	27.54
232.191	20.45
232.408	24.7
232.625	24.3
232.842	25.54
233.059	26.73
233.276	33.11
233.493	38.65
233.71	44.03
233.927	41.57
234.144	40.12
234.361	43.93
234.578	46.53
234.795	45.91
235.012	45.88
235.229	46.88
235.446	42.46
235.663	39.74
235.879	34.55
236.096	33.3
236.313	35.11
236.53	35.8
236.747	37.57
236.964	35.7
237.181	35.22
237.397	36.13
237.614	35.51
237.831	36.56
238.048	35.87
238.264	33.06
238.481	26.61
238.698	27.95
238.915	26.14
239.131	18.74
239.348	19.89
239.565	19.81
239.781	21.72
239.998	22.34
240.215	25.13
240.431	21.33
240.648	26.65
240.865	26.69
241.081	22.78
241.298	22.27
241.514	24.82
241.731	23.33
241.947	23.31
242.164	23.58
242.38	21.23
242.597	21.54
242.814	21.59
243.03	20.46
243.246	20.16
243.463	20.33
243.679	21.93
243.896	20.95
244.112	23.12
244.329	24.52
244.545	22.32
244.762	24.63
244.978	23.45
245.194	23.8
245.411	22.48
245.627	22.58
245.843	21.69
246.06	18.11
246.276	17.28
246.492	17
246.709	15.01
246.925	15.15
247.141	13.86
247.357	12.93
247.574	13.02
247.79	12.69
248.006	13
248.222	12.82
248.439	14.22
248.655	14.74
248.871	14.24
249.087	14.81
249.303	14.99
249.519	15.82
249.736	17.36
249.952	18.44
250.168	19.62
250.384	20.02
250.6	22.74
250.816	22.71
251.032	23.38
251.248	22.26
251.464	21.53
251.68	21.05
251.896	21.37
252.112	21.02
252.328	18.64
252.544	18.49
252.76	19.13
252.976	17.78
253.192	17.39
253.408	17.54
253.624	19.63
253.84	22.1
254.056	22.58
254.272	21.86
254.487	23.29
254.703	24.35
254.919	24.5
255.135	23.24
255.351	22.61
255.567	22.11
255.782	17.98
255.998	17.15
256.214	12.38
256.43	14.23
256.646	13.74
256.861	13.04
257.077	14.87
257.293	15.55
257.508	15.98
257.724	16.38
257.94	16.35
258.155	17
258.371	15.73
258.587	16.33
258.802	15.23
259.018	13.48
259.234	13.14
259.449	12.4
259.665	11.93
259.88	11.66
260.096	11.62
260.312	12.35
260.527	12.8
260.743	12.72
260.958	12.65
261.174	11.61
261.389	13.28
261.605	14.3
261.82	14.89
262.036	16.27
262.251	16.73
262.466	18.33
262.682	17.64
262.897	16.64
263.113	17.58
263.328	19.02
263.543	20.92
263.759	20.78
263.974	20.56
264.189	22.36
264.405	22.03
264.62	24.1
264.835	23.05
265.051	22.54
265.266	24.84
265.481	23.54
265.696	23.42
265.912	22.2
266.127	21.32
266.342	19.82
266.557	17.4
266.773	15.71
266.988	13.26
267.203	12.34
267.418	13.16
267.633	12.68
267.848	12.31
268.064	11.12
268.279	12.56
268.494	12.56
268.709	13.15
268.924	14.35
269.139	15.48
269.354	15.83
269.569	15.48
269.784	15.44
269.999	15.15
270.214	16.68
270.429	17.53
270.644	16.69
270.859	17.46
271.074	16.21
271.289	14.69
271.504	14.7
271.719	13.62
271.934	14.85
272.149	14.21
272.363	14.16
272.578	12.96
272.793	12.4
273.008	12.97
273.223	12.18
273.438	12.63
273.653	14.21
273.867	14.31
274.082	15.76
274.297	14.12
274.512	14.02
274.726	13.38
274.941	13.9
275.156	14.23
275.371	13.6
275.585	14.99
275.8	13.3
276.015	11.69
276.229	10.89
276.444	10.97
276.659	12.34
276.873	13.09
277.088	13.22
277.302	13.71
277.517	13.09
277.732	13.11
277.946	12.34
278.161	14.03
278.375	14.04
278.59	15.26
278.804	14.13
279.019	14.9
279.233	15.01
279.448	15.34
279.662	15.02
279.877	14.94
280.091	14.94
280.306	13.41
280.52	12.76
280.735	13.68
280.949	11.12
281.163	12.01
281.378	11.06
281.592	10.33
281.806	10.97
282.021	10.85
282.235	10.25
282.449	10.31
282.664	10.48
282.878	10.85
283.092	11.17
283.307	12.59
283.521	12.91
283.735	13.25
283.949	13.88
284.164	13.19
284.378	12.9
284.592	12.61
284.806	12.76
285.02	14.06
285.234	13.97
285.449	12.37
285.663	12.99
285.877	12.44
286.091	12.51
286.305	11.35
286.519	11.58
286.733	11.68
286.947	12.51
287.161	12.61
287.375	11.58
287.589	11.97
287.803	13.18
288.017	12.62
288.231	12.21
288.445	11.77
288.659	13.36
288.873	13.74
289.087	14.75
289.301	14.52
289.515	14.53
289.729	15.06
289.943	15.15
290.157	14.46
290.371	14.56
290.584	15.22
290.798	15.53
291.012	15.06
291.226	14.55
291.44	13.26
291.654	13.59
291.867	13.41
292.081	13.62
292.295	13.4
292.509	14.73
292.722	14.96
292.936	15.14
293.15	14.88
293.364	15.35
293.577	14.65
293.791	15.79
294.005	15.34
294.218	14.63
294.432	13.93
294.645	14.97
294.859	14.32
295.073	12.76
295.286	12.53
295.5	12.62
295.713	12.13
295.927	12.92
296.14	12.36
296.354	12.2
296.568	12.77
296.781	12.93
296.994	12.55
297.208	12.16
297.421	13.07
297.635	13.01
297.848	12.7
298.062	12.78
298.275	12.65
298.489	12.72
298.702	13.13
298.915	12.5
299.129	12.64
299.342	12.49
299.555	13.25
299.769	13.83
299.982	14.12
300.195	14.85
300.409	14.97
300.622	15.43
300.835	16.07
301.048	16.49
301.262	16.97
301.475	17.67
301.688	17.46
301.901	18.21
302.115	17.25
302.328	17.43
302.541	16.87
302.754	17.33
302.967	18.19
303.18	17.43
303.393	17.33
303.607	16.87
303.82	16.29
304.033	15.24
304.246	14.58
304.459	15.66
304.672	15.92
304.885	17.35
305.098	17.6
305.311	16.56
305.524	16.12
305.737	15.17
305.95	16.04
306.163	15.9
306.376	16.47
306.589	15.61
306.802	14.11
307.015	12.82
307.228	11.94
307.44	11.03
307.653	13.05
307.866	14.17
308.079	14.93
308.292	14.98
308.505	15.7
308.718	16.51
308.93	17.31
309.143	16.91
309.356	16.61
309.569	16.52
309.781	17.27
309.994	15.69
310.207	15.87
310.42	16.08
310.632	15.41
310.845	14.5
311.058	13.65
311.27	12.8
311.483	14.21
311.696	14.79
311.908	15.42
312.121	15.07
312.333	15.76
312.546	15.7
312.759	15.36
312.971	15.84
313.184	17.6
313.396	18.32
313.609	18.56
313.821	17.96
314.034	18.25
314.246	17.99
314.459	18.29
314.671	16.45
314.884	16.41
315.096	16.9
315.309	17.08
315.521	16.42
315.733	16.79
315.946	17.52
316.158	17.11
316.371	17.32
316.583	16.82
316.795	17.22
317.008	19.3
317.22	18.87
317.432	19.68
317.644	20.22
317.857	19.66
318.069	18.57
318.281	18.6
318.494	19.07
318.706	19.22
318.918	19.98
319.13	19.27
319.342	19.13
319.555	19.05
319.767	18.03
319.979	17.93
320.191	19.15
320.403	20.92
320.615	21.11
320.827	21.78
321.039	21.94
321.252	21.91
321.464	21.98
321.676	20.82
321.888	21.32
322.1	22.35
322.312	22.29
322.524	21.3
322.736	20.65
322.948	21.81
323.16	22.02
323.372	21.69
323.584	22.33
323.796	22.13
324.007	23.36
324.219	24.85
324.431	24.67
324.643	25.28
324.855	26.07
325.067	26.93
325.279	26.58
325.491	26.22
325.702	26.95
325.914	27.58
326.126	28.72
326.338	28.87
326.55	28.39
326.761	28.7
326.973	29.34
327.185	29.46
327.396	28.81
327.608	29.46
327.82	31.13
328.032	31.61
328.243	31.22
328.455	31.36
328.666	32.19
328.878	33.77
329.09	34.24
329.301	34.91
329.513	35.01
329.725	36.02
329.936	35.73
330.148	35.17
330.359	36.58
330.571	37.13
330.782	38.12
330.994	38.21
331.205	38.34
331.417	40.09
331.628	40.1
331.84	41.92
332.051	43.79
332.262	44.49
332.474	45.08
332.685	44.77
332.897	45.33
333.108	45
333.319	45.59
333.531	45.16
333.742	44.45
333.953	45.24
334.165	44.64
334.376	43.79
334.587	44.65
334.799	45.67
335.01	46.85
335.221	46.52
335.432	47.07
335.644	47.1
335.855	48.51
336.066	49.2
336.277	49.22
336.488	49.57
336.7	49.32
336.911	49.59
337.122	49.59
337.333	49.48
337.544	50.19
337.755	50.64
337.966	50.69
338.177	49.83
338.388	49.54
338.599	49.43
338.811	49.78
339.022	50.46
339.233	49.49
339.444	48.72
339.655	48.81
339.866	48.47
340.076	48.57
340.287	49.03
340.498	49.06
340.709	49.06
340.92	48.95
341.131	49.35
341.342	48.86
341.553	49.89
341.764	49.74
341.975	49.13
342.185	48.5
342.396	48.49
342.607	48.5
342.818	48.92
343.029	49.3
343.239	49.84
343.45	48.65
343.661	49.14
343.872	48.48
344.082	49.48
344.293	50.02
344.504	50.82
344.714	50.49
344.925	50.16
345.136	49.89
345.346	50.32
345.557	49.74
345.768	49.73
345.978	49.5
346.189	49.73
346.399	48.74
346.61	48.75
346.821	48.64
347.031	47.93
347.242	48.62
347.452	48.55
347.663	48.44
347.873	48.84
348.084	48.85
348.294	49.02
348.504	48.79
348.715	49.27
348.925	48.22
349.136	48.01
349.346	48.43
349.557	47.97
349.767	48.29
349.977	47.43
350.188	46.99
350.398	47.27
350.608	46.85
350.819	47.02
351.029	47.09
351.239	48.22
351.449	48.42
351.66	49.48
351.87	49.05
352.08	49.25
352.29	49.61
352.501	49.16
352.711	49.06
352.921	49.32
353.131	48.72
353.341	47.67
353.552	46.81
353.762	47.13
353.972	46.32
354.182	46.88
354.392	46.08
354.602	46
354.812	46.81
355.022	46.61
355.232	46.43
355.442	46.71
355.652	47.66
355.862	47.63
356.072	47.06
356.282	47.39
356.492	46.64
356.702	46.56
356.912	46.32
357.122	45.88
357.332	45.33
357.542	45.13
357.752	45.06
357.962	44.98
358.171	44.47
358.381	44.78
358.591	44.2
358.801	44.43
359.011	44.39
359.221	43.89
359.43	43.79
359.64	44.79
359.85	44.97
360.06	44.91
360.269	44.91
360.479	44.79
360.689	43.97
360.899	44.14
361.108	43.91
361.318	43.86
361.528	44.24
361.737	44.67
361.947	44.59
362.156	44.65
362.366	44.89
362.576	44.63
362.785	44.63
362.995	44.96
363.204	45.04
363.414	44.71
363.623	45.08
363.833	44.76
364.042	44.76
364.252	44.25
364.461	44.1
364.671	43.94
364.88	43.81
365.09	44.2
365.299	44.27
365.509	43.89
365.718	44.15
365.927	44.28
366.137	44.28
366.346	43.46
366.555	43.5
366.765	43.29
366.974	43.3
367.183	43.23
367.393	43.27
367.602	43.67
367.811	43.96
368.021	43.77
368.23	43.04
368.439	42.73
368.648	42.41
368.857	42.35
369.067	41.58
369.276	41.88
369.485	41.84
369.694	41.72
369.903	40.91
370.112	40.42
370.321	40.4
370.531	39.88
370.74	39.5
370.949	39.42
371.158	39.36
371.367	40.18
371.576	39.56
371.785	39.21
371.994	39.01
372.203	38.99
372.412	38.95
372.621	38.92
372.83	39.24
373.039	39.85
373.248	39.91
373.457	39.48
373.666	39.06
373.874	38.59
374.083	38.63
374.292	38.78
374.501	38.63
374.71	38.39
374.919	38.12
375.128	38.57
375.336	38.33
375.545	38.55
375.754	38.35
375.963	37.89
376.171	37.7
376.38	37.63
376.589	36.88
376.798	36.69
377.006	36.52
377.215	36.62
377.424	35.79
377.632	35.45
377.841	34.96
378.05	35.22
378.258	35.39
378.467	35.51
378.675	35.44
378.884	35.74
379.093	35.49
379.301	35.44
379.51	35.18
379.718	35.32
379.927	35.28
380.135	35.5
380.344	35.13
380.552	34.48
380.761	34.54
380.969	34.36
381.177	33.96
381.386	34.12
381.594	33.83
381.803	33.44
382.011	33.04
382.219	32.85
382.428	32.38
382.636	32.06
382.845	32.36
383.053	32.12
383.261	31.93
383.469	32.08
383.678	31.91
383.886	31.71
384.094	31.63
384.302	31.32
384.511	31.32
384.719	31.21
384.927	31.07
385.135	31.21
385.343	31.07
385.552	30.93
385.76	30.76
385.968	30.69
386.176	30.86
386.384	30.92
386.592	30.96
386.8	30.68
387.008	30.7
387.216	30.85
387.424	30.71
387.633	30.38
387.841	30.34
388.049	29.79
388.257	29.76
388.465	29.6
388.672	29.57
388.88	29.74
389.088	29.64
389.296	29.34
389.504	29.06
389.712	28.8
389.92	28.94
390.128	28.8
390.336	29.1
390.544	28.72
390.751	28.6
390.959	28.47
391.167	28.02
391.375	27.88
391.583	27.82
391.79	27.84
391.998	27.68
392.206	27.53
392.414	27.05
392.621	26.75
392.829	26.79
393.037	26.86
393.244	26.86
393.452	26.85
393.66	27.13
393.867	27.13
394.075	27.44
394.283	27.46
394.49	27.34
394.698	27.63
394.905	27.57
395.113	27.26
395.32	27.12
395.528	26.9
395.735	26.9
395.943	26.68
396.15	26.74
396.358	26.05
396.565	25.7
396.773	25.69
396.98	25.79
397.188	25.83
397.395	25.84
397.602	25.72
397.81	25.72
398.017	25.5
398.225	25.47
398.432	25.49
398.639	25.6
398.847	25.82
399.054	25.77
399.261	25.66
399.468	25.65
399.676	25.68
399.883	25.4
400.09	25.6
400.297	25.94
400.505	25.84
400.712	25.5
400.919	25.38
401.126	25.31
401.333	25.39
401.54	24.93
401.748	24.84
401.955	25.02
402.162	25.02
402.369	24.47
402.576	24.15
402.783	24.05
402.99	23.87
403.197	23.98
403.404	24.03
403.611	23.91
403.818	24.4
404.025	24.17
404.232	23.99
404.439	24.07
404.646	24.29
404.853	24.45
405.06	24.53
405.267	24.8
405.474	24.68
405.681	24.51
405.887	24.38
406.094	24.22
406.301	24.44
406.508	24.56
406.715	24.54
406.922	24.42
407.128	24.36
407.335	24.27
407.542	24.18
407.749	24.2
407.955	24.04
408.162	24.09
408.369	24.32
408.575	24.26
408.782	24.11
408.989	24.36
409.195	24.39
409.402	24.4
409.609	24.31
409.815	24.09
410.022	24.28
410.228	24.51
410.435	24.56
410.642	24.23
410.848	24.42
411.055	24.31
411.261	23.92
411.468	23.7
411.674	23.43
411.881	23.35
412.087	23.74
412.294	23.61
412.5	23.43
412.706	23.26
412.913	23.48
413.119	23.26
413.326	23.48
413.532	23.67
413.738	23.97
413.945	24
414.151	24.16
414.357	23.81
414.564	23.9
414.77	24.04
414.976	24.07
415.182	23.89
415.389	24.17
415.595	24.21
415.801	24.38
416.007	24.13
416.214	24.34
416.42	24.33
416.626	24.58
416.832	24.42
417.038	24.39
417.244	24.33
417.45	24.34
417.657	24.17
417.863	24.15
418.069	24.06
418.275	24.02
418.481	23.9
418.687	23.87
418.893	23.62
419.099	23.52
419.305	23.51
419.511	23.45
419.717	23.42
419.923	23.28
420.129	23.14
420.335	22.96
420.541	22.96
420.746	22.77
420.952	22.65
421.158	22.58
421.364	22.61
421.57	22.57
421.776	22.61
421.982	22.54
422.187	22.56
422.393	22.39
422.599	22.3
422.805	22.36
423.01	22.42
423.216	22.45
423.422	22.46
423.628	22.42
423.833	22.28
424.039	22.33
424.245	22.21
424.45	22.2
424.656	22.21
424.862	22.45
425.067	22.32
425.273	22.34
425.478	22.4
425.684	22.37
425.889	22.35
426.095	22.37
426.301	22.26
426.506	22.29
426.712	22.14
426.917	22.2
427.123	21.88
427.328	22.01
427.533	22.15
427.739	22.02
427.944	22.05
428.15	22.05
428.355	22.26
428.561	22.3
428.766	22.37
428.971	22.46
429.177	22.46
429.382	22.69
429.587	22.67
429.793	22.53
429.998	22.71
430.203	22.7
430.408	22.66
430.614	22.4
430.819	22.37
431.024	22.32
431.229	22.31
431.434	22.29
431.64	22.05
431.845	22.07
432.05	22.25
432.255	22.05
432.46	22.11
432.665	22.12
432.87	22.11
433.076	22.2
433.281	22.27
433.486	22.17
433.691	22.22
433.896	22.37
434.101	22.23
434.306	22.03
434.511	22.04
434.716	21.99
434.921	21.91
435.126	21.99
435.331	22.02
435.535	22
435.74	21.95
435.945	21.93
436.15	21.78
436.355	22.06
436.56	22.31
436.765	22.41
436.97	22.56
437.174	22.64
437.379	22.68
437.584	22.6
437.789	22.54
437.993	22.75
438.198	22.7
438.403	22.77
438.608	22.68
438.812	22.38
439.017	22.33
439.222	22.37
439.426	22.34
439.631	22.46
439.836	22.3
440.04	22.24
440.245	22.24
440.45	22.13
440.654	22.1
440.859	21.96
441.063	21.97
441.268	21.91
441.472	21.88
441.677	21.89
441.881	21.69
442.086	21.68
442.29	21.85
442.495	21.82
442.699	21.99
442.904	21.9
443.108	21.98
443.312	22.04
443.517	22.11
443.721	21.92
443.925	21.67
444.13	21.65
444.334	21.65
444.538	21.58
444.743	21.44
444.947	21.44
445.151	21.51
445.356	21.41
445.56	21.43
445.764	21.35
445.968	21.3
446.173	21.43
446.377	21.46
446.581	21.61
446.785	21.57
446.989	21.58
447.193	21.52
447.398	21.6
447.602	21.49
447.806	21.46
448.01	21.51
448.214	21.51
448.418	21.52
448.622	21.52
448.826	21.42
449.03	21.29
449.234	21.25
449.438	21.18
449.642	20.87
449.846	21.11
450.05	21.12
450.254	21.01
450.458	20.96
450.662	20.97
450.866	20.86
451.069	20.77
451.273	20.68
451.477	20.58
451.681	20.48
451.885	20.68
452.089	20.52
452.292	20.59
452.496	20.46
452.7	20.46
452.904	20.45
453.107	20.51
453.311	20.5
453.515	20.71
453.719	20.79
453.922	20.89
454.126	20.69
454.33	20.78
454.533	20.56
454.737	20.79
454.94	20.97
455.144	21.04
455.348	20.9
455.551	20.84
455.755	20.8
455.958	20.78
456.162	20.89
456.365	20.93
456.569	20.87
456.772	20.94
456.976	20.74
457.179	20.67
457.383	20.6
457.586	20.57
457.79	20.65
457.993	20.6
458.196	20.8
458.4	20.88
458.603	20.93
458.807	20.97
459.01	21.07
459.213	21.25
459.417	21.27
459.62	21.21
459.823	21.27
460.026	21.31
460.23	21.27
460.433	21.17
460.636	21.1
460.839	21.22
461.042	21.33
461.246	21.26
461.449	21.23
461.652	21.32
461.855	21.45
462.058	21.57
462.261	21.54
462.464	21.77
462.668	21.78
462.871	22
463.074	21.81
463.277	21.78
463.48	21.85
463.683	21.83
463.886	21.82
464.089	21.75
464.292	21.68
464.495	21.6
464.698	21.62
464.901	21.91
465.104	21.95
465.306	22.31
465.509	22.19
465.712	22.33
465.915	22.45
466.118	22.39
466.321	22.49
466.524	22.58
466.726	22.71
466.929	22.84
467.132	22.73
467.335	22.72
467.538	22.67
467.74	22.82
467.943	22.64
468.146	22.67
468.348	22.9
468.551	22.9
468.754	23.17
468.956	23.3
469.159	23.17
469.362	23.26
469.564	23.19
469.767	23.26
469.969	23.45
470.172	23.73
470.375	23.67
470.577	23.53
470.78	23.54
470.982	23.42
471.185	23.42
471.387	23.5
471.59	23.58
471.792	23.65
471.995	23.7
472.197	23.65
472.399	23.56
472.602	23.68
472.804	23.75
473.007	23.76
473.209	23.78
473.411	23.91
473.614	24.04
473.816	24.03
474.018	24.13
474.22	24.08
474.423	24.09
474.625	24.18
474.827	24.23
475.03	24.31
475.232	24.53
475.434	24.5
475.636	24.38
475.838	24.37
476.04	24.39
476.243	24.29
476.445	24.22
476.647	24.3
476.849	24.05
477.051	23.99
477.253	24.05
477.455	23.89
477.657	23.8
477.859	23.83
478.061	23.72
478.263	23.72
478.465	23.76
478.667	23.71
478.869	23.58
479.071	23.74
479.273	23.86
479.475	23.64
479.677	23.62
479.879	23.75
480.081	23.72
480.283	23.79
480.485	23.7
480.686	23.61
480.888	23.69
481.09	23.73
481.292	23.68
481.494	23.62
481.695	23.66
481.897	23.67
482.099	23.58
482.301	23.59
482.502	23.54
482.704	23.62
482.906	23.61
483.107	23.62
483.309	23.63
483.511	23.57
483.712	23.49
483.914	23.51
484.115	23.46
484.317	23.45
484.519	23.42
484.72	23.38
484.922	23.37
485.123	23.38
485.325	23.37
485.526	23.34
485.728	23.41
485.929	23.47
486.131	23.44
486.332	23.6
486.534	23.64
486.735	23.76
486.936	23.91
487.138	23.91
487.339	23.99
487.541	24.03
487.742	24.07
487.943	24.14
488.144	24.19
488.346	24.25
488.547	24.22
488.748	24.2
488.95	24.15
489.151	24.17
489.352	24.19
489.553	24.18
489.755	24.2
489.956	24.28
490.157	24.23
490.358	24.36
490.559	24.52
490.76	24.65
490.961	24.83
491.163	25.01
491.364	25.12
491.565	25.2
491.766	25.27
491.967	25.36
492.168	25.39
492.369	25.52
492.57	25.56
492.771	25.57
492.972	25.56
493.173	25.67
493.374	25.74
493.575	25.85
493.776	26
493.976	26.19
494.177	26.35
494.378	26.51
494.579	26.76
494.78	26.85
494.981	27.02
495.182	27.24
495.382	27.37
495.583	27.47
495.784	27.45
495.985	27.58
496.185	27.64
496.386	27.83
496.587	27.94
496.788	27.97
496.988	28.17
497.189	28.43
497.39	28.71
497.59	28.8
497.791	29.05
497.992	29.24
498.192	29.34
498.393	29.51
498.593	29.67
498.794	29.78
498.994	30.06
499.195	30.11
499.395	30.22
499.596	30.32
499.796	30.58
499.997	30.79
500.197	31.02
500.398	31.28
500.598	31.58
500.799	31.83
500.999	32.3
501.199	32.44
501.4	32.78
501.6	33
501.801	33.11
502.001	33.32
502.201	33.42
502.402	33.49
502.602	33.69
502.802	33.89
503.002	34.12
503.203	34.23
503.403	34.44
503.603	34.76
503.803	34.89
504.003	35.34
504.204	35.59
504.404	35.88
504.604	36.3
504.804	36.65
505.004	36.82
505.204	36.95
505.404	37.07
505.604	37.21
505.804	37.29
506.005	37.41
506.205	37.52
506.405	37.63
506.605	37.73
506.805	37.95
507.005	37.95
507.204	38.1
507.404	38.34
507.604	38.8
507.804	39.08
508.004	39.4
508.204	39.83
508.404	39.88
508.604	40.11
508.804	40.4
509.003	40.46
509.203	40.79
509.403	41.17
509.603	41.47
509.803	41.58
510.002	41.82
510.202	42.07
510.402	42.16
510.602	42.49
510.801	42.73
511.001	43.01
511.201	43.25
511.4	43.47
511.6	43.6
511.8	43.79
511.999	43.93
512.199	44.08
512.398	44.23
512.598	44.54
512.797	44.92
512.997	44.98
513.197	45.13
513.396	45.43
513.596	45.52
513.795	45.71
513.994	45.89
514.194	46.12
514.393	46.2
514.593	46.42
514.792	46.54
514.992	46.63
515.191	47.05
515.39	47.22
515.59	47.45
515.789	47.79
515.988	47.91
516.188	48.12
516.387	48.42
516.586	48.94
516.786	49.25
516.985	49.58
517.184	49.78
517.383	50
517.582	50.17
517.782	50.25
517.981	50.58
518.18	50.82
518.379	50.98
518.578	51.13
518.777	51.23
518.976	51.3
519.176	51.4
519.375	51.47
519.574	51.62
519.773	51.69
519.972	51.93
520.171	51.98
520.37	52.16
520.569	52.41
520.768	52.5
520.967	52.66
521.166	52.74
521.365	52.9
521.564	53.05
521.762	53.22
521.961	53.47
522.16	53.54
522.359	53.59
522.558	53.61
522.757	53.67
522.956	53.83
523.154	53.82
523.353	54.17
523.552	54.47
523.751	54.67
523.949	54.87
524.148	55.07
524.347	55.32
524.546	55.62
524.744	55.77
524.943	55.98
525.142	56.2
525.34	56.4
525.539	56.33
525.737	56.44
525.936	56.59
526.135	56.72
526.333	56.84
526.532	56.93
526.73	56.93
526.929	57.16
527.127	57.27
527.326	57.37
527.524	57.42
527.723	57.73
527.921	57.64
528.12	57.69
528.318	57.63
528.516	57.65
528.715	57.68
528.913	57.72
529.112	57.74
529.31	57.74
529.508	57.76
529.707	57.94
529.905	57.86
530.103	58.04
530.301	58.16
530.5	58.36
530.698	58.46
530.896	58.64
531.094	58.77
531.293	58.83
531.491	59.07
531.689	59.22
531.887	59.17
532.085	59.23
532.283	59.23
532.481	59.23
532.68	59.36
532.878	59.54
533.076	59.58
533.274	59.74
533.472	59.8
533.67	59.75
533.868	59.79
534.066	59.88
534.264	59.97
534.462	59.95
534.66	60.04
534.858	59.95
535.056	60.02
535.253	59.96
535.451	59.88
535.649	59.93
535.847	60.1
536.045	60.17
536.243	60.31
536.441	60.29
536.638	60.49
536.836	60.43
537.034	60.47
537.232	60.4
537.43	60.55
537.627	60.63
537.825	60.77
538.023	60.68
538.22	60.61
538.418	60.57
538.616	60.66
538.813	60.6
539.011	60.72
539.209	60.8
539.406	60.77
539.604	60.84
539.801	60.85
539.999	61.02
540.196	61.13
540.394	61.25
540.591	61.2
540.789	61.38
540.986	61.41
541.184	61.51
541.381	61.46
541.579	61.44
541.776	61.33
541.974	61.35
542.171	61.27
542.368	61.21
542.566	61.24
542.763	61.26
542.96	61.28
543.158	61.33
543.355	61.34
543.552	61.49
543.75	61.61
543.947	61.76
544.144	61.85
544.341	61.85
544.539	61.89
544.736	61.9
544.933	61.99
545.13	61.94
545.327	62.05
545.524	61.86
545.722	61.78
545.919	61.75
546.116	61.84
546.313	61.86
546.51	61.98
546.707	61.99
546.904	62.12
547.101	62.18
547.298	62.19
547.495	62.22
547.692	62.31
547.889	62.46
548.086	62.45
548.283	62.33
548.48	62.3
548.677	62.14
548.874	62.18
549.07	62.07
549.267	61.91
549.464	61.95
549.661	61.79
549.858	61.84
550.055	61.8
550.251	61.84
550.448	61.93
550.645	62.11
550.842	62.09
551.038	61.99
551.235	61.99
551.432	62.03
551.628	61.91
551.825	61.99
552.022	62.2
552.218	62.15
552.415	62.3
552.612	62.36
552.808	62.24
553.005	62.3
553.201	62.46
553.398	62.35
553.594	62.39
553.791	62.44
553.987	62.43
554.184	62.18
554.38	62.22
554.577	62.25
554.773	62.26
554.97	62.28
555.166	62.29
555.362	62.36
555.559	62.42
555.755	62.24
555.952	62.3
556.148	62.36
556.344	62.47
556.541	62.29
556.737	62.26
556.933	62.35
557.129	62.35
557.326	62.27
557.522	62.25
557.718	62.35
557.914	62.59
558.11	62.58
558.307	62.58
558.503	62.62
558.699	62.98
558.895	62.87
559.091	62.75
559.287	62.81
559.483	62.85
559.679	62.92
559.876	62.95
560.072	62.93
560.268	62.96
560.464	63.03
560.66	62.9
560.856	62.71
561.052	62.88
561.247	62.99
561.443	62.89
561.639	63.1
561.835	63.24
562.031	63.09
562.227	62.94
562.423	62.82
562.619	62.71
562.815	63.13
563.01	63.05
563.206	62.79
563.402	62.71
563.598	62.64
563.793	62.58
563.989	62.17
564.185	62.34
564.381	62.53
564.576	62.44
564.772	62.6
564.968	62.43
565.163	62.39
565.359	62.33
565.555	62.17
565.75	62.36
565.946	62.21
566.141	62.39
566.337	62.29
566.532	62.19
566.728	62.26
566.923	61.93
567.119	61.74
567.314	61.78
567.51	61.86
567.705	62
567.901	61.79
568.096	61.78
568.292	61.67
568.487	61.56
568.682	61.52
568.878	61.56
569.073	61.59
569.268	61.65
569.464	61.65
569.659	61.93
569.854	61.85
570.05	62.01
570.245	62.24
570.44	62.33
570.635	62.45
570.831	62.63
571.026	62.44
571.221	62.46
571.416	62.52
571.611	62.51
571.806	62.36
572.002	62.31
572.197	62.3
572.392	62.23
572.587	62.11
572.782	61.91
572.977	61.8
573.172	61.99
573.367	62.17
573.562	62.14
573.757	62.13
573.952	61.95
574.147	62
574.342	61.85
574.537	61.83
574.732	61.68
574.927	61.89
575.121	61.8
575.316	61.69
575.511	61.5
575.706	61.39
575.901	61.34
576.096	61.43
576.29	61.38
576.485	61.3
576.68	61.43
576.875	61.35
577.069	61.02
577.264	61.04
577.459	61.02
577.654	60.95
577.848	60.89
578.043	60.93
578.238	60.9
578.432	60.81
578.627	60.86
578.821	60.66
579.016	60.84
579.21	60.97
579.405	60.86
579.6	60.77
579.794	60.86
579.989	60.89
580.183	60.91
580.378	60.94
580.572	61.1
580.766	61.09
580.961	61.03
581.155	60.87
581.35	61.18
581.544	61.36
581.738	61.27
581.933	61.17
582.127	61.16
582.321	60.93
582.516	61.07
582.71	60.91
582.904	60.87
583.099	60.94
583.293	61.21
583.487	61.09
583.681	60.83
583.875	60.98
584.07	61.08
584.264	60.82
584.458	61.05
584.652	60.72
584.846	60.79
585.04	60.82
585.234	60.79
585.428	60.58
585.623	60.43
585.817	60.59
586.011	60.6
586.205	60.51
586.399	60.65
586.593	60.27
586.787	60.53
586.981	60.47
587.174	60.38
587.368	59.97
587.562	59.86
587.756	59.66
587.95	59.59
588.144	59.34
588.338	59.07
588.532	59.07
588.725	59.34
588.919	58.89
589.113	58.76
589.307	58.82
589.501	58.92
589.694	59.22
589.888	59.29
590.082	59.22
590.275	59.31
590.469	59.52
590.663	59.45
590.856	59.33
591.05	59.42
591.244	59.56
591.437	59.62
591.631	59.53
591.824	59.16
592.018	59.31
592.212	59.3
592.405	59.19
592.599	59.13
592.792	59.11
592.986	59.28
593.179	59.31
593.372	59.06
593.566	58.78
593.759	58.82
593.953	58.93
594.146	58.73
594.339	58.68
594.533	58.73
594.726	58.65
594.92	58.49
595.113	58.12
595.306	58.15
595.499	58.04
595.693	57.96
595.886	58.06
596.079	57.87
596.272	57.65
596.466	57.49
596.659	57.28
596.852	57.34
597.045	57.41
597.238	57.39
597.431	57.21
597.624	57.13
597.818	57.18
598.011	56.94
598.204	57.05
598.397	57.1
598.59	57.04
598.783	57
598.976	56.79
599.169	56.79
599.362	56.67
599.555	56.8
599.748	56.91
599.941	56.86
600.134	56.98
600.326	56.83
600.519	56.96
600.712	56.95
600.905	57.25
601.098	57.16
601.291	57.1
601.483	57.17
601.676	56.91
601.869	56.91
602.062	56.87
602.255	56.72
602.447	56.4
602.64	56.29
602.833	56.27
603.025	55.9
603.218	56.14
603.411	56.06
603.603	56.08
603.796	56.1
603.989	55.87
604.181	55.8
604.374	55.64
604.566	55.91
604.759	55.75
604.951	55.59
605.144	55.43
605.336	55.29
605.529	55.19
605.721	55.01
605.914	55.02
606.106	55.06
606.299	55.14
606.491	55.15
606.683	54.99
606.876	54.89
607.068	54.95
607.26	55.09
607.453	54.93
607.645	55.02
607.837	55.22
608.03	55.08
608.222	55.2
608.414	55.13
608.606	55.19
608.799	55.25
608.991	55.48
609.183	55.43
609.375	55.44
609.567	55.32
609.759	55.28
609.952	54.99
610.144	54.94
610.336	54.76
610.528	54.79
610.72	54.55
610.912	54.57
611.104	54.41
611.296	54.45
611.488	54.56
611.68	54.38
611.872	54.23
612.064	54.46
612.256	54.65
612.448	54.59
612.64	54.2
612.832	54.5
613.023	54.24
613.215	54.16
613.407	54.24
613.599	53.67
613.791	53.93
613.983	53.68
614.174	53.69
614.366	53.58
614.558	53.46
614.75	53.3
614.941	53
615.133	52.82
615.325	53.06
615.516	52.73
615.708	53
615.9	52.89
616.091	53.08
616.283	52.47
616.475	52.24
616.666	52.36
616.858	52.59
617.049	52.47
617.241	52.53
617.432	52.36
617.624	52.43
617.815	52.34
618.007	52.14
618.198	52.07
618.39	52.44
618.581	52.56
618.773	52.47
618.964	52.49
619.155	52.55
619.347	52.49
619.538	52.33
619.729	52.12
619.921	51.84
620.112	52.24
620.303	51.86
620.494	51.65
620.686	51.35
620.877	51.34
621.068	51.19
621.259	51
621.451	51.12
621.642	51.15
621.833	51.21
622.024	51.53
622.215	51
622.406	51.2
622.597	51.19
622.788	51.19
622.98	51.05
623.171	51.22
623.362	51.42
623.553	51.35
623.744	51.13
623.935	50.92
624.126	50.81
624.317	50.98
624.508	51.06
624.698	50.97
624.889	50.75
625.08	50.92
625.271	50.95
625.462	50.76
625.653	50.73
625.844	50.47
626.034	50.48
626.225	50.59
626.416	50.45
626.607	50.37
626.798	50.53
626.988	50.93
627.179	50.84
627.37	50.76
627.56	50.85
627.751	50.83
627.942	51.08
628.132	51.04
628.323	50.9
628.514	51.15
628.704	51.32
628.895	51.07
629.085	50.83
629.276	50.74
629.466	50.33
629.657	50.21
629.847	49.84
630.038	49.77
630.228	49.84
630.419	49.79
630.609	49.46
630.8	49.14
630.99	49.09
631.181	48.95
631.371	48.81
631.561	49.32
631.752	49.51
631.942	49.79
632.132	49.8
632.323	49.78
632.513	49.92
632.703	49.97
632.893	49.98
633.084	49.93
633.274	49.84
633.464	49.8
633.654	49.48
633.844	49.22
634.034	49.17
634.225	48.84
634.415	49.14
634.605	48.86
634.795	48.73
634.985	48.64
635.175	48.76
635.365	48.6
635.555	48.6
635.745	48.78
635.935	48.87
636.125	48.6
636.315	49.01
636.505	48.69
636.695	48.72
636.885	48.55
637.075	48.38
637.265	48.15
637.455	48.23
637.644	48.29
637.834	47.94
638.024	47.55
638.214	48.06
638.404	47.61
638.593	47.29
638.783	47.57
638.973	47.59
639.163	47.96
639.352	47.79
639.542	48.02
639.732	48.02
639.921	48.18
640.111	48.46
640.301	48.08
640.49	48.26
640.68	48.48
640.87	48.17
641.059	48.16
641.249	48.22
641.438	48.43
641.628	48.29
641.817	48.37
642.007	48.07
642.196	48.03
642.386	47.98
642.575	47.67
642.764	47.32
642.954	46.93
643.143	47.28
643.333	46.86
643.522	46.65
643.711	46.25
643.901	46.42
644.09	46.71
644.279	46.8
644.469	46.04
644.658	46.57
644.847	47.08
645.036	47.05
645.226	46.62
645.415	46.65
645.604	46.52
645.793	46.67
645.982	46.17
646.171	46.16
646.361	45.91
646.55	46.66
646.739	46.35
646.928	45.97
647.117	46.3
647.306	46.48
647.495	46.38
647.684	46.97
647.873	47.03
648.062	47.27
648.251	47.01
648.44	47.27
648.629	46.98
648.818	46.62
649.007	46.72
649.196	46.84
649.384	46.83
649.573	47.05
649.762	46.61
649.951	46.89
650.14	46.67
650.328	46.47
650.517	46.56
650.706	46.27
650.895	46.67
651.083	46.62
651.272	46.62
651.461	46.87
651.65	46.87
651.838	46.76
652.027	46.44
652.216	46.02
652.404	46.22
652.593	46.28
652.781	46.69
652.97	46.78
653.158	46.73
653.347	46.5
653.535	46.26
653.724	45.96
653.912	46.36
654.101	46.24
654.289	46.73
654.478	46.65
654.666	46.14
654.855	46.11
655.043	45.93
655.231	46.19
655.42	45.92
655.608	45.73
655.796	45.86
655.985	45.48
656.173	45.63
656.361	45.63
656.55	45.67
656.738	45.82
656.926	46.13
657.114	46.3
657.302	46.14
657.491	46.36
657.679	46.52
657.867	46.59
658.055	46.66
658.243	46.55
658.431	46.28
658.619	46.18
658.807	46.15
658.996	45.89
659.184	45.65
659.372	45.69
659.56	45.45
659.748	45.3
659.936	45.32
660.124	45.15
660.311	45.11
660.499	45.19
660.687	45.06
660.875	45.07
661.063	45.03
661.251	44.89
661.439	44.98
661.627	45.32
661.814	45.15
662.002	45.13
662.19	45.12
662.378	45.08
662.565	45.17
662.753	45.05
662.941	45.04
663.129	45.01
663.316	45.09
663.504	44.43
663.692	44.15
663.879	44.66
664.067	44.54
664.254	44.67
664.442	44.52
664.63	44.34
664.817	44.23
665.005	43.73
665.192	43.59
665.38	43.54
665.567	43.68
665.755	43.97
665.942	43.64
666.13	43.4
666.317	43.39
666.504	43.58
666.692	43.75
666.879	44.01
667.067	44.09
667.254	44.15
667.441	44.11
667.629	44.1
667.816	43.63
668.003	43.23
668.19	43.09
668.378	43.11
668.565	42.9
668.752	42.63
668.939	42.84
669.127	43.13
669.314	43.05
669.501	43.12
669.688	43.09
669.875	42.91
670.062	43.37
670.249	43.56
670.436	43.66
670.623	43.64
670.81	43.61
670.997	43.21
671.184	42.97
671.371	43.03
671.558	42.99
671.745	42.94
671.932	43.08
672.119	43.04
672.306	43.42
672.493	42.85
672.68	43
672.867	43.08
673.054	43.02
673.24	42.83
673.427	42.62
673.614	42.88
673.801	43.33
673.988	43.39
674.174	43.24
674.361	43.05
674.548	43.33
674.734	43.66
674.921	43.27
675.108	43.31
675.294	43.65
675.481	43.5
675.668	43.28
675.854	43.07
676.041	43.17
676.227	42.92
676.414	42.86
676.601	43.3
676.787	43.36
676.974	43.4
677.16	43.78
677.347	43.78
677.533	43.78
677.719	43.53
677.906	43.07
678.092	43.07
678.279	43.11
678.465	42.65
678.651	42.14
678.838	41.93
679.024	42.09
679.21	41.9
679.397	41.99
679.583	41.98
679.769	41.84
679.955	41.85
680.142	41.38
680.328	41.65
680.514	41.99
680.7	41.9
680.886	42.08
681.073	42.25
681.259	42.35
681.445	42.34
681.631	42.52
681.817	42.9
682.003	42.9
682.189	43.11
682.375	43.04
682.561	42.83
682.747	42.92
682.933	42.65
683.119	42.25
683.305	41.89
683.491	41.53
683.677	41.41
683.863	41.17
684.049	41.76
684.235	41.76
684.42	41.79
684.606	41.43
684.792	41.92
684.978	42.02
685.164	41.98
685.349	41.85
685.535	42.18
685.721	42.28
685.907	41.76
686.092	41.14
686.278	41.24
686.464	41.09
686.649	41.33
686.835	40.6
687.021	40.31
687.206	40.88
687.392	40.98
687.577	40.83
687.763	40.68
687.948	41.11
688.134	41.54
688.319	41.72
688.505	41.65
688.69	41.97
688.876	41.85
689.061	41.68
689.247	41.55
689.432	41.78
689.618	41.21
689.803	41.1
689.988	41.07
690.174	40.66
690.359	40.16
690.544	39.84
690.73	39.57
690.915	39.98
691.1	40.15
691.285	40.2
691.471	40.43
691.656	41.12
691.841	40.75
692.026	40.87
692.211	40.51
692.396	41.24
692.582	41.38
692.767	41.59
692.952	41.61
693.137	41.6
693.322	41.15
693.507	40.81
693.692	40.32
693.877	41.28
694.062	40.95
694.247	41.62
694.432	41.23
694.617	41.44
694.802	42.14
694.987	42.21
695.172	42.3
695.357	42.18
695.541	42
695.726	41.85
695.911	42.03
696.096	42.03
696.281	41.57
696.466	41.6
696.65	41.22
696.835	40.24
697.02	40.24
697.204	40.17
697.389	40.37
697.574	40.32
697.759	40.32
697.943	39.42
698.128	39.46
698.312	39.66
698.497	39.21
698.682	39.27
698.866	39.81
699.051	39.8
699.235	39.49
699.42	39.7
699.604	40.03
699.789	40.34
699.973	40.43
700.158	40.29
700.342	40.14
700.527	40.5
700.711	40.65
700.895	39.9
701.08	39.78
701.264	40.21
701.448	39.86
701.633	39.07
701.817	38.91
702.001	39.22
702.186	39.73
702.37	39.61
702.554	39.73
702.738	39.53
702.923	39.83
703.107	39.76
703.291	39.46
703.475	39.11
703.659	38.97
703.843	39.29
704.027	39.5
704.212	39.61
704.396	39.84
704.58	39.62
704.764	39.73
704.948	39.47
705.132	39.85
705.316	40.18
705.5	41.09
705.684	41.8
705.868	41.61
706.052	41.53
706.235	41.45
706.419	40.91
706.603	41.07
706.787	40.82
706.971	41.43
707.155	41.2
707.339	40.8
707.522	39.94
707.706	39.93
707.89	39.75
708.074	39.61
708.257	38.94
708.441	39.82
708.625	40.15
708.808	39.95
708.992	39.6
709.176	38.98
709.359	38.96
709.543	39.19
709.727	39.29
709.91	39.3
710.094	39.26
710.277	39.84
710.461	39.01
710.644	38.92
710.828	38.8
711.011	38.14
711.195	38.35
711.378	38.7
711.562	38.92
711.745	38.74
711.928	37.97
712.112	38.15
712.295	37.56
712.478	38.28
712.662	37.74
712.845	38.11
713.028	38.35
713.212	38.66
713.395	38.38
713.578	37.98
713.761	38.12
713.945	38.81
714.128	38.74
714.311	39.85
714.494	39.2
714.677	39.73
714.86	40.02
715.043	40.77
715.227	40.59
715.41	40.67
715.593	40.67
715.776	40.35
715.959	40.36
716.142	40.26
716.325	39.58
716.508	39.77
716.691	39.63
716.874	39.84
717.057	39.75
717.239	39.67
717.422	39.41
717.605	39.51
717.788	39.45
717.971	39.86
718.154	40.03
718.337	39.73
718.519	39.9
718.702	39.69
718.885	39.44
719.068	38.85
719.25	39.45
719.433	40.08
719.616	40.19
719.798	40.6
719.981	40.35
720.164	39.35
720.346	40.09
720.529	39.82
720.712	39.73
720.894	40.08
721.077	40.63
721.259	40.12
721.442	40.07
721.624	40.45
721.807	41.13
721.989	40.41
722.172	41.59
722.354	41.15
722.537	40.96
722.719	40.96
722.901	40.54
723.084	39.9
723.266	39.67
723.448	39.34
723.631	39.11
723.813	38.35
723.995	39.07
724.178	38.72
724.36	38.23
724.542	38.56
724.724	39.21
724.907	39.56
725.089	40.14
725.271	40.25
725.453	40.3
725.635	40.91
725.817	41.74
725.999	40.84
726.181	41.31
726.364	40.81
726.546	41.24
726.728	40.44
726.91	40.6
727.092	40.12
727.274	40.72
727.456	41.11
727.638	40.84
727.819	40.16
728.001	40.31
728.183	40.54
728.365	41.65
728.547	41.04
728.729	41.53
728.911	40.88
729.093	41.29
729.274	40.81
729.456	39.89
729.638	39.39
729.82	39.88
730.001	40.49
730.183	39.96
730.365	39.6
730.546	39.38
730.728	39.04
730.91	38.52
731.091	38.03
731.273	37.9
731.455	37.98
731.636	38.68
731.818	38.35
731.999	38.15
732.181	37.86
732.362	36.98
732.544	38.28
732.725	37.81
732.907	37.96
733.088	38.17
733.27	38.2
733.451	38.22
733.633	37.55
733.814	36.65
733.995	36.46
734.177	36.68
734.358	37.25
734.539	36.68
734.721	37.39
734.902	38.1
735.083	37.8
735.264	38.17
735.446	38.76
735.627	38.75
735.808	39.29
735.989	39.75
736.17	39.58
736.351	39.74
736.533	38.98
736.714	38.82
736.895	38.57
737.076	38.73
737.257	38.3
737.438	37.53
737.619	37.96
737.8	37.88
737.981	38.15
738.162	38.17
738.343	38.93
738.524	38.88
738.705	39.78
738.886	39.44
739.067	39.28
739.247	39.17
739.428	38.83
739.609	38.98
739.79	39.02
739.971	39.19
740.151	39.37
740.332	38.46
740.513	38.69
740.694	37.28
740.874	37.29
741.055	38
741.236	38.59
741.417	38.96
741.597	38.15
741.778	38.48
741.958	36.46
742.139	36.42
742.32	36.79
742.5	37.59
742.681	37.46
742.861	37.43
743.042	36.88
743.222	36.47
743.403	37.34
743.583	38.71
743.764	38.12
743.944	38.21
744.124	37.95
744.305	39.05
744.485	38.31
744.666	38.57
744.846	39.78
745.026	40.25
745.207	40.66
745.387	40.66
745.567	39.31
745.747	40.2
745.928	40.92
746.108	41.38
746.288	40.18
746.468	40.89
746.648	41.53
746.829	40.73
747.009	40.34
747.189	39.85
747.369	39.54
747.549	39.04
747.729	38.34
747.909	38.89
748.089	38.95
748.269	38.35
748.449	38.5
748.629	37.52
748.809	37.29
748.989	37.64
749.169	36.99
749.349	36.76
749.529	36.7
749.709	36.56
749.889	36.36
750.068	36.15
750.248	37.36
750.428	37.28
750.608	36.89
750.788	38.21
750.967	37.84
751.147	39.04
751.327	38.67
751.507	40.45
751.686	40.15
751.866	39.97
752.046	40
752.225	39.35
752.405	39.33
752.585	39.78
752.764	39.27
752.944	39.78
753.123	40.17
753.303	40.81
753.482	39.29
753.662	40.25
753.841	41.22
754.021	40.53
754.2	41.29
754.38	41.94
754.559	42.87
754.739	41.99
754.918	41.3
755.097	39.89
755.277	39.26
755.456	39.91
755.635	39.58
755.815	39.4
755.994	39.57
756.173	39.62
756.352	38.81
756.532	38.17
756.711	38.12
756.89	39.48
757.069	40.44
757.248	40.97
757.427	40.59
757.607	40.1
757.786	39.61
757.965	39.86
758.144	38.42
758.323	37.24
758.502	38.08
758.681	37.94
758.86	37.01
759.039	36.67
759.218	36.31
759.397	35.47
759.576	35.41
759.755	34.64
759.934	34.68
760.113	35.71
760.291	36.62
760.47	36.16
760.649	36.94
760.828	36.83
761.007	36.74
761.186	36.92
761.364	37.77
761.543	37.62
761.722	38.22
761.901	37.89
762.079	37.36
762.258	37.33
762.437	36.52
762.615	36.42
762.794	37.09
762.972	36.57
763.151	35.94
763.33	35.83
763.508	35.9
763.687	35.72
763.865	36
764.044	36.23
764.222	36.37
764.401	37.05
764.579	37.13
764.758	35.52
764.936	36.42
765.114	36.84
765.293	37.15
765.471	37.27
765.65	37.14
765.828	36.91
766.006	37.04
766.184	36.96
766.363	36.65
766.541	35.95
766.719	36.84
766.898	35.94
767.076	35.67
767.254	35.85
767.432	34.93
767.61	35.26
767.788	35.17
767.967	34.53
768.145	33.81
768.323	33.63
768.501	34.04
768.679	33.77
768.857	34.14
769.035	35.54
769.213	36.48
769.391	38.4
769.569	39.76
769.747	41.3
769.925	42.73
770.103	43.43
770.281	42.79
770.459	43.72
770.636	43.47
770.814	42.2
770.992	42.01
771.17	41.91
771.348	41.83
771.525	39.72
771.703	38.74
771.881	37.17
772.059	37.35
772.236	38.88
772.414	36.76
772.592	37.96
772.769	40.68
772.947	40.61
773.125	38.64
773.302	38.85
773.48	39.45
773.657	39.98
773.835	40.74
774.013	39.73
774.19	40.95
774.368	41.98
774.545	42.11
774.723	40.93
774.9	39.84
775.077	40.96
775.255	39.83
775.432	41
775.61	41.63
775.787	42.2
775.964	43.69
776.142	41.6
776.319	41.11
776.496	41.11
776.674	41.57
776.851	41.8
777.028	41.18
777.205	41.59
777.382	39.47
777.56	36.57
777.737	37.54
777.914	37.81
778.091	40.2
778.268	39.83
778.445	38.76
778.622	38.03
778.8	39.1
778.977	39.45
779.154	40.97
779.331	40.62
779.508	42.19
779.685	41.94
779.862	40.95
780.038	38.63
780.215	40.33
780.392	42.27
780.569	42.96
780.746	41.6
780.923	40.35
781.1	39.08
781.277	41.77
781.453	41.62
781.63	38.13
781.807	37.95
781.984	37.24
782.16	35.65
782.337	34.91
782.514	33.52
782.691	35.39
782.867	36.38
783.044	36.28
783.221	35.09
783.397	36.07
783.574	34.92
783.75	36.09
783.927	37.7
784.103	38.88
784.28	36.96
784.456	37.27
784.633	35.53
784.809	34.17
784.986	34.59
785.162	36.29
785.339	34.43
785.515	37.48
785.692	38.59
785.868	39.65
786.044	38.91
786.221	40.63
786.397	40.99
786.573	42.4
786.749	42.7
786.926	42.58
787.102	41.73
787.278	42.32
787.454	41.71
787.631	40.67
787.807	39.27
787.983	39.97
788.159	39.74
788.335	41.19
788.511	41.29
788.687	43.26
788.863	43.69
789.039	43.98
789.216	43.02
789.392	44.59
789.568	45.34
789.744	44.46
789.919	44.22
790.095	44.88
790.271	43.45
790.447	41.24
790.623	39.65
790.799	38.89
790.975	38.15
791.151	40.24
791.327	40.95
791.502	40.84
791.678	42.88
791.854	44.21
792.03	42.56
792.205	43.77
792.381	45
792.557	44.88
792.733	45.99
792.908	46.72
793.084	44.78
793.259	42.78
793.435	42.34
793.611	42.05
793.786	41.59
793.962	43.98
794.137	42.84
794.313	42.8
794.488	42.63
794.664	41.61
794.839	40.83
795.015	41.98
795.19	43.16
795.366	43.76
795.541	44.14
795.716	42.67
795.892	43.5
796.067	43.26
796.242	43.36
796.418	44.94
796.593	44.31
796.768	45.1
796.944	44.88
797.119	43.39
797.294	42.25
797.469	41.76
797.644	42.48
797.82	39.86
797.995	41.93
798.17	42
798.345	40.34
798.52	41.02
798.695	41.11
798.87	40.65
799.045	40.79
799.22	39.94
799.395	38.95
799.57	36.53
799.745	35.72
799.92	33.72
800.095	33.83
800.27	34.91
800.445	34.55
800.62	32.93
800.795	35.01
800.97	35.13
801.145	35.23
801.319	36.73
801.494	38.37
801.669	40.16
801.844	41.15
802.018	39.41
802.193	36.99
802.368	36.73
802.543	38.4
802.717	37.3
802.892	35.96
803.067	37.42
803.241	36.46
803.416	36.08
803.59	37.54
803.765	38.13
803.94	41.24
804.114	45.02
804.289	48.26
804.463	48.93
804.638	47.31
804.812	49.8
804.986	50.54
805.161	50.01
805.335	48.9
805.51	48.16
805.684	46.5
805.858	45.44
806.033	44.37
806.207	39.73
806.381	38.39
806.556	39.88
806.73	40.55
806.904	42.33
807.078	43.46
807.253	45.77
807.427	45.24
807.601	45.36
807.775	46.17
807.949	46.55
808.123	49.48
808.298	52.42
808.472	52.63
808.646	51.83
808.82	51.07
808.994	48.97
809.168	47.8
809.342	48.54
809.516	46.67
809.69	44.04
809.864	43.1
810.038	42.83
810.212	40.65
810.385	40.22
810.559	40.92
810.733	40.51
810.907	40.72
811.081	39.73
811.255	38.25
811.428	40.16
811.602	40.6
811.776	41.29
811.95	41.76
812.123	43.13
812.297	41.61
812.471	40.2
812.644	38.55
812.818	38.92
812.992	41.28
813.165	42.04
813.339	42.07
813.512	47.08
813.686	47.81
813.86	49.32
814.033	47.61
814.207	49.23
814.38	51.21
814.554	49.45
814.727	51.28
814.9	50.22
815.074	50.76
815.247	52.11
815.421	45.96
815.594	44.8
815.767	42.69
815.941	43.47
816.114	42.9
816.287	42.35
816.46	45.36
816.634	42.13
816.807	42.48
816.98	44.47
817.153	44.12
817.327	47.17
817.5	48.49
817.673	48.66
817.846	46.86
818.019	48.48
818.192	48.91
818.365	43.26
818.538	46.15
818.711	45.13
818.884	44.38
819.057	42.73
819.23	42.49
819.403	39.64
819.576	41.01
819.749	43.1
819.922	40.42
820.095	39.12
820.268	42.56
820.441	43.94
820.614	43.55
820.786	43.72
820.959	44.45
821.132	42.16
821.305	41.85
821.477	40.56
821.65	39.46
821.823	38.96
821.996	38.64
822.168	37.86
822.341	36.33
822.514	36.13
822.686	35.64
822.859	34.48
823.031	34.87
823.204	35.25
823.376	35.26
823.549	34.64
823.722	35.06
823.894	35.84
824.067	35.66
824.239	35.6
824.411	35.76
824.584	35.6
824.756	36.03
824.929	35.08
825.101	35.35
825.273	35.15
825.446	35.63
825.618	35.26
825.79	34.37
825.963	34.89
826.135	35.18
826.307	34.96
826.479	35.17
826.652	35.53
826.824	36.37
826.996	36.07
827.168	36.47
827.34	36.32
827.512	36.2
827.684	36.06
827.856	35.8
828.029	36.39
828.201	36.38
828.373	35.75
828.545	35.21
828.717	35.97
828.889	34.91
829.061	35.12
829.232	35.45
829.404	35.53
829.576	35.85
829.748	35.05
829.92	35.2
830.092	36.18
830.264	37.45
830.436	38.72
830.607	38.69
830.779	40.84
830.951	40.87
831.123	40.95
831.294	41.68
831.466	42.05
831.638	45.83
831.809	46.11
831.981	45.81
832.153	43.72
832.324	44.6
832.496	45.92
832.667	47.17
832.839	48.62
833.011	48.27
833.182	49.82
833.354	49.4
833.525	46.14
833.697	45.13
833.868	45.28
834.039	45.37
834.211	42.06
834.382	39.72
834.554	37.92
834.725	35.91
834.896	36.31
835.068	34.98
835.239	35.3
835.41	36.4
835.581	36.98
835.753	36.62
835.924	38.56
836.095	41.02
836.266	41.61
836.438	41.51
836.609	43.43
836.78	42.88
836.951	42.05
837.122	41.97
837.293	42.37
837.464	42.42
837.635	41.95
837.806	41.38
837.977	41.79
838.148	42.55
838.319	43.89
838.49	44.5
838.661	47.01
838.832	49.26
839.003	48.83
839.174	48.69
839.345	48.48
839.516	46.51
839.687	46.3
839.857	42.34
840.028	41.67
840.199	43.59
840.37	42.6
840.54	44.63
840.711	47.12
840.882	46.55
841.053	44.83
841.223	42.88
841.394	49.19
841.564	48.81
841.735	52.11
841.906	50.65
842.076	48.29
842.247	47.49
842.417	47.54
842.588	50.43
842.758	53.35
842.929	54.39
843.099	56.27
843.27	57.43
843.44	59.91
843.611	62.18
843.781	65.34
843.951	67.37
844.122	68.97
844.292	68.24
844.462	65.69
844.633	64.5
844.803	64.52
844.973	65.48
845.144	59.54
845.314	59.97
845.484	57.04
845.654	56.88
845.824	62.06
845.995	59.7
846.165	61.51
846.335	58.64
846.505	53.16
846.675	60.98
846.845	56.57
847.015	61.32
847.185	63.62
847.355	59.63
847.525	60.85
847.695	57.37
847.865	60.95
848.035	58.62
848.205	57.93
848.375	63.08
848.545	50.81
848.715	56.15
848.884	56.26
849.054	54.62
849.224	62.64
849.394	68.07
849.564	67.03
849.733	67.77
849.903	73.64
850.073	73.86
850.243	74.31
850.412	89.38
850.582	94.79
850.752	88.72
850.921	84.95
851.091	78.16
851.26	71.21
851.43	66.5
851.599	67.13
851.769	66.36
851.939	64.05
852.108	61.92
852.278	59.55
852.447	59.81
852.616	60.09
852.786	58.54
852.955	58.07
853.125	59.46
853.294	59.69
853.463	56.69
853.633	49.78
853.802	54.7
853.971	55.75
854.141	63.34
854.31	64.87
854.479	68.27
854.648	70.92
854.818	72.97
854.987	73.96
855.156	79.07
855.325	73.43
855.494	75.08
855.663	77.18
855.832	72.86
856.001	63.56
856.171	58.4
856.34	60.46
856.509	58.15
856.678	61.12
856.847	56.22
857.016	52.61
857.185	57.61
857.353	61.84
857.522	51.6
857.691	58.7
857.86	66.71
858.029	68.62
858.198	64.65
858.367	62.14
858.535	61.37
858.704	66.54
858.873	67.63
859.042	63.01
859.21	58.64
859.379	65.61
859.548	65.85
859.717	61.68
859.885	64.46
860.054	71.56
860.222	76.91
860.391	83.16
860.56	86.44
860.728	85.69
860.897	91.09
861.065	95.46
861.234	97.41
861.402	98.47
861.571	100.84
861.739	99.26
861.908	95.63
862.076	99.46
862.244	90.81
862.413	88.08
862.581	83.09
862.749	84.18
862.918	76.97
863.086	76.07
863.254	77.93
863.423	76.63
863.591	74.33
863.759	72.94
863.927	69.28
864.096	65.74
864.264	71.94
864.432	81.35
864.6	75.56
864.768	82.39
864.936	75.15
865.104	65.21
865.272	69.03
865.44	73.3
865.608	69.99
865.776	67.41
865.944	69.73
866.112	59.93
866.28	52.21
866.448	54.08
866.616	54.36
866.784	64.39
866.952	73.71
867.12	70.4
867.288	71.38
867.455	74.21
867.623	78.37
867.791	78.74
867.959	81.72
868.127	85.3
868.294	75.83
868.462	68.01
868.63	66.42
868.797	60.42
868.965	61.64
869.133	60.08
869.3	57.85
869.468	61.6
869.636	62.8
869.803	64.63
869.971	58.83
870.138	72.35
870.306	79.35
870.473	78.83
870.641	71.04
870.808	69.65
870.975	74.18
871.143	80.12
871.31	77.28
871.478	82.07
871.645	83.72
871.812	96.79
871.98	84.42
872.147	80.7
872.314	81.56
872.482	91.02
872.649	95.07
872.816	83.45
872.983	80.71
873.15	79.31
873.318	77.66
873.485	71.47
873.652	67.34
873.819	72.58
873.986	79.08
874.153	74.63
874.32	75.8
874.487	77.78
874.654	80.64
874.821	74.12
874.988	70.79
875.155	68.77
875.322	77.34
875.489	77.03
875.656	72.45
875.823	69.66
875.99	67.97
876.157	58.06
876.324	54.58
876.49	50.99
876.657	59.24
876.824	62.29
876.991	57.54
877.157	55.17
877.324	51.23
877.491	55.22
877.658	62.42
877.824	64.92
877.991	73.44
878.157	74.94
878.324	84.6
878.491	84.74
878.657	90.44
878.824	90.97
878.99	86
879.157	91.76
879.323	92.91
879.49	79.52
879.656	80.47
879.823	73.04
879.989	67.49
880.156	61.63
880.322	57.28
880.488	50.39
880.655	50.7
880.821	58.71
880.987	58.17
881.154	55.18
881.32	54.83
881.486	50.98
881.652	52.63
881.819	53.15
881.985	50.1
882.151	49.82
882.317	49.1
882.483	48.21
882.649	44.64
882.816	42.66
882.982	41.37
883.148	43.18
883.314	42.35
883.48	40.08
883.646	38.98
883.812	37.44
883.978	37.67
884.144	38.44
884.31	37.75
884.476	39.39
884.642	41.82
884.807	42.84
884.973	42.11
885.139	41.97
885.305	44.03
885.471	44.22
885.637	45.02
885.802	45.8
885.968	46.63
886.134	47.17
886.3	46.26
886.465	44.25
886.631	44.67
886.797	45.51
886.962	48.24
887.128	49.93
887.293	50.04
887.459	55.68
887.625	56.46
887.79	59.59
887.956	61.76
888.121	63.7
888.287	67.17
888.452	68.07
888.618	69.27
888.783	70.01
