Data from LC_236_Reflection_2.txt Node
Date: Thu Nov 19 22:08:01 EST 2015
User: robert
Spectrometer: USB4E03001
Autoset integration time: false
Trigger mode: 4
Integration Time (sec): 1.000000E-1
Scans to average: 15
Electric dark correction enabled: true
Nonlinearity correction enabled: false
Boxcar width: 5
Stray light correction enabled: false
XAxis mode: Wavelengths
Stop averaging: false
Number of Pixels in Spectrum: 3648
>>>>>Begin Spectral Data<<<<<
177.566	4.5
177.785	7.76
178.005	52.25
178.225	30.36
178.445	27.41
178.665	10.4
178.885	100.07
179.105	406.55
179.324	203.57
179.544	12.59
179.764	-20.97
179.984	22.54
180.204	34.23
180.423	29.18
180.643	63.99
180.863	48.88
181.083	47.35
181.302	24.23
181.522	62.41
181.742	67.6
181.961	92.92
182.181	149.6
182.401	172.72
182.621	174.75
182.84	239.8
183.06	197.88
183.279	205.07
183.499	209.73
183.719	506.58
183.938	1020.2
184.158	-615.72
184.377	-723.72
184.597	378.32
184.816	-3066.98
185.036	1.72
185.256	448.33
185.475	81.71
185.695	114.13
185.914	140.19
186.134	140.07
186.353	185.86
186.572	135.27
186.792	266.05
187.011	-1817.27
187.231	-507.33
187.45	-1130.09
187.67	-90.98
187.889	-73.91
188.108	-47.36
188.328	-51.67
188.547	-336
188.766	-526.47
188.986	-665.32
189.205	10209.8
189.424	303.1
189.644	302.96
189.863	189.78
190.082	148.23
190.302	201.64
190.521	173.55
190.74	149.19
190.959	137.78
191.178	117.41
191.398	89.06
191.617	21.01
191.836	-34
192.055	-54.61
192.274	-87.58
192.494	-136.01
192.713	-29.44
192.932	-7.82
193.151	3.88
193.37	11.09
193.589	26.11
193.808	51.84
194.027	66.96
194.246	64.02
194.465	82.1
194.685	78.73
194.904	76.91
195.123	93.94
195.342	101.58
195.561	83.83
195.78	72.71
195.999	69.42
196.218	85.05
196.436	76.65
196.655	79.6
196.874	81.69
197.093	80.36
197.312	131.87
197.531	160.17
197.75	268.05
197.969	320.12
198.188	-914.96
198.407	-248.53
198.625	-343.36
198.844	-259.95
199.063	-1664.67
199.282	-150.8
199.501	-227.6
199.719	-322.84
199.938	-52.56
200.157	-109.68
200.376	-140.22
200.594	584.52
200.813	5.96
201.032	189.13
201.251	198.95
201.469	-71.95
201.688	46.25
201.907	61.79
202.125	182.55
202.344	86.2
202.563	106.44
202.781	97.64
203	88.93
203.218	121.83
203.437	59.46
203.656	97.15
203.874	171.26
204.093	158.68
204.311	60.22
204.53	33.24
204.748	30.78
204.967	16
205.185	-15.85
205.404	-32.87
205.622	-48.31
205.841	44.06
206.059	15.22
206.278	-57
206.496	-45.1
206.715	0.04
206.933	54.22
207.151	81.93
207.37	193.32
207.588	105.65
207.806	126.58
208.025	115.27
208.243	-9.64
208.461	-81.18
208.68	145.99
208.898	155.8
209.116	70.92
209.335	117.69
209.553	331.98
209.771	-962.18
209.989	352.45
210.208	19.87
210.426	262.13
210.644	108.69
210.862	84.13
211.081	67.6
211.299	13.25
211.517	53.32
211.735	22.58
211.953	16.05
212.171	11.83
212.39	36.34
212.608	47.01
212.826	68.67
213.044	67.55
213.262	65.35
213.48	48.24
213.698	90.45
213.916	124.28
214.134	143.59
214.352	217.5
214.57	313.76
214.788	499.86
215.006	364.47
215.224	142.48
215.442	150.41
215.66	38.65
215.878	-69.13
216.096	-187.69
216.314	-376.22
216.532	-463.34
216.75	-1055.54
216.968	302.09
217.185	1013.97
217.403	1935.76
217.621	3716.87
217.839	-242.22
218.057	-126.8
218.275	6.57
218.492	-5.51
218.71	1.54
218.928	-18.52
219.146	-37.52
219.363	-6.7
219.581	-13.68
219.799	-5.15
220.017	44.17
220.234	60.4
220.452	54.28
220.67	64.28
220.887	44.29
221.105	48.24
221.323	53.92
221.54	51.66
221.758	50.89
221.976	42.03
222.193	47.44
222.411	13.22
222.629	6.35
222.846	4.78
223.064	1.33
223.281	2.34
223.499	4.29
223.716	6.58
223.934	14.51
224.151	16.41
224.369	16.61
224.586	4.59
224.804	13.87
225.021	15.07
225.239	17.7
225.456	9.3
225.674	12.2
225.891	9.04
226.108	12.45
226.326	3.86
226.543	7.5
226.76	16.61
226.978	22.58
227.195	27.69
227.413	17.74
227.63	5.44
227.847	8.67
228.064	9.16
228.282	11.37
228.499	11.43
228.716	12.9
228.934	12.43
229.151	12.11
229.368	11.09
229.585	11.22
229.802	12.16
230.02	16.21
230.237	16.33
230.454	16.31
230.671	12.34
230.888	11.36
231.105	8.19
231.323	8.17
231.54	7.08
231.757	7.05
231.974	5.08
232.191	5.93
232.408	1.21
232.625	-2.46
232.842	-0.31
233.059	5.36
233.276	9.99
233.493	17.37
233.71	17.43
233.927	19.16
234.144	19.62
234.361	15.08
234.578	12.79
234.795	16.67
235.012	22.2
235.229	19.81
235.446	21.59
235.663	16.54
235.879	15.97
236.096	12.76
236.313	9.84
236.53	11.89
236.747	14.61
236.964	18.32
237.181	14.64
237.397	12.18
237.614	10.74
237.831	13.27
238.048	17.83
238.264	11.79
238.481	14.73
238.698	13.56
238.915	13.73
239.131	14.91
239.348	14.15
239.565	16.42
239.781	14.32
239.998	13.1
240.215	8.38
240.431	7.24
240.648	9.2
240.865	7.92
241.081	8.51
241.298	9.05
241.514	9.94
241.731	9.19
241.947	10.01
242.164	9.96
242.38	10.83
242.597	11.96
242.814	13.8
243.03	13.51
243.246	13.78
243.463	12.89
243.679	11.54
243.896	10.92
244.112	11.77
244.329	10.19
244.545	9.45
244.762	9.37
244.978	8.03
245.194	4.6
245.411	4.12
245.627	4.26
245.843	5.53
246.06	8.32
246.276	7.88
246.492	7.69
246.709	8.52
246.925	8.9
247.141	8.73
247.357	9.52
247.574	9.59
247.79	9.95
248.006	11.04
248.222	10.98
248.439	10.33
248.655	11.01
248.871	10.88
249.087	10.23
249.303	10.46
249.519	10.44
249.736	9.85
249.952	9.8
250.168	9.34
250.384	7.46
250.6	8.55
250.816	8.71
251.032	9.18
251.248	9.12
251.464	8.79
251.68	8.54
251.896	8.41
252.112	6.85
252.328	8.1
252.544	7.57
252.76	8.35
252.976	8.81
253.192	8.38
253.408	7.81
253.624	8.54
253.84	9.05
254.056	8.41
254.272	8.24
254.487	9.17
254.703	8.65
254.919	7.15
255.135	5.32
255.351	2.32
255.567	3.44
255.782	1.98
255.998	4.87
256.214	5.92
256.43	7.16
256.646	10.15
256.861	10.69
257.077	9.38
257.293	11.27
257.508	13.42
257.724	13.16
257.94	11.33
258.155	12.38
258.371	10.66
258.587	9.72
258.802	9.41
259.018	9.53
259.234	9.51
259.449	9.3
259.665	8.55
259.88	7.63
260.096	7.96
260.312	7.37
260.527	6.51
260.743	6.49
260.958	7.25
261.174	7.5
261.389	7.17
261.605	7.56
261.82	7.43
262.036	7.49
262.251	6.98
262.466	6.94
262.682	7.09
262.897	8.3
263.113	7.81
263.328	7.61
263.543	7.41
263.759	6.76
263.974	5.92
264.189	7.84
264.405	8.97
264.62	10.49
264.835	10.63
265.051	11.58
265.266	12.45
265.481	11.85
265.696	11.37
265.912	9.97
266.127	10.14
266.342	10.15
266.557	8.74
266.773	8.03
266.988	6.89
267.203	6.14
267.418	6.06
267.633	5.54
267.848	6.66
268.064	6.53
268.279	6.87
268.494	7.05
268.709	6.97
268.924	6.34
269.139	6.95
269.354	7.38
269.569	8.08
269.784	8.13
269.999	7.23
270.214	7.24
270.429	6.45
270.644	6.73
270.859	6.7
271.074	6.07
271.289	6.8
271.504	7.05
271.719	7.66
271.934	7.61
272.149	7.45
272.363	7.88
272.578	7.79
272.793	8.28
273.008	7.86
273.223	7.57
273.438	8.06
273.653	8.21
273.867	7.41
274.082	7.02
274.297	6.55
274.512	7.11
274.726	7.03
274.941	6.57
275.156	5.54
275.371	5.17
275.585	4.79
275.8	4.45
276.015	4.4
276.229	6.05
276.444	6.25
276.659	7.31
276.873	6.32
277.088	8.08
277.302	7.38
277.517	8.76
277.732	10.07
277.946	9.96
278.161	9.86
278.375	9.67
278.59	8.24
278.804	7.81
279.019	7.72
279.233	8.95
279.448	8.38
279.662	9.14
279.877	8.37
280.091	7.31
280.306	7.5
280.52	8.41
280.735	8.86
280.949	8.76
281.163	8.62
281.378	8.32
281.592	9.27
281.806	8.83
282.021	9.6
282.235	9.4
282.449	9.89
282.664	10.36
282.878	10.11
283.092	9.9
283.307	10.37
283.521	10.04
283.735	10.19
283.949	9.62
284.164	9.33
284.378	8.34
284.592	8.26
284.806	7.99
285.02	7.78
285.234	8.03
285.449	7.72
285.663	7.65
285.877	8.09
286.091	7.43
286.305	6.86
286.519	7.07
286.733	7.23
286.947	7.92
287.161	7.59
287.375	7.37
287.589	6.73
287.803	6.12
288.017	6.51
288.231	6.31
288.445	5.73
288.659	5.22
288.873	4.03
289.087	3.45
289.301	3.57
289.515	3.08
289.729	2.91
289.943	3.11
290.157	4.45
290.371	3.5
290.584	3.18
290.798	4.46
291.012	4.12
291.226	4.87
291.44	6.31
291.654	5.67
291.867	6.89
292.081	7.29
292.295	7.85
292.509	6.85
292.722	7.83
292.936	8.36
293.15	7.1
293.364	8.81
293.577	8.25
293.791	6.81
294.005	6.79
294.218	7.51
294.432	6.78
294.645	6.12
294.859	6.25
295.073	5.81
295.286	6.01
295.5	6.79
295.713	6.52
295.927	7.11
296.14	7.68
296.354	7.28
296.568	6.52
296.781	6.63
296.994	7.04
297.208	7.57
297.421	8.18
297.635	8.15
297.848	8.32
298.062	8.92
298.275	8.77
298.489	8.44
298.702	9.58
298.915	9.93
299.129	10.66
299.342	10.13
299.555	9.31
299.769	8.38
299.982	8.1
300.195	8.17
300.409	7.05
300.622	6.51
300.835	7.37
301.048	6.42
301.262	6.36
301.475	5.37
301.688	4.18
301.901	4.96
302.115	5.29
302.328	5.85
302.541	4.54
302.754	3.91
302.967	4.23
303.18	3.62
303.393	3.68
303.607	3.53
303.82	4.56
304.033	6.33
304.246	7.28
304.459	7.76
304.672	7.83
304.885	8.81
305.098	9.42
305.311	10.22
305.524	10.98
305.737	11.8
305.95	11.22
306.163	10.52
306.376	10.31
306.589	9.59
306.802	9.02
307.015	8.12
307.228	8.01
307.44	8.36
307.653	8.54
307.866	7.61
308.079	7.83
308.292	8.11
308.505	8.13
308.718	7.62
308.93	7.32
309.143	6.74
309.356	7.21
309.569	7.7
309.781	8.4
309.994	6.87
310.207	6.37
310.42	6.58
310.632	6.24
310.845	6.52
311.058	7.14
311.27	7.02
311.483	7.37
311.696	7.25
311.908	7.74
312.121	6.89
312.333	7.68
312.546	7.83
312.759	7.41
312.971	8.48
313.184	7.78
313.396	8.02
313.609	8.24
313.821	8.78
314.034	8.9
314.246	7.49
314.459	7.1
314.671	7.06
314.884	7.82
315.096	7.48
315.309	7.13
315.521	8.27
315.733	8.03
315.946	8.85
316.158	9.7
316.371	8.65
316.583	9.33
316.795	7.98
317.008	7.94
317.22	6.98
317.432	6.78
317.644	6.84
317.857	5.17
318.069	5.03
318.281	3.54
318.494	3.27
318.706	3.45
318.918	2.6
319.13	3.82
319.342	3.08
319.555	2.96
319.767	3.34
319.979	2.96
320.191	4.32
320.403	4.66
320.615	5.14
320.827	4.16
321.039	3.13
321.252	3.89
321.464	3.87
321.676	4.46
321.888	4.8
322.1	4.73
322.312	5.13
322.524	5.5
322.736	5.24
322.948	6.63
323.16	7.27
323.372	8.54
323.584	7.79
323.796	7.24
324.007	7.52
324.219	8.22
324.431	8.4
324.643	8.21
324.855	7.98
325.067	8.23
325.279	8.23
325.491	8.52
325.702	8.92
325.914	9.08
326.126	10.95
326.338	11.15
326.55	10.64
326.761	10.45
326.973	10.76
327.185	11.19
327.396	11.48
327.608	10.77
327.82	10.86
328.032	11.52
328.243	12.04
328.455	11.1
328.666	11.31
328.878	11.97
329.09	12.88
329.301	13.27
329.513	13.64
329.725	13.34
329.936	13.64
330.148	13.12
330.359	12.78
330.571	12.59
330.782	14.06
330.994	14.79
331.205	15.33
331.417	14.56
331.628	14.43
331.84	13.65
332.051	14.17
332.262	14.65
332.474	15.04
332.685	15.61
332.897	16.48
333.108	15.67
333.319	15.14
333.531	14.05
333.742	14.72
333.953	15.44
334.165	15.23
334.376	14.93
334.587	14.38
334.799	14.16
335.01	13.06
335.221	12.79
335.432	13.52
335.644	14.03
335.855	14.34
336.066	14.74
336.277	13.73
336.488	14.38
336.7	13.73
336.911	13.49
337.122	13.49
337.333	14.5
337.544	13.85
337.755	12.96
337.966	11.64
338.177	11.25
338.388	10.35
338.599	10.97
338.811	11.15
339.022	11.58
339.233	11.98
339.444	12.52
339.655	12.73
339.866	13.39
340.076	14.25
340.287	15.14
340.498	15.33
340.709	15.73
340.92	14.98
341.131	14.98
341.342	15.01
341.553	15.05
341.764	14.43
341.975	13.72
342.185	14.16
342.396	13.38
342.607	13.98
342.818	14.13
343.029	14.68
343.239	14.94
343.45	14.5
343.661	14.46
343.872	14.18
344.082	14.45
344.293	15.17
344.504	15.3
344.714	15.16
344.925	14.54
345.136	14.61
345.346	14.06
345.557	14.03
345.768	14.54
345.978	15.02
346.189	14.33
346.399	14.25
346.61	13.41
346.821	12.9
347.031	13.34
347.242	13.81
347.452	14.57
347.663	14
347.873	14.57
348.084	14.29
348.294	13.9
348.504	14.95
348.715	15.62
348.925	16.62
349.136	16.54
349.346	16.12
349.557	16.1
349.767	15.69
349.977	16.1
350.188	15.42
350.398	15.36
350.608	15.73
350.819	15.46
351.029	14.63
351.239	13.86
351.449	13.79
351.66	14.01
351.87	13.74
352.08	13.59
352.29	14.24
352.501	14.52
352.711	14.6
352.921	14
353.131	13.79
353.341	13.5
353.552	14.03
353.762	14.07
353.972	14.74
354.182	14.59
354.392	14.98
354.602	13.83
354.812	13.41
355.022	12.84
355.232	13.77
355.442	14.6
355.652	14.77
355.862	14.65
356.072	14.96
356.282	15.25
356.492	15.13
356.702	15.12
356.912	15.53
357.122	15.7
357.332	16.57
357.542	15.45
357.752	14.97
357.962	15.1
358.171	15.11
358.381	14.81
358.591	13.71
358.801	13.99
359.011	14.07
359.221	14.02
359.43	13.9
359.64	13.63
359.85	14.34
360.06	14.57
360.269	14.58
360.479	14.6
360.689	14.32
360.899	14.39
361.108	14.42
361.318	14.32
361.528	14.32
361.737	14.73
361.947	14.23
362.156	14.17
362.366	14.45
362.576	14.49
362.785	14.05
362.995	14.16
363.204	14.39
363.414	13.71
363.623	13.46
363.833	13.51
364.042	13.57
364.252	14.27
364.461	14.09
364.671	13.79
364.88	14
365.09	14.38
365.299	14.56
365.509	14.59
365.718	15.56
365.927	15.5
366.137	15.52
366.346	15.24
366.555	14.76
366.765	14.98
366.974	14.88
367.183	14.5
367.393	14.16
367.602	14.65
367.811	15.17
368.021	14.46
368.23	13.64
368.439	13.44
368.648	13.22
368.857	13.72
369.067	13.75
369.276	13.78
369.485	13.43
369.694	13.52
369.903	12.82
370.112	12.67
370.321	12.79
370.531	13.69
370.74	13.28
370.949	13.49
371.158	13.18
371.367	13.2
371.576	12.63
371.785	13.31
371.994	13.09
372.203	13.18
372.412	13.39
372.621	13.73
372.83	13.73
373.039	13.84
373.248	14.24
373.457	13.97
373.666	14.26
373.874	14.75
374.083	14.02
374.292	14.75
374.501	14.63
374.71	14.21
374.919	13.93
375.128	14.31
375.336	14.27
375.545	13.76
375.754	13.98
375.963	13.56
376.171	13.31
376.38	13.53
376.589	12.74
376.798	12.65
377.006	12.42
377.215	12.41
377.424	11.89
377.632	12.43
377.841	12.59
378.05	12.8
378.258	12.65
378.467	12.56
378.675	12.38
378.884	13.06
379.093	13.4
379.301	13.56
379.51	13.53
379.718	13.91
379.927	13.64
380.135	13.55
380.344	13.58
380.552	13.68
380.761	13.71
380.969	14.01
381.177	13.54
381.386	13.41
381.594	13.57
381.803	13.82
382.011	13.34
382.219	13.39
382.428	13.41
382.636	12.97
382.845	12.92
383.053	12.77
383.261	12.79
383.469	13.22
383.678	13.4
383.886	13.25
384.094	13.29
384.302	13.8
384.511	13.65
384.719	13.3
384.927	13.64
385.135	14.05
385.343	14.4
385.552	14.53
385.76	14.16
385.968	13.94
386.176	13.82
386.384	13.49
386.592	12.89
386.8	12.79
387.008	12.72
387.216	12.45
387.424	12.09
387.633	12.15
387.841	12.02
388.049	12.43
388.257	12.67
388.465	12.63
388.672	12.72
388.88	12.89
389.088	13.05
389.296	13.43
389.504	13.43
389.712	13.67
389.92	13.31
390.128	13.36
390.336	12.9
390.544	13.06
390.751	13.27
390.959	13.04
391.167	13.36
391.375	13.19
391.583	12.77
391.79	12.68
391.998	12.74
392.206	12.86
392.414	12.97
392.621	13.08
392.829	12.76
393.037	12.82
393.244	12.87
393.452	12.55
393.66	12.59
393.867	12.79
394.075	12.99
394.283	12.54
394.49	12.57
394.698	12.43
394.905	12.64
395.113	12.82
395.32	12.56
395.528	12.83
395.735	13.16
395.943	13.19
396.15	12.95
396.358	12.83
396.565	13.15
396.773	13.09
396.98	13.06
397.188	12.7
397.395	12.39
397.602	12.5
397.81	12.3
398.017	12.2
398.225	12.27
398.432	12.46
398.639	12.35
398.847	12.24
399.054	12.4
399.261	12.26
399.468	12.55
399.676	12.77
399.883	12.73
400.09	12.76
400.297	12.72
400.505	12.85
400.712	13.29
400.919	13.54
401.126	13.67
401.333	13.66
401.54	13.82
401.748	13.78
401.955	13.83
402.162	14.01
402.369	14.3
402.576	14.56
402.783	14.45
402.99	14.22
403.197	14.13
403.404	13.89
403.611	13.77
403.818	13.95
404.025	13.93
404.232	13.7
404.439	13.7
404.646	13.66
404.853	13.61
405.06	13.57
405.267	13.94
405.474	13.84
405.681	13.97
405.887	14.21
406.094	13.89
406.301	14.01
406.508	14.17
406.715	14.07
406.922	13.77
407.128	13.4
407.335	13.52
407.542	13.31
407.749	13.45
407.955	13.36
408.162	13.27
408.369	13.57
408.575	13.51
408.782	13.42
408.989	13.48
409.195	13.62
409.402	13.7
409.609	13.62
409.815	13.28
410.022	13.24
410.228	13.61
410.435	13.63
410.642	13.4
410.848	13.31
411.055	13.4
411.261	13.37
411.468	13.35
411.674	13.41
411.881	13.65
412.087	13.93
412.294	13.91
412.5	13.63
412.706	13.27
412.913	13.19
413.119	13.23
413.326	13.03
413.532	13.2
413.738	13.14
413.945	13.17
414.151	13.19
414.357	13.12
414.564	13.2
414.77	13.29
414.976	13.73
415.182	13.9
415.389	13.81
415.595	13.63
415.801	13.45
416.007	13.44
416.214	13.5
416.42	13.26
416.626	13.38
416.832	13.42
417.038	13.41
417.244	13.23
417.45	13.35
417.657	13.57
417.863	13.95
418.069	14.1
418.275	14.24
418.481	14.29
418.687	14.4
418.893	14.46
419.099	14.45
419.305	14.45
419.511	14.47
419.717	14.33
419.923	14.29
420.129	14.18
420.335	14.02
420.541	13.94
420.746	13.86
420.952	13.88
421.158	13.8
421.364	13.75
421.57	13.66
421.776	13.72
421.982	13.68
422.187	13.62
422.393	13.58
422.599	13.54
422.805	13.58
423.01	13.59
423.216	13.55
423.422	13.43
423.628	13.43
423.833	13.42
424.039	13.3
424.245	13.36
424.45	13.43
424.656	13.5
424.862	13.66
425.067	13.59
425.273	13.62
425.478	13.56
425.684	13.72
425.889	13.77
426.095	13.77
426.301	13.69
426.506	13.75
426.712	13.56
426.917	13.63
427.123	13.57
427.328	13.57
427.533	13.42
427.739	13.52
427.944	13.28
428.15	13.09
428.355	13.04
428.561	13.11
428.766	13.1
428.971	13.2
429.177	13.1
429.382	13.08
429.587	13.21
429.793	13.17
429.998	12.96
430.203	13.06
430.408	13.11
430.614	13.36
430.819	13.3
431.024	13.28
431.229	13.06
431.434	12.89
431.64	12.66
431.845	12.69
432.05	13.02
432.255	12.84
432.46	12.77
432.665	12.88
432.87	12.8
433.076	13.1
433.281	13.13
433.486	13.31
433.691	13.35
433.896	13.51
434.101	13.3
434.306	13.15
434.511	13.36
434.716	13.47
434.921	13.44
435.126	13.53
435.331	13.24
435.535	13.18
435.74	13.19
435.945	13.42
436.15	13.49
436.355	13.76
436.56	13.7
436.765	13.86
436.97	13.88
437.174	13.89
437.379	13.81
437.584	13.83
437.789	13.93
437.993	13.79
438.198	13.54
438.403	13.45
438.608	13.35
438.812	13.28
439.017	13.11
439.222	13.11
439.426	13.01
439.631	12.97
439.836	13.17
440.04	13.21
440.245	13.38
440.45	13.44
440.654	13.49
440.859	13.44
441.063	13.63
441.268	13.69
441.472	13.59
441.677	13.64
441.881	13.69
442.086	13.39
442.29	13.35
442.495	13.23
442.699	13.3
442.904	13.28
443.108	13.38
443.312	13.22
443.517	13.25
443.721	13.4
443.925	13.49
444.13	13.53
444.334	13.76
444.538	13.77
444.743	13.74
444.947	13.68
445.151	13.6
445.356	13.6
445.56	13.68
445.764	13.71
445.968	13.76
446.173	13.78
446.377	13.74
446.581	13.66
446.785	13.57
446.989	13.68
447.193	13.66
447.398	13.57
447.602	13.55
447.806	13.47
448.01	13.3
448.214	13.2
448.418	13.1
448.622	13.09
448.826	13.12
449.03	13.1
449.234	12.94
449.438	12.96
449.642	12.92
449.846	12.96
450.05	12.86
450.254	12.92
450.458	12.79
450.662	12.7
450.866	12.59
451.069	12.57
451.273	12.63
451.477	12.7
451.681	12.7
451.885	12.81
452.089	12.65
452.292	12.64
452.496	12.63
452.7	12.55
452.904	12.48
453.107	12.51
453.311	12.6
453.515	12.27
453.719	12.41
453.922	12.38
454.126	12.3
454.33	12.3
454.533	12.27
454.737	12.26
454.94	12.47
455.144	12.67
455.348	12.71
455.551	12.66
455.755	13.05
455.958	12.77
456.162	12.72
456.365	12.71
456.569	12.76
456.772	12.82
456.976	12.98
457.179	12.95
457.383	12.88
457.586	12.83
457.79	12.9
457.993	12.76
458.196	12.88
458.4	12.95
458.603	13.16
458.807	13.23
459.01	13.2
459.213	13.2
459.417	13.21
459.62	13.17
459.823	13.24
460.026	13.11
460.23	13.14
460.433	13.09
460.636	13.08
460.839	13.08
461.042	13.06
461.246	13.02
461.449	12.94
461.652	12.96
461.855	13.02
462.058	13.04
462.261	13.32
462.464	13.33
462.668	13.55
462.871	13.46
463.074	13.31
463.277	13.25
463.48	13.4
463.683	13.42
463.886	13.4
464.089	13.13
464.292	13.08
464.495	12.99
464.698	12.89
464.901	12.72
465.104	13.02
465.306	13.02
465.509	13.02
465.712	13.03
465.915	13.07
466.118	12.96
466.321	13.27
466.524	13.32
466.726	13.16
466.929	13.31
467.132	13.3
467.335	13.09
467.538	13
467.74	12.97
467.943	12.94
468.146	12.8
468.348	12.97
468.551	12.87
468.754	12.92
468.956	13.02
469.159	12.92
469.362	12.9
469.564	12.98
469.767	13.2
469.969	13.32
470.172	13.4
470.375	13.54
470.577	13.52
470.78	13.8
470.982	13.73
471.185	13.73
471.387	13.73
471.59	13.84
471.792	13.81
471.995	13.74
472.197	13.77
472.399	13.81
472.602	13.8
472.804	13.66
473.007	13.46
473.209	13.44
473.411	13.32
473.614	13.39
473.816	13.37
474.018	13.43
474.22	13.56
474.423	13.44
474.625	13.32
474.827	13.39
475.03	13.36
475.232	13.32
475.434	13.34
475.636	13.41
475.838	13.51
476.04	13.44
476.243	13.26
476.445	13.13
476.647	13.1
476.849	13.24
477.051	13.02
477.253	13.18
477.455	13.31
477.657	13.28
477.859	13.33
478.061	13.24
478.263	13.28
478.465	13.39
478.667	13.38
478.869	13.54
479.071	13.36
479.273	13.47
479.475	13.3
479.677	13.33
479.879	13.44
480.081	13.33
480.283	13.31
480.485	13.26
480.686	13.26
480.888	13.26
481.09	13.23
481.292	13.4
481.494	13.52
481.695	13.69
481.897	13.67
482.099	13.58
482.301	13.67
482.502	13.68
482.704	13.71
482.906	13.75
483.107	13.82
483.309	13.83
483.511	13.82
483.712	13.76
483.914	13.77
484.115	13.75
484.317	13.78
484.519	13.81
484.72	13.87
484.922	13.84
485.123	13.85
485.325	13.81
485.526	13.79
485.728	13.76
485.929	13.82
486.131	13.76
486.332	13.78
486.534	13.75
486.735	13.71
486.936	13.62
487.138	13.62
487.339	13.55
487.541	13.57
487.742	13.57
487.943	13.6
488.144	13.56
488.346	13.63
488.547	13.61
488.748	13.65
488.95	13.65
489.151	13.65
489.352	13.66
489.553	13.73
489.755	13.74
489.956	13.8
490.157	13.79
490.358	13.84
490.559	13.81
490.76	13.82
490.961	13.82
491.163	13.82
491.364	13.87
491.565	13.94
491.766	13.93
491.967	13.99
492.168	13.95
492.369	13.97
492.57	13.93
492.771	13.9
492.972	13.87
493.173	13.84
493.374	13.85
493.575	13.8
493.776	13.78
493.976	13.81
494.177	13.66
494.378	13.69
494.579	13.65
494.78	13.61
494.981	13.63
495.182	13.78
495.382	13.7
495.583	13.65
495.784	13.56
495.985	13.59
496.185	13.43
496.386	13.55
496.587	13.58
496.788	13.53
496.988	13.64
497.189	13.56
497.39	13.64
497.59	13.79
497.791	13.89
497.992	13.99
498.192	14.04
498.393	14.22
498.593	14.24
498.794	14.19
498.994	14.24
499.195	14.23
499.395	14.33
499.596	14.25
499.796	14.22
499.997	14.18
500.197	14.27
500.398	14.34
500.598	14.17
500.799	14.17
500.999	14.03
501.199	14.12
501.4	13.98
501.6	14.02
501.801	13.95
502.001	13.85
502.201	13.75
502.402	13.77
502.602	13.65
502.802	13.66
503.002	13.73
503.203	13.81
503.403	13.77
503.603	14.02
503.803	14.07
504.003	14.19
504.204	14.35
504.404	14.44
504.604	14.49
504.804	14.66
505.004	14.87
505.204	14.84
505.404	14.88
505.604	14.92
505.804	14.89
506.005	14.85
506.205	14.87
506.405	14.82
506.605	14.98
506.805	14.94
507.005	14.8
507.204	14.74
507.404	14.75
507.604	14.77
507.804	14.88
508.004	15.02
508.204	15.26
508.404	15.29
508.604	15.37
508.804	15.35
509.003	15.47
509.203	15.49
509.403	15.53
509.603	15.43
509.803	15.61
510.002	15.55
510.202	15.46
510.402	15.39
510.602	15.46
510.801	15.59
511.001	15.58
511.201	15.56
511.4	15.69
511.6	15.86
511.8	16.09
511.999	16.1
512.199	16.27
512.398	16.27
512.598	16.32
512.797	16.42
512.997	16.46
513.197	16.61
513.396	16.7
513.596	16.65
513.795	16.5
513.994	16.49
514.194	16.64
514.393	16.66
514.593	16.76
514.792	16.71
514.992	16.53
515.191	16.55
515.39	16.43
515.59	16.52
515.789	16.66
515.988	16.8
516.188	16.87
516.387	16.83
516.586	16.98
516.786	17.04
516.985	17.14
517.184	17.29
517.383	17.25
517.582	17.3
517.782	17.28
517.981	17.32
518.18	17.28
518.379	17.35
518.578	17.38
518.777	17.29
518.976	17.29
519.176	17.42
519.375	17.46
519.574	17.55
519.773	17.59
519.972	17.67
520.171	17.67
520.37	17.77
520.569	17.77
520.768	17.96
520.967	18.02
521.166	18.07
521.365	18.11
521.564	18.06
521.762	18.02
521.961	18.14
522.16	18.21
522.359	18.24
522.558	18.35
522.757	18.44
522.956	18.4
523.154	18.4
523.353	18.57
523.552	18.55
523.751	18.62
523.949	18.76
524.148	18.68
524.347	18.73
524.546	18.81
524.744	18.92
524.943	19.04
525.142	19.04
525.34	19.13
525.539	19.12
525.737	19.16
525.936	19.27
526.135	19.32
526.333	19.4
526.532	19.39
526.73	19.49
526.929	19.45
527.127	19.44
527.326	19.54
527.524	19.59
527.723	19.59
527.921	19.69
528.12	19.65
528.318	19.63
528.516	19.67
528.715	19.76
528.913	19.74
529.112	19.83
529.31	19.84
529.508	19.86
529.707	19.84
529.905	19.92
530.103	19.95
530.301	19.99
530.5	20.06
530.698	20.13
530.896	20.13
531.094	20.19
531.293	20.22
531.491	20.32
531.689	20.33
531.887	20.48
532.085	20.46
532.283	20.43
532.481	20.53
532.68	20.56
532.878	20.61
533.076	20.68
533.274	20.72
533.472	20.66
533.67	20.67
533.868	20.65
534.066	20.68
534.264	20.79
534.462	20.84
534.66	20.91
534.858	20.96
535.056	20.91
535.253	20.93
535.451	21.01
535.649	21.2
535.847	21.24
536.045	21.36
536.243	21.44
536.441	21.5
536.638	21.59
536.836	21.64
537.034	21.7
537.232	21.91
537.43	21.98
537.627	22.07
537.825	22.07
538.023	22.09
538.22	22.17
538.418	22.1
538.616	21.97
538.813	22
539.011	22.02
539.209	22.15
539.406	22.12
539.604	22.17
539.801	22.33
539.999	22.33
540.196	22.41
540.394	22.37
540.591	22.38
540.789	22.48
540.986	22.43
541.184	22.43
541.381	22.43
541.579	22.42
541.776	22.47
541.974	22.41
542.171	22.47
542.368	22.55
542.566	22.64
542.763	22.73
542.96	22.79
543.158	22.95
543.355	22.96
543.552	23.05
543.75	23.18
543.947	23.24
544.144	23.29
544.341	23.44
544.539	23.45
544.736	23.5
544.933	23.49
545.13	23.59
545.327	23.55
545.524	23.72
545.722	23.78
545.919	23.79
546.116	23.72
546.313	23.82
546.51	23.64
546.707	23.59
546.904	23.62
547.101	23.89
547.298	23.95
547.495	24.06
547.692	24.18
547.889	24.18
548.086	24.27
548.283	24.38
548.48	24.45
548.677	24.59
548.874	24.77
549.07	24.84
549.267	24.64
549.464	24.75
549.661	24.76
549.858	24.78
550.055	24.7
550.251	24.75
550.448	24.83
550.645	24.91
550.842	25.1
551.038	24.92
551.235	24.98
551.432	25.16
551.628	25.07
551.825	25.15
552.022	25.21
552.218	25.32
552.415	25.38
552.612	25.37
552.808	25.22
553.005	25.05
553.201	25.21
553.398	25.25
553.594	25.03
553.791	25.17
553.987	25.19
554.184	25.07
554.38	25.07
554.577	24.98
554.773	25.03
554.97	25.19
555.166	25.49
555.362	25.46
555.559	25.55
555.755	25.8
555.952	25.77
556.148	25.76
556.344	25.95
556.541	26.06
556.737	26.07
556.933	26.03
557.129	25.98
557.326	25.87
557.522	26.18
557.718	26.08
557.914	26.06
558.11	25.88
558.307	25.9
558.503	25.76
558.699	25.77
558.895	25.89
559.091	25.87
559.287	25.99
559.483	26.05
559.679	25.95
559.876	26.16
560.072	26.16
560.268	26.35
560.464	26.35
560.66	26.53
560.856	26.69
561.052	26.81
561.247	27.02
561.443	26.78
561.639	26.72
561.835	26.73
562.031	26.69
562.227	26.91
562.423	27.01
562.619	27.16
562.815	27.2
563.01	27.14
563.206	27.25
563.402	27.25
563.598	27.6
563.793	27.86
563.989	27.78
564.185	27.89
564.381	27.94
564.576	28.1
564.772	28.31
564.968	28.36
565.163	28.64
565.359	28.47
565.555	28.49
565.75	28.54
565.946	28.53
566.141	28.68
566.337	28.66
566.532	28.77
566.728	28.73
566.923	28.54
567.119	28.49
567.314	28.44
567.51	28.6
567.705	28.68
567.901	28.64
568.096	28.72
568.292	28.85
568.487	28.74
568.682	28.52
568.878	28.59
569.073	28.71
569.268	28.77
569.464	28.86
569.659	28.89
569.854	29.01
570.05	29.11
570.245	29.12
570.44	29.21
570.635	29.34
570.831	29.51
571.026	29.55
571.221	29.72
571.416	29.79
571.611	29.7
571.806	29.76
572.002	29.68
572.197	29.63
572.392	29.65
572.587	29.61
572.782	29.74
572.977	29.81
573.172	29.85
573.367	29.65
573.562	29.72
573.757	29.75
573.952	29.63
574.147	29.76
574.342	30.07
574.537	30.24
574.732	30.35
574.927	30.33
575.121	30.43
575.316	30.59
575.511	30.67
575.706	30.85
575.901	30.94
576.096	31.18
576.29	31.11
576.485	31.04
576.68	30.91
576.875	31.02
577.069	31.04
577.264	30.93
577.459	30.84
577.654	30.86
577.848	30.67
578.043	30.86
578.238	30.98
578.432	31.05
578.627	31.13
578.821	31.29
579.016	31.19
579.21	31.37
579.405	31.56
579.6	31.34
579.794	31.6
579.989	31.76
580.183	31.58
580.378	31.48
580.572	31.57
580.766	31.47
580.961	31.27
581.155	31.09
581.35	31.05
581.544	31.12
581.738	31.5
581.933	31.57
582.127	31.45
582.321	31.41
582.516	31.79
582.71	31.88
582.904	32.01
583.099	32.31
583.293	32.75
583.487	32.67
583.681	32.76
583.875	32.78
584.07	32.75
584.264	32.8
584.458	32.87
584.652	32.6
584.846	32.58
585.04	32.66
585.234	32.6
585.428	32.28
585.623	32.42
585.817	32.41
586.011	32.37
586.205	32.24
586.399	32.4
586.593	32.4
586.787	32.49
586.981	32.57
587.174	32.39
587.368	32.27
587.562	32.44
587.756	32.7
587.95	32.88
588.144	32.85
588.338	32.78
588.532	32.89
588.725	32.92
588.919	32.87
589.113	32.9
589.307	32.85
589.501	33.11
589.694	32.98
589.888	32.98
590.082	32.79
590.275	32.95
590.469	33.04
590.663	33.08
590.856	33.26
591.05	33.02
591.244	33.21
591.437	33.29
591.631	33.43
591.824	33.6
592.018	33.43
592.212	33.54
592.405	33.51
592.599	33.65
592.792	33.8
592.986	33.93
593.179	34.27
593.372	34.28
593.566	34.36
593.759	34.11
593.953	34.16
594.146	34.22
594.339	34.24
594.533	34.3
594.726	34.19
594.92	33.98
595.113	33.86
595.306	33.9
595.499	33.72
595.693	33.89
595.886	34.03
596.079	34.02
596.272	34.19
596.466	34.12
596.659	33.99
596.852	34.13
597.045	34.21
597.238	34.23
597.431	34.04
597.624	34.23
597.818	34.24
598.011	34.18
598.204	34.09
598.397	34.02
598.59	34.11
598.783	34.22
598.976	33.97
599.169	33.87
599.362	33.74
599.555	33.82
599.748	33.9
599.941	33.44
600.134	33.49
600.326	33.61
600.519	33.51
600.712	33.29
600.905	33.56
601.098	33.91
601.291	33.89
601.483	34.19
601.676	34.5
601.869	34.3
602.062	34.78
602.255	34.91
602.447	35.04
602.64	35
602.833	35.06
603.025	34.96
603.218	34.94
603.411	34.93
603.603	34.77
603.796	34.76
603.989	34.77
604.181	34.67
604.374	34.63
604.566	34.58
604.759	34.66
604.951	34.85
605.144	34.92
605.336	34.93
605.529	34.84
605.721	34.86
605.914	34.64
606.106	34.81
606.299	34.99
606.491	34.98
606.683	34.9
606.876	34.98
607.068	34.74
607.26	34.51
607.453	34.37
607.645	34.56
607.837	34.55
608.03	34.63
608.222	34.63
608.414	34.49
608.606	34.66
608.799	34.83
608.991	35.1
609.183	35.41
609.375	35.6
609.567	35.85
609.759	35.79
609.952	35.96
610.144	36.17
610.336	36.23
610.528	36.34
610.72	36.33
610.912	36.44
611.104	36.21
611.296	35.89
611.488	35.94
611.68	35.89
611.872	36.04
612.064	35.97
612.256	35.79
612.448	35.75
612.64	35.89
612.832	35.9
613.023	35.92
613.215	36.03
613.407	36.26
613.599	36.22
613.791	36.01
613.983	36.17
614.174	36.31
614.366	36.25
614.558	36.12
614.75	35.88
614.941	35.99
615.133	35.89
615.325	35.89
615.516	36.18
615.708	35.97
615.9	35.97
616.091	35.75
616.283	36.02
616.475	36.08
616.666	36.18
616.858	36.37
617.049	36.28
617.241	36.3
617.432	36.3
617.624	36.07
617.815	36.6
618.007	36.77
618.198	36.99
618.39	36.86
618.581	37.32
618.773	37.34
618.964	37.12
619.155	37.05
619.347	37.05
619.538	37.13
619.729	37.43
619.921	37.4
620.112	37.53
620.303	37.41
620.494	37.14
620.686	36.99
620.877	36.9
621.068	36.96
621.259	37.19
621.451	37.3
621.642	37.3
621.833	37.19
622.024	36.98
622.215	36.76
622.406	36.67
622.597	36.77
622.788	36.5
622.98	36.65
623.171	36.79
623.362	36.87
623.553	36.87
623.744	37.13
623.935	36.88
624.126	37.27
624.317	37.4
624.508	37.76
624.698	37.96
624.889	37.94
625.08	37.93
625.271	37.94
625.462	37.83
625.653	37.63
625.844	37.47
626.034	37.56
626.225	37.21
626.416	37.22
626.607	37.4
626.798	37.29
626.988	37.45
627.179	37.26
627.37	37.34
627.56	37.37
627.751	37.6
627.942	37.47
628.132	37.67
628.323	37.72
628.514	37.85
628.704	37.68
628.895	37.81
629.085	37.92
629.276	38.3
629.466	38.37
629.657	38.15
629.847	38.05
630.038	38.17
630.228	38.01
630.419	38.1
630.609	38.13
630.8	38.27
630.99	38.55
631.181	38.61
631.371	38.54
631.561	38.4
631.752	38.64
631.942	38.7
632.132	38.59
632.323	38.49
632.513	38.55
632.703	38.46
632.893	38.17
633.084	37.8
633.274	37.73
633.464	37.71
633.654	37.77
633.844	37.68
634.034	37.84
634.225	38.06
634.415	38.41
634.605	38.07
634.795	38.18
634.985	38.28
635.175	38.28
635.365	38.42
635.555	38.27
635.745	38.36
635.935	38.54
636.125	38.44
636.315	38.6
636.505	38.42
636.695	38.58
636.885	38.52
637.075	38.6
637.265	38.83
637.455	38.68
637.644	38.99
637.834	38.83
638.024	38.76
638.214	38.88
638.404	38.76
638.593	38.73
638.783	39.02
638.973	38.75
639.163	38.88
639.352	39.01
639.542	38.89
639.732	38.61
639.921	38.64
640.111	38.66
640.301	38.43
640.49	38.65
640.68	38.58
640.87	38.7
641.059	39.07
641.249	39.23
641.438	38.95
641.628	39.03
641.817	38.9
642.007	39.17
642.196	39.29
642.386	39.45
642.575	39.09
642.764	39.64
642.954	39.15
643.143	39.36
643.333	39.35
643.522	39.36
643.711	39.31
643.901	39.46
644.09	39.66
644.279	39.25
644.469	39.4
644.658	39.36
644.847	38.83
645.036	38.98
645.226	38.72
645.415	38.08
645.604	38.17
645.793	38.55
645.982	38.44
646.171	38.18
646.361	38.83
646.55	38.6
646.739	38.79
646.928	39.27
647.117	39.6
647.306	39.28
647.495	39.57
647.684	39.5
647.873	39.35
648.062	39.7
648.251	39.67
648.44	39.14
648.629	39.14
648.818	39.2
649.007	39.1
649.196	39.09
649.384	39.46
649.573	39.5
649.762	39.7
649.951	39.78
650.14	39.66
650.328	39.51
650.517	39.37
650.706	39.58
650.895	39.55
651.083	39.19
651.272	38.78
651.461	38.82
651.65	38.73
651.838	38.48
652.027	38.46
652.216	38.38
652.404	38.73
652.593	38.95
652.781	38.82
652.97	39.02
653.158	39.1
653.347	39.38
653.535	39.09
653.724	39.24
653.912	39.32
654.101	39.33
654.289	39.47
654.478	39.08
654.666	39.18
654.855	39.21
655.043	39
655.231	38.89
655.42	38.72
655.608	38.9
655.796	38.97
655.985	39.01
656.173	39.34
656.361	39.39
656.55	39.61
656.738	39.73
656.926	39.64
657.114	39.8
657.302	39.76
657.491	39.65
657.679	39.57
657.867	39.86
658.055	40.05
658.243	40.03
658.431	40.12
658.619	39.99
658.807	39.77
658.996	40.18
659.184	39.83
659.372	39.92
659.56	40.23
659.748	40.22
659.936	40.08
660.124	39.74
660.311	39.67
660.499	39.46
660.687	39.67
660.875	40.11
661.063	39.82
661.251	40.1
661.439	40.07
661.627	40.03
661.814	40.56
662.002	40.25
662.19	40.35
662.378	40.38
662.565	40.35
662.753	40.25
662.941	40.27
663.129	40
663.316	40.03
663.504	39.92
663.692	39.74
663.879	39.24
664.067	39.28
664.254	39.69
664.442	39.56
664.63	39.62
664.817	39.89
665.005	39.8
665.192	40.02
665.38	39.94
665.567	40.6
665.755	41.2
665.942	41.46
666.13	41.96
666.317	41.97
666.504	41.63
666.692	41.58
666.879	41.5
667.067	41.44
667.254	42.14
667.441	42.35
667.629	41.85
667.816	41.5
668.003	41.2
668.19	41.32
668.378	41.35
668.565	41.58
668.752	41.99
668.939	41.96
669.127	42.03
669.314	41.71
669.501	41.12
669.688	41.39
669.875	41.47
670.062	41.93
670.249	41.44
670.436	41.37
670.623	41.61
670.81	41.57
670.997	41.72
671.184	41.36
671.371	41.28
671.558	41.98
671.745	42.2
671.932	42.18
672.119	41.76
672.306	42.1
672.493	41.75
672.68	41.84
672.867	41.86
673.054	41.75
673.24	41.94
673.427	41.97
673.614	41.64
673.801	41.48
673.988	41.11
674.174	41.23
674.361	41.34
674.548	41.77
674.734	41.67
674.921	41.78
675.108	41.85
675.294	41.98
675.481	42.03
675.668	42.44
675.854	42.79
676.041	43.08
676.227	43.35
676.414	43.82
676.601	43.65
676.787	43.25
676.974	43.08
677.16	42.79
677.347	42.71
677.533	42.35
677.719	41.81
677.906	41.39
678.092	41.38
678.279	41.24
678.465	40.69
678.651	40.58
678.838	40.59
679.024	40.45
679.21	40.53
679.397	40.46
679.583	40.53
679.769	40.71
679.955	40.41
680.142	40.51
680.328	40.47
680.514	40.26
680.7	40.14
680.886	40.27
681.073	40.4
681.259	40.47
681.445	40.16
681.631	40.34
681.817	40.33
682.003	40.75
682.189	40.91
682.375	41.06
682.561	41.33
682.747	41.67
682.933	41.54
683.119	41.5
683.305	41.71
683.491	41.93
683.677	42.06
683.863	42.06
684.049	41.86
684.235	41.75
684.42	41.51
684.606	41.66
684.792	41.87
684.978	42.24
685.164	42.18
685.349	42.21
685.535	42.24
685.721	41.89
685.907	42.11
686.092	42.35
686.278	42.33
686.464	42.61
686.649	42.27
686.835	41.78
687.021	41.62
687.206	41.44
687.392	40.92
687.577	41.18
687.763	41.2
687.948	41.02
688.134	41.13
688.319	40.82
688.505	40.47
688.69	40.41
688.876	40.84
689.061	40.8
689.247	41.02
689.432	41.01
689.618	41.17
689.803	41.56
689.988	41.83
690.174	41.72
690.359	42.15
690.544	42.51
690.73	42.92
690.915	42.51
691.1	42.61
691.285	42.76
691.471	43.5
691.656	43.37
691.841	43.25
692.026	43.2
692.211	42.98
692.396	42.79
692.582	42.38
692.767	42.24
692.952	42.54
693.137	42.78
693.322	42.83
693.507	42.02
693.692	41.53
693.877	41.6
694.062	41.11
694.247	41.3
694.432	41.43
694.617	42.04
694.802	42.1
694.987	42.07
695.172	42.14
695.357	42.15
695.541	42.94
695.726	43.55
695.911	43.93
696.096	44.43
696.281	44.58
696.466	44.41
696.65	44.23
696.835	44.22
697.02	44.12
697.204	44.06
697.389	44.11
697.574	43.68
697.759	43.47
697.943	43.26
698.128	42.91
698.312	42.59
698.497	42.54
698.682	42.38
698.866	42.34
699.051	42.72
699.235	42.76
699.42	42.55
699.604	42.58
699.789	42.52
699.973	42.59
700.158	42.7
700.342	42.71
700.527	42.57
700.711	42.64
700.895	42.5
701.08	42.41
701.264	42.37
701.448	42.8
701.633	42.72
701.817	43.17
702.001	42.77
702.186	43.12
702.37	43.34
702.554	43.61
702.738	43.48
702.923	43.84
703.107	43.31
703.291	43.11
703.475	42.75
703.659	43.11
703.843	42.97
704.027	43.37
704.212	42.66
704.396	42.77
704.58	42.72
704.764	42.7
704.948	42.02
705.132	42.69
705.316	42.25
705.5	42.19
705.684	41.91
705.868	42.11
706.052	42.51
706.235	43.45
706.419	43.47
706.603	43.89
706.787	44.13
706.971	44.11
707.155	43.64
707.339	44.27
707.522	43.79
707.706	43.94
707.89	43.59
708.074	42.88
708.257	42.25
708.441	42.23
708.625	41.75
708.808	41.92
708.992	42.41
709.176	42.44
709.359	41.99
709.543	42.45
709.727	42.5
709.91	42.38
710.094	42.4
710.277	42.51
710.461	42
710.644	42.31
710.828	42.13
711.011	42.38
711.195	42.39
711.378	42.97
711.562	43.43
711.745	43.38
711.928	43.65
712.112	43.52
712.295	43.68
712.478	43.93
712.662	44.27
712.845	44.09
713.028	43.69
713.212	43.36
713.395	43.4
713.578	42.83
713.761	42.91
713.945	42.57
714.128	42.94
714.311	43.41
714.494	43.37
714.677	42.78
714.86	43.67
715.043	43.78
715.227	43.51
715.41	43.24
715.593	43.28
715.776	43.1
715.959	43.42
716.142	43.27
716.325	43.08
716.508	43.1
716.691	43.8
716.874	43.31
717.057	43.46
717.239	43.9
717.422	43.85
717.605	44.33
717.788	44.55
717.971	44.39
718.154	44.78
718.337	44.17
718.519	44.29
718.702	43.65
718.885	43.05
719.068	42.58
719.25	43.2
719.433	43.38
719.616	42.51
719.798	42.29
719.981	43.36
720.164	43.49
720.346	43.81
720.529	43.16
720.712	42.99
720.894	43.66
721.077	44.09
721.259	43.32
721.442	43.42
721.624	43.66
721.807	43.78
721.989	42.94
722.172	42.64
722.354	42.95
722.537	44.46
722.719	44.88
722.901	44.64
723.084	44.9
723.266	45.52
723.448	44.97
723.631	46.21
723.813	45.84
723.995	46
724.178	45.21
724.36	44.26
724.542	43.48
724.724	43.04
724.907	43.83
725.089	43.71
725.271	43.64
725.453	43.79
725.635	42.85
725.817	43.38
725.999	43.18
726.181	44.23
726.364	45.35
726.546	45.83
726.728	47.15
726.91	46.83
727.092	46.7
727.274	46.29
727.456	46.71
727.638	46.72
727.819	46.6
728.001	46.4
728.183	45.85
728.365	45.57
728.547	45.28
728.729	44.43
728.911	44.12
729.093	43.93
729.274	44.22
729.456	43.55
729.638	43.18
729.82	43.13
730.001	42.82
730.183	42.87
730.365	42.76
730.546	43.09
730.728	42.7
730.91	42.27
731.091	42.59
731.273	42.73
731.455	43.57
731.636	44.04
731.818	44.13
731.999	44.24
732.181	43.94
732.362	44.62
732.544	44.3
732.725	45.03
732.907	45.05
733.088	45.25
733.27	45.56
733.451	45.28
733.633	45.22
733.814	45.03
733.995	45.25
734.177	44.97
734.358	44.75
734.539	44.8
734.721	44.23
734.902	44.4
735.083	43.86
735.264	43.83
735.446	43.16
735.627	43.88
735.808	43.71
735.989	44.17
736.17	45.67
736.351	45.4
736.533	45.55
736.714	46.56
736.895	46.7
737.076	46.66
737.257	45.97
737.438	46.89
737.619	45.57
737.8	46.01
737.981	45.34
738.162	44.56
738.343	44.02
738.524	44.69
738.705	44.62
738.886	44.89
739.067	44.57
739.247	45.2
739.428	43.97
739.609	44.44
739.79	44.52
739.971	45.68
740.151	45.23
740.332	45.43
740.513	44.48
740.694	43.59
740.874	43.05
741.055	44.63
741.236	44.2
741.417	45.76
741.597	46.02
741.778	45.55
741.958	44.56
742.139	45.57
742.32	45.82
742.5	45.5
742.681	45.65
742.861	47.29
743.042	46.06
743.222	46.17
743.403	45.34
743.583	45.13
743.764	45.81
743.944	46.06
744.124	45.32
744.305	45.38
744.485	45.72
744.666	44.82
744.846	43.69
745.026	43.41
745.207	42.7
745.387	42.29
745.567	42.05
745.747	41.83
745.928	41.61
746.108	42.33
746.288	42.32
746.468	42.71
746.648	44.4
746.829	44.76
747.009	45.3
747.189	45.27
747.369	47.03
747.549	47.45
747.729	47.66
747.909	48.04
748.089	48.02
748.269	47.91
748.449	47.73
748.629	47.94
748.809	47.92
748.989	47.67
749.169	47.7
749.349	47.05
749.529	47.75
749.709	48.31
749.889	48.53
750.068	47.66
750.248	47.69
750.428	46.87
750.608	46.78
750.788	46.9
750.967	47.1
751.147	47.59
751.327	47.35
751.507	46.07
751.686	45.24
751.866	44.29
752.046	44.36
752.225	45.6
752.405	46.3
752.585	46.02
752.764	45.92
752.944	45.8
753.123	46.05
753.303	45.95
753.482	46.29
753.662	46.43
753.841	46.13
754.021	46.5
754.2	46.48
754.38	46.18
754.559	45.32
754.739	44.67
754.918	44.28
755.097	44.01
755.277	43.9
755.456	43.7
755.635	43.56
755.815	44.49
755.994	45.47
756.173	43.88
756.352	45.04
756.532	45.64
756.711	46.19
756.89	46.89
757.069	46.34
757.248	46.86
757.427	46.86
757.607	46.42
757.786	46.62
757.965	46.01
758.144	46.48
758.323	46.07
758.502	46
758.681	45.28
758.86	45.03
759.039	45.38
759.218	44.99
759.397	45.41
759.576	45.87
759.755	45.45
759.934	44.41
760.113	43.7
760.291	43.84
760.47	44.05
760.649	45.16
760.828	44.32
761.007	44.5
761.186	44.46
761.364	43.54
761.543	43.78
761.722	43.34
761.901	43.06
762.079	43.68
762.258	42.86
762.437	43.83
762.615	43.32
762.794	44.06
762.972	43.81
763.151	43.79
763.33	44.28
763.508	43.85
763.687	44.49
763.865	45.16
764.044	45.29
764.222	45.16
764.401	44.39
764.579	44.16
764.758	44.36
764.936	45.01
765.114	44.91
765.293	44.74
765.471	44.62
765.65	43.61
765.828	43.53
766.006	43.4
766.184	44.09
766.363	43.87
766.541	44.33
766.719	44.3
766.898	43.59
767.076	43.65
767.254	43.7
767.432	44.26
767.61	45.39
767.788	44.83
767.967	44.85
768.145	44.25
768.323	44.07
768.501	44.84
768.679	44.76
768.857	45.35
769.035	44.76
769.213	45.79
769.391	46.68
769.569	45.87
769.747	46.45
769.925	46.15
770.103	45.46
770.281	45.89
770.459	44.85
770.636	45.06
770.814	45.75
770.992	45.9
771.17	45.65
771.348	43.09
771.525	42.71
771.703	42.68
771.881	43.07
772.059	44.98
772.236	44.74
772.414	45.54
772.592	45.31
772.769	44.62
772.947	45.26
773.125	45.65
773.302	48.07
773.48	49.2
773.657	48.5
773.835	49.75
774.013	49.41
774.19	48.52
774.368	47.19
774.545	46.64
774.723	45.59
774.9	45.65
775.077	45.28
775.255	43.87
775.432	43.22
775.61	44.54
775.787	41.99
775.964	41.35
776.142	42.79
776.319	43.43
776.496	43.05
776.674	44.69
776.851	44.8
777.028	44.02
777.205	45.38
777.382	47.33
777.56	47.98
777.737	48.36
777.914	48.44
778.091	48.83
778.268	48.95
778.445	50.62
778.622	49.98
778.8	50.79
778.977	50.14
779.154	54.91
779.331	54.35
779.508	54.34
779.685	55.61
779.862	56.28
780.038	55.41
780.215	56.14
780.392	53.55
780.569	53.61
780.746	52.88
780.923	52.34
781.1	46.84
781.277	45.94
781.453	44.59
781.63	45.17
781.807	44.91
781.984	44.69
782.16	44.25
782.337	46.57
782.514	45.94
782.691	45.95
782.867	45.93
783.044	45.44
783.221	44.95
783.397	46.18
783.574	44.98
783.75	45.93
783.927	46.99
784.103	47.83
784.28	45.87
784.456	47
784.633	47.22
784.809	48.88
784.986	47.8
785.162	47.15
785.339	47.29
785.515	49.42
785.692	48.4
785.868	47.51
786.044	44.99
786.221	45.56
786.397	44.21
786.573	43.94
786.749	43.69
786.926	44.34
787.102	45.77
787.278	46.1
787.454	44.06
787.631	43.77
787.807	44.08
787.983	45.76
788.159	46.35
788.335	47.42
788.511	47.71
788.687	48.12
788.863	49.65
789.039	49.4
789.216	48.68
789.392	48.95
789.568	49.15
789.744	49.94
789.919	50.16
790.095	50.03
790.271	50.23
790.447	49.87
790.623	50.5
790.799	48.71
790.975	48.72
791.151	47.87
791.327	48.16
791.502	48.01
791.678	47.2
791.854	48.56
792.03	50
792.205	48.97
792.381	50.08
792.557	49.06
792.733	49.56
792.908	49.26
793.084	51.71
793.259	50.17
793.435	52.18
793.611	52.21
793.786	51.41
793.962	48.47
794.137	49.69
794.313	49.15
794.488	48.79
794.664	49.05
794.839	47.1
795.015	45.02
795.19	45.81
795.366	43.89
795.541	44.37
795.716	43.59
795.892	44.79
796.067	43.58
796.242	42.08
796.418	43.13
796.593	43.46
796.768	43.99
796.944	43.11
797.119	42.57
797.294	44.23
797.469	44.87
797.644	43.51
797.82	44.38
797.995	45.26
798.17	47.57
798.345	46.51
798.52	47.18
798.695	48.11
798.87	50
799.045	51.84
799.22	50.98
799.395	50.33
799.57	50.66
799.745	50.12
799.92	49.57
800.095	48.79
800.27	46.98
800.445	46.18
800.62	46.29
800.795	44.89
800.97	43.83
801.145	43.44
801.319	42.73
801.494	43.51
801.669	43.75
801.844	42.73
802.018	41.6
802.193	45.59
802.368	45.21
802.543	43.54
802.717	44.27
802.892	44.02
803.067	44.88
803.241	45.72
803.416	45.38
803.59	46.12
803.765	46.6
803.94	45.61
804.114	44.75
804.289	45.31
804.463	47.79
804.638	46.2
804.812	46.77
804.986	45.68
805.161	43.52
805.335	41.3
805.51	41.92
805.684	41.29
805.858	43.83
806.033	42.04
806.207	42.68
806.381	42.7
806.556	44.71
806.73	46.5
806.904	46.97
807.078	49.41
807.253	53.35
807.427	50.95
807.601	54.13
807.775	54.08
807.949	56.14
808.123	55.24
808.298	56.14
808.472	55.92
808.646	53.08
808.82	54.06
808.994	53.31
809.168	49.81
809.342	49.69
809.516	47.74
809.69	45.08
809.864	43.61
810.038	45.44
810.212	42.39
810.385	41.99
810.559	43.14
810.733	40.69
810.907	40.67
811.081	42.64
811.255	42.65
811.428	44.16
811.602	48.7
811.776	50.53
811.95	48.82
812.123	48.26
812.297	47.63
812.471	44.58
812.644	44.62
812.818	44.9
812.992	45.74
813.165	48.3
813.339	46.53
813.512	44.7
813.686	41.53
813.86	41.95
814.033	45.28
814.207	46.1
814.38	49.72
814.554	50.7
814.727	52.19
814.9	53.72
815.074	52.07
815.247	51.52
815.421	49.48
815.594	49.07
815.767	48.82
815.941	46.81
816.114	44.8
816.287	43
816.46	44.86
816.634	43.18
816.807	39.7
816.98	41.67
817.153	41.88
817.327	43.34
817.5	44.18
817.673	45.5
817.846	45.19
818.019	47.76
818.192	49.66
818.365	45.97
818.538	46.03
818.711	46.52
818.884	45.07
819.057	45.7
819.23	45.01
819.403	44.85
819.576	43.41
819.749	45.77
819.922	44.74
820.095	44.29
820.268	45.06
820.441	46.23
820.614	45.66
820.786	44.36
820.959	42.75
821.132	43.21
821.305	43.03
821.477	43.21
821.65	42.47
821.823	41.92
821.996	42.16
822.168	42.51
822.341	42.27
822.514	41.99
822.686	42.29
822.859	42.03
823.031	41.98
823.204	42.59
823.376	42.08
823.549	42.12
823.722	42.07
823.894	41.91
824.067	41.78
824.239	41.44
824.411	41.33
824.584	41.96
824.756	42.42
824.929	42.16
825.101	42.03
825.273	42.28
825.446	41.89
825.618	42.05
825.79	41.91
825.963	42.25
826.135	42.51
826.307	42.94
826.479	42.18
826.652	42.12
826.824	41.81
826.996	41.21
827.168	41.94
827.34	42.1
827.512	42.61
827.684	42.55
827.856	41.96
828.029	42.4
828.201	42.53
828.373	42.21
828.545	42.16
828.717	42.46
828.889	42.82
829.061	42.96
829.232	43.42
829.404	44.86
829.576	45.6
829.748	47.01
829.92	46.42
830.092	46.98
830.264	47.06
830.436	46.97
830.607	48.38
830.779	48.89
830.951	46.93
831.123	46.65
831.294	44.27
831.466	45.19
831.638	44.07
831.809	45.21
831.981	44.01
832.153	44.76
832.324	48.59
832.496	50.5
832.667	51.25
832.839	52.56
833.011	51.55
833.182	50.14
833.354	47.41
833.525	45.47
833.697	46.32
833.868	48.09
834.039	47.92
834.211	45.83
834.382	42.6
834.554	41.89
834.725	41.54
834.896	43.02
835.068	42.5
835.239	42.2
835.41	42.12
835.581	40.37
835.753	39.18
835.924	39.62
836.095	37.57
836.266	38.96
836.438	38.95
836.609	40.86
836.78	40.31
836.951	41.26
837.122	40.62
837.293	41.09
837.464	41.75
837.635	43.14
837.806	44.15
837.977	45.19
838.148	46.66
838.319	45.48
838.49	45.54
838.661	48.59
838.832	50.59
839.003	55.08
839.174	59.1
839.345	58.25
839.516	60.55
839.687	59.64
839.857	61.76
840.028	60.44
840.199	58.19
840.37	55.28
840.54	51.96
840.711	51.34
840.882	47.52
841.053	46.67
841.223	50.7
841.394	41.16
841.564	39.77
841.735	39.49
841.906	37.52
842.076	43.47
842.247	45.35
842.417	44.45
842.588	46.31
842.758	43.4
842.929	42.32
843.099	38.11
843.27	45.53
843.44	48.56
843.611	50.49
843.781	50.98
843.951	44.64
844.122	43.73
844.292	40.76
844.462	37.03
844.633	41.19
844.803	37.07
844.973	41
845.144	37.53
845.314	33.48
845.484	29.94
845.654	27.67
845.824	39.27
845.995	35.52
846.165	39.7
846.335	46.36
846.505	41.27
846.675	42.04
846.845	48.32
847.015	52.19
847.185	53.53
847.355	50.52
847.525	56.39
847.695	54.24
847.865	63.55
848.035	62.67
848.205	52.11
848.375	58.24
848.545	64.78
848.715	54.03
848.884	49.92
849.054	51.58
849.224	62.83
849.394	62.82
849.564	67.35
849.733	62.09
849.903	63.03
850.073	66.4
850.243	68.28
850.412	66.47
850.582	65.01
850.752	64.96
850.921	61.8
851.091	53.89
851.26	51.46
851.43	47.43
851.599	44.04
851.769	45.88
851.939	42.71
852.108	40.46
852.278	41.02
852.447	43.7
852.616	40.12
852.786	46.57
852.955	50.32
853.125	56.03
853.294	51.43
853.463	54.25
853.633	48.34
853.802	56.92
853.971	47.1
854.141	54.47
854.31	50.22
854.479	54.06
854.648	42.21
854.818	36.47
854.987	27.98
855.156	28.61
855.325	29.89
855.494	33.5
855.663	23.72
855.832	30.91
856.001	12.88
856.171	13.81
856.34	16.11
856.509	14.11
856.678	24.75
856.847	26.99
857.016	30.49
857.185	28.08
857.353	24.26
857.522	34.68
857.691	38.91
857.86	46.36
858.029	53.87
858.198	53.99
858.367	52.09
858.535	50.08
858.704	51.78
858.873	49.58
859.042	42.19
859.21	45.64
859.379	41.23
859.548	40.07
859.717	34.38
859.885	32.09
860.054	28.13
860.222	33.66
860.391	41.07
860.56	38.64
860.728	41.98
860.897	51.43
861.065	45.41
861.234	43.71
861.402	44.84
861.571	52.97
861.739	52.46
861.908	55.29
862.076	53.81
862.244	50.92
862.413	58.46
862.581	57.9
862.749	52.67
862.918	60.28
863.086	71.38
863.254	67.71
863.423	62.57
863.591	63.11
863.759	60.24
863.927	61.97
864.096	65.15
864.264	59.01
864.432	57.86
864.6	67.85
864.768	66.36
864.936	57.37
865.104	52.43
865.272	58.32
865.44	62.09
865.608	54.25
865.776	53.32
865.944	55.6
866.112	56.32
866.28	64.8
866.448	63.69
866.616	61.23
866.784	57.69
866.952	64.95
867.12	54.29
867.288	53.3
867.455	58.06
867.623	47.88
867.791	38.57
867.959	33.72
868.127	31.15
868.294	26.65
868.462	29.81
868.63	33.43
868.797	27.12
868.965	38.35
869.133	36.62
869.3	40.94
869.468	45.72
869.636	46.54
869.803	50.8
869.971	55.39
870.138	48.07
870.306	42.58
870.473	42.93
870.641	53.22
870.808	49.86
870.975	48.53
871.143	47.29
871.31	47.75
871.478	50.37
871.645	53.05
871.812	49.58
871.98	66.16
872.147	77.2
872.314	88.17
872.482	75.57
872.649	68.97
872.816	58.91
872.983	54.78
873.15	49.95
873.318	42.75
873.485	44.34
873.652	34.77
873.819	30.56
873.986	22
874.153	15.49
874.32	16.62
874.487	11.63
874.654	20.36
874.821	18.89
874.988	20.38
875.155	22.7
875.322	25.96
875.489	27.65
875.656	19.86
875.823	19.27
875.99	29.64
876.157	34.58
876.324	33.84
876.49	32.05
876.657	36.6
876.824	41.28
876.991	47.04
877.157	45.74
877.324	54.93
877.491	59.29
877.658	66.09
877.824	66.01
877.991	64.69
878.157	65.61
878.324	68.51
878.491	72.56
878.657	75.18
878.824	65.22
878.99	64.33
879.157	55.35
879.323	49.58
879.49	46.22
879.656	49.57
879.823	51.47
879.989	54.66
880.156	55.96
880.322	55.4
880.488	52.33
880.655	51.27
880.821	55.51
880.987	51.37
881.154	50.94
881.32	57.61
881.486	54.26
881.652	50.54
881.819	49.91
881.985	47.5
882.151	45.95
882.317	44.32
882.483	48.01
882.649	45.35
882.816	44.67
882.982	44.34
883.148	42.69
883.314	41.13
883.48	41.04
883.646	41.2
883.812	41.81
883.978	41.94
884.144	42.43
884.31	40.63
884.476	40.69
884.642	40.87
884.807	40.45
884.973	40.73
885.139	41.96
885.305	40.88
885.471	40.58
885.637	39.97
885.802	39.46
885.968	38.76
886.134	39.41
886.3	40.15
886.465	39.84
886.631	39.28
886.797	38.03
886.962	38.51
887.128	41.72
887.293	41.37
887.459	45.31
887.625	45.58
887.79	49.88
887.956	51
888.121	49.39
888.287	52.01
888.452	57.5
888.618	58.16
888.783	58.83
