Data from LC_214__Reflection_3.txt Node
Date: Thu Nov 19 12:52:34 EST 2015
User: robert
Spectrometer: USB4E03001
Autoset integration time: false
Trigger mode: 4
Integration Time (sec): 1.000000E-1
Scans to average: 15
Electric dark correction enabled: true
Nonlinearity correction enabled: false
Boxcar width: 5
Stray light correction enabled: false
XAxis mode: Wavelengths
Stop averaging: false
Number of Pixels in Spectrum: 3648
>>>>>Begin Spectral Data<<<<<
177.566	91.52
177.785	110.44
178.005	-35.29
178.225	35.35
178.445	195.06
178.665	69400
178.885	78.18
179.105	131.74
179.324	-31.57
179.544	-174
179.764	-5.84
179.984	-119.27
180.204	-93.11
180.423	2.66
180.643	-1151.04
180.863	-980.35
181.083	-133.44
181.302	-108.15
181.522	-108.47
181.742	-1145.44
181.961	925.66
182.181	783.69
182.401	164.4
182.621	187.54
182.84	337.57
183.06	563.58
183.279	664.16
183.499	374.05
183.719	350.31
183.938	192.88
184.158	268.64
184.377	492.09
184.597	396.66
184.816	2725.9
185.036	11988.04
185.256	764.36
185.475	382.26
185.695	322.08
185.914	268.71
186.134	176.8
186.353	154.19
186.572	137.33
186.792	141.22
187.011	795.95
187.231	172.29
187.45	170.12
187.67	316.64
187.889	4478.79
188.108	144.86
188.328	-111.46
188.547	-20.16
188.766	-72.82
188.986	-153.13
189.205	-300.36
189.424	505.31
189.644	891.97
189.863	470.41
190.082	538.28
190.302	1650.36
190.521	-99.14
190.74	-555.01
190.959	-4947.18
191.178	6140.68
191.398	-1885.61
191.617	307.99
191.836	1111.76
192.055	-289.35
192.274	-85.09
192.494	-142.72
192.713	-170.27
192.932	-133.52
193.151	-106.17
193.37	-238.33
193.589	-151.19
193.808	-94.62
194.027	-101.57
194.246	-233.65
194.465	-225.44
194.685	13272.5
194.904	324.58
195.123	184.81
195.342	99.34
195.561	92.72
195.78	130.18
195.999	179.61
196.218	349.33
196.436	591.86
196.655	412.76
196.874	321.57
197.093	314.32
197.312	858.98
197.531	835.9
197.75	1638.99
197.969	-716.84
198.188	-731.74
198.407	-5382.63
198.625	406.18
198.844	628.74
199.063	1481.9
199.282	1295.05
199.501	-844.25
199.719	-1071.9
199.938	-2016.13
200.157	2109.16
200.376	646.6
200.594	411.79
200.813	349.32
201.032	194.15
201.251	228.4
201.469	361.13
201.688	274.11
201.907	220.6
202.125	210.49
202.344	168.29
202.563	123.16
202.781	141.43
203	108.09
203.218	99.89
203.437	203.97
203.656	112.17
203.874	69.29
204.093	88.49
204.311	103.43
204.53	102.77
204.748	91.23
204.967	76.11
205.185	85.11
205.404	116.74
205.622	174.73
205.841	123.5
206.059	148.39
206.278	206.97
206.496	210.24
206.715	251.14
206.933	256.97
207.151	-311.21
207.37	-309.37
207.588	-1408.82
207.806	1430.71
208.025	699.86
208.243	-1211.55
208.461	-1152.84
208.68	-2593.76
208.898	3299.47
209.116	1291.75
209.335	2691.34
209.553	756.82
209.771	1688.83
209.989	-957.36
210.208	-384.6
210.426	-114.32
210.644	-14.62
210.862	89.92
211.081	154.61
211.299	48.51
211.517	51.15
211.735	12.71
211.953	-126.19
212.171	185
212.39	308.71
212.608	374.87
212.826	182.52
213.044	108.48
213.262	109.54
213.48	119.78
213.698	77.22
213.916	153.7
214.134	122.01
214.352	230.34
214.57	-391.86
214.788	295.09
215.006	1211.68
215.224	-199.39
215.442	-36.08
215.66	-78.33
215.878	286.7
216.096	160.25
216.314	143.24
216.532	134.94
216.75	122.29
216.968	121.48
217.185	122.36
217.403	118.38
217.621	139.13
217.839	155.53
218.057	139.49
218.275	194.62
218.492	240.79
218.71	116.46
218.928	111.4
219.146	98.65
219.363	91.56
219.581	132.59
219.799	313.34
220.017	165.65
220.234	153.28
220.452	177.1
220.67	121.61
220.887	130.04
221.105	242.42
221.323	252.2
221.54	264.02
221.758	206.53
221.976	143.63
222.193	118.18
222.411	96
222.629	83.51
222.846	85.25
223.064	73.02
223.281	92.94
223.499	80.47
223.716	119.5
223.934	94.39
224.151	101.68
224.369	112.43
224.586	96.58
224.804	114.97
225.021	86.92
225.239	82.42
225.456	87.97
225.674	82.58
225.891	84.73
226.108	69.01
226.326	65.21
226.543	66.41
226.76	58.85
226.978	61.33
227.195	53.51
227.413	54.95
227.63	46.16
227.847	47.49
228.064	39.41
228.282	34.38
228.499	33.5
228.716	30.81
228.934	24.75
229.151	25.64
229.368	21.92
229.585	21.32
229.802	22.43
230.02	21.47
230.237	15.61
230.454	17.26
230.671	16.18
230.888	15.37
231.105	15.67
231.323	17.35
231.54	15.74
231.757	19.05
231.974	23.43
232.191	30.31
232.408	33.88
232.625	39.04
232.842	40.31
233.059	41.02
233.276	38.6
233.493	41.85
233.71	37.88
233.927	35.48
234.144	42.77
234.361	40.91
234.578	29.72
234.795	32.48
235.012	29.51
235.229	27.78
235.446	29.83
235.663	32.82
235.879	29.61
236.096	27.33
236.313	29.25
236.53	21.7
236.747	21.74
236.964	23.53
237.181	22.92
237.397	24.54
237.614	25.65
237.831	24.37
238.048	22.52
238.264	24.74
238.481	34.36
238.698	32.02
238.915	33.96
239.131	28.23
239.348	26.53
239.565	22.95
239.781	21.05
239.998	20.16
240.215	21.95
240.431	20.02
240.648	19.36
240.865	15.28
241.081	16.7
241.298	17.52
241.514	17.94
241.731	19.69
241.947	18.4
242.164	18.2
242.38	17.53
242.597	18.39
242.814	19.54
243.03	20.08
243.246	19.81
243.463	20.08
243.679	19.32
243.896	19.37
244.112	17.22
244.329	17.43
244.545	17.22
244.762	16.56
244.978	14.82
245.194	14.19
245.411	14.1
245.627	14.47
245.843	13.11
246.06	12.81
246.276	13.47
246.492	14.3
246.709	14.86
246.925	15.61
247.141	14.94
247.357	13.91
247.574	14.18
247.79	14.03
248.006	13.14
248.222	13.22
248.439	12.7
248.655	11.92
248.871	11.74
249.087	10.99
249.303	10.84
249.519	10.38
249.736	10.61
249.952	8.8
250.168	8.11
250.384	12.29
250.6	12.47
250.816	14.12
251.032	14.61
251.248	14.14
251.464	15.16
251.68	12.94
251.896	12.88
252.112	12.23
252.328	11.09
252.544	11.7
252.76	9.11
252.976	8.22
253.192	8.71
253.408	7.7
253.624	8.64
253.84	9.15
254.056	12.33
254.272	13.73
254.487	15.08
254.703	15.81
254.919	16.59
255.135	16.89
255.351	16.97
255.567	14.96
255.782	15.25
255.998	16
256.214	13.45
256.43	11.71
256.646	8.88
256.861	8.59
257.077	11.38
257.293	9.8
257.508	8.86
257.724	7.93
257.94	8.36
258.155	9.77
258.371	9.5
258.587	10.03
258.802	8.7
259.018	11.18
259.234	9.91
259.449	9.11
259.665	8.68
259.88	9.17
260.096	9.17
260.312	9.23
260.527	8.99
260.743	8.61
260.958	8.58
261.174	9.46
261.389	9.37
261.605	10.21
261.82	9.36
262.036	9.47
262.251	9.53
262.466	9.82
262.682	9.3
262.897	8.67
263.113	8.59
263.328	9.82
263.543	9.46
263.759	8.23
263.974	6.75
264.189	7.51
264.405	9.78
264.62	9.3
264.835	9.38
265.051	11.95
265.266	12.75
265.481	12.89
265.696	11.9
265.912	11.32
266.127	11.91
266.342	12.25
266.557	12.82
266.773	11.27
266.988	11.51
267.203	10.5
267.418	9.5
267.633	9.74
267.848	9.73
268.064	10.01
268.279	10.42
268.494	10.57
268.709	12.15
268.924	13.58
269.139	14.15
269.354	15.29
269.569	16.01
269.784	15.33
269.999	15.96
270.214	16.26
270.429	15.79
270.644	16.35
270.859	16.38
271.074	15.47
271.289	14.82
271.504	13.58
271.719	11.73
271.934	12.29
272.149	12.19
272.363	10.64
272.578	10.5
272.793	10.24
273.008	9.25
273.223	8.16
273.438	8.87
273.653	7.95
273.867	7.68
274.082	7.65
274.297	8.72
274.512	8.91
274.726	10.97
274.941	10.98
275.156	12.35
275.371	12.11
275.585	12.84
275.8	12
276.015	11.99
276.229	13.34
276.444	13.84
276.659	14.93
276.873	14.35
277.088	11.67
277.302	11.2
277.517	9.66
277.732	9.03
277.946	10.34
278.161	10.33
278.375	11.94
278.59	10.98
278.804	10.97
279.019	8.75
279.233	9.3
279.448	10.57
279.662	9.7
279.877	9.03
280.091	9.15
280.306	8.52
280.52	7.76
280.735	6.14
280.949	6.47
281.163	7.96
281.378	7.81
281.592	8.44
281.806	9.09
282.021	11.26
282.235	11.77
282.449	12.1
282.664	11.67
282.878	12.54
283.092	13.26
283.307	12.99
283.521	11.85
283.735	11.9
283.949	11.49
284.164	10.76
284.378	9.87
284.592	9.67
284.806	9.44
285.02	9.35
285.234	8.91
285.449	9.72
285.663	10.16
285.877	10.49
286.091	9.94
286.305	11.15
286.519	11.41
286.733	9.89
286.947	10.27
287.161	10.28
287.375	10.03
287.589	10.33
287.803	8.91
288.017	11.15
288.231	11.18
288.445	12.43
288.659	12.17
288.873	12.82
289.087	14.37
289.301	14.93
289.515	15.4
289.729	14.78
289.943	14.9
290.157	15.66
290.371	12.8
290.584	12.87
290.798	11.6
291.012	11.82
291.226	11.28
291.44	11.82
291.654	10.94
291.867	10.93
292.081	11.09
292.295	11.39
292.509	10.15
292.722	11.06
292.936	11.42
293.15	13.23
293.364	12.84
293.577	12.72
293.791	11.29
294.005	12.39
294.218	11.47
294.432	12.17
294.645	12
294.859	12.55
295.073	13.38
295.286	13.23
295.5	11.53
295.713	10.12
295.927	10.76
296.14	10.82
296.354	10.92
296.568	11.88
296.781	11.5
296.994	9.93
297.208	9.58
297.421	9.81
297.635	9.43
297.848	9.38
298.062	9.68
298.275	8.77
298.489	9.64
298.702	8.98
298.915	8.84
299.129	10.11
299.342	11.98
299.555	13.01
299.769	11.92
299.982	13.78
300.195	14.92
300.409	15.17
300.622	16.15
300.835	16.35
301.048	16.67
301.262	16.15
301.475	15.51
301.688	15.47
301.901	14.46
302.115	13.99
302.328	11.35
302.541	10.97
302.754	11.03
302.967	10.93
303.18	10.54
303.393	11.09
303.607	10.73
303.82	9.45
304.033	10.19
304.246	12.51
304.459	13.94
304.672	14.91
304.885	15.3
305.098	15.88
305.311	16.27
305.524	17.1
305.737	17.47
305.95	17.95
306.163	18.17
306.376	17.68
306.589	16.38
306.802	16.58
307.015	17.41
307.228	16.75
307.44	16.05
307.653	16.35
307.866	15.91
308.079	14.6
308.292	14.36
308.505	15.54
308.718	15.58
308.93	14.88
309.143	14.7
309.356	13.01
309.569	13.98
309.781	14.23
309.994	13.31
310.207	11.64
310.42	11.64
310.632	11.87
310.845	11.15
311.058	10.48
311.27	10.63
311.483	11.1
311.696	12.2
311.908	12.05
312.121	12.51
312.333	12.3
312.546	13.52
312.759	13.39
312.971	13.39
313.184	13.95
313.396	15.33
313.609	15.49
313.821	13.91
314.034	14.24
314.246	14.58
314.459	13.07
314.671	14.15
314.884	14.7
315.096	16.67
315.309	16.66
315.521	16.03
315.733	15.7
315.946	16.25
316.158	17.53
316.371	16.67
316.583	16.25
316.795	18.65
317.008	15.99
317.22	14.98
317.432	13.6
317.644	14.61
317.857	13.86
318.069	13.88
318.281	13.73
318.494	12.66
318.706	13.6
318.918	13.52
319.13	12.56
319.342	14.46
319.555	13.34
319.767	14.57
319.979	14
320.191	15.24
320.403	13.61
320.615	12.88
320.827	13.46
321.039	12.76
321.252	11.66
321.464	11.6
321.676	12.82
321.888	14.76
322.1	12.92
322.312	13.11
322.524	13.65
322.736	13.47
322.948	14.16
323.16	14.85
323.372	14.91
323.584	16.65
323.796	15.66
324.007	15.6
324.219	15.56
324.431	16.84
324.643	16.67
324.855	15.86
325.067	17.08
325.279	17.52
325.491	16.66
325.702	16.36
325.914	16.02
326.126	16.8
326.338	16.58
326.55	15.98
326.761	16.21
326.973	16.07
327.185	17.03
327.396	16.51
327.608	17.25
327.82	18.17
328.032	18.41
328.243	18.86
328.455	19.34
328.666	19.42
328.878	19.96
329.09	19.3
329.301	19.59
329.513	20.92
329.725	22.29
329.936	21.51
330.148	20.52
330.359	21.63
330.571	22.5
330.782	23.47
330.994	24.24
331.205	24.84
331.417	25.28
331.628	26.22
331.84	25.58
332.051	25.94
332.262	26.18
332.474	27.46
332.685	26.87
332.897	25.25
333.108	24.46
333.319	24.77
333.531	25.21
333.742	25.27
333.953	25.17
334.165	24.67
334.376	25.19
334.587	25.22
334.799	24.42
335.01	24.49
335.221	25.24
335.432	24.94
335.644	25.54
335.855	26.02
336.066	26.57
336.277	26.59
336.488	26.34
336.7	26.41
336.911	25.77
337.122	26.17
337.333	26.55
337.544	26.96
337.755	28.6
337.966	27.89
338.177	26.81
338.388	26.89
338.599	26.98
338.811	28.38
339.022	28.27
339.233	29.08
339.444	29.38
339.655	29.26
339.866	28.88
340.076	27.8
340.287	27.81
340.498	28.6
340.709	28.21
340.92	27.85
341.131	27.5
341.342	27.06
341.553	26.69
341.764	26.61
341.975	27.01
342.185	28.04
342.396	27.42
342.607	27.51
342.818	26.94
343.029	26.84
343.239	27.6
343.45	26.93
343.661	26.57
343.872	27.06
344.082	27.98
344.293	27.69
344.504	27.35
344.714	28.56
344.925	28.42
345.136	28.94
345.346	28.84
345.557	28.71
345.768	28.96
345.978	29.23
346.189	29
346.399	28.24
346.61	28.34
346.821	28.12
347.031	28.01
347.242	27.75
347.452	28
347.663	28.09
347.873	27.82
348.084	28.24
348.294	28.48
348.504	28.67
348.715	28.43
348.925	28.44
349.136	27.91
349.346	27.55
349.557	27.76
349.767	27
349.977	27.19
350.188	27.69
350.398	27.2
350.608	27.43
350.819	27.23
351.029	27.35
351.239	27.64
351.449	27.23
351.66	27.53
351.87	27.15
352.08	27.08
352.29	27.28
352.501	26.18
352.711	26.3
352.921	25.94
353.131	25.78
353.341	26.61
353.552	26.49
353.762	26.55
353.972	26.96
354.182	27.07
354.392	27.6
354.602	27.4
354.812	28.21
355.022	27.7
355.232	27.23
355.442	27.43
355.652	26.86
355.862	26.35
356.072	26.91
356.282	25.76
356.492	25.8
356.702	25.88
356.912	25.99
357.122	25.65
357.332	25.7
357.542	26.22
357.752	26.6
357.962	26.37
358.171	26.74
358.381	26.73
358.591	26.78
358.801	26.72
359.011	26.67
359.221	26.97
359.43	27.58
359.64	27.53
359.85	27.38
360.06	26.67
360.269	26.57
360.479	26.53
360.689	26.7
360.899	26.93
361.108	27.11
361.318	26.92
361.528	26.33
361.737	25.96
361.947	25.95
362.156	25.5
362.366	25.49
362.576	25.88
362.785	25.81
362.995	25.8
363.204	25.63
363.414	25.59
363.623	25.21
363.833	24.97
364.042	25.05
364.252	25.63
364.461	26.33
364.671	26.46
364.88	26.16
365.09	26.32
365.299	25.94
365.509	26.43
365.718	26.27
365.927	26.62
366.137	27.24
366.346	26.55
366.555	26.11
366.765	25.91
366.974	26.03
367.183	25.64
367.393	25.06
367.602	24.58
367.811	24.01
368.021	23.76
368.23	23.66
368.439	23.39
368.648	23.8
368.857	23.14
369.067	23.11
369.276	22.38
369.485	22.79
369.694	22.57
369.903	22.59
370.112	22.77
370.321	23.01
370.531	23.27
370.74	23
370.949	22.96
371.158	23.33
371.367	22.66
371.576	23.39
371.785	23.07
371.994	23.46
372.203	23.62
372.412	23.54
372.621	23.63
372.83	23.13
373.039	23.38
373.248	23.49
373.457	23.32
373.666	23.46
373.874	23.29
374.083	23.03
374.292	22.39
374.501	22.33
374.71	21.96
374.919	21.78
375.128	21.85
375.336	22
375.545	22.01
375.754	22.57
375.963	23.03
376.171	22.94
376.38	23.43
376.589	23.37
376.798	23.3
377.006	23.73
377.215	23.68
377.424	23.82
377.632	23.32
377.841	22.86
378.05	22.92
378.258	22.63
378.467	22.5
378.675	22.13
378.884	22.47
379.093	22.41
379.301	22.16
379.51	22.08
379.718	21.94
379.927	22.02
380.135	21.85
380.344	21.35
380.552	20.98
380.761	21.01
380.969	20.85
381.177	20.43
381.386	20.36
381.594	20.49
381.803	20.26
382.011	20.23
382.219	20.03
382.428	20.12
382.636	20.23
382.845	20.44
383.053	20.78
383.261	20.93
383.469	20.93
383.678	20.87
383.886	20.24
384.094	20.16
384.302	19.86
384.511	19.87
384.719	19.54
384.927	19.51
385.135	19.36
385.343	19.01
385.552	18.73
385.76	18.73
385.968	19
386.176	19.01
386.384	18.9
386.592	19.03
386.8	18.59
387.008	18.83
387.216	18.61
387.424	18.18
387.633	18.04
387.841	18.07
388.049	18.14
388.257	17.52
388.465	17.74
388.672	18.32
388.88	18.2
389.088	18.35
389.296	18.26
389.504	17.94
389.712	18.21
389.92	17.93
390.128	18.11
390.336	18.1
390.544	18.27
390.751	18.43
390.959	17.98
391.167	17.93
391.375	17.92
391.583	17.82
391.79	18.12
391.998	18.15
392.206	18.5
392.414	18.14
392.621	18.06
392.829	17.85
393.037	17.64
393.244	17.64
393.452	17.4
393.66	17.33
393.867	17.34
394.075	17.03
394.283	16.7
394.49	16.38
394.698	16.48
394.905	16.39
395.113	16.71
395.32	16.33
395.528	16.18
395.735	16.25
395.943	16.54
396.15	16.62
396.358	16.53
396.565	16.87
396.773	16.88
396.98	16.64
397.188	16.28
397.395	16.27
397.602	16.75
397.81	16.74
398.017	16.72
398.225	16.17
398.432	15.99
398.639	15.92
398.847	15.81
399.054	15.65
399.261	15.81
399.468	16.01
399.676	15.68
399.883	15.39
400.09	15.33
400.297	15.49
400.505	15.8
400.712	15.96
400.919	16.17
401.126	16.04
401.333	16.21
401.54	16.27
401.748	16.69
401.955	16.87
402.162	16.78
402.369	16.7
402.576	16.78
402.783	16.36
402.99	16.45
403.197	16.43
403.404	16.41
403.611	16.5
403.818	16.56
404.025	16.3
404.232	16.21
404.439	16.46
404.646	16.47
404.853	16.28
405.06	16.58
405.267	16.45
405.474	16.44
405.681	16.65
405.887	16.63
406.094	16.69
406.301	16.6
406.508	16.67
406.715	16.59
406.922	16.77
407.128	16.92
407.335	17.1
407.542	17.24
407.749	17
407.955	16.83
408.162	16.68
408.369	16.41
408.575	16.62
408.782	16.3
408.989	16.24
409.195	16.11
409.402	15.7
409.609	15.54
409.815	15.47
410.022	15.56
410.228	15.81
410.435	15.91
410.642	15.71
410.848	15.33
411.055	15.5
411.261	15.42
411.468	15.42
411.674	15.68
411.881	15.58
412.087	15.58
412.294	15.88
412.5	15.42
412.706	15.49
412.913	15.81
413.119	15.99
413.326	15.96
413.532	16.21
413.738	16.23
413.945	16.13
414.151	16.36
414.357	16.1
414.564	16.13
414.77	16.27
414.976	15.96
415.182	16.17
415.389	16.17
415.595	16.19
415.801	15.98
416.007	15.82
416.214	15.82
416.42	15.52
416.626	15.49
416.832	15.23
417.038	15.24
417.244	15.31
417.45	14.9
417.657	14.78
417.863	14.64
418.069	14.45
418.275	14.61
418.481	14.68
418.687	14.81
418.893	14.82
419.099	14.74
419.305	14.56
419.511	14.63
419.717	14.7
419.923	14.77
420.129	14.8
420.335	14.77
420.541	14.57
420.746	14.38
420.952	14.2
421.158	14.11
421.364	14.17
421.57	14.19
421.776	14.01
421.982	13.93
422.187	13.89
422.393	13.89
422.599	13.92
422.805	14
423.01	14.09
423.216	14.14
423.422	14.22
423.628	14.2
423.833	14.35
424.039	14.52
424.245	14.58
424.45	14.45
424.656	14.4
424.862	14.36
425.067	14.35
425.273	14.27
425.478	14.18
425.684	14.15
425.889	14.1
426.095	13.91
426.301	13.7
426.506	13.66
426.712	13.75
426.917	13.83
427.123	13.82
427.328	13.77
427.533	13.81
427.739	13.92
427.944	14.03
428.15	14.04
428.355	14.17
428.561	14.29
428.766	14.17
428.971	14.21
429.177	14.14
429.382	14.43
429.587	14.43
429.793	14.34
429.998	14.39
430.203	14.39
430.408	14.52
430.614	14.37
430.819	14.3
431.024	14.49
431.229	14.6
431.434	14.69
431.64	14.43
431.845	14.4
432.05	14.48
432.255	14.4
432.46	14.31
432.665	14.02
432.87	14.14
433.076	14.13
433.281	14.07
433.486	13.84
433.691	13.69
433.896	13.75
434.101	13.74
434.306	13.79
434.511	13.73
434.716	13.62
434.921	13.82
435.126	13.81
435.331	13.66
435.535	13.59
435.74	13.72
435.945	13.74
436.15	13.82
436.355	13.92
436.56	13.97
436.765	14.11
436.97	14.11
437.174	14.07
437.379	14.11
437.584	14.28
437.789	14.29
437.993	14.2
438.198	14.26
438.403	14.15
438.608	14.05
438.812	13.95
439.017	13.76
439.222	13.93
439.426	13.85
439.631	13.8
439.836	13.79
440.04	13.81
440.245	13.9
440.45	13.79
440.654	13.9
440.859	13.76
441.063	13.75
441.268	14.08
441.472	14.01
441.677	13.98
441.881	14.13
442.086	14.14
442.29	14.24
442.495	14.28
442.699	14.46
442.904	14.21
443.108	14.29
443.312	14.23
443.517	14.05
443.721	14.03
443.925	14.1
444.13	13.89
444.334	13.93
444.538	13.75
444.743	13.84
444.947	13.65
445.151	13.79
445.356	13.88
445.56	13.99
445.764	13.81
445.968	13.71
446.173	13.67
446.377	13.61
446.581	13.53
446.785	13.6
446.989	13.53
447.193	13.71
447.398	13.67
447.602	13.64
447.806	13.56
448.01	13.62
448.214	13.65
448.418	13.85
448.622	13.9
448.826	13.92
449.03	13.85
449.234	13.66
449.438	13.53
449.642	13.55
449.846	13.5
450.05	13.52
450.254	13.6
450.458	13.67
450.662	13.47
450.866	13.43
451.069	13.44
451.273	13.42
451.477	13.6
451.681	13.78
451.885	13.87
452.089	13.95
452.292	13.91
452.496	13.8
452.7	13.88
452.904	13.82
453.107	13.9
453.311	13.92
453.515	14.03
453.719	13.97
453.922	13.76
454.126	13.59
454.33	13.63
454.533	13.95
454.737	13.88
454.94	13.93
455.144	14.01
455.348	13.97
455.551	13.99
455.755	13.99
455.958	14.16
456.162	14.17
456.365	14.22
456.569	14.19
456.772	13.94
456.976	14.05
457.179	13.87
457.383	13.86
457.586	13.79
457.79	13.78
457.993	13.75
458.196	13.5
458.4	13.67
458.603	13.64
458.807	13.55
459.01	13.5
459.213	13.52
459.417	13.5
459.62	13.44
459.823	13.42
460.026	13.43
460.23	13.43
460.433	13.53
460.636	13.31
460.839	13.2
461.042	13.07
461.246	13.07
461.449	13.1
461.652	13.12
461.855	13.15
462.058	13.33
462.261	13.16
462.464	13.17
462.668	13.13
462.871	13.26
463.074	13.43
463.277	13.64
463.48	13.57
463.683	13.54
463.886	13.43
464.089	13.6
464.292	13.38
464.495	13.5
464.698	13.46
464.901	13.47
465.104	13.56
465.306	13.7
465.509	13.78
465.712	13.79
465.915	13.69
466.118	13.9
466.321	13.78
466.524	13.95
466.726	13.95
466.929	14.08
467.132	14.11
467.335	14.02
467.538	13.97
467.74	14.04
467.943	14.06
468.146	14.12
468.348	14.03
468.551	13.91
468.754	13.91
468.956	14.07
469.159	14.05
469.362	14.03
469.564	14.15
469.767	14.26
469.969	14.09
470.172	14.24
470.375	14.28
470.577	14.25
470.78	14.41
470.982	14.21
471.185	14.14
471.387	13.92
471.59	13.98
471.792	13.9
471.995	13.67
472.197	13.66
472.399	13.73
472.602	13.73
472.804	13.74
473.007	13.69
473.209	13.77
473.411	13.85
473.614	14.04
473.816	13.93
474.018	14.01
474.22	14.05
474.423	14.19
474.625	14.23
474.827	14.13
475.03	14.08
475.232	14.15
475.434	14.3
475.636	14.21
475.838	14.12
476.04	14.12
476.243	14.18
476.445	14.11
476.647	14.04
476.849	13.92
477.051	13.99
477.253	14.22
477.455	14.2
477.657	14.17
477.859	14.08
478.061	14.15
478.263	14.1
478.465	13.93
478.667	14.11
478.869	14.1
479.071	14.01
479.273	13.95
479.475	13.82
479.677	13.71
479.879	13.61
480.081	13.76
480.283	13.7
480.485	13.7
480.686	13.74
480.888	13.69
481.09	13.76
481.292	13.77
481.494	13.84
481.695	13.84
481.897	13.86
482.099	13.84
482.301	13.62
482.502	13.56
482.704	13.54
482.906	13.53
483.107	13.44
483.309	13.27
483.511	13.19
483.712	13.1
483.914	12.99
484.115	13.01
484.317	12.95
484.519	12.95
484.72	12.95
484.922	12.92
485.123	12.88
485.325	12.91
485.526	12.92
485.728	12.98
485.929	13.01
486.131	13.08
486.332	13.06
486.534	13.09
486.735	13.15
486.936	13.2
487.138	13.24
487.339	13.19
487.541	13.19
487.742	13.23
487.943	13.27
488.144	13.29
488.346	13.37
488.547	13.39
488.748	13.42
488.95	13.4
489.151	13.39
489.352	13.37
489.553	13.43
489.755	13.42
489.956	13.51
490.157	13.49
490.358	13.51
490.559	13.45
490.76	13.31
490.961	13.34
491.163	13.29
491.364	13.3
491.565	13.21
491.766	13.19
491.967	13.24
492.168	13.24
492.369	13.21
492.57	13.2
492.771	13.19
492.972	13.3
493.173	13.33
493.374	13.49
493.575	13.5
493.776	13.73
493.976	13.79
494.177	13.87
494.378	13.9
494.579	13.96
494.78	14
494.981	14.02
495.182	14.09
495.382	14.21
495.583	14.18
495.784	14.22
495.985	14.24
496.185	14.37
496.386	14.26
496.587	14.22
496.788	14.31
496.988	14.37
497.189	14.43
497.39	14.47
497.59	14.32
497.791	14.34
497.992	14.3
498.192	14.36
498.393	14.39
498.593	14.5
498.794	14.52
498.994	14.43
499.195	14.51
499.395	14.48
499.596	14.66
499.796	14.72
499.997	14.8
500.197	14.86
500.398	14.83
500.598	14.8
500.799	14.79
500.999	14.95
501.199	15.19
501.4	15.07
501.6	15.14
501.801	14.99
502.001	14.99
502.201	14.96
502.402	15.07
502.602	15.09
502.802	14.99
503.002	15.08
503.203	15.02
503.403	14.94
503.603	15.04
503.803	15.2
504.003	15.39
504.204	15.59
504.404	15.69
504.604	15.76
504.804	15.75
505.004	16.05
505.204	16.21
505.404	16.32
505.604	16.46
505.804	16.47
506.005	16.52
506.205	16.51
506.405	16.68
506.605	16.76
506.805	16.84
507.005	17.18
507.204	17.14
507.404	17
507.604	16.95
507.804	17.11
508.004	17.31
508.204	17.4
508.404	17.38
508.604	17.31
508.804	17.35
509.003	17.36
509.203	17.18
509.403	17.22
509.603	17.28
509.803	17.51
510.002	17.52
510.202	17.54
510.402	17.62
510.602	17.76
510.801	17.92
511.001	17.93
511.201	17.97
511.4	18.06
511.6	18.23
511.8	18.4
511.999	18.49
512.199	18.52
512.398	18.57
512.598	18.69
512.797	18.77
512.997	18.77
513.197	18.88
513.396	19.08
513.596	19.23
513.795	19.37
513.994	19.53
514.194	19.59
514.393	19.78
514.593	20.03
514.792	20.13
514.992	20.26
515.191	20.47
515.39	20.76
515.59	20.87
515.789	21.11
515.988	21.06
516.188	21.09
516.387	21.15
516.586	21.17
516.786	21.21
516.985	21.2
517.184	21.35
517.383	21.29
517.582	21.28
517.782	21.31
517.981	21.31
518.18	21.33
518.379	21.49
518.578	21.52
518.777	21.59
518.976	21.6
519.176	21.6
519.375	21.58
519.574	21.67
519.773	21.78
519.972	21.89
520.171	21.98
520.37	22.25
520.569	22.27
520.768	22.37
520.967	22.54
521.166	22.72
521.365	23.01
521.564	23.13
521.762	23.38
521.961	23.59
522.16	23.59
522.359	23.65
522.558	23.77
522.757	23.9
522.956	24.02
523.154	24.16
523.353	24.23
523.552	24.28
523.751	24.52
523.949	24.42
524.148	24.42
524.347	24.65
524.546	24.89
524.744	24.88
524.943	24.94
525.142	25.1
525.34	25.08
525.539	25.14
525.737	25.17
525.936	25.16
526.135	25.33
526.333	25.34
526.532	25.26
526.73	25.23
526.929	25.28
527.127	25.34
527.326	25.35
527.524	25.39
527.723	25.45
527.921	25.52
528.12	25.51
528.318	25.52
528.516	25.54
528.715	25.63
528.913	25.74
529.112	25.77
529.31	25.78
529.508	25.82
529.707	25.95
529.905	25.94
530.103	26.03
530.301	26.24
530.5	26.41
530.698	26.64
530.896	26.75
531.094	26.86
531.293	27.06
531.491	27.3
531.689	27.5
531.887	27.59
532.085	27.85
532.283	27.95
532.481	27.92
532.68	27.99
532.878	27.97
533.076	28.02
533.274	28.03
533.472	28.11
533.67	28.15
533.868	28.24
534.066	28.29
534.264	28.36
534.462	28.47
534.66	28.54
534.858	28.62
535.056	28.75
535.253	28.85
535.451	29.01
535.649	29.13
535.847	29.25
536.045	29.29
536.243	29.48
536.441	29.62
536.638	29.66
536.836	29.84
537.034	30
537.232	30.08
537.43	30.19
537.627	30.28
537.825	30.36
538.023	30.48
538.22	30.68
538.418	30.73
538.616	30.84
538.813	31.03
539.011	31.03
539.209	31.02
539.406	31.2
539.604	31.32
539.801	31.24
539.999	31.16
540.196	31.17
540.394	31.08
540.591	31.14
540.789	31.22
540.986	31.16
541.184	31.19
541.381	31.2
541.579	31.06
541.776	31.08
541.974	31.09
542.171	31.23
542.368	31.3
542.566	31.35
542.763	31.4
542.96	31.36
543.158	31.45
543.355	31.58
543.552	31.66
543.75	31.86
543.947	32.07
544.144	32.31
544.341	32.48
544.539	32.57
544.736	32.72
544.933	32.85
545.13	33.11
545.327	33.36
545.524	33.46
545.722	33.66
545.919	33.86
546.116	33.84
546.313	33.89
546.51	33.79
546.707	33.94
546.904	34.01
547.101	34.08
547.298	34.08
547.495	34.14
547.692	34.32
547.889	34.4
548.086	34.41
548.283	34.59
548.48	34.8
548.677	35.05
548.874	35.3
549.07	35.58
549.267	35.79
549.464	35.98
549.661	36.07
549.858	36.29
550.055	36.55
550.251	36.77
550.448	36.84
550.645	36.98
550.842	37.16
551.038	37.2
551.235	37.29
551.432	37.29
551.628	37.43
551.825	37.39
552.022	37.36
552.218	37.36
552.415	37.51
552.612	37.59
552.808	37.57
553.005	37.66
553.201	37.65
553.398	37.73
553.594	37.87
553.791	38.07
553.987	38.26
554.184	38.49
554.38	38.56
554.577	38.51
554.773	38.78
554.97	39
555.166	39.34
555.362	39.49
555.559	39.66
555.755	39.87
555.952	39.85
556.148	39.8
556.344	39.72
556.541	39.81
556.737	40.01
556.933	40.07
557.129	39.99
557.326	39.87
557.522	39.99
557.718	40.02
557.914	40.17
558.11	40.17
558.307	40.36
558.503	40.35
558.699	40.53
558.895	40.65
559.091	40.61
559.287	40.8
559.483	40.83
559.679	40.95
559.876	40.94
560.072	40.77
560.268	41.02
560.464	41.23
560.66	41.39
560.856	41.31
561.052	41.31
561.247	41.31
561.443	41.34
561.639	41.4
561.835	41.18
562.031	41.5
562.227	41.45
562.423	41.35
562.619	41.45
562.815	41.41
563.01	41.57
563.206	41.77
563.402	41.9
563.598	42.03
563.793	42.13
563.989	42.4
564.185	42.26
564.381	42.43
564.576	42.4
564.772	42.32
564.968	42.42
565.163	42.47
565.359	42.16
565.555	42.25
565.75	42.25
565.946	42.31
566.141	42.21
566.337	42.34
566.532	42.36
566.728	42.5
566.923	42.62
567.119	42.59
567.314	42.52
567.51	42.82
567.705	42.88
567.901	43.04
568.096	43.22
568.292	43.22
568.487	43.28
568.682	43.55
568.878	43.55
569.073	43.63
569.268	43.81
569.464	43.93
569.659	44.07
569.854	44.11
570.05	44.14
570.245	43.99
570.44	44.17
570.635	44.12
570.831	43.96
571.026	43.95
571.221	43.81
571.416	43.74
571.611	43.65
571.806	43.51
572.002	43.46
572.197	43.46
572.392	43.31
572.587	43.22
572.782	43.24
572.977	43.31
573.172	43.45
573.367	43.54
573.562	43.7
573.757	43.91
573.952	43.98
574.147	44.04
574.342	43.99
574.537	44.21
574.732	44.49
574.927	44.41
575.121	44.44
575.316	44.53
575.511	44.58
575.706	44.68
575.901	44.63
576.096	44.86
576.29	44.93
576.485	45.05
576.68	45.23
576.875	45.24
577.069	45.49
577.264	45.73
577.459	45.93
577.654	45.96
577.848	45.85
578.043	46.08
578.238	46.13
578.432	46.31
578.627	46.44
578.821	46.54
579.016	46.65
579.21	46.89
579.405	46.81
579.6	46.61
579.794	46.89
579.989	47.26
580.183	47.34
580.378	47.32
580.572	47.46
580.766	47.78
580.961	47.61
581.155	47.7
581.35	47.75
581.544	48
581.738	48.25
581.933	48.17
582.127	48.13
582.321	48.07
582.516	48.44
582.71	48.43
582.904	48.44
583.099	48.7
583.293	48.96
583.487	48.93
583.681	49.02
583.875	48.95
584.07	48.94
584.264	48.78
584.458	49.09
584.652	48.98
584.846	48.95
585.04	48.8
585.234	48.83
585.428	48.56
585.623	48.46
585.817	48.32
586.011	48.34
586.205	48.5
586.399	48.7
586.593	48.54
586.787	48.27
586.981	48.19
587.174	48.14
587.368	48.06
587.562	48.18
587.756	48.17
587.95	48.24
588.144	48.24
588.338	48.14
588.532	47.93
588.725	48.35
588.919	48.37
589.113	48.46
589.307	48.28
589.501	48.27
589.694	48.06
589.888	48.12
590.082	47.95
590.275	47.83
590.469	48.05
590.663	48.13
590.856	47.85
591.05	47.91
591.244	48.05
591.437	48.58
591.631	48.71
591.824	48.66
592.018	48.85
592.212	49.21
592.405	49.46
592.599	49.35
592.792	49.49
592.986	49.49
593.179	49.46
593.372	49.52
593.566	49.24
593.759	49.17
593.953	49.32
594.146	49.04
594.339	48.97
594.533	48.85
594.726	48.79
594.92	48.67
595.113	48.57
595.306	48.42
595.499	48.23
595.693	48.16
595.886	48.12
596.079	48.26
596.272	48.49
596.466	48.29
596.659	48.29
596.852	48.13
597.045	48.35
597.238	48.19
597.431	48.36
597.624	48.24
597.818	48.41
598.011	48.5
598.204	48.56
598.397	48.66
598.59	48.87
598.783	49.2
598.976	49.32
599.169	49.29
599.362	49.58
599.555	49.75
599.748	50.32
599.941	50.36
600.134	50.54
600.326	50.66
600.519	50.88
600.712	51.21
600.905	50.97
601.098	51.47
601.291	51.44
601.483	51.43
601.676	51.41
601.869	51.3
602.062	51.37
602.255	51.36
602.447	51.02
602.64	50.72
602.833	50.37
603.025	50.21
603.218	50.12
603.411	50
603.603	49.97
603.796	50.05
603.989	49.83
604.181	49.49
604.374	49.34
604.566	49.42
604.759	49.31
604.951	49.42
605.144	49.56
605.336	49.67
605.529	49.91
605.721	50.04
605.914	49.95
606.106	49.99
606.299	50.48
606.491	50.4
606.683	50.54
606.876	50.86
607.068	50.95
607.26	50.88
607.453	50.85
607.645	50.77
607.837	50.58
608.03	50.53
608.222	50.62
608.414	50.36
608.606	50.68
608.799	50.73
608.991	50.34
609.183	50.16
609.375	50.29
609.567	50.21
609.759	50.18
609.952	50.36
610.144	50.54
610.336	50.71
610.528	50.85
610.72	50.87
610.912	50.92
611.104	51.32
611.296	51.62
611.488	51.86
611.68	52.01
611.872	52.37
612.064	52.48
612.256	52.62
612.448	52.82
612.64	53.13
612.832	53.23
613.023	53.44
613.215	53.26
613.407	53.2
613.599	53.36
613.791	53.36
613.983	53.29
614.174	53.36
614.366	53.32
614.558	53.08
614.75	52.93
614.941	53.1
615.133	53.29
615.325	53.63
615.516	53.56
615.708	53.38
615.9	53.27
616.091	53.16
616.283	53
616.475	53.04
616.666	53.42
616.858	53.5
617.049	53.28
617.241	53.1
617.432	52.84
617.624	52.95
617.815	52.73
618.007	52.98
618.198	52.76
618.39	53.15
618.581	53.21
618.773	52.89
618.964	52.87
619.155	52.98
619.347	52.92
619.538	52.96
619.729	52.87
619.921	52.94
620.112	53.02
620.303	53.23
620.494	52.91
620.686	52.89
620.877	52.95
621.068	53.13
621.259	53.23
621.451	53.35
621.642	53.61
621.833	53.87
622.024	53.95
622.215	53.83
622.406	53.86
622.597	54.21
622.788	54.2
622.98	54.14
623.171	53.66
623.362	53.67
623.553	53.72
623.744	53.58
623.935	53.33
624.126	53.31
624.317	53.41
624.508	53.34
624.698	53.26
624.889	53.39
625.08	53.27
625.271	53.56
625.462	53.37
625.653	53.16
625.844	52.88
626.034	53.01
626.225	52.97
626.416	52.83
626.607	52.91
626.798	52.93
626.988	52.75
627.179	53.03
627.37	52.93
627.56	52.96
627.751	52.76
627.942	52.97
628.132	52.72
628.323	52.74
628.514	52.86
628.704	52.77
628.895	52.48
629.085	52.5
629.276	52.51
629.466	52.68
629.657	52.77
629.847	53.34
630.038	53.33
630.228	53.57
630.419	53.61
630.609	53.75
630.8	53.98
630.99	54.06
631.181	54.37
631.371	54.46
631.561	54.47
631.752	54.48
631.942	54.4
632.132	54.62
632.323	54.88
632.513	55.07
632.703	54.71
632.893	54.58
633.084	54.81
633.274	54.84
633.464	54.53
633.654	54.58
633.844	54.44
634.034	54.45
634.225	54.19
634.415	54.11
634.605	54.2
634.795	54.34
634.985	54.62
635.175	54.59
635.365	54.15
635.555	54.34
635.745	54.16
635.935	54.3
636.125	54.09
636.315	54.38
636.505	54.27
636.695	53.97
636.885	53.97
637.075	54.01
637.265	54.07
637.455	54.19
637.644	54.24
637.834	54.25
638.024	54.14
638.214	54.31
638.404	54.25
638.593	54.47
638.783	54.95
638.973	55.05
639.163	54.78
639.352	54.73
639.542	55.13
639.732	55.1
639.921	55.27
640.111	55.65
640.301	55.4
640.49	55.71
640.68	55.68
640.87	55.33
641.059	55.43
641.249	55.77
641.438	55.79
641.628	55.63
641.817	55.83
642.007	56.09
642.196	56.11
642.386	56.24
642.575	56.18
642.764	56.33
642.954	56.26
643.143	56.47
643.333	56.35
643.522	56.23
643.711	56.21
643.901	56.21
644.09	56
644.279	56.03
644.469	56.34
644.658	56.13
644.847	56.05
645.036	56.33
645.226	56.39
645.415	56.61
645.604	56.77
645.793	56.9
645.982	56.86
646.171	56.69
646.361	56.24
646.55	56.15
646.739	56.47
646.928	56.29
647.117	56.57
647.306	56.39
647.495	56.06
647.684	55.84
647.873	55.48
648.062	55.52
648.251	55.79
648.44	56.27
648.629	55.85
648.818	55.52
649.007	55.57
649.196	55.39
649.384	55.38
649.573	55.37
649.762	55.51
649.951	55.48
650.14	55.43
650.328	55.24
650.517	54.87
650.706	55.33
650.895	55.28
651.083	55.13
651.272	54.84
651.461	54.35
651.65	54.17
651.838	54.54
652.027	54.65
652.216	54.8
652.404	54.84
652.593	54.97
652.781	54.79
652.97	55.15
653.158	55.12
653.347	55.2
653.535	55.71
653.724	55.75
653.912	55.66
654.101	55.97
654.289	55.65
654.478	55.65
654.666	55.88
654.855	55.57
655.043	55.25
655.231	55.59
655.42	55.35
655.608	54.87
655.796	55.41
655.985	55.25
656.173	55.31
656.361	55.48
656.55	55.36
656.738	54.88
656.926	55.35
657.114	55.41
657.302	55.36
657.491	55.27
657.679	55.38
657.867	55.28
658.055	54.96
658.243	54.51
658.431	54.75
658.619	55.05
658.807	55.18
658.996	55.08
659.184	54.93
659.372	54.63
659.56	54.92
659.748	55.21
659.936	55.2
660.124	55.15
660.311	55.31
660.499	55.14
660.687	54.95
660.875	55.12
661.063	55.13
661.251	55.48
661.439	55.82
661.627	55.85
661.814	55.85
662.002	55.81
662.19	56.29
662.378	56.67
662.565	56.92
662.753	57.1
662.941	56.91
663.129	56.94
663.316	56.95
663.504	57.05
663.692	57.21
663.879	57.07
664.067	57.16
664.254	57.28
664.442	57.24
664.63	57.17
664.817	57.08
665.005	57.42
665.192	57.36
665.38	57.47
665.567	57.1
665.755	57.75
665.942	58.48
666.13	58.21
666.317	57.87
666.504	57.87
666.692	58.09
666.879	58.1
667.067	58.09
667.254	58.42
667.441	58.26
667.629	58.99
667.816	58.53
668.003	57.87
668.19	58.04
668.378	58.14
668.565	57.91
668.752	57.77
668.939	57.77
669.127	57.15
669.314	57.04
669.501	57.05
669.688	56.76
669.875	56.4
670.062	56.58
670.249	56.82
670.436	56.66
670.623	56.71
670.81	56.76
670.997	56.51
671.184	57.13
671.371	57.26
671.558	57.04
671.745	56.86
671.932	57.03
672.119	57.04
672.306	56.96
672.493	57.6
672.68	57.8
672.867	57.64
673.054	58.05
673.24	57.99
673.427	57.76
673.614	57.91
673.801	58.03
673.988	57.73
674.174	57.65
674.361	57.27
674.548	56.45
674.734	56.37
674.921	56.48
675.108	56.2
675.294	56.38
675.481	56.32
675.668	56.7
675.854	56.81
676.041	57.17
676.227	57.26
676.414	57.51
676.601	57.86
676.787	57.88
676.974	57.87
677.16	58.14
677.347	58.11
677.533	58.41
677.719	58.08
677.906	57.45
678.092	57.52
678.279	57.59
678.465	57.45
678.651	57.33
678.838	57.14
679.024	56.86
679.21	56.46
679.397	56.07
679.583	55.77
679.769	55.97
679.955	56.48
680.142	56.16
680.328	55.8
680.514	55.87
680.7	55.95
680.886	55.71
681.073	55.71
681.259	56.01
681.445	55.85
681.631	55.77
681.817	55.28
682.003	55.33
682.189	55.38
682.375	55.73
682.561	55.68
682.747	55.91
682.933	56.58
683.119	56.73
683.305	57.02
683.491	57.5
683.677	57.73
683.863	58.1
684.049	58.04
684.235	58.01
684.42	58.04
684.606	57.71
684.792	57.56
684.978	56.98
685.164	57.02
685.349	57.03
685.535	56.98
685.721	56.97
685.907	57.19
686.092	56.95
686.278	57.21
686.464	56.94
686.649	57.38
686.835	57.49
687.021	57.69
687.206	57.35
687.392	57.01
687.577	57
687.763	57.11
687.948	56.66
688.134	56.39
688.319	56.38
688.505	56.62
688.69	56.42
688.876	56.44
689.061	56.28
689.247	56.61
689.432	56.3
689.618	55.91
689.803	55.52
689.988	55.5
690.174	56.23
690.359	55.97
690.544	55.83
690.73	56.17
690.915	55.92
691.1	56.41
691.285	56.32
691.471	56.72
691.656	57.03
691.841	57.54
692.026	57.55
692.211	57.29
692.396	57.96
692.582	57.95
692.767	57.63
692.952	57.77
693.137	57.46
693.322	57.38
693.507	57.07
693.692	57.6
693.877	57.73
694.062	58.14
694.247	58.37
694.432	58.13
694.617	58.18
694.802	58.66
694.987	58.89
695.172	59.26
695.357	58.89
695.541	59.57
695.726	59.77
695.911	59.41
696.096	59.14
696.281	58.66
696.466	58.47
696.65	58.47
696.835	58.33
697.02	57.94
697.204	57.7
697.389	57.94
697.574	57.53
697.759	56.74
697.943	56.64
698.128	56.56
698.312	56.44
698.497	55.87
698.682	55.51
698.866	55.04
699.051	54.83
699.235	54.8
699.42	54.62
699.604	54.42
699.789	54.41
699.973	54.4
700.158	54.72
700.342	55.13
700.527	55.84
700.711	56.44
700.895	56.96
701.08	57.18
701.264	57.66
701.448	58.12
701.633	58.23
701.817	59.13
702.001	59.56
702.186	59.69
702.37	59.74
702.554	59.59
702.738	58.96
702.923	59.16
703.107	59.79
703.291	59.35
703.475	59.32
703.659	59.46
703.843	58.99
704.027	58.75
704.212	57.49
704.396	57.19
704.58	57.58
704.764	58.15
704.948	58.04
705.132	57.57
705.316	57.26
705.5	56.76
705.684	56.71
705.868	57.27
706.052	57.3
706.235	58.92
706.419	58.84
706.603	59
706.787	58.88
706.971	58.91
707.155	58.83
707.339	59.16
707.522	59.54
707.706	59.76
707.89	59.3
708.074	59.58
708.257	58.86
708.441	58.9
708.625	58.24
708.808	57.72
708.992	58.02
709.176	58.64
709.359	58.55
709.543	59.13
709.727	59.57
709.91	59.52
710.094	59.36
710.277	59.79
710.461	59.97
710.644	60.52
710.828	61.17
711.011	61.23
711.195	60.35
711.378	60.32
711.562	60.14
711.745	59.58
711.928	59.45
712.112	59.69
712.295	59.37
712.478	59.64
712.662	59.98
712.845	60.09
713.028	59.86
713.212	60.5
713.395	60.59
713.578	59.99
713.761	59.82
713.945	59.75
714.128	59.2
714.311	58.94
714.494	58.61
714.677	57.44
714.86	57.09
715.043	56.73
715.227	56.84
715.41	57.01
715.593	57.61
715.776	57.65
715.959	57.5
716.142	57.48
716.325	57.35
716.508	57.4
716.691	57.69
716.874	57.92
717.057	58.11
717.239	57.79
717.422	58.18
717.605	57.75
717.788	58.14
717.971	58.46
718.154	57.64
718.337	57.96
718.519	57.54
718.702	57.33
718.885	57.09
719.068	57.4
719.25	57.14
719.433	56
719.616	56.23
719.798	56.23
719.981	56.49
720.164	58.09
720.346	58.3
720.529	58.65
720.712	59.13
720.894	60.24
721.077	60.71
721.259	60.96
721.442	62.03
721.624	62.19
721.807	61.87
721.989	61.16
722.172	61.51
722.354	61.14
722.537	61.81
722.719	62.02
722.901	61.51
723.084	60.86
723.266	61.29
723.448	60.21
723.631	59.98
723.813	60.55
723.995	61.3
724.178	60.8
724.36	61.73
724.542	60.82
724.724	61.21
724.907	60.41
725.089	60.16
725.271	60.34
725.453	60.33
725.635	60.35
725.817	60.32
725.999	60.51
726.181	60.06
726.364	59.64
726.546	60.1
726.728	59.71
726.91	59.7
727.092	59.57
727.274	58.73
727.456	59.57
727.638	58.87
727.819	58.36
728.001	57.88
728.183	57.91
728.365	57.68
728.547	57.96
728.729	58.69
728.911	58.77
729.093	58.67
729.274	58.55
729.456	58.11
729.638	59.21
729.82	59.64
730.001	59.71
730.183	59.73
730.365	59.8
730.546	59.73
730.728	58.92
730.91	58.68
731.091	59.44
731.273	59.99
731.455	60.52
731.636	60.6
731.818	61.01
731.999	61.03
732.181	61.54
732.362	61.85
732.544	61.97
732.725	62.28
732.907	62.39
733.088	62.1
733.27	62.43
733.451	61.82
733.633	61.56
733.814	61.13
733.995	61.77
734.177	61.71
734.358	61.74
734.539	61.55
734.721	61.42
734.902	61.65
735.083	62.61
735.264	61.9
735.446	62.71
735.627	62.39
735.808	61.56
735.989	60.89
736.17	60.6
736.351	60.14
736.533	60.32
736.714	60.32
736.895	60.44
737.076	59.39
737.257	60.66
737.438	60.44
737.619	60.54
737.8	60.4
737.981	60.06
738.162	60.07
738.343	60.3
738.524	60.29
738.705	60.59
738.886	61.31
739.067	61.28
739.247	60.34
739.428	60.27
739.609	60.02
739.79	60.81
739.971	61.26
740.151	61.69
740.332	61.31
740.513	61.35
740.694	61.08
740.874	61.21
741.055	62.13
741.236	62.49
741.417	62.31
741.597	62.67
741.778	63.64
741.958	62.93
742.139	62.66
742.32	62.65
742.5	63.08
742.681	62.29
742.861	61.86
743.042	60.87
743.222	61.53
743.403	61.26
743.583	61.55
743.764	60.39
743.944	61.64
744.124	61.94
744.305	62.13
744.485	62.25
744.666	63.34
744.846	63.1
745.026	64.76
745.207	64.74
745.387	66
745.567	66.76
745.747	66.72
745.928	66.2
746.108	65.78
746.288	66.93
746.468	66.47
746.648	66.23
746.829	66.96
747.009	66.46
747.189	66.07
747.369	66.07
747.549	65.32
747.729	66.26
747.909	66.88
748.089	67.18
748.269	65.87
748.449	65.4
748.629	65.61
748.809	64.41
748.989	64.54
749.169	63.72
749.349	63.25
749.529	63.14
749.709	62.63
749.889	62.52
750.068	62.22
750.248	63.2
750.428	62.77
750.608	62.44
750.788	63.83
750.967	63.11
751.147	63.51
751.327	62.85
751.507	62.61
751.686	63.13
751.866	63.58
752.046	64.18
752.225	64.74
752.405	64.52
752.585	64.96
752.764	64.13
752.944	63.67
753.123	63.51
753.303	64.04
753.482	64.7
753.662	63.96
753.841	63.75
754.021	64.23
754.2	63.08
754.38	63.8
754.559	64.43
754.739	64.06
754.918	64.2
755.097	64.73
755.277	65.05
755.456	64.56
755.635	65.57
755.815	65.27
755.994	65.57
756.173	65.5
756.352	66.47
756.532	64.95
756.711	65.03
756.89	65.7
757.069	66.03
757.248	65.26
757.427	65.9
757.607	64.76
757.786	64.87
757.965	62.84
758.144	63.76
758.323	63.02
758.502	63.03
758.681	61.84
758.86	61.1
759.039	59.82
759.218	60.12
759.397	59.38
759.576	58.92
759.755	58.29
759.934	58.25
760.113	57.76
760.291	56.98
760.47	57.21
760.649	58.36
760.828	59.31
761.007	59.08
761.186	59.21
761.364	59.31
761.543	60.03
761.722	59.99
761.901	59.52
762.079	58.23
762.258	58.88
762.437	59.41
762.615	58.74
762.794	57.4
762.972	57.13
763.151	56.5
763.33	56.27
763.508	56.12
763.687	56.36
763.865	56.45
764.044	56.94
764.222	56.69
764.401	56.37
764.579	56.72
764.758	57.15
764.936	57.52
765.114	57.84
765.293	58.05
765.471	59.03
765.65	58.5
765.828	59.37
766.006	59.74
766.184	59.93
766.363	60.09
766.541	60.75
766.719	61.19
766.898	62.25
767.076	62.36
767.254	63.14
767.432	62.36
767.61	62.64
767.788	63.69
767.967	64.17
768.145	64.52
768.323	65.29
768.501	66.05
768.679	66.25
768.857	66.01
769.035	67.67
769.213	67.29
769.391	67.62
769.569	70.03
769.747	69.6
769.925	70.56
770.103	70.73
770.281	69.53
770.459	68.38
770.636	68.35
770.814	68.38
770.992	66.18
771.17	67.74
771.348	69.38
771.525	67.9
771.703	67.56
771.881	68.13
772.059	69.71
772.236	69.47
772.414	70.44
772.592	70.75
772.769	71.78
772.947	73.72
773.125	72.76
773.302	70.77
773.48	70.18
773.657	70.18
773.835	69.35
774.013	67.9
774.19	70.17
774.368	70.36
774.545	70.17
774.723	69.61
774.9	68.24
775.077	68.19
775.255	67.32
775.432	68.34
775.61	68.26
775.787	67.92
775.964	67.58
776.142	66.27
776.319	65.96
776.496	66.88
776.674	67.23
776.851	67.12
777.028	66.07
777.205	68.26
777.382	71.32
777.56	71.65
777.737	70.86
777.914	71.12
778.091	71.87
778.268	70
778.445	69.31
778.622	67.55
778.8	69.61
778.977	71.52
779.154	73.27
779.331	69.19
779.508	69.27
779.685	69.69
779.862	69.8
780.038	70.93
780.215	72.9
780.392	73.96
780.569	74.93
780.746	74.11
780.923	73.39
781.1	71.14
781.277	71.72
781.453	70.95
781.63	69.64
781.807	71.05
781.984	69.38
782.16	68.16
782.337	67.65
782.514	69.19
782.691	70.63
782.867	70.6
783.044	68.63
783.221	68.14
783.397	68.96
783.574	69.38
783.75	69.58
783.927	69.41
784.103	69.58
784.28	68.62
784.456	67.59
784.633	66.05
784.809	64.98
784.986	66.76
785.162	66.82
785.339	67.37
785.515	67.97
785.692	67.5
785.868	67.78
786.044	70.08
786.221	70.66
786.397	69.7
786.573	68.69
786.749	69.8
786.926	69.34
787.102	68.3
787.278	67.12
787.454	67.03
787.631	65.12
787.807	66.22
787.983	65.13
788.159	64.77
788.335	65.57
788.511	67.6
788.687	68.68
788.863	69.18
789.039	69.42
789.216	70.09
789.392	70.15
789.568	70.56
789.744	69.81
789.919	70.02
790.095	69.11
790.271	70.15
790.447	68.87
790.623	68.51
790.799	69.8
790.975	70.77
791.151	69.28
791.327	70.76
791.502	71.23
791.678	70.52
791.854	69.21
792.03	68.98
792.205	68.22
792.381	69.35
792.557	67.82
792.733	66.09
792.908	67.1
793.084	68.95
793.259	66.68
793.435	68.01
793.611	69.41
793.786	70.4
793.962	72.8
794.137	71.61
794.313	70.71
794.488	73.55
794.664	72.92
794.839	73.26
795.015	73.01
795.19	74.69
795.366	74.76
795.541	73.42
795.716	71.22
795.892	70.76
796.067	69.37
796.242	70.42
796.418	68.11
796.593	69.3
796.768	67.14
796.944	65.71
797.119	65.49
797.294	63.1
797.469	63.22
797.644	65.91
797.82	65.65
797.995	67.28
798.17	67.86
798.345	68.5
798.52	67.78
798.695	69.42
798.87	70.76
799.045	69.97
799.22	72.57
799.395	72.89
799.57	70.43
799.745	71.57
799.92	74.2
800.095	73.26
800.27	74.49
800.445	74.16
800.62	74.31
800.795	74.06
800.97	74.9
801.145	73.53
801.319	73.03
801.494	74.06
801.669	72.35
801.844	69.82
802.018	68.25
802.193	66.67
802.368	65.71
802.543	65.72
802.717	66.13
802.892	65.69
803.067	65.75
803.241	67.57
803.416	66.54
803.59	67.56
803.765	70.44
803.94	68.05
804.114	65.67
804.289	66.25
804.463	67.83
804.638	67.53
804.812	70.42
804.986	70.76
805.161	70.29
805.335	71.02
805.51	69.21
805.684	67.94
805.858	70.88
806.033	72.82
806.207	75.28
806.381	72.88
806.556	73.26
806.73	71.6
806.904	70.48
807.078	69.1
807.253	68.27
807.427	67.92
807.601	67.75
807.775	68.11
807.949	67.36
808.123	66.35
808.298	65.41
808.472	66.18
808.646	68.41
808.82	69.35
808.994	69.03
809.168	71.1
809.342	71.82
809.516	72
809.69	72.34
809.864	71.58
810.038	69.96
810.212	69.54
810.385	66.93
810.559	62.51
810.733	60.69
810.907	61.21
811.081	60.22
811.255	61.82
811.428	60.23
811.602	61.6
811.776	63.78
811.95	65.49
812.123	70.89
812.297	72.64
812.471	72.72
812.644	75.16
812.818	74.17
812.992	74.27
813.165	73.9
813.339	73.03
813.512	71.21
813.686	69.24
813.86	68.33
814.033	64.98
814.207	64.46
814.38	63.42
814.554	60.74
814.727	61.67
814.9	59.75
815.074	56.61
815.247	56.81
815.421	54.59
815.594	55.83
815.767	55.91
815.941	54.3
816.114	53.97
816.287	55.86
816.46	57.41
816.634	58.16
816.807	61.36
816.98	64.58
817.153	63.45
817.327	62.49
817.5	60.2
817.673	61.41
817.846	64.12
818.019	64.24
818.192	66.31
818.365	67.74
818.538	67.49
818.711	67.38
818.884	67.75
819.057	67.82
819.23	67.95
819.403	69.39
819.576	67.92
819.749	67.77
819.922	67.45
820.095	63.45
820.268	62.76
820.441	61.08
820.614	59.42
820.786	59.54
820.959	59.59
821.132	59.69
821.305	59.68
821.477	58.84
821.65	57.4
821.823	55.89
821.996	56.15
822.168	55.62
822.341	54.68
822.514	54.57
822.686	54.03
822.859	53.7
823.031	53.5
823.204	52.9
823.376	53.02
823.549	53.22
823.722	53.13
823.894	52.95
824.067	52.47
824.239	52.87
824.411	53.52
824.584	53.52
824.756	53.43
824.929	53.03
825.101	53.01
825.273	52.33
825.446	52.28
825.618	52.64
825.79	52.73
825.963	53.04
826.135	53.66
826.307	52.84
826.479	52.05
826.652	52
826.824	53.61
826.996	54.07
827.168	54.55
827.34	54.45
827.512	54.63
827.684	55.1
827.856	55.64
828.029	55.06
828.201	54.58
828.373	54.56
828.545	55.6
828.717	54.15
828.889	55.41
829.061	55.59
829.232	56
829.404	56.04
829.576	56.92
829.748	56.87
829.92	56.67
830.092	58.07
830.264	58.95
830.436	59.34
830.607	61.35
830.779	59.13
830.951	59.39
831.123	60.7
831.294	62.07
831.466	61.53
831.638	62.44
831.809	64.23
831.981	63.93
832.153	65.21
832.324	63.64
832.496	61.72
832.667	63.59
832.839	63.19
833.011	61.86
833.182	62.14
833.354	60.41
833.525	58.67
833.697	58.88
833.868	57.01
834.039	54.99
834.211	56.4
834.382	56.89
834.554	54.85
834.725	56.47
834.896	55.57
835.068	55.26
835.239	55.46
835.41	57.17
835.581	56.29
835.753	57.45
835.924	58.29
836.095	57.64
836.266	58.04
836.438	60.21
836.609	58.39
836.78	57.6
836.951	56.8
837.122	56.67
837.293	56.5
837.464	58.21
837.635	59.56
837.806	60.48
837.977	60.85
838.148	60.06
838.319	59.21
838.49	61.09
838.661	64.15
838.832	65.77
839.003	69.86
839.174	71.03
839.345	71.16
839.516	71.85
839.687	72.75
839.857	73.23
840.028	75.64
840.199	75.12
840.37	78.5
840.54	77.87
840.711	77.42
840.882	76.1
841.053	74.28
841.223	72.84
841.394	69.47
841.564	74.86
841.735	72
841.906	71.15
842.076	71.53
842.247	69.72
842.417	68.98
842.588	68.9
842.758	69.63
842.929	72.14
843.099	71.94
843.27	74.96
843.44	70.57
843.611	74.19
843.781	77.98
843.951	81.9
844.122	83.13
844.292	82.01
844.462	85.22
844.633	82.81
844.803	80.95
844.973	84.86
845.144	86.56
845.314	84.96
845.484	83.26
845.654	79.4
845.824	80.52
845.995	76.64
846.165	86.93
846.335	87.51
846.505	88.68
846.675	94.78
846.845	101.87
847.015	104.92
847.185	112.12
847.355	114.87
847.525	113.54
847.695	112.11
847.865	122.17
848.035	113.96
848.205	123.17
848.375	117.18
848.545	108.18
848.715	97.23
848.884	90.29
849.054	89.68
849.224	96.92
849.394	101.24
849.564	106.18
849.733	101.92
849.903	104.52
850.073	96.98
850.243	108.94
850.412	105.74
850.582	102.66
850.752	119.96
850.921	115.61
851.091	111.25
851.26	101.3
851.43	96.63
851.599	96.22
851.769	100.48
851.939	92.01
852.108	91.04
852.278	95.5
852.447	105.91
852.616	95.8
852.786	94.44
852.955	89
853.125	93.05
853.294	89.42
853.463	86.05
853.633	81.16
853.802	84.05
853.971	82.87
854.141	93.46
854.31	92.57
854.479	103.27
854.648	119.47
854.818	129.24
854.987	124.62
855.156	131.56
855.325	136.45
855.494	142.14
855.663	142.49
855.832	131.91
856.001	129.62
856.171	125.97
856.34	122.15
856.509	114.37
856.678	104.44
856.847	98.79
857.016	101.21
857.185	96.56
857.353	89.38
857.522	87.24
857.691	90.75
857.86	87.35
858.029	87.77
858.198	85.12
858.367	87.85
858.535	87.69
858.704	93.26
858.873	93.16
859.042	88.23
859.21	95.28
859.379	97.81
859.548	100.01
859.717	95.13
859.885	85.86
860.054	74.51
860.222	67.2
860.391	73.24
860.56	73.74
860.728	69.11
860.897	71.44
861.065	67.42
861.234	64.3
861.402	63.83
861.571	65.77
861.739	76.7
861.908	84.44
862.076	93.02
862.244	88.5
862.413	83.24
862.581	87.64
862.749	98.09
862.918	95.2
863.086	114.73
863.254	105.54
863.423	101.78
863.591	96.44
863.759	96.19
863.927	89.92
864.096	95.93
864.264	120.06
864.432	124.3
864.6	119.41
864.768	132.67
864.936	124.03
865.104	119.98
865.272	131.62
865.44	119.15
865.608	123.26
865.776	120.55
865.944	125.79
866.112	113.1
866.28	101.66
866.448	88.47
866.616	77.61
866.784	80.36
866.952	78.43
867.12	74.85
867.288	80.16
867.455	91.4
867.623	86.22
867.791	76.45
867.959	78.95
868.127	78.65
868.294	88.75
868.462	86.24
868.63	82.12
868.797	79.07
868.965	81.93
869.133	72.91
869.3	66.93
869.468	68.12
869.636	76.05
869.803	68.06
869.971	71.67
870.138	63.26
870.306	68.75
870.473	71.03
870.641	75.2
870.808	75.63
870.975	87.57
871.143	80.98
871.31	73.93
871.478	67.21
871.645	70.88
871.812	63.54
871.98	73.69
872.147	69.42
872.314	70.54
872.482	76.83
872.649	74.42
872.816	72.97
872.983	74.29
873.15	92.91
873.318	95.1
873.485	101.27
873.652	109.8
873.819	107
873.986	110.21
874.153	96.24
874.32	100.99
874.487	107.89
874.654	99.92
874.821	96.94
874.988	83.29
875.155	85.51
875.322	81.62
875.489	90.31
875.656	96.81
875.823	104.78
875.99	118.22
876.157	113.29
876.324	96.01
876.49	101.9
876.657	104.46
876.824	116.59
876.991	124.23
877.157	127.04
877.324	118.18
877.491	109.63
877.658	94.02
877.824	89.55
877.991	79.29
878.157	86.06
878.324	79.13
878.491	74.85
878.657	72.78
878.824	69.56
878.99	64.41
879.157	54.59
879.323	59.58
879.49	66.28
879.656	76.08
879.823	77.43
879.989	72.21
880.156	76.2
880.322	75.72
880.488	74.07
880.655	72.87
880.821	77.34
880.987	75.03
881.154	74.62
881.32	67.78
881.486	58.2
881.652	60.94
881.819	61.93
881.985	63.5
882.151	67.22
882.317	67.98
882.483	66.98
882.649	65.16
882.816	66.4
882.982	63.51
883.148	62.83
883.314	63.02
883.48	62.37
883.646	61.49
883.812	60.05
883.978	58.83
884.144	56.82
884.31	55.77
884.476	55.05
884.642	53.65
884.807	54.69
884.973	53.44
885.139	53.84
885.305	53.27
885.471	55.67
885.637	53.84
885.802	52.02
885.968	52.74
886.134	52.96
886.3	53.16
886.465	55.39
886.631	53.87
886.797	56.8
886.962	57.48
887.128	55.66
887.293	54.88
887.459	58.27
887.625	62.07
887.79	66.03
887.956	66.49
888.121	67.99
888.287	67.66
888.452	68.79
888.618	69.39
888.783	67.83
