Data from LC_277_Reflection_2.txt Node
Date: Sat Nov 21 12:32:00 EST 2015
User: robert
Spectrometer: USB4E03001
Autoset integration time: false
Trigger mode: 4
Integration Time (sec): 1.000000E-1
Scans to average: 15
Electric dark correction enabled: true
Nonlinearity correction enabled: false
Boxcar width: 5
Stray light correction enabled: false
XAxis mode: Wavelengths
Stop averaging: false
Number of Pixels in Spectrum: 3648
>>>>>Begin Spectral Data<<<<<
177.566	94.07
177.785	72.03
178.005	268.94
178.225	-16.06
178.445	110.22
178.665	-334.12
178.885	567.53
179.105	173.48
179.324	90.96
179.544	171.1
179.764	897.21
179.984	112.42
180.204	122.5
180.423	106
180.643	109.86
180.863	202.95
181.083	240.92
181.302	241.09
181.522	219.38
181.742	256.04
181.961	222.31
182.181	195.24
182.401	397.89
182.621	346.19
182.84	373.83
183.06	327.5
183.279	235.78
183.499	212.82
183.719	202.04
183.938	210.97
184.158	232.71
184.377	241.95
184.597	256.38
184.816	224.32
185.036	239.84
185.256	237.58
185.475	209.22
185.695	229.34
185.914	224.01
186.134	242.75
186.353	253.99
186.572	232.07
186.792	205.97
187.011	198.02
187.231	218.68
187.45	214.25
187.67	242.05
187.889	270.93
188.108	364.25
188.328	449.7
188.547	456.79
188.766	502.84
188.986	560.48
189.205	1045.64
189.424	1946.49
189.644	1239.87
189.863	-832.7
190.082	-1554.26
190.302	3147.17
190.521	482.6
190.74	473.15
190.959	516.8
191.178	469.28
191.398	293.69
191.617	314.8
191.836	312.32
192.055	330.9
192.274	222.83
192.494	216.94
192.713	203.95
192.932	214.45
193.151	177.52
193.37	155.11
193.589	145.12
193.808	196.63
194.027	190.37
194.246	191.04
194.465	169.5
194.685	183.52
194.904	185.66
195.123	197.32
195.342	223.45
195.561	272.52
195.78	256.89
195.999	309.89
196.218	273.18
196.436	342.55
196.655	405.48
196.874	379.39
197.093	408.61
197.312	450.64
197.531	422.34
197.75	316.54
197.969	270.16
198.188	316.31
198.407	319.26
198.625	314.82
198.844	268.19
199.063	238.07
199.282	253.13
199.501	271.73
199.719	289.41
199.938	302.64
200.157	280.87
200.376	300.99
200.594	307.7
200.813	274.15
201.032	279.53
201.251	267.81
201.469	333.03
201.688	480.55
201.907	450.37
202.125	320.41
202.344	324.38
202.563	454.96
202.781	504.2
203	529.17
203.218	500.75
203.437	937.51
203.656	1608.99
203.874	1580.81
204.093	667.83
204.311	576.09
204.53	843.32
204.748	806.57
204.967	767.77
205.185	505.79
205.404	479.67
205.622	1127.92
205.841	765.12
206.059	605.1
206.278	566.34
206.496	636.62
206.715	1233.12
206.933	784.2
207.151	597.96
207.37	390.21
207.588	637.4
207.806	586.15
208.025	350.69
208.243	297.67
208.461	301.44
208.68	308.99
208.898	362.04
209.116	262.66
209.335	294.56
209.553	349.36
209.771	481.8
209.989	423.05
210.208	490.12
210.426	651.36
210.644	772.19
210.862	1182.16
211.081	1064.23
211.299	561.27
211.517	600.51
211.735	507.58
211.953	397.92
212.171	316.08
212.39	333.92
212.608	265.38
212.826	258.6
213.044	233.52
213.262	211.52
213.48	193.37
213.698	212.95
213.916	268.69
214.134	235.21
214.352	245.18
214.57	221.93
214.788	207.17
215.006	238.14
215.224	219.33
215.442	235.98
215.66	261.28
215.878	277.1
216.096	309.92
216.314	260.95
216.532	296.68
216.75	291.26
216.968	327.04
217.185	274.22
217.403	291.81
217.621	312.93
217.839	275.16
218.057	282.79
218.275	282.39
218.492	241.26
218.71	234.15
218.928	232.85
219.146	234.69
219.363	233.52
219.581	431.48
219.799	329.36
220.017	221.35
220.234	237.68
220.452	236.36
220.67	196.86
220.887	235.19
221.105	237.34
221.323	252.13
221.54	246.07
221.758	203.86
221.976	166.68
222.193	183.86
222.411	191.93
222.629	164.71
222.846	163.33
223.064	164.53
223.281	141.79
223.499	153.35
223.716	145.14
223.934	137.69
224.151	159.48
224.369	154.45
224.586	140.4
224.804	134.95
225.021	159.95
225.239	152.35
225.456	150.38
225.674	137.97
225.891	114.96
226.108	104.12
226.326	101.03
226.543	87.21
226.76	90.14
226.978	83.2
227.195	79.61
227.413	64.53
227.63	60.84
227.847	58.64
228.064	59.02
228.282	55.22
228.499	54.25
228.716	51.15
228.934	51.23
229.151	48.1
229.368	46.14
229.585	46.32
229.802	47.41
230.02	45.42
230.237	45.45
230.454	45.54
230.671	47.66
230.888	49.32
231.105	50.71
231.323	52.54
231.54	58.69
231.757	60.73
231.974	62.9
232.191	62.84
232.408	65.37
232.625	66.95
232.842	64.56
233.059	64.05
233.276	67.55
233.493	69.75
233.71	66.59
233.927	58.02
234.144	59.44
234.361	57.48
234.578	61.67
234.795	61.71
235.012	59.29
235.229	57.52
235.446	56.89
235.663	51.94
235.879	49.53
236.096	49.21
236.313	55.59
236.53	55.38
236.747	57.82
236.964	54.73
237.181	57.86
237.397	57.48
237.614	59.47
237.831	60.42
238.048	57.44
238.264	54.5
238.481	51.99
238.698	51.93
238.915	51.68
239.131	45.44
239.348	44.95
239.565	42.92
239.781	41.15
239.998	43.25
240.215	42.61
240.431	43.51
240.648	40.49
240.865	40.49
241.081	35.12
241.298	33.23
241.514	33.21
241.731	32.37
241.947	31
242.164	32.04
242.38	29.4
242.597	29.29
242.814	28.88
243.03	30.4
243.246	31.1
243.463	31.93
243.679	32.08
243.896	32.29
244.112	34.87
244.329	36.01
244.545	35.05
244.762	39.32
244.978	38.94
245.194	38.98
245.411	37.95
245.627	34.99
245.843	32.48
246.06	30.77
246.276	28.07
246.492	25.47
246.709	23.17
246.925	22.92
247.141	21.45
247.357	20.17
247.574	19.42
247.79	18.35
248.006	18.25
248.222	18.25
248.439	18.45
248.655	19.12
248.871	19.42
249.087	20.6
249.303	20.11
249.519	20.02
249.736	21.2
249.952	22.66
250.168	25.71
250.384	27.49
250.6	28.14
250.816	28.56
251.032	31.26
251.248	30.67
251.464	30.25
251.68	32.17
251.896	32.5
252.112	32.07
252.328	31.13
252.544	30.87
252.76	31.86
252.976	32.72
253.192	32.51
253.408	31.22
253.624	34.28
253.84	35.56
254.056	34.9
254.272	32.98
254.487	35.03
254.703	35.88
254.919	34.22
255.135	30.61
255.351	32.06
255.567	32.87
255.782	31.51
255.998	29.1
256.214	26.63
256.43	27.2
256.646	30.88
256.861	27.95
257.077	28.69
257.293	29.56
257.508	30.74
257.724	29.11
257.94	27.25
258.155	26.43
258.371	24.89
258.587	22.8
258.802	22.1
259.018	19.89
259.234	19.66
259.449	18.27
259.665	17.63
259.88	17.07
260.096	16.66
260.312	16.98
260.527	17.23
260.743	17.01
260.958	17.74
261.174	16.63
261.389	17.49
261.605	17.76
261.82	18.41
262.036	19.22
262.251	19.15
262.466	20.14
262.682	19.2
262.897	19.07
263.113	19.83
263.328	21.43
263.543	23.92
263.759	24.74
263.974	26.02
264.189	28.21
264.405	28.51
264.62	31.34
264.835	31.95
265.051	34.28
265.266	34.09
265.481	33.84
265.696	33.66
265.912	32.04
266.127	30.03
266.342	28.95
266.557	26.81
266.773	25.11
266.988	22.88
267.203	20.99
267.418	20.36
267.633	21.63
267.848	20.2
268.064	18.72
268.279	19.14
268.494	19.36
268.709	19.68
268.924	19.6
269.139	19.65
269.354	19.67
269.569	19.6
269.784	19.53
269.999	16.73
270.214	18.16
270.429	18.26
270.644	16.93
270.859	17.57
271.074	16.21
271.289	16.22
271.504	17.17
271.719	17.89
271.934	19.34
272.149	18.78
272.363	18.87
272.578	17.71
272.793	17.22
273.008	19.25
273.223	18.26
273.438	19.28
273.653	20.56
273.867	21.05
274.082	20.68
274.297	18.82
274.512	19.83
274.726	22.3
274.941	23.44
275.156	25.31
275.371	24.19
275.585	25.35
275.8	23.66
276.015	22.03
276.229	20.69
276.444	21.65
276.659	22.54
276.873	21.63
277.088	20.9
277.302	20.87
277.517	20.63
277.732	20.85
277.946	20.16
278.161	21.75
278.375	21.6
278.59	22.17
278.804	21.22
279.019	21.24
279.233	22.13
279.448	20.27
279.662	19.53
279.877	17.43
280.091	17.88
280.306	17.35
280.52	17.39
280.735	18.28
280.949	17.77
281.163	17.84
281.378	17.97
281.592	17.12
281.806	18.24
282.021	19.25
282.235	19.47
282.449	19.65
282.664	19.38
282.878	19.52
283.092	19.71
283.307	19.89
283.521	19.11
283.735	19.89
283.949	19.95
284.164	18.59
284.378	18.25
284.592	17.65
284.806	16.54
285.02	16.79
285.234	15.92
285.449	15.14
285.663	14.81
285.877	14.67
286.091	14.2
286.305	13.97
286.519	14.71
286.733	14.91
286.947	15.6
287.161	16.04
287.375	16.72
287.589	17.2
287.803	17.85
288.017	18.32
288.231	19.08
288.445	19.44
288.659	19.97
288.873	19.55
289.087	19.26
289.301	19.67
289.515	19.56
289.729	18.95
289.943	18.94
290.157	18.35
290.371	18.11
290.584	18.31
290.798	18.21
291.012	17.99
291.226	18.62
291.44	19.1
291.654	18.64
291.867	18.36
292.081	19.01
292.295	19.64
292.509	21.35
292.722	21.62
292.936	21.42
293.15	20.71
293.364	20.31
293.577	20.2
293.791	19.74
294.005	20.95
294.218	20.92
294.432	20.37
294.645	20.1
294.859	18.68
295.073	17.6
295.286	17.6
295.5	18.48
295.713	19.15
295.927	18.29
296.14	18.1
296.354	17.14
296.568	17.76
296.781	18.05
296.994	17.85
297.208	17.58
297.421	18.78
297.635	18.58
297.848	17.2
298.062	17.25
298.275	18.3
298.489	18.44
298.702	18.54
298.915	18.11
299.129	17.68
299.342	17.73
299.555	18.47
299.769	18.43
299.982	18.73
300.195	20.48
300.409	20.88
300.622	21.01
300.835	21.3
301.048	23.63
301.262	24.11
301.475	24.98
301.688	25.01
301.901	25.11
302.115	24.42
302.328	25.66
302.541	25.01
302.754	24.03
302.967	23.17
303.18	23.27
303.393	21.96
303.607	21.33
303.82	20.79
304.033	20.3
304.246	20.41
304.459	21.85
304.672	21.81
304.885	22.63
305.098	23.32
305.311	23.21
305.524	22.99
305.737	22.14
305.95	23.17
306.163	22.72
306.376	21.98
306.589	21.18
306.802	20.12
307.015	19.06
307.228	18.74
307.44	18.81
307.653	20.5
307.866	20.2
308.079	20.47
308.292	19
308.505	20.04
308.718	21.63
308.93	22.1
309.143	20.75
309.356	20.55
309.569	19.88
309.781	20.02
309.994	19.65
310.207	19.76
310.42	19.4
310.632	19.33
310.845	18.21
311.058	17.9
311.27	17.77
311.483	19.01
311.696	18.62
311.908	18.84
312.121	18.01
312.333	18.28
312.546	18.78
312.759	18.75
312.971	20.16
313.184	22.01
313.396	22.31
313.609	22.39
313.821	21
314.034	22.41
314.246	22.78
314.459	23.99
314.671	23.27
314.884	22.77
315.096	22.83
315.309	21.2
315.521	19.59
315.733	19.07
315.946	18.91
316.158	19.56
316.371	19.91
316.583	20.32
316.795	20.34
317.008	20.81
317.22	19.99
317.432	20.91
317.644	21.31
317.857	21.83
318.069	22.11
318.281	22.39
318.494	23.5
318.706	23.08
318.918	23.09
319.13	22.36
319.342	21.15
319.555	21.55
319.767	21.55
319.979	21.74
320.191	22.33
320.403	23.2
320.615	23.13
320.827	23.02
321.039	22.55
321.252	21.72
321.464	22.56
321.676	23.26
321.888	23.98
322.1	23.31
322.312	23.72
322.524	23.11
322.736	23.1
322.948	23.93
323.16	24.56
323.372	24.38
323.584	25.33
323.796	26.54
324.007	26.29
324.219	25.95
324.431	26.99
324.643	28.08
324.855	28.07
325.067	28.24
325.279	28.01
325.491	27.44
325.702	28.19
325.914	28.81
326.126	27.32
326.338	27.29
326.55	28.17
326.761	27.52
326.973	26.97
327.185	27.97
327.396	28.21
327.608	28.26
327.82	28.86
328.032	28.64
328.243	27.73
328.455	29.65
328.666	32.06
328.878	32.91
329.09	33.26
329.301	34.51
329.513	34.07
329.725	34.91
329.936	36.15
330.148	36.54
330.359	37.86
330.571	37.89
330.782	37.37
330.994	36.15
331.205	36.27
331.417	38.56
331.628	38.65
331.84	40.13
332.051	41.77
332.262	41.88
332.474	42.3
332.685	42.34
332.897	43.53
333.108	43.47
333.319	44.41
333.531	44.03
333.742	43.64
333.953	43.22
334.165	42.38
334.376	40.42
334.587	41.17
334.799	41.08
335.01	41.99
335.221	42.27
335.432	43.02
335.644	42.59
335.855	43.5
336.066	44.1
336.277	44.99
336.488	45.11
336.7	44.3
336.911	44.08
337.122	44.84
337.333	44.74
337.544	44.82
337.755	44.64
337.966	44.69
338.177	44.43
338.388	43.58
338.599	43.27
338.811	43.63
339.022	44.89
339.233	44.47
339.444	43.46
339.655	43.14
339.866	43.1
340.076	43.11
340.287	42.99
340.498	42.93
340.709	43.08
340.92	43.01
341.131	43.27
341.342	42.96
341.553	44.03
341.764	44.51
341.975	44.21
342.185	43.38
342.396	43.31
342.607	43.82
342.818	44.1
343.029	43.6
343.239	43.89
343.45	42.57
343.661	43.1
343.872	41.35
344.082	41.89
344.293	41.82
344.504	42.74
344.714	42.98
344.925	42.64
345.136	42.28
345.346	42.98
345.557	42.64
345.768	43.78
345.978	43.31
346.189	44.27
346.399	43.52
346.61	43.47
346.821	43.69
347.031	43.19
347.242	43.05
347.452	43.61
347.663	43.38
347.873	43.44
348.084	43.34
348.294	43.48
348.504	43.17
348.715	43.62
348.925	43.19
349.136	42.44
349.346	42.84
349.557	42.87
349.767	42.42
349.977	42.21
350.188	42.07
350.398	41.92
350.608	41.89
350.819	42.22
351.029	41.44
351.239	42
351.449	42
351.66	41.83
351.87	42.48
352.08	42.81
352.29	42.55
352.501	41.64
352.711	41.97
352.921	42.01
353.131	41.53
353.341	41.48
353.552	40.88
353.762	40.83
353.972	40.47
354.182	40.29
354.392	40.26
354.602	40.76
354.812	41.55
355.022	41.32
355.232	41.19
355.442	41.39
355.652	41.99
355.862	41.94
356.072	41.97
356.282	42.08
356.492	41.28
356.702	40.54
356.912	40.03
357.122	40.09
357.332	39.69
357.542	39.12
357.752	39.13
357.962	38.79
358.171	39.1
358.381	39.47
358.591	39.51
358.801	40.25
359.011	40.45
359.221	40.16
359.43	40.52
359.64	40.54
359.85	40.74
360.06	40.33
360.269	40.52
360.479	40.12
360.689	39.01
360.899	38.88
361.108	38.5
361.318	38.52
361.528	38.52
361.737	37.96
361.947	38.25
362.156	38.64
362.366	38.64
362.576	38.06
362.785	37.89
362.995	38.82
363.204	38.79
363.414	38.38
363.623	38.89
363.833	38.99
364.042	39.53
364.252	38.86
364.461	38.19
364.671	37.72
364.88	38.06
365.09	38.13
365.299	37.89
365.509	37.89
365.718	38.11
365.927	37.75
366.137	37.62
366.346	37
366.555	37.18
366.765	37.47
366.974	37.67
367.183	37.46
367.393	37.94
367.602	37.66
367.811	37.5
368.021	37.81
368.23	37.34
368.439	36.73
368.648	36.98
368.857	36.8
369.067	36.23
369.276	36.41
369.485	36.59
369.694	35.95
369.903	35.56
370.112	35.52
370.321	35.25
370.531	34.37
370.74	34.57
370.949	34.19
371.158	34.33
371.367	34.72
371.576	34.61
371.785	34.49
371.994	34.56
372.203	34.48
372.412	34.28
372.621	33.99
372.83	34.04
373.039	34.56
373.248	34.27
373.457	34.12
373.666	33.78
373.874	33.04
374.083	32.87
374.292	32.92
374.501	32.73
374.71	32.27
374.919	31.89
375.128	32.78
375.336	32.35
375.545	32.78
375.754	32.17
375.963	31.56
376.171	31.51
376.38	31.19
376.589	30.68
376.798	30.34
377.006	30.52
377.215	30.63
377.424	29.93
377.632	30.01
377.841	29.13
378.05	29.63
378.258	29.87
378.467	29.82
378.675	30.15
378.884	30.49
379.093	30.5
379.301	30.53
379.51	30.56
379.718	30.56
379.927	30.18
380.135	30.18
380.344	29.7
380.552	29.37
380.761	29.48
380.969	29.07
381.177	28.66
381.386	28.82
381.594	28.38
381.803	27.93
382.011	28.16
382.219	27.98
382.428	28.32
382.636	27.61
382.845	28.15
383.053	28.21
383.261	28.19
383.469	28.03
383.678	27.74
383.886	27.99
384.094	28.1
384.302	27.43
384.511	27.36
384.719	26.97
384.927	27.61
385.135	27.43
385.343	26.99
385.552	26.8
385.76	26.93
385.968	27
386.176	26.75
386.384	26.55
386.592	26.51
386.8	26.27
387.008	26.27
387.216	26.24
387.424	26.18
387.633	26.26
387.841	26.27
388.049	25.69
388.257	25.59
388.465	25.26
388.672	25.36
388.88	25.35
389.088	25.14
389.296	25.01
389.504	24.66
389.712	24.18
389.92	24.07
390.128	23.71
390.336	24.16
390.544	24.25
390.751	24.4
390.959	24.08
391.167	23.97
391.375	23.97
391.583	23.76
391.79	23.42
391.998	23.5
392.206	23.46
392.414	23.08
392.621	22.87
392.829	22.47
393.037	22.53
393.244	22.77
393.452	22.54
393.66	22.72
393.867	22.76
394.075	23.08
394.283	23.16
394.49	23.04
394.698	23.32
394.905	23.16
395.113	22.96
395.32	22.78
395.528	22.34
395.735	22.39
395.943	22.22
396.15	22.03
396.358	21.48
396.565	21.2
396.773	21.3
396.98	21.37
397.188	21.39
397.395	21.47
397.602	21.54
397.81	21.6
398.017	21.59
398.225	21.42
398.432	21.74
398.639	22.13
398.847	22.26
399.054	22.21
399.261	22.31
399.468	22.35
399.676	22.48
399.883	22.07
400.09	22.19
400.297	22.26
400.505	22.37
400.712	22
400.919	21.8
401.126	21.76
401.333	21.82
401.54	21.48
401.748	21.28
401.955	21.11
402.162	21.42
402.369	21.23
402.576	20.95
402.783	20.9
402.99	20.69
403.197	20.71
403.404	20.72
403.611	20.66
403.818	20.71
404.025	20.49
404.232	20.43
404.439	20.19
404.646	20.04
404.853	20.12
405.06	20.08
405.267	20.49
405.474	20.49
405.681	20.17
405.887	19.75
406.094	19.67
406.301	19.81
406.508	19.87
406.715	19.95
406.922	19.89
407.128	19.92
407.335	19.94
407.542	19.75
407.749	19.75
407.955	19.91
408.162	20.1
408.369	20.04
408.575	20.32
408.782	20.29
408.989	20.29
409.195	20.32
409.402	20.46
409.609	20.24
409.815	19.84
410.022	19.85
410.228	19.89
410.435	19.94
410.642	19.95
410.848	19.73
411.055	19.48
411.261	19.21
411.468	19.19
411.674	18.89
411.881	19.07
412.087	19.29
412.294	19.26
412.5	18.89
412.706	18.6
412.913	18.69
413.119	18.7
413.326	18.91
413.532	19.01
413.738	19.25
413.945	19.4
414.151	19.15
414.357	19.38
414.564	19.73
414.77	20.21
414.976	20.24
415.182	20.16
415.389	20.23
415.595	20.25
415.801	20.12
416.007	19.76
416.214	19.55
416.42	19.42
416.626	19.41
416.832	19.08
417.038	18.76
417.244	18.89
417.45	18.81
417.657	18.58
417.863	18.51
418.069	18.63
418.275	18.72
418.481	18.68
418.687	18.74
418.893	18.5
419.099	18.29
419.305	18.21
419.511	18.25
419.717	18.21
419.923	18.22
420.129	18.26
420.335	18.13
420.541	18.06
420.746	17.93
420.952	17.84
421.158	17.77
421.364	17.87
421.57	17.87
421.776	17.8
421.982	17.69
422.187	17.53
422.393	17.41
422.599	17.39
422.805	17.44
423.01	17.49
423.216	17.58
423.422	17.63
423.628	17.58
423.833	17.49
424.039	17.48
424.245	17.45
424.45	17.54
424.656	17.47
424.862	17.51
425.067	17.5
425.273	17.5
425.478	17.44
425.684	17.43
425.889	17.49
426.095	17.56
426.301	17.45
426.506	17.53
426.712	17.31
426.917	17.3
427.123	17.18
427.328	17.26
427.533	17.31
427.739	17.41
427.944	17.45
428.15	17.48
428.355	17.59
428.561	17.75
428.766	17.55
428.971	17.76
429.177	17.94
429.382	18.12
429.587	17.84
429.793	17.87
429.998	17.92
430.203	17.82
430.408	17.55
430.614	17.45
430.819	17.37
431.024	17.65
431.229	17.69
431.434	17.64
431.64	17.57
431.845	17.68
432.05	17.67
432.255	17.39
432.46	17.4
432.665	17.42
432.87	17.31
433.076	17.29
433.281	17.1
433.486	17.05
433.691	17.08
433.896	17
434.101	16.93
434.306	16.84
434.511	16.85
434.716	16.84
434.921	16.73
435.126	16.89
435.331	16.91
435.535	17.03
435.74	16.93
435.945	16.81
436.15	16.95
436.355	17
436.56	17.06
436.765	17.25
436.97	17.21
437.174	17.4
437.379	17.33
437.584	17.44
437.789	17.43
437.993	17.63
438.198	17.57
438.403	17.52
438.608	17.49
438.812	17.26
439.017	17.27
439.222	17.4
439.426	17.29
439.631	17.28
439.836	17.04
440.04	16.96
440.245	16.93
440.45	16.97
440.654	16.74
440.859	16.66
441.063	16.73
441.268	16.56
441.472	16.47
441.677	16.59
441.881	16.7
442.086	16.74
442.29	16.84
442.495	16.69
442.699	16.67
442.904	16.84
443.108	16.71
443.312	16.79
443.517	16.84
443.721	16.86
443.925	16.59
444.13	16.41
444.334	16.39
444.538	16.34
444.743	16.27
444.947	16.19
445.151	15.97
445.356	16.11
445.56	16.12
445.764	16.13
445.968	15.96
446.173	16.06
446.377	16.01
446.581	16.02
446.785	15.94
446.989	15.95
447.193	15.97
447.398	16.03
447.602	15.93
447.806	15.93
448.01	15.84
448.214	15.93
448.418	15.77
448.622	15.87
448.826	15.79
449.03	15.72
449.234	15.71
449.438	15.63
449.642	15.58
449.846	15.8
450.05	15.75
450.254	15.74
450.458	15.58
450.662	15.94
450.866	15.72
451.069	15.74
451.273	15.86
451.477	15.93
451.681	15.91
451.885	16.05
452.089	15.87
452.292	15.97
452.496	16.09
452.7	16.14
452.904	15.99
453.107	16.08
453.311	16.04
453.515	16
453.719	15.96
453.922	16.13
454.126	16.08
454.33	16.17
454.533	15.88
454.737	15.78
454.94	15.91
455.144	15.89
455.348	15.84
455.551	15.93
455.755	16.03
455.958	16.18
456.162	16.08
456.365	16.12
456.569	16.09
456.772	16.08
456.976	15.97
457.179	15.9
457.383	15.98
457.586	16.04
457.79	16.03
457.993	15.96
458.196	15.96
458.4	15.9
458.603	15.84
458.807	15.76
459.01	15.84
459.213	16.02
459.417	16.07
459.62	15.96
459.823	15.87
460.026	15.84
460.23	15.8
460.433	15.67
460.636	15.65
460.839	15.8
461.042	15.96
461.246	15.91
461.449	15.91
461.652	15.89
461.855	15.92
462.058	16.03
462.261	16.1
462.464	16.24
462.668	16.31
462.871	16.58
463.074	16.41
463.277	16.25
463.48	16.35
463.683	16.35
463.886	16.34
464.089	16.48
464.292	16.52
464.495	16.49
464.698	16.44
464.901	16.65
465.104	16.67
465.306	16.93
465.509	17.13
465.712	17.32
465.915	17.4
466.118	17.42
466.321	17.35
466.524	17.36
466.726	17.38
466.929	17.53
467.132	17.4
467.335	17.32
467.538	17.19
467.74	17.03
467.943	17.07
468.146	17.12
468.348	17.15
468.551	17.27
468.754	17.29
468.956	17.38
469.159	17.17
469.362	17.18
469.564	17.22
469.767	17.48
469.969	17.72
470.172	17.6
470.375	17.48
470.577	17.71
470.78	17.59
470.982	17.51
471.185	17.42
471.387	17.67
471.59	17.73
471.792	17.75
471.995	17.54
472.197	17.51
472.399	17.57
472.602	17.57
472.804	17.28
473.007	17.31
473.209	17.41
473.411	17.35
473.614	17.3
473.816	17.24
474.018	17.16
474.22	17.16
474.423	17.11
474.625	17.02
474.827	17.03
475.03	17.22
475.232	17.4
475.434	17.46
475.636	17.51
475.838	17.57
476.04	17.58
476.243	17.57
476.445	17.58
476.647	17.6
476.849	17.6
477.051	17.58
477.253	17.61
477.455	17.36
477.657	17.2
477.859	17.16
478.061	17.13
478.263	17.15
478.465	17.32
478.667	17.15
478.869	17.07
479.071	17.07
479.273	17.08
479.475	16.89
479.677	17.06
479.879	17.25
480.081	17.32
480.283	17.26
480.485	17.29
480.686	17.13
480.888	17.24
481.09	17.19
481.292	17.18
481.494	17.07
481.695	17.03
481.897	16.91
482.099	16.75
482.301	16.7
482.502	16.62
482.704	16.57
482.906	16.51
483.107	16.47
483.309	16.42
483.511	16.38
483.712	16.31
483.914	16.36
484.115	16.29
484.317	16.31
484.519	16.31
484.72	16.31
484.922	16.32
485.123	16.34
485.325	16.37
485.526	16.38
485.728	16.39
485.929	16.45
486.131	16.39
486.332	16.53
486.534	16.49
486.735	16.49
486.936	16.54
487.138	16.49
487.339	16.51
487.541	16.49
487.742	16.54
487.943	16.58
488.144	16.58
488.346	16.59
488.547	16.56
488.748	16.59
488.95	16.6
489.151	16.57
489.352	16.6
489.553	16.64
489.755	16.65
489.956	16.67
490.157	16.69
490.358	16.8
490.559	16.92
490.76	16.97
490.961	17.11
491.163	17.21
491.364	17.28
491.565	17.34
491.766	17.37
491.967	17.47
492.168	17.49
492.369	17.48
492.57	17.52
492.771	17.59
492.972	17.65
493.173	17.68
493.374	17.72
493.575	17.79
493.776	17.84
493.976	17.93
494.177	18.05
494.378	18.21
494.579	18.56
494.78	18.63
494.981	18.69
495.182	18.76
495.382	18.82
495.583	18.93
495.784	19.01
495.985	19.13
496.185	19.13
496.386	19.21
496.587	19.26
496.788	19.39
496.988	19.56
497.189	19.78
497.39	19.82
497.59	19.97
497.791	20.03
497.992	20.15
498.192	20.37
498.393	20.59
498.593	20.75
498.794	20.91
498.994	20.94
499.195	20.98
499.395	21.09
499.596	21.35
499.796	21.46
499.997	21.66
500.197	21.84
500.398	21.82
500.598	21.88
500.799	21.92
500.999	22.04
501.199	22.04
501.4	22.16
501.6	22.32
501.801	22.55
502.001	22.69
502.201	22.88
502.402	23.05
502.602	23.34
502.802	23.53
503.002	23.75
503.203	23.97
503.403	24.17
503.603	24.45
503.803	24.44
504.003	24.62
504.204	24.7
504.404	24.85
504.604	24.85
504.804	25.08
505.004	25.27
505.204	25.37
505.404	25.4
505.604	25.64
505.804	25.77
506.005	25.96
506.205	26.04
506.405	26.2
506.605	26.23
506.805	26.61
507.005	26.75
507.204	26.87
507.404	27.11
507.604	27.42
507.804	27.51
508.004	27.59
508.204	27.7
508.404	27.65
508.604	27.8
508.804	28.07
509.003	28.07
509.203	28.16
509.403	28.35
509.603	28.53
509.803	28.69
510.002	28.97
510.202	29.17
510.402	29.37
510.602	29.64
510.801	29.84
511.001	29.94
511.201	30.09
511.4	30.12
511.6	30.24
511.8	30.42
511.999	30.58
512.199	30.54
512.398	30.6
512.598	30.84
512.797	30.97
512.997	31.16
513.197	31.28
513.396	31.66
513.596	31.92
513.795	32.1
513.994	32.18
514.194	32.32
514.393	32.67
514.593	32.93
514.792	32.98
514.992	33.19
515.191	33.28
515.39	33.67
515.59	33.76
515.789	33.93
515.988	34.03
516.188	34.17
516.387	34.44
516.586	34.7
516.786	34.98
516.985	35.35
517.184	35.62
517.383	35.95
517.582	35.96
517.782	36.14
517.981	36.41
518.18	36.62
518.379	36.87
518.578	36.92
518.777	36.94
518.976	37.09
519.176	37.17
519.375	37.27
519.574	37.4
519.773	37.52
519.972	37.57
520.171	37.73
520.37	37.95
520.569	38.1
520.768	38.32
520.967	38.47
521.166	38.52
521.365	38.56
521.564	38.68
521.762	38.82
521.961	39.01
522.16	39.04
522.359	39.04
522.558	39.08
522.757	39.14
522.956	39.27
523.154	39.53
523.353	39.77
523.552	40
523.751	40.08
523.949	40.22
524.148	40.35
524.347	40.65
524.546	40.83
524.744	40.9
524.943	41.02
525.142	41.17
525.34	41.13
525.539	41.12
525.737	41.17
525.936	41.36
526.135	41.36
526.333	41.42
526.532	41.44
526.73	41.4
526.929	41.58
527.127	41.61
527.326	41.62
527.524	41.65
527.723	41.82
527.921	41.9
528.12	41.86
528.318	41.91
528.516	41.89
528.715	41.91
528.913	41.96
529.112	41.99
529.31	42.01
529.508	42.02
529.707	42.11
529.905	42.1
530.103	42.1
530.301	42.19
530.5	42.28
530.698	42.4
530.896	42.6
531.094	42.73
531.293	42.74
531.491	42.87
531.689	43
531.887	43.11
532.085	43.15
532.283	43.34
532.481	43.26
532.68	43.37
532.878	43.42
533.076	43.39
533.274	43.39
533.472	43.46
533.67	43.47
533.868	43.43
534.066	43.41
534.264	43.54
534.462	43.47
534.66	43.57
534.858	43.51
535.056	43.56
535.253	43.56
535.451	43.59
535.649	43.68
535.847	43.77
536.045	43.9
536.243	44.02
536.441	43.88
536.638	43.96
536.836	43.98
537.034	43.96
537.232	43.94
537.43	44.04
537.627	44.18
537.825	44.12
538.023	44.14
538.22	44.18
538.418	44.09
538.616	44.3
538.813	44.48
539.011	44.63
539.209	44.68
539.406	44.84
539.604	44.93
539.801	44.97
539.999	45.03
540.196	45.04
540.394	45.07
540.591	45.09
540.789	45.08
540.986	45.02
541.184	45.07
541.381	45.04
541.579	44.98
541.776	44.84
541.974	44.78
542.171	44.84
542.368	44.79
542.566	44.78
542.763	44.86
542.96	44.86
543.158	44.85
543.355	44.85
543.552	44.96
543.75	45.07
543.947	45.32
544.144	45.5
544.341	45.53
544.539	45.6
544.736	45.75
544.933	45.77
545.13	45.91
545.327	46.02
545.524	46.07
545.722	46.01
545.919	46.02
546.116	45.97
546.313	45.88
546.51	45.84
546.707	45.85
546.904	45.79
547.101	45.93
547.298	45.81
547.495	45.62
547.692	45.54
547.889	45.64
548.086	45.72
548.283	45.73
548.48	45.71
548.677	45.61
548.874	45.73
549.07	45.75
549.267	45.59
549.464	45.67
549.661	45.93
549.858	46.04
550.055	46.08
550.251	46.08
550.448	45.95
550.645	46.1
550.842	46.25
551.038	46.18
551.235	46.06
551.432	45.98
551.628	45.84
551.825	45.88
552.022	45.92
552.218	45.97
552.415	45.9
552.612	45.99
552.808	45.94
553.005	45.91
553.201	45.99
553.398	46
553.594	46.16
553.791	46.38
553.987	46.26
554.184	46.19
554.38	46.22
554.577	46.22
554.773	46.22
554.97	46.22
555.166	46.47
555.362	46.49
555.559	46.37
555.755	46.31
555.952	46.3
556.148	46.46
556.344	46.46
556.541	46.28
556.737	46.14
556.933	46.23
557.129	46.3
557.326	46.25
557.522	46.46
557.718	46.81
557.914	46.86
558.11	46.98
558.307	46.89
558.503	46.89
558.699	47.19
558.895	47.12
559.091	47.21
559.287	47.22
559.483	47.07
559.679	46.94
559.876	47.11
560.072	47.24
560.268	47.02
560.464	47.39
560.66	47.56
560.856	47.53
561.052	47.77
561.247	47.67
561.443	47.73
561.639	47.75
561.835	47.68
562.031	47.33
562.227	47.23
562.423	47.28
562.619	46.99
562.815	47.21
563.01	47.03
563.206	47.23
563.402	47.26
563.598	47.06
563.793	47.03
563.989	47
564.185	47.17
564.381	47.11
564.576	47.15
564.772	47.18
564.968	46.91
565.163	46.86
565.359	46.51
565.555	46.42
565.75	46.56
565.946	46.66
566.141	46.73
566.337	46.59
566.532	46.6
566.728	46.41
566.923	46.37
567.119	46.33
567.314	46.34
567.51	46.42
567.705	46.64
567.901	46.55
568.096	46.54
568.292	46.55
568.487	46.6
568.682	46.67
568.878	46.75
569.073	46.76
569.268	46.74
569.464	46.83
569.659	46.92
569.854	46.67
570.05	46.69
570.245	46.73
570.44	46.74
570.635	46.74
570.831	46.7
571.026	46.63
571.221	46.62
571.416	46.68
571.611	46.69
571.806	46.85
572.002	46.87
572.197	46.94
572.392	46.75
572.587	46.62
572.782	46.82
572.977	46.93
573.172	47.1
573.367	47.09
573.562	47.25
573.757	47.2
573.952	47.13
574.147	47.23
574.342	47.25
574.537	47.52
574.732	47.44
574.927	47.47
575.121	47.3
575.316	47.32
575.511	47.44
575.706	47.26
575.901	47.35
576.096	47.4
576.29	47.49
576.485	47.46
576.68	47.3
576.875	47.45
577.069	47.13
577.264	47.33
577.459	47.35
577.654	47.26
577.848	47.35
578.043	47.33
578.238	47.3
578.432	47.04
578.627	47.02
578.821	47.12
579.016	47.2
579.21	47.4
579.405	47.41
579.6	47.4
579.794	47.45
579.989	47.45
580.183	47.56
580.378	47.54
580.572	47.88
580.766	47.87
580.961	47.99
581.155	48.11
581.35	48.39
581.544	48.43
581.738	48.4
581.933	48.44
582.127	48.53
582.321	48.53
582.516	48.73
582.71	48.51
582.904	48.64
583.099	48.73
583.293	48.64
583.487	48.53
583.681	48.51
583.875	48.56
584.07	48.68
584.264	48.68
584.458	48.64
584.652	48.59
584.846	48.7
585.04	48.6
585.234	48.59
585.428	48.57
585.623	48.35
585.817	48.25
586.011	48.21
586.205	48.31
586.399	48.32
586.593	48.42
586.787	48.49
586.981	48.37
587.174	48.54
587.368	48.27
587.562	48.28
587.756	48.41
587.95	48.54
588.144	48.65
588.338	48.5
588.532	48.41
588.725	48.39
588.919	48.21
589.113	48.35
589.307	48.28
589.501	48.34
589.694	48.43
589.888	48.32
590.082	48.52
590.275	48.35
590.469	48.3
590.663	48.44
590.856	48.44
591.05	48.61
591.244	48.76
591.437	48.74
591.631	48.68
591.824	48.56
592.018	48.81
592.212	48.56
592.405	48.49
592.599	48.47
592.792	48.4
592.986	48.39
593.179	48.34
593.372	48.11
593.566	48.33
593.759	48.57
593.953	49.01
594.146	49.01
594.339	49.11
594.533	49.29
594.726	49.36
594.92	49.35
595.113	49.35
595.306	49.31
595.499	49.3
595.693	48.96
595.886	48.93
596.079	48.44
596.272	48.49
596.466	48.36
596.659	48.24
596.852	48.42
597.045	48.46
597.238	48.4
597.431	48.33
597.624	48.34
597.818	48.51
598.011	48.61
598.204	48.66
598.397	48.69
598.59	48.6
598.783	48.64
598.976	48.45
599.169	48.26
599.362	48.32
599.555	48.39
599.748	48.5
599.941	48.84
600.134	48.75
600.326	48.85
600.519	48.93
600.712	48.98
600.905	49.24
601.098	49.38
601.291	49.69
601.483	49.75
601.676	49.57
601.869	49.56
602.062	49.24
602.255	49.41
602.447	49.34
602.64	49.04
602.833	49.12
603.025	49.11
603.218	49.15
603.411	49.03
603.603	48.96
603.796	49.25
603.989	49.29
604.181	49.17
604.374	48.95
604.566	48.92
604.759	48.96
604.951	48.76
605.144	48.48
605.336	48.38
605.529	48.29
605.721	48.29
605.914	48.03
606.106	47.79
606.299	47.88
606.491	47.77
606.683	47.88
606.876	47.81
607.068	48.08
607.26	48.22
607.453	48.15
607.645	48.26
607.837	48.32
608.03	48.14
608.222	48.45
608.414	48.46
608.606	48.48
608.799	48.53
608.991	48.47
609.183	48.41
609.375	48.42
609.567	48.49
609.759	48.47
609.952	48.3
610.144	48.59
610.336	48.49
610.528	48.31
610.72	48.41
610.912	48.55
611.104	48.75
611.296	48.76
611.488	48.9
611.68	48.69
611.872	48.85
612.064	49.22
612.256	49.32
612.448	49.29
612.64	49.59
612.832	49.63
613.023	49.6
613.215	49.43
613.407	49.69
613.599	49.63
613.791	50.01
613.983	49.58
614.174	49.33
614.366	49.33
614.558	49.25
614.75	49.03
614.941	49.17
615.133	48.86
615.325	49.13
615.516	48.72
615.708	48.7
615.9	48.6
616.091	48.8
616.283	48.52
616.475	48.67
616.666	48.77
616.858	49.05
617.049	48.9
617.241	49.17
617.432	49.09
617.624	49.57
617.815	49.5
618.007	49.31
618.198	49.3
618.39	49.69
618.581	49.5
618.773	49.59
618.964	49.47
619.155	49.73
619.347	49.35
619.538	49.17
619.729	48.81
619.921	48.84
620.112	49.12
620.303	49.14
620.494	49.02
620.686	48.95
620.877	48.94
621.068	48.72
621.259	48.43
621.451	48.66
621.642	48.63
621.833	48.88
622.024	49.17
622.215	48.89
622.406	48.8
622.597	48.95
622.788	48.96
622.98	49.15
623.171	49.47
623.362	49.55
623.553	49.59
623.744	49.58
623.935	49.34
624.126	49.3
624.317	49.56
624.508	49.58
624.698	49.37
624.889	49.1
625.08	48.95
625.271	49.05
625.462	49.05
625.653	49.06
625.844	49.04
626.034	48.78
626.225	48.49
626.416	48.33
626.607	48.64
626.798	48.85
626.988	49.24
627.179	49.17
627.37	48.88
627.56	48.94
627.751	49.04
627.942	49.19
628.132	49.56
628.323	49.71
628.514	49.84
628.704	49.62
628.895	49.77
629.085	49.51
629.276	49.52
629.466	49.53
629.657	49.45
629.847	49.27
630.038	49.22
630.228	49.01
630.419	49.07
630.609	48.94
630.8	49.06
630.99	48.79
631.181	48.72
631.371	48.57
631.561	48.98
631.752	49.14
631.942	49.16
632.132	49.16
632.323	49.37
632.513	49.39
632.703	49.37
632.893	49.53
633.084	49.54
633.274	49.69
633.464	49.86
633.654	49.54
633.844	49.38
634.034	49.26
634.225	49.25
634.415	49.18
634.605	49.12
634.795	49.12
634.985	48.89
635.175	48.64
635.365	48.57
635.555	48.66
635.745	48.65
635.935	48.88
636.125	48.74
636.315	48.86
636.505	48.85
636.695	48.8
636.885	48.78
637.075	48.57
637.265	48.68
637.455	48.73
637.644	48.75
637.834	48.67
638.024	48.47
638.214	48.82
638.404	48.62
638.593	48.69
638.783	48.75
638.973	48.94
639.163	49.41
639.352	49.51
639.542	49.57
639.732	49.44
639.921	49.75
640.111	49.87
640.301	49.88
640.49	50.14
640.68	49.99
640.87	50.14
641.059	50.12
641.249	49.97
641.438	50.08
641.628	49.74
641.817	49.84
642.007	49.59
642.196	49.41
642.386	49.41
642.575	49.13
642.764	49.34
642.954	49.11
643.143	49.15
643.333	49.03
643.522	48.69
643.711	48.9
643.901	48.84
644.09	49.38
644.279	49.57
644.469	49.3
644.658	49.54
644.847	49.34
645.036	49.41
645.226	49.39
645.415	49.33
645.604	49.5
645.793	49.56
645.982	49.18
646.171	48.64
646.361	48.23
646.55	48.5
646.739	48.02
646.928	47.95
647.117	48
647.306	48.12
647.495	48.1
647.684	48.24
647.873	48.31
648.062	48.8
648.251	48.81
648.44	49.03
648.629	48.83
648.818	48.99
649.007	49.29
649.196	49.59
649.384	49.21
649.573	49.67
649.762	49.57
649.951	49.59
650.14	49.16
650.328	49.26
650.517	49.2
650.706	49.58
650.895	49.58
651.083	49.5
651.272	49.1
651.461	49.34
651.65	49.13
651.838	48.94
652.027	48.46
652.216	48.39
652.404	48.37
652.593	48.84
652.781	48.75
652.97	49.16
653.158	48.91
653.347	48.69
653.535	48.65
653.724	48.44
653.912	48.73
654.101	49.29
654.289	49.68
654.478	49.51
654.666	48.91
654.855	48.73
655.043	48.52
655.231	48.92
655.42	49.31
655.608	49.37
655.796	49.58
655.985	49.33
656.173	49.16
656.361	49.16
656.55	49.45
656.738	49.9
656.926	49.91
657.114	50.1
657.302	49.8
657.491	49.88
657.679	49.75
657.867	50.08
658.055	50.19
658.243	50.09
658.431	49.87
658.619	49.8
658.807	49.39
658.996	49.29
659.184	49.07
659.372	49.14
659.56	48.85
659.748	48.97
659.936	48.63
660.124	48.78
660.311	48.86
660.499	48.93
660.687	48.66
660.875	48.88
661.063	48.9
661.251	48.85
661.439	49.21
661.627	49.55
661.814	49.42
662.002	49.47
662.19	49.14
662.378	49.38
662.565	49.31
662.753	49.39
662.941	49.53
663.129	49.5
663.316	49.18
663.504	48.77
663.692	48.67
663.879	48.6
664.067	48.28
664.254	48.34
664.442	47.95
664.63	48.33
664.817	48.63
665.005	48.42
665.192	48.7
665.38	49.07
665.567	48.62
665.755	48.39
665.942	48.5
666.13	48.72
666.317	48.94
666.504	49.21
666.692	49.19
666.879	49.03
667.067	48.79
667.254	48.57
667.441	48.83
667.629	49.03
667.816	49.04
668.003	49.07
668.19	48.82
668.378	48.72
668.565	48.19
668.752	48.15
668.939	48.08
669.127	48.52
669.314	48.24
669.501	48.4
669.688	48.94
669.875	48.75
670.062	48.67
670.249	48.52
670.436	48.63
670.623	48.87
670.81	48.45
670.997	48.25
671.184	47.62
671.371	47.98
671.558	47.22
671.745	46.51
671.932	46.51
672.119	46.58
672.306	47.2
672.493	46.99
672.68	47.15
672.867	47.51
673.054	47.66
673.24	47.88
673.427	47.45
673.614	47.93
673.801	48.67
673.988	48.92
674.174	49.14
674.361	48.78
674.548	48.61
674.734	48.67
674.921	48.39
675.108	48.3
675.294	48.67
675.481	48.76
675.668	48.7
675.854	48.46
676.041	48.27
676.227	47.62
676.414	47.81
676.601	48.32
676.787	48.42
676.974	48.52
677.16	48.98
677.347	48.89
677.533	48.96
677.719	48.96
677.906	48.64
678.092	48.42
678.279	48.97
678.465	48.64
678.651	48.22
678.838	47.82
679.024	47.53
679.21	47.17
679.397	47.03
679.583	46.98
679.769	46.72
679.955	46.6
680.142	46.64
680.328	46.43
680.514	46.75
680.7	46.42
680.886	46.5
681.073	46.68
681.259	46.48
681.445	45.99
681.631	46.05
681.817	46.17
682.003	46.39
682.189	46.21
682.375	46.1
682.561	45.88
682.747	45.94
682.933	45.7
683.119	45.47
683.305	45.47
683.491	45.81
683.677	45.71
683.863	45.53
684.049	45.56
684.235	45.79
684.42	45.5
684.606	45.08
684.792	45.49
684.978	45.67
685.164	45.83
685.349	45.72
685.535	45.72
685.721	45.62
685.907	45.09
686.092	45.12
686.278	45.17
686.464	45.36
686.649	46.02
686.835	45.81
687.021	46.3
687.206	46.61
687.392	46.83
687.577	46.82
687.763	46.5
687.948	47.15
688.134	46.99
688.319	47.21
688.505	47.43
688.69	46.66
688.876	46.63
689.061	46.13
689.247	45.82
689.432	45.38
689.618	45.37
689.803	45.56
689.988	45.7
690.174	45.7
690.359	45.38
690.544	45.25
690.73	45.39
690.915	45.52
691.1	45.58
691.285	45.76
691.471	46.48
691.656	46.21
691.841	46.23
692.026	45.99
692.211	45.72
692.396	45.45
692.582	45.12
692.767	45.73
692.952	45.25
693.137	45.05
693.322	44.84
693.507	44.72
693.692	45.09
693.877	45.17
694.062	45.39
694.247	45.65
694.432	46.19
694.617	46.3
694.802	46.23
694.987	46.81
695.172	46.45
695.357	46.09
695.541	45.69
695.726	45.13
695.911	45.5
696.096	44.83
696.281	44.33
696.466	44.29
696.65	44.09
696.835	43.69
697.02	43.66
697.204	44.65
697.389	44.9
697.574	45
697.759	45.04
697.943	44.69
698.128	44.87
698.312	45.1
698.497	44.91
698.682	44.81
698.866	44.73
699.051	44.71
699.235	44.05
699.42	44.49
699.604	44.51
699.789	44.77
699.973	44.85
700.158	44.75
700.342	45.05
700.527	45.5
700.711	45.63
700.895	46.02
701.08	46.01
701.264	46.19
701.448	45.56
701.633	45.44
701.817	45.74
702.001	45.79
702.186	46.05
702.37	45.27
702.554	44.65
702.738	45.03
702.923	44.73
703.107	44.33
703.291	44.51
703.475	44.79
703.659	44.86
703.843	44.76
704.027	45.26
704.212	45.21
704.396	45.92
704.58	46.17
704.764	45.99
704.948	46.08
705.132	46.06
705.316	46.32
705.5	46.32
705.684	46.73
705.868	46.95
706.052	46.51
706.235	47.2
706.419	46.99
706.603	46.86
706.787	46.81
706.971	46.72
707.155	47.58
707.339	47.62
707.522	47.57
707.706	47.5
707.89	47.55
708.074	47.34
708.257	46.62
708.441	47.13
708.625	46.94
708.808	46.82
708.992	46.78
709.176	45.68
709.359	45.69
709.543	45.62
709.727	45.46
709.91	45.34
710.094	45.47
710.277	45.9
710.461	45.46
710.644	46.46
710.828	46.04
711.011	45.99
711.195	46.45
711.378	46.06
711.562	45.55
711.745	45.7
711.928	45.35
712.112	45.5
712.295	44.88
712.478	44.91
712.662	44.16
712.845	44.64
713.028	44.79
713.212	44.95
713.395	44.84
713.578	45.39
713.761	45.25
713.945	44.77
714.128	45.01
714.311	45.76
714.494	45.28
714.677	44.9
714.86	44.85
715.043	45.02
715.227	44.52
715.41	44.49
715.593	44.42
715.776	44.44
715.959	45.22
716.142	44.96
716.325	44.48
716.508	44.98
716.691	45.22
716.874	45.38
717.057	45.14
717.239	46.04
717.422	46.2
717.605	46.21
717.788	45.94
717.971	46.19
718.154	46.03
718.337	46.7
718.519	46.11
718.702	46.49
718.885	46.72
719.068	46.72
719.25	46.13
719.433	46.14
719.616	45.92
719.798	45.79
719.981	45.29
720.164	44.97
720.346	44.82
720.529	45.21
720.712	45.05
720.894	45.18
721.077	45.45
721.259	45.76
721.442	45.79
721.624	45.69
721.807	46.98
721.989	46.95
722.172	47.17
722.354	46.91
722.537	46.7
722.719	46.66
722.901	45.5
723.084	44.89
723.266	44.24
723.448	44.71
723.631	45.17
723.813	44.28
723.995	44.5
724.178	44.84
724.36	44.39
724.542	45.1
724.724	45.22
724.907	46.09
725.089	46.2
725.271	46.39
725.453	46.05
725.635	45.53
725.817	45.73
725.999	45.35
726.181	45.41
726.364	44.87
726.546	44.83
726.728	44.15
726.91	44.64
727.092	45.15
727.274	45.64
727.456	45.89
727.638	46.39
727.819	46.47
728.001	45.94
728.183	45.58
728.365	46.35
728.547	45.44
728.729	45.8
728.911	46.03
729.093	45.95
729.274	45.27
729.456	44.71
729.638	44.45
729.82	44.26
730.001	44.32
730.183	44.4
730.365	44.81
730.546	45.21
730.728	45.14
730.91	43.99
731.091	44.39
731.273	44.56
731.455	44.74
731.636	44.68
731.818	44.37
731.999	44.45
732.181	44.07
732.362	43.51
732.544	44.26
732.725	44.04
732.907	44.49
733.088	43.99
733.27	43.73
733.451	43.33
733.633	44.15
733.814	43.54
733.995	43.38
734.177	43.63
734.358	42.86
734.539	42.61
734.721	42.94
734.902	42.94
735.083	42.36
735.264	42.79
735.446	43.29
735.627	42.73
735.808	43.89
735.989	44.11
736.17	44.15
736.351	45.3
736.533	44.28
736.714	43.95
736.895	43.49
737.076	42.97
737.257	42.34
737.438	42.54
737.619	42.83
737.8	41.82
737.981	42.3
738.162	42.01
738.343	42.47
738.524	43.17
738.705	43.47
738.886	44
739.067	44.98
739.247	45.38
739.428	44.89
739.609	44.98
739.79	45.11
739.971	45.01
740.151	45.51
740.332	45.19
740.513	45.24
740.694	44.89
740.874	44.72
741.055	44.92
741.236	45.57
741.417	45.43
741.597	44.85
741.778	45.28
741.958	44.84
742.139	45.56
742.32	44.81
742.5	44.66
742.681	44.88
742.861	44.82
743.042	44.4
743.222	43.99
743.403	43.82
743.583	44.69
743.764	43.92
743.944	44.63
744.124	43.3
744.305	43.83
744.485	44.09
744.666	44.35
744.846	44.28
745.026	44.79
745.207	44.41
745.387	44.9
745.567	43.23
745.747	44.31
745.928	44.22
746.108	45.34
746.288	44.21
746.468	43.24
746.648	43.18
746.829	43.08
747.009	42.56
747.189	42.8
747.369	42.26
747.549	42.82
747.729	42.11
747.909	41.66
748.089	41.42
748.269	41.62
748.449	42.39
748.629	41.97
748.809	41.88
748.989	42.91
749.169	42.42
749.349	42.9
749.529	43.08
749.709	43.41
749.889	43.78
750.068	42.41
750.248	43.01
750.428	44.02
750.608	43.3
750.788	44.4
750.967	43.2
751.147	43.53
751.327	43.72
751.507	43.54
751.686	43.48
751.866	43.19
752.046	44.53
752.225	43.68
752.405	43.17
752.585	43.75
752.764	43
752.944	43.47
753.123	43.74
753.303	44.55
753.482	45
753.662	45.58
753.841	45.99
754.021	46.13
754.2	47
754.38	47.52
754.559	48.53
754.739	48.16
754.918	47.98
755.097	47.18
755.277	46.28
755.456	46.12
755.635	45.57
755.815	45.58
755.994	44.4
756.173	44.17
756.352	43.37
756.532	42.22
756.711	42.3
756.89	42.18
757.069	42.93
757.248	42.8
757.427	42.88
757.607	42.58
757.786	41.89
757.965	42.65
758.144	42.3
758.323	41.43
758.502	42.25
758.681	41.98
758.86	41.89
759.039	41.56
759.218	41.2
759.397	39.88
759.576	39.89
759.755	39.69
759.934	40.14
760.113	40.88
760.291	41.57
760.47	41.5
760.649	41.75
760.828	41.58
761.007	42.56
761.186	42.92
761.364	43.7
761.543	43.54
761.722	43.88
761.901	42.8
762.079	42.33
762.258	41.98
762.437	40.92
762.615	40.71
762.794	40.92
762.972	39.57
763.151	39.95
763.33	39.57
763.508	39.52
763.687	39.62
763.865	39.99
764.044	39.17
764.222	38.93
764.401	39.12
764.579	39.11
764.758	38.52
764.936	39.39
765.114	38.96
765.293	39.48
765.471	38.96
765.65	38.97
765.828	38.63
766.006	39.34
766.184	39.63
766.363	39.91
766.541	40.05
766.719	41.13
766.898	41.16
767.076	40.94
767.254	41.37
767.432	42.33
767.61	43.12
767.788	43.2
767.967	43.72
768.145	43.52
768.323	43.56
768.501	43.4
768.679	43.28
768.857	42.96
769.035	44.77
769.213	45.31
769.391	46.53
769.569	45.72
769.747	46.69
769.925	47.27
770.103	48.31
770.281	48.76
770.459	48.64
770.636	47.74
770.814	46.26
770.992	45.09
771.17	44.52
771.348	43.9
771.525	44.07
771.703	43.55
771.881	43.24
772.059	43.34
772.236	43.19
772.414	42.61
772.592	43.79
772.769	46.01
772.947	46.32
773.125	45.77
773.302	45.79
773.48	46.67
773.657	47.38
773.835	47.73
774.013	46.66
774.19	47.37
774.368	49.42
774.545	49.14
774.723	48.7
774.9	48.91
775.077	50.18
775.255	49.86
775.432	49.27
775.61	49.45
775.787	50.19
775.964	50.55
776.142	51.11
776.319	50.91
776.496	51.32
776.674	51.35
776.851	52.01
777.028	51.96
777.205	52.74
777.382	51.92
777.56	51.1
777.737	51.64
777.914	50.8
778.091	50.41
778.268	50.04
778.445	50.4
778.622	50.07
778.8	49.55
778.977	48.12
779.154	56.21
779.331	56.28
779.508	56.17
779.685	55.79
779.862	55.89
780.038	55.13
780.215	56.28
780.392	55.87
780.569	56.46
780.746	56.35
780.923	57.64
781.1	49.41
781.277	50.27
781.453	47.55
781.63	45.63
781.807	46.45
781.984	43.99
782.16	42.13
782.337	42.31
782.514	41.77
782.691	41.66
782.867	42.1
783.044	41.6
783.221	42.04
783.397	45.47
783.574	44.37
783.75	44.83
783.927	47.68
784.103	49.32
784.28	49.55
784.456	49.7
784.633	48.72
784.809	45.8
784.986	45.28
785.162	44.88
785.339	46.34
785.515	49.57
785.692	49.42
785.868	51.41
786.044	49.73
786.221	49.15
786.397	48.8
786.573	49.16
786.749	51.71
786.926	49.74
787.102	50.92
787.278	48.9
787.454	47.43
787.631	48.63
787.807	45.79
787.983	45.34
788.159	44.85
788.335	45.83
788.511	47.19
788.687	46.53
788.863	49.53
789.039	48.14
789.216	48.78
789.392	48.08
789.568	47.82
789.744	49.27
789.919	51.27
790.095	51.73
790.271	49.79
790.447	47.83
790.623	45.2
790.799	44.4
790.975	45.74
791.151	46.03
791.327	46.67
791.502	46.79
791.678	45.94
791.854	46.8
792.03	46.9
792.205	49.16
792.381	50.02
792.557	52.77
792.733	53.01
792.908	52.32
793.084	52
793.259	52.91
793.435	52.41
793.611	54.06
793.786	51.04
793.962	52.2
794.137	50.61
794.313	49.42
794.488	48.43
794.664	49.25
794.839	49.72
795.015	49.94
795.19	49.53
795.366	49.22
795.541	47.4
795.716	47.1
795.892	47.54
796.067	49.27
796.242	51.54
796.418	52.39
796.593	51.19
796.768	49.88
796.944	49.35
797.119	48.77
797.294	49.44
797.469	51.75
797.644	52.73
797.82	51.2
797.995	51.26
798.17	50.63
798.345	51.19
798.52	52.04
798.695	51.97
798.87	51.11
799.045	50.96
799.22	50.21
799.395	47.83
799.57	46.9
799.745	45.73
799.92	46.07
800.095	45.1
800.27	44.86
800.445	43.03
800.62	42.73
800.795	45.35
800.97	46.33
801.145	45.61
801.319	46.39
801.494	46.44
801.669	48.21
801.844	47.93
802.018	50.01
802.193	49.31
802.368	52.2
802.543	54.67
802.717	53.61
802.892	54.09
803.067	56.22
803.241	56.11
803.416	58.53
803.59	58.36
803.765	58.97
803.94	58.62
804.114	59.17
804.289	59.77
804.463	57.43
804.638	55.95
804.812	56.41
804.986	56.82
805.161	57.61
805.335	56.59
805.51	55.91
805.684	53.47
805.858	52.08
806.033	51.1
806.207	47.34
806.381	47.62
806.556	48.54
806.73	47.67
806.904	50.29
807.078	50.35
807.253	49.48
807.427	49.65
807.601	50.44
807.775	52.32
807.949	54.63
808.123	55.99
808.298	57.43
808.472	57.24
808.646	57.73
808.82	54.93
808.994	55.88
809.168	56.13
809.342	56.77
809.516	56.11
809.69	56.14
809.864	58.25
810.038	58.98
810.212	58.18
810.385	58.32
810.559	57.16
810.733	57.02
810.907	55.14
811.081	55.37
811.255	55.05
811.428	57.22
811.602	55.32
811.776	52.39
811.95	54.7
812.123	57.5
812.297	56.93
812.471	57.6
812.644	58.14
812.818	59.56
812.992	57.5
813.165	57.03
813.339	52.21
813.512	55.98
813.686	57.02
813.86	56.48
814.033	55.88
814.207	55.32
814.38	56.86
814.554	53.7
814.727	52.79
814.9	55.42
815.074	57.28
815.247	63.32
815.421	60.47
815.594	58.15
815.767	55.73
815.941	53.51
816.114	53.52
816.287	52.71
816.46	52.59
816.634	53.4
816.807	53.43
816.98	53.19
817.153	51.54
817.327	53.13
817.5	52.8
817.673	53.66
817.846	53.42
818.019	56.85
818.192	55.5
818.365	53.34
818.538	52.66
818.711	53.6
818.884	53.28
819.057	53.8
819.23	52.17
819.403	52.2
819.576	52.01
819.749	52.89
819.922	48.91
820.095	52.41
820.268	54.32
820.441	53.84
820.614	53
820.786	51.91
820.959	49.75
821.132	47.02
821.305	45.41
821.477	43.27
821.65	42.12
821.823	42.1
821.996	39.4
822.168	38.66
822.341	37.49
822.514	36.9
822.686	36.12
822.859	35.91
823.031	35.6
823.204	35.82
823.376	36.37
823.549	35.51
823.722	35.46
823.894	35.89
824.067	36.26
824.239	36.43
824.411	36.69
824.584	36.72
824.756	36.42
824.929	37.05
825.101	37.17
825.273	36.54
825.446	37.41
825.618	36.91
825.79	36.22
825.963	35.98
826.135	36.3
826.307	35.71
826.479	36.62
826.652	37.59
826.824	37.51
826.996	37.87
827.168	38.37
827.34	38.49
827.512	38.48
827.684	39.01
827.856	37.92
828.029	38.32
828.201	38.81
828.373	38.76
828.545	38.19
828.717	39.42
828.889	38.6
829.061	39.18
829.232	39.02
829.404	39.4
829.576	39.79
829.748	40.7
829.92	41.46
830.092	43.67
830.264	44.28
830.436	45.82
830.607	45.06
830.779	46.47
830.951	47.05
831.123	48.01
831.294	49.87
831.466	51.83
831.638	54.05
831.809	52.39
831.981	52.31
832.153	50.98
832.324	51.96
832.496	51.7
832.667	53.7
832.839	52.04
833.011	50.76
833.182	50.68
833.354	49.19
833.525	47.52
833.697	47.5
833.868	45.01
834.039	44.26
834.211	42.27
834.382	41.89
834.554	39.93
834.725	40.15
834.896	41.49
835.068	41.26
835.239	41.27
835.41	42.08
835.581	43.91
835.753	43.28
835.924	45.64
836.095	48.09
836.266	48.29
836.438	48.91
836.609	49.82
836.78	48.76
836.951	47.32
837.122	47.02
837.293	47.64
837.464	47.75
837.635	50.28
837.806	50.69
837.977	49.36
838.148	52.55
838.319	55.84
838.49	57.31
838.661	60.07
838.832	64
839.003	66.41
839.174	67.26
839.345	66.42
839.516	66.8
839.687	65.51
839.857	64.79
840.028	63.55
840.199	63.28
840.37	65.09
840.54	65.83
840.711	67.21
840.882	66.62
841.053	66.33
841.223	64.73
841.394	64.91
841.564	65.84
841.735	67.63
841.906	65.41
842.076	64.11
842.247	61.16
842.417	61.85
842.588	63.85
842.758	66.22
842.929	70.85
843.099	75.13
843.27	75.18
843.44	76.9
843.611	80.18
843.781	84.8
843.951	85.67
844.122	89.99
844.292	92.64
844.462	90.24
844.633	88.46
844.803	83.54
844.973	80.92
845.144	87.21
845.314	87.48
845.484	85.93
845.654	86.54
845.824	87.62
845.995	86.62
846.165	84.36
846.335	87.5
846.505	88.86
846.675	92.88
846.845	91.79
847.015	86
847.185	88.47
847.355	86.03
847.525	84.94
847.695	84.18
847.865	86.31
848.035	87.8
848.205	84.16
848.375	85.41
848.545	77.16
848.715	78.72
848.884	83.64
849.054	81.6
849.224	82.85
849.394	89.26
849.564	86.03
849.733	86.88
849.903	92.99
850.073	93.18
850.243	99.36
850.412	108.4
850.582	118.05
850.752	114.48
850.921	114.06
851.091	108.24
851.26	104.38
851.43	104.82
851.599	104.11
851.769	97.28
851.939	92.8
852.108	90.7
852.278	88.74
852.447	89.73
852.616	89.5
852.786	90.93
852.955	91.56
853.125	88.92
853.294	90.7
853.463	90.73
853.633	98.39
853.802	105.89
853.971	103.34
854.141	109.22
854.31	114.92
854.479	119.1
854.648	116.88
854.818	124.94
854.987	126.73
855.156	120.86
855.325	113.42
855.494	113.69
855.663	115.66
855.832	109.41
856.001	107.88
856.171	106.64
856.34	102.76
856.509	102.63
856.678	102.25
856.847	109.87
857.016	118.3
857.185	120.73
857.353	116.49
857.522	116.66
857.691	120.59
857.86	121.97
858.029	110.38
858.198	106.46
858.367	105.34
858.535	112.13
858.704	107.62
858.873	103.15
859.042	100.18
859.21	100.39
859.379	105.48
859.548	102.29
859.717	104.21
859.885	111.01
860.054	124.87
860.222	124.61
860.391	124.62
860.56	131.6
860.728	130.5
860.897	137.59
861.065	126.03
861.234	122.9
861.402	126.23
861.571	125.99
861.739	123.52
861.908	117.79
862.076	127.68
862.244	116.71
862.413	111.15
862.581	113.37
862.749	116.83
862.918	120.56
863.086	123.72
863.254	127.31
863.423	134.27
863.591	136.8
863.759	140.89
863.927	130.95
864.096	129.95
864.264	133.77
864.432	131.63
864.6	120.55
864.768	129.28
864.936	119.22
865.104	120.36
865.272	117.57
865.44	112.59
865.608	110.78
865.776	111.15
865.944	110.55
866.112	104.46
866.28	100.59
866.448	103.85
866.616	98.63
866.784	105.85
866.952	105.6
867.12	102.68
867.288	106.83
867.455	99.29
867.623	98.14
867.791	97.63
867.959	102.85
868.127	109.48
868.294	108.79
868.462	96.25
868.63	93.72
868.797	89
868.965	83.45
869.133	82.55
869.3	88.5
869.468	90.37
869.636	90.54
869.803	91.31
869.971	89.49
870.138	91.48
870.306	99.68
870.473	99.41
870.641	91.03
870.808	100.85
870.975	104.47
871.143	97
871.31	97.8
871.478	103.02
871.645	108.62
871.812	105.83
871.98	100.54
872.147	99.46
872.314	98.67
872.482	108.8
872.649	104.38
872.816	96.64
872.983	113.08
873.15	111.54
873.318	105.05
873.485	99.54
873.652	105.91
873.819	106.8
873.986	117.39
874.153	117.65
874.32	120.78
874.487	123.85
874.654	130.92
874.821	121.48
874.988	129.67
875.155	144.25
875.322	155.01
875.489	151.04
875.656	159.3
875.823	160.68
875.99	161.51
876.157	145.45
876.324	131.18
876.49	126.89
876.657	131.02
876.824	121.21
876.991	110.11
877.157	109.36
877.324	114.27
877.491	119.81
877.658	115.02
877.824	109.34
877.991	122.62
878.157	121.26
878.324	123.34
878.491	119.12
878.657	121.2
878.824	128.06
878.99	120.23
879.157	123.61
879.323	118.59
879.49	110.98
879.656	108.49
879.823	106.39
879.989	104.46
880.156	101.85
880.322	106.2
880.488	100.58
880.655	93.72
880.821	99.62
880.987	93.15
881.154	88
881.32	88.18
881.486	83.85
881.652	76.6
881.819	75.24
881.985	66.82
882.151	62.76
882.317	60.89
882.483	56.99
882.649	53.22
882.816	49.64
882.982	48.66
883.148	48.31
883.314	47.47
883.48	46.1
883.646	44.78
883.812	45.36
883.978	45.29
884.144	45.88
884.31	45.38
884.476	45.05
884.642	47.01
884.807	47.62
884.973	47.49
885.139	48.45
885.305	50.78
885.471	51.46
885.637	51.64
885.802	52.85
885.968	52.78
886.134	54.6
886.3	55.35
886.465	55.21
886.631	56.46
886.797	58.51
886.962	59.63
887.128	60.63
887.293	63.25
887.459	64.57
887.625	65.71
887.79	70.67
887.956	73.34
888.121	74.7
888.287	75.92
888.452	75.7
888.618	77.22
888.783	79.98
