Data from LC_276_Reflection_1.txt Node
Date: Sat Nov 21 12:26:06 EST 2015
User: robert
Spectrometer: USB4E03001
Autoset integration time: false
Trigger mode: 4
Integration Time (sec): 1.000000E-1
Scans to average: 15
Electric dark correction enabled: true
Nonlinearity correction enabled: false
Boxcar width: 5
Stray light correction enabled: false
XAxis mode: Wavelengths
Stop averaging: false
Number of Pixels in Spectrum: 3648
>>>>>Begin Spectral Data<<<<<
177.566	35.52
177.785	-25.06
178.005	-21.79
178.225	68.23
178.445	317.38
178.665	458.24
178.885	-488.66
179.105	44.44
179.324	83.26
179.544	210.46
179.764	871.98
179.984	131.09
180.204	164.02
180.423	150.04
180.643	142.8
180.863	260.09
181.083	276.08
181.302	289.48
181.522	263.73
181.742	292.48
181.961	231.64
182.181	209.13
182.401	414.88
182.621	358.27
182.84	354.76
183.06	305.07
183.279	215.78
183.499	209.69
183.719	201.22
183.938	194.73
184.158	208.96
184.377	208.01
184.597	212.58
184.816	195.52
185.036	211.22
185.256	216.18
185.475	195.41
185.695	191.73
185.914	182.46
186.134	179.52
186.353	203.83
186.572	213.53
186.792	206
187.011	196.39
187.231	216.01
187.45	209.38
187.67	235.36
187.889	260.87
188.108	379.59
188.328	468.21
188.547	523.79
188.766	541.41
188.986	559.47
189.205	1026.67
189.424	2082.1
189.644	1338.61
189.863	-927.58
190.082	-1771.6
190.302	3156.13
190.521	422.34
190.74	408.35
190.959	481.47
191.178	409.74
191.398	220.97
191.617	232.1
191.836	248.59
192.055	264.34
192.274	165.36
192.494	162.18
192.713	149.91
192.932	159.67
193.151	168.02
193.37	152.58
193.589	157.43
193.808	225.56
194.027	211.61
194.246	193.15
194.465	170.44
194.685	199.13
194.904	195.61
195.123	235.96
195.342	310.31
195.561	343.23
195.78	300.2
195.999	364.93
196.218	339.38
196.436	442.26
196.655	473.78
196.874	428.75
197.093	434.69
197.312	474.57
197.531	385.73
197.75	284.67
197.969	231.05
198.188	261.88
198.407	247.09
198.625	227.27
198.844	202.28
199.063	193.63
199.282	195.91
199.501	212.23
199.719	228.68
199.938	260.01
200.157	264.35
200.376	270.96
200.594	256.23
200.813	232.33
201.032	251.97
201.251	230.59
201.469	283.75
201.688	435.19
201.907	391.67
202.125	258.72
202.344	251.37
202.563	295.59
202.781	357.29
203	392.16
203.218	381.1
203.437	674.58
203.656	1285.2
203.874	1264.85
204.093	546.84
204.311	459.96
204.53	762.6
204.748	671.07
204.967	624.56
205.185	423.38
205.404	418.5
205.622	885.31
205.841	585.47
206.059	412.25
206.278	371.53
206.496	401.54
206.715	802.85
206.933	502.83
207.151	449.08
207.37	339.65
207.588	521.67
207.806	449.01
208.025	289.46
208.243	262.85
208.461	260.85
208.68	278.57
208.898	317.37
209.116	233.08
209.335	239.66
209.553	270.87
209.771	348.26
209.989	312.16
210.208	379.25
210.426	452.47
210.644	458.58
210.862	775.33
211.081	636.25
211.299	344.34
211.517	377.81
211.735	372.35
211.953	320.54
212.171	252.88
212.39	263.36
212.608	220.55
212.826	228.51
213.044	229.02
213.262	195.3
213.48	188
213.698	196.58
213.916	246.2
214.134	208.61
214.352	200.67
214.57	184.61
214.788	181.96
215.006	187.46
215.224	179.08
215.442	177.88
215.66	202.22
215.878	211.82
216.096	238.92
216.314	211.66
216.532	208.88
216.75	205.47
216.968	227.99
217.185	177.74
217.403	219.94
217.621	248.16
217.839	224.95
218.057	230.3
218.275	213.44
218.492	184.5
218.71	182.35
218.928	217.64
219.146	231.62
219.363	225.5
219.581	465.34
219.799	309.85
220.017	205.47
220.234	244.56
220.452	205.95
220.67	188.11
220.887	237.53
221.105	222.16
221.323	247.29
221.54	228.44
221.758	196.99
221.976	151.38
222.193	167.77
222.411	164.35
222.629	110.99
222.846	120.46
223.064	121.5
223.281	112.6
223.499	106.65
223.716	93.72
223.934	114.45
224.151	126.85
224.369	137.83
224.586	128.76
224.804	119
225.021	165.3
225.239	156.56
225.456	150.08
225.674	128.16
225.891	117.1
226.108	111.35
226.326	101.18
226.543	91.01
226.76	86.51
226.978	79.54
227.195	79.52
227.413	67.77
227.63	59.8
227.847	57.37
228.064	52.9
228.282	49.45
228.499	45.76
228.716	42.62
228.934	41.41
229.151	38.67
229.368	33.77
229.585	31.4
229.802	32.17
230.02	32.83
230.237	34.05
230.454	34.51
230.671	33.17
230.888	35.01
231.105	35.05
231.323	38.78
231.54	42.17
231.757	48.49
231.974	56.31
232.191	57.42
232.408	57.72
232.625	56.03
232.842	57.5
233.059	62.24
233.276	64.83
233.493	66.38
233.71	61.53
233.927	55.86
234.144	57.1
234.361	52.01
234.578	49.33
234.795	50.01
235.012	49.76
235.229	45.53
235.446	42.87
235.663	40.21
235.879	37.75
236.096	38.75
236.313	45.02
236.53	45.94
236.747	48.85
236.964	45.33
237.181	44.65
237.397	43.51
237.614	50.95
237.831	48.68
238.048	45.49
238.264	42.67
238.481	37.98
238.698	36.49
238.915	32.42
239.131	25.12
239.348	30.13
239.565	31.66
239.781	31.29
239.998	28.79
240.215	27.97
240.431	24.81
240.648	25.19
240.865	25.58
241.081	20.55
241.298	19.25
241.514	23.59
241.731	23.07
241.947	21.71
242.164	22.29
242.38	20.31
242.597	21.34
242.814	22.65
243.03	22.91
243.246	24.44
243.463	25.69
243.679	28.01
243.896	26.33
244.112	27.89
244.329	29.61
244.545	29.62
244.762	33.25
244.978	33.84
245.194	31.88
245.411	32.24
245.627	29.01
245.843	26.36
246.06	22.68
246.276	21.33
246.492	19.38
246.709	17.09
246.925	16.14
247.141	15.81
247.357	14.98
247.574	15.19
247.79	14.43
248.006	14.18
248.222	13.56
248.439	14.06
248.655	15.06
248.871	15.87
249.087	16.25
249.303	16.94
249.519	17.31
249.736	18.74
249.952	19.98
250.168	22.91
250.384	24.36
250.6	28.45
250.816	29.66
251.032	29.04
251.248	28.34
251.464	29.26
251.68	27.91
251.896	26.71
252.112	25.31
252.328	23.77
252.544	22.73
252.76	21.88
252.976	20.61
253.192	19.41
253.408	19.36
253.624	19.07
253.84	19.76
254.056	19.53
254.272	19.2
254.487	21.19
254.703	22.4
254.919	21.5
255.135	22.93
255.351	24.92
255.567	22.4
255.782	22.86
255.998	22.04
256.214	19.47
256.43	21.16
256.646	22.12
256.861	20.07
257.077	19.84
257.293	21.3
257.508	21.21
257.724	20.86
257.94	24.85
258.155	24.04
258.371	23.29
258.587	21.97
258.802	20.92
259.018	18.31
259.234	17.93
259.449	17
259.665	15.65
259.88	15.62
260.096	15.18
260.312	13.75
260.527	13.08
260.743	12.9
260.958	13.64
261.174	13.28
261.389	14.28
261.605	14.89
261.82	15.41
262.036	15.76
262.251	14.79
262.466	15.36
262.682	16.32
262.897	16.07
263.113	18.25
263.328	19.74
263.543	22.17
263.759	21.92
263.974	22.24
264.189	23.2
264.405	24.78
264.62	26.78
264.835	26.05
265.051	25.9
265.266	28.72
265.481	26.62
265.696	26.09
265.912	23.75
266.127	23.15
266.342	21.75
266.557	20.7
266.773	19.27
266.988	18.85
267.203	17.84
267.418	18.25
267.633	17.14
267.848	17.07
268.064	15.13
268.279	15.34
268.494	16.54
268.709	17.25
268.924	17.06
269.139	17.26
269.354	16.24
269.569	15.66
269.784	15.22
269.999	14.46
270.214	14.67
270.429	15.98
270.644	14.03
270.859	12.97
271.074	11.86
271.289	11.47
271.504	11.76
271.719	10.6
271.934	11.7
272.149	11.01
272.363	11.35
272.578	9.82
272.793	8.7
273.008	10.85
273.223	11.02
273.438	11.65
273.653	13.25
273.867	13.22
274.082	14.85
274.297	14.26
274.512	15.84
274.726	16.33
274.941	17.77
275.156	19.73
275.371	18.97
275.585	20.53
275.8	19.61
276.015	17.86
276.229	17.02
276.444	17.73
276.659	19.14
276.873	18.43
277.088	19.1
277.302	20.01
277.517	18.74
277.732	17.97
277.946	16.76
278.161	17.9
278.375	19.03
278.59	20.9
278.804	18.88
279.019	17.62
279.233	17.27
279.448	15.31
279.662	14.48
279.877	13.68
280.091	14.6
280.306	13.89
280.52	13.59
280.735	13.74
280.949	12.32
281.163	13.38
281.378	13.6
281.592	12.04
281.806	13.66
282.021	13.59
282.235	14.71
282.449	14.67
282.664	14.38
282.878	13.74
283.092	14.09
283.307	14.25
283.521	14.28
283.735	13.85
283.949	15.15
284.164	13.61
284.378	13.66
284.592	12.68
284.806	12.55
285.02	12.28
285.234	12.1
285.449	11.17
285.663	11.05
285.877	11.09
286.091	11.96
286.305	12.06
286.519	13.2
286.733	13.32
286.947	13.66
287.161	14.22
287.375	15.36
287.589	16.77
287.803	17.18
288.017	17.51
288.231	17.31
288.445	16.5
288.659	16.53
288.873	16.17
289.087	15.76
289.301	15.23
289.515	14.74
289.729	14.24
289.943	14.05
290.157	13.62
290.371	13.78
290.584	14.44
290.798	14.8
291.012	14.82
291.226	14.75
291.44	15.35
291.654	16.52
291.867	16.92
292.081	17.23
292.295	16.84
292.509	17.6
292.722	18.33
292.936	18.77
293.15	18.39
293.364	18.01
293.577	17.52
293.791	18.11
294.005	17.69
294.218	16.69
294.432	16.71
294.645	17.19
294.859	16.82
295.073	15.86
295.286	15.02
295.5	15.58
295.713	15.76
295.927	16.2
296.14	15.59
296.354	15.32
296.568	15.9
296.781	15.58
296.994	15.51
297.208	15.23
297.421	15.55
297.635	15.98
297.848	15.44
298.062	15.62
298.275	15.53
298.489	15.33
298.702	15.16
298.915	14.72
299.129	15.21
299.342	14.25
299.555	15.12
299.769	15.42
299.982	14.98
300.195	16.38
300.409	17.27
300.622	17.01
300.835	17.45
301.048	18.63
301.262	18.58
301.475	18.32
301.688	19.18
301.901	18.48
302.115	18.03
302.328	18.61
302.541	17.72
302.754	16.82
302.967	17.84
303.18	17.72
303.393	17.11
303.607	17.7
303.82	17.5
304.033	16.46
304.246	16.89
304.459	16.82
304.672	17.01
304.885	17.97
305.098	18.31
305.311	17.82
305.524	17.29
305.737	17.42
305.95	17.11
306.163	16.54
306.376	17.21
306.589	17.4
306.802	17.07
307.015	16.87
307.228	16.12
307.44	16.32
307.653	17.89
307.866	18.65
308.079	18.3
308.292	18.03
308.505	19.38
308.718	20.49
308.93	19.56
309.143	18.52
309.356	17.87
309.569	17.11
309.781	17.14
309.994	15.56
310.207	15.01
310.42	14.71
310.632	14.48
310.845	14.25
311.058	13.55
311.27	13.83
311.483	15.36
311.696	14.91
311.908	15.45
312.121	14.39
312.333	15.59
312.546	16.6
312.759	17.51
312.971	18.46
313.184	19.71
313.396	20.31
313.609	20.33
313.821	20.52
314.034	21.95
314.246	22.47
314.459	24.29
314.671	23.46
314.884	22.68
315.096	22.38
315.309	21.32
315.521	19.59
315.733	18.9
315.946	18.83
316.158	18.76
316.371	19.43
316.583	19.39
316.795	18.72
317.008	18.45
317.22	18.91
317.432	19.61
317.644	21.36
317.857	22.1
318.069	21.83
318.281	22.7
318.494	22.94
318.706	22.67
318.918	21.63
319.13	21.63
319.342	21.43
319.555	20.76
319.767	20.69
319.979	20.06
320.191	20.46
320.403	22.1
320.615	21.14
320.827	21.35
321.039	20.44
321.252	21.25
321.464	20.67
321.676	20.75
321.888	22.11
322.1	22.29
322.312	22.3
322.524	21.15
322.736	20.37
322.948	22.98
323.16	22.1
323.372	22.74
323.584	22.86
323.796	23.2
324.007	23.89
324.219	23.73
324.431	23.35
324.643	23.93
324.855	23.93
325.067	24.52
325.279	22.77
325.491	23.85
325.702	23.96
325.914	24.95
326.126	25.46
326.338	25.18
326.55	25.72
326.761	25.97
326.973	26.19
327.185	28.01
327.396	27.87
327.608	28.27
327.82	28.58
328.032	28.34
328.243	28.23
328.455	28.44
328.666	29.46
328.878	30.55
329.09	30.77
329.301	31.91
329.513	30.68
329.725	32.51
329.936	33.35
330.148	32.61
330.359	34.4
330.571	35.1
330.782	35.97
330.994	36.76
331.205	36.07
331.417	37.44
331.628	37.77
331.84	38.82
332.051	38.8
332.262	39.35
332.474	40.54
332.685	40.46
332.897	40.04
333.108	40.02
333.319	40.16
333.531	41.2
333.742	41.2
333.953	40.84
334.165	41.22
334.376	40.59
334.587	41.95
334.799	42.39
335.01	43.37
335.221	44.55
335.432	45.44
335.644	45.39
335.855	45.24
336.066	46.31
336.277	46.76
336.488	46.69
336.7	46.2
336.911	45.85
337.122	46.18
337.333	46.05
337.544	45.49
337.755	46
337.966	45.94
338.177	45.46
338.388	44.95
338.599	45.13
338.811	45.46
339.022	45.72
339.233	45.25
339.444	44.59
339.655	44.53
339.866	44.88
340.076	43.87
340.287	43.93
340.498	44.34
340.709	43.78
340.92	43.63
341.131	43.63
341.342	44.09
341.553	44.22
341.764	44.46
341.975	44.3
342.185	43.51
342.396	44.13
342.607	44
342.818	44.75
343.029	44.97
343.239	45.25
343.45	44.08
343.661	44.5
343.872	43.92
344.082	44.41
344.293	43.91
344.504	44.89
344.714	44.57
344.925	44.76
345.136	44.01
345.346	44.71
345.557	44.09
345.768	45.13
345.978	44.62
346.189	44.99
346.399	44.67
346.61	45.15
346.821	44.92
347.031	44.63
347.242	45.16
347.452	45.68
347.663	45.15
347.873	45.68
348.084	45.17
348.294	45.27
348.504	45.35
348.715	45.59
348.925	45.21
349.136	44.45
349.346	45.19
349.557	44.05
349.767	44.26
349.977	44.07
350.188	42.84
350.398	43.25
350.608	43.18
350.819	43.23
351.029	42.16
351.239	42.51
351.449	43.16
351.66	43.2
351.87	44.21
352.08	43.29
352.29	42.45
352.501	43.22
352.711	43.02
352.921	43.05
353.131	42.79
353.341	42.57
353.552	42.22
353.762	41.63
353.972	40.89
354.182	40.84
354.392	42.08
354.602	42.58
354.812	43.29
355.022	43.48
355.232	43.62
355.442	43.89
355.652	44.51
355.862	44.4
356.072	44.14
356.282	44.38
356.492	43.6
356.702	42.52
356.912	42.62
357.122	42.15
357.332	41.72
357.542	41.18
357.752	40.96
357.962	40.79
358.171	40.46
358.381	40.93
358.591	40.77
358.801	41.25
359.011	40.97
359.221	40.44
359.43	40.17
359.64	40.34
359.85	40.45
360.06	40.14
360.269	40.19
360.479	39.86
360.689	39.73
360.899	39.83
361.108	39.02
361.318	38.8
361.528	39.07
361.737	39.3
361.947	39.66
362.156	39.58
362.366	40.06
362.576	39.96
362.785	40.08
362.995	40.49
363.204	40.03
363.414	40.43
363.623	41.19
363.833	40.61
364.042	40.25
364.252	39.32
364.461	39.44
364.671	38.95
364.88	39.06
365.09	39.57
365.299	39.36
365.509	38.93
365.718	38.6
365.927	38.34
366.137	38.55
366.346	38.61
366.555	38.96
366.765	38.84
366.974	38.43
367.183	38.18
367.393	38.32
367.602	38.13
367.811	39.26
368.021	39.28
368.23	38.89
368.439	38.41
368.648	38.08
368.857	37.77
369.067	37.52
369.276	37.9
369.485	37.83
369.694	37.09
369.903	36.78
370.112	35.93
370.321	36.1
370.531	35.55
370.74	36.3
370.949	36.32
371.158	36.52
371.367	36.45
371.576	36.18
371.785	36
371.994	35.98
372.203	35.67
372.412	35.91
372.621	35.59
372.83	36.05
373.039	35.88
373.248	35.73
373.457	35.24
373.666	35.15
373.874	34.62
374.083	34.6
374.292	34.61
374.501	34.68
374.71	34.1
374.919	34.31
375.128	34.03
375.336	33.71
375.545	33.8
375.754	33.91
375.963	33.65
376.171	33.79
376.38	33.87
376.589	33.78
376.798	33.27
377.006	33.73
377.215	33.47
377.424	33.42
377.632	33.31
377.841	32.98
378.05	32.64
378.258	32.55
378.467	32.38
378.675	31.99
378.884	31.44
379.093	31.75
379.301	31.16
379.51	31.26
379.718	31.54
379.927	31.9
380.135	31.8
380.344	31.89
380.552	31.45
380.761	31.56
380.969	31.63
381.177	31.81
381.386	31.63
381.594	31.34
381.803	30.85
382.011	30.55
382.219	29.8
382.428	29.81
382.636	29.63
382.845	30.41
383.053	30.32
383.261	30.4
383.469	30.06
383.678	29.99
383.886	29.99
384.094	29.75
384.302	29.02
384.511	28.98
384.719	28.58
384.927	28.83
385.135	28.64
385.343	28.72
385.552	28.6
385.76	28.85
385.968	28.58
386.176	28.59
386.384	28.56
386.592	28.59
386.8	28.46
387.008	28.56
387.216	28.61
387.424	28.38
387.633	27.8
387.841	27.05
388.049	26.61
388.257	26.79
388.465	26.79
388.672	26.86
388.88	26.7
389.088	26.4
389.296	26.22
389.504	25.54
389.712	25.21
389.92	25.16
390.128	25.48
390.336	25.39
390.544	25.09
390.751	25.05
390.959	25.09
391.167	25.09
391.375	25.2
391.583	25.25
391.79	25.07
391.998	25.18
392.206	25.38
392.414	25.04
392.621	25.11
392.829	24.84
393.037	24.57
393.244	24.38
393.452	24.18
393.66	24.29
393.867	24.36
394.075	24.81
394.283	24.48
394.49	24.38
394.698	24.58
394.905	24.54
395.113	24.5
395.32	24.45
395.528	24.34
395.735	24.43
395.943	24.09
396.15	24.03
396.358	23.53
396.565	23.42
396.773	23.43
396.98	23.39
397.188	23.33
397.395	23.41
397.602	23.64
397.81	23.54
398.017	23.59
398.225	23.7
398.432	23.65
398.639	23.71
398.847	23.82
399.054	23.61
399.261	23.59
399.468	23.57
399.676	23.86
399.883	23.74
400.09	24.24
400.297	24.19
400.505	24.35
400.712	24.01
400.919	24.17
401.126	24.23
401.333	24.28
401.54	24.38
401.748	24.28
401.955	24.18
402.162	24.38
402.369	24
402.576	23.69
402.783	23.48
402.99	23.42
403.197	23.21
403.404	23.39
403.611	23.53
403.818	23.29
404.025	23.27
404.232	22.98
404.439	22.76
404.646	22.56
404.853	22.91
405.06	22.91
405.267	23.25
405.474	23.21
405.681	22.97
405.887	22.63
406.094	22.66
406.301	22.65
406.508	22.89
406.715	22.87
406.922	22.97
407.128	23.05
407.335	22.86
407.542	22.83
407.749	22.95
407.955	23.07
408.162	23.27
408.369	23.29
408.575	23.39
408.782	23.27
408.989	23.35
409.195	23.5
409.402	23.56
409.609	23.77
409.815	23.48
410.022	23.53
410.228	23.52
410.435	23.68
410.642	23.64
410.848	23.73
411.055	23.83
411.261	23.88
411.468	23.89
411.674	23.71
411.881	23.5
412.087	23.79
412.294	24.04
412.5	24.03
412.706	23.69
412.913	23.85
413.119	23.76
413.326	23.6
413.532	23.43
413.738	23.43
413.945	23.35
414.151	23.55
414.357	23.34
414.564	23.4
414.77	23.56
414.976	23.67
415.182	23.63
415.389	23.69
415.595	23.67
415.801	23.55
416.007	23.5
416.214	23.7
416.42	23.71
416.626	24.01
416.832	23.77
417.038	23.73
417.244	23.72
417.45	23.76
417.657	23.64
417.863	23.82
418.069	23.94
418.275	23.96
418.481	23.83
418.687	23.76
418.893	23.32
419.099	23.19
419.305	23.14
419.511	23.12
419.717	23.08
419.923	23.02
420.129	23.05
420.335	23.1
420.541	23.04
420.746	22.99
420.952	23.05
421.158	23.11
421.364	23.24
421.57	23.14
421.776	23.15
421.982	23.19
422.187	23.32
422.393	23.14
422.599	23.01
422.805	23.12
423.01	23.22
423.216	23.15
423.422	23.17
423.628	23.16
423.833	23.22
424.039	23.32
424.245	23.34
424.45	23.33
424.656	23.3
424.862	23.42
425.067	23.28
425.273	23.19
425.478	23.21
425.684	23.29
425.889	23.33
426.095	23.39
426.301	23.26
426.506	23.19
426.712	23.07
426.917	23.05
427.123	22.99
427.328	23.16
427.533	23.34
427.739	23.38
427.944	23.28
428.15	23.06
428.355	23.05
428.561	23.15
428.766	23.13
428.971	23.26
429.177	23.57
429.382	23.76
429.587	23.57
429.793	23.47
429.998	23.73
430.203	23.67
430.408	23.75
430.614	23.57
430.819	23.55
431.024	23.47
431.229	23.38
431.434	23.36
431.64	23.11
431.845	23.27
432.05	23.29
432.255	22.91
432.46	22.92
432.665	22.96
432.87	23.02
433.076	22.95
433.281	22.96
433.486	23.02
433.691	23.07
433.896	23.07
434.101	22.92
434.306	22.82
434.511	22.9
434.716	23.04
434.921	22.91
435.126	23.04
435.331	23.09
435.535	23.14
435.74	23.06
435.945	22.95
436.15	23.04
436.355	23.16
436.56	23.35
436.765	23.56
436.97	23.6
437.174	23.87
437.379	23.78
437.584	23.9
437.789	23.92
437.993	23.98
438.198	23.98
438.403	23.9
438.608	23.84
438.812	23.73
439.017	23.6
439.222	23.65
439.426	23.47
439.631	23.59
439.836	23.52
440.04	23.4
440.245	23.45
440.45	23.44
440.654	23.36
440.859	23.38
441.063	23.34
441.268	23.34
441.472	23.32
441.677	23.42
441.881	23.37
442.086	23.31
442.29	23.46
442.495	23.4
442.699	23.41
442.904	23.59
443.108	23.53
443.312	23.54
443.517	23.61
443.721	23.53
443.925	23.37
444.13	23.25
444.334	23.35
444.538	23.26
444.743	23.25
444.947	23.12
445.151	22.98
445.356	22.89
445.56	22.86
445.764	22.74
445.968	22.62
446.173	22.66
446.377	22.51
446.581	22.4
446.785	22.32
446.989	22.3
447.193	22.37
447.398	22.39
447.602	22.33
447.806	22.37
448.01	22.25
448.214	22.3
448.418	22.15
448.622	22.36
448.826	22.26
449.03	22.22
449.234	22.16
449.438	22.11
449.642	21.97
449.846	22.09
450.05	22.08
450.254	22.13
450.458	22.08
450.662	22.33
450.866	22.2
451.069	22.42
451.273	22.52
451.477	22.35
451.681	22.28
451.885	22.24
452.089	22.25
452.292	22.28
452.496	22.36
452.7	22.39
452.904	22.18
453.107	22.08
453.311	22.02
453.515	21.9
453.719	22.04
453.922	22.17
454.126	22.12
454.33	22.05
454.533	21.79
454.737	21.67
454.94	21.86
455.144	22.12
455.348	22.17
455.551	22.2
455.755	22.38
455.958	22.38
456.162	22.4
456.365	22.52
456.569	22.66
456.772	22.6
456.976	22.49
457.179	22.29
457.383	22.09
457.586	22.15
457.79	22.14
457.993	22.11
458.196	22.09
458.4	22.07
458.603	22.25
458.807	22.23
459.01	22.47
459.213	22.61
459.417	22.68
459.62	22.79
459.823	22.77
460.026	22.8
460.23	22.69
460.433	22.66
460.636	22.58
460.839	22.64
461.042	22.67
461.246	22.64
461.449	22.79
461.652	22.79
461.855	22.76
462.058	22.89
462.261	22.89
462.464	23.18
462.668	23.26
462.871	23.32
463.074	23.26
463.277	23.45
463.48	23.41
463.683	23.31
463.886	23.4
464.089	23.43
464.292	23.51
464.495	23.63
464.698	23.6
464.901	23.68
465.104	24.03
465.306	24.11
465.509	24
465.712	24.28
465.915	24.39
466.118	24.4
466.321	24.43
466.524	24.31
466.726	24.39
466.929	24.46
467.132	24.56
467.335	24.37
467.538	24.28
467.74	24.31
467.943	24.25
468.146	24.32
468.348	24.33
468.551	24.29
468.754	24.4
468.956	24.3
469.159	24.35
469.362	24.47
469.564	24.47
469.767	24.82
469.969	25.05
470.172	24.97
470.375	24.89
470.577	25.19
470.78	25.29
470.982	25.38
471.185	25.39
471.387	25.47
471.59	25.52
471.792	25.68
471.995	25.56
472.197	25.57
472.399	25.8
472.602	25.94
472.804	25.63
473.007	25.7
473.209	25.76
473.411	25.81
473.614	25.91
473.816	25.71
474.018	25.55
474.22	25.65
474.423	25.56
474.625	25.46
474.827	25.38
475.03	25.67
475.232	25.69
475.434	25.6
475.636	25.59
475.838	25.4
476.04	25.61
476.243	25.75
476.445	25.62
476.647	25.64
476.849	25.62
477.051	25.56
477.253	25.44
477.455	25.46
477.657	25.34
477.859	25.52
478.061	25.46
478.263	25.4
478.465	25.34
478.667	25.27
478.869	25.18
479.071	25.17
479.273	25.32
479.475	25.16
479.677	25.12
479.879	25.19
480.081	25.12
480.283	25.17
480.485	25.24
480.686	25.34
480.888	25.36
481.09	25.4
481.292	25.34
481.494	25.24
481.695	25.18
481.897	25.26
482.099	25.24
482.301	25.23
482.502	25.26
482.704	25.21
482.906	25.12
483.107	25.04
483.309	25.03
483.511	25.02
483.712	24.98
483.914	25.05
484.115	24.96
484.317	25.01
484.519	25.02
484.72	24.98
484.922	24.95
485.123	24.99
485.325	25.08
485.526	25.09
485.728	25.1
485.929	25.21
486.131	25.21
486.332	25.37
486.534	25.33
486.735	25.25
486.936	25.33
487.138	25.38
487.339	25.44
487.541	25.47
487.742	25.53
487.943	25.58
488.144	25.61
488.346	25.71
488.547	25.7
488.748	25.75
488.95	25.88
489.151	25.91
489.352	25.94
489.553	26.02
489.755	26.13
489.956	26.18
490.157	26.28
490.358	26.4
490.559	26.46
490.76	26.61
490.961	26.76
491.163	26.86
491.364	26.95
491.565	27.08
491.766	27.12
491.967	27.13
492.168	27.19
492.369	27.29
492.57	27.36
492.771	27.45
492.972	27.51
493.173	27.59
493.374	27.71
493.575	27.88
493.776	27.98
493.976	28.16
494.177	28.35
494.378	28.47
494.579	28.69
494.78	28.75
494.981	28.99
495.182	29.22
495.382	29.46
495.583	29.56
495.784	29.75
495.985	29.96
496.185	30.11
496.386	30.32
496.587	30.53
496.788	30.72
496.988	30.87
497.189	31.03
497.39	31.19
497.59	31.24
497.791	31.58
497.992	31.7
498.192	31.9
498.393	32.16
498.593	32.33
498.794	32.56
498.994	32.67
499.195	32.86
499.395	32.98
499.596	33.15
499.796	33.44
499.997	33.54
500.197	33.76
500.398	33.94
500.598	34.1
500.799	34.34
500.999	34.71
501.199	35.1
501.4	35.52
501.6	35.86
501.801	36.24
502.001	36.57
502.201	36.77
502.402	37.03
502.602	37.26
502.802	37.54
503.002	37.82
503.203	37.95
503.403	38.17
503.603	38.39
503.803	38.55
504.003	38.66
504.204	38.78
504.404	39.22
504.604	39.49
504.804	39.84
505.004	40.01
505.204	40.24
505.404	40.4
505.604	40.54
505.804	40.64
506.005	40.81
506.205	41.17
506.405	41.54
506.605	41.61
506.805	41.86
507.005	42.05
507.204	42.27
507.404	42.44
507.604	42.9
507.804	43.09
508.004	43.58
508.204	43.93
508.404	44.01
508.604	44.09
508.804	44.35
509.003	44.49
509.203	44.71
509.403	45.03
509.603	45.33
509.803	45.5
510.002	45.75
510.202	45.83
510.402	45.97
510.602	46.3
510.801	46.62
511.001	46.91
511.201	47.13
511.4	47.32
511.6	47.49
511.8	47.74
511.999	47.98
512.199	48.32
512.398	48.56
512.598	48.85
512.797	49.13
512.997	49.35
513.197	49.55
513.396	49.95
513.596	50.29
513.795	50.65
513.994	50.77
514.194	51.13
514.393	51.26
514.593	51.59
514.792	51.86
514.992	52.03
515.191	52.39
515.39	52.72
515.59	52.97
515.789	53.35
515.988	53.57
516.188	54.01
516.387	54.37
516.586	54.73
516.786	54.96
516.985	55.23
517.184	55.51
517.383	55.73
517.582	55.88
517.782	56.16
517.981	56.19
518.18	56.33
518.379	56.4
518.578	56.34
518.777	56.53
518.976	56.68
519.176	56.89
519.375	56.86
519.574	57.03
519.773	57.21
519.972	57.24
520.171	57.51
520.37	57.79
520.569	58.19
520.768	58.41
520.967	58.73
521.166	58.85
521.365	59.03
521.564	59.38
521.762	59.5
521.961	59.76
522.16	59.96
522.359	60.04
522.558	60.2
522.757	60.19
522.956	60.34
523.154	60.41
523.353	60.64
523.552	60.87
523.751	61
523.949	61.2
524.148	61.31
524.347	61.59
524.546	61.82
524.744	61.87
524.943	62.12
525.142	62.38
525.34	62.44
525.539	62.57
525.737	62.61
525.936	62.9
526.135	63.04
526.333	63.15
526.532	63.19
526.73	63.34
526.929	63.56
527.127	63.6
527.326	63.75
527.524	63.85
527.723	64
527.921	64.03
528.12	64.11
528.318	64.14
528.516	64.16
528.715	64.25
528.913	64.18
529.112	64.2
529.31	64.27
529.508	64.35
529.707	64.45
529.905	64.46
530.103	64.62
530.301	64.69
530.5	64.81
530.698	64.96
530.896	65.17
531.094	65.34
531.293	65.45
531.491	65.66
531.689	65.7
531.887	65.87
532.085	65.99
532.283	66.09
532.481	66.04
532.68	66.19
532.878	66.31
533.076	66.24
533.274	66.44
533.472	66.55
533.67	66.57
533.868	66.6
534.066	66.64
534.264	66.72
534.462	66.72
534.66	66.79
534.858	66.78
535.056	66.91
535.253	66.98
535.451	67.01
535.649	67.09
535.847	67.17
536.045	67.31
536.243	67.37
536.441	67.48
536.638	67.67
536.836	67.77
537.034	67.72
537.232	67.7
537.43	67.88
537.627	67.98
537.825	68
538.023	68.03
538.22	68.08
538.418	68.13
538.616	68.32
538.813	68.3
539.011	68.55
539.209	68.76
539.406	68.78
539.604	68.98
539.801	69.09
539.999	69.22
540.196	69.33
540.394	69.3
540.591	69.33
540.789	69.19
540.986	69.17
541.184	69.1
541.381	69.05
541.579	69.03
541.776	68.84
541.974	68.74
542.171	68.76
542.368	68.64
542.566	68.67
542.763	68.65
542.96	68.69
543.158	68.67
543.355	68.7
543.552	68.85
543.75	68.97
543.947	69.09
544.144	69.23
544.341	69.23
544.539	69.34
544.736	69.34
544.933	69.34
545.13	69.49
545.327	69.65
545.524	69.63
545.722	69.62
545.919	69.57
546.116	69.68
546.313	69.72
546.51	69.7
546.707	69.8
546.904	69.95
547.101	70.07
547.298	69.95
547.495	69.99
547.692	69.99
547.889	69.95
548.086	70.1
548.283	70.08
548.48	70.04
548.677	70.13
548.874	70.22
549.07	70.23
549.267	70.11
549.464	70.17
549.661	70.12
549.858	70.28
550.055	70.47
550.251	70.48
550.448	70.35
550.645	70.46
550.842	70.34
551.038	70.32
551.235	70.3
551.432	70.33
551.628	70.28
551.825	70.46
552.022	70.46
552.218	70.42
552.415	70.45
552.612	70.59
552.808	70.49
553.005	70.46
553.201	70.48
553.398	70.4
553.594	70.51
553.791	70.56
553.987	70.4
554.184	70.44
554.38	70.3
554.577	70.18
554.773	70.07
554.97	70.3
555.166	70.38
555.362	70.49
555.559	70.62
555.755	70.57
555.952	70.83
556.148	71.13
556.344	71.15
556.541	71.32
556.737	71.24
556.933	71.46
557.129	71.19
557.326	71.09
557.522	71.12
557.718	71.17
557.914	71.33
558.11	71.03
558.307	70.78
558.503	70.82
558.699	71.04
558.895	71.06
559.091	71.06
559.287	71.23
559.483	71.47
559.679	71.4
559.876	71.48
560.072	71.32
560.268	71.33
560.464	71.48
560.66	71.46
560.856	71.52
561.052	71.75
561.247	71.77
561.443	71.79
561.639	71.82
561.835	71.76
562.031	71.45
562.227	71.39
562.423	71.29
562.619	71.15
562.815	71.31
563.01	71.08
563.206	71.06
563.402	70.92
563.598	70.74
563.793	70.61
563.989	70.4
564.185	70.75
564.381	70.84
564.576	71.01
564.772	71.16
564.968	71.01
565.163	70.89
565.359	70.78
565.555	70.82
565.75	70.81
565.946	70.89
566.141	70.84
566.337	70.69
566.532	70.67
566.728	70.61
566.923	70.46
567.119	70.26
567.314	70.27
567.51	70.31
567.705	70.41
567.901	70.4
568.096	70.3
568.292	70.54
568.487	70.51
568.682	70.73
568.878	70.81
569.073	70.64
569.268	70.83
569.464	70.73
569.659	70.78
569.854	70.48
570.05	70.56
570.245	70.56
570.44	70.44
570.635	70.3
570.831	70.28
571.026	70.15
571.221	70.32
571.416	70.35
571.611	70.47
571.806	70.45
572.002	70.59
572.197	70.58
572.392	70.42
572.587	70.37
572.782	70.51
572.977	70.48
573.172	70.66
573.367	70.8
573.562	70.74
573.757	70.51
573.952	70.34
574.147	70.39
574.342	70.34
574.537	70.45
574.732	70.38
574.927	70.48
575.121	70.3
575.316	70.05
575.511	69.85
575.706	69.85
575.901	70.01
576.096	70.08
576.29	69.86
576.485	69.87
576.68	69.98
576.875	69.93
577.069	69.54
577.264	69.5
577.459	69.49
577.654	69.37
577.848	69.34
578.043	69.36
578.238	69.4
578.432	69.45
578.627	69.47
578.821	69.44
579.016	69.56
579.21	69.83
579.405	69.73
579.6	69.76
579.794	69.97
579.989	70.02
580.183	70.31
580.378	70.27
580.572	70.24
580.766	70.08
580.961	70.01
581.155	70.13
581.35	70.27
581.544	70.26
581.738	70.41
581.933	70.26
582.127	70.15
582.321	69.75
582.516	69.68
582.71	69.71
582.904	69.46
583.099	69.2
583.293	68.94
583.487	68.78
583.681	69.03
583.875	68.88
584.07	68.95
584.264	68.79
584.458	68.72
584.652	68.77
584.846	68.56
585.04	68.69
585.234	69.27
585.428	69.29
585.623	68.95
585.817	68.68
586.011	68.61
586.205	68.45
586.399	68.52
586.593	68.42
586.787	68.22
586.981	68.26
587.174	68.4
587.368	67.68
587.562	67.64
587.756	67.67
587.95	67.65
588.144	67.6
588.338	67.4
588.532	67.21
588.725	67.33
588.919	67.11
589.113	67.23
589.307	66.94
589.501	67.24
589.694	67.29
589.888	67.38
590.082	67.39
590.275	67.13
590.469	67.33
590.663	67.26
590.856	67.11
591.05	67.28
591.244	67.19
591.437	67.39
591.631	67.01
591.824	66.74
592.018	66.66
592.212	66.43
592.405	66.36
592.599	66.09
592.792	66.12
592.986	66.09
593.179	65.98
593.372	65.83
593.566	65.81
593.759	65.77
593.953	65.86
594.146	65.81
594.339	65.94
594.533	66.13
594.726	66.24
594.92	66.13
595.113	66.02
595.306	66.24
595.499	66.2
595.693	65.88
595.886	65.69
596.079	65.58
596.272	65.4
596.466	65.24
596.659	65.05
596.852	64.87
597.045	64.71
597.238	64.4
597.431	64.09
597.624	63.89
597.818	63.87
598.011	64.09
598.204	63.91
598.397	63.77
598.59	63.66
598.783	63.76
598.976	63.79
599.169	63.79
599.362	64.03
599.555	64.17
599.748	64.33
599.941	64.55
600.134	64.46
600.326	64.52
600.519	64.81
600.712	64.61
600.905	64.49
601.098	64.39
601.291	64.49
601.483	64.23
601.676	63.61
601.869	63.44
602.062	63.03
602.255	62.8
602.447	62.53
602.64	62.24
602.833	62.19
603.025	62.01
603.218	61.94
603.411	61.66
603.603	61.63
603.796	61.76
603.989	61.51
604.181	61.44
604.374	61.36
604.566	61.35
604.759	61.21
604.951	61.07
605.144	60.74
605.336	60.63
605.529	60.73
605.721	60.85
605.914	60.82
606.106	60.8
606.299	60.81
606.491	60.79
606.683	60.87
606.876	60.81
607.068	61
607.26	60.94
607.453	60.78
607.645	60.47
607.837	60.24
608.03	59.96
608.222	59.99
608.414	59.76
608.606	59.55
608.799	59.52
608.991	59.36
609.183	59.26
609.375	59.48
609.567	59.54
609.759	59.69
609.952	59.61
610.144	59.67
610.336	59.54
610.528	59.54
610.72	59.41
610.912	59.16
611.104	59.41
611.296	59.37
611.488	59.43
611.68	59
611.872	58.79
612.064	58.75
612.256	58.83
612.448	58.98
612.64	59.01
612.832	59.07
613.023	59.13
613.215	58.92
613.407	58.88
613.599	58.64
613.791	59.12
613.983	58.87
614.174	58.9
614.366	58.95
614.558	58.56
614.75	58.4
614.941	58.33
615.133	58.24
615.325	58.29
615.516	57.97
615.708	58.01
615.9	57.75
616.091	57.6
616.283	57.28
616.475	56.98
616.666	56.82
616.858	57.02
617.049	56.9
617.241	57
617.432	56.79
617.624	56.95
617.815	56.6
618.007	56.44
618.198	56.77
618.39	56.95
618.581	56.95
618.773	57.08
618.964	56.76
619.155	56.97
619.347	56.64
619.538	56.48
619.729	56.33
619.921	56.65
620.112	56.62
620.303	56.31
620.494	56.19
620.686	56.34
620.877	56.25
621.068	56.03
621.259	55.86
621.451	55.87
621.642	55.93
621.833	55.8
622.024	55.74
622.215	55.38
622.406	55.39
622.597	55.41
622.788	55.16
622.98	55.21
623.171	55.53
623.362	55.58
623.553	55.6
623.744	55.39
623.935	55.15
624.126	54.98
624.317	55.32
624.508	55.28
624.698	55.32
624.889	54.98
625.08	54.94
625.271	55.01
625.462	54.83
625.653	54.81
625.844	54.67
626.034	54.65
626.225	54.71
626.416	54.78
626.607	54.68
626.798	54.41
626.988	54.91
627.179	54.68
627.37	54.29
627.56	54.25
627.751	54.18
627.942	54.29
628.132	54.58
628.323	54.44
628.514	54.13
628.704	54.08
628.895	54.07
629.085	53.52
629.276	53.36
629.466	53.21
629.657	53.18
629.847	53.06
630.038	52.95
630.228	52.72
630.419	52.59
630.609	52.52
630.8	52.76
630.99	52.76
631.181	52.69
631.371	52.99
631.561	53.18
631.752	53.47
631.942	53.24
632.132	53.41
632.323	53.39
632.513	53.26
632.703	53.41
632.893	53.27
633.084	53.21
633.274	52.99
633.464	52.86
633.654	52.55
633.844	52.03
634.034	52.33
634.225	52.31
634.415	52.26
634.605	52.43
634.795	52.14
634.985	51.85
635.175	51.87
635.365	52.11
635.555	52.13
635.745	52.47
635.935	52.53
636.125	52.34
636.315	52.2
636.505	51.96
636.695	51.7
636.885	51.74
637.075	51.79
637.265	51.8
637.455	51.74
637.644	51.68
637.834	51.29
638.024	51.3
638.214	51.23
638.404	50.94
638.593	51.06
638.783	51.23
638.973	51.49
639.163	51.53
639.352	51.43
639.542	51.34
639.732	51.43
639.921	51.62
640.111	51.56
640.301	51.41
640.49	51.36
640.68	51.51
640.87	51.3
641.059	51.09
641.249	51.29
641.438	51.13
641.628	51.18
641.817	51.34
642.007	51.04
642.196	51.02
642.386	51.31
642.575	51.64
642.764	51.47
642.954	51.4
643.143	51.38
643.333	51.01
643.522	51.11
643.711	50.86
643.901	50.39
644.09	50.75
644.279	50.8
644.469	50.64
644.658	50.14
644.847	50.27
645.036	50.2
645.226	50.07
645.415	50.05
645.604	49.93
645.793	50.14
645.982	50.08
646.171	49.91
646.361	49.56
646.55	49.89
646.739	50.2
646.928	49.67
647.117	49.69
647.306	49.95
647.495	49.98
647.684	50.07
647.873	50.15
648.062	50.36
648.251	50.08
648.44	50.35
648.629	49.77
648.818	49.56
649.007	50.26
649.196	50.24
649.384	50
649.573	50.02
649.762	50.06
649.951	50.13
650.14	49.49
650.328	49.54
650.517	49.34
650.706	49.6
650.895	49.48
651.083	49.32
651.272	49.34
651.461	49.59
651.65	49.55
651.838	49.48
652.027	49.13
652.216	49.36
652.404	48.97
652.593	49.23
652.781	48.76
652.97	48.73
653.158	48.57
653.347	48.65
653.535	48.34
653.724	48.19
653.912	48.23
654.101	48.09
654.289	48.36
654.478	48.51
654.666	48.21
654.855	48.5
655.043	48.4
655.231	48.45
655.42	48.4
655.608	48.54
655.796	48.59
655.985	48.52
656.173	48.87
656.361	48.63
656.55	48.54
656.738	48.61
656.926	48.57
657.114	48.89
657.302	48.81
657.491	48.85
657.679	48.78
657.867	48.59
658.055	48.75
658.243	48.34
658.431	48.42
658.619	48.56
658.807	48.52
658.996	48.78
659.184	48.73
659.372	48.64
659.56	48.25
659.748	48.1
659.936	48.2
660.124	47.68
660.311	47.74
660.499	47.61
660.687	47.56
660.875	47.88
661.063	47.37
661.251	47.15
661.439	47.02
661.627	47.36
661.814	47.06
662.002	46.98
662.19	47.11
662.378	47.04
662.565	46.97
662.753	47
662.941	46.59
663.129	46.64
663.316	46.68
663.504	46.36
663.692	46.2
663.879	46.82
664.067	46.93
664.254	46.66
664.442	46.92
664.63	46.6
664.817	46.58
665.005	46.33
665.192	46.29
665.38	46.26
665.567	46.28
665.755	46.31
665.942	45.98
666.13	45.66
666.317	46.22
666.504	45.65
666.692	46.45
666.879	46.2
667.067	46.33
667.254	46.17
667.441	46.19
667.629	46.41
667.816	46.07
668.003	45.69
668.19	46
668.378	45.69
668.565	45.95
668.752	45.62
668.939	45.82
669.127	45.78
669.314	46.3
669.501	46.31
669.688	46.34
669.875	46.32
670.062	46.68
670.249	46.6
670.436	46.75
670.623	46.64
670.81	46.5
670.997	46.25
671.184	45.97
671.371	45.67
671.558	45.44
671.745	45.43
671.932	45.4
672.119	45.28
672.306	45.39
672.493	45.09
672.68	45.34
672.867	45.38
673.054	45.48
673.24	45.78
673.427	45.59
673.614	46.26
673.801	46.18
673.988	46.44
674.174	46.37
674.361	45.91
674.548	45.85
674.734	45.98
674.921	45.9
675.108	46.19
675.294	46.28
675.481	46.05
675.668	45.86
675.854	45.92
676.041	45.79
676.227	45.61
676.414	45.87
676.601	46.32
676.787	46.23
676.974	46.08
677.16	45.86
677.347	45.79
677.533	45.85
677.719	45.53
677.906	45.4
678.092	45.09
678.279	45.16
678.465	45.06
678.651	44.37
678.838	44.16
679.024	44
679.21	43.89
679.397	43.72
679.583	43.79
679.769	43.71
679.955	43.72
680.142	43.69
680.328	43.92
680.514	43.89
680.7	43.58
680.886	43.48
681.073	43.53
681.259	43.71
681.445	43.43
681.631	43.27
681.817	43.26
682.003	43.09
682.189	43.03
682.375	43.01
682.561	42.81
682.747	43.43
682.933	43.34
683.119	43.27
683.305	42.9
683.491	43.33
683.677	43.25
683.863	43.21
684.049	43.28
684.235	43.75
684.42	43.13
684.606	43.1
684.792	43.2
684.978	43.47
685.164	43.79
685.349	43.86
685.535	43.64
685.721	43.96
685.907	43.41
686.092	43.53
686.278	43.4
686.464	44.03
686.649	44.08
686.835	44.16
687.021	43.82
687.206	43.65
687.392	43.3
687.577	42.93
687.763	42.61
687.948	43.1
688.134	42.65
688.319	42.51
688.505	42.34
688.69	42.34
688.876	42.05
689.061	41.88
689.247	42.14
689.432	42.56
689.618	42.77
689.803	42.65
689.988	42.57
690.174	42.44
690.359	42.62
690.544	42.24
690.73	42.07
690.915	42.02
691.1	42.29
691.285	42.59
691.471	42.38
691.656	42.49
691.841	42.82
692.026	42.67
692.211	42.81
692.396	42.92
692.582	43.33
692.767	43.35
692.952	43.24
693.137	43.57
693.322	42.96
693.507	43.47
693.692	43.52
693.877	43.76
694.062	43.87
694.247	44.14
694.432	43.61
694.617	43.28
694.802	43.92
694.987	44.19
695.172	44
695.357	44.36
695.541	43.72
695.726	43.13
695.911	43.3
696.096	43.39
696.281	43.09
696.466	43.47
696.65	43.54
696.835	42.97
697.02	42.63
697.204	42.45
697.389	42.08
697.574	42.09
697.759	42.06
697.943	41.65
698.128	41.3
698.312	41.58
698.497	40.82
698.682	40.67
698.866	40.66
699.051	40.69
699.235	40.51
699.42	40.74
699.604	41.12
699.789	41.39
699.973	41.4
700.158	41.42
700.342	41.56
700.527	42.35
700.711	42.84
700.895	42.76
701.08	42.83
701.264	43.07
701.448	43.05
701.633	42.36
701.817	42.62
702.001	42.73
702.186	43.28
702.37	42.24
702.554	41.67
702.738	41.27
702.923	41.84
703.107	41.66
703.291	41.7
703.475	41.06
703.659	41.1
703.843	40.81
704.027	40.69
704.212	40.38
704.396	41.44
704.58	41.9
704.764	41.76
704.948	41.2
705.132	40.95
705.316	41.59
705.5	41.86
705.684	42.56
705.868	42.67
706.052	42.6
706.235	43.03
706.419	42.23
706.603	42.32
706.787	42.04
706.971	42.18
707.155	42.73
707.339	42.42
707.522	41.99
707.706	41.09
707.89	40.78
708.074	40.83
708.257	40.3
708.441	40.61
708.625	40.36
708.808	40.5
708.992	40.16
709.176	39.59
709.359	38.94
709.543	38.88
709.727	39.54
709.91	39.89
710.094	39.8
710.277	40.01
710.461	39.81
710.644	39.92
710.828	39.83
711.011	40.48
711.195	40.88
711.378	41.56
711.562	42.33
711.745	42.41
711.928	42.09
712.112	42.16
712.295	41.93
712.478	42.67
712.662	42.39
712.845	42.12
713.028	41.79
713.212	41.69
713.395	41.24
713.578	41.8
713.761	41.63
713.945	42.28
714.128	42.66
714.311	43.16
714.494	42.46
714.677	43.07
714.86	43.41
715.043	43.42
715.227	43.2
715.41	42.95
715.593	42.04
715.776	42.47
715.959	42.21
716.142	41.82
716.325	41.4
716.508	41.83
716.691	41.08
716.874	40.97
717.057	40.64
717.239	41.14
717.422	41.22
717.605	40.97
717.788	40.44
717.971	40.8
718.154	41.31
718.337	41.34
718.519	41.13
718.702	41.89
718.885	42.57
719.068	43.06
719.25	43.76
719.433	44.15
719.616	43.57
719.798	44.26
719.981	43.41
720.164	41.87
720.346	41.54
720.529	41.15
720.712	40.82
720.894	40.16
721.077	40.6
721.259	39.47
721.442	40.35
721.624	41.4
721.807	41.63
721.989	41.86
722.172	43.23
722.354	44.09
722.537	44.41
722.719	44.64
722.901	44.53
723.084	44.13
723.266	44.21
723.448	43.47
723.631	43.44
723.813	42.89
723.995	42.88
724.178	43.23
724.36	41.98
724.542	42.17
724.724	41.45
724.907	41.92
725.089	41.73
725.271	42.12
725.453	41.79
725.635	41.97
725.817	41.61
725.999	41.6
726.181	40.74
726.364	41.6
726.546	41.72
726.728	41.91
726.91	41.92
727.092	42.28
727.274	42.28
727.456	42.49
727.638	42.17
727.819	42.47
728.001	41.8
728.183	42.55
728.365	42.85
728.547	42.49
728.729	42.77
728.911	42.89
729.093	42.45
729.274	42.34
729.456	42.11
729.638	42.49
729.82	42.12
730.001	42.3
730.183	42.2
730.365	41.78
730.546	41.38
730.728	40.88
730.91	40.28
731.091	40.06
731.273	40.38
731.455	40.34
731.636	40.34
731.818	40.28
731.999	40.6
732.181	39.87
732.362	39.43
732.544	40.3
732.725	40.09
732.907	40.36
733.088	40.95
733.27	39.71
733.451	39.56
733.633	39.14
733.814	39.16
733.995	38.79
734.177	39.12
734.358	39.5
734.539	38.72
734.721	39.59
734.902	39.02
735.083	38.85
735.264	39.41
735.446	39.53
735.627	39.39
735.808	40.15
735.989	40.55
736.17	40.47
736.351	40.76
736.533	40.76
736.714	40.66
736.895	41.36
737.076	40.79
737.257	40.73
737.438	40.54
737.619	41.61
737.8	41.27
737.981	42.35
738.162	42.57
738.343	42.92
738.524	42.84
738.705	43
738.886	43.56
739.067	43.36
739.247	43.66
739.428	43.89
739.609	42.95
739.79	42.47
739.971	41.35
740.151	42.04
740.332	41.38
740.513	41.59
740.694	41.03
740.874	40.95
741.055	41.69
741.236	42.21
741.417	41.68
741.597	41.3
741.778	41.55
741.958	41.29
742.139	40.89
742.32	40.4
742.5	40.61
742.681	40.03
742.861	39.72
743.042	39.71
743.222	39.14
743.403	39.68
743.583	40.92
743.764	41.11
743.944	42.41
744.124	41.45
744.305	42.78
744.485	43.13
744.666	44.3
744.846	43.86
745.026	43.2
745.207	42.73
745.387	43.24
745.567	41.76
745.747	41.4
745.928	40.76
746.108	41.74
746.288	39.86
746.468	39.44
746.648	39.16
746.829	38.92
747.009	40.79
747.189	41.87
747.369	41.18
747.549	42.15
747.729	42.57
747.909	42.38
748.089	43.2
748.269	43.77
748.449	43.49
748.629	43.22
748.809	42.75
748.989	42
749.169	40.44
749.349	40.01
749.529	39.3
749.709	38.6
749.889	38.3
750.068	37.12
750.248	37.77
750.428	38.64
750.608	38.29
750.788	39.99
750.967	39.94
751.147	42.01
751.327	42.46
751.507	41.71
751.686	41.5
751.866	41.13
752.046	41.02
752.225	39.99
752.405	39.24
752.585	39.6
752.764	39
752.944	38.93
753.123	38.72
753.303	39.3
753.482	40.98
753.662	42.09
753.841	42.83
754.021	43
754.2	43.96
754.38	45.48
754.559	45.93
754.739	45.67
754.918	45.48
755.097	44.24
755.277	43.95
755.456	43.71
755.635	42.67
755.815	42.97
755.994	42.89
756.173	42.9
756.352	43.03
756.532	42.56
756.711	42.56
756.89	42.62
757.069	42.63
757.248	42.72
757.427	42.77
757.607	42.9
757.786	42.55
757.965	42.87
758.144	42.18
758.323	40.09
758.502	40.49
758.681	39.98
758.86	39.94
759.039	40.06
759.218	39.59
759.397	38.85
759.576	38.77
759.755	39.04
759.934	38.35
760.113	39.62
760.291	39.99
760.47	40.57
760.649	40.74
760.828	40.03
761.007	40.65
761.186	40.9
761.364	41.27
761.543	41.14
761.722	40.05
761.901	40.45
762.079	39.17
762.258	38.89
762.437	36.65
762.615	37.02
762.794	37.91
762.972	36.91
763.151	36.53
763.33	36.64
763.508	36.69
763.687	37.35
763.865	36.64
764.044	36.5
764.222	36.83
764.401	38.31
764.579	38.2
764.758	37.2
764.936	38.19
765.114	38.45
765.293	37.89
765.471	37.83
765.65	37.31
765.828	37.71
766.006	37.97
766.184	38.52
766.363	38.12
766.541	38.27
766.719	38.97
766.898	38.27
767.076	37.96
767.254	38.3
767.432	38.76
767.61	39.03
767.788	38.61
767.967	38.26
768.145	37.29
768.323	37.39
768.501	38.06
768.679	37.55
768.857	37.78
769.035	38.62
769.213	39.39
769.391	39.8
769.569	40.97
769.747	43.12
769.925	44.87
770.103	45.3
770.281	44.46
770.459	43.41
770.636	42.91
770.814	42.49
770.992	42.42
771.17	41.7
771.348	42.2
771.525	40.86
771.703	39.38
771.881	38.56
772.059	39.5
772.236	39.75
772.414	39.63
772.592	40.91
772.769	41.49
772.947	42.28
773.125	43.26
773.302	42.98
773.48	44.29
773.657	44.67
773.835	45.04
774.013	43.85
774.19	45.76
774.368	47.17
774.545	46.83
774.723	47.67
774.9	47.39
775.077	47.93
775.255	46.27
775.432	46.01
775.61	45.83
775.787	46.47
775.964	47.39
776.142	46.12
776.319	44.18
776.496	43.97
776.674	43.68
776.851	42.47
777.028	41.93
777.205	43.28
777.382	41.68
777.56	42.2
777.737	44.03
777.914	43.3
778.091	42.97
778.268	45.25
778.445	46.75
778.622	46.21
778.8	48.01
778.977	46.88
779.154	47.92
779.331	49.54
779.508	49.56
779.685	46.35
779.862	46.27
780.038	45.9
780.215	45.38
780.392	45.51
780.569	45.8
780.746	43.52
780.923	43.52
781.1	42.39
781.277	44.33
781.453	44.19
781.63	45.08
781.807	45.5
781.984	46.19
782.16	46.36
782.337	45.3
782.514	45.56
782.691	48.64
782.867	49.02
783.044	47.65
783.221	44.79
783.397	46.91
783.574	45.83
783.75	46.3
783.927	47.26
784.103	46.32
784.28	47.57
784.456	46.77
784.633	45.28
784.809	45.16
784.986	46.17
785.162	47.32
785.339	43.65
785.515	43.8
785.692	43.07
785.868	44.85
786.044	46.24
786.221	44.58
786.397	45.26
786.573	45.39
786.749	44.04
786.926	45.27
787.102	44.12
787.278	46.61
787.454	47.46
787.631	48.99
787.807	46.25
787.983	45.13
788.159	46.15
788.335	45.82
788.511	46.29
788.687	47.29
788.863	46.19
789.039	45.79
789.216	43.77
789.392	44.29
789.568	43.66
789.744	43.44
789.919	45.16
790.095	45.63
790.271	44.5
790.447	42.94
790.623	43.18
790.799	44.09
790.975	45.25
791.151	46.97
791.327	47.23
791.502	45.82
791.678	46.24
791.854	45.83
792.03	45.25
792.205	47.08
792.381	47.7
792.557	48.76
792.733	48.24
792.908	48.02
793.084	47.05
793.259	46.32
793.435	48.09
793.611	49.44
793.786	46.82
793.962	46.29
794.137	44.16
794.313	45.47
794.488	44.91
794.664	43.91
794.839	44.96
795.015	45.72
795.19	45.57
795.366	44.72
795.541	43.2
795.716	43.91
795.892	43.44
796.067	45.21
796.242	44.28
796.418	43.98
796.593	45.82
796.768	43.94
796.944	44.95
797.119	44.56
797.294	45.41
797.469	45.53
797.644	45.83
797.82	46.14
797.995	46.76
798.17	46.94
798.345	45.68
798.52	45.23
798.695	46.03
798.87	43.75
799.045	43.03
799.22	43.19
799.395	42.48
799.57	41.69
799.745	44.05
799.92	43.89
800.095	43.94
800.27	45.93
800.445	46.57
800.62	47.14
800.795	48.03
800.97	48.24
801.145	48.12
801.319	50.32
801.494	50.27
801.669	48.63
801.844	47.77
802.018	46.83
802.193	44.65
802.368	44.06
802.543	42.44
802.717	45.29
802.892	44.39
803.067	44.89
803.241	44.6
803.416	45.81
803.59	46.43
803.765	47.07
803.94	47.95
804.114	50.17
804.289	51.94
804.463	53.06
804.638	51.03
804.812	52.14
804.986	50.51
805.161	49.07
805.335	48.09
805.51	48.8
805.684	48.41
805.858	49.39
806.033	48.88
806.207	45.95
806.381	44.46
806.556	44.05
806.73	46.54
806.904	47.53
807.078	48.56
807.253	49.61
807.427	48.78
807.601	47.87
807.775	47.24
807.949	47.13
808.123	48.42
808.298	50.28
808.472	51.07
808.646	50.76
808.82	52.04
808.994	51.9
809.168	53.24
809.342	56.46
809.516	56.82
809.69	54.08
809.864	54.09
810.038	55.51
810.212	55.25
810.385	53.73
810.559	54.36
810.733	54.69
810.907	53.41
811.081	50.17
811.255	47.1
811.428	48.02
811.602	50.42
811.776	51.02
811.95	51.13
812.123	53.09
812.297	53.41
812.471	49.51
812.644	48.21
812.818	51.64
812.992	54.53
813.165	52.71
813.339	50.22
813.512	54.06
813.686	55.82
813.86	56.89
814.033	55.83
814.207	55.87
814.38	60.54
814.554	59.44
814.727	55.76
814.9	54.98
815.074	56.08
815.247	59.69
815.421	56.42
815.594	53.7
815.767	50.81
815.941	49.67
816.114	48.8
816.287	47.27
816.46	46.48
816.634	46.96
816.807	46.25
816.98	47.99
817.153	46.9
817.327	46.02
817.5	48.13
817.673	49.36
817.846	48.12
818.019	50.82
818.192	50.17
818.365	49.13
818.538	50.1
818.711	49.71
818.884	48.67
819.057	50.31
819.23	52.44
819.403	48.78
819.576	47.4
819.749	47.94
819.922	45.87
820.095	45.78
820.268	47.44
820.441	46.03
820.614	45.23
820.786	44.91
820.959	43.86
821.132	40.33
821.305	39.87
821.477	39.21
821.65	39.22
821.823	38.72
821.996	38.18
822.168	37.13
822.341	36.8
822.514	36.4
822.686	36.22
822.859	35.56
823.031	35.93
823.204	35.91
823.376	35.85
823.549	34.92
823.722	34.81
823.894	35.44
824.067	35.33
824.239	35.08
824.411	35.57
824.584	35.25
824.756	35.61
824.929	35.26
825.101	35.54
825.273	34.92
825.446	36.41
825.618	36.5
825.79	35.56
825.963	35.99
826.135	36.52
826.307	36
826.479	36.57
826.652	36.63
826.824	36.56
826.996	36.06
827.168	36.8
827.34	35.39
827.512	35.23
827.684	35.26
827.856	35.2
828.029	35.9
828.201	35.68
828.373	35.39
828.545	34.44
828.717	36.03
828.889	36.68
829.061	37.03
829.232	38.21
829.404	38.42
829.576	38.99
829.748	39.56
829.92	39.03
830.092	42
830.264	42.93
830.436	44.53
830.607	43.42
830.779	44.11
830.951	45.81
831.123	45.88
831.294	46.55
831.466	48
831.638	48.16
831.809	47.66
831.981	45.67
832.153	43.55
832.324	43.82
832.496	46.63
832.667	49.29
832.839	46.7
833.011	47.82
833.182	50.09
833.354	48.72
833.525	48.47
833.697	47.68
833.868	46.6
834.039	48.03
834.211	46.88
834.382	44.86
834.554	42.83
834.725	42.11
834.896	41.55
835.068	40.89
835.239	39.48
835.41	39.23
835.581	40.09
835.753	41.36
835.924	41.28
836.095	42.99
836.266	44.32
836.438	43.22
836.609	46.9
836.78	45.63
836.951	44.65
837.122	46.84
837.293	48.25
837.464	49.67
837.635	49.19
837.806	51.17
837.977	51.95
838.148	52.62
838.319	55.15
838.49	53.27
838.661	55.31
838.832	58.86
839.003	60.46
839.174	63.27
839.345	63.08
839.516	60.66
839.687	57.44
839.857	53.46
840.028	51.48
840.199	49.08
840.37	49.88
840.54	54.78
840.711	53.41
840.882	53.56
841.053	53.37
841.223	49.88
841.394	55.26
841.564	58.72
841.735	59.57
841.906	59.3
842.076	62.51
842.247	65.55
842.417	63.31
842.588	66.88
842.758	70.89
842.929	72.57
843.099	78.43
843.27	80.31
843.44	79.33
843.611	82.92
843.781	86.83
843.951	87.2
844.122	82.77
844.292	84.99
844.462	81.53
844.633	81.32
844.803	77.58
844.973	76.14
845.144	73.33
845.314	78.09
845.484	81.96
845.654	81.94
845.824	85.06
845.995	91.83
846.165	90.78
846.335	92.35
846.505	83.52
846.675	87.76
846.845	89.02
847.015	91.96
847.185	90.95
847.355	87.72
847.525	91.68
847.695	90.9
847.865	88.99
848.035	88.97
848.205	87.89
848.375	94.72
848.545	89.31
848.715	92.73
848.884	95.99
849.054	95.26
849.224	92.79
849.394	90.92
849.564	93.13
849.733	89.65
849.903	95.22
850.073	99.05
850.243	100.5
850.412	110.66
850.582	110.61
850.752	104.99
850.921	99
851.091	103.01
851.26	103.37
851.43	97.55
851.599	98.31
851.769	97.22
851.939	91.5
852.108	86.3
852.278	78.59
852.447	74.36
852.616	77.06
852.786	79.37
852.955	78.66
853.125	78.78
853.294	76.98
853.463	80.84
853.633	88.76
853.802	94.53
853.971	96.69
854.141	103.69
854.31	111.2
854.479	120.21
854.648	113.52
854.818	113.07
854.987	121.82
855.156	116.48
855.325	100.96
855.494	93.97
855.663	97.37
855.832	94.71
856.001	97.4
856.171	94.79
856.34	85.19
856.509	87.3
856.678	91.4
856.847	82.34
857.016	83.15
857.185	91.72
857.353	95.05
857.522	95.03
857.691	98.59
857.86	97.71
858.029	95.24
858.198	95.67
858.367	93.34
858.535	84.67
858.704	84.14
858.873	90.75
859.042	89.31
859.21	87.27
859.379	83.7
859.548	83.91
859.717	82.6
859.885	83.54
860.054	91.11
860.222	91.76
860.391	104.31
860.56	110.78
860.728	102.77
860.897	110.65
861.065	105.15
861.234	108.23
861.402	101.48
861.571	104.67
861.739	109.5
861.908	110.07
862.076	114.43
862.244	106.24
862.413	102.86
862.581	103
862.749	101.18
862.918	104.22
863.086	109.37
863.254	119.25
863.423	122.86
863.591	122.49
863.759	118.95
863.927	123.78
864.096	120.17
864.264	126.5
864.432	134.47
864.6	128.7
864.768	130.79
864.936	120.63
865.104	116.98
865.272	109.92
865.44	103.3
865.608	109.01
865.776	101.71
865.944	102.71
866.112	95.5
866.28	89.28
866.448	91.47
866.616	87.64
866.784	95.1
866.952	93.94
867.12	94.58
867.288	106.27
867.455	105.71
867.623	108.48
867.791	112.59
867.959	119.89
868.127	122.18
868.294	119.16
868.462	110.04
868.63	106.03
868.797	109.44
868.965	109.37
869.133	104.16
869.3	97.14
869.468	96.16
869.636	96.62
869.803	95
869.971	93.89
870.138	103.52
870.306	109.38
870.473	115.92
870.641	107.02
870.808	112.68
870.975	112.61
871.143	110.22
871.31	112.67
871.478	111.9
871.645	118.62
871.812	123.07
871.98	113.8
872.147	110.68
872.314	102.02
872.482	108.1
872.649	101.75
872.816	98.12
872.983	107.48
873.15	103.49
873.318	102.91
873.485	93.67
873.652	92.5
873.819	87.4
873.986	96.23
874.153	99
874.32	95.92
874.487	98.32
874.654	98.17
874.821	94.01
874.988	97.86
875.155	100.94
875.322	107.77
875.489	102.05
875.656	111.75
875.823	110.46
875.99	105.53
876.157	104.1
876.324	100.37
876.49	102.66
876.657	106.27
876.824	97.71
876.991	87.99
877.157	92.99
877.324	100.63
877.491	100.92
877.658	102.14
877.824	99.41
877.991	103.47
878.157	102.73
878.324	100.78
878.491	95.17
878.657	104.3
878.824	111.51
878.99	105.17
879.157	101.25
879.323	103.26
879.49	96.32
879.656	95.57
879.823	97.34
879.989	91.69
880.156	88.41
880.322	91.86
880.488	86.04
880.655	81.56
880.821	86.78
880.987	83.89
881.154	80.27
881.32	80.82
881.486	80.62
881.652	75.52
881.819	72.65
881.985	70.31
882.151	68.24
882.317	65.1
882.483	59.45
882.649	54.98
882.816	52.6
882.982	50.65
883.148	49.27
883.314	47.65
883.48	46.54
883.646	46.95
883.812	44.42
883.978	43.58
884.144	43.35
884.31	44.23
884.476	43.66
884.642	44.99
884.807	45.32
884.973	45.77
885.139	44.89
885.305	45.32
885.471	44.23
885.637	46.34
885.802	47.05
885.968	49.64
886.134	50.97
886.3	53.51
886.465	54.17
886.631	55.18
886.797	55.15
886.962	60.35
887.128	64.12
887.293	68.31
887.459	71.73
887.625	76.27
887.79	76.45
887.956	79.06
888.121	79.77
888.287	81.78
888.452	84.86
888.618	90.27
888.783	89.53
