Data from LC_220__Reflection_1.txt Node
Date: Thu Nov 19 13:38:20 EST 2015
User: robert
Spectrometer: USB4E03001
Autoset integration time: false
Trigger mode: 4
Integration Time (sec): 1.000000E-1
Scans to average: 15
Electric dark correction enabled: true
Nonlinearity correction enabled: false
Boxcar width: 5
Stray light correction enabled: false
XAxis mode: Wavelengths
Stop averaging: false
Number of Pixels in Spectrum: 3648
>>>>>Begin Spectral Data<<<<<
177.566	593.97
177.785	1159.7
178.005	988.01
178.225	525.18
178.445	1429.63
178.665	-298100
178.885	243.83
179.105	1170.65
179.324	-709.39
179.544	-2033.87
179.764	-729.36
179.984	-951.52
180.204	-757.7
180.423	-799.49
180.643	-3945.1
180.863	-3448.36
181.083	-938.69
181.302	-625.57
181.522	-572.02
181.742	-3799.21
181.961	7442.18
182.181	5819.42
182.401	704.65
182.621	808.27
182.84	1268.6
183.06	2807.42
183.279	2409.02
183.499	1086.93
183.719	973.07
183.938	487.32
184.158	1028.6
184.377	1097.65
184.597	749.86
184.816	6290.17
185.036	25430.43
185.256	1661.29
185.475	797.63
185.695	770.69
185.914	588.86
186.134	454.2
186.353	446.92
186.572	330.18
186.792	406.52
187.011	3405.59
187.231	635.21
187.45	938.08
187.67	2177.67
187.889	36866.67
188.108	1005.49
188.328	-4747.04
188.547	-657.72
188.766	-546.8
188.986	-827.56
189.205	-1036.12
189.424	1535.85
189.644	2811.41
189.863	1306.37
190.082	1425.95
190.302	6421.1
190.521	-609.21
190.74	-2139.94
190.959	-17940.85
191.178	24663.56
191.398	-9755.44
191.617	1977.62
191.836	7459.85
192.055	-1995.54
192.274	-731.71
192.494	-1335.9
192.713	-800.5
192.932	-458.19
193.151	-409.22
193.37	-709.44
193.589	-558.79
193.808	-446.79
194.027	-580.16
194.246	-1042.65
194.465	-931.92
194.685	55987.5
194.904	915.19
195.123	522.97
195.342	343.47
195.561	289.15
195.78	364.59
195.999	531.38
196.218	968.09
196.436	1545.96
196.655	1047.68
196.874	764.63
197.093	687.45
197.312	2117.65
197.531	2182.72
197.75	4240.94
197.969	-1703.25
198.188	-1963.72
198.407	-11713.51
198.625	745.88
198.844	1178.17
199.063	2878.26
199.282	2825.37
199.501	-1828.53
199.719	-2304.68
199.938	-3605.73
200.157	3594.09
200.376	1221.67
200.594	761.07
200.813	806.86
201.032	509.75
201.251	589.24
201.469	957.45
201.688	676.32
201.907	499.61
202.125	466.34
202.344	345.34
202.563	268.49
202.781	368.66
203	310.13
203.218	294.69
203.437	873.92
203.656	555.02
203.874	385.76
204.093	412.92
204.311	419.52
204.53	413.33
204.748	470.35
204.967	636.76
205.185	442.2
205.404	583.39
205.622	786.1
205.841	497.92
206.059	487.16
206.278	512.51
206.496	658.75
206.715	1084.3
206.933	1391.1
207.151	-3010.31
207.37	-2037.24
207.588	-6796.14
207.806	5059.5
208.025	1844.39
208.243	-2532.83
208.461	-2301.83
208.68	-5320.92
208.898	8029.37
209.116	3122.49
209.335	6614.85
209.553	1859.12
209.771	4997.38
209.989	-4049.66
210.208	-2675.94
210.426	-1575.66
210.644	-1803.43
210.862	-837.29
211.081	-812.8
211.299	-442.31
211.517	-596.72
211.735	-756.34
211.953	-1787.96
212.171	1239.86
212.39	1751.83
212.608	1951.47
212.826	924.99
213.044	442.01
213.262	381.41
213.48	400.08
213.698	377.97
213.916	498.27
214.134	597.61
214.352	1228.02
214.57	-2979.22
214.788	1493.73
215.006	7561.31
215.224	-1730.29
215.442	-613.95
215.66	-633.92
215.878	1444.79
216.096	423.31
216.314	474.71
216.532	329.83
216.75	283.75
216.968	276.95
217.185	271.13
217.403	320.46
217.621	376.09
217.839	448.86
218.057	381.31
218.275	549.21
218.492	924.28
218.71	440.2
218.928	406.96
219.146	404.41
219.363	606.07
219.581	622.46
219.799	1290.96
220.017	448.81
220.234	391.86
220.452	544.05
220.67	372.74
220.887	377.99
221.105	797.21
221.323	848.84
221.54	653.56
221.758	384.32
221.976	351.04
222.193	256.22
222.411	270.14
222.629	277.67
222.846	320.28
223.064	294.11
223.281	293.1
223.499	250.33
223.716	303.26
223.934	287.45
224.151	328.53
224.369	308.64
224.586	307.15
224.804	328.61
225.021	251.46
225.239	204.23
225.456	206.46
225.674	176.16
225.891	164.88
226.108	149.7
226.326	145.4
226.543	125.54
226.76	121.95
226.978	116.98
227.195	112.18
227.413	99.83
227.63	89.86
227.847	86.66
228.064	82.16
228.282	77.46
228.499	72.51
228.716	65.43
228.934	63.87
229.151	61.91
229.368	58.22
229.585	54.05
229.802	57.88
230.02	57.3
230.237	52.61
230.454	52.76
230.671	53.91
230.888	52.13
231.105	56.75
231.323	60.69
231.54	62.56
231.757	64.07
231.974	70.35
232.191	66.52
232.408	70.43
232.625	78.87
232.842	78.91
233.059	77.54
233.276	83.11
233.493	82.25
233.71	75.96
233.927	74.31
234.144	80.27
234.361	73.16
234.578	76.72
234.795	73.37
235.012	70.05
235.229	64.83
235.446	61.22
235.663	59.18
235.879	61.37
236.096	68.86
236.313	73.04
236.53	65.27
236.747	74.04
236.964	72.45
237.181	71.95
237.397	78.07
237.614	80.23
237.831	83.36
238.048	90.26
238.264	88.38
238.481	83.69
238.698	82.01
238.915	84.09
239.131	72.22
239.348	72.41
239.565	68.84
239.781	63.62
239.998	64.05
240.215	63.25
240.431	56.53
240.648	53.06
240.865	44.12
241.081	42.2
241.298	40.71
241.514	39.68
241.731	37.2
241.947	33.83
242.164	30.5
242.38	28.78
242.597	27.7
242.814	29.36
243.03	27.48
243.246	30.59
243.463	30.5
243.679	32.9
243.896	33.23
244.112	33.66
244.329	34.39
244.545	38.65
244.762	40.27
244.978	39.81
245.194	37.89
245.411	39.36
245.627	36.27
245.843	32.95
246.06	27.99
246.276	27.54
246.492	26.4
246.709	26.18
246.925	24.73
247.141	24.14
247.357	23.33
247.574	23.77
247.79	23.65
248.006	23.01
248.222	22.33
248.439	23.51
248.655	22.9
248.871	23.78
249.087	24.18
249.303	24.66
249.519	25.03
249.736	26.3
249.952	25.12
250.168	27
250.384	29.62
250.6	32.9
250.816	35.16
251.032	36.02
251.248	34.7
251.464	35.95
251.68	31.8
251.896	29.93
252.112	29.53
252.328	27.04
252.544	27.56
252.76	26.19
252.976	25.41
253.192	22.99
253.408	22.34
253.624	25.51
253.84	25.49
254.056	32.72
254.272	34.85
254.487	39.08
254.703	42.81
254.919	42.31
255.135	44.27
255.351	42.39
255.567	46.47
255.782	47.66
255.998	42.82
256.214	43.15
256.43	39.14
256.646	41.2
256.861	35.25
257.077	36.2
257.293	36.35
257.508	38.15
257.724	37.55
257.94	33.46
258.155	32.54
258.371	32.03
258.587	29.81
258.802	26.82
259.018	23.9
259.234	22.86
259.449	20.4
259.665	18.75
259.88	17.85
260.096	16.89
260.312	16.53
260.527	16.33
260.743	15.92
260.958	15.19
261.174	16.04
261.389	17.79
261.605	18.22
261.82	19.33
262.036	20.16
262.251	20.67
262.466	22.12
262.682	23.62
262.897	24.48
263.113	25.53
263.328	27.6
263.543	28.72
263.759	27.12
263.974	27.2
264.189	26.77
264.405	27.92
264.62	27.06
264.835	28.91
265.051	30.42
265.266	30.5
265.481	31.12
265.696	32.66
265.912	31.86
266.127	31.24
266.342	29.72
266.557	31.14
266.773	28.41
266.988	28.74
267.203	26.82
267.418	25.76
267.633	24.86
267.848	24.04
268.064	22.88
268.279	21.55
268.494	22.35
268.709	23.99
268.924	24.78
269.139	25.91
269.354	26.85
269.569	26.68
269.784	25.74
269.999	27.36
270.214	27.14
270.429	28.09
270.644	28.55
270.859	27.55
271.074	27.22
271.289	25
271.504	25.19
271.719	23.7
271.934	23.17
272.149	23.12
272.363	21.51
272.578	21.71
272.793	19.52
273.008	19.87
273.223	18.33
273.438	18.16
273.653	19.61
273.867	18.27
274.082	18.72
274.297	18.65
274.512	19.12
274.726	18.62
274.941	17.47
275.156	19.73
275.371	20.02
275.585	23.04
275.8	23.17
276.015	20.53
276.229	23.2
276.444	23.91
276.659	25.79
276.873	27.3
277.088	28.79
277.302	28.93
277.517	27.65
277.732	26.83
277.946	25.63
278.161	27.71
278.375	28.89
278.59	26.4
278.804	24.35
279.019	24.41
279.233	23.1
279.448	21.84
279.662	22.29
279.877	20.87
280.091	19.43
280.306	18.52
280.52	15.53
280.735	14.67
280.949	15.22
281.163	16.84
281.378	15.58
281.592	13.91
281.806	14.61
282.021	14.73
282.235	15.16
282.449	17.83
282.664	16.65
282.878	16.98
283.092	18.8
283.307	19.41
283.521	18.28
283.735	18.31
283.949	19.24
284.164	18.51
284.378	17.69
284.592	17.36
284.806	14.83
285.02	16.03
285.234	15.72
285.449	15.91
285.663	16.17
285.877	16.48
286.091	16.71
286.305	18.04
286.519	19.21
286.733	19.25
286.947	19.89
287.161	20.15
287.375	20.53
287.589	21.38
287.803	20.8
288.017	21.58
288.231	20.83
288.445	20.64
288.659	19.46
288.873	18.91
289.087	20.92
289.301	21.27
289.515	21.75
289.729	20.53
289.943	20.69
290.157	21.29
290.371	19.35
290.584	19.69
290.798	20.63
291.012	21.36
291.226	21.6
291.44	20.87
291.654	20.8
291.867	21.17
292.081	22.45
292.295	23.12
292.509	21.26
292.722	22.54
292.936	23.15
293.15	22.3
293.364	21.75
293.577	20.68
293.791	19.68
294.005	20.71
294.218	19.8
294.432	18.03
294.645	17.43
294.859	18.61
295.073	19.83
295.286	20.51
295.5	20.66
295.713	19.94
295.927	19.6
296.14	19.61
296.354	18.72
296.568	19.36
296.781	20.6
296.994	19.78
297.208	19.11
297.421	17.89
297.635	16.95
297.848	16.22
298.062	15.68
298.275	15.49
298.489	16.36
298.702	16.36
298.915	15.09
299.129	15.92
299.342	17.36
299.555	19.12
299.769	19.58
299.982	22.06
300.195	23.27
300.409	25.36
300.622	26.84
300.835	27.99
301.048	27.83
301.262	29.51
301.475	28.36
301.688	27.21
301.901	25.6
302.115	25.29
302.328	23.62
302.541	23.11
302.754	23.54
302.967	23.22
303.18	21.31
303.393	23.01
303.607	21.7
303.82	22.11
304.033	23.95
304.246	25.59
304.459	26.14
304.672	25.55
304.885	25.87
305.098	24.04
305.311	24.07
305.524	24.37
305.737	23.86
305.95	25.54
306.163	24.75
306.376	22.72
306.589	21.56
306.802	21.09
307.015	22.35
307.228	22.71
307.44	23.01
307.653	22.15
307.866	22.2
308.079	21.81
308.292	21.2
308.505	22.19
308.718	22.33
308.93	22.59
309.143	22.94
309.356	21.64
309.569	21.58
309.781	22.61
309.994	23.63
310.207	22.13
310.42	21.34
310.632	21.21
310.845	20.3
311.058	20.14
311.27	19.91
311.483	19.97
311.696	19.96
311.908	19.45
312.121	18.54
312.333	19.23
312.546	20.16
312.759	20.13
312.971	19.9
313.184	21.27
313.396	21.62
313.609	21.09
313.821	21.05
314.034	21.81
314.246	22.37
314.459	22.6
314.671	21.95
314.884	21.75
315.096	22.98
315.309	23.5
315.521	22.7
315.733	23.31
315.946	22.86
316.158	23.42
316.371	23.06
316.583	23.05
316.795	22.85
317.008	22.24
317.22	22.62
317.432	22.15
317.644	22.51
317.857	22.77
318.069	21.93
318.281	24.25
318.494	23.09
318.706	24.18
318.918	25.46
319.13	24.93
319.342	24.56
319.555	24.13
319.767	24.55
319.979	24.12
320.191	23.65
320.403	24.35
320.615	21.81
320.827	23.31
321.039	22.88
321.252	21.76
321.464	23.17
321.676	24.62
321.888	24.19
322.1	23.54
322.312	23.1
322.524	23.96
322.736	21.36
322.948	22.83
323.16	21.9
323.372	21.15
323.584	21.68
323.796	21.29
324.007	20.02
324.219	21.16
324.431	21.46
324.643	21.52
324.855	20.67
325.067	21.41
325.279	20.95
325.491	20.15
325.702	20.6
325.914	20.14
326.126	20.96
326.338	20.31
326.55	19.96
326.761	20.15
326.973	19.77
327.185	20.82
327.396	22.13
327.608	22.48
327.82	23.04
328.032	22.36
328.243	23.49
328.455	22.4
328.666	24.19
328.878	24.65
329.09	23.64
329.301	24.14
329.513	23.44
329.725	23.22
329.936	22.31
330.148	23.4
330.359	24.48
330.571	24.96
330.782	25.21
330.994	24.78
331.205	24.88
331.417	24.9
331.628	23.83
331.84	23.86
332.051	24.12
332.262	25.39
332.474	24.02
332.685	24.2
332.897	22.51
333.108	22.38
333.319	21.49
333.531	21.45
333.742	21.55
333.953	22.34
334.165	21.98
334.376	21.83
334.587	20.96
334.799	21.53
335.01	20.46
335.221	21.4
335.432	20.62
335.644	21.26
335.855	21.05
336.066	22.25
336.277	22.9
336.488	21.99
336.7	21.46
336.911	22.13
337.122	21.77
337.333	22.69
337.544	21.74
337.755	22.47
337.966	22.22
338.177	21.47
338.388	20.36
338.599	20.62
338.811	21.71
339.022	21.93
339.233	22.46
339.444	22.62
339.655	22.35
339.866	23.17
340.076	23.21
340.287	23.08
340.498	23.22
340.709	23.18
340.92	22.22
341.131	21.94
341.342	22.29
341.553	20.94
341.764	21.01
341.975	21.14
342.185	20.54
342.396	20.27
342.607	20.71
342.818	21.03
343.029	20.68
343.239	20.36
343.45	20.27
343.661	20
343.872	19.87
344.082	20.22
344.293	19.19
344.504	19.8
344.714	20.44
344.925	20.22
345.136	19.22
345.346	19.73
345.557	19.97
345.768	20.75
345.978	20.8
346.189	21.67
346.399	21.11
346.61	21.53
346.821	20.93
347.031	21.24
347.242	21.03
347.452	22.01
347.663	21.71
347.873	22.63
348.084	20.87
348.294	21.18
348.504	20.81
348.715	21.54
348.925	21.75
349.136	21.46
349.346	20.12
349.557	20.22
349.767	19.63
349.977	19.7
350.188	19.42
350.398	20.6
350.608	20.38
350.819	20.37
351.029	19.43
351.239	19.6
351.449	19.17
351.66	19.87
351.87	20.1
352.08	20.31
352.29	20.61
352.501	19.72
352.711	20.92
352.921	20.62
353.131	20.61
353.341	20.35
353.552	19.61
353.762	19.37
353.972	19.05
354.182	19.23
354.392	19.89
354.602	20.08
354.812	20.54
355.022	18.8
355.232	19.01
355.442	18.94
355.652	18.92
355.862	19.33
356.072	20.62
356.282	19.98
356.492	19.76
356.702	18.76
356.912	18.83
357.122	18.79
357.332	18.74
357.542	18.5
357.752	18.45
357.962	18.5
358.171	18.16
358.381	17.44
358.591	17.21
358.801	17.08
359.011	17.19
359.221	16.84
359.43	17.16
359.64	16.66
359.85	16.67
360.06	15.89
360.269	15.89
360.479	16.22
360.689	16.1
360.899	16.11
361.108	16.07
361.318	16.41
361.528	16.43
361.737	15.85
361.947	16.16
362.156	16.06
362.366	16.28
362.576	16.27
362.785	16.04
362.995	16.52
363.204	17.06
363.414	17.2
363.623	17.1
363.833	17.2
364.042	17.51
364.252	17.49
364.461	17.57
364.671	18.03
364.88	17.87
365.09	18.45
365.299	18.44
365.509	18.3
365.718	17.91
365.927	17.71
366.137	17.87
366.346	16.87
366.555	16.85
366.765	16.9
366.974	16.82
367.183	17.31
367.393	16.44
367.602	15.97
367.811	16.06
368.021	15.86
368.23	15.74
368.439	15.31
368.648	15.95
368.857	16.59
369.067	16.52
369.276	16
369.485	16.11
369.694	15.97
369.903	15.68
370.112	15.58
370.321	15.71
370.531	15.87
370.74	15.28
370.949	14.7
371.158	14.39
371.367	13.72
371.576	14.2
371.785	13.71
371.994	14.17
372.203	14.27
372.412	14.34
372.621	14.58
372.83	14.86
373.039	15.51
373.248	15.92
373.457	16.19
373.666	16.58
373.874	15.72
374.083	15.57
374.292	15.02
374.501	14.37
374.71	14.34
374.919	13.71
375.128	13.38
375.336	13.18
375.545	13.48
375.754	12.75
375.963	12.55
376.171	13.04
376.38	13.6
376.589	13.48
376.798	13.89
377.006	14.23
377.215	14.62
377.424	14.42
377.632	14.5
377.841	13.6
378.05	14.25
378.258	14.48
378.467	14.49
378.675	14.3
378.884	14.91
379.093	14.97
379.301	14.58
379.51	14.15
379.718	13.95
379.927	13.97
380.135	14.69
380.344	14.28
380.552	14.28
380.761	14.38
380.969	14.3
381.177	13.96
381.386	14.33
381.594	13.95
381.803	13.95
382.011	14.45
382.219	14.29
382.428	14.31
382.636	14.43
382.845	14.11
383.053	14.03
383.261	13.53
383.469	13.37
383.678	12.66
383.886	12.46
384.094	12.84
384.302	12.38
384.511	12.11
384.719	11.57
384.927	11.47
385.135	11.86
385.343	11.63
385.552	12.07
385.76	12.17
385.968	12.65
386.176	12.6
386.384	12.13
386.592	12.57
386.8	13.08
387.008	13.33
387.216	13.2
387.424	13.24
387.633	13.37
387.841	13.04
388.049	13.13
388.257	12.58
388.465	12.68
388.672	13.13
388.88	12.98
389.088	12.38
389.296	12.19
389.504	11.75
389.712	11.74
389.92	11.38
390.128	11.31
390.336	10.89
390.544	11.19
390.751	11.31
390.959	10.96
391.167	10.83
391.375	11.14
391.583	10.95
391.79	11.37
391.998	11.01
392.206	11.28
392.414	11.18
392.621	11.29
392.829	11.07
393.037	10.89
393.244	10.82
393.452	10.75
393.66	10.57
393.867	10.78
394.075	10.43
394.283	10.47
394.49	10.19
394.698	10.54
394.905	10.49
395.113	10.7
395.32	10.82
395.528	11.16
395.735	11.13
395.943	11.12
396.15	10.99
396.358	11.31
396.565	11.22
396.773	11.06
396.98	11.01
397.188	10.75
397.395	10.52
397.602	10.75
397.81	10.52
398.017	10.69
398.225	10.56
398.432	10.75
398.639	10.38
398.847	10.42
399.054	10.53
399.261	10.32
399.468	10.67
399.676	10.64
399.883	10.47
400.09	10.38
400.297	10.52
400.505	10.47
400.712	10.5
400.919	10.75
401.126	10.74
401.333	10.95
401.54	10.92
401.748	10.74
401.955	10.84
402.162	10.66
402.369	10.49
402.576	10.25
402.783	9.9
402.99	9.86
403.197	9.71
403.404	9.86
403.611	9.91
403.818	10.11
404.025	9.93
404.232	9.82
404.439	9.92
404.646	9.79
404.853	9.66
405.06	9.87
405.267	9.77
405.474	9.95
405.681	9.71
405.887	9.41
406.094	9.24
406.301	9.84
406.508	9.93
406.715	10.12
406.922	10.41
407.128	10.56
407.335	10.59
407.542	10.75
407.749	10.48
407.955	10.85
408.162	10.75
408.369	10.72
408.575	10.22
408.782	9.97
408.989	9.55
409.195	9.46
409.402	9.48
409.609	9.77
409.815	9.64
410.022	9.61
410.228	9.4
410.435	9.82
410.642	9.47
410.848	9.7
411.055	9.84
411.261	10.29
411.468	10.13
411.674	9.78
411.881	9.48
412.087	9.33
412.294	9.42
412.5	9.19
412.706	9.17
412.913	9.87
413.119	9.81
413.326	9.97
413.532	9.73
413.738	9.93
413.945	9.84
414.151	9.92
414.357	9.75
414.564	9.65
414.77	9.57
414.976	9.31
415.182	9.27
415.389	9.12
415.595	8.66
415.801	8.59
416.007	8.64
416.214	8.91
416.42	8.68
416.626	8.89
416.832	8.85
417.038	8.98
417.244	9.08
417.45	8.54
417.657	8.45
417.863	8.57
418.069	8.63
418.275	8.59
418.481	8.51
418.687	8.67
418.893	8.59
419.099	8.55
419.305	8.54
419.511	8.51
419.717	8.73
419.923	8.68
420.129	8.59
420.335	8.46
420.541	8.31
420.746	8.26
420.952	8.14
421.158	8.07
421.364	8.1
421.57	7.97
421.776	7.92
421.982	7.89
422.187	7.99
422.393	7.99
422.599	7.98
422.805	8.02
423.01	7.96
423.216	8.18
423.422	8.19
423.628	8.2
423.833	8.25
424.039	8.24
424.245	8.23
424.45	8.09
424.656	8.17
424.862	8.12
425.067	8.21
425.273	8.22
425.478	8.21
425.684	8.36
425.889	8.46
426.095	8.47
426.301	8.49
426.506	8.51
426.712	8.55
426.917	8.63
427.123	8.6
427.328	8.51
427.533	8.77
427.739	8.62
427.944	8.57
428.15	8.46
428.355	8.38
428.561	8.4
428.766	8.37
428.971	8.56
429.177	8.43
429.382	8.68
429.587	8.75
429.793	8.54
429.998	8.46
430.203	8.44
430.408	8.49
430.614	8.6
430.819	8.59
431.024	8.52
431.229	8.62
431.434	8.79
431.64	8.83
431.845	9.08
432.05	9.1
432.255	9.18
432.46	9.18
432.665	9.01
432.87	9.02
433.076	9.06
433.281	9.06
433.486	8.92
433.691	8.8
433.896	8.65
434.101	8.33
434.306	8.37
434.511	8.19
434.716	7.99
434.921	8.12
435.126	8.2
435.331	8.02
435.535	7.83
435.74	7.96
435.945	7.91
436.15	8.07
436.355	8.14
436.56	8.01
436.765	8.28
436.97	8.41
437.174	8.44
437.379	8.45
437.584	8.72
437.789	8.93
437.993	8.9
438.198	8.8
438.403	8.6
438.608	8.49
438.812	8.5
439.017	8.4
439.222	8.4
439.426	8.36
439.631	8.17
439.836	8.03
440.04	7.98
440.245	7.93
440.45	7.94
440.654	7.98
440.859	8.06
441.063	8.02
441.268	7.99
441.472	8.04
441.677	8.09
441.881	8.23
442.086	8.27
442.29	8.38
442.495	8.32
442.699	8.56
442.904	8.49
443.108	8.52
443.312	8.62
443.517	8.71
443.721	8.56
443.925	8.44
444.13	8.38
444.334	8.2
444.538	8.04
444.743	8.12
444.947	7.89
445.151	7.9
445.356	7.96
445.56	7.97
445.764	7.77
445.968	7.66
446.173	7.71
446.377	7.58
446.581	7.69
446.785	7.76
446.989	7.73
447.193	7.81
447.398	7.93
447.602	7.93
447.806	7.97
448.01	8.11
448.214	8.44
448.418	8.44
448.622	8.7
448.826	8.76
449.03	8.77
449.234	8.82
449.438	8.8
449.642	8.7
449.846	8.71
450.05	8.6
450.254	8.55
450.458	8.36
450.662	8.36
450.866	8.2
451.069	8.09
451.273	7.98
451.477	7.94
451.681	8.02
451.885	8.04
452.089	8.05
452.292	8.06
452.496	8.14
452.7	8.25
452.904	8.06
453.107	8.1
453.311	8.2
453.515	8.41
453.719	8.47
453.922	8.42
454.126	8.33
454.33	8.25
454.533	8.22
454.737	8.17
454.94	8.01
455.144	8.03
455.348	7.99
455.551	7.9
455.755	7.68
455.958	7.82
456.162	7.66
456.365	7.74
456.569	7.7
456.772	7.7
456.976	7.72
457.179	7.74
457.383	7.91
457.586	7.79
457.79	7.85
457.993	7.86
458.196	7.61
458.4	7.8
458.603	7.79
458.807	7.62
459.01	7.62
459.213	7.56
459.417	7.63
459.62	7.57
459.823	7.5
460.026	7.45
460.23	7.43
460.433	7.48
460.636	7.34
460.839	7.36
461.042	7.4
461.246	7.39
461.449	7.36
461.652	7.25
461.855	7.22
462.058	7.3
462.261	7.25
462.464	7.25
462.668	7.14
462.871	7.34
463.074	7.31
463.277	7.39
463.48	7.48
463.683	7.59
463.886	7.57
464.089	7.8
464.292	7.86
464.495	7.9
464.698	8
464.901	8.32
465.104	8.5
465.306	8.7
465.509	8.62
465.712	8.55
465.915	8.46
466.118	8.67
466.321	8.55
466.524	8.64
466.726	8.71
466.929	8.76
467.132	8.38
467.335	8.14
467.538	7.82
467.74	8.03
467.943	7.98
468.146	8.05
468.348	7.83
468.551	7.78
468.754	7.64
468.956	7.54
469.159	7.52
469.362	7.86
469.564	7.97
469.767	8.11
469.969	8.09
470.172	8.14
470.375	8.1
470.577	8.26
470.78	8.29
470.982	8.34
471.185	8.33
471.387	8.16
471.59	7.98
471.792	7.84
471.995	7.77
472.197	7.67
472.399	7.5
472.602	7.59
472.804	7.52
473.007	7.4
473.209	7.24
473.411	7.25
473.614	7.39
473.816	7.26
474.018	7.34
474.22	7.3
474.423	7.4
474.625	7.65
474.827	7.37
475.03	7.24
475.232	7.56
475.434	7.78
475.636	7.78
475.838	7.73
476.04	7.77
476.243	7.82
476.445	7.84
476.647	7.83
476.849	7.69
477.051	7.84
477.253	8.13
477.455	7.95
477.657	7.85
477.859	7.84
478.061	7.69
478.263	7.63
478.465	7.44
478.667	7.33
478.869	7.27
479.071	7.28
479.273	7.3
479.475	7.17
479.677	7.18
479.879	7.17
480.081	7.29
480.283	7.44
480.485	7.42
480.686	7.57
480.888	7.74
481.09	7.73
481.292	7.53
481.494	7.44
481.695	7.42
481.897	7.34
482.099	7.22
482.301	7.12
482.502	7.01
482.704	7.06
482.906	7.01
483.107	6.94
483.309	6.82
483.511	6.87
483.712	6.77
483.914	6.67
484.115	6.64
484.317	6.63
484.519	6.57
484.72	6.55
484.922	6.49
485.123	6.44
485.325	6.43
485.526	6.45
485.728	6.49
485.929	6.55
486.131	6.62
486.332	6.66
486.534	6.63
486.735	6.71
486.936	6.76
487.138	6.78
487.339	6.76
487.541	6.79
487.742	6.78
487.943	6.81
488.144	6.81
488.346	6.86
488.547	6.86
488.748	6.95
488.95	6.91
489.151	6.9
489.352	6.93
489.553	6.99
489.755	7.06
489.956	7.15
490.157	7.16
490.358	7.2
490.559	7.14
490.76	7.09
490.961	7.02
491.163	7.1
491.364	7.15
491.565	7.07
491.766	7.04
491.967	7.03
492.168	6.96
492.369	6.86
492.57	6.86
492.771	6.94
492.972	6.95
493.173	7.06
493.374	7.14
493.575	7.11
493.776	7.28
493.976	7.32
494.177	7.46
494.378	7.58
494.579	7.67
494.78	7.66
494.981	7.46
495.182	7.55
495.382	7.72
495.583	7.58
495.784	7.71
495.985	7.78
496.185	7.92
496.386	7.61
496.587	7.69
496.788	7.65
496.988	7.73
497.189	7.9
497.39	7.9
497.59	7.8
497.791	7.92
497.992	7.84
498.192	7.77
498.393	7.74
498.593	7.75
498.794	7.67
498.994	7.81
499.195	7.86
499.395	8
499.596	8.13
499.796	8.01
499.997	7.91
500.197	7.94
500.398	7.96
500.598	7.98
500.799	8.15
500.999	8.24
501.199	8.25
501.4	8.31
501.6	8.12
501.801	8.02
502.001	8.1
502.201	8.12
502.402	8.2
502.602	8.09
502.802	8.13
503.002	8.14
503.203	8.11
503.403	8.12
503.603	8.05
503.803	8.01
504.003	8.2
504.204	8.29
504.404	8.46
504.604	8.42
504.804	8.7
505.004	8.75
505.204	8.65
505.404	8.58
505.604	8.57
505.804	8.54
506.005	8.79
506.205	8.66
506.405	8.77
506.605	8.65
506.805	8.74
507.005	8.59
507.204	8.56
507.404	8.54
507.604	8.63
507.804	8.66
508.004	8.8
508.204	8.63
508.404	8.6
508.604	8.5
508.804	8.55
509.003	8.42
509.203	8.42
509.403	8.31
509.603	8.32
509.803	8.3
510.002	8.21
510.202	8.15
510.402	8.17
510.602	8.17
510.801	8.31
511.001	8.26
511.201	8.28
511.4	8.27
511.6	8.4
511.8	8.37
511.999	8.6
512.199	8.63
512.398	8.62
512.598	8.79
512.797	8.92
512.997	8.79
513.197	8.72
513.396	8.8
513.596	8.81
513.795	8.95
513.994	9.03
514.194	8.83
514.393	8.95
514.593	9.13
514.792	8.97
514.992	8.91
515.191	9.05
515.39	9.2
515.59	9.43
515.789	9.65
515.988	9.58
516.188	9.69
516.387	9.68
516.586	9.68
516.786	9.49
516.985	9.51
517.184	9.57
517.383	9.58
517.582	9.5
517.782	9.34
517.981	9.02
518.18	8.88
518.379	8.87
518.578	8.79
518.777	8.77
518.976	8.77
519.176	8.76
519.375	8.72
519.574	8.67
519.773	8.75
519.972	8.8
520.171	8.93
520.37	9.02
520.569	9.02
520.768	9.1
520.967	9.13
521.166	9.29
521.365	9.34
521.564	9.44
521.762	9.39
521.961	9.44
522.16	9.33
522.359	9.42
522.558	9.35
522.757	9.38
522.956	9.43
523.154	9.46
523.353	9.38
523.552	9.38
523.751	9.33
523.949	9.28
524.148	9.35
524.347	9.46
524.546	9.45
524.744	9.55
524.943	9.57
525.142	9.63
525.34	9.65
525.539	9.6
525.737	9.64
525.936	9.64
526.135	9.84
526.333	9.72
526.532	9.65
526.73	9.67
526.929	9.69
527.127	9.59
527.326	9.49
527.524	9.48
527.723	9.56
527.921	9.6
528.12	9.57
528.318	9.46
528.516	9.45
528.715	9.43
528.913	9.41
529.112	9.43
529.31	9.5
529.508	9.5
529.707	9.57
529.905	9.53
530.103	9.5
530.301	9.49
530.5	9.5
530.698	9.58
530.896	9.74
531.094	9.82
531.293	9.78
531.491	9.79
531.689	9.87
531.887	9.85
532.085	9.97
532.283	9.96
532.481	9.98
532.68	10.13
532.878	10.14
533.076	10.11
533.274	10.15
533.472	10.17
533.67	10.18
533.868	10.29
534.066	10.29
534.264	10.28
534.462	10.38
534.66	10.55
534.858	10.54
535.056	10.57
535.253	10.57
535.451	10.61
535.649	10.73
535.847	10.89
536.045	10.8
536.243	11.01
536.441	11.03
536.638	11.06
536.836	10.95
537.034	11.03
537.232	11.01
537.43	11.08
537.627	11.09
537.825	11.23
538.023	11.22
538.22	11.45
538.418	11.38
538.616	11.5
538.813	11.6
539.011	11.73
539.209	11.81
539.406	11.91
539.604	12.08
539.801	12.15
539.999	11.96
540.196	11.93
540.394	11.91
540.591	11.9
540.789	11.94
540.986	11.96
541.184	12.03
541.381	12.07
541.579	12.01
541.776	11.94
541.974	11.95
542.171	12.08
542.368	12.2
542.566	12.24
542.763	12.2
542.96	12.23
543.158	12.3
543.355	12.31
543.552	12.31
543.75	12.57
543.947	12.67
544.144	12.75
544.341	12.74
544.539	12.77
544.736	12.83
544.933	12.99
545.13	13.09
545.327	13.07
545.524	13.09
545.722	13.28
545.919	13.2
546.116	13.19
546.313	13.16
546.51	13.31
546.707	13.42
546.904	13.45
547.101	13.55
547.298	13.6
547.495	13.68
547.692	13.8
547.889	13.78
548.086	13.87
548.283	14.18
548.48	14.38
548.677	14.4
548.874	14.44
549.07	14.58
549.267	14.69
549.464	14.72
549.661	14.76
549.858	14.96
550.055	15.09
550.251	15.36
550.448	15.27
550.645	15.36
550.842	15.6
551.038	15.81
551.235	15.93
551.432	15.98
551.628	16.08
551.825	16.47
552.022	16.49
552.218	16.55
552.415	16.68
552.612	16.81
552.808	16.77
553.005	16.6
553.201	16.51
553.398	16.41
553.594	16.58
553.791	16.62
553.987	16.5
554.184	16.45
554.38	16.56
554.577	16.44
554.773	16.56
554.97	16.85
555.166	17.27
555.362	17.39
555.559	17.58
555.755	17.66
555.952	17.91
556.148	18.21
556.344	18.44
556.541	18.59
556.737	18.65
556.933	18.84
557.129	18.88
557.326	18.94
557.522	19.01
557.718	19.25
557.914	19.39
558.11	19.62
558.307	19.56
558.503	19.68
558.699	19.86
558.895	20.15
559.091	20.16
559.287	20.36
559.483	20.47
559.679	20.79
559.876	20.92
560.072	20.94
560.268	20.86
560.464	20.9
560.66	21.1
560.856	20.96
561.052	20.93
561.247	20.93
561.443	20.82
561.639	20.69
561.835	20.57
562.031	20.62
562.227	20.54
562.423	20.45
562.619	20.56
562.815	20.71
563.01	21.12
563.206	21.37
563.402	21.46
563.598	21.82
563.793	22.01
563.989	22.11
564.185	22.2
564.381	22.55
564.576	22.87
564.772	23.22
564.968	23.29
565.163	23.09
565.359	22.91
565.555	23.14
565.75	23.26
565.946	23.45
566.141	23.68
566.337	23.72
566.532	23.85
566.728	23.97
566.923	24
567.119	24
567.314	24.17
567.51	24.49
567.705	24.56
567.901	24.64
568.096	24.8
568.292	25
568.487	25.15
568.682	25.22
568.878	25.31
569.073	25.36
569.268	25.57
569.464	25.74
569.659	25.9
569.854	26
570.05	26.05
570.245	26.26
570.44	26.22
570.635	26.32
570.831	26.5
571.026	26.77
571.221	26.93
571.416	27.01
571.611	27.07
571.806	27.08
572.002	27.23
572.197	27.17
572.392	27.06
572.587	27.15
572.782	27.33
572.977	27.42
573.172	27.34
573.367	27.49
573.562	27.55
573.757	27.63
573.952	27.62
574.147	27.81
574.342	28.05
574.537	28.18
574.732	28.28
574.927	28.34
575.121	28.51
575.316	28.58
575.511	28.57
575.706	28.62
575.901	28.82
576.096	29.15
576.29	29.14
576.485	29.37
576.68	29.72
576.875	29.83
577.069	29.82
577.264	29.91
577.459	30.24
577.654	30.19
577.848	30.25
578.043	30.27
578.238	30.53
578.432	30.37
578.627	30.25
578.821	30.15
579.016	30.24
579.21	30.29
579.405	29.97
579.6	29.8
579.794	30.16
579.989	30.4
580.183	30.47
580.378	30.13
580.572	30.54
580.766	30.85
580.961	30.71
581.155	30.91
581.35	31.35
581.544	31.75
581.738	31.99
581.933	31.89
582.127	32.01
582.321	31.9
582.516	32.21
582.71	32
582.904	32.03
583.099	32.31
583.293	32.27
583.487	32.41
583.681	32.73
583.875	32.58
584.07	32.54
584.264	32.63
584.458	33.03
584.652	32.95
584.846	33.29
585.04	33.06
585.234	33.41
585.428	33.45
585.623	33.27
585.817	32.94
586.011	33.34
586.205	33.69
586.399	33.69
586.593	33.84
586.787	34.02
586.981	34.11
587.174	34.5
587.368	34.36
587.562	34.52
587.756	34.71
587.95	35.01
588.144	34.84
588.338	34.94
588.532	34.98
588.725	35.06
588.919	35.14
589.113	35.01
589.307	34.84
589.501	34.7
589.694	34.9
589.888	34.8
590.082	34.59
590.275	34.81
590.469	34.93
590.663	35.08
590.856	34.92
591.05	35.02
591.244	35.34
591.437	35.83
591.631	36.04
591.824	35.76
592.018	36.01
592.212	36.3
592.405	36.37
592.599	36.29
592.792	36.15
592.986	36.29
593.179	36.05
593.372	35.89
593.566	35.72
593.759	35.83
593.953	35.95
594.146	35.8
594.339	35.74
594.533	35.68
594.726	35.6
594.92	35.91
595.113	36
595.306	36.46
595.499	36.46
595.693	36.38
595.886	36.48
596.079	36.57
596.272	36.49
596.466	36.46
596.659	36.61
596.852	36.73
597.045	36.78
597.238	36.71
597.431	36.37
597.624	36.43
597.818	36.62
598.011	36.56
598.204	36.66
598.397	36.75
598.59	36.92
598.783	36.94
598.976	36.94
599.169	36.8
599.362	36.79
599.555	37.14
599.748	37.35
599.941	37.35
600.134	37.34
600.326	37.41
600.519	37.8
600.712	37.91
600.905	37.68
601.098	38.03
601.291	38.05
601.483	38.25
601.676	38.1
601.869	37.94
602.062	37.95
602.255	38.06
602.447	37.99
602.64	37.81
602.833	37.82
603.025	38.01
603.218	37.73
603.411	37.63
603.603	37.49
603.796	37.75
603.989	37.76
604.181	37.52
604.374	37.62
604.566	37.7
604.759	37.75
604.951	37.64
605.144	37.5
605.336	37.94
605.529	38.12
605.721	38.06
605.914	37.79
606.106	37.86
606.299	38.42
606.491	38.2
606.683	38.21
606.876	38.22
607.068	38.33
607.26	38.56
607.453	38.23
607.645	38.34
607.837	38.69
608.03	38.96
608.222	39.06
608.414	38.71
608.606	39
608.799	39.23
608.991	39.28
609.183	39.46
609.375	39.47
609.567	39.44
609.759	39.37
609.952	39.43
610.144	39.43
610.336	39.45
610.528	39.44
610.72	39.45
610.912	39.29
611.104	39.41
611.296	39.39
611.488	39.62
611.68	39.55
611.872	39.61
612.064	39.67
612.256	39.75
612.448	39.63
612.64	39.89
612.832	40.07
613.023	40.39
613.215	40.44
613.407	40.27
613.599	40.29
613.791	40.54
613.983	40.64
614.174	40.44
614.366	40.54
614.558	41.02
614.75	40.7
614.941	40.41
615.133	40.37
615.325	40.55
615.516	40.68
615.708	40.49
615.9	40.4
616.091	40.44
616.283	40.57
616.475	40.34
616.666	40.52
616.858	41.1
617.049	41.17
617.241	41.08
617.432	40.57
617.624	40.74
617.815	40.91
618.007	41.16
618.198	41.03
618.39	40.98
618.581	41.09
618.773	40.74
618.964	40.42
619.155	40.79
619.347	40.59
619.538	40.9
619.729	40.91
619.921	40.91
620.112	40.88
620.303	40.85
620.494	41.09
620.686	41.31
620.877	41.28
621.068	41.33
621.259	41.07
621.451	41.51
621.642	41.58
621.833	41.24
622.024	41.39
622.215	41.43
622.406	41.58
622.597	41.39
622.788	41.37
622.98	41.39
623.171	41.31
623.362	41.59
623.553	41.58
623.744	41.52
623.935	41.8
624.126	41.44
624.317	41.25
624.508	41.45
624.698	41.49
624.889	41.32
625.08	41.76
625.271	41.95
625.462	41.79
625.653	41.76
625.844	41.56
626.034	41.54
626.225	41.98
626.416	42
626.607	41.89
626.798	42.12
626.988	42.15
627.179	41.88
627.37	41.8
627.56	41.89
627.751	41.62
627.942	42.1
628.132	41.88
628.323	41.69
628.514	41.95
628.704	41.73
628.895	41.57
629.085	41.71
629.276	41.58
629.466	41.54
629.657	41.51
629.847	41.67
630.038	41.43
630.228	41.9
630.419	42.15
630.609	42.13
630.8	42.78
630.99	42.91
631.181	42.96
631.371	43.39
631.561	43.67
631.752	43.67
631.942	43.85
632.132	44.17
632.323	44.08
632.513	44.05
632.703	43.64
632.893	43.34
633.084	43.43
633.274	43.4
633.464	42.92
633.654	42.95
633.844	43.06
634.034	42.98
634.225	42.58
634.415	42.55
634.605	42.56
634.795	42.88
634.985	42.91
635.175	42.68
635.365	42.49
635.555	42.88
635.745	42.74
635.935	42.75
636.125	42.71
636.315	43.08
636.505	43.55
636.695	43.42
636.885	43.45
637.075	43.48
637.265	43.75
637.455	44.39
637.644	44.36
637.834	44.72
638.024	44.47
638.214	44.88
638.404	44.83
638.593	44.69
638.783	44.81
638.973	45.02
639.163	44.94
639.352	44.93
639.542	44.77
639.732	45.09
639.921	44.94
640.111	45.24
640.301	45.02
640.49	45.06
640.68	44.85
640.87	44.62
641.059	44.35
641.249	44.83
641.438	45.04
641.628	44.95
641.817	44.66
642.007	44.73
642.196	44.77
642.386	44.81
642.575	45.12
642.764	45.25
642.954	45.37
643.143	45.41
643.333	45.19
643.522	44.86
643.711	44.69
643.901	44.75
644.09	44.72
644.279	44.84
644.469	44.96
644.658	44.36
644.847	44.45
645.036	44.69
645.226	44.9
645.415	44.94
645.604	44.84
645.793	45.34
645.982	45.19
646.171	45.03
646.361	44.72
646.55	44.7
646.739	45.03
646.928	44.78
647.117	44.73
647.306	44.58
647.495	44.45
647.684	44.85
647.873	44.71
648.062	45.28
648.251	45.65
648.44	45.62
648.629	45.54
648.818	45.89
649.007	45.88
649.196	45.89
649.384	45.93
649.573	45.83
649.762	45.81
649.951	45.39
650.14	45.18
650.328	44.73
650.517	44.86
650.706	45.1
650.895	44.72
651.083	45.23
651.272	45.28
651.461	45.65
651.65	45.82
651.838	45.65
652.027	45.55
652.216	45.48
652.404	45.68
652.593	46.01
652.781	45.88
652.97	46.13
653.158	45.7
653.347	45.83
653.535	45.46
653.724	45.46
653.912	46.18
654.101	46.84
654.289	46.83
654.478	47
654.666	47.2
654.855	47.32
655.043	47.02
655.231	47.18
655.42	47.25
655.608	47.26
655.796	47.64
655.985	46.83
656.173	46.45
656.361	46.35
656.55	46.25
656.738	45.83
656.926	46.05
657.114	46.33
657.302	46.29
657.491	45.85
657.679	45.46
657.867	45.4
658.055	45.53
658.243	45.29
658.431	45.46
658.619	45.58
658.807	45.62
658.996	45.44
659.184	45.3
659.372	45.43
659.56	45.5
659.748	46.15
659.936	46.44
660.124	46.25
660.311	46.71
660.499	46.69
660.687	46.61
660.875	46.97
661.063	46.88
661.251	47.29
661.439	47.52
661.627	48.04
661.814	47.74
662.002	47.44
662.19	48.08
662.378	48.19
662.565	48.44
662.753	48.82
662.941	48.62
663.129	48.63
663.316	48.39
663.504	47.95
663.692	48.15
663.879	48.47
664.067	48.26
664.254	47.81
664.442	48.03
664.63	47.74
664.817	47.26
665.005	47.16
665.192	46.96
665.38	47.05
665.567	47.39
665.755	46.87
665.942	46.72
666.13	47.04
666.317	47.28
666.504	46.62
666.692	46.95
666.879	46.95
667.067	47.18
667.254	47.84
667.441	47.66
667.629	47.95
667.816	48.05
668.003	48.09
668.19	48.17
668.378	48.32
668.565	48.73
668.752	48.66
668.939	48.91
669.127	49.14
669.314	48.68
669.501	48.54
669.688	48.82
669.875	48.84
670.062	49.08
670.249	49.25
670.436	48.92
670.623	48.71
670.81	48.59
670.997	48.6
671.184	48.1
671.371	48.21
671.558	48.49
671.745	47.8
671.932	47.9
672.119	47.38
672.306	47.2
672.493	47.95
672.68	48.25
672.867	48.35
673.054	48.14
673.24	48.6
673.427	48.63
673.614	48.68
673.801	48.71
673.988	48.45
674.174	49.01
674.361	49.01
674.548	48.52
674.734	47.78
674.921	47.74
675.108	48.21
675.294	48.15
675.481	48.47
675.668	48.63
675.854	48.88
676.041	48.82
676.227	48.22
676.414	48.08
676.601	48.08
676.787	48.67
676.974	49.3
677.16	49.16
677.347	49.23
677.533	49.41
677.719	49.13
677.906	48.94
678.092	49.12
678.279	49.26
678.465	49.42
678.651	49.45
678.838	49.49
679.024	48.65
679.21	48.2
679.397	47.65
679.583	47.47
679.769	47.44
679.955	47.55
680.142	47.22
680.328	47.23
680.514	47.17
680.7	47.1
680.886	47.19
681.073	47.75
681.259	48.14
681.445	48.36
681.631	48.13
681.817	47.93
682.003	47.95
682.189	48.27
682.375	48.53
682.561	48.91
682.747	49.05
682.933	49.06
683.119	48.45
683.305	48.58
683.491	48.82
683.677	49.09
683.863	49.48
684.049	50.07
684.235	50.33
684.42	50.84
684.606	50
684.792	50.38
684.978	50.38
685.164	50.82
685.349	50.58
685.535	50.68
685.721	50.73
685.907	50.64
686.092	50.39
686.278	50.6
686.464	49.84
686.649	50.4
686.835	50.22
687.021	50.74
687.206	50.74
687.392	50.65
687.577	50.58
687.763	50.95
687.948	50.69
688.134	50.41
688.319	50.35
688.505	50.57
688.69	50.31
688.876	50.33
689.061	49.75
689.247	50.1
689.432	49.95
689.618	49.55
689.803	48.89
689.988	49.54
690.174	49.73
690.359	49.44
690.544	49.49
690.73	49.79
690.915	49.73
691.1	49.46
691.285	49.31
691.471	49.69
691.656	49.81
691.841	49.73
692.026	49.39
692.211	49.53
692.396	49.91
692.582	49.79
692.767	49.36
692.952	49.7
693.137	49.95
693.322	50.04
693.507	49.96
693.692	50.29
693.877	50.8
694.062	51.02
694.247	50.9
694.432	51.04
694.617	51
694.802	51.5
694.987	51.26
695.172	51.67
695.357	51.2
695.541	51.91
695.726	51.95
695.911	51.95
696.096	51.52
696.281	51.3
696.466	51.07
696.65	50.94
696.835	50.92
697.02	49.75
697.204	50.23
697.389	50.34
697.574	50.09
697.759	50.18
697.943	50.14
698.128	50.57
698.312	50.58
698.497	49.72
698.682	50.16
698.866	49.98
699.051	50.27
699.235	49.76
699.42	49.77
699.604	49.68
699.789	49.31
699.973	48.82
700.158	48.63
700.342	48.81
700.527	49.92
700.711	49.82
700.895	50.16
701.08	50.5
701.264	50.53
701.448	50.52
701.633	50.53
701.817	51.16
702.001	52.13
702.186	52.53
702.37	52.39
702.554	51.69
702.738	51.43
702.923	51.38
703.107	51.89
703.291	52.08
703.475	51.98
703.659	51.5
703.843	51.43
704.027	51.89
704.212	51.34
704.396	51.82
704.58	52.5
704.764	52.89
704.948	52.84
705.132	52.46
705.316	52.38
705.5	52.69
705.684	52.7
705.868	52.9
706.052	52.43
706.235	53.32
706.419	52.27
706.603	52.23
706.787	52.52
706.971	52.34
707.155	52.49
707.339	52.57
707.522	52.72
707.706	53.47
707.89	53.62
708.074	53.66
708.257	52.86
708.441	53.05
708.625	52.63
708.808	51.45
708.992	51.53
709.176	51.55
709.359	51.74
709.543	51.66
709.727	51.9
709.91	51.35
710.094	51.36
710.277	51.05
710.461	51.15
710.644	51.9
710.828	52.9
711.011	53.13
711.195	52.9
711.378	52.56
711.562	52.1
711.745	51.9
711.928	52
712.112	52.05
712.295	52.08
712.478	52.42
712.662	52.47
712.845	52.53
713.028	52.37
713.212	52.32
713.395	52.79
713.578	53.75
713.761	53.34
713.945	53.45
714.128	53.05
714.311	53.77
714.494	53.34
714.677	52.66
714.86	52.41
715.043	52.3
715.227	52.67
715.41	52.02
715.593	51.98
715.776	52.81
715.959	52.72
716.142	52.71
716.325	52.48
716.508	53.01
716.691	53.32
716.874	53.45
717.057	53.4
717.239	53.65
717.422	53.83
717.605	53.43
717.788	52.43
717.971	53.08
718.154	53.16
718.337	53.83
718.519	54.03
718.702	53.71
718.885	53.1
719.068	53.69
719.25	54.19
719.433	54.05
719.616	53.72
719.798	54.78
719.981	54.82
720.164	53.71
720.346	52.43
720.529	52.26
720.712	52.28
720.894	52.57
721.077	51.8
721.259	51.59
721.442	52.4
721.624	52.42
721.807	52.29
721.989	51.67
722.172	53.17
722.354	54.05
722.537	54.36
722.719	54.65
722.901	55.02
723.084	55.69
723.266	55.23
723.448	55.59
723.631	56.04
723.813	56.16
723.995	56.56
724.178	56.67
724.36	56.64
724.542	55.68
724.724	55.66
724.907	55.45
725.089	55.5
725.271	55.4
725.453	53.48
725.635	53.3
725.817	53.79
725.999	53.67
726.181	53.74
726.364	54.45
726.546	53.81
726.728	54.58
726.91	55.26
727.092	54.86
727.274	55.43
727.456	57.47
727.638	57.32
727.819	55.75
728.001	54.61
728.183	54.68
728.365	53.62
728.547	54.68
728.729	54.96
728.911	54.36
729.093	54.23
729.274	53.54
729.456	52.74
729.638	53.03
729.82	53.71
730.001	53.97
730.183	54.39
730.365	54.38
730.546	54.29
730.728	52.94
730.91	53.14
731.091	53.41
731.273	53.26
731.455	53.46
731.636	53.45
731.818	53.91
731.999	54.44
732.181	53.88
732.362	54.32
732.544	54.95
732.725	54.64
732.907	54.12
733.088	54.65
733.27	55.73
733.451	54.88
733.633	55.05
733.814	54.33
733.995	54.26
734.177	54.84
734.358	54.21
734.539	53.82
734.721	55.09
734.902	55.18
735.083	55.17
735.264	54.76
735.446	56.27
735.627	55.5
735.808	55.2
735.989	55.27
736.17	54.81
736.351	55.47
736.533	55.4
736.714	54.87
736.895	54.89
737.076	54.65
737.257	54.13
737.438	53.92
737.619	54.54
737.8	55
737.981	55.87
738.162	56.18
738.343	56.07
738.524	56.85
738.705	56.78
738.886	57.97
739.067	57.99
739.247	57.82
739.428	57.21
739.609	57.84
739.79	57.65
739.971	56.29
740.151	55.74
740.332	55.57
740.513	54.98
740.694	54.85
740.874	54.36
741.055	54.71
741.236	54.91
741.417	54.56
741.597	54.12
741.778	54.78
741.958	54.96
742.139	55.27
742.32	55.43
742.5	55.41
742.681	55.25
742.861	55.97
743.042	55.63
743.222	55.98
743.403	55.51
743.583	56
743.764	55.6
743.944	56.71
744.124	56.76
744.305	56.32
744.485	55.99
744.666	56.13
744.846	55.92
745.026	56.43
745.207	56.71
745.387	58.25
745.567	57.98
745.747	57.96
745.928	57.9
746.108	57.38
746.288	58.03
746.468	59.08
746.648	59.34
746.829	58.6
747.009	59.54
747.189	59.1
747.369	59.66
747.549	59.14
747.729	59.62
747.909	59.89
748.089	60.37
748.269	60.92
748.449	60.84
748.629	60.53
748.809	59.93
748.989	59.61
749.169	58.56
749.349	56.88
749.529	57.81
749.709	56.48
749.889	55.77
750.068	55.38
750.248	54.83
750.428	54.36
750.608	54.35
750.788	55.46
750.967	54.5
751.147	55.47
751.327	56.75
751.507	56.09
751.686	57.86
751.866	59.02
752.046	59.44
752.225	59.13
752.405	58.43
752.585	58.7
752.764	58.76
752.944	58.18
753.123	58.32
753.303	57.47
753.482	57.16
753.662	56.77
753.841	55.75
754.021	56.52
754.2	56.82
754.38	57.36
754.559	57.55
754.739	56.73
754.918	57.38
755.097	56.97
755.277	57.36
755.456	57.75
755.635	58.28
755.815	57.98
755.994	57.04
756.173	56.85
756.352	56.73
756.532	56.1
756.711	55.77
756.89	55.64
757.069	56.38
757.248	55.17
757.427	54.1
757.607	53.41
757.786	53.9
757.965	53.15
758.144	52.75
758.323	53.73
758.502	54.92
758.681	55.81
758.86	55.77
759.039	55.29
759.218	55.79
759.397	56.63
759.576	55.58
759.755	54.87
759.934	54.81
760.113	55.91
760.291	54.53
760.47	54.72
760.649	54.97
760.828	55.3
761.007	55.42
761.186	56.15
761.364	55.55
761.543	56.6
761.722	56.29
761.901	56.55
762.079	55.61
762.258	56.62
762.437	56.64
762.615	55.87
762.794	55.27
762.972	54.64
763.151	54.3
763.33	54.62
763.508	54.21
763.687	55
763.865	55.14
764.044	55.12
764.222	54.75
764.401	54.01
764.579	53.54
764.758	53.86
764.936	54.59
765.114	54.47
765.293	54.92
765.471	55.78
765.65	55.72
765.828	56.1
766.006	56.59
766.184	56.71
766.363	56.79
766.541	57.39
766.719	57.49
766.898	57.3
767.076	57.94
767.254	58.26
767.432	57.17
767.61	56.36
767.788	57.18
767.967	57.82
768.145	57.18
768.323	57.91
768.501	58.76
768.679	59.36
768.857	59.85
769.035	61.16
769.213	61.13
769.391	62.17
769.569	65.26
769.747	64.81
769.925	64.44
770.103	65.78
770.281	64.49
770.459	64.14
770.636	63.21
770.814	63.03
770.992	62.6
771.17	63.52
771.348	63.2
771.525	60.5
771.703	59.2
771.881	58.97
772.059	60.41
772.236	60.72
772.414	61.2
772.592	61.84
772.769	63.44
772.947	62.26
773.125	62.38
773.302	62.45
773.48	63.68
773.657	64.88
773.835	65.22
774.013	63.6
774.19	65.84
774.368	65.89
774.545	64.24
774.723	64.16
774.9	62.86
775.077	62.51
775.255	63.18
775.432	63.69
775.61	63.03
775.787	62.73
775.964	63.21
776.142	60.55
776.319	62.1
776.496	62.92
776.674	61.66
776.851	61.99
777.028	61.89
777.205	61.27
777.382	61.02
777.56	62.16
777.737	66.86
777.914	65.6
778.091	67.32
778.268	63.81
778.445	63.91
778.622	62.97
778.8	67.14
778.977	66.9
779.154	69.47
779.331	67.94
779.508	64.64
779.685	59.67
779.862	59.23
780.038	58.71
780.215	61.75
780.392	62.41
780.569	63.89
780.746	61.94
780.923	62.48
781.1	59.19
781.277	59.2
781.453	62.6
781.63	62.3
781.807	64.57
781.984	64.89
782.16	62.86
782.337	62.07
782.514	60.9
782.691	60.73
782.867	59.29
783.044	60.19
783.221	63.13
783.397	64.68
783.574	66.12
783.75	66.87
783.927	66.99
784.103	67.56
784.28	66.49
784.456	67.88
784.633	70.49
784.809	70.73
784.986	70.61
785.162	67.2
785.339	65.16
785.515	65.37
785.692	62.91
785.868	62.67
786.044	64.81
786.221	65.25
786.397	64.01
786.573	62.21
786.749	63.01
786.926	63.44
787.102	65.2
787.278	64.24
787.454	64.48
787.631	66.67
787.807	65.64
787.983	65.61
788.159	68.01
788.335	68.38
788.511	67.68
788.687	67.78
788.863	69.78
789.039	70.18
789.216	71.25
789.392	71.08
789.568	71.62
789.744	74.54
789.919	73.47
790.095	71.17
790.271	70.61
790.447	68.19
790.623	66.12
790.799	65.7
790.975	64.9
791.151	65.62
791.327	65.52
791.502	62.13
791.678	59.67
791.854	59.04
792.03	60.12
792.205	61.55
792.381	65.15
792.557	66.17
792.733	65.23
792.908	65.35
793.084	66.32
793.259	64.92
793.435	68.32
793.611	69.34
793.786	68.82
793.962	70.04
794.137	69.8
794.313	69.1
794.488	70.35
794.664	70.09
794.839	71.36
795.015	69.51
795.19	69.03
795.366	69
795.541	66.54
795.716	66.12
795.892	65.75
796.067	65.48
796.242	64.19
796.418	64.68
796.593	66.05
796.768	66.54
796.944	67.61
797.119	68.92
797.294	68.77
797.469	71.92
797.644	73.82
797.82	73.31
797.995	72.12
798.17	73.27
798.345	70.93
798.52	68.12
798.695	65.44
798.87	64.54
799.045	63.24
799.22	62.06
799.395	60.81
799.57	59.55
799.745	60.17
799.92	61.94
800.095	64.47
800.27	65.58
800.445	67.3
800.62	67.43
800.795	65.63
800.97	68.58
801.145	66.4
801.319	65.68
801.494	63.72
801.669	65.2
801.844	65.18
802.018	62.01
802.193	62.61
802.368	57.58
802.543	60.36
802.717	64.55
802.892	64.13
803.067	66.31
803.241	67.75
803.416	68.87
803.59	68.84
803.765	70.71
803.94	70.61
804.114	67.06
804.289	72.81
804.463	71.06
804.638	66.43
804.812	65.54
804.986	65.46
805.161	66.5
805.335	67.45
805.51	64.17
805.684	62.36
805.858	63.08
806.033	63.92
806.207	64.47
806.381	64.23
806.556	68.01
806.73	68.44
806.904	68.33
807.078	67
807.253	70.08
807.427	70.86
807.601	69.82
807.775	70.16
807.949	70
808.123	67.38
808.298	67.03
808.472	65.77
808.646	67.48
808.82	68.89
808.994	67.48
809.168	65.08
809.342	69.55
809.516	71.2
809.69	72.1
809.864	74.1
810.038	77.84
810.212	78.84
810.385	80
810.559	79.83
810.733	80.06
810.907	79.44
811.081	77.04
811.255	74.85
811.428	76.96
811.602	77.44
811.776	75.63
811.95	71.78
812.123	76.04
812.297	74.92
812.471	73.73
812.644	69.68
812.818	72.63
812.992	75.34
813.165	72.57
813.339	69.99
813.512	68.74
813.686	71.17
813.86	72.7
814.033	69.87
814.207	71.78
814.38	70.73
814.554	74.57
814.727	74.03
814.9	72.15
815.074	70.96
815.247	73.72
815.421	73.58
815.594	75.72
815.767	74.64
815.941	74.87
816.114	72.54
816.287	71.11
816.46	67.4
816.634	66.82
816.807	70.78
816.98	72.32
817.153	73.53
817.327	69.48
817.5	68.08
817.673	69.51
817.846	69.4
818.019	71.25
818.192	74.85
818.365	76.36
818.538	76.09
818.711	73.83
818.884	71.28
819.057	67.6
819.23	69.48
819.403	68
819.576	67.89
819.749	67.17
819.922	64.45
820.095	61.29
820.268	61.58
820.441	60.49
820.614	59.71
820.786	61.94
820.959	61.51
821.132	62.23
821.305	61.51
821.477	59.84
821.65	58.49
821.823	58.66
821.996	58.12
822.168	57.31
822.341	56.6
822.514	56.69
822.686	56.1
822.859	55.82
823.031	55.11
823.204	54.74
823.376	54.71
823.549	54.43
823.722	54.12
823.894	54.51
824.067	54.22
824.239	54.08
824.411	54.08
824.584	54.27
824.756	54.38
824.929	54.38
825.101	54.67
825.273	54.83
825.446	55.62
825.618	55.3
825.79	54.8
825.963	54.93
826.135	55.96
826.307	55.89
826.479	55.86
826.652	55.29
826.824	55.85
826.996	55.68
827.168	55.75
827.34	56.09
827.512	56.13
827.684	56.67
827.856	57.07
828.029	57.33
828.201	56.78
828.373	57
828.545	58.13
828.717	57.12
828.889	58.03
829.061	57.77
829.232	58.16
829.404	59.94
829.576	61.2
829.748	62.31
829.92	63.08
830.092	65.77
830.264	66.12
830.436	66.47
830.607	68.41
830.779	70.44
830.951	72.08
831.123	72.23
831.294	71.56
831.466	71.04
831.638	71.48
831.809	70.9
831.981	71.9
832.153	71.25
832.324	71
832.496	69.42
832.667	68.61
832.839	70.74
833.011	70.11
833.182	69.6
833.354	66.76
833.525	67.43
833.697	67.66
833.868	64.43
834.039	64.8
834.211	64.59
834.382	65.88
834.554	64.31
834.725	62.76
834.896	62.55
835.068	63.63
835.239	64.09
835.41	64
835.581	63.02
835.753	63.07
835.924	64.32
836.095	63.53
836.266	63.48
836.438	64.17
836.609	62.99
836.78	63.19
836.951	62.78
837.122	62.36
837.293	60.81
837.464	61.91
837.635	62.88
837.806	60.41
837.977	61.07
838.148	61.28
838.319	62.29
838.49	64.05
838.661	61.47
838.832	63.41
839.003	66.66
839.174	69.57
839.345	72.2
839.516	72.58
839.687	75.91
839.857	76.16
840.028	72.24
840.199	73.14
840.37	78.36
840.54	84.26
840.711	79.85
840.882	76.61
841.053	73.78
841.223	70.18
841.394	69.7
841.564	74.83
841.735	77.22
841.906	83.2
842.076	82.01
842.247	80.43
842.417	78.18
842.588	81.04
842.758	87.59
842.929	88.6
843.099	93.93
843.27	98.13
843.44	96.29
843.611	96.47
843.781	94.15
843.951	98.73
844.122	93.31
844.292	93.55
844.462	100.65
844.633	96.45
844.803	93.59
844.973	89.61
845.144	87.11
845.314	82.19
845.484	85.43
845.654	91.51
845.824	93.77
845.995	101.2
846.165	104.51
846.335	94.01
846.505	107.1
846.675	119.68
846.845	145.08
847.015	152.43
847.185	160.41
847.355	157.64
847.525	153.97
847.695	147.38
847.865	147.76
848.035	154.68
848.205	165.2
848.375	148.84
848.545	143.61
848.715	125.89
848.884	118.87
849.054	111.3
849.224	114.96
849.394	115.98
849.564	123.67
849.733	132.66
849.903	121.91
850.073	124.84
850.243	137.43
850.412	124.46
850.582	118.91
850.752	136
850.921	144.38
851.091	148.14
851.26	149.95
851.43	138.44
851.599	123.95
851.769	133.05
851.939	120.64
852.108	113.44
852.278	123.27
852.447	127.1
852.616	120.09
852.786	112.48
852.955	111.31
853.125	117.57
853.294	110.78
853.463	110.02
853.633	109.81
853.802	124.47
853.971	128.87
854.141	130.49
854.31	124.69
854.479	133.3
854.648	156.07
854.818	146.06
854.987	133.26
855.156	143.38
855.325	148.84
855.494	146.84
855.663	129.33
855.832	123.63
856.001	135.13
856.171	140.13
856.34	135.66
856.509	136.33
856.678	144.51
856.847	135.1
857.016	142.08
857.185	139.81
857.353	140.91
857.522	140.91
857.691	141.81
857.86	130.74
858.029	130.7
858.198	123.07
858.367	113.82
858.535	106.11
858.704	106.23
858.873	105.12
859.042	100.37
859.21	107.53
859.379	115.22
859.548	121.62
859.717	121.85
859.885	116.46
860.054	119.12
860.222	118.53
860.391	116.93
860.56	125.36
860.728	114.18
860.897	113.44
861.065	104.23
861.234	96.97
861.402	102.51
861.571	100.15
861.739	105.27
861.908	102.43
862.076	106.48
862.244	108.47
862.413	104.38
862.581	117.09
862.749	123.01
862.918	127.91
863.086	148.88
863.254	128.57
863.423	130.25
863.591	129.38
863.759	133.25
863.927	131.3
864.096	131.45
864.264	148.6
864.432	148.09
864.6	146.84
864.768	146.99
864.936	153.78
865.104	143.62
865.272	152.74
865.44	149.61
865.608	140.43
865.776	128.52
865.944	138.04
866.112	123.4
866.28	117.36
866.448	111.96
866.616	108.06
866.784	100.49
866.952	107.79
867.12	95.19
867.288	84.05
867.455	94.76
867.623	97.83
867.791	91.64
867.959	94.08
868.127	92.78
868.294	99.56
868.462	95.22
868.63	85.16
868.797	80.85
868.965	89.88
869.133	100.02
869.3	98.29
869.468	103.88
869.636	101.78
869.803	98.45
869.971	107.18
870.138	106.48
870.306	108.48
870.473	117.64
870.641	124.22
870.808	127.81
870.975	121.33
871.143	117.3
871.31	105.54
871.478	109.34
871.645	106.41
871.812	118.63
871.98	125.13
872.147	116.79
872.314	113.36
872.482	127.03
872.649	123.54
872.816	122.51
872.983	136.43
873.15	152.46
873.318	159.62
873.485	159.42
873.652	132.91
873.819	130.05
873.986	135.1
874.153	136.5
874.32	133.81
874.487	132.57
874.654	134.04
874.821	130.17
874.988	127.3
875.155	125.6
875.322	124.61
875.489	137.93
875.656	142.61
875.823	152.82
875.99	152.93
876.157	151.59
876.324	134.73
876.49	143.51
876.657	141.93
876.824	156.21
876.991	164.01
877.157	178.98
877.324	166.26
877.491	156
877.658	141.08
877.824	153.93
877.991	143.16
878.157	148.69
878.324	124.35
878.491	126.14
878.657	118.32
878.824	107.53
878.99	84.43
879.157	80.75
879.323	74.76
879.49	75.29
879.656	71.43
879.823	72.73
879.989	75.64
880.156	85.26
880.322	76.83
880.488	71.27
880.655	73.67
880.821	89.24
880.987	87.22
881.154	89.57
881.32	85.72
881.486	87.54
881.652	85.25
881.819	81.68
881.985	79.35
882.151	81.39
882.317	75.93
882.483	71.38
882.649	66.08
882.816	66.51
882.982	65.61
883.148	65.57
883.314	62.36
883.48	62.48
883.646	62.3
883.812	61.88
883.978	61.95
884.144	62.74
884.31	63.04
884.476	62.79
884.642	62.13
884.807	64.24
884.973	63.22
885.139	63.91
885.305	64.2
885.471	65.9
885.637	63.62
885.802	62.22
885.968	62.46
886.134	64.83
886.3	66.72
886.465	69.67
886.631	66.08
886.797	69.18
886.962	70.88
887.128	72.23
887.293	71.84
887.459	73.58
887.625	77.51
887.79	80.49
887.956	81.22
888.121	82.88
888.287	80.62
888.452	83.87
888.618	84.48
888.783	85.58
