Data from LC_268_Reflection_2.txt Node
Date: Sat Nov 21 11:59:08 EST 2015
User: robert
Spectrometer: USB4E03001
Autoset integration time: false
Trigger mode: 4
Integration Time (sec): 1.000000E-1
Scans to average: 15
Electric dark correction enabled: true
Nonlinearity correction enabled: false
Boxcar width: 5
Stray light correction enabled: false
XAxis mode: Wavelengths
Stop averaging: false
Number of Pixels in Spectrum: 3648
>>>>>Begin Spectral Data<<<<<
177.566	57.24
177.785	8.5
178.005	-33.01
178.225	68.11
178.445	323.72
178.665	1895.29
178.885	-273.71
179.105	98.74
179.324	36.26
179.544	-26.01
179.764	224.7
179.984	23.51
180.204	55.69
180.423	60.84
180.643	47.82
180.863	75.19
181.083	115.67
181.302	94.86
181.522	106.18
181.742	103.26
181.961	104.25
182.181	85.56
182.401	181.34
182.621	127.65
182.84	109.41
183.06	113.02
183.279	88.19
183.499	77.75
183.719	76.86
183.938	82.42
184.158	97.33
184.377	93.12
184.597	99.11
184.816	80.58
185.036	92.49
185.256	105.98
185.475	90.17
185.695	102.03
185.914	104.47
186.134	99.31
186.353	78.05
186.572	76.76
186.792	54.04
187.011	53.13
187.231	40.18
187.45	31.37
187.67	12.95
187.889	11.71
188.108	-20.29
188.328	-55.88
188.547	-67.79
188.766	-77.67
188.986	-116.7
189.205	-341.34
189.424	-943.21
189.644	-440.32
189.863	499.64
190.082	841.71
190.302	-1052.36
190.521	-136.02
190.74	-64.07
190.959	-109.47
191.178	-59.35
191.398	-8.76
191.617	3.84
191.836	24.38
192.055	2.84
192.274	25.41
192.494	33.6
192.713	14.04
192.932	30.61
193.151	18.5
193.37	30.1
193.589	20.43
193.808	27.08
194.027	47.07
194.246	46.7
194.465	61.39
194.685	70.66
194.904	70.68
195.123	83.29
195.342	83.23
195.561	78.61
195.78	37.72
195.999	34.8
196.218	42.41
196.436	64.35
196.655	58.6
196.874	55.23
197.093	34.1
197.312	15.65
197.531	58.03
197.75	47.19
197.969	42.04
198.188	67.83
198.407	79.2
198.625	63.93
198.844	58.89
199.063	70.89
199.282	60.41
199.501	104.01
199.719	93.45
199.938	90.53
200.157	94.22
200.376	108.92
200.594	99.01
200.813	68.6
201.032	79.32
201.251	50.89
201.469	47.58
201.688	56.72
201.907	-21.87
202.125	9.01
202.344	-17.79
202.563	-44.2
202.781	-75.46
203	-51.14
203.218	-10.47
203.437	-68.83
203.656	-21.85
203.874	-106.75
204.093	-93.95
204.311	-18.04
204.53	-34.45
204.748	-42.36
204.967	-0.26
205.185	-8.52
205.404	-22.24
205.622	-109.01
205.841	-59.77
206.059	-86.31
206.278	-80.57
206.496	-55.68
206.715	-181.2
206.933	-33.66
207.151	69.02
207.37	9.83
207.588	-3.75
207.806	-24.96
208.025	-10.22
208.243	19.85
208.461	42.26
208.68	57.74
208.898	93.86
209.116	57.35
209.335	46.69
209.553	41.12
209.771	72.53
209.989	74.83
210.208	89.12
210.426	81.73
210.644	37.44
210.862	-24.93
211.081	-116.42
211.299	-36.9
211.517	23.03
211.735	9.7
211.953	10.27
212.171	5.57
212.39	23.92
212.608	30.26
212.826	41.62
213.044	42.33
213.262	47.7
213.48	57.68
213.698	47.71
213.916	43.31
214.134	54.46
214.352	50.4
214.57	70.37
214.788	67.22
215.006	72.54
215.224	69.71
215.442	79.43
215.66	84.13
215.878	95.63
216.096	98.35
216.314	98.12
216.532	87.51
216.75	92.63
216.968	96.91
217.185	78.84
217.403	79.25
217.621	64.27
217.839	55.5
218.057	35.24
218.275	10.43
218.492	8.02
218.71	-3.97
218.928	4.16
219.146	1.64
219.363	5.23
219.581	-4.53
219.799	-11.68
220.017	-0.36
220.234	2.72
220.452	22.59
220.67	29.51
220.887	18.6
221.105	24.23
221.323	-1.89
221.54	-35.08
221.758	-33.18
221.976	-10.01
222.193	-6.38
222.411	3.75
222.629	3.67
222.846	1.25
223.064	16.42
223.281	32.73
223.499	20.95
223.716	23.48
223.934	29.36
224.151	31.43
224.369	6.05
224.586	6.57
224.804	18.87
225.021	16.43
225.239	22.29
225.456	18.57
225.674	17.72
225.891	27.98
226.108	30.42
226.326	31.08
226.543	27.83
226.76	33.17
226.978	33.05
227.195	23.25
227.413	22.11
227.63	21.35
227.847	19.15
228.064	18.9
228.282	14.43
228.499	17.13
228.716	15.58
228.934	14.33
229.151	14.69
229.368	11.81
229.585	13.63
229.802	14.5
230.02	14.1
230.237	14.69
230.454	15.5
230.671	17.64
230.888	17.81
231.105	19.24
231.323	20.02
231.54	18.86
231.757	22.21
231.974	22.42
232.191	19.44
232.408	23.05
232.625	21.23
232.842	19.57
233.059	18.9
233.276	17.79
233.493	20.16
233.71	22.92
233.927	20.85
234.144	20.83
234.361	22.66
234.578	23.58
234.795	23.19
235.012	24.12
235.229	23.7
235.446	23.28
235.663	20.37
235.879	16.41
236.096	14.28
236.313	20.14
236.53	21.39
236.747	18.31
236.964	21.69
237.181	21.3
237.397	18
237.614	20.62
237.831	18.71
238.048	18.23
238.264	23.38
238.481	21.44
238.698	22.43
238.915	22.51
239.131	20.1
239.348	13.76
239.565	13.69
239.781	17.49
239.998	16.46
240.215	15.45
240.431	13.52
240.648	11.33
240.865	10.96
241.081	7.29
241.298	6.56
241.514	9.7
241.731	10.81
241.947	11.76
242.164	11.09
242.38	10.58
242.597	11.83
242.814	13.43
243.03	13.19
243.246	14.02
243.463	14.44
243.679	14.33
243.896	13.47
244.112	15.31
244.329	13.58
244.545	12.43
244.762	11.61
244.978	13.08
245.194	11.58
245.411	11.67
245.627	11.68
245.843	10.27
246.06	9.27
246.276	10.44
246.492	9.99
246.709	10.91
246.925	11.76
247.141	11.65
247.357	9.98
247.574	10.1
247.79	10.26
248.006	10.35
248.222	10.54
248.439	11.63
248.655	11.72
248.871	11.59
249.087	12.12
249.303	12.72
249.519	14.48
249.736	15.7
249.952	17.22
250.168	17.58
250.384	19.34
250.6	21.48
250.816	20.52
251.032	20.63
251.248	21.48
251.464	20.09
251.68	19.3
251.896	17.66
252.112	18.56
252.328	17.97
252.544	18.37
252.76	17.61
252.976	16.96
253.192	17.05
253.408	17.4
253.624	16.76
253.84	16.13
254.056	15.53
254.272	14.71
254.487	14.22
254.703	14.44
254.919	13.26
255.135	12.85
255.351	13.93
255.567	14.91
255.782	10.97
255.998	11.83
256.214	13.03
256.43	13.96
256.646	14.31
256.861	12.26
257.077	12.25
257.293	12.44
257.508	11.35
257.724	10.15
257.94	11.37
258.155	12.45
258.371	11.22
258.587	10.73
258.802	10.06
259.018	9.99
259.234	10.5
259.449	10.06
259.665	9.66
259.88	9.91
260.096	10.69
260.312	10.45
260.527	10.53
260.743	10.8
260.958	10.99
261.174	10.56
261.389	11.13
261.605	11.28
261.82	12.3
262.036	13.33
262.251	13.25
262.466	13.66
262.682	13.44
262.897	14.13
263.113	15.21
263.328	16.19
263.543	18.25
263.759	17.78
263.974	18.49
264.189	17.64
264.405	18.03
264.62	19.51
264.835	17.36
265.051	17.77
265.266	16.85
265.481	16.15
265.696	14.77
265.912	14.18
266.127	14.72
266.342	14.44
266.557	13.86
266.773	11.83
266.988	9.62
267.203	7.95
267.418	7.59
267.633	7.2
267.848	6.34
268.064	6.8
268.279	6.53
268.494	5.78
268.709	5.37
268.924	5.67
269.139	6.17
269.354	5.66
269.569	6.11
269.784	6.06
269.999	5.05
270.214	5.43
270.429	5.12
270.644	4.96
270.859	5.03
271.074	4.33
271.289	3.36
271.504	3.5
271.719	3.95
271.934	6.15
272.149	5.87
272.363	6.84
272.578	6.34
272.793	6.54
273.008	6.92
273.223	6.65
273.438	7.28
273.653	8.33
273.867	9.1
274.082	10.47
274.297	9.57
274.512	9.18
274.726	9.2
274.941	9.19
275.156	9.76
275.371	9.44
275.585	11.7
275.8	11.56
276.015	9.92
276.229	8.39
276.444	8.38
276.659	7.23
276.873	8.17
277.088	8.57
277.302	9.82
277.517	8.49
277.732	7.99
277.946	6.57
278.161	7.05
278.375	8.83
278.59	10.71
278.804	10.66
279.019	12.08
279.233	12.82
279.448	11.89
279.662	11.58
279.877	11.86
280.091	11.76
280.306	10.39
280.52	9.89
280.735	10.64
280.949	8.98
281.163	7.96
281.378	7.4
281.592	7.77
281.806	8.89
282.021	8.68
282.235	9
282.449	10.5
282.664	10.3
282.878	10.66
283.092	9.42
283.307	9.89
283.521	10.35
283.735	10.89
283.949	9.94
284.164	8.4
284.378	7.77
284.592	6.61
284.806	6.83
285.02	7.48
285.234	7.55
285.449	7.01
285.663	7.54
285.877	7.46
286.091	8.02
286.305	8.21
286.519	9.74
286.733	10.17
286.947	11.41
287.161	10.96
287.375	11.45
287.589	11.72
287.803	12.91
288.017	13.36
288.231	13.82
288.445	13.38
288.659	12.57
288.873	11.14
289.087	11.33
289.301	10.49
289.515	9.96
289.729	10.42
289.943	9.86
290.157	9.42
290.371	9.42
290.584	9.59
290.798	10
291.012	10.79
291.226	11.81
291.44	11.75
291.654	12.99
291.867	13.16
292.081	13.04
292.295	13.77
292.509	14.28
292.722	14.07
292.936	13.66
293.15	12.71
293.364	12.84
293.577	12.89
293.791	12.91
294.005	12.22
294.218	11.6
294.432	10.73
294.645	11.18
294.859	11.16
295.073	10.76
295.286	10.99
295.5	11.67
295.713	11.9
295.927	11.26
296.14	11.66
296.354	11.7
296.568	12.25
296.781	12.71
296.994	12.22
297.208	11.52
297.421	12.24
297.635	12.32
297.848	11.47
298.062	11.22
298.275	12.21
298.489	11.96
298.702	11.3
298.915	10.19
299.129	10.36
299.342	10.17
299.555	10.65
299.769	9.88
299.982	10.61
300.195	11.07
300.409	12.11
300.622	11.26
300.835	12.15
301.048	13.49
301.262	14.62
301.475	14.26
301.688	14.57
301.901	14.06
302.115	14.03
302.328	13.23
302.541	12.83
302.754	11.26
302.967	11.57
303.18	11.19
303.393	11.36
303.607	11.14
303.82	10.45
304.033	9.74
304.246	10.7
304.459	11.09
304.672	11.51
304.885	13.3
305.098	14.31
305.311	13.14
305.524	12.33
305.737	11.1
305.95	10.91
306.163	11.03
306.376	10.64
306.589	10.44
306.802	9.04
307.015	7.82
307.228	7.01
307.44	6.09
307.653	7.45
307.866	7.92
308.079	8.28
308.292	7.58
308.505	8.66
308.718	8.97
308.93	8.77
309.143	8.49
309.356	8.61
309.569	8.2
309.781	8.62
309.994	8.45
310.207	8.59
310.42	8.77
310.632	9.56
310.845	9.36
311.058	9.89
311.27	9.82
311.483	11.15
311.696	11.45
311.908	11.65
312.121	11.56
312.333	12.05
312.546	11.97
312.759	11.95
312.971	12.35
313.184	12.2
313.396	12.35
313.609	12.06
313.821	11.05
314.034	11.37
314.246	11.84
314.459	11.61
314.671	10.39
314.884	10.24
315.096	9.99
315.309	9.6
315.521	9.09
315.733	9.01
315.946	9.01
316.158	8.92
316.371	8.84
316.583	9
316.795	8.19
317.008	9.13
317.22	8.56
317.432	9.38
317.644	9.96
317.857	10.9
318.069	10.03
318.281	10.99
318.494	11.65
318.706	11.92
318.918	11.33
319.13	12.16
319.342	12.65
319.555	12.62
319.767	11.97
319.979	11.77
320.191	11.11
320.403	11.62
320.615	11.35
320.827	12.19
321.039	10.74
321.252	9.85
321.464	9.72
321.676	7.92
321.888	8.73
322.1	8.68
322.312	9.09
322.524	8.8
322.736	8.78
322.948	9.86
323.16	8.73
323.372	9.4
323.584	10.21
323.796	11.1
324.007	11.75
324.219	11.58
324.431	11.28
324.643	11.13
324.855	11.25
325.067	11.66
325.279	10.65
325.491	11.48
325.702	11.21
325.914	11.07
326.126	10.18
326.338	9.46
326.55	10.23
326.761	10.3
326.973	10.4
327.185	10.98
327.396	10.44
327.608	9.57
327.82	9.11
328.032	9.49
328.243	8.67
328.455	8.65
328.666	8.62
328.878	8.49
329.09	8.17
329.301	8.01
329.513	7.5
329.725	7.97
329.936	9.63
330.148	8.84
330.359	9.72
330.571	10.86
330.782	11.45
330.994	11.7
331.205	11.38
331.417	12.39
331.628	12.36
331.84	11.77
332.051	10.48
332.262	10.05
332.474	10.01
332.685	9.57
332.897	9.46
333.108	8.34
333.319	8.33
333.531	8.22
333.742	8.12
333.953	7.97
334.165	8.7
334.376	9
334.587	8.99
334.799	10.61
335.01	10.57
335.221	11.08
335.432	11.36
335.644	11.79
335.855	11.65
336.066	11.73
336.277	11.94
336.488	11.35
336.7	11.96
336.911	11.76
337.122	11.42
337.333	12.11
337.544	11.5
337.755	11.96
337.966	11.85
338.177	11.61
338.388	11.37
338.599	10.37
338.811	11.32
339.022	10.73
339.233	9.92
339.444	8.5
339.655	7.9
339.866	7.64
340.076	7.21
340.287	8.08
340.498	8.14
340.709	8.04
340.92	8.63
341.131	8.15
341.342	8.91
341.553	10.17
341.764	10.44
341.975	10.24
342.185	10.07
342.396	10.29
342.607	9.6
342.818	9.5
343.029	9.99
343.239	10.48
343.45	9.75
343.661	9.66
343.872	8.53
344.082	9.16
344.293	8.62
344.504	8.79
344.714	8.74
344.925	8.73
345.136	8.67
345.346	8.73
345.557	8.37
345.768	9.48
345.978	8.9
346.189	9.09
346.399	8.02
346.61	8.96
346.821	8.75
347.031	8.21
347.242	8.05
347.452	7.92
347.663	7.73
347.873	7.35
348.084	7.21
348.294	6.99
348.504	7.53
348.715	8.39
348.925	7.78
349.136	7.4
349.346	7.9
349.557	8.11
349.767	9.08
349.977	8.68
350.188	9.19
350.398	8.23
350.608	8.78
350.819	9.12
351.029	8.73
351.239	8.93
351.449	9.84
351.66	9.45
351.87	9.22
352.08	8.83
352.29	8.48
352.501	8.37
352.711	9.09
352.921	8.82
353.131	8.39
353.341	8.92
353.552	8.24
353.762	8.19
353.972	8.49
354.182	8.69
354.392	8.69
354.602	8.77
354.812	9.14
355.022	8.7
355.232	8.37
355.442	8
355.652	7.52
355.862	7.73
356.072	7.11
356.282	7.06
356.492	6.83
356.702	6.17
356.912	5.84
357.122	5.59
357.332	5.07
357.542	5.16
357.752	5.4
357.962	5.83
358.171	5.33
358.381	5.71
358.591	5.66
358.801	6.16
359.011	6.54
359.221	7.2
359.43	7.1
359.64	7.26
359.85	7.3
360.06	7.48
360.269	7.59
360.479	8.04
360.689	7.55
360.899	7.74
361.108	7.54
361.318	7.41
361.528	7.5
361.737	7.28
361.947	7.45
362.156	7.9
362.366	7.75
362.576	6.9
362.785	6.9
362.995	7.37
363.204	6.97
363.414	6.71
363.623	7.08
363.833	6.54
364.042	7.14
364.252	7.27
364.461	6.89
364.671	6.55
364.88	7.43
365.09	6.99
365.299	6.73
365.509	6.89
365.718	6.98
365.927	6.88
366.137	6.82
366.346	6.39
366.555	6.23
366.765	6.59
366.974	6.68
367.183	6.41
367.393	6.8
367.602	7.23
367.811	7.39
368.021	7.31
368.23	7.12
368.439	7.26
368.648	7.33
368.857	7.59
369.067	6.78
369.276	7.17
369.485	7.1
369.694	7.5
369.903	6.61
370.112	6.63
370.321	6.51
370.531	5.98
370.74	5.94
370.949	5.45
371.158	5.68
371.367	5.73
371.576	5.59
371.785	5.74
371.994	5.31
372.203	5.91
372.412	5.69
372.621	5.39
372.83	5.61
373.039	5.72
373.248	5.57
373.457	5.17
373.666	5.4
373.874	4.71
374.083	4.83
374.292	4.78
374.501	4.89
374.71	5.08
374.919	5.35
375.128	5.85
375.336	5.56
375.545	6.2
375.754	6.43
375.963	6.02
376.171	6.29
376.38	6.19
376.589	5.81
376.798	5.35
377.006	5.43
377.215	5.44
377.424	5.29
377.632	5.65
377.841	5.65
378.05	5.39
378.258	5.62
378.467	5.6
378.675	5.61
378.884	6.08
379.093	6.3
379.301	6.38
379.51	6.3
379.718	6.26
379.927	6.09
380.135	5.78
380.344	5.91
380.552	5.87
380.761	6.11
380.969	6.05
381.177	6.2
381.386	5.78
381.594	5.67
381.803	5.53
382.011	5.39
382.219	5.06
382.428	5.1
382.636	4.88
382.845	5.25
383.053	5.61
383.261	5.75
383.469	5.37
383.678	5.72
383.886	5.67
384.094	5.65
384.302	5.24
384.511	5.28
384.719	5.21
384.927	5.55
385.135	5.39
385.343	4.73
385.552	4.54
385.76	4.84
385.968	5.2
386.176	5.18
386.384	5.58
386.592	5.6
386.8	5.71
387.008	5.7
387.216	5.49
387.424	5.46
387.633	5.52
387.841	5.55
388.049	5.53
388.257	5.08
388.465	4.91
388.672	4.63
388.88	4.98
389.088	4.87
389.296	5.03
389.504	4.76
389.712	4.72
389.92	4.86
390.128	4.83
390.336	4.45
390.544	4.74
390.751	5.07
390.959	5.05
391.167	4.9
391.375	5.14
391.583	4.99
391.79	5.07
391.998	5.02
392.206	5.09
392.414	4.89
392.621	5.14
392.829	4.73
393.037	4.46
393.244	4.46
393.452	4.48
393.66	4.53
393.867	4.84
394.075	5
394.283	4.81
394.49	4.84
394.698	4.85
394.905	4.77
395.113	5.09
395.32	5.03
395.528	5.26
395.735	5.08
395.943	5.02
396.15	4.72
396.358	4.49
396.565	4.61
396.773	4.53
396.98	4.86
397.188	4.78
397.395	4.52
397.602	4.7
397.81	4.36
398.017	4.31
398.225	4.35
398.432	4.34
398.639	4.39
398.847	4.45
399.054	4.63
399.261	4.55
399.468	4.4
399.676	4.57
399.883	4.44
400.09	4.53
400.297	4.82
400.505	4.6
400.712	4.21
400.919	4.14
401.126	4.3
401.333	4.07
401.54	4.23
401.748	4.08
401.955	4
402.162	4.23
402.369	4.16
402.576	3.89
402.783	3.76
402.99	3.97
403.197	4.2
403.404	3.96
403.611	4.12
403.818	3.8
404.025	3.96
404.232	4.02
404.439	3.81
404.646	3.68
404.853	4.17
405.06	4.53
405.267	4.9
405.474	4.78
405.681	5
405.887	4.77
406.094	4.75
406.301	4.81
406.508	4.72
406.715	4.69
406.922	4.7
407.128	4.47
407.335	4.13
407.542	3.81
407.749	3.86
407.955	3.71
408.162	3.72
408.369	3.87
408.575	3.9
408.782	3.96
408.989	3.83
409.195	3.95
409.402	3.58
409.609	3.82
409.815	3.59
410.022	3.67
410.228	3.68
410.435	3.81
410.642	3.54
410.848	3.79
411.055	3.75
411.261	3.88
411.468	3.59
411.674	3.67
411.881	3.45
412.087	3.61
412.294	3.8
412.5	3.52
412.706	3.3
412.913	3.56
413.119	3.34
413.326	3.46
413.532	3.41
413.738	3.95
413.945	4.22
414.151	4.35
414.357	4.29
414.564	4.02
414.77	4.34
414.976	4.27
415.182	4.02
415.389	4.22
415.595	4.09
415.801	4.06
416.007	3.69
416.214	3.59
416.42	3.53
416.626	3.57
416.832	3.54
417.038	3.45
417.244	3.57
417.45	3.57
417.657	3.4
417.863	3.38
418.069	3.61
418.275	3.84
418.481	3.83
418.687	3.71
418.893	3.62
419.099	3.56
419.305	3.59
419.511	3.67
419.717	3.62
419.923	3.62
420.129	3.65
420.335	3.47
420.541	3.33
420.746	3.28
420.952	3.37
421.158	3.38
421.364	3.41
421.57	3.37
421.776	3.28
421.982	3.39
422.187	3.45
422.393	3.35
422.599	3.28
422.805	3.39
423.01	3.49
423.216	3.57
423.422	3.65
423.628	3.66
423.833	3.6
424.039	3.66
424.245	3.63
424.45	3.67
424.656	3.7
424.862	3.84
425.067	3.7
425.273	3.64
425.478	3.5
425.684	3.58
425.889	3.6
426.095	3.59
426.301	3.59
426.506	3.62
426.712	3.39
426.917	3.42
427.123	3.34
427.328	3.39
427.533	3.45
427.739	3.59
427.944	3.45
428.15	3.4
428.355	3.72
428.561	3.69
428.766	3.56
428.971	3.59
429.177	3.71
429.382	3.84
429.587	3.74
429.793	3.77
429.998	3.97
430.203	3.92
430.408	3.98
430.614	3.62
430.819	3.52
431.024	3.52
431.229	3.61
431.434	3.37
431.64	3.32
431.845	3.46
432.05	3.46
432.255	3.31
432.46	3.24
432.665	3.25
432.87	3.42
433.076	3.49
433.281	3.49
433.486	3.45
433.691	3.64
433.896	3.65
434.101	3.46
434.306	3.27
434.511	3.19
434.716	3.26
434.921	3.1
435.126	3
435.331	3.06
435.535	3.16
435.74	2.95
435.945	2.79
436.15	2.65
436.355	2.88
436.56	3.02
436.765	3.04
436.97	3.04
437.174	3.24
437.379	3.38
437.584	3.43
437.789	3.37
437.993	3.59
438.198	3.55
438.403	3.53
438.608	3.59
438.812	3.53
439.017	3.4
439.222	3.42
439.426	3.35
439.631	3.43
439.836	3.37
440.04	3.31
440.245	3.34
440.45	3.38
440.654	3.34
440.859	3.17
441.063	3.14
441.268	3.16
441.472	3.04
441.677	2.89
441.881	2.88
442.086	2.77
442.29	2.91
442.495	2.94
442.699	3.03
442.904	3.09
443.108	3.17
443.312	3.23
443.517	3.25
443.721	3.44
443.925	3.49
444.13	3.21
444.334	3.25
444.538	3.21
444.743	3.09
444.947	3
445.151	2.96
445.356	2.93
445.56	3.03
445.764	2.92
445.968	2.82
446.173	2.94
446.377	3.04
446.581	3.09
446.785	2.92
446.989	2.89
447.193	2.95
447.398	3.02
447.602	2.97
447.806	2.77
448.01	2.85
448.214	2.8
448.418	2.72
448.622	2.68
448.826	2.53
449.03	2.5
449.234	2.62
449.438	2.45
449.642	2.26
449.846	2.48
450.05	2.57
450.254	2.74
450.458	2.61
450.662	2.77
450.866	2.85
451.069	2.93
451.273	3
451.477	2.76
451.681	2.64
451.885	2.88
452.089	2.66
452.292	2.81
452.496	2.66
452.7	2.79
452.904	2.57
453.107	2.37
453.311	2.36
453.515	2.44
453.719	2.56
453.922	2.79
454.126	2.65
454.33	2.69
454.533	2.52
454.737	2.35
454.94	2.42
455.144	2.67
455.348	2.84
455.551	2.9
455.755	2.99
455.958	3.03
456.162	2.97
456.365	3.03
456.569	3.26
456.772	3.21
456.976	3.33
457.179	3.24
457.383	3.02
457.586	2.84
457.79	2.73
457.993	2.64
458.196	2.84
458.4	2.84
458.603	2.86
458.807	2.71
459.01	2.87
459.213	2.94
459.417	2.96
459.62	2.98
459.823	2.97
460.026	3
460.23	2.97
460.433	2.73
460.636	2.64
460.839	2.69
461.042	2.84
461.246	2.71
461.449	2.74
461.652	2.79
461.855	2.73
462.058	2.93
462.261	2.85
462.464	3
462.668	3.08
462.871	3.28
463.074	3.07
463.277	2.81
463.48	2.76
463.683	2.61
463.886	2.55
464.089	2.57
464.292	2.36
464.495	2.36
464.698	2.36
464.901	2.5
465.104	2.61
465.306	2.79
465.509	2.83
465.712	2.84
465.915	2.93
466.118	2.92
466.321	2.93
466.524	3.03
466.726	3.25
466.929	3.05
467.132	3.04
467.335	3
467.538	2.95
467.74	2.83
467.943	2.96
468.146	2.88
468.348	2.95
468.551	3.01
468.754	3
468.956	2.86
469.159	2.95
469.362	2.93
469.564	2.78
469.767	2.91
469.969	3.07
470.172	2.97
470.375	3.06
470.577	3.09
470.78	3.02
470.982	2.99
471.185	2.97
471.387	3.11
471.59	3.1
471.792	3.11
471.995	2.96
472.197	2.92
472.399	3.07
472.602	3.01
472.804	2.86
473.007	2.73
473.209	2.87
473.411	2.81
473.614	2.76
473.816	2.75
474.018	2.75
474.22	2.68
474.423	2.74
474.625	2.59
474.827	2.64
475.03	2.89
475.232	3.06
475.434	2.97
475.636	3
475.838	2.93
476.04	2.93
476.243	2.96
476.445	3.07
476.647	3.07
476.849	3.01
477.051	3.04
477.253	3.03
477.455	3
477.657	2.85
477.859	2.92
478.061	2.88
478.263	2.8
478.465	2.8
478.667	2.69
478.869	2.69
479.071	2.84
479.273	2.72
479.475	2.53
479.677	2.53
479.879	2.73
480.081	2.72
480.283	2.77
480.485	2.82
480.686	2.81
480.888	2.89
481.09	2.83
481.292	2.76
481.494	2.83
481.695	2.88
481.897	2.89
482.099	2.81
482.301	2.79
482.502	2.8
482.704	2.81
482.906	2.76
483.107	2.78
483.309	2.73
483.511	2.7
483.712	2.63
483.914	2.67
484.115	2.64
484.317	2.65
484.519	2.68
484.72	2.66
484.922	2.64
485.123	2.64
485.325	2.63
485.526	2.65
485.728	2.67
485.929	2.72
486.131	2.66
486.332	2.69
486.534	2.64
486.735	2.56
486.936	2.56
487.138	2.57
487.339	2.62
487.541	2.63
487.742	2.65
487.943	2.68
488.144	2.72
488.346	2.72
488.547	2.73
488.748	2.73
488.95	2.74
489.151	2.73
489.352	2.71
489.553	2.66
489.755	2.67
489.956	2.64
490.157	2.58
490.358	2.53
490.559	2.57
490.76	2.57
490.961	2.6
491.163	2.66
491.364	2.62
491.565	2.64
491.766	2.6
491.967	2.55
492.168	2.47
492.369	2.47
492.57	2.46
492.771	2.43
492.972	2.39
493.173	2.4
493.374	2.35
493.575	2.35
493.776	2.26
493.976	2.29
494.177	2.35
494.378	2.48
494.579	2.7
494.78	2.73
494.981	2.88
495.182	2.89
495.382	2.94
495.583	2.99
495.784	2.89
495.985	2.98
496.185	3.04
496.386	2.94
496.587	2.93
496.788	2.8
496.988	2.8
497.189	2.8
497.39	2.85
497.59	2.83
497.791	2.85
497.992	2.91
498.192	2.99
498.393	3
498.593	3.07
498.794	3.06
498.994	3.02
499.195	2.91
499.395	2.82
499.596	2.94
499.796	2.98
499.997	2.97
500.197	3.09
500.398	3.05
500.598	3.09
500.799	3.07
500.999	3.14
501.199	3.22
501.4	3.43
501.6	3.61
501.801	3.55
502.001	3.66
502.201	3.68
502.402	3.62
502.602	3.65
502.802	3.69
503.002	3.82
503.203	3.79
503.403	3.72
503.603	3.61
503.803	3.49
504.003	3.56
504.204	3.5
504.404	3.53
504.604	3.51
504.804	3.55
505.004	3.43
505.204	3.4
505.404	3.42
505.604	3.38
505.804	3.41
506.005	3.33
506.205	3.23
506.405	3.21
506.605	3.17
506.805	3.28
507.005	3.15
507.204	3.34
507.404	3.33
507.604	3.4
507.804	3.43
508.004	3.46
508.204	3.54
508.404	3.45
508.604	3.4
508.804	3.49
509.003	3.5
509.203	3.63
509.403	3.65
509.603	3.74
509.803	3.7
510.002	3.69
510.202	3.66
510.402	3.69
510.602	3.76
510.801	3.84
511.001	3.88
511.201	3.74
511.4	3.71
511.6	3.56
511.8	3.56
511.999	3.56
512.199	3.67
512.398	3.69
512.598	3.78
512.797	3.99
512.997	3.9
513.197	3.78
513.396	4
513.596	4.07
513.795	4.21
513.994	4.07
514.194	4.07
514.393	4.06
514.593	4.16
514.792	4.06
514.992	3.92
515.191	4.06
515.39	4.26
515.59	4.35
515.789	4.28
515.988	4.23
516.188	4.39
516.387	4.37
516.586	4.48
516.786	4.49
516.985	4.51
517.184	4.53
517.383	4.62
517.582	4.5
517.782	4.44
517.981	4.6
518.18	4.54
518.379	4.51
518.578	4.54
518.777	4.47
518.976	4.51
519.176	4.52
519.375	4.49
519.574	4.45
519.773	4.5
519.972	4.45
520.171	4.39
520.37	4.45
520.569	4.55
520.768	4.6
520.967	4.66
521.166	4.72
521.365	4.71
521.564	4.86
521.762	4.9
521.961	4.91
522.16	4.99
522.359	4.95
522.558	5.03
522.757	4.95
522.956	5.06
523.154	5.13
523.353	5.11
523.552	5.18
523.751	5.23
523.949	5.3
524.148	5.34
524.347	5.35
524.546	5.35
524.744	5.29
524.943	5.3
525.142	5.26
525.34	5.21
525.539	5.14
525.737	5.21
525.936	5.23
526.135	5.22
526.333	5.19
526.532	5.3
526.73	5.41
526.929	5.47
527.127	5.5
527.326	5.55
527.524	5.53
527.723	5.63
527.921	5.59
528.12	5.58
528.318	5.53
528.516	5.57
528.715	5.55
528.913	5.54
529.112	5.6
529.31	5.57
529.508	5.57
529.707	5.67
529.905	5.71
530.103	5.73
530.301	5.74
530.5	5.82
530.698	5.83
530.896	5.88
531.094	5.88
531.293	5.91
531.491	6.03
531.689	5.98
531.887	5.93
532.085	5.89
532.283	5.87
532.481	5.88
532.68	5.93
532.878	6.02
533.076	6.03
533.274	6.09
533.472	6.14
533.67	6.08
533.868	6.15
534.066	6.13
534.264	6.12
534.462	6.2
534.66	6.22
534.858	6.15
535.056	6.09
535.253	6.08
535.451	6.07
535.649	6.02
535.847	6.18
536.045	6.34
536.243	6.52
536.441	6.66
536.638	6.6
536.836	6.67
537.034	6.72
537.232	6.81
537.43	6.88
537.627	6.9
537.825	6.87
538.023	6.76
538.22	6.64
538.418	6.46
538.616	6.44
538.813	6.58
539.011	6.65
539.209	6.76
539.406	6.78
539.604	6.74
539.801	6.9
539.999	7.09
540.196	7.22
540.394	7.29
540.591	7.4
540.789	7.38
540.986	7.35
541.184	7.31
541.381	7.27
541.579	7.29
541.776	7.29
541.974	7.26
542.171	7.27
542.368	7.29
542.566	7.37
542.763	7.39
542.96	7.46
543.158	7.4
543.355	7.52
543.552	7.7
543.75	7.77
543.947	8
544.144	8.17
544.341	8.21
544.539	8.31
544.736	8.32
544.933	8.36
545.13	8.43
545.327	8.62
545.524	8.59
545.722	8.39
545.919	8.46
546.116	8.41
546.313	8.39
546.51	8.44
546.707	8.52
546.904	8.53
547.101	8.65
547.298	8.71
547.495	8.83
547.692	8.83
547.889	9.02
548.086	9.05
548.283	9.02
548.48	9.02
548.677	9.05
548.874	9.05
549.07	9.1
549.267	9.01
549.464	8.97
549.661	8.95
549.858	9.17
550.055	9.22
550.251	9.26
550.448	9.22
550.645	9.35
550.842	9.32
551.038	9.4
551.235	9.42
551.432	9.5
551.628	9.54
551.825	9.58
552.022	9.57
552.218	9.72
552.415	9.91
552.612	10.13
552.808	10.14
553.005	10.13
553.201	10.08
553.398	10.06
553.594	10.03
553.791	10.31
553.987	10.46
554.184	10.48
554.38	10.47
554.577	10.39
554.773	10.29
554.97	10.45
555.166	10.66
555.362	10.8
555.559	10.96
555.755	11.01
555.952	10.91
556.148	11.05
556.344	11.07
556.541	11.16
556.737	11.13
556.933	11.2
557.129	11.15
557.326	11.32
557.522	11.46
557.718	11.51
557.914	11.66
558.11	11.76
558.307	11.6
558.503	11.85
558.699	11.84
558.895	11.83
559.091	12.05
559.287	11.9
559.483	11.71
559.679	11.71
559.876	12.11
560.072	12.18
560.268	12.15
560.464	12.37
560.66	12.27
560.856	12.43
561.052	12.57
561.247	12.82
561.443	12.98
561.639	13.27
561.835	13.31
562.031	13
562.227	13.12
562.423	13.2
562.619	13.27
562.815	13.48
563.01	13.42
563.206	13.61
563.402	13.41
563.598	13.48
563.793	13.46
563.989	13.48
564.185	13.56
564.381	13.68
564.576	13.81
564.772	13.86
564.968	14.02
565.163	14.21
565.359	14.24
565.555	14.12
565.75	14.14
565.946	14.32
566.141	14.5
566.337	14.55
566.532	14.56
566.728	14.54
566.923	14.59
567.119	14.52
567.314	14.53
567.51	14.54
567.705	14.97
567.901	15.08
568.096	15.07
568.292	15.13
568.487	15.16
568.682	15.3
568.878	15.43
569.073	15.39
569.268	15.53
569.464	15.55
569.659	15.72
569.854	15.66
570.05	15.74
570.245	15.87
570.44	15.73
570.635	15.85
570.831	15.85
571.026	15.99
571.221	16.16
571.416	16.22
571.611	16.42
571.806	16.53
572.002	16.56
572.197	16.64
572.392	16.51
572.587	16.57
572.782	16.7
572.977	16.79
573.172	16.7
573.367	16.81
573.562	16.8
573.757	16.82
573.952	16.76
574.147	16.86
574.342	17.16
574.537	17.4
574.732	17.4
574.927	17.6
575.121	17.59
575.316	17.67
575.511	17.75
575.706	17.82
575.901	17.75
576.096	17.74
576.29	17.9
576.485	17.59
576.68	17.55
576.875	17.61
577.069	17.49
577.264	17.73
577.459	17.61
577.654	17.57
577.848	17.54
578.043	17.76
578.238	17.89
578.432	17.87
578.627	17.99
578.821	18.13
579.016	18.31
579.21	18.47
579.405	18.41
579.6	18.75
579.794	18.91
579.989	18.9
580.183	19.08
580.378	19.21
580.572	19.09
580.766	19.35
580.961	19.21
581.155	19.46
581.35	19.65
581.544	19.89
581.738	19.98
581.933	19.92
582.127	20.04
582.321	19.83
582.516	19.88
582.71	19.84
582.904	19.66
583.099	19.96
583.293	19.89
583.487	19.75
583.681	19.46
583.875	19.7
584.07	19.64
584.264	19.65
584.458	19.83
584.652	19.91
584.846	19.97
585.04	20.08
585.234	19.97
585.428	20.12
585.623	20.38
585.817	20.69
586.011	20.4
586.205	20.37
586.399	20.61
586.593	20.63
586.787	20.76
586.981	20.98
587.174	20.97
587.368	21.16
587.562	21.18
587.756	21.09
587.95	20.89
588.144	20.96
588.338	21.19
588.532	20.98
588.725	20.81
588.919	20.74
589.113	20.72
589.307	20.89
589.501	20.91
589.694	20.71
589.888	20.85
590.082	21.04
590.275	21.15
590.469	21.25
590.663	21.5
590.856	21.75
591.05	21.79
591.244	22.04
591.437	22.09
591.631	21.94
591.824	22.19
592.018	22.07
592.212	22.23
592.405	22.25
592.599	22.25
592.792	22.03
592.986	21.99
593.179	22.13
593.372	22.04
593.566	21.83
593.759	22.07
593.953	22.17
594.146	22.18
594.339	22.09
594.533	22.18
594.726	22.26
594.92	22.5
595.113	22.7
595.306	22.71
595.499	22.71
595.693	22.75
595.886	22.65
596.079	22.74
596.272	22.92
596.466	22.94
596.659	22.96
596.852	23.05
597.045	23.12
597.238	23.03
597.431	23.19
597.624	23.3
597.818	23.6
598.011	23.87
598.204	23.72
598.397	23.73
598.59	23.69
598.783	23.74
598.976	23.61
599.169	23.68
599.362	23.9
599.555	23.83
599.748	23.88
599.941	24.06
600.134	23.86
600.326	24.05
600.519	24.23
600.712	24.48
600.905	24.64
601.098	24.72
601.291	24.87
601.483	24.8
601.676	24.77
601.869	24.58
602.062	24.27
602.255	24.39
602.447	24.49
602.64	24.29
602.833	24.23
603.025	24.19
603.218	24.33
603.411	24.26
603.603	24.3
603.796	24.34
603.989	24.32
604.181	24.49
604.374	24.36
604.566	24.45
604.759	24.41
604.951	24.27
605.144	24.25
605.336	24.37
605.529	24.36
605.721	24.34
605.914	24.38
606.106	24.44
606.299	24.46
606.491	24.46
606.683	24.47
606.876	24.52
607.068	24.74
607.26	24.75
607.453	24.66
607.645	24.72
607.837	24.82
608.03	24.76
608.222	24.99
608.414	24.96
608.606	25.22
608.799	25.14
608.991	25.38
609.183	25.37
609.375	25.45
609.567	25.5
609.759	25.52
609.952	25.74
610.144	25.78
610.336	25.67
610.528	25.68
610.72	25.64
610.912	25.76
611.104	25.81
611.296	25.95
611.488	25.99
611.68	25.76
611.872	25.77
612.064	25.78
612.256	25.67
612.448	25.97
612.64	26.13
612.832	26.23
613.023	26.23
613.215	25.94
613.407	26.23
613.599	26.2
613.791	26.69
613.983	26.67
614.174	26.5
614.366	26.71
614.558	26.71
614.75	26.69
614.941	26.91
615.133	26.89
615.325	27.45
615.516	27.05
615.708	27.1
615.9	27.13
616.091	27.21
616.283	27.09
616.475	27.43
616.666	27.1
616.858	27.04
617.049	26.9
617.241	27.1
617.432	26.63
617.624	26.99
617.815	26.98
618.007	26.73
618.198	26.76
618.39	26.91
618.581	26.74
618.773	26.77
618.964	27.02
619.155	27.1
619.347	26.66
619.538	26.77
619.729	26.47
619.921	26.79
620.112	26.82
620.303	26.64
620.494	26.69
620.686	26.79
620.877	27.01
621.068	26.77
621.259	26.78
621.451	26.97
621.642	27.01
621.833	27.29
622.024	27.39
622.215	27.51
622.406	27.78
622.597	27.82
622.788	27.81
622.98	28.03
623.171	28.18
623.362	28.15
623.553	28.38
623.744	28.67
623.935	28.64
624.126	28.77
624.317	28.69
624.508	28.56
624.698	28.65
624.889	28.42
625.08	28.16
625.271	28.59
625.462	28.61
625.653	28.45
625.844	28.28
626.034	28.03
626.225	27.94
626.416	28.2
626.607	28.47
626.798	28.61
626.988	29.03
627.179	29.36
627.37	29.24
627.56	29.2
627.751	29.45
627.942	29.82
628.132	29.92
628.323	29.75
628.514	29.66
628.704	29.53
628.895	29.46
629.085	29.12
629.276	29
629.466	28.67
629.657	29.1
629.847	28.96
630.038	28.78
630.228	28.79
630.419	28.63
630.609	28.62
630.8	28.79
630.99	28.93
631.181	29.04
631.371	28.89
631.561	29.27
631.752	29.06
631.942	28.99
632.132	28.98
632.323	29.07
632.513	29.61
632.703	29.67
632.893	29.69
633.084	29.52
633.274	29.47
633.464	29.41
633.654	29.25
633.844	29.27
634.034	29.5
634.225	29.53
634.415	29.75
634.605	29.6
634.795	29.54
634.985	29.47
635.175	29.46
635.365	29.47
635.555	29.62
635.745	29.94
635.935	29.9
636.125	29.7
636.315	29.58
636.505	29.44
636.695	29.28
636.885	29.34
637.075	29.08
637.265	29.24
637.455	29.37
637.644	29.82
637.834	29.66
638.024	29.74
638.214	30.05
638.404	30.09
638.593	30.02
638.783	30.27
638.973	30.43
639.163	30.74
639.352	30.6
639.542	30.84
639.732	30.71
639.921	30.7
640.111	30.58
640.301	30.64
640.49	30.62
640.68	30.84
640.87	30.76
641.059	30.54
641.249	31.14
641.438	31.23
641.628	30.66
641.817	30.35
642.007	30.08
642.196	30.15
642.386	29.74
642.575	29.83
642.764	30.21
642.954	30.04
643.143	30.61
643.333	30.02
643.522	29.91
643.711	30.15
643.901	30.64
644.09	31.02
644.279	31.15
644.469	31.29
644.658	31.36
644.847	31.27
645.036	31.31
645.226	31.16
645.415	31.31
645.604	31.6
645.793	31.93
645.982	31.71
646.171	31.52
646.361	31.45
646.55	31.93
646.739	32.07
646.928	32.1
647.117	32.71
647.306	32.58
647.495	32.5
647.684	32.48
647.873	32.43
648.062	32.57
648.251	32.56
648.44	32.52
648.629	32.25
648.818	31.83
649.007	31.86
649.196	31.56
649.384	31.51
649.573	31.67
649.762	31.44
649.951	31.69
650.14	31.35
650.328	31.46
650.517	31.63
650.706	32.16
650.895	32.89
651.083	32.92
651.272	32.93
651.461	33.35
651.65	33.39
651.838	33.68
652.027	33.36
652.216	33.42
652.404	33.37
652.593	33.33
652.781	32.93
652.97	32.39
653.158	31.99
653.347	32.07
653.535	32.06
653.724	32.09
653.912	32.35
654.101	32.41
654.289	32.69
654.478	32.94
654.666	33.29
654.855	33.21
655.043	33.37
655.231	33.77
655.42	33.75
655.608	33.88
655.796	34.08
655.985	33.68
656.173	33.96
656.361	34.27
656.55	34.16
656.738	34.1
656.926	34.29
657.114	34.27
657.302	34.14
657.491	34.11
657.679	34.1
657.867	33.95
658.055	34.19
658.243	33.95
658.431	33.55
658.619	33.55
658.807	33.47
658.996	33.62
659.184	34.01
659.372	34.02
659.56	34.09
659.748	34.05
659.936	34.02
660.124	34.01
660.311	34.15
660.499	34.34
660.687	34.29
660.875	34.36
661.063	34.02
661.251	33.54
661.439	33.59
661.627	33.66
661.814	33.29
662.002	33.25
662.19	33.25
662.378	33.41
662.565	33.13
662.753	33.24
662.941	33.3
663.129	33.4
663.316	33.71
663.504	33.3
663.692	33.6
663.879	34.06
664.067	34.31
664.254	34.4
664.442	34.28
664.63	34.86
664.817	34.8
665.005	34.59
665.192	34.69
665.38	34.93
665.567	34.87
665.755	34.31
665.942	34.09
666.13	34.16
666.317	34.23
666.504	34.62
666.692	34.62
666.879	34.76
667.067	35.14
667.254	34.91
667.441	34.76
667.629	35.26
667.816	35.14
668.003	35.26
668.19	35.19
668.378	35.05
668.565	34.78
668.752	34.48
668.939	34.96
669.127	34.71
669.314	34.81
669.501	34.87
669.688	34.83
669.875	35.12
670.062	35.27
670.249	35
670.436	35.17
670.623	35.46
670.81	35.52
670.997	35.25
671.184	34.8
671.371	35.38
671.558	35.15
671.745	35.3
671.932	35.44
672.119	35.55
672.306	35.86
672.493	35.74
672.68	35.38
672.867	35.26
673.054	34.95
673.24	35.52
673.427	35.03
673.614	35.57
673.801	35.41
673.988	35.11
674.174	34.72
674.361	34.3
674.548	34.55
674.734	34.63
674.921	34.8
675.108	34.93
675.294	35.28
675.481	35.62
675.668	35.56
675.854	35.93
676.041	36.15
676.227	35.86
676.414	36.44
676.601	36.6
676.787	37.02
676.974	37.01
677.16	37.08
677.347	36.8
677.533	36.33
677.719	36.07
677.906	35.78
678.092	35.48
678.279	36.06
678.465	35.78
678.651	35.48
678.838	35.3
679.024	35.54
679.21	35.64
679.397	35.61
679.583	35.58
679.769	35.74
679.955	36.01
680.142	36.22
680.328	36.43
680.514	36.71
680.7	36.4
680.886	36.62
681.073	36.64
681.259	36.38
681.445	36.32
681.631	36.74
681.817	36.77
682.003	36.72
682.189	36.59
682.375	36.45
682.561	36.61
682.747	37.33
682.933	36.64
683.119	36.17
683.305	36.53
683.491	36.65
683.677	36.7
683.863	36.53
684.049	36.82
684.235	37.48
684.42	37.29
684.606	36.81
684.792	36.47
684.978	37.16
685.164	37.4
685.349	37.47
685.535	37.56
685.721	37.35
685.907	37.27
686.092	36.94
686.278	36.57
686.464	36.72
686.649	36.7
686.835	36.81
687.021	36.79
687.206	36.53
687.392	36.05
687.577	35.76
687.763	35.84
687.948	36.2
688.134	36.33
688.319	36.36
688.505	36.2
688.69	36.34
688.876	36.17
689.061	35.49
689.247	36.34
689.432	36.5
689.618	36.22
689.803	36.04
689.988	36
690.174	35.76
690.359	35.97
690.544	36.44
690.73	36.38
690.915	36.36
691.1	36.97
691.285	36.43
691.471	36.66
691.656	37.49
691.841	37.62
692.026	37.26
692.211	37.45
692.396	37.13
692.582	36.57
692.767	36.75
692.952	36.91
693.137	36.75
693.322	36.99
693.507	37.37
693.692	37.3
693.877	37.71
694.062	38.23
694.247	38.44
694.432	38.32
694.617	38.51
694.802	38.77
694.987	38.89
695.172	38.87
695.357	38.94
695.541	38.32
695.726	38.19
695.911	38.05
696.096	38.03
696.281	37.49
696.466	38.14
696.65	37.98
696.835	37.25
697.02	37.29
697.204	37.3
697.389	37.17
697.574	37.55
697.759	37.33
697.943	37.22
698.128	36.94
698.312	37.31
698.497	37.02
698.682	37.06
698.866	37.64
699.051	37.64
699.235	37.47
699.42	37.52
699.604	37.38
699.789	37.62
699.973	37.82
700.158	38.08
700.342	38.3
700.527	38.68
700.711	38.84
700.895	38.93
701.08	38.9
701.264	38.97
701.448	39.24
701.633	39.18
701.817	39.26
702.001	39.26
702.186	38.96
702.37	38.31
702.554	37.82
702.738	38.17
702.923	37.98
703.107	37.8
703.291	38.51
703.475	38.44
703.659	38.3
703.843	38.37
704.027	38.41
704.212	38.83
704.396	39.4
704.58	39.57
704.764	38.57
704.948	38.72
705.132	38.73
705.316	38.63
705.5	38.47
705.684	39.01
705.868	39.16
706.052	38.99
706.235	39.18
706.419	38.63
706.603	38.78
706.787	39.34
706.971	39.05
707.155	39.61
707.339	39.55
707.522	39.12
707.706	39.05
707.89	38.98
708.074	38.3
708.257	37.6
708.441	37.77
708.625	38.05
708.808	37.84
708.992	38.49
709.176	38.04
709.359	37.68
709.543	37.8
709.727	37.73
709.91	37.79
710.094	38.5
710.277	38.84
710.461	38.83
710.644	38.73
710.828	39.38
711.011	39.03
711.195	38.86
711.378	38.86
711.562	39.37
711.745	39.67
711.928	39.84
712.112	40.08
712.295	39.73
712.478	40.61
712.662	40.59
712.845	39.89
713.028	39.82
713.212	40.49
713.395	40.75
713.578	40.65
713.761	40.41
713.945	40.1
714.128	40.47
714.311	41.02
714.494	40.55
714.677	40.62
714.86	41.07
715.043	41.2
715.227	41.25
715.41	41.38
715.593	41.06
715.776	41.14
715.959	41.53
716.142	41.15
716.325	41.18
716.508	41.01
716.691	40.94
716.874	40.64
717.057	40.68
717.239	40.3
717.422	39.94
717.605	40.32
717.788	40.4
717.971	40.31
718.154	39.84
718.337	39.81
718.519	39.47
718.702	39.3
718.885	39.93
719.068	39.52
719.25	39.66
719.433	39.86
719.616	39.77
719.798	40.24
719.981	39.83
720.164	40.02
720.346	39.54
720.529	39.36
720.712	39.42
720.894	38.58
721.077	39.15
721.259	39.14
721.442	39.19
721.624	39.57
721.807	39.19
721.989	39.14
722.172	39.08
722.354	39.79
722.537	40.43
722.719	40.51
722.901	40.88
723.084	39.98
723.266	39.8
723.448	39.77
723.631	39.39
723.813	39.84
723.995	40.89
724.178	41.38
724.36	40.46
724.542	40.39
724.724	40.53
724.907	40.92
725.089	41.37
725.271	41.42
725.453	41.34
725.635	41.58
725.817	41.28
725.999	40.37
726.181	40.21
726.364	40.86
726.546	40.67
726.728	40.65
726.91	40.53
727.092	40.11
727.274	40.26
727.456	40.77
727.638	41.14
727.819	41.2
728.001	41
728.183	41.12
728.365	41.18
728.547	41.18
728.729	41.46
728.911	41.4
729.093	41.77
729.274	41.48
729.456	40.93
729.638	40.52
729.82	39.92
730.001	40.49
730.183	40.51
730.365	41.13
730.546	41.25
730.728	41.06
730.91	40.93
731.091	41.14
731.273	40.94
731.455	40.82
731.636	41.38
731.818	41.62
731.999	41.37
732.181	40.76
732.362	39.99
732.544	40.56
732.725	39.8
732.907	40.03
733.088	40.55
733.27	40.75
733.451	40.78
733.633	40.42
733.814	40.43
733.995	39.93
734.177	40.66
734.358	40.57
734.539	39.25
734.721	39.71
734.902	39.87
735.083	38.58
735.264	38.96
735.446	39.83
735.627	38.81
735.808	38.64
735.989	38.92
736.17	38.39
736.351	38.79
736.533	39.35
736.714	38.79
736.895	38.52
737.076	39.03
737.257	38.92
737.438	39.25
737.619	40.54
737.8	40.74
737.981	41.56
738.162	41.61
738.343	41.96
738.524	42.13
738.705	42.78
738.886	42.9
739.067	42.68
739.247	42.85
739.428	42.24
739.609	41.95
739.79	41.56
739.971	41.33
740.151	41.37
740.332	40.89
740.513	40.66
740.694	40.63
740.874	40.65
741.055	41.03
741.236	41.08
741.417	40.42
741.597	40.88
741.778	41.25
741.958	40.69
742.139	41.05
742.32	41.01
742.5	41.51
742.681	41.18
742.861	41
743.042	40.28
743.222	40.14
743.403	40.06
743.583	39.21
743.764	38.86
743.944	38.78
744.124	37.93
744.305	38.39
744.485	38.17
744.666	37.74
744.846	38.14
745.026	39.35
745.207	39.69
745.387	40.96
745.567	40.06
745.747	39.88
745.928	39.73
746.108	40.55
746.288	40.65
746.468	40.37
746.648	41.47
746.829	41.06
747.009	41.21
747.189	40.75
747.369	40.59
747.549	41.77
747.729	41.63
747.909	41.41
748.089	40.88
748.269	39.24
748.449	39.97
748.629	40.11
748.809	39.6
748.989	39.36
749.169	38.6
749.349	37.95
749.529	37.39
749.709	38.02
749.889	38.92
750.068	38.98
750.248	40.49
750.428	40.01
750.608	39.45
750.788	41.27
750.967	41.29
751.147	42.53
751.327	42.74
751.507	43.68
751.686	42.62
751.866	41.88
752.046	41.31
752.225	39.56
752.405	40.48
752.585	40.91
752.764	39.02
752.944	39.22
753.123	38.77
753.303	38.47
753.482	38.19
753.662	38.83
753.841	39.1
754.021	40.62
754.2	42.39
754.38	41.31
754.559	41.91
754.739	41.85
754.918	41.12
755.097	40.6
755.277	40.9
755.456	40.25
755.635	40.82
755.815	41.56
755.994	40.97
756.173	40.53
756.352	41.74
756.532	41.47
756.711	42.1
756.89	43.01
757.069	43.38
757.248	43.74
757.427	44.75
757.607	44.37
757.786	43.5
757.965	43.21
758.144	43.3
758.323	41.86
758.502	41.53
758.681	40.77
758.86	39.38
759.039	38.4
759.218	37.79
759.397	36.96
759.576	36.71
759.755	36.24
759.934	36.33
760.113	36.75
760.291	36.02
760.47	36
760.649	36.7
760.828	36.63
761.007	37.36
761.186	38.48
761.364	38.21
761.543	38.96
761.722	39.51
761.901	39.33
762.079	38.23
762.258	39.81
762.437	39.38
762.615	39.73
762.794	41.08
762.972	41.35
763.151	40.95
763.33	41.11
763.508	40.81
763.687	41.41
763.865	41.4
764.044	41.73
764.222	41.51
764.401	41.68
764.579	41.71
764.758	40.8
764.936	40.86
765.114	40.73
765.293	40.5
765.471	40.87
765.65	39.58
765.828	39.82
766.006	39.69
766.184	39.64
766.363	40.12
766.541	39.68
766.719	40.49
766.898	40.33
767.076	39.98
767.254	40.72
767.432	39.89
767.61	41.25
767.788	41.03
767.967	41.65
768.145	40.89
768.323	40.79
768.501	40.62
768.679	39.43
768.857	40.03
769.035	40.42
769.213	39.28
769.391	39.9
769.569	40.08
769.747	41.4
769.925	42.34
770.103	42.72
770.281	41.08
770.459	42
770.636	41.34
770.814	39.95
770.992	40.48
771.17	40.82
771.348	42.04
771.525	41.59
771.703	40.24
771.881	39.11
772.059	40.36
772.236	41.13
772.414	39.63
772.592	40.87
772.769	42.12
772.947	42.25
773.125	42.32
773.302	40.62
773.48	39.6
773.657	40.3
773.835	41.01
774.013	40.09
774.19	39.97
774.368	42.08
774.545	41.2
774.723	39.53
774.9	38.79
775.077	40.26
775.255	39.83
775.432	40.42
775.61	39.34
775.787	38.75
775.964	39.71
776.142	40.55
776.319	38.88
776.496	40.28
776.674	41.81
776.851	41.88
777.028	42.56
777.205	44.19
777.382	44.18
777.56	45.07
777.737	45.13
777.914	44.36
778.091	43.46
778.268	44.06
778.445	45.41
778.622	45.03
778.8	44.73
778.977	42.55
779.154	48.52
779.331	47.68
779.508	46.17
779.685	46.66
779.862	47.05
780.038	46.37
780.215	47.41
780.392	46.55
780.569	46.15
780.746	46.02
780.923	45.74
781.1	38.18
781.277	40.67
781.453	41.62
781.63	38.47
781.807	37.71
781.984	39.94
782.16	39.33
782.337	37.46
782.514	37.75
782.691	38.43
782.867	40.65
783.044	41.07
783.221	39.45
783.397	38.99
783.574	40.23
783.75	40.03
783.927	40.29
784.103	40.59
784.28	42.07
784.456	43
784.633	42.88
784.809	39.87
784.986	39.94
785.162	39.27
785.339	39.67
785.515	40.32
785.692	41.04
785.868	40.79
786.044	40.52
786.221	41.01
786.397	40.95
786.573	42.21
786.749	42.73
786.926	43.31
787.102	44.71
787.278	44.96
787.454	45.73
787.631	45.49
787.807	44.05
787.983	43.31
788.159	42.83
788.335	42.32
788.511	42.07
788.687	42.6
788.863	42.22
789.039	40.24
789.216	39.74
789.392	39.68
789.568	41.12
789.744	41.43
789.919	42.78
790.095	42.8
790.271	42.17
790.447	40.1
790.623	39.25
790.799	38.69
790.975	40.23
791.151	41.12
791.327	39.9
791.502	38.37
791.678	38.48
791.854	37
792.03	35.71
792.205	36.43
792.381	36.45
792.557	36.95
792.733	36.5
792.908	36.04
793.084	34.76
793.259	35.53
793.435	36.01
793.611	38.64
793.786	39.61
793.962	40.21
794.137	40.08
794.313	42.72
794.488	41.87
794.664	43.12
794.839	43.18
795.015	44.04
795.19	45.91
795.366	45.72
795.541	43.16
795.716	42.54
795.892	43.18
796.067	43.4
796.242	43
796.418	44.84
796.593	45.46
796.768	44.82
796.944	44.88
797.119	42.55
797.294	43.25
797.469	44.44
797.644	44.87
797.82	45.01
797.995	44.19
798.17	42.06
798.345	41.06
798.52	41.02
798.695	42.16
798.87	40.6
799.045	42.26
799.22	39.4
799.395	38.2
799.57	37.08
799.745	37.15
799.92	38.9
800.095	40.13
800.27	40.85
800.445	39.79
800.62	39.39
800.795	39.18
800.97	36.72
801.145	38.16
801.319	39.11
801.494	40.33
801.669	40.54
801.844	38.3
802.018	36.37
802.193	34.79
802.368	33.67
802.543	33.96
802.717	37.51
802.892	37.13
803.067	38.61
803.241	37.83
803.416	37.34
803.59	37.13
803.765	38.04
803.94	40.32
804.114	40.17
804.289	43.56
804.463	45.1
804.638	42.3
804.812	46.04
804.986	45.67
805.161	46.5
805.335	44.08
805.51	44.45
805.684	45.51
805.858	44.7
806.033	44.66
806.207	41.32
806.381	37.84
806.556	38.05
806.73	38.15
806.904	38.38
807.078	38.18
807.253	39.51
807.427	39.53
807.601	38.63
807.775	40.38
807.949	41.69
808.123	41.73
808.298	45.27
808.472	45.35
808.646	44.73
808.82	46.76
808.994	45.79
809.168	46.68
809.342	46.26
809.516	45.59
809.69	44.47
809.864	45.36
810.038	47.58
810.212	47.27
810.385	48.5
810.559	47.72
810.733	47.59
810.907	46.01
811.081	45.01
811.255	45.29
811.428	46.75
811.602	45.86
811.776	46.93
811.95	47.34
812.123	46.81
812.297	46.25
812.471	45.68
812.644	43.97
812.818	43.71
812.992	44.9
813.165	43.44
813.339	42.37
813.512	42.67
813.686	42.71
813.86	42.77
814.033	44.33
814.207	44.45
814.38	45.1
814.554	41.81
814.727	43.77
814.9	43.29
815.074	45.89
815.247	47.42
815.421	44.38
815.594	41.94
815.767	41.4
815.941	38.91
816.114	38.02
816.287	37.52
816.46	39.09
816.634	37.74
816.807	38.02
816.98	37.46
817.153	36.59
817.327	40.87
817.5	42.14
817.673	41.38
817.846	40.19
818.019	41.77
818.192	39.13
818.365	38.17
818.538	39.55
818.711	38.67
818.884	38.1
819.057	39.93
819.23	41.01
819.403	39.28
819.576	40.37
819.749	44.81
819.922	43.69
820.095	45.59
820.268	47.51
820.441	47.95
820.614	47.25
820.786	47.84
820.959	47.91
821.132	45.88
821.305	46.8
821.477	46.45
821.65	45.25
821.823	45.97
821.996	46.93
822.168	45.88
822.341	44.57
822.514	44.44
822.686	43.5
822.859	42.75
823.031	43.09
823.204	43.24
823.376	43.33
823.549	42.47
823.722	41.78
823.894	41.48
824.067	41.33
824.239	41.7
824.411	41.97
824.584	42.41
824.756	42.84
824.929	42.98
825.101	42.97
825.273	42.01
825.446	43.19
825.618	42.66
825.79	42.21
825.963	42.55
826.135	42.35
826.307	42.08
826.479	42.41
826.652	42.59
826.824	42.12
826.996	41.53
827.168	41.97
827.34	41.62
827.512	42.44
827.684	42.37
827.856	41.65
828.029	41.84
828.201	41.42
828.373	40.67
828.545	39.5
828.717	39.99
828.889	40.51
829.061	41.35
829.232	40.64
829.404	40.11
829.576	40.24
829.748	40.53
829.92	41.15
830.092	41.85
830.264	41.69
830.436	42.27
830.607	40.93
830.779	41.07
830.951	41.28
831.123	40.6
831.294	41.94
831.466	43.66
831.638	44.81
831.809	43.42
831.981	43.78
832.153	45.34
832.324	45.77
832.496	45.53
832.667	44.83
832.839	43.04
833.011	44.25
833.182	46.9
833.354	44.72
833.525	45.16
833.697	46.12
833.868	44.95
834.039	42.51
834.211	41.03
834.382	40.77
834.554	39.86
834.725	40.09
834.896	40.5
835.068	38.63
835.239	37.67
835.41	37.71
835.581	36.88
835.753	36.74
835.924	39.58
836.095	41.25
836.266	42.34
836.438	42.79
836.609	44.45
836.78	43.44
836.951	41.76
837.122	42.2
837.293	42.05
837.464	43.8
837.635	43.89
837.806	43.19
837.977	42.69
838.148	41.84
838.319	42
838.49	40.67
838.661	41.99
838.832	43.24
839.003	44.04
839.174	42.32
839.345	40.75
839.516	38.81
839.687	36.73
839.857	36.41
840.028	35.73
840.199	33.74
840.37	36.51
840.54	37.93
840.711	38.15
840.882	39.33
841.053	42.05
841.223	39.35
841.394	43.4
841.564	42.89
841.735	42.28
841.906	39.42
842.076	42.55
842.247	39.21
842.417	41.81
842.588	44.42
842.758	43.89
842.929	44.56
843.099	47.65
843.27	47.87
843.44	50.25
843.611	49.59
843.781	53.06
843.951	53.97
844.122	53.37
844.292	48.42
844.462	44.57
844.633	43.78
844.803	40.36
844.973	38.61
845.144	37.63
845.314	35.78
845.484	37.95
845.654	41.83
845.824	47.45
845.995	49.86
846.165	52.51
846.335	52.86
846.505	51.82
846.675	54.56
846.845	51.66
847.015	58.63
847.185	57.92
847.355	53.7
847.525	48.94
847.695	40.38
847.865	40.28
848.035	37.4
848.205	39.48
848.375	38.46
848.545	32.05
848.715	38.94
848.884	34.85
849.054	37.18
849.224	39.67
849.394	47.84
849.564	46.79
849.733	43.97
849.903	52.22
850.073	55.91
850.243	59.97
850.412	61.25
850.582	56.13
850.752	42.77
850.921	38.03
851.091	40.3
851.26	38.28
851.43	37.7
851.599	37.02
851.769	29.55
851.939	25.81
852.108	23.75
852.278	21.73
852.447	21.37
852.616	29.39
852.786	29.13
852.955	23.71
853.125	20.35
853.294	19.86
853.463	21.56
853.633	19.22
853.802	20.47
853.971	16.82
854.141	25.95
854.31	31.39
854.479	32.55
854.648	38.65
854.818	37.7
854.987	30.81
855.156	32.03
855.325	27.27
855.494	25.49
855.663	27.18
855.832	28.94
856.001	25.35
856.171	20.46
856.34	19.07
856.509	12.32
856.678	11
856.847	10.7
857.016	10.23
857.185	13.22
857.353	18.41
857.522	16.36
857.691	21.27
857.86	29.01
858.029	32.59
858.198	31.73
858.367	36.4
858.535	44.32
858.704	50.43
858.873	57.44
859.042	52.18
859.21	51.69
859.379	54.35
859.548	53.38
859.717	43.92
859.885	43.43
860.054	45.86
860.222	43.56
860.391	41.69
860.56	42.69
860.728	36.62
860.897	43.65
861.065	42.96
861.234	36.15
861.402	43.76
861.571	49.37
861.739	50.22
861.908	46.98
862.076	50.8
862.244	47.92
862.413	46.57
862.581	45.28
862.749	41.98
862.918	36.62
863.086	38.44
863.254	32.21
863.423	39.35
863.591	42.61
863.759	44.83
863.927	41.69
864.096	42.91
864.264	44.66
864.432	44.13
864.6	51.23
864.768	58.78
864.936	55.55
865.104	50.67
865.272	46.3
865.44	50.13
865.608	46.57
865.776	45.67
865.944	47.02
866.112	48.39
866.28	43.73
866.448	38.47
866.616	37.13
866.784	47.06
866.952	54.99
867.12	57.03
867.288	53.54
867.455	56.41
867.623	62.76
867.791	58.91
867.959	55.77
868.127	70.77
868.294	75.94
868.462	73.01
868.63	63.94
868.797	61.65
868.965	59.82
869.133	60.48
869.3	59.99
869.468	59.44
869.636	59.15
869.803	61.52
869.971	52.22
870.138	49.37
870.306	52.41
870.473	55.05
870.641	49.69
870.808	51.71
870.975	52.9
871.143	51.16
871.31	46.23
871.478	54.67
871.645	59.41
871.812	66.37
871.98	57.63
872.147	54.5
872.314	56.76
872.482	59.96
872.649	55.74
872.816	51.37
872.983	52.81
873.15	52.75
873.318	46.53
873.485	40.01
873.652	36.27
873.819	41.16
873.986	45.66
874.153	41.15
874.32	42.57
874.487	44.95
874.654	45.89
874.821	46.76
874.988	47.74
875.155	49.86
875.322	55.38
875.489	53.15
875.656	50.21
875.823	42.93
875.99	49.02
876.157	45.62
876.324	45.28
876.49	46.89
876.657	46.08
876.824	49.99
876.991	48.26
877.157	43.24
877.324	43.8
877.491	49.7
877.658	54.35
877.824	52.4
877.991	54.82
878.157	55.26
878.324	53.83
878.491	54.4
878.657	51.03
878.824	55.13
878.99	55.24
879.157	56.17
879.323	59.25
879.49	53.39
879.656	53.68
879.823	50.81
879.989	44.41
880.156	40.61
880.322	35.45
880.488	37
880.655	30.6
880.821	32
880.987	34.16
881.154	31.84
881.32	35.9
881.486	34.01
881.652	33.21
881.819	37.32
881.985	42.37
882.151	43.71
882.317	40.99
882.483	41.3
882.649	41.26
882.816	41.01
882.982	39.9
883.148	40.77
883.314	40.45
883.48	41.16
883.646	41.28
883.812	39.52
883.978	40.52
884.144	42.06
884.31	42.36
884.476	43.15
884.642	44.95
884.807	44.94
884.973	43.89
885.139	44.76
885.305	46.84
885.471	45.06
885.637	45.44
885.802	45.48
885.968	45.14
886.134	46.05
886.3	44.22
886.465	42.09
886.631	43.64
886.797	42.45
886.962	42.07
887.128	41
887.293	43.05
887.459	44.63
887.625	45.85
887.79	44
887.956	44.51
888.121	48.32
888.287	50.07
888.452	48.55
888.618	54.05
888.783	55.9
