Data from LC_210__Reflection_3.txt Node
Date: Thu Nov 19 12:17:25 EST 2015
User: robert
Spectrometer: USB4E03001
Autoset integration time: false
Trigger mode: 4
Integration Time (sec): 1.000000E-1
Scans to average: 15
Electric dark correction enabled: true
Nonlinearity correction enabled: false
Boxcar width: 5
Stray light correction enabled: false
XAxis mode: Wavelengths
Stop averaging: false
Number of Pixels in Spectrum: 3648
>>>>>Begin Spectral Data<<<<<
177.566	-80.27
177.785	208.1
178.005	-234.41
178.225	75.25
178.445	75.97
178.665	98.85
178.885	-54.62
179.105	-363.74
179.324	-216.51
179.544	-338.65
179.764	65.95
179.984	-192.7
180.204	-79.33
180.423	-44.72
180.643	73
180.863	57.5
181.083	60.05
181.302	37.13
181.522	68.89
181.742	49.51
181.961	32.32
182.181	52.81
182.401	54.01
182.621	36.1
182.84	49.02
183.06	49.67
183.279	69.5
183.499	73.73
183.719	82.67
183.938	68.2
184.158	82.81
184.377	133.85
184.597	383.19
184.816	-431.42
185.036	-227.94
185.256	-113.21
185.475	-42.68
185.695	-16.94
185.914	5.04
186.134	-22
186.353	-42.16
186.572	-249.92
186.792	-279.64
187.011	848.61
187.231	598.35
187.45	574.56
187.67	277.54
187.889	206.47
188.108	1545.27
188.328	381.4
188.547	340.47
188.766	-893.56
188.986	-51.22
189.205	-2.32
189.424	-13.84
189.644	-25.57
189.863	-166.77
190.082	-171.6
190.302	-175.48
190.521	-154.3
190.74	-154.11
190.959	-1014.88
191.178	-759.25
191.398	-634.93
191.617	-2710.54
191.836	-2405.96
192.055	-607.75
192.274	-325.41
192.494	-98.23
192.713	-116.8
192.932	-66.96
193.151	-125.63
193.37	-44.82
193.589	-138.36
193.808	323.95
194.027	320.72
194.246	116.66
194.465	159.47
194.685	-1991.76
194.904	157.47
195.123	973.44
195.342	424.1
195.561	370.74
195.78	1741.72
195.999	870.53
196.218	-1144.02
196.436	33192.31
196.655	-2079.49
196.874	-93.61
197.093	-76.53
197.312	-123.05
197.531	-195.27
197.75	-1077.12
197.969	-98.64
198.188	3568.46
198.407	406.52
198.625	232.63
198.844	121.56
199.063	124.28
199.282	78.75
199.501	61.56
199.719	56.78
199.938	37.42
200.157	-0.22
200.376	36.21
200.594	19.5
200.813	10.85
201.032	-31.19
201.251	34.2
201.469	-42.14
201.688	-69.3
201.907	-7.77
202.125	-63.16
202.344	27.57
202.563	49.23
202.781	40.97
203	56.95
203.218	28.6
203.437	40.77
203.656	56.45
203.874	155.43
204.093	89.71
204.311	-195
204.53	-61.2
204.748	-11.53
204.967	1.68
205.185	15.29
205.404	8.71
205.622	12.29
205.841	5.53
206.059	55.06
206.278	-1052.66
206.496	-102.26
206.715	55.77
206.933	-30.48
207.151	11.62
207.37	31.91
207.588	63.69
207.806	56.6
208.025	95.49
208.243	128.43
208.461	581.06
208.68	1008.74
208.898	431.58
209.116	-18921.15
209.335	653.56
209.553	-386.62
209.771	-258.41
209.989	-732.34
210.208	-199.03
210.426	-341.68
210.644	261.72
210.862	182.96
211.081	191.75
211.299	112.49
211.517	125.04
211.735	2935.58
211.953	280.94
212.171	116.44
212.39	70.45
212.608	76.94
212.826	76.97
213.044	187.39
213.262	170.97
213.48	129.34
213.698	123.16
213.916	84.22
214.134	89.53
214.352	58.15
214.57	64.94
214.788	134.16
215.006	44.71
215.224	92.92
215.442	87.8
215.66	69.06
215.878	11.79
216.096	-29.11
216.314	-44.57
216.532	-17.09
216.75	-65.57
216.968	-36.07
217.185	-49.31
217.403	-32.86
217.621	-100.65
217.839	-87.52
218.057	-56.93
218.275	6.92
218.492	23.96
218.71	43.11
218.928	25.41
219.146	10.81
219.363	0.12
219.581	-7.5
219.799	-31.91
220.017	-26.42
220.234	-46.2
220.452	-98.18
220.67	-288.94
220.887	-237.07
221.105	-123.62
221.323	-47.59
221.54	21.14
221.758	15.69
221.976	34.43
222.193	37.37
222.411	35.06
222.629	36.99
222.846	24.36
223.064	20.3
223.281	28.8
223.499	23.78
223.716	28.12
223.934	24.01
224.151	3.44
224.369	-21.51
224.586	-32.82
224.804	-110.42
225.021	-103.94
225.239	-111.88
225.456	-127.84
225.674	-240.51
225.891	-89.02
226.108	-89.47
226.326	-81.02
226.543	-71.04
226.76	-77.09
226.978	-105.03
227.195	-63.59
227.413	-56.17
227.63	-52.64
227.847	-35.2
228.064	-18.52
228.282	-18.73
228.499	-15.34
228.716	-11.7
228.934	-7.28
229.151	-3.56
229.368	1.61
229.585	-0.47
229.802	1.32
230.02	5.13
230.237	3.91
230.454	4.5
230.671	3.49
230.888	2.95
231.105	2.31
231.323	3.45
231.54	4.53
231.757	5.78
231.974	11.01
232.191	12.78
232.408	14.8
232.625	17.3
232.842	18.01
233.059	17
233.276	17.69
233.493	13.2
233.71	12.41
233.927	1.37
234.144	1.47
234.361	-1.46
234.578	-0.4
234.795	-2.44
235.012	-4.48
235.229	-10.87
235.446	-4.76
235.663	-8.04
235.879	-0.91
236.096	-3.19
236.313	2.97
236.53	-5.6
236.747	-0.93
236.964	0.7
237.181	8.72
237.397	7.79
237.614	11.05
237.831	4.6
238.048	5.87
238.264	-0.54
238.481	6.28
238.698	8.8
238.915	16.21
239.131	7.4
239.348	6.57
239.565	0.43
239.781	2.37
239.998	7.38
240.215	10.63
240.431	13.53
240.648	12.49
240.865	10.33
241.081	9.13
241.298	8.37
241.514	10.39
241.731	9.85
241.947	10.48
242.164	8.72
242.38	6.58
242.597	3.54
242.814	2.7
243.03	2.05
243.246	2.85
243.463	3.27
243.679	4.63
243.896	4.5
244.112	4.66
244.329	4.18
244.545	6.04
244.762	6.36
244.978	11.08
245.194	10.5
245.411	11.32
245.627	10.27
245.843	12.02
246.06	10.07
246.276	9.36
246.492	8.26
246.709	7.66
246.925	8.45
247.141	7.98
247.357	7.82
247.574	8.59
247.79	9.79
248.006	9.74
248.222	8.98
248.439	9.05
248.655	7.88
248.871	8.48
249.087	8.39
249.303	7.74
249.519	8.21
249.736	7.34
249.952	5.54
250.168	3.72
250.384	2.08
250.6	0.8
250.816	1.66
251.032	4.43
251.248	1.64
251.464	2.19
251.68	1.54
251.896	2.21
252.112	2.43
252.328	3.07
252.544	2.94
252.76	3.61
252.976	4.4
253.192	2.73
253.408	3.36
253.624	5.77
253.84	6.15
254.056	7.41
254.272	6.56
254.487	4.75
254.703	5.87
254.919	7.43
255.135	9.44
255.351	6.03
255.567	6.62
255.782	3.96
255.998	-0.66
256.214	-3.21
256.43	-3.07
256.646	-0.94
256.861	0.62
257.077	0.18
257.293	-0.12
257.508	0.04
257.724	2.49
257.94	4.17
258.155	6.56
258.371	6.71
258.587	7.24
258.802	7.48
259.018	7.45
259.234	7.95
259.449	7.52
259.665	6.87
259.88	7.55
260.096	7.14
260.312	6.79
260.527	5.55
260.743	6.32
260.958	5.81
261.174	5.36
261.389	5.09
261.605	5.27
261.82	6.16
262.036	5.81
262.251	4.41
262.466	4.94
262.682	6.08
262.897	7.15
263.113	7.5
263.328	8.21
263.543	7.55
263.759	7.76
263.974	5.99
264.189	4.4
264.405	3.63
264.62	2.7
264.835	2
265.051	-0.69
265.266	-1.75
265.481	-1.99
265.696	-1.86
265.912	-1.6
266.127	-0.93
266.342	1.16
266.557	1.24
266.773	4.7
266.988	5.67
267.203	6.22
267.418	7.2
267.633	8.98
267.848	10.12
268.064	10.14
268.279	10.22
268.494	8.45
268.709	7.68
268.924	7.64
269.139	6.22
269.354	5.51
269.569	5.69
269.784	4.39
269.999	4.26
270.214	2.13
270.429	3.87
270.644	4.07
270.859	6.21
271.074	6.94
271.289	7.46
271.504	7.93
271.719	8.95
271.934	8.13
272.149	8.69
272.363	8.61
272.578	8.55
272.793	7.79
273.008	7.8
273.223	5.66
273.438	5.29
273.653	4.33
273.867	3.54
274.082	2.81
274.297	4.9
274.512	5.26
274.726	5.07
274.941	6.06
275.156	6.14
275.371	7.21
275.585	9.2
275.8	8.33
276.015	8.51
276.229	9.83
276.444	10.16
276.659	7.79
276.873	4.81
277.088	3.67
277.302	4.54
277.517	3.83
277.732	2.52
277.946	0.05
278.161	1.17
278.375	0.65
278.59	-0.42
278.804	-0.78
279.019	0.81
279.233	5
279.448	5.34
279.662	4.06
279.877	4.4
280.091	4.36
280.306	6.74
280.52	6.07
280.735	7.5
280.949	8.39
281.163	7.96
281.378	6.15
281.592	5.62
281.806	5.48
282.021	7.25
282.235	6.74
282.449	7.55
282.664	7.25
282.878	7.15
283.092	8.04
283.307	7.74
283.521	6.78
283.735	6.74
283.949	6.17
284.164	6.11
284.378	4.76
284.592	6.2
284.806	6.65
285.02	6.39
285.234	5.9
285.449	4.38
285.663	3.43
285.877	4.52
286.091	5.16
286.305	5.4
286.519	6.09
286.733	5.79
286.947	5.34
287.161	4.01
287.375	5.25
287.589	5.5
287.803	5.6
288.017	6.46
288.231	6.63
288.445	6.61
288.659	6.18
288.873	6.68
289.087	7.93
289.301	7.64
289.515	8.17
289.729	6.83
289.943	6.25
290.157	7.42
290.371	6.73
290.584	7.66
290.798	7.31
291.012	8.02
291.226	6.42
291.44	5.95
291.654	5.69
291.867	5.65
292.081	5.62
292.295	5.78
292.509	5.46
292.722	5.45
292.936	4.14
293.15	7.17
293.364	5.46
293.577	5.54
293.791	4.82
294.005	5.95
294.218	6.38
294.432	7.33
294.645	8.96
294.859	8.23
295.073	8.33
295.286	8.82
295.5	7.14
295.713	7.55
295.927	7.76
296.14	7.48
296.354	7.31
296.568	7.4
296.781	7.4
296.994	6.7
297.208	6.63
297.421	7.08
297.635	7.66
297.848	8.03
298.062	8.62
298.275	9.42
298.489	10.3
298.702	9.62
298.915	9.69
299.129	9.58
299.342	9.17
299.555	10.02
299.769	10.5
299.982	10.15
300.195	9.49
300.409	9.1
300.622	9.29
300.835	8.11
301.048	10.09
301.262	11.13
301.475	10.98
301.688	11.8
301.901	11.14
302.115	11.59
302.328	11.37
302.541	11.58
302.754	12.19
302.967	11.38
303.18	12.92
303.393	11.15
303.607	9.54
303.82	10.78
304.033	10
304.246	11.54
304.459	11.17
304.672	12.31
304.885	10.77
305.098	10.3
305.311	11.84
305.524	11.97
305.737	12.72
305.95	14.01
306.163	13.12
306.376	14.12
306.589	12.03
306.802	11.84
307.015	9.4
307.228	10.5
307.44	10.61
307.653	9.98
307.866	10.04
308.079	9.65
308.292	9.36
308.505	9.89
308.718	10.36
308.93	11.05
309.143	10.71
309.356	10.69
309.569	11.99
309.781	12.42
309.994	11.97
310.207	10.62
310.42	11.03
310.632	10.73
310.845	10.29
311.058	9.94
311.27	10.34
311.483	10.47
311.696	11.08
311.908	10.65
312.121	9.73
312.333	10.16
312.546	9.64
312.759	9.84
312.971	9.95
313.184	9.07
313.396	8.75
313.609	7.52
313.821	6.62
314.034	6.36
314.246	5.38
314.459	5.91
314.671	4.55
314.884	4.88
315.096	3.83
315.309	2.95
315.521	3.54
315.733	3.92
315.946	5.28
316.158	6.46
316.371	7.48
316.583	8.46
316.795	9.67
317.008	10.72
317.22	12.25
317.432	13.04
317.644	13.27
317.857	13.77
318.069	13.05
318.281	13.79
318.494	13.2
318.706	11.93
318.918	10.89
319.13	9.42
319.342	10.11
319.555	10.78
319.767	9.16
319.979	8.73
320.191	9.39
320.403	12.02
320.615	10.33
320.827	10.75
321.039	11.42
321.252	11.42
321.464	10.33
321.676	10.45
321.888	8.39
322.1	9.16
322.312	10.11
322.524	8.99
322.736	8.21
322.948	8.1
323.16	8.12
323.372	8.91
323.584	9.44
323.796	11.07
324.007	9.29
324.219	10.46
324.431	11.42
324.643	11.5
324.855	11.22
325.067	10.64
325.279	11.28
325.491	11.03
325.702	10.41
325.914	10.05
326.126	11.22
326.338	12.16
326.55	12.01
326.761	11.96
326.973	12.41
327.185	13.35
327.396	13.92
327.608	13.29
327.82	14.89
328.032	15.88
328.243	17.09
328.455	15.73
328.666	18.12
328.878	18.38
329.09	18.16
329.301	18.79
329.513	19.55
329.725	19.04
329.936	19.98
330.148	20.11
330.359	19.43
330.571	20.07
330.782	20.64
330.994	18.3
331.205	18.62
331.417	18.3
331.628	18.22
331.84	18.54
332.051	20.08
332.262	20.08
332.474	19.51
332.685	20.72
332.897	19.22
333.108	19.2
333.319	20.37
333.531	20.66
333.742	22.52
333.953	23.52
334.165	23.17
334.376	22.79
334.587	24.15
334.799	24.37
335.01	24.12
335.221	25.47
335.432	26.07
335.644	25.72
335.855	25.36
336.066	25.11
336.277	23.92
336.488	24.37
336.7	23.87
336.911	23.86
337.122	22.93
337.333	23.21
337.544	23.93
337.755	25.02
337.966	24.91
338.177	24.96
338.388	26.06
338.599	26.62
338.811	26.76
339.022	27.48
339.233	27.43
339.444	29.27
339.655	28.98
339.866	28.25
340.076	26.98
340.287	27.93
340.498	27.42
340.709	26.17
340.92	26.27
341.131	26.24
341.342	26.31
341.553	26.29
341.764	26.83
341.975	26.98
342.185	27.65
342.396	27.52
342.607	26.66
342.818	27.21
343.029	27.75
343.239	27.69
343.45	27.83
343.661	27.56
343.872	26.55
344.082	26.04
344.293	25.98
344.504	27.81
344.714	27.87
344.925	28.72
345.136	29.18
345.346	28.76
345.557	29.19
345.768	28.82
345.978	28.96
346.189	30.19
346.399	29.66
346.61	29.52
346.821	27.78
347.031	27.67
347.242	26.91
347.452	27.26
347.663	26.64
347.873	27.09
348.084	27.04
348.294	27.34
348.504	26.89
348.715	27.3
348.925	27.42
349.136	26.78
349.346	27.3
349.557	27.06
349.767	26.59
349.977	27.16
350.188	26.2
350.398	26.28
350.608	25.48
350.819	25.6
351.029	24.3
351.239	24.12
351.449	24.09
351.66	24.35
351.87	24.63
352.08	24.67
352.29	25.34
352.501	25
352.711	24.71
352.921	25.33
353.131	24.92
353.341	26.32
353.552	26.64
353.762	27.11
353.972	26.71
354.182	27.41
354.392	27.5
354.602	27.09
354.812	27.96
355.022	28.1
355.232	27.91
355.442	28.62
355.652	28.61
355.862	28.19
356.072	27.5
356.282	27.18
356.492	26.3
356.702	26.21
356.912	26.31
357.122	25.88
357.332	26.01
357.542	25.59
357.752	25.13
357.962	24.16
358.171	25.02
358.381	24.55
358.591	24.87
358.801	25.44
359.011	25.78
359.221	25.22
359.43	25.3
359.64	25.71
359.85	26.33
360.06	26.44
360.269	27.14
360.479	26.85
360.689	27.09
360.899	26.72
361.108	27.19
361.318	26.61
361.528	26.56
361.737	26.59
361.947	26.41
362.156	26.18
362.366	25.79
362.576	25.88
362.785	25.66
362.995	26.69
363.204	26.88
363.414	25.67
363.623	25.53
363.833	25.73
364.042	24.87
364.252	24.78
364.461	24.94
364.671	25.31
364.88	24.48
365.09	23.94
365.299	23.26
365.509	22.85
365.718	23.59
365.927	24.08
366.137	24.07
366.346	24.6
366.555	23.85
366.765	23.75
366.974	23.61
367.183	23.8
367.393	23.88
367.602	23.69
367.811	23.56
368.021	23
368.23	22.31
368.439	22.48
368.648	22.1
368.857	22.37
369.067	22.17
369.276	21.56
369.485	21.48
369.694	21.48
369.903	21.4
370.112	22.25
370.321	22.27
370.531	22.87
370.74	22.96
370.949	23.48
371.158	23.72
371.367	23.72
371.576	23.86
371.785	24.02
371.994	23.86
372.203	23.58
372.412	23
372.621	23.24
372.83	23.26
373.039	23.19
373.248	23.05
373.457	23.44
373.666	22.88
373.874	22.88
374.083	22.27
374.292	22.76
374.501	23.07
374.71	22.97
374.919	22.43
375.128	21.9
375.336	21.32
375.545	21.5
375.754	20.68
375.963	20.84
376.171	20.88
376.38	21.5
376.589	21.49
376.798	20.92
377.006	21.31
377.215	21.38
377.424	21.65
377.632	21.76
377.841	21.6
378.05	21.85
378.258	21.96
378.467	21.77
378.675	21.47
378.884	21.16
379.093	21.2
379.301	20.93
379.51	20.85
379.718	20.77
379.927	20.66
380.135	20.4
380.344	20.27
380.552	20.04
380.761	19.76
380.969	20.1
381.177	20.03
381.386	20.87
381.594	21.08
381.803	21.3
382.011	20.97
382.219	21.27
382.428	20.94
382.636	20.51
382.845	20.49
383.053	21.03
383.261	20.55
383.469	20.51
383.678	19.84
383.886	19.47
384.094	19.17
384.302	19.21
384.511	19.14
384.719	19.16
384.927	19.11
385.135	18.85
385.343	18.66
385.552	18.24
385.76	18.14
385.968	18.08
386.176	17.86
386.384	18.01
386.592	17.77
386.8	17.27
387.008	17.54
387.216	17.64
387.424	18.27
387.633	18.34
387.841	18.58
388.049	18.34
388.257	18.26
388.465	18.35
388.672	18.31
388.88	18.53
389.088	18.31
389.296	17.92
389.504	18.07
389.712	17.51
389.92	17.33
390.128	17.48
390.336	17.59
390.544	17.52
390.751	17.49
390.959	17.43
391.167	17.49
391.375	17.92
391.583	18.26
391.79	18.39
391.998	18.31
392.206	18.36
392.414	17.97
392.621	17.97
392.829	17.99
393.037	18.01
393.244	17.92
393.452	17.85
393.66	17.49
393.867	17.46
394.075	17.22
394.283	17.24
394.49	17.28
394.698	17.65
394.905	17.44
395.113	17.45
395.32	17.24
395.528	17.08
395.735	17.07
395.943	17.03
396.15	16.85
396.358	16.53
396.565	16.31
396.773	15.8
396.98	15.5
397.188	15.6
397.395	15.5
397.602	15.46
397.81	15.45
398.017	15.28
398.225	15.43
398.432	15.46
398.639	15.37
398.847	15.43
399.054	15.34
399.261	15.58
399.468	15.43
399.676	15.43
399.883	15.31
400.09	15.37
400.297	15.27
400.505	15.12
400.712	14.85
400.919	14.89
401.126	14.95
401.333	15.29
401.54	15.03
401.748	15.12
401.955	15.06
402.162	15.11
402.369	15.03
402.576	15.1
402.783	15.16
402.99	15.21
403.197	15.36
403.404	15.12
403.611	14.8
403.818	14.95
404.025	14.81
404.232	14.76
404.439	14.75
404.646	14.84
404.853	14.82
405.06	14.75
405.267	14.87
405.474	14.91
405.681	15.01
405.887	15.22
406.094	15.19
406.301	15.31
406.508	15.18
406.715	15.29
406.922	15.3
407.128	15.09
407.335	15.06
407.542	14.85
407.749	14.94
407.955	14.92
408.162	14.66
408.369	14.59
408.575	14.47
408.782	14.56
408.989	14.25
409.195	14.12
409.402	14.17
409.609	14.27
409.815	14.47
410.022	14.42
410.228	14.62
410.435	14.74
410.642	14.78
410.848	14.85
411.055	14.87
411.261	14.93
411.468	14.99
411.674	15.2
411.881	15.25
412.087	15.16
412.294	15.32
412.5	15.47
412.706	15.39
412.913	15.18
413.119	15.02
413.326	15.29
413.532	15.29
413.738	15.19
413.945	14.73
414.151	14.69
414.357	14.49
414.564	14.01
414.77	13.73
414.976	13.73
415.182	13.91
415.389	14.11
415.595	13.63
415.801	13.77
416.007	13.8
416.214	13.96
416.42	13.86
416.626	13.95
416.832	13.84
417.038	13.65
417.244	13.76
417.45	13.71
417.657	13.59
417.863	13.79
418.069	13.73
418.275	13.67
418.481	13.84
418.687	13.94
418.893	13.94
419.099	14.05
419.305	14.2
419.511	14.08
419.717	13.94
419.923	13.99
420.129	13.93
420.335	13.96
420.541	13.98
420.746	13.91
420.952	13.85
421.158	13.9
421.364	13.86
421.57	13.84
421.776	13.98
421.982	14.08
422.187	14.02
422.393	14.03
422.599	14.05
422.805	14.2
423.01	14.17
423.216	14.14
423.422	14.08
423.628	14.19
423.833	14.12
424.039	14.08
424.245	14.06
424.45	14.14
424.656	14.14
424.862	14.01
425.067	13.75
425.273	13.71
425.478	13.71
425.684	13.77
425.889	13.81
426.095	13.77
426.301	13.68
426.506	13.72
426.712	13.67
426.917	13.52
427.123	13.61
427.328	13.77
427.533	13.84
427.739	13.95
427.944	13.81
428.15	13.61
428.355	13.78
428.561	13.67
428.766	13.52
428.971	13.59
429.177	13.61
429.382	13.46
429.587	13.43
429.793	13.52
429.998	13.3
430.203	13.19
430.408	13.15
430.614	13.01
430.819	13.19
431.024	13.43
431.229	13.43
431.434	13.56
431.64	13.44
431.845	13.59
432.05	13.48
432.255	13.52
432.46	13.63
432.665	13.73
432.87	13.92
433.076	13.91
433.281	13.75
433.486	13.81
433.691	13.76
433.896	13.87
434.101	13.79
434.306	13.8
434.511	13.73
434.716	13.71
434.921	13.71
435.126	13.54
435.331	13.46
435.535	13.36
435.74	13.37
435.945	13.34
436.15	13.41
436.355	13.5
436.56	13.33
436.765	13.44
436.97	13.5
437.174	13.59
437.379	13.51
437.584	13.59
437.789	13.74
437.993	13.71
438.198	13.72
438.403	13.78
438.608	13.65
438.812	13.83
439.017	13.85
439.222	13.88
439.426	13.66
439.631	13.65
439.836	13.6
440.04	13.49
440.245	13.41
440.45	13.45
440.654	13.56
440.859	13.54
441.063	13.52
441.268	13.49
441.472	13.39
441.677	13.48
441.881	13.6
442.086	13.71
442.29	13.76
442.495	13.75
442.699	13.91
442.904	13.66
443.108	13.57
443.312	13.41
443.517	13.23
443.721	13.19
443.925	13.13
444.13	13
444.334	12.93
444.538	13.06
444.743	13.17
444.947	12.95
445.151	12.87
445.356	13.02
445.56	13.18
445.764	13.41
445.968	13.48
446.173	13.66
446.377	13.75
446.581	13.66
446.785	13.52
446.989	13.44
447.193	13.47
447.398	13.58
447.602	13.53
447.806	13.44
448.01	13.32
448.214	13.29
448.418	13.14
448.622	13.14
448.826	13.19
449.03	13.25
449.234	13.23
449.438	13.07
449.642	13.09
449.846	13.21
450.05	13.14
450.254	13.08
450.458	13.03
450.662	12.99
450.866	13.11
451.069	13.24
451.273	13.16
451.477	12.97
451.681	13.13
451.885	13.04
452.089	12.85
452.292	12.92
452.496	13.07
452.7	13.07
452.904	13.11
453.107	12.85
453.311	12.78
453.515	12.9
453.719	13.1
453.922	13.04
454.126	13.12
454.33	13.09
454.533	13.03
454.737	12.87
454.94	12.95
455.144	12.91
455.348	12.94
455.551	12.89
455.755	12.69
455.958	12.68
456.162	12.65
456.365	12.4
456.569	12.56
456.772	12.73
456.976	12.64
457.179	12.68
457.383	12.74
457.586	12.75
457.79	12.67
457.993	12.79
458.196	12.71
458.4	12.74
458.603	13.03
458.807	12.92
459.01	12.84
459.213	12.9
459.417	12.82
459.62	12.74
459.823	12.83
460.026	12.89
460.23	12.87
460.433	12.89
460.636	12.93
460.839	12.85
461.042	12.94
461.246	12.89
461.449	12.96
461.652	12.96
461.855	12.89
462.058	12.85
462.261	12.87
462.464	12.94
462.668	12.94
462.871	12.86
463.074	12.79
463.277	12.63
463.48	12.7
463.683	12.59
463.886	12.56
464.089	12.67
464.292	12.44
464.495	12.48
464.698	12.35
464.901	12.57
465.104	12.59
465.306	12.82
465.509	12.88
465.712	12.92
465.915	12.98
466.118	12.9
466.321	12.94
466.524	13.13
466.726	13.17
466.929	13.12
467.132	12.93
467.335	12.86
467.538	12.77
467.74	12.72
467.943	12.76
468.146	12.57
468.348	12.64
468.551	12.64
468.754	12.55
468.956	12.27
469.159	12.41
469.362	12.45
469.564	12.47
469.767	12.42
469.969	12.55
470.172	12.44
470.375	12.66
470.577	12.51
470.78	12.59
470.982	12.94
471.185	13
471.387	12.95
471.59	12.96
471.792	13.11
471.995	13.17
472.197	13.22
472.399	13.23
472.602	13.24
472.804	13.36
473.007	13.26
473.209	12.94
473.411	13.02
473.614	13.02
473.816	13.07
474.018	13.1
474.22	12.93
474.423	12.84
474.625	12.78
474.827	12.87
475.03	12.88
475.232	12.62
475.434	12.57
475.636	12.53
475.838	12.63
476.04	12.72
476.243	12.66
476.445	12.72
476.647	12.82
476.849	12.82
477.051	12.7
477.253	12.63
477.455	12.9
477.657	13.15
477.859	13.15
478.061	13.05
478.263	12.86
478.465	12.84
478.667	12.87
478.869	12.89
479.071	12.98
479.273	13.07
479.475	13.01
479.677	12.97
479.879	12.82
480.081	12.84
480.283	12.79
480.485	12.77
480.686	12.84
480.888	12.67
481.09	12.58
481.292	12.65
481.494	12.59
481.695	12.67
481.897	12.66
482.099	12.7
482.301	12.78
482.502	12.84
482.704	12.94
482.906	12.87
483.107	12.97
483.309	12.88
483.511	12.9
483.712	12.88
483.914	12.91
484.115	12.95
484.317	12.95
484.519	12.92
484.72	12.9
484.922	12.83
485.123	12.83
485.325	12.82
485.526	12.88
485.728	12.8
485.929	12.78
486.131	12.73
486.332	12.69
486.534	12.6
486.735	12.61
486.936	12.63
487.138	12.7
487.339	12.81
487.541	12.86
487.742	12.8
487.943	12.89
488.144	12.96
488.346	12.97
488.547	12.99
488.748	12.98
488.95	12.94
489.151	12.9
489.352	12.82
489.553	12.72
489.755	12.57
489.956	12.62
490.157	12.53
490.358	12.48
490.559	12.44
490.76	12.41
490.961	12.48
491.163	12.52
491.364	12.56
491.565	12.61
491.766	12.63
491.967	12.72
492.168	12.75
492.369	12.75
492.57	12.72
492.771	12.78
492.972	12.77
493.173	12.89
493.374	12.95
493.575	12.95
493.776	12.98
493.976	12.97
494.177	12.91
494.378	12.78
494.579	12.8
494.78	12.82
494.981	12.73
495.182	12.87
495.382	12.74
495.583	12.74
495.784	12.83
495.985	12.91
496.185	12.83
496.386	12.95
496.587	13.08
496.788	13.08
496.988	13.14
497.189	13.26
497.39	13.14
497.59	13.29
497.791	13.29
497.992	13.19
498.192	13.06
498.393	13.14
498.593	13.16
498.794	13.1
498.994	13.09
499.195	13.04
499.395	13.08
499.596	13.07
499.796	12.95
499.997	12.99
500.197	13.1
500.398	13.16
500.598	13.22
500.799	13.19
500.999	13.28
501.199	13.4
501.4	13.46
501.6	13.34
501.801	13.4
502.001	13.38
502.201	13.36
502.402	13.28
502.602	13.38
502.802	13.45
503.002	13.61
503.203	13.69
503.403	13.69
503.603	13.78
503.803	14.1
504.003	14.18
504.204	14.16
504.404	14.23
504.604	14.44
504.804	14.42
505.004	14.34
505.204	14.22
505.404	14.25
505.604	14.38
505.804	14.37
506.005	14.39
506.205	14.5
506.405	14.58
506.605	14.53
506.805	14.45
507.005	14.51
507.204	14.67
507.404	14.73
507.604	14.82
507.804	14.64
508.004	14.68
508.204	14.64
508.404	14.56
508.604	14.68
508.804	14.76
509.003	14.83
509.203	14.89
509.403	14.78
509.603	14.89
509.803	14.82
510.002	14.95
510.202	15.03
510.402	15.11
510.602	15.2
510.801	15.2
511.001	15.4
511.201	15.51
511.4	15.65
511.6	15.71
511.8	15.81
511.999	15.93
512.199	15.94
512.398	16.01
512.598	16.05
512.797	16.11
512.997	16.12
513.197	16.16
513.396	16.22
513.596	16.21
513.795	16.18
513.994	16.05
514.194	16.01
514.393	15.95
514.593	15.98
514.792	15.89
514.992	15.86
515.191	15.91
515.39	15.89
515.59	15.96
515.789	16
515.988	16.26
516.188	16.36
516.387	16.55
516.586	16.71
516.786	16.84
516.985	17.05
517.184	17.27
517.383	17.29
517.582	17.47
517.782	17.48
517.981	17.47
518.18	17.45
518.379	17.64
518.578	17.57
518.777	17.7
518.976	17.78
519.176	17.76
519.375	17.68
519.574	17.79
519.773	17.71
519.972	17.81
520.171	17.85
520.37	17.87
520.569	17.79
520.768	17.93
520.967	17.96
521.166	17.87
521.365	17.93
521.564	18.1
521.762	18.2
521.961	18.19
522.16	18.17
522.359	18.35
522.558	18.51
522.757	18.7
522.956	18.75
523.154	18.97
523.353	19.04
523.552	19.02
523.751	18.99
523.949	19.1
524.148	19.17
524.347	19.21
524.546	19.25
524.744	19.31
524.943	19.27
525.142	19.27
525.34	19.25
525.539	19.4
525.737	19.54
525.936	19.66
526.135	19.64
526.333	19.7
526.532	19.77
526.73	19.91
526.929	19.98
527.127	20.06
527.326	20.17
527.524	20.23
527.723	20.28
527.921	20.3
528.12	20.3
528.318	20.34
528.516	20.4
528.715	20.43
528.913	20.41
529.112	20.41
529.31	20.42
529.508	20.48
529.707	20.45
529.905	20.46
530.103	20.53
530.301	20.57
530.5	20.66
530.698	20.65
530.896	20.71
531.094	20.7
531.293	20.78
531.491	20.94
531.689	20.98
531.887	21.06
532.085	21.11
532.283	21.12
532.481	21.23
532.68	21.25
532.878	21.34
533.076	21.48
533.274	21.54
533.472	21.54
533.67	21.62
533.868	21.62
534.066	21.67
534.264	21.77
534.462	21.77
534.66	21.77
534.858	21.73
535.056	21.78
535.253	21.74
535.451	21.93
535.649	22.11
535.847	21.96
536.045	21.96
536.243	22.02
536.441	21.99
536.638	22.21
536.836	22.22
537.034	22.46
537.232	22.51
537.43	22.52
537.627	22.4
537.825	22.42
538.023	22.57
538.22	22.72
538.418	22.81
538.616	22.72
538.813	22.58
539.011	22.72
539.209	22.53
539.406	22.54
539.604	22.61
539.801	22.81
539.999	22.88
540.196	22.91
540.394	22.94
540.591	23.02
540.789	23.19
540.986	23.32
541.184	23.39
541.381	23.52
541.579	23.63
541.776	23.62
541.974	23.62
542.171	23.63
542.368	23.69
542.566	23.7
542.763	23.8
542.96	23.85
543.158	23.85
543.355	23.82
543.552	23.85
543.75	23.86
543.947	23.96
544.144	24.07
544.341	24.05
544.539	24.11
544.736	24.19
544.933	24.13
545.13	24.06
545.327	24.07
545.524	24.02
545.722	23.98
545.919	24
546.116	24.1
546.313	24.16
546.51	24.22
546.707	24.2
546.904	24.29
547.101	24.3
547.298	24.42
547.495	24.51
547.692	24.67
547.889	24.75
548.086	24.79
548.283	24.9
548.48	24.7
548.677	24.81
548.874	24.77
549.07	24.86
549.267	24.9
549.464	24.95
549.661	24.91
549.858	24.81
550.055	24.87
550.251	24.89
550.448	24.66
550.645	24.85
550.842	24.97
551.038	25.33
551.235	25.1
551.432	25.14
551.628	25.38
551.825	25.44
552.022	25.56
552.218	25.71
552.415	25.77
552.612	25.99
552.808	26.09
553.005	25.95
553.201	25.75
553.398	25.94
553.594	25.96
553.791	25.77
553.987	26
554.184	26.04
554.38	26.13
554.577	26.16
554.773	26.24
554.97	26.2
555.166	26.32
555.362	26.52
555.559	26.65
555.755	26.88
555.952	27.32
556.148	27.29
556.344	27.48
556.541	27.46
556.737	27.54
556.933	27.49
557.129	27.58
557.326	27.77
557.522	27.81
557.718	27.79
557.914	27.72
558.11	27.57
558.307	27.38
558.503	27.45
558.699	27.42
558.895	27.42
559.091	27.63
559.287	27.71
559.483	27.72
559.679	27.91
559.876	28.01
560.072	28.11
560.268	28.12
560.464	28.46
560.66	28.59
560.856	28.59
561.052	28.76
561.247	28.53
561.443	28.84
561.639	28.72
561.835	28.55
562.031	28.61
562.227	28.78
562.423	28.94
562.619	28.9
562.815	28.81
563.01	29.06
563.206	29.23
563.402	29.6
563.598	29.58
563.793	29.76
563.989	29.8
564.185	29.86
564.381	29.83
564.576	29.9
564.772	30.06
564.968	30.1
565.163	30.21
565.359	30.22
565.555	30.17
565.75	30.16
565.946	30.35
566.141	30.56
566.337	30.71
566.532	30.69
566.728	30.62
566.923	30.57
567.119	30.69
567.314	30.57
567.51	30.54
567.705	30.41
567.901	30.32
568.096	30.33
568.292	30.29
568.487	30.13
568.682	30.38
568.878	30.44
569.073	30.63
569.268	30.65
569.464	30.77
569.659	30.82
569.854	31.11
570.05	31.08
570.245	31.19
570.44	31.25
570.635	31.38
570.831	31.21
571.026	31.4
571.221	31.36
571.416	31.47
571.611	31.43
571.806	31.48
572.002	31.47
572.197	31.66
572.392	31.58
572.587	31.66
572.782	31.72
572.977	31.73
573.172	31.75
573.367	31.84
573.562	31.97
573.757	32
573.952	32.03
574.147	32.05
574.342	32.09
574.537	32.13
574.732	32.27
574.927	32.33
575.121	32.5
575.316	32.53
575.511	32.54
575.706	32.44
575.901	32.49
576.096	32.67
576.29	32.84
576.485	32.69
576.68	32.61
576.875	32.56
577.069	32.66
577.264	32.71
577.459	32.74
577.654	32.88
577.848	32.96
578.043	33.11
578.238	33.18
578.432	33.09
578.627	33.44
578.821	33.81
579.016	33.8
579.21	33.68
579.405	33.75
579.6	34.05
579.794	33.96
579.989	34.08
580.183	34.17
580.378	34.2
580.572	34.23
580.766	34.27
580.961	34.15
581.155	34.12
581.35	34.23
581.544	34.22
581.738	33.99
581.933	34.13
582.127	34.16
582.321	34.16
582.516	34.05
582.71	33.91
582.904	33.94
583.099	33.89
583.293	34.07
583.487	34.15
583.681	34.23
583.875	34.2
584.07	34.26
584.264	34
584.458	33.73
584.652	33.9
584.846	34.17
585.04	34.17
585.234	34.24
585.428	34.18
585.623	34.17
585.817	34.3
586.011	34.56
586.205	34.53
586.399	34.89
586.593	35.19
586.787	35.09
586.981	34.86
587.174	34.65
587.368	34.75
587.562	34.94
587.756	34.88
587.95	34.72
588.144	34.39
588.338	34.52
588.532	34.52
588.725	34.68
588.919	34.58
589.113	34.92
589.307	35.35
589.501	35.52
589.694	35.43
589.888	35.55
590.082	35.69
590.275	35.99
590.469	36.03
590.663	35.89
590.856	35.87
591.05	36.2
591.244	36.14
591.437	36.13
591.631	36.07
591.824	36.13
592.018	36.04
592.212	35.88
592.405	35.93
592.599	35.83
592.792	36.01
592.986	36.04
593.179	36.22
593.372	36.18
593.566	36.09
593.759	36.62
593.953	36.84
594.146	36.94
594.339	37.21
594.533	37.02
594.726	37.26
594.92	37.65
595.113	37.92
595.306	37.76
595.499	38.1
595.693	38.24
595.886	37.96
596.079	37.8
596.272	38.08
596.466	38.01
596.659	38.07
596.852	37.92
597.045	37.55
597.238	37.39
597.431	37.46
597.624	37.37
597.818	37.39
598.011	37.38
598.204	37.4
598.397	37.21
598.59	37.34
598.783	37.44
598.976	37.53
599.169	37.72
599.362	37.7
599.555	37.74
599.748	37.71
599.941	37.44
600.134	37.56
600.326	37.97
600.519	38.09
600.712	38
600.905	38.14
601.098	38.13
601.291	38.24
601.483	38.34
601.676	38.03
601.869	37.94
602.062	38.19
602.255	38.27
602.447	38.08
602.64	38.02
602.833	38.26
603.025	38.28
603.218	38.37
603.411	38.36
603.603	38.4
603.796	38.61
603.989	38.75
604.181	38.92
604.374	38.78
604.566	38.93
604.759	38.94
604.951	38.78
605.144	38.76
605.336	38.87
605.529	38.75
605.721	38.69
605.914	38.75
606.106	38.77
606.299	38.81
606.491	38.73
606.683	38.54
606.876	38.76
607.068	38.84
607.26	38.94
607.453	38.71
607.645	38.83
607.837	38.81
608.03	38.86
608.222	38.65
608.414	38.6
608.606	38.77
608.799	39.01
608.991	38.8
609.183	38.71
609.375	38.76
609.567	38.91
609.759	39.02
609.952	39.31
610.144	39.51
610.336	39.81
610.528	39.79
610.72	39.87
610.912	39.79
611.104	40.16
611.296	40.35
611.488	40.43
611.68	40.43
611.872	40.57
612.064	40.41
612.256	40.43
612.448	40.35
612.64	40.54
612.832	40.32
613.023	40.43
613.215	40.15
613.407	40.23
613.599	40.29
613.791	40.32
613.983	40.05
614.174	40.09
614.366	40.03
614.558	40.32
614.75	39.88
614.941	40.17
615.133	40.02
615.325	40.18
615.516	40.1
615.708	39.8
615.9	39.78
616.091	40.02
616.283	39.83
616.475	39.84
616.666	39.6
616.858	39.79
617.049	39.79
617.241	39.9
617.432	39.89
617.624	40.05
617.815	40.26
618.007	40.43
618.198	40.41
618.39	40.62
618.581	40.11
618.773	40.19
618.964	40.18
619.155	40.07
619.347	40.01
619.538	40.17
619.729	40.13
619.921	40.16
620.112	40.33
620.303	40.22
620.494	40.3
620.686	40.78
620.877	40.86
621.068	40.64
621.259	40.8
621.451	40.9
621.642	41.05
621.833	40.84
622.024	40.78
622.215	40.75
622.406	40.75
622.597	40.76
622.788	40.82
622.98	40.81
623.171	41.29
623.362	41.27
623.553	41.4
623.744	41.11
623.935	41.34
624.126	41.67
624.317	41.37
624.508	41.57
624.698	41.41
624.889	41.37
625.08	41.37
625.271	41.26
625.462	41.27
625.653	41.12
625.844	41.1
626.034	41.29
626.225	40.96
626.416	41.17
626.607	41.23
626.798	41.13
626.988	41.21
627.179	41.32
627.37	41.44
627.56	41.62
627.751	41.58
627.942	41.53
628.132	41.27
628.323	41.43
628.514	41.38
628.704	41.29
628.895	41.36
629.085	41.43
629.276	41.4
629.466	41.38
629.657	41.14
629.847	41.19
630.038	41.31
630.228	41.69
630.419	41.73
630.609	41.63
630.8	41.73
630.99	42.17
631.181	41.72
631.371	41.83
631.561	41.63
631.752	41.69
631.942	41.81
632.132	41.52
632.323	41.34
632.513	41.35
632.703	41.22
632.893	41.39
633.084	41.17
633.274	41.59
633.464	41.56
633.654	41.93
633.844	41.86
634.034	41.75
634.225	42.06
634.415	41.97
634.605	41.62
634.795	42.04
634.985	41.95
635.175	42.09
635.365	42.04
635.555	41.97
635.745	41.67
635.935	41.8
636.125	42.11
636.315	41.96
636.505	42.13
636.695	42.48
636.885	42.24
637.075	41.91
637.265	41.92
637.455	41.88
637.644	41.83
637.834	42.06
638.024	42.27
638.214	42.08
638.404	42.51
638.593	42.56
638.783	42.2
638.973	42.44
639.163	42.49
639.352	42.63
639.542	42.84
639.732	43.19
639.921	43.36
640.111	43.28
640.301	43.3
640.49	43.3
640.68	43.27
640.87	43.75
641.059	43.64
641.249	44.05
641.438	44.11
641.628	44.1
641.817	43.7
642.007	43.61
642.196	43.7
642.386	43.61
642.575	43.64
642.764	43.89
642.954	43.81
643.143	43.91
643.333	43.83
643.522	43.72
643.711	43.73
643.901	44.08
644.09	43.72
644.279	43.8
644.469	44.13
644.658	43.89
644.847	43.43
645.036	43.69
645.226	44.25
645.415	44.1
645.604	43.86
645.793	43.73
645.982	43.74
646.171	43.86
646.361	43.38
646.55	43.48
646.739	43.45
646.928	43.81
647.117	43.5
647.306	43.23
647.495	43.26
647.684	43.42
647.873	43.66
648.062	43.38
648.251	43.54
648.44	43.91
648.629	44.01
648.818	44.03
649.007	43.82
649.196	44.18
649.384	44.18
649.573	44.16
649.762	44.24
649.951	44.05
650.14	44.21
650.328	44.29
650.517	44.19
650.706	43.87
650.895	44.05
651.083	44.15
651.272	43.99
651.461	43.82
651.65	44.22
651.838	44.26
652.027	44.35
652.216	44.11
652.404	44.04
652.593	44.45
652.781	44.41
652.97	44.23
653.158	44.12
653.347	44.13
653.535	44.06
653.724	43.87
653.912	43.86
654.101	44.1
654.289	44.21
654.478	43.76
654.666	43.66
654.855	43.88
655.043	43.84
655.231	44.01
655.42	44.18
655.608	44.02
655.796	44.21
655.985	44.37
656.173	44.04
656.361	44.5
656.55	45.02
656.738	44.91
656.926	44.88
657.114	45.28
657.302	45.19
657.491	45.05
657.679	44.99
657.867	44.92
658.055	44.8
658.243	44.92
658.431	44.67
658.619	44.86
658.807	44.77
658.996	44.91
659.184	44.92
659.372	45.04
659.56	45.06
659.748	45.41
659.936	45.5
660.124	45.65
660.311	45.69
660.499	45.62
660.687	45.41
660.875	45.19
661.063	45.16
661.251	44.99
661.439	45.21
661.627	45.31
661.814	45.16
662.002	45.17
662.19	45.02
662.378	45.19
662.565	45.62
662.753	45.74
662.941	46.08
663.129	45.95
663.316	46.17
663.504	45.9
663.692	45.87
663.879	46.23
664.067	46.01
664.254	46.1
664.442	45.63
664.63	45.46
664.817	45.86
665.005	45.68
665.192	45.74
665.38	45.57
665.567	45.65
665.755	45.35
665.942	45.31
666.13	45.13
666.317	45
666.504	45.12
666.692	45.39
666.879	44.9
667.067	45.22
667.254	44.98
667.441	45.32
667.629	45.18
667.816	45.5
668.003	45.16
668.19	45.45
668.378	45.87
668.565	46.39
668.752	46.14
668.939	46.24
669.127	46.26
669.314	46.65
669.501	46.35
669.688	46.8
669.875	47.13
670.062	47.44
670.249	47.65
670.436	47.38
670.623	47.21
670.81	47.16
670.997	47.02
671.184	47.07
671.371	47.12
671.558	47.2
671.745	47.23
671.932	46.78
672.119	46.9
672.306	47.06
672.493	47.23
672.68	47.11
672.867	46.73
673.054	47.08
673.24	47.17
673.427	46.99
673.614	46.92
673.801	46.23
673.988	46.59
674.174	46
674.361	45.69
674.548	45.28
674.734	45.22
674.921	45.96
675.108	46.37
675.294	46.27
675.481	46.33
675.668	46.54
675.854	46.6
676.041	46.49
676.227	47.23
676.414	47.59
676.601	47.89
676.787	47.91
676.974	47.27
677.16	46.64
677.347	46.37
677.533	46.28
677.719	46.39
677.906	46.7
678.092	46.72
678.279	46.52
678.465	46.14
678.651	46.32
678.838	46.86
679.024	47.34
679.21	47.52
679.397	47.93
679.583	48.04
679.769	48.1
679.955	48.23
680.142	47.98
680.328	47.8
680.514	48.2
680.7	48.15
680.886	47.65
681.073	47.91
681.259	48.25
681.445	48.25
681.631	48.11
681.817	47.76
682.003	47.44
682.189	47.8
682.375	47.75
682.561	47.35
682.747	47.64
682.933	48.05
683.119	48.04
683.305	48.03
683.491	47.76
683.677	47.93
683.863	48.51
684.049	48.62
684.235	48.43
684.42	48.77
684.606	49.04
684.792	48.68
684.978	48.65
685.164	48.37
685.349	48.15
685.535	48.6
685.721	48.43
685.907	48.03
686.092	48.79
686.278	48.62
686.464	48.67
686.649	48.71
686.835	48.76
687.021	48.6
687.206	48.64
687.392	48.85
687.577	48.81
687.763	49.12
687.948	49.41
688.134	48.44
688.319	48.67
688.505	48.92
688.69	48.23
688.876	47.95
689.061	47.71
689.247	47.78
689.432	47.9
689.618	47.48
689.803	47.44
689.988	47.55
690.174	48.31
690.359	48.18
690.544	47.98
690.73	48.61
690.915	48.84
691.1	48.97
691.285	48.68
691.471	48.24
691.656	48.58
691.841	48.77
692.026	48.73
692.211	48.97
692.396	49.31
692.582	49.83
692.767	49.49
692.952	50.17
693.137	50.34
693.322	50.79
693.507	51.07
693.692	51.11
693.877	50.77
694.062	50.67
694.247	50.11
694.432	49.81
694.617	49.48
694.802	49.61
694.987	49.02
695.172	49.44
695.357	49.23
695.541	49.34
695.726	49.35
695.911	49.82
696.096	49.54
696.281	49.34
696.466	49.45
696.65	48.71
696.835	49.22
697.02	48.92
697.204	48.98
697.389	49.13
697.574	48.92
697.759	49.04
697.943	48.8
698.128	49.2
698.312	49.33
698.497	49.73
698.682	50.01
698.866	49.87
699.051	49.96
699.235	49.69
699.42	49.6
699.604	49.2
699.789	49.24
699.973	49.29
700.158	48.92
700.342	48.94
700.527	48.73
700.711	48.59
700.895	48.71
701.08	49.02
701.264	48.72
701.448	48.47
701.633	49.02
701.817	48.83
702.001	48.7
702.186	49.11
702.37	49.25
702.554	48.88
702.738	48.9
702.923	48.68
703.107	48.16
703.291	48.74
703.475	48.91
703.659	48.98
703.843	49.15
704.027	49.01
704.212	48.97
704.396	48.37
704.58	48.55
704.764	49.29
704.948	49.3
705.132	49.68
705.316	49.71
705.5	49.85
705.684	49.71
705.868	49.15
706.052	49.21
706.235	48.84
706.419	49.04
706.603	49.56
706.787	49.04
706.971	49.22
707.155	49.03
707.339	49.02
707.522	49.12
707.706	49.38
707.89	49.69
708.074	49.61
708.257	49.82
708.441	49.99
708.625	49.34
708.808	49.66
708.992	49.23
709.176	49.51
709.359	49.45
709.543	49.47
709.727	49.37
709.91	49.58
710.094	49.72
710.277	49.9
710.461	50.42
710.644	50.27
710.828	49.92
711.011	50.6
711.195	50.69
711.378	50.33
711.562	50.42
711.745	50.77
711.928	50.38
712.112	50.09
712.295	49.82
712.478	49.51
712.662	49.43
712.845	49.87
713.028	49.33
713.212	49.22
713.395	49.41
713.578	49.17
713.761	48.86
713.945	49.1
714.128	49.45
714.311	49.31
714.494	49
714.677	49.62
714.86	49.11
715.043	49.13
715.227	49.2
715.41	48.87
715.593	48.61
715.776	48.79
715.959	48.18
716.142	48.53
716.325	48.65
716.508	49.32
716.691	49.27
716.874	49.77
717.057	50.14
717.239	49.89
717.422	49.42
717.605	49.91
717.788	49.29
717.971	49.56
718.154	49.06
718.337	49.42
718.519	48.41
718.702	48.13
718.885	47.72
719.068	47.85
719.25	47.81
719.433	48.28
719.616	48.45
719.798	48.45
719.981	48.92
720.164	49.07
720.346	48.62
720.529	49.09
720.712	49.08
720.894	49.52
721.077	48.87
721.259	48.74
721.442	49.5
721.624	49.44
721.807	50.39
721.989	50.27
722.172	50.44
722.354	50.06
722.537	50.36
722.719	50.72
722.901	49.85
723.084	49.76
723.266	50.34
723.448	49.68
723.631	49.35
723.813	49.01
723.995	48.68
724.178	48.08
724.36	48.67
724.542	48.06
724.724	48.1
724.907	48.67
725.089	48.82
725.271	48.42
725.453	48.66
725.635	48.35
725.817	48.51
725.999	49.59
726.181	50.19
726.364	50.53
726.546	50.45
726.728	50.55
726.91	50.76
727.092	50.18
727.274	50.87
727.456	51.09
727.638	51.46
727.819	51.06
728.001	50.17
728.183	49.77
728.365	49.34
728.547	49.79
728.729	49.58
728.911	49.31
729.093	49.47
729.274	48.33
729.456	48.16
729.638	48.27
729.82	49.07
730.001	49.5
730.183	49.5
730.365	49.87
730.546	49.86
730.728	50.33
730.91	50.64
731.091	51.14
731.273	51.96
731.455	52.41
731.636	51.58
731.818	51.03
731.999	51.28
732.181	52.52
732.362	51.85
732.544	52.38
732.725	51.62
732.907	51.11
733.088	51.23
733.27	50.86
733.451	50.66
733.633	51.9
733.814	51.92
733.995	51.62
734.177	50.96
734.358	51.21
734.539	50.79
734.721	50.78
734.902	51.27
735.083	51.2
735.264	50.98
735.446	51.79
735.627	51.05
735.808	50.89
735.989	51.2
736.17	50.44
736.351	50.68
736.533	50.53
736.714	50.85
736.895	51.25
737.076	51.8
737.257	52.62
737.438	51.51
737.619	51.63
737.8	51.65
737.981	51.01
738.162	51.8
738.343	51.74
738.524	51.69
738.705	51.45
738.886	50.8
739.067	50.89
739.247	50.33
739.428	50.79
739.609	51.43
739.79	50.83
739.971	51.67
740.151	51.46
740.332	52.15
740.513	52.14
740.694	52.56
740.874	51.75
741.055	51.03
741.236	51.34
741.417	51.03
741.597	50.36
741.778	51.67
741.958	50.5
742.139	50.16
742.32	49.59
742.5	50.12
742.681	49.82
742.861	52.03
743.042	52.19
743.222	51.72
743.403	51.23
743.583	51.34
743.764	51.67
743.944	52.6
744.124	52.93
744.305	53.27
744.485	52.71
744.666	51.8
744.846	51.29
745.026	51.31
745.207	51.43
745.387	51.53
745.567	51.73
745.747	51.06
745.928	50.87
746.108	50.94
746.288	50.26
746.468	50.72
746.648	51.37
746.829	50.41
747.009	50.87
747.189	50.86
747.369	50.85
747.549	50.57
747.729	50.52
747.909	50.88
748.089	50.18
748.269	50.75
748.449	50.14
748.629	50.75
748.809	51.6
748.989	51.32
749.169	51.7
749.349	52.57
749.529	52.88
749.709	52.21
749.889	51.71
750.068	51.12
750.248	51.04
750.428	51.66
750.608	51.68
750.788	49.99
750.967	49.54
751.147	49.79
751.327	50.13
751.507	49.86
751.686	50.79
751.866	51.35
752.046	52.95
752.225	52.82
752.405	52.64
752.585	52.96
752.764	54.98
752.944	54.88
753.123	54.86
753.303	54.44
753.482	54.58
753.662	53.75
753.841	53.58
754.021	53.81
754.2	54.18
754.38	53.97
754.559	52.93
754.739	52.06
754.918	52.46
755.097	52.18
755.277	51.38
755.456	51.69
755.635	52.44
755.815	51.77
755.994	50.18
756.173	49.78
756.352	50.15
756.532	50.64
756.711	51.42
756.89	51.14
757.069	51.07
757.248	51.41
757.427	50.55
757.607	49.93
757.786	49.5
757.965	50.68
758.144	50.55
758.323	50.17
758.502	50.91
758.681	50.13
758.86	50.76
759.039	51.32
759.218	51.52
759.397	52.17
759.576	53.34
759.755	54.27
759.934	54.31
760.113	54.65
760.291	55.55
760.47	55.13
760.649	55.39
760.828	55.46
761.007	55.2
761.186	55.19
761.364	55.13
761.543	53.48
761.722	53.45
761.901	52.85
762.079	52.79
762.258	52.59
762.437	52.83
762.615	52.77
762.794	52.24
762.972	52.59
763.151	52.66
763.33	52.21
763.508	52.6
763.687	51.95
763.865	52.29
764.044	52.75
764.222	51.95
764.401	51.17
764.579	51.23
764.758	51.31
764.936	50.82
765.114	50.5
765.293	51.27
765.471	50.66
765.65	51.09
765.828	50.89
766.006	50.37
766.184	50.29
766.363	50.27
766.541	49.89
766.719	50.14
766.898	50.14
767.076	51.94
767.254	51.62
767.432	52.31
767.61	52.85
767.788	53.66
767.967	53.33
768.145	53.76
768.323	53.86
768.501	54.02
768.679	54.16
768.857	52.93
769.035	51.22
769.213	51.26
769.391	50.34
769.569	51.08
769.747	51.89
769.925	53.2
770.103	54.55
770.281	55.16
770.459	55.22
770.636	54.73
770.814	57.45
770.992	56.37
771.17	54.63
771.348	56.06
771.525	55.77
771.703	53.46
771.881	53.12
772.059	52.43
772.236	51.46
772.414	50.11
772.592	50.09
772.769	49.07
772.947	50.31
773.125	52.36
773.302	51.36
773.48	50.74
773.657	50.57
773.835	50.01
774.013	48.96
774.19	49.28
774.368	51.83
774.545	52.06
774.723	51
774.9	51.85
775.077	50.36
775.255	51.23
775.432	50.25
775.61	50.75
775.787	51.65
775.964	53.43
776.142	54.5
776.319	53.45
776.496	54.39
776.674	56.45
776.851	56.5
777.028	57.73
777.205	60.28
777.382	60.22
777.56	60.8
777.737	59.67
777.914	57.62
778.091	57.92
778.268	58.26
778.445	54.87
778.622	54.37
778.8	53.41
778.977	52.4
779.154	58.29
779.331	59.01
779.508	58.51
779.685	57.69
779.862	58.59
780.038	57.15
780.215	56.1
780.392	56.42
780.569	56.53
780.746	57.28
780.923	57.24
781.1	49.41
781.277	50.46
781.453	50.77
781.63	52.37
781.807	53.39
781.984	52.83
782.16	52.82
782.337	56.74
782.514	55.78
782.691	55.03
782.867	54.8
783.044	54.26
783.221	54.03
783.397	53.98
783.574	53.86
783.75	53.2
783.927	54.71
784.103	55.39
784.28	52.65
784.456	53.08
784.633	53.3
784.809	53.37
784.986	53.57
785.162	52.12
785.339	51.25
785.515	49.88
785.692	49.57
785.868	50.04
786.044	47.46
786.221	48.75
786.397	48.21
786.573	48.26
786.749	50.19
786.926	49.84
787.102	51.3
787.278	52.45
787.454	54.08
787.631	54.56
787.807	53.82
787.983	54.91
788.159	54.82
788.335	54.73
788.511	55.06
788.687	54.24
788.863	53.32
789.039	52.98
789.216	50.69
789.392	49.28
789.568	50.6
789.744	50.64
789.919	52.08
790.095	52.19
790.271	52.05
790.447	51.06
790.623	52.45
790.799	52.41
790.975	50.46
791.151	51.31
791.327	52.84
791.502	52.27
791.678	52.29
791.854	53.84
792.03	53.67
792.205	54.47
792.381	56.13
792.557	54.22
792.733	54.85
792.908	55.85
793.084	56.28
793.259	53.92
793.435	52.53
793.611	52.28
793.786	49.91
793.962	49.08
794.137	48.09
794.313	46.45
794.488	49.01
794.664	50.21
794.839	50.55
795.015	49.14
795.19	50.5
795.366	51.46
795.541	52.52
795.716	52.7
795.892	50.24
796.067	49.37
796.242	49.22
796.418	47.02
796.593	46.8
796.768	48.07
796.944	50.57
797.119	51.54
797.294	51.04
797.469	50.89
797.644	51.17
797.82	53.33
797.995	56.39
798.17	55.4
798.345	57.35
798.52	57.5
798.695	56.22
798.87	54.19
799.045	52.72
799.22	53.02
799.395	51.5
799.57	51.43
799.745	50.47
799.92	48.44
800.095	49.93
800.27	48.07
800.445	46.71
800.62	46.47
800.795	46.57
800.97	47.81
801.145	47.41
801.319	46.29
801.494	47.1
801.669	49.15
801.844	51.37
802.018	52.04
802.193	53.13
802.368	53
802.543	53.98
802.717	53.46
802.892	54.06
803.067	53.32
803.241	55.38
803.416	55.08
803.59	53.57
803.765	53.31
803.94	51.24
804.114	50.42
804.289	51.96
804.463	51.01
804.638	52.35
804.812	51.16
804.986	51.49
805.161	52.89
805.335	51.46
805.51	52.09
805.684	50.79
805.858	51.86
806.033	52.72
806.207	53.03
806.381	53.88
806.556	53.79
806.73	53.3
806.904	52.27
807.078	50.14
807.253	48.52
807.427	47.91
807.601	48.11
807.775	47.34
807.949	45.62
808.123	45.57
808.298	44.52
808.472	44.27
808.646	44.41
808.82	44.72
808.994	46.67
809.168	48.42
809.342	48.02
809.516	46.93
809.69	48.71
809.864	47.98
810.038	46.66
810.212	46.29
810.385	45.63
810.559	47.05
810.733	48.06
810.907	50.08
811.081	49.32
811.255	50.13
811.428	51.29
811.602	50.58
811.776	49.99
811.95	49.08
812.123	50.02
812.297	48.73
812.471	48.06
812.644	49.57
812.818	45.47
812.992	44.61
813.165	44.11
813.339	40.23
813.512	37.32
813.686	40.61
813.86	41.14
814.033	40.9
814.207	44.04
814.38	40.38
814.554	41.28
814.727	44.06
814.9	43.58
815.074	42.68
815.247	44.44
815.421	45.13
815.594	45.13
815.767	46.24
815.941	47.04
816.114	46.05
816.287	47.96
816.46	45.01
816.634	42.55
816.807	45.86
816.98	50.09
817.153	52.09
817.327	54.31
817.5	53.21
817.673	52.67
817.846	54.03
818.019	54.48
818.192	55.99
818.365	54.71
818.538	56.68
818.711	53.93
818.884	52.94
819.057	54
819.23	51.83
819.403	49.67
819.576	52.9
819.749	49.98
819.922	49.63
820.095	49.68
820.268	51.84
820.441	51.8
820.614	53.75
820.786	52.29
820.959	51.09
821.132	51.16
821.305	52.11
821.477	50.57
821.65	51.12
821.823	51.8
821.996	50.8
822.168	50.72
822.341	51.24
822.514	51.18
822.686	51.55
822.859	51.77
823.031	52.13
823.204	52.46
823.376	52.52
823.549	52.36
823.722	51.97
823.894	52.76
824.067	52.82
824.239	52.37
824.411	52.12
824.584	51.36
824.756	51.08
824.929	51.08
825.101	50.83
825.273	50.5
825.446	50.41
825.618	50.39
825.79	50.35
825.963	50.47
826.135	50.68
826.307	51.63
826.479	52.81
826.652	52.97
826.824	52.75
826.996	52.45
827.168	52.5
827.34	53.04
827.512	53.3
827.684	52.93
827.856	52.44
828.029	52.08
828.201	51.19
828.373	50.81
828.545	51.4
828.717	50.26
828.889	51.04
829.061	51.75
829.232	51.37
829.404	51.24
829.576	51.35
829.748	51.71
829.92	52.03
830.092	52.87
830.264	52.7
830.436	52.01
830.607	54.08
830.779	53.6
830.951	52.77
831.123	53.18
831.294	54.13
831.466	52.99
831.638	53.27
831.809	53.43
831.981	54.87
832.153	56.32
832.324	55.25
832.496	53.35
832.667	54.49
832.839	56.68
833.011	56.99
833.182	55.1
833.354	55.35
833.525	54.04
833.697	50.97
833.868	48.4
834.039	46.33
834.211	48.23
834.382	48.3
834.554	49.42
834.725	49.2
834.896	49.21
835.068	49.89
835.239	51.55
835.41	52.67
835.581	54.43
835.753	54.9
835.924	55.72
836.095	54.74
836.266	55.46
836.438	52.81
836.609	53.53
836.78	52.97
836.951	52.51
837.122	49.84
837.293	48.45
837.464	48.77
837.635	48.48
837.806	48.76
837.977	47.18
838.148	48.08
838.319	48.38
838.49	43.62
838.661	41.99
838.832	42.65
839.003	43
839.174	40.65
839.345	38.18
839.516	39.63
839.687	39.22
839.857	41.41
840.028	40.18
840.199	37.33
840.37	39.68
840.54	41.08
840.711	38.28
840.882	36.4
841.053	38.52
841.223	38.46
841.394	36.77
841.564	36.46
841.735	36.85
841.906	39.55
842.076	45.64
842.247	44.94
842.417	45.71
842.588	50.57
842.758	54.1
842.929	53.88
843.099	57.05
843.27	54.54
843.44	53.74
843.611	53.36
843.781	47.79
843.951	44.2
844.122	42.09
844.292	36.2
844.462	30.75
844.633	25.39
844.803	32.62
844.973	26.07
845.144	30.46
845.314	29.85
845.484	27.23
845.654	32.95
845.824	30.19
845.995	33.33
846.165	39.96
846.335	42.83
846.505	45.95
846.675	38.08
846.845	44.72
847.015	44.45
847.185	45.44
847.355	48.75
847.525	47.81
847.695	47.5
847.865	45.38
848.035	38.89
848.205	39.05
848.375	33.78
848.545	31.1
848.715	29.26
848.884	25.73
849.054	28.81
849.224	31.4
849.394	29.42
849.564	28.13
849.733	29.6
849.903	37.16
850.073	34.41
850.243	39.07
850.412	46.03
850.582	47.11
850.752	42.97
850.921	37.48
851.091	38.75
851.26	38.66
851.43	38.63
851.599	43.09
851.769	35.49
851.939	28.91
852.108	33.06
852.278	28.62
852.447	34.47
852.616	37.68
852.786	42.08
852.955	32.42
853.125	24.68
853.294	31.88
853.463	24.02
853.633	32.92
853.802	46.52
853.971	35.62
854.141	39.68
854.31	35.43
854.479	34.41
854.648	38.73
854.818	55.88
854.987	54.68
855.156	53.24
855.325	60.69
855.494	57.42
855.663	62.1
855.832	60.95
856.001	61.24
856.171	57.91
856.34	54.92
856.509	57.56
856.678	52.98
856.847	59.75
857.016	56.53
857.185	46.47
857.353	43
857.522	43.29
857.691	42.45
857.86	40.47
858.029	46.84
858.198	44.31
858.367	27.02
858.535	23.75
858.704	11.49
858.873	10.97
859.042	23.12
859.21	26.04
859.379	21.66
859.548	23.47
859.717	27.34
859.885	19.36
860.054	24.74
860.222	35.03
860.391	36.67
860.56	41.51
860.728	46.78
860.897	45.59
861.065	44.55
861.234	44.51
861.402	38.15
861.571	32.12
861.739	36.59
861.908	38.2
862.076	46.55
862.244	47.55
862.413	48.91
862.581	45.54
862.749	34.84
862.918	44.05
863.086	47.11
863.254	45.79
863.423	41.79
863.591	44.98
863.759	47.13
863.927	45.87
864.096	34.99
864.264	49.55
864.432	56.93
864.6	63.85
864.768	55.87
864.936	55.54
865.104	58.91
865.272	52.92
865.44	53.5
865.608	50.93
865.776	43.45
865.944	48.03
866.112	31.41
866.28	18.29
866.448	21.32
866.616	27.4
866.784	25.48
866.952	31.09
867.12	40.22
867.288	35.76
867.455	31.46
867.623	35.12
867.791	38.6
867.959	40.32
868.127	47.24
868.294	44.42
868.462	41.5
868.63	46.29
868.797	43.87
868.965	47.78
869.133	48.21
869.3	54.62
869.468	55.41
869.636	53.39
869.803	59.5
869.971	58.05
870.138	57.74
870.306	57.53
870.473	55.62
870.641	59.1
870.808	55.76
870.975	62.44
871.143	57.18
871.31	58.38
871.478	54.83
871.645	55.5
871.812	57.22
871.98	58.06
872.147	53.26
872.314	60.36
872.482	58.76
872.649	59.26
872.816	52.74
872.983	50.75
873.15	43.97
873.318	45.15
873.485	39.84
873.652	30.26
873.819	37.87
873.986	37.27
874.153	20.91
874.32	19.95
874.487	11.53
874.654	20.61
874.821	19.91
874.988	18.96
875.155	28.62
875.322	25.35
875.489	37.69
875.656	29.4
875.823	34.19
875.99	43.04
876.157	36.46
876.324	41.1
876.49	38.86
876.657	39.75
876.824	42.32
876.991	45.7
877.157	45.35
877.324	45.72
877.491	45.91
877.658	53.34
877.824	45.08
877.991	53.46
878.157	61.79
878.324	55.82
878.491	54.64
878.657	51.87
878.824	44.82
878.99	56.5
879.157	51.44
879.323	52.6
879.49	45.8
879.656	46.41
879.823	48.87
879.989	42.75
880.156	57.13
880.322	63.53
880.488	66.55
880.655	67.2
880.821	61.25
880.987	60.89
881.154	60.73
881.32	62.86
881.486	59.92
881.652	61.78
881.819	61.55
881.985	56.94
882.151	54.05
882.317	52.7
882.483	52.64
882.649	52.58
882.816	50.73
882.982	51.52
883.148	50.94
883.314	50.57
883.48	47.77
883.646	47.35
883.812	46.74
883.978	46.8
884.144	45.62
884.31	45.63
884.476	46.23
884.642	45.86
884.807	44.7
884.973	44.72
885.139	43.69
885.305	44.42
885.471	45.25
885.637	44.14
885.802	44.05
885.968	42.47
886.134	44.26
886.3	42.88
886.465	44.92
886.631	44.41
886.797	43.24
886.962	45.04
887.128	47.09
887.293	44.86
887.459	49.12
887.625	48.03
887.79	50.66
887.956	41.52
888.121	40.23
888.287	37.11
888.452	39.7
888.618	39.48
888.783	37.26
